1178838 12.9565 15.8418 5.91077 5.08971 1.29663 -6.70792 39.7988
1178848 13.0609 15.6923 6.06769 5.20198 1.10295 -6.55257 40.0229
1178868 13.0522 15.5242 6.20369 5.17391 0.902429 -6.45696 39.954
1178878 13.0783 15.3654 6.14092 5.18327 0.83577 -6.45727 39.7678
1178898 13.3043 15.6363 6.15138 5.16456 0.83532 -6.56713 40.2566
1178911 13.3043 15.6363 6.15138 5.16456 0.83532 -6.56713 40.2566
1178919 13.3739 15.7764 6.01538 5.05228 0.894722 -6.74423 40.218
1178929 13.4 15.9071 5.90031 4.93066 0.957623 -6.90473 40.1381
1178939 13.4 15.9071 5.90031 4.93066 0.957623 -6.90473 40.1381
1178949 13.4522 15.9912 5.67015 4.7716 1.02825 -7.14613 39.8851
1178959 13.487 16.0659 5.56554 4.69675 1.07383 -7.26756 39.8152
1178971 13.487 16.0659 5.56554 4.69675 1.07383 -7.26756 39.8152
1178979 13.4696 16.0379 5.47138 4.55641 1.0455 -7.39075 39.5353
1178999 13.3826 15.8885 5.38769 4.55641 1.06755 -7.39266 39.2152
1179009 13.4087 15.8231 5.38769 4.5377 0.998789 -7.39573 39.1572
1179029 13.5391 16.0099 5.33538 4.51899 1.04963 -7.49732 39.4034
1179040 13.7043 16.2434 5.41908 4.52834 1.03291 -7.51983 39.8952
1179060 13.6435 16.2621 5.39815 4.47221 1.06387 -7.55553 39.7759
1179081 13.5826 16.2714 5.304 4.39736 1.12638 -7.6422 39.5554
1179090 13.5652 16.3181 5.28308 4.39736 1.17987 -7.65962 39.5638
1179102 13.5652 16.3181 5.28308 4.39736 1.17987 -7.65962 39.5638
1179110 13.5739 16.4022 5.168 4.40671 1.30655 -7.73741 39.5508
1179122 13.5826 16.2808 5.22031 4.45349 1.22122 -7.65972 39.5372
1179130 13.5826 16.2808 5.22031 4.45349 1.22122 -7.65972 39.5372
1179141 13.4783 16.1593 5.24123 4.52834 1.24862 -7.56259 39.4072
1179150 13.4783 16.1593 5.24123 4.52834 1.24862 -7.56259 39.4072
1179161 13.3739 16.0473 5.12615 4.52834 1.32789 -7.58784 39.0757
1179170 13.3391 16.0566 5.18892 4.64997 1.38813 -7.47688 39.2346
1179182 13.3391 16.0566 5.18892 4.64997 1.38813 -7.47688 39.2346
1179190 13.3217 16.1407 5.28308 4.69675 1.4151 -7.40928 39.4422
1179200 13.287 16.178 5.304 4.87452 1.55233 -7.29746 39.6435
1179211 13.287 16.178 5.304 4.87452 1.55233 -7.29746 39.6435
1179220 13.2696 16.3181 5.45046 4.98679 1.61456 -7.17694 40.0249
1179230 13.2696 16.3181 5.45046 4.98679 1.61456 -7.17694 40.0249
1179240 13.3565 16.4115 5.49231 5.09906 1.64879 -7.12721 40.3594
1179250 13.4348 16.3929 5.56554 5.11778 1.54915 -7.08857 40.511
1179270 13.5304 16.3929 5.65969 5.33297 1.54933 -6.94007 40.9159
1179281 13.4261 16.206 5.69108 5.34232 1.49463 -6.86038 40.6655
1179291 13.4261 16.206 5.69108 5.34232 1.49463 -6.86038 40.6655
1179301 13.4 16.0846 5.76431 5.46395 1.46407 -6.72626 40.7129
1179322 13.3217 15.8978 5.77477 5.42653 1.37789 -6.68649 40.4208
1179332 13.2261 15.9819 5.77477 5.3049 1.4185 -6.74957 40.2876
1179341 13.2261 15.9819 5.77477 5.3049 1.4185 -6.74957 40.2876
1179351 13.1913 16.0286 5.58646 5.23005 1.54913 -6.89499 40.0364
1179362 13.0783 15.9352 5.40862 5.08035 1.60031 -7.03418 39.5024
1179373 13.0783 15.9352 5.40862 5.08035 1.60031 -7.03418 39.5024
1179382 12.9565 15.8324 5.35631 4.98679 1.60123 -7.07062 39.132
1179412 12.9304 15.7857 5.168 4.87452 1.6524 -7.22689 38.7587
1179413 12.9304 15.7857 4.91692 4.70611 1.72439 -7.47008 38.3392
1179422 12.9304 15.7857 4.91692 4.70611 1.72439 -7.47008 38.3392
1179433 12.9826 15.8885 4.71815 4.45349 1.73567 -7.76736 38.0427
1179443 13.1304 16.094 4.57169 4.29444 1.76308 -8.01706 38.0905
1179453 13.1304 16.094 4.57169 4.29444 1.76308 -8.01706 38.0905
1179463 13.3826 16.4676 4.33108 4.10732 1.86819 -8.38832 38.2886
1179473 13.3826 16.4676 4.33108 4.10732 1.86819 -8.38832 38.2886
1179483 13.5304 16.617 4.06954 3.79857 1.85163 -8.79088 38.0156
1179494 13.6261 16.8692 3.91262 3.59274 1.92316 -9.07483 38.0007
1179513 13.7304 17.0584 3.72431 3.45239 2.01236 -9.32903 37.9655
1179523 13.7913 17.2042 3.74523 3.44304 2.03668 -9.35237 38.1838
1179533 13.7913 17.2042 3.74523 3.44304 2.03668 -9.35237 38.1838
1179543 13.8783 17.3987 3.73477 3.44304 2.09906 -9.40033 38.4548
1179553 13.8783 17.3987 3.73477 3.44304 2.09906 -9.40033 38.4548
1179563 13.9913 17.603 3.73477 3.41497 2.12412 -9.46386 38.744
1179573 14.1391 17.6127 3.75569 3.43368 2.02328 -9.46136 38.9412
1179593 14.2261 17.7391 3.74523 3.43368 2.04468 -9.49809 39.1441
1179613 14.3217 17.8656 3.70338 3.42433 2.07603 -9.56108 39.315
1179624 14.3304 17.9823 3.61969 3.3869 2.17389 -9.65408 39.3193
1179634 14.3304 17.9823 3.61969 3.3869 2.17389 -9.65408 39.3193
1179644 14.3391 18.1476 3.65108 3.31205 2.19864 -9.70483 39.4499
1179654 14.4435 18.2838 3.63015 3.32141 2.22507 -9.74412 39.6788
1179666 14.4435 18.2838 3.63015 3.32141 2.22507 -9.74412 39.6788
1179674 14.5217 18.3518 3.536 3.24656 2.2321 -9.86897 39.6561
1179684 14.5217 18.3518 3.536 3.24656 2.2321 -9.86897 39.6561
1179695 14.4696 18.2643 3.46277 3.24656 2.26815 -9.89697 39.4432
1179704 14.487 18.3129 3.45231 3.20914 2.26982 -9.93572 39.4613
1179714 14.487 18.3129 3.45231 3.20914 2.26982 -9.93572 39.4613
1179724 14.3913 18.274 3.37908 3.10622 2.30511 -10.0305 39.1506
1179734 14.3826 18.3227 3.42092 3.09686 2.30476 -10.0148 39.223
1179744 14.3826 18.3227 3.42092 3.09686 2.30476 -10.0148 39.223
1179754 14.5478 18.2643 3.36862 3.11558 2.20341 -10.0498 39.2963
1179764 14.5478 18.2643 3.36862 3.11558 2.20341 -10.0498 39.2963
1179774 14.6174 18.2351 3.4 3.08751 2.10043 -10.0527 39.34
1179784 14.7565 18.3129 3.42092 3.03137 2.00323 -10.1022 39.5217
1179795 14.7565 18.3129 3.42092 3.03137 2.00323 -10.1022 39.5217
1179805 14.9043 18.3518 3.33723 3.01266 1.97123 -10.1902 39.6061
1179815 14.9304 18.3032 3.33723 3.01266 1.92517 -10.1875 39.5835
1179825 14.9304 18.3032 3.33723 3.01266 1.92517 -10.1875 39.5835
1179835 14.9043 18.2935 3.31631 2.98459 1.93514 -10.2144 39.4987
1179845 14.9043 18.2935 3.31631 2.98459 1.93514 -10.2144 39.4987
1179855 14.9565 18.2935 3.27446 2.93781 1.90074 -10.2773 39.4623
1179865 15.1217 18.2351 3.30585 2.93781 1.73315 -10.27 39.6005
1179875 15.1217 18.2351 3.30585 2.93781 1.73315 -10.27 39.6005
1179885 15.2783 18.3227 3.25354 2.88167 1.68142 -10.368 39.7361
1179897 15.2783 18.2449 3.22215 2.83489 1.62918 -10.409 39.5802
1179905 15.2783 18.2449 3.22215 2.83489 1.62918 -10.409 39.5802
1179915 15.2435 18.1184 3.19077 2.87232 1.62111 -10.3864 39.425
1179927 15.2435 18.1184 3.19077 2.87232 1.62111 -10.3864 39.425
1179935 15.087 17.9823 3.20123 2.79747 1.59437 -10.3936 39.0679
1179947 15.0087 17.8169 3.19077 2.88167 1.60621 -10.3167 38.8981
1179967 14.9478 17.7197 3.28492 2.89103 1.53048 -10.2301 38.8435
1179976 15.0522 17.7489 3.33723 2.98459 1.49787 -10.1523 39.1228
1179997 15.0957 17.7197 3.41046 2.97523 1.39588 -10.1131 39.201
1180017 15.1217 17.5835 3.34769 2.94717 1.32132 -10.1578 39.0001
1180035 15.0957 17.5543 3.47323 2.97523 1.25369 -10.0521 39.0985
1180044 15.0957 17.5543 3.47323 2.97523 1.25369 -10.0521 39.0985
1180053 15.0957 17.5057 3.45231 2.99395 1.24957 -10.0474 39.0476
1180058 15.1043 17.5933 3.52554 2.98459 1.24207 -10.0187 39.2077
1180078 15.0522 17.4571 3.60923 3.07815 1.19515 -9.88167 39.1967
1180088 15.0522 17.3793 3.66154 3.17171 1.16981 -9.77909 39.2647
1180104 15.0522 17.3793 3.66154 3.17171 1.16981 -9.77909 39.2647
1180119 15.1565 17.3501 3.74523 3.19978 1.0444 -9.71884 39.4516
1180129 15.2696 17.3696 3.86031 3.31205 0.974435 -9.59526 39.8115
1180139 15.3043 17.3404 3.944 3.39626 0.930536 -9.49274 39.985
1180149 15.3043 17.3404 3.944 3.39626 0.930536 -9.49274 39.985
1180162 15.3304 17.3112 4.00677 3.36819 0.838524 -9.47108 40.0166
1180169 15.3304 17.3112 4.00677 3.36819 0.838524 -9.47108 40.0166
1180181 15.1739 17.1751 3.97538 3.3869 0.889334 -9.43814 39.7113
1180189 15.1826 17.0195 4.01723 3.3869 0.761569 -9.39169 39.6062
1180209 15.1304 16.8786 3.99631 3.34948 0.699601 -9.40034 39.3548
1180222 15.0522 16.7291 4.02769 3.41497 0.678301 -9.30756 39.224
1180229 15.0522 16.7291 4.02769 3.41497 0.678301 -9.30756 39.224
1180239 14.9739 16.6824 4.17415 3.39626 0.593096 -9.21027 39.2267
1180261 14.8609 16.5143 4.14277 3.44304 0.611949 -9.15892 38.961
1180270 14.7391 16.3088 4.32062 3.57402 0.528386 -8.91825 38.9426
1180281 14.7391 16.3088 4.32062 3.57402 0.528386 -8.91825 38.9426
1180290 14.6087 16.1033 4.41477 3.64887 0.469819 -8.76131 38.7756
1180302 14.4957 15.767 4.61354 3.78921 0.289056 -8.48042 38.6654
1180322 14.313 15.4868 4.91692 3.97633 0.15066 -8.10478 38.6931
1180330 14.1043 15.244 5.36677 4.34122 0.0730127 -7.54308 39.0563
1180350 13.8783 14.917 5.88985 4.85581 0.00299215 -6.8472 39.5409
1180363 13.8783 14.917 5.88985 4.85581 0.00299215 -6.8472 39.5409
1180372 13.5304 14.478 6.528 5.49202 -0.0552073 -5.9914 40.0285
1180383 13.1304 14.0016 7.36492 6.18437 -0.190097 -5.00823 40.6814
1180393 13.1304 14.0016 7.36492 6.18437 -0.190097 -5.00823 40.6814
1180403 12.8087 13.5813 8.03446 6.90479 -0.21598 -4.15593 41.3293
1180413 12.4348 13.0769 8.67262 7.55971 -0.281934 -3.33439 41.744
1180423 12.4348 13.0769 8.67262 7.55971 -0.281934 -3.33439 41.744
1180432 11.8609 12.4885 9.15385 8.04623 -0.288829 -2.581 41.5494
1180443 11.8609 12.4885 9.15385 8.04623 -0.288829 -2.581 41.5494
1180452 11.2435 11.6665 9.66646 8.4579 -0.478597 -1.74937 41.0343
1180462 10.8 11.05 10.2 9.01926 -0.566563 -0.960841 41.0693
1180471 10.8 11.05 10.2 9.01926 -0.566563 -0.960841 41.0693
1180482 10.313 10.5082 10.6289 9.44964 -0.601518 -0.272392 40.8998
1180492 10.313 10.5082 10.6289 9.44964 -0.601518 -0.272392 40.8998
1180501 9.89565 10.1066 10.9218 9.73968 -0.597104 0.243196 40.6638
1180513 9.50435 9.71429 11.288 10.0952 -0.605175 0.799686 40.6018
1180522 9.50435 9.71429 11.288 10.0952 -0.605175 0.799686 40.6018
1180532 9.17391 9.44341 11.5077 10.404 -0.514592 1.21925 40.529
1180541 8.88696 9.24725 11.7902 10.6753 -0.464639 1.60022 40.5997
1180562 8.68696 9.14451 11.9785 10.8998 -0.381406 1.85957 40.7098
1180573 8.4087 11.1714 12.3446 11.2179 0.948051 1.38463 43.1427
1180583 8.4087 8.78022 12.3446 11.2179 -0.463265 2.34604 40.7515
1180593 8.13043 8.4533 12.8468 11.6015 -0.561982 2.87504 41.032
1180613 7.73043 8.08901 13.2966 11.9758 -0.585428 3.45067 41.0918
1180623 7.38261 7.62198 13.7569 12.4717 -0.634134 4.08312 41.2332
1180633 7.38261 7.62198 13.7569 12.4717 -0.634134 4.08312 41.2332
1180643 6.96522 7.22967 14.3428 12.9862 -0.657497 4.74454 41.5239
1180653 6.34783 7.22967 15.1065 13.6692 -0.327827 5.38266 42.3532
1180663 6.34783 6.63187 15.1065 13.6692 -0.690439 5.67448 41.7554
1180673 5.66957 5.94066 16.1108 14.5581 -0.75783 6.76172 42.2791
1180689 5.66957 5.94066 16.1108 14.5581 -0.75783 6.76172 42.2791
1180694 5.10435 5.37088 16.8954 15.2223 -0.825553 7.62186 42.593
1180704 4.54783 4.68901 17.3445 15.7744 -0.843447 8.45767 42.3557
1180716 4.54783 4.68901 17.3445 15.7744 -0.843447 8.45767 42.3557
1180724 4.06957 4.33407 17.6989 15.9895 -0.858153 9.01054 42.0921
1180734 3.72174 3.92308 17.8072 16.2047 -0.840868 9.49442 41.6567
1180744 3.72174 3.92308 17.8072 16.2047 -0.840868 9.49442 41.6567
1180754 3.51304 3.72692 17.8958 16.2983 -0.83482 9.75796 41.434
1180764 3.51304 3.72692 17.8958 16.2983 -0.83482 9.75796 41.434
1180774 3.26957 3.55879 17.9548 16.4199 -0.755823 10.0283 41.2031
1180785 3.22609 3.38132 17.9056 16.5509 -0.730251 10.1728 41.0639
1180794 3.22609 3.38132 17.9056 16.5509 -0.730251 10.1728 41.0639
1180805 3.33913 3.54945 17.758 16.4106 -0.692374 9.96659 41.0571
1180825 3.53043 3.77363 17.5119 16.3264 -0.572595 9.67405 41.1423
1180834 3.88696 4.08187 17.2067 16.0737 -0.568528 9.20439 41.2493
1180854 4.28696 4.57692 16.7908 15.8305 -0.403947 8.59008 41.4851
1180867 4.6 4.95989 16.6234 15.6247 -0.382009 8.14014 41.8079
1180875 4.6 4.95989 16.6234 15.6247 -0.382009 8.14014 41.8079
1180885 4.73913 5.09066 16.3723 15.5124 -0.304689 7.93066 41.7145
1180895 4.73913 5.09066 16.3723 15.5124 -0.304689 7.93066 41.7145
1180907 4.70435 5.01593 16.3095 15.5685 -0.258082 7.9899 41.5983
1180915 4.64348 4.83846 16.4246 15.6995 -0.318541 8.16306 41.6061
1180928 4.64348 4.83846 16.4246 15.6995 -0.318541 8.16306 41.6061
1180935 4.42609 4.63297 16.5815 15.7931 -0.350918 8.4408 41.4337
1180945 4.32174 4.39945 16.7594 15.9521 -0.440204 8.68528 41.4327
1180955 4.32174 4.39945 16.7594 15.9521 -0.440204 8.68528 41.4327
1180967 4.21739 4.34341 16.9582 16.158 -0.404413 8.83774 41.6769
1180975 4.21739 4.34341 16.9582 16.158 -0.404413 8.83774 41.6769
1180988 4.0087 4.15659 17.1772 16.3731 -0.393224 9.12789 41.7156
1180995 3.86957 4.01648 17.5316 16.579 -0.479601 9.36665 41.9966
1181006 3.86957 4.01648 17.5316 16.579 -0.479601 9.36665 41.9966
1181015 3.69565 3.85769 17.8564 16.8784 -0.482397 9.64151 42.2881
1181028 3.46957 3.68022 18.1419 17.0682 -0.509335 9.9364 42.3598
1181047 3.25217 3.39066 18.4569 17.2923 -0.605136 10.299 42.392
1181056 3.25217 3.39066 18.4569 17.2923 -0.605136 10.299 42.392
1181066 3.09565 3.21319 18.6931 17.6235 -0.558399 10.5598 42.6254
1181077 2.90435 3.08242 18.8112 17.7209 -0.536378 10.7759 42.5189
1181096 2.69565 2.92363 18.6242 17.4871 -0.54464 10.9603 41.7306
1181107 2.50435 2.85824 18.6537 17.604 -0.417961 11.1346 41.6203
1181117 2.50435 2.85824 18.6537 17.604 -0.417961 11.1346 41.6203
1181126 2.47826 2.83956 18.949 17.8476 -0.439386 11.2119 42.1144
1181136 2.47826 2.83956 18.949 17.8476 -0.439386 11.2119 42.1144
1181148 2.46087 2.72747 18.9687 17.9352 -0.455478 11.3022 42.0923
1181158 2.37391 2.65275 18.8309 17.9255 -0.374904 11.3909 41.7831
1181177 2.27826 2.60604 18.4962 17.7599 -0.248276 11.4383 41.1404
1181189 2.23478 2.52198 18.4667 17.7307 -0.273995 11.5155 40.9541
1181208 2.18261 2.55934 18.6833 17.8963 -0.24821 11.5573 41.3215
1181219 2.18261 2.55934 18.6833 17.8963 -0.24821 11.5573 41.3215
1181228 2.18261 2.52198 18.7226 17.9547 -0.258894 11.5894 41.382
1181239 2.23478 2.46593 18.7915 18.0132 -0.329605 11.6023 41.5054
1181248 2.23478 2.46593 18.7915 18.0132 -0.329605 11.6023 41.5054
1181258 2.18261 2.47527 18.9097 18.1301 -0.291935 11.6488 41.6976
1181268 2.2087 2.43791 18.89 18.1009 -0.336179 11.6521 41.6375
1181288 2.17391 2.53132 18.7226 18.0132 -0.212383 11.5938 41.4411
1181305 2.17391 2.53132 18.7226 18.0132 -0.212383 11.5938 41.4411
1181314 2.16522 2.44725 18.4962 17.6722 -0.33226 11.6069 40.7809
1181331 2.2087 2.44725 18.4273 17.4871 -0.432377 11.5571 40.5704
1181335 2.2087 2.44725 18.4273 17.4871 -0.432377 11.5571 40.5704
1181339 2.36522 2.52198 18.9294 17.8865 -0.531173 11.4843 41.7031
1181349 2.47826 2.72747 19.2837 17.984 -0.618368 11.3231 42.4734
1181369 2.53913 2.8489 19.205 17.7891 -0.652453 11.1861 42.3821
1181380 2.47826 2.73681 19.1262 17.7014 -0.69349 11.2787 42.0427
1181390 2.47826 2.73681 19.1262 17.7014 -0.69349 11.2787 42.0427
1181400 2.58261 2.8022 19.077 17.6235 -0.73299 11.1615 42.0853
1181410 2.58261 2.8022 19.077 17.6235 -0.73299 11.1615 42.0853
1181420 2.58261 2.82088 19.018 17.3897 -0.831115 11.1229 41.8111
1181430 2.67826 2.86758 19.0475 17.2533 -0.958776 11.0242 41.8466
1181443 2.67826 2.86758 19.0475 17.2533 -0.958776 11.0242 41.8466
1181450 2.71304 2.93297 19.0672 17.1754 -0.99782 10.9564 41.8885
1181460 2.77391 2.96099 19.2148 17.2241 -1.0692 10.9205 42.1738
1181470 2.77391 2.96099 19.2148 17.2241 -1.0692 10.9205 42.1738
1181480 2.85217 3.01703 19.1065 17.1072 -1.08983 10.816 42.0829
1181490 2.85217 3.01703 19.1065 17.1072 -1.08983 10.816 42.0829
1181500 2.93043 3.01703 18.9294 16.8409 -1.19962 10.7231 41.7178
1181510 2.93913 2.96099 18.7226 16.6632 -1.23384 10.7127 41.2859
1181531 3.05217 3.07308 18.7423 16.5883 -1.28636 10.5674 41.4559
1181542 3.21739 3.27857 18.7817 16.6632 -1.22633 10.3535 41.9408
1181552 3.21739 3.27857 18.7817 16.6632 -1.22633 10.3535 41.9408
1181562 3.42609 3.6522 18.6931 16.6538 -1.06845 9.99476 42.4252
1181572 3.42609 3.6522 18.6931 16.6538 -1.06845 9.99476 42.4252
1181582 3.50435 3.79231 18.3289 16.317 -1.02755 9.78096 41.9426
1181591 3.66087 4.06319 17.9351 15.9521 -0.949691 9.43128 41.6113
1181611 3.8087 4.24066 17.7087 15.765 -0.910205 9.18443 41.5231
1181622 3.8087 4.24066 17.7087 15.765 -0.910205 9.18443 41.5231
1181632 3.96522 4.47418 17.502 15.4562 -0.928086 8.88415 41.3977
1181641 4.18261 4.82912 17.1969 15.1475 -0.848038 8.46283 41.3561
1181653 4.18261 4.82912 17.1969 15.1475 -0.848038 8.46283 41.3561
1181661 4.36522 5.11868 16.9268 14.8668 -0.791286 8.10721 41.2775
1181671 4.58261 5.42692 16.6757 14.5113 -0.801094 7.71089 41.1965
1181681 4.58261 5.42692 16.6757 14.5113 -0.801094 7.71089 41.1965
1181691 4.77391 5.79121 16.4769 14.2119 -0.756136 7.31701 41.2539
1181702 4.77391 5.79121 16.4769 14.2119 -0.756136 7.31701 41.2539
1181712 4.88696 6.04341 16.2991 13.9873 -0.700738 7.04424 41.2168
1181722 5.12174 6.26758 16.1945 13.8283 -0.736699 6.74927 41.4121
1181732 5.12174 6.26758 16.1945 13.8283 -0.736699 6.74927 41.4121
1181742 5.21739 6.51978 16.0271 13.6692 -0.636837 6.50168 41.4335
1181752 5.24348 6.61319 16.0689 13.7067 -0.596024 6.45614 41.6322
1181762 5.24348 6.61319 16.0689 13.7067 -0.596024 6.45614 41.6322
1181772 5.25217 6.5478 16.184 13.7067 -0.70862 6.5089 41.6906
1181784 5.25217 6.5478 16.184 13.7067 -0.70862 6.5089 41.6906
1181791 5.22609 6.51978 16.1526 13.6412 -0.73289 6.51712 41.5396
1181802 5.18261 6.57582 16.1735 13.5382 -0.748774 6.49382 41.4702
1181812 5.18261 6.57582 16.1735 13.5382 -0.748774 6.49382 41.4702
1181822 5.18261 6.51044 16.1317 13.5476 -0.759116 6.52111 41.3723
1181831 5.09565 6.38901 16.1735 13.6131 -0.767532 6.65183 41.2713
1181841 5.09565 6.38901 16.1735 13.6131 -0.767532 6.65183 41.2713
1181851 5.11304 6.37033 16.2154 13.6318 -0.802246 6.66474 41.3306
1181863 5.11304 6.37033 16.2154 13.6318 -0.802246 6.66474 41.3306
1181873 5.09565 6.39835 16.1945 13.6599 -0.744818 6.66061 41.3483
1181883 5.07826 6.43571 16.2363 13.6318 -0.753371 6.65293 41.3821
1181893 5.07826 6.43571 16.2363 13.6318 -0.753371 6.65293 41.3821
1181903 5.06957 6.53846 16.1212 13.5944 -0.640039 6.57284 41.3236
1181913 5.01739 6.5478 16.1317 13.585 -0.615436 6.59545 41.2819
1181923 5.01739 6.5478 16.1317 13.585 -0.615436 6.59545 41.2819
1181933 5.04348 6.69725 16.048 13.6318 -0.460166 6.49644 41.4205
1181943 5.04348 6.69725 16.048 13.6318 -0.460166 6.49644 41.4205
1181953 5.03478 6.69725 15.9643 13.5663 -0.445633 6.47023 41.2627
1181970 5.17391 6.8467 15.8283 13.4821 -0.407323 6.27487 41.331
1181974 5.17391 6.8467 15.8283 13.4821 -0.407323 6.27487 41.331
1181984 5.33913 7.01484 15.6505 13.2482 -0.440304 6.01587 41.2526
1181994 5.58261 7.21099 15.3471 12.8927 -0.503261 5.64644 41.0334
1182004 5.58261 7.21099 15.3471 12.8927 -0.503261 5.64644 41.0334
1182014 5.83478 7.48187 15.0542 12.6026 -0.49082 5.24979 40.9734
1182024 5.83478 7.48187 15.0542 12.6026 -0.49082 5.24979 40.9734
1182034 6.05217 7.70604 14.7822 12.3032 -0.504999 4.89447 40.8436
1182044 6.26957 7.89286 14.5206 12.1068 -0.484529 4.58385 40.7898
1182064 6.49565 8.09835 14.4369 11.8822 -0.581717 4.29879 40.9131
1182075 6.68696 8.35989 14.144 11.6951 -0.474468 3.9594 40.8859
1182084 6.68696 8.35989 14.144 11.6951 -0.474468 3.9594 40.8859
1182094 6.93043 8.57473 13.8302 11.3115 -0.537778 3.55618 40.6468
1182104 6.93043 8.57473 13.8302 11.3115 -0.537778 3.55618 40.6468
1182114 7.08696 8.72418 13.5477 11.0402 -0.538565 3.25877 40.399
1182124 7.36522 8.99506 13.3071 10.8063 -0.53798 2.87338 40.4736
1182134 7.36522 8.99506 13.3071 10.8063 -0.53798 2.87338 40.4736
1182144 7.65217 9.32198 13.0665 10.6192 -0.478058 2.47596 40.6598
1182154 7.65217 9.32198 13.0665 10.6192 -0.478058 2.47596 40.6598
1182164 7.97391 9.49945 12.7735 10.3104 -0.577947 2.07506 40.5573
1182175 8.28696 9.89176 12.4178 10.0484 -0.4703 1.58232 40.645
1182185 8.28696 9.89176 12.4178 10.0484 -0.4703 1.58232 40.645
1182195 8.56522 10.2841 11.9262 9.6929 -0.317782 1.02664 40.4683
1182205 8.91304 10.7698 11.4449 9.2251 -0.224948 0.366962 40.3528
1182215 8.91304 10.7698 11.4449 9.2251 -0.224948 0.366962 40.3528
1182225 9.37391 11.1714 10.8905 8.79472 -0.185326 -0.320712 40.2305
1182236 9.37391 11.1714 10.8905 8.79472 -0.185326 -0.320712 40.2305
1182245 9.69565 11.5731 10.4511 8.38305 -0.11882 -0.910635 40.1029
1182255 10.2348 12.0775 9.80246 7.9246 -0.0219613 -1.71776 40.0393
1182265 10.2348 12.0775 9.80246 7.9246 -0.0219613 -1.71776 40.0393
1182275 10.8609 12.6659 9.07015 7.3071 0.0263214 -2.68753 39.9041
1182286 11.4435 13.2824 8.31692 6.69895 0.139004 -3.66492 39.7418
1182297 11.4435 13.2824 8.31692 6.69895 0.139004 -3.66492 39.7418
1182307 11.8696 13.7308 7.78338 6.27793 0.224239 -4.36405 39.6617
1182317 12.1826 13.983 7.33354 5.97854 0.282031 -4.88384 39.4776
1182327 12.1826 13.983 7.33354 5.97854 0.282031 -4.88384 39.4776
1182336 12.4348 14.2912 7.10338 5.7727 0.331894 -5.2459 39.6021
1182346 12.4348 14.2912 7.10338 5.7727 0.331894 -5.2459 39.6021
1182357 12.5391 14.394 6.97785 5.63236 0.322014 -5.43312 39.5433
1182366 12.6435 14.6368 6.90462 5.59494 0.429651 -5.57345 39.7798
1182377 12.6435 14.6368 6.90462 5.59494 0.429651 -5.57345 39.7798
1182388 12.8957 14.8703 6.83138 5.42653 0.355923 -5.81205 40.0239
1182397 12.8957 14.8703 6.83138 5.42653 0.355923 -5.81205 40.0239
1182407 13.1043 15.0198 6.59077 5.23941 0.352946 -6.11722 39.9543
1182417 13.2348 15.0665 6.47569 5.12713 0.302687 -6.27697 39.9041
1182427 13.2348 15.0665 6.47569 5.12713 0.302687 -6.27697 39.9041
1182437 13.2087 14.9824 6.30831 5.0055 0.298011 -6.4083 39.5049
1182447 13.2 14.9264 6.23508 4.9213 0.262579 -6.47994 39.2827
1182457 13.2 14.9264 6.23508 4.9213 0.262579 -6.47994 39.2827
1182467 13.1217 14.8516 6.20369 4.93066 0.292057 -6.45871 39.1077
1182476 13.1217 14.8516 6.20369 4.93066 0.292057 -6.45871 39.1077
1182490 12.913 14.6275 6.26646 5.11778 0.363359 -6.22597 38.9248
1182497 12.8261 14.4967 6.48615 5.25812 0.283217 -5.98145 39.0671
1182517 12.7913 14.478 6.73723 5.43588 0.244263 -5.7411 39.4424
1182528 13.0696 14.7489 6.89415 5.51073 0.183922 -5.748 40.2234
1182548 13.3913 15.1692 6.74769 5.31425 0.212005 -6.09216 40.6225
1182558 13.3913 15.1692 6.74769 5.31425 0.212005 -6.09216 40.6225
1182568 13.7043 15.5429 6.32923 4.93066 0.271517 -6.6608 40.5071
1182578 14.0087 15.8418 5.91077 4.58448 0.314018 -7.19601 40.3457
1182593 14.0087 15.8418 5.91077 4.58448 0.314018 -7.19601 40.3457
1182601 14.313 16.0753 5.47138 4.09796 0.243264 -7.81538 39.9577
1182610 14.3565 16.2154 5.12615 3.87342 0.382933 -8.17723 39.5715
1182620 14.3565 16.2154 5.12615 3.87342 0.382933 -8.17723 39.5715
1182629 14.3913 16.1687 4.92738 3.6208 0.300959 -8.44266 39.1082
1182639 14.3913 16.1687 4.92738 3.6208 0.300959 -8.44266 39.1082
1182649 14.4087 16.2621 4.67631 3.43368 0.39373 -8.72628 38.7808
1182659 14.5043 16.3835 4.55077 3.41497 0.478315 -8.84942 38.8536
1182679 14.713 16.5236 4.40431 3.26527 0.431517 -9.08611 38.9062
1182689 14.887 16.6264 4.29969 3.22785 0.427485 -9.21565 39.0409
1182700 14.887 16.6264 4.29969 3.22785 0.427485 -9.21565 39.0409
1182710 15.1652 17.0097 4.13231 3.14364 0.542349 -9.46708 39.4509
1182721 15.1652 17.0097 4.13231 3.14364 0.542349 -9.46708 39.4509
1182729 15.4435 17.2529 4.02769 2.96588 0.470883 -9.71384 39.6899
1182739 15.5739 17.4182 3.76615 2.83489 0.576499 -9.99834 39.5932
1182749 15.5739 17.4182 3.76615 2.83489 0.576499 -9.99834 39.5932
1182760 15.6087 17.4863 3.55692 2.70391 0.650832 -10.2275 39.3558
1182769 15.5652 17.5641 3.44185 2.6197 0.750631 -10.36 39.1908
1182779 15.5652 17.5641 3.44185 2.6197 0.750631 -10.36 39.1908
1182789 15.4261 17.5641 3.33723 2.60099 0.900209 -10.4237 38.9284
1182800 15.4261 17.5641 3.33723 2.60099 0.900209 -10.4237 38.9284
1182810 15.2174 17.3987 3.264 2.51679 0.93376 -10.4834 38.3969
1182820 15.087 17.2334 3.23262 2.56357 0.969005 -10.4381 38.1165
1182830 15.087 17.2334 3.23262 2.56357 0.969005 -10.4381 38.1165
1182840 14.8609 17.1556 3.24308 2.55421 1.0617 -10.4007 37.8138
1182850 14.6 16.9813 3.34769 2.66648 1.13053 -10.2009 37.5955
1182861 14.6 16.9813 3.34769 2.66648 1.13053 -10.2009 37.5955
1182870 14.5217 16.9253 3.52554 2.8536 1.14445 -9.94069 37.8262
1182881 14.5217 16.9253 3.52554 2.8536 1.14445 -9.94069 37.8262
1182890 14.6174 17.1167 3.64062 2.93781 1.17227 -9.84887 38.3125
1182900 14.9043 17.4863 3.88123 3.10622 1.14716 -9.67664 39.3781
1182910 14.9043 17.4863 3.88123 3.10622 1.14716 -9.67664 39.3781
1182922 15.0696 17.778 3.97538 3.22785 1.22403 -9.60443 40.0508
1182930 15.0783 17.8947 4.05908 3.34012 1.29886 -9.50176 40.3722
1182950 14.8783 17.7975 4.08 3.42433 1.40838 -9.39698 40.1801
1182960 14.8783 17.7975 4.08 3.42433 1.40838 -9.39698 40.1801
1182971 14.6435 17.6711 4.16369 3.56467 1.51622 -9.20994 40.0429
1182981 14.6261 17.5349 4.19508 3.63016 1.46544 -9.12905 39.9862
1183002 14.6696 17.4863 4.16369 3.67694 1.45635 -9.11901 39.9965
1183012 14.7217 17.5835 4.05908 3.63952 1.52624 -9.22661 40.0039
1183021 14.7217 17.5835 4.05908 3.63952 1.52624 -9.22661 40.0039
1183032 14.8087 17.7489 3.99631 3.57402 1.56865 -9.34035 40.1279
1183042 14.8087 17.7489 3.99631 3.57402 1.56865 -9.34035 40.1279
1183052 14.6957 17.8947 3.87077 3.40561 1.71441 -9.52448 39.8668
1183062 14.6522 17.9434 3.78708 3.31205 1.77364 -9.6347 39.6947
1183072 14.6522 17.9434 3.78708 3.31205 1.77364 -9.6347 39.6947
1183081 14.5391 17.9239 3.61969 3.21849 1.8979 -9.78017 39.3012
1183092 14.3826 17.7002 3.60923 3.17171 1.85269 -9.76561 38.8638
1183102 14.3826 17.7002 3.60923 3.17171 1.85269 -9.76561 38.8638
1183112 14.2174 17.5446 3.60923 3.14364 1.8575 -9.74005 38.5149
1183122 14.2174 17.5446 3.60923 3.14364 1.8575 -9.74005 38.5149
1183133 14.2348 17.4085 3.56738 3.21849 1.83766 -9.70255 38.4291
1183141 14.3565 17.4182 3.65108 3.25592 1.72337 -9.64321 38.6817
1183151 14.3565 17.4182 3.65108 3.25592 1.72337 -9.64321 38.6817
1183161 14.4348 17.4182 3.65108 3.28398 1.68629 -9.63618 38.788
1183171 14.5478 17.4279 3.73477 3.34948 1.59678 -9.55895 39.06
1183182 14.5478 17.4279 3.73477 3.34948 1.59678 -9.55895 39.06
1183191 14.5565 17.5446 3.75569 3.40561 1.67974 -9.52813 39.2624
1183213 14.4435 17.5543 3.82892 3.36819 1.69035 -9.49129 39.1949
1183223 14.313 17.496 3.89169 3.45239 1.75188 -9.3728 39.1531
1183250 14.313 17.496 3.89169 3.45239 1.75188 -9.3728 39.1531
1183252 14.3565 17.5057 3.92308 3.51789 1.74541 -9.32034 39.3032
1183254 14.4174 17.496 3.97538 3.63016 1.72915 -9.22641 39.5189
1183264 14.4174 17.496 3.97538 3.63016 1.72915 -9.22641 39.5189
1183273 14.513 17.4668 4.11138 3.64887 1.56722 -9.14175 39.7401
1183285 14.513 17.4668 4.11138 3.64887 1.56722 -9.14175 39.7401
1183293 14.3739 17.3209 4.14277 3.78921 1.63618 -8.99499 39.6268
1183304 14.3217 17.1653 4.26831 3.82664 1.51705 -8.86468 39.582
1183324 14.2696 17.0097 4.27877 3.91084 1.50259 -8.77514 39.4689
1183334 14.1304 16.8505 4.46708 3.96698 1.4081 -8.58058 39.415
1183345 14.1304 16.8505 4.46708 3.96698 1.4081 -8.58058 39.415
1183354 14.0261 16.8319 4.67631 4.12603 1.42176 -8.3417 39.6603
1183366 14.0261 16.8319 4.67631 4.12603 1.42176 -8.3417 39.6603
1183374 13.9217 16.7198 4.76 4.26637 1.45231 -8.17354 39.6679
1183386 13.9565 16.6918 4.896 4.36929 1.38332 -8.03599 39.9136
1183394 13.9565 16.6918 4.896 4.36929 1.38332 -8.03599 39.9136
1183404 13.887 16.6357 4.94831 4.388 1.37262 -7.97299 39.859
1183414 13.8174 16.5143 4.99015 4.41607 1.33551 -7.8988 39.7379
1183435 13.6609 16.4676 5.01108 4.43478 1.409 -7.8394 39.5743
1183448 13.6609 16.4676 5.01108 4.43478 1.409 -7.8394 39.5743
1183455 13.6087 16.3835 4.91692 4.33187 1.39507 -7.92924 39.241
1183468 13.5826 16.3181 4.86462 4.33187 1.40852 -7.94337 39.0972
1183488 13.5739 16.2527 4.88554 4.28509 1.33239 -7.94518 38.9973
1183495 13.6 16.206 4.86462 4.22895 1.26632 -7.9869 38.8996
1183517 13.6435 16.2808 4.88554 4.31315 1.3195 -7.94632 39.1229
1183527 13.6435 16.2808 4.88554 4.31315 1.3195 -7.94632 39.1229
1183536 13.6696 16.3742 4.92738 4.34122 1.34719 -7.92695 39.3123
1183547 13.7391 16.4863 4.97969 4.34122 1.33303 -7.92911 39.5463
1183558 13.7391 16.4863 4.97969 4.34122 1.33303 -7.92911 39.5463
1183566 13.7826 16.589 4.93785 4.35058 1.39885 -7.97397 39.66
1183576 13.8435 16.6357 5.032 4.35993 1.32939 -7.93328 39.8711
1183596 13.7391 16.6451 4.96923 4.37865 1.45684 -7.94181 39.7321
1183606 13.7391 16.6451 4.96923 4.37865 1.45684 -7.94181 39.7321
1183616 13.6609 16.4769 4.90646 4.32251 1.4175 -7.96693 39.3668
1183627 13.6435 16.3462 4.96923 4.32251 1.30848 -7.9037 39.2814
1183637 13.6435 16.3462 4.96923 4.32251 1.30848 -7.9037 39.2814
1183646 13.6522 16.3835 4.95877 4.41607 1.38836 -7.8637 39.4105
1183658 13.5913 16.3462 5.06338 4.42543 1.34231 -7.77983 39.4263
1183668 13.5913 16.3462 5.06338 4.42543 1.34231 -7.77983 39.4263
1183678 13.5652 16.3462 5.06338 4.58448 1.4548 -7.68348 39.5592
1183688 13.5652 16.3462 5.06338 4.58448 1.4548 -7.68348 39.5592
1183698 13.3652 16.1874 5.07385 4.59384 1.49294 -7.60509 39.2203
1183708 13.2 16.0379 5.15754 4.64062 1.48644 -7.46992 39.0361
1183728 13.0783 15.8604 5.29354 4.74353 1.43177 -7.27438 38.9758
1183739 13.0087 15.6363 5.46092 4.95872 1.36016 -6.99814 39.0646
1183748 13.0087 15.6363 5.46092 4.95872 1.36016 -6.99814 39.0646
1183759 12.9304 15.5148 5.67015 5.18327 1.33434 -6.71467 39.2987
1183769 12.9304 15.5148 5.67015 5.18327 1.33434 -6.71467 39.2987
1183780 12.887 15.4214 5.93169 5.37039 1.24536 -6.44008 39.6105
1183789 12.8522 15.3374 6.23508 5.72592 1.23039 -6.06288 40.1505
1183801 12.8522 15.3374 6.23508 5.72592 1.23039 -6.06288 40.1505
1183809 12.7304 15.1412 6.56985 5.95047 1.10876 -5.70089 40.392
1183819 12.6696 15.0291 6.81046 6.16566 1.05394 -5.42937 40.6748
1183829 12.6696 15.0291 6.81046 6.16566 1.05394 -5.42937 40.6748
1183839 12.5391 14.8143 7.10338 6.42763 0.977999 -5.07127 40.8844
1183849 12.5391 14.8143 7.10338 6.42763 0.977999 -5.07127 40.8844
1183859 12.3565 14.5341 7.33354 6.61475 0.892994 -4.75367 40.8389
1183869 12.087 14.2258 7.51138 6.78316 0.868466 -4.43943 40.6073
1183879 12.087 14.2258 7.51138 6.78316 0.868466 -4.43943 40.6073
1183894 11.8609 13.9923 7.54277 6.87672 0.909668 -4.2586 40.2727
1183899 11.5217 13.5907 7.74154 6.97028 0.81462 -3.91743 39.8242
1183909 11.5217 13.5907 7.74154 6.97028 0.81462 -3.91743 39.8242
1183919 11.4 13.3011 8.03446 7.26032 0.70442 -3.52773 39.9959
1183929 11.4 13.3011 8.03446 7.26032 0.70442 -3.52773 39.9959
1183939 11.1826 12.9648 8.30646 7.50358 0.612742 -3.12985 39.9575
1183949 10.9652 12.6566 8.72492 7.90589 0.541794 -2.60517 40.2526
1183960 10.9652 12.6566 8.72492 7.90589 0.541794 -2.60517 40.2526
1183972 10.7565 12.4978 8.96554 8.27078 0.646147 -2.22941 40.4906
1183980 10.6261 12.283 9.248 8.57953 0.606585 -1.87112 40.7366
1183990 10.6261 12.283 9.248 8.57953 0.606585 -1.87112 40.7366
1184000 10.3478 11.9934 9.53046 8.78536 0.553706 -1.48513 40.6571
1184010 10.3478 11.9934 9.53046 8.78536 0.553706 -1.48513 40.6571
1184025 10.087 11.6665 9.792 9.00055 0.485915 -1.09538 40.546
1184030 9.82609 11.3582 10.1163 9.32801 0.457719 -0.642407 40.6287
1184076 9.82609 11.3582 10.1163 9.32801 0.457719 -0.642407 40.6287
1184082 9.46087 11.0313 10.4092 9.63676 0.49212 -0.165102 40.5382
1184086 9.06956 10.6016 10.9428 10.1233 0.437313 0.513597 40.7373
1184087 9.06956 10.6016 10.9428 10.1233 0.437313 0.513597 40.7373
1184090 8.63478 10.256 11.5391 10.5349 0.376624 1.16558 40.9649
1184092 8.63478 10.256 11.5391 10.5349 0.376624 1.16558 40.9649
1184102 8.28696 9.75165 12.0412 11.0963 0.31558 1.85749 41.1761
1184110 7.90435 9.26593 12.5225 11.536 0.227493 2.5061 41.2288
1184123 7.90435 9.26593 12.5225 11.536 0.227493 2.5061 41.2288
1184130 7.62609 8.77088 12.9828 12.0039 0.100204 3.11343 41.3836
1184143 7.27826 8.31319 13.4954 12.3781 -0.0496581 3.71954 41.4649
1184150 7.27826 8.31319 13.4954 12.3781 -0.0496581 3.71954 41.4649
1184160 6.84348 7.86484 13.8825 12.8178 -0.0261262 4.34402 41.4086
1184170 6.84348 7.86484 13.8825 12.8178 -0.0261262 4.34402 41.4086
1184181 6.49565 7.34176 14.4474 13.2763 -0.195494 5.01175 41.5611
1184190 6.0087 6.94945 14.96 13.8189 -0.119986 5.68587 41.7371
1184205 6.0087 6.94945 14.96 13.8189 -0.119986 5.68587 41.7371
1184212 5.5913 6.51978 15.3889 14.2493 -0.12643 6.29728 41.7493
1184221 5.2087 6.14615 15.6818 14.5206 -0.134604 6.803 41.5573
1184232 5.2087 6.14615 15.6818 14.5206 -0.134604 6.803 41.5573
1184241 5 5.9033 15.8074 14.7078 -0.118503 7.10258 41.4184
1184252 5 5.9033 15.8074 14.7078 -0.118503 7.10258 41.4184
1184264 4.73913 5.74451 15.9643 14.8575 -0.0614166 7.38576 41.3054
1184272 4.62609 5.66978 15.9434 14.792 -0.0656366 7.47217 41.0312
1184291 4.66957 5.66044 15.9852 14.7826 -0.128806 7.45946 41.0978
1184303 4.64348 5.68846 15.9643 14.8762 -0.0262037 7.4717 41.1724
1184313 4.64348 5.68846 15.9643 14.8762 -0.0262037 7.4717 41.1724
1184323 4.71304 5.67912 16.0585 14.9042 -0.113741 7.46123 41.3549
1184343 4.74783 5.66044 15.9852 14.9136 -0.0962451 7.44081 41.3071
1184353 4.81739 5.6978 16.0062 14.8575 -0.16209 7.37639 41.3788
1184363 4.81739 5.6978 16.0062 14.8575 -0.16209 7.37639 41.3788
1184374 4.7913 5.76319 16.1735 14.8481 -0.212595 7.38422 41.5761
1184385 4.71304 5.63242 16.32 14.9697 -0.258733 7.54564 41.6352
1184394 4.71304 5.63242 16.32 14.9697 -0.258733 7.54564 41.6352
1184404 4.64348 5.52033 16.3305 15.0165 -0.263244 7.65458 41.5108
1184414 4.64348 5.52033 16.3305 15.0165 -0.263244 7.65458 41.5108
1184424 4.6 5.40824 16.2572 15.0259 -0.256181 7.72857 41.2913
1184434 4.6 5.45495 16.3723 15.0726 -0.267902 7.73135 41.4999
1184444 4.6 5.45495 16.3723 15.0726 -0.267902 7.73135 41.4999
1184455 4.6087 5.38956 16.3514 15.0446 -0.317641 7.75388 41.3942
1184464 4.58261 5.28681 16.32 15.0072 -0.369352 7.81293 41.1966
1184484 4.49565 5.24011 16.6548 15.2223 -0.413315 7.98119 41.6129
1184494 4.49565 5.24011 16.6548 15.2223 -0.413315 7.98119 41.6129
1184504 4.38261 4.98791 17.0295 15.5311 -0.532499 8.29578 41.9311
1184517 4.23478 4.74505 17.315 15.9241 -0.521491 8.61909 42.2189
1184529 4.23478 4.74505 17.315 15.9241 -0.521491 8.61909 42.2189
1184535 4.05217 4.52088 17.4922 15.9615 -0.631741 8.88028 42.0267
1184544 4.05217 4.52088 17.4922 15.9615 -0.631741 8.88028 42.0267
1184554 3.8087 4.23132 17.6202 16.2047 -0.592858 9.2386 41.8649
1184564 3.66957 3.96978 17.8466 16.2702 -0.764029 9.51145 41.7561
1184574 3.66957 3.96978 17.8466 16.2702 -0.764029 9.51145 41.7561
1184584 3.48696 3.86703 17.9844 16.3076 -0.77837 9.7025 41.646
1184595 3.32174 3.7456 17.9745 16.2983 -0.757354 9.87132 41.3402
1184614 3.33913 3.76429 17.945 16.1673 -0.820395 9.82958 41.2157
1184624 3.33913 3.76429 17.945 16.1673 -0.820395 9.82958 41.2157
1184634 3.44348 3.80165 17.8466 16.1299 -0.8239 9.72718 41.2216
1184644 3.51304 3.98846 17.7678 15.8773 -0.859801 9.53065 41.1466
1184654 3.51304 3.98846 17.7678 15.8773 -0.859801 9.53065 41.1466
1184664 3.71304 4.21264 17.4331 15.6527 -0.780758 9.20235 41.0115
1184674 3.96522 4.5489 17.2166 15.4282 -0.731738 8.7942 41.1589
1184686 3.96522 4.5489 17.2166 15.4282 -0.731738 8.7942 41.1589
1184694 4.26087 4.8011 17.1378 15.475 -0.673442 8.47665 41.6747
1184706 4.26087 4.8011 17.1378 15.475 -0.673442 8.47665 41.6747
1184714 4.33043 4.93187 17.0886 15.4188 -0.639421 8.3476 41.7697
1184724 4.4087 5.09066 17.0098 15.344 -0.587715 8.19094 41.8532
1184734 4.4087 5.09066 17.0098 15.344 -0.587715 8.19094 41.8532
1184744 4.41739 5.09066 16.9058 15.3533 -0.526279 8.17068 41.7672
1184754 4.4 5.1467 16.7908 15.3065 -0.442749 8.12264 41.644
1184775 4.4087 5.09066 16.8535 15.3627 -0.484763 8.16848 41.7156
1184785 4.4087 5.09066 16.8535 15.3627 -0.484763 8.16848 41.7156
1184798 4.37391 5.07198 16.8745 15.3908 -0.470883 8.20621 41.7111
1184805 4.4087 5.09066 16.8326 15.4001 -0.449619 8.17119 41.7321
1184815 4.4087 5.09066 16.8326 15.4001 -0.449619 8.17119 41.7321
1184825 4.43478 5.02527 16.8431 15.3346 -0.551164 8.18403 41.6378
1184837 4.45217 5.0533 16.9163 15.3627 -0.569886 8.17535 41.7845
1184846 4.45217 5.0533 16.9163 15.3627 -0.569886 8.17535 41.7845
1184856 4.46957 5.09066 16.9686 15.2598 -0.650747 8.13672 41.7886
1184866 4.46957 5.09066 16.9686 15.2598 -0.650747 8.13672 41.7886
1184878 4.4 4.95055 17.1575 15.3253 -0.765949 8.29442 41.8333
1184886 4.28696 4.81978 17.3052 15.503 -0.757071 8.48199 41.9149
1184899 4.28696 4.81978 17.3052 15.503 -0.757071 8.48199 41.9149
1184906 4.13913 4.67033 17.4331 15.5779 -0.791506 8.68051 41.8205
1184916 3.95652 4.41813 17.6103 15.7182 -0.857536 8.97553 41.7032
1184926 3.95652 4.41813 17.6103 15.7182 -0.857536 8.97553 41.7032
1184936 3.87826 4.33407 17.7284 15.7744 -0.897919 9.09399 41.7151
1184946 3.87826 4.33407 17.7284 15.7744 -0.897919 9.09399 41.7151
1184957 3.66087 4.18462 17.7284 15.8679 -0.806415 9.3206 41.4418
1184967 3.6 4.08187 17.7875 16.027 -0.770342 9.44635 41.4963
1184976 3.6 4.08187 17.7875 16.027 -0.770342 9.44635 41.4963
1184986 3.51304 4.01648 17.7776 16.1018 -0.707811 9.54501 41.409
1184997 3.47826 3.94176 17.8367 16.1299 -0.751045 9.62144 41.3866
1185006 3.47826 3.94176 17.8367 16.1299 -0.751045 9.62144 41.3866
1185018 3.52174 4.05385 17.8958 16.3638 -0.597511 9.56754 41.8351
1185026 3.52174 4.05385 17.8958 16.3638 -0.597511 9.56754 41.8351
1185036 3.58261 4.04451 17.7678 16.3638 -0.564025 9.52058 41.7587
1185047 3.67826 4.18462 17.7284 16.3638 -0.511432 9.37765 41.9551
1185056 3.67826 4.18462 17.7284 16.3638 -0.511432 9.37765 41.9551
1185068 3.74783 4.28736 17.6595 16.2796 -0.500549 9.25706 41.9743
1185076 3.72174 4.21264 17.5808 16.186 -0.541864 9.29198 41.7012
1185088 3.72174 4.21264 17.5808 16.186 -0.541864 9.29198 41.7012
1185101 3.70435 4.18462 17.5414 16.1205 -0.565936 9.30412 41.5509
1185118 3.66087 4.22198 17.4823 16.055 -0.52281 9.29058 41.4202
1185129 3.65217 4.25934 17.443 16.0737 -0.459862 9.27092 41.4282
1185138 3.65217 4.25934 17.443 16.0737 -0.459862 9.27092 41.4282
1185147 3.67826 4.25934 17.4036 16.0457 -0.469251 9.24629 41.3869
1185168 3.64348 4.25 17.5217 16.1954 -0.43247 9.30903 41.6106
1185179 3.65217 4.23132 17.758 16.3451 -0.496434 9.36713 41.9865
1185189 3.65217 4.23132 17.758 16.3451 -0.496434 9.36713 41.9865
1185199 3.57391 4.07253 17.7973 16.4293 -0.519094 9.5217 41.8731
1185209 3.48696 3.92308 17.8761 16.4854 -0.571291 9.67817 41.7715
1185229 3.43478 3.93242 17.9155 16.4854 -0.558089 9.7085 41.7681
1185242 3.42609 3.85769 17.8466 16.3825 -0.621766 9.73624 41.5128
1185249 3.42609 3.85769 17.8466 16.3825 -0.621766 9.73624 41.5128
1185262 3.42609 3.89506 17.8761 16.4199 -0.593019 9.72251 41.6171
1185280 3.41739 3.92308 17.9351 16.4573 -0.582342 9.72326 41.733
1185290 3.33913 3.83901 18.3289 16.869 -0.566357 9.91825 42.376
1185300 3.33913 3.83901 18.3289 16.869 -0.566357 9.91825 42.376
1185310 3.25217 3.68022 18.5455 17.1072 -0.593077 10.1163 42.585
1185320 3.13913 3.49341 18.4569 17.1461 -0.566141 10.2889 42.2355
1185332 3.13913 3.49341 18.4569 17.1461 -0.566141 10.2889 42.2355
1185340 3.02609 3.27857 18.6734 17.3507 -0.632088 10.5317 42.3288
1185350 3.02609 3.27857 18.6734 17.3507 -0.632088 10.5317 42.3288
1185360 2.85217 3.15714 18.6636 17.341 -0.605536 10.709 42.0139
1185370 2.73913 3.09176 18.3683 17.1364 -0.531778 10.7681 41.3355
1185380 2.73913 3.09176 18.3683 17.1364 -0.531778 10.7681 41.3355
1185390 2.75652 2.99835 18.2895 17.0779 -0.589554 10.8016 41.1223
1185400 2.69565 2.98901 18.4765 17.2923 -0.537305 10.886 41.4535
1185410 2.69565 2.98901 18.4765 17.2923 -0.537305 10.886 41.4535
1185420 2.70435 2.94231 18.5258 17.302 -0.594221 10.9156 41.4744
1185440 2.65217 2.98901 18.447 17.2046 -0.548276 10.9016 41.2928
1185451 2.73043 2.95165 18.2698 17.039 -0.615776 10.8415 40.9909
1185471 2.74783 3.1011 18.5061 17.1169 -0.624458 10.769 41.4719
1185481 2.83478 3.13846 18.7817 17.3799 -0.651526 10.7471 42.1349
1185501 2.88696 3.18516 18.9294 17.4092 -0.720327 10.7048 42.4106
1185512 2.88696 3.18516 18.9294 17.4092 -0.720327 10.7048 42.4106
1185521 2.88696 3.21319 18.8211 17.341 -0.682569 10.6698 42.2622
1185531 2.88696 3.19451 18.7325 17.1948 -0.732043 10.657 42.0088
1185553 2.89565 3.20385 18.634 17.1169 -0.722185 10.6276 41.8505
1185563 2.87826 3.22253 18.5947 16.9813 -0.761287 10.6085 41.6768
1185573 2.87826 3.22253 18.5947 16.9813 -0.761287 10.6085 41.6768
1185583 2.93913 3.22253 18.5159 16.8597 -0.826284 10.5498 41.5372
1185593 2.93913 3.22253 18.5159 16.8597 -0.826284 10.5498 41.5372
1185603 2.86087 3.18516 18.575 16.8784 -0.82671 10.6293 41.4994
1185613 2.88696 3.29725 18.6439 16.869 -0.81815 10.5506 41.6971
1185623 2.88696 3.29725 18.6439 16.869 -0.81815 10.5506 41.6971
1185633 3 3.3533 18.6144 16.7848 -0.883932 10.435 41.7525
1185644 2.9913 3.30659 18.575 16.6819 -0.949232 10.4533 41.5548
1185653 2.9913 3.30659 18.575 16.6819 -0.949232 10.4533 41.5548
1185665 3.0087 3.34396 18.447 16.4948 -0.978936 10.3849 41.2944
1185673 3.0087 3.34396 18.447 16.4948 -0.978936 10.3849 41.2944
1185686 3.07826 3.54945 18.2994 16.3919 -0.869046 10.1879 41.3189
1185693 3.26087 3.85769 18.3387 16.1673 -0.945717 9.86946 41.6246
1185706 3.26087 3.85769 18.3387 16.1673 -0.945717 9.86946 41.6246
1185713 3.4087 4.25 18.132 15.8866 -0.842236 9.48715 41.6773
1185723 3.4087 4.25 18.132 15.8866 -0.842236 9.48715 41.6773
1185733 3.61739 4.69835 17.8662 15.4469 -0.803763 9.00723 41.6289
1185743 3.82609 5.25879 17.6989 15.0726 -0.712883 8.48854 41.8564
1185754 3.82609 5.25879 17.6989 15.0726 -0.712883 8.48854 41.8564
1185763 4 5.75385 17.3741 14.7358 -0.528134 8.01029 41.8637
1185773 4.18261 6.00604 17.2264 14.3803 -0.611714 7.68676 41.7954
1185783 4.18261 6.00604 17.2264 14.3803 -0.611714 7.68676 41.7954
1185811 4.2087 6.23022 17.0787 14.1651 -0.53506 7.48689 41.6828
1185812 4.26087 6.31429 17 13.978 -0.582746 7.36509 41.5531
1185816 4.26087 6.31429 17 13.978 -0.582746 7.36509 41.5531
1185824 4.27826 6.37967 17 13.8096 -0.656545 7.28943 41.4675
1185834 4.27826 6.37967 17 13.8096 -0.656545 7.28943 41.4675
1185844 4.27826 6.2489 17.1575 13.8189 -0.823982 7.39066 41.5036
1185856 4.18261 6.16483 17.3839 13.9406 -0.876558 7.55078 41.6719
1185865 4.18261 6.16483 17.3839 13.9406 -0.876558 7.55078 41.6719
1185874 4.15652 5.96868 17.6595 14.0061 -1.10151 7.7315 41.7908
1185884 4.06957 5.68846 17.8761 14.0248 -1.33971 7.97291 41.6589
1185895 4.06957 5.68846 17.8761 14.0248 -1.33971 7.97291 41.6589
1185904 4.03478 5.47363 18.0828 14.109 -1.51977 8.15945 41.7002
1185916 4.03478 5.47363 18.0828 14.109 -1.51977 8.15945 41.7002
1185924 3.93913 5.26813 18.2403 14.24 -1.602 8.37409 41.6875
1185937 3.90435 5.10934 18.4175 14.3335 -1.72333 8.52537 41.7647
1185959 3.8 4.92253 18.575 14.3429 -1.86693 8.71582 41.6404
1185965 3.8 4.83846 18.575 14.4084 -1.87892 8.77361 41.6218
1185975 3.8 4.83846 18.575 14.4084 -1.87892 8.77361 41.6218
1185985 3.8 4.81044 18.7226 14.3054 -2.04543 8.7963 41.6385
1185995 3.8 4.81044 18.7226 14.3054 -2.04543 8.7963 41.6385
1186005 3.74783 4.8011 18.575 14.24 -1.98347 8.79971 41.3639
1186015 3.84348 4.81044 18.6734 14.2961 -2.04835 8.7627 41.6234
1186027 3.84348 4.81044 18.6734 14.2961 -2.04835 8.7627 41.6234
1186035 3.90435 4.87582 18.6734 14.2212 -2.08801 8.67951 41.6748
1186045 3.90435 4.87582 18.6734 14.2212 -2.08801 8.67951 41.6748
1186059 3.89565 4.87582 18.6931 14.2212 -2.09405 8.68744 41.6858
1186065 3.93913 4.89451 18.6833 14.2306 -2.09431 8.65209 41.7475
1186075 3.93913 4.89451 18.6833 14.2306 -2.09431 8.65209 41.7475
1186087 3.98261 4.93187 18.6833 14.0809 -2.19123 8.58342 41.6786
1186095 4.01739 5.00659 18.5848 14.0435 -2.13202 8.50049 41.6523
1186105 4.01739 5.00659 18.5848 14.0435 -2.13202 8.50049 41.6523
1186115 4.06087 5.19341 18.4273 13.9218 -2.02684 8.3268 41.6035
1186125 4.06087 5.19341 18.4273 13.9218 -2.02684 8.3268 41.6035
1186137 4.09565 5.24945 18.319 13.8376 -2.0045 8.2448 41.5018
1186145 4.15652 5.37088 18.1812 13.8283 -1.88904 8.11885 41.5369
1186155 4.15652 5.37088 18.1812 13.8283 -1.88904 8.11885 41.5369
1186167 4.22609 5.46429 18.1123 13.6505 -1.94412 7.98701 41.4532
1186175 4.36522 5.64176 18.0139 13.5944 -1.88811 7.78608 41.6153
1186185 4.36522 5.64176 18.0139 13.5944 -1.88811 7.78608 41.6153
1186196 4.35652 5.81923 17.7776 13.454 -1.72728 7.62759 41.4074
1186205 4.35652 5.81923 17.7776 13.454 -1.72728 7.62759 41.4074
1186216 4.51304 6.03407 17.5611 13.3418 -1.62744 7.36638 41.45
1186225 4.62609 6.2956 17.3741 13.1172 -1.5619 7.08821 41.413
1186236 4.62609 6.2956 17.3741 13.1172 -1.5619 7.08821 41.413
1186245 4.71304 6.60385 17.0591 12.9675 -1.33076 6.78815 41.3435
1186256 4.86087 6.8467 16.7908 12.6775 -1.29168 6.47006 41.1758
1186267 4.86087 6.8467 16.7908 12.6775 -1.29168 6.47006 41.1758
1186276 4.97391 7.19231 16.5502 12.5091 -1.10531 6.14657 41.2255
1186298 5.2087 7.61264 16.2258 12.2752 -0.935766 5.69172 41.3224
1186306 5.31304 7.91154 16.0375 12.06 -0.834332 5.39891 41.3221
1186316 5.31304 7.91154 16.0375 12.06 -0.834332 5.39891 41.3221
1186327 5.51304 8.1544 15.7132 11.8074 -0.767519 5.04509 41.188
1186337 5.53913 8.1544 15.5354 11.7045 -0.742462 4.96404 40.9334
1186346 5.53913 8.46264 15.5354 11.7045 -0.550061 4.81482 41.2416
1186356 5.66957 8.72418 15.2215 11.3583 -0.493395 4.4612 40.9736
1186367 5.66957 8.72418 15.2215 11.3583 -0.493395 4.4612 40.9736
1186377 5.7913 8.89231 14.9391 11.1618 -0.414538 4.19912 40.7845
1186386 5.9913 9.16319 14.688 10.956 -0.343238 3.85657 40.7985
1186398 5.9913 9.16319 14.688 10.956 -0.343238 3.85657 40.7985
1186407 6.16522 9.32198 14.5415 10.8624 -0.319366 3.63774 40.8911
1186416 6.16522 9.32198 14.5415 10.8624 -0.319366 3.63774 40.8911
1186431 6.26957 9.47143 14.4369 10.7876 -0.273095 3.47249 40.9655
1186440 6.38261 9.57418 14.3009 10.7127 -0.242031 3.31588 40.9704
1186450 6.38261 9.57418 14.3009 10.7127 -0.242031 3.31588 40.9704
1186457 6.49565 9.65824 14.1545 10.6004 -0.239211 3.15373 40.9088
1186466 6.53913 9.79835 13.9975 10.5256 -0.130154 3.00496 40.8606
1186478 6.53913 9.79835 13.9975 10.5256 -0.130154 3.00496 40.8606
1186486 6.72174 9.99451 13.7778 10.404 -0.06181 2.73811 40.8981
1186496 6.72174 9.99451 13.7778 10.404 -0.06181 2.73811 40.8981
1186506 6.86957 10.1346 13.5477 10.301 0.0112623 2.51312 40.8529
1186517 6.97391 10.3868 13.2652 10.1139 0.160524 2.21592 40.7399
1186538 7.16522 10.6016 13.0665 9.98294 0.216156 1.94133 40.8163
1186548 7.41739 10.7791 12.7945 9.79582 0.222549 1.61588 40.7868
1186559 7.41739 10.7791 12.7945 9.79582 0.222549 1.61588 40.7868
1186568 7.54783 10.9846 12.5329 9.6087 0.315043 1.33101 40.6741
1186578 7.54783 10.9846 12.5329 9.6087 0.315043 1.33101 40.6741
1186588 7.64348 11.106 12.2714 9.43093 0.384474 1.09493 40.4518
1186600 7.85217 11.2555 12.1249 9.36544 0.396469 0.880349 40.598
1186608 7.85217 11.2555 12.1249 9.36544 0.396469 0.880349 40.598
1186621 8.16522 11.5451 11.8425 9.10347 0.394061 0.455891 40.6562
1186629 8.37391 11.8253 11.4135 8.81343 0.526422 0.0103068 40.4262
1186642 8.37391 11.8253 11.4135 8.81343 0.526422 0.0103068 40.4262
1186648 8.73913 12.339 11.016 8.44854 0.636628 -0.596998 40.5427
1186658 8.73913 12.339 11.016 8.44854 0.636628 -0.596998 40.5427
1186668 9.0087 12.6099 10.5975 8.10237 0.685802 -1.08586 40.3185
1186678 9.18261 12.8154 10.2209 7.7749 0.741836 -1.50104 39.9938
1186688 9.18261 12.8154 10.2209 7.7749 0.741836 -1.50104 39.9938
1186698 9.42609 13.0769 10.064 7.57843 0.725651 -1.81612 40.1454
1186708 9.42609 13.0769 9.76062 7.57843 0.921544 -1.94417 39.8421
1186718 9.8 13.3385 9.76062 7.34452 0.697234 -2.2488 40.2436
1186728 10.1304 13.5346 9.47815 7.12933 0.655138 -2.62867 40.2725
1186748 10.3043 13.6374 9.15385 6.91414 0.683153 -2.95193 40.0097
1186758 10.5217 13.8335 8.95508 6.71767 0.671008 -3.25366 40.028
1186769 10.5217 13.8335 8.95508 6.71767 0.671008 -3.25366 40.028
1186778 10.7478 13.983 8.78769 6.54926 0.621888 -3.51674 40.0677
1186800 10.7478 13.983 8.78769 6.54926 0.621888 -3.51674 40.0677
1186805 10.7304 14.0016 8.66215 6.43698 0.656548 -3.62766 39.8312
1186809 10.9043 14.0951 8.49477 6.31535 0.635085 -3.83926 39.8095
1186819 10.9043 14.0951 8.49477 6.31535 0.635085 -3.83926 39.8095
1186829 11.1565 14.3566 8.30646 6.22179 0.696409 -4.11507 40.0414
1186839 11.3913 14.422 8.09723 6.10016 0.645831 -4.3548 40.0107
1186849 11.3913 14.422 8.09723 6.10016 0.645831 -4.3548 40.0107
1186859 11.6435 14.5434 7.91938 5.93176 0.569645 -4.62151 40.038
1186871 11.6435 14.5434 7.91938 5.93176 0.569645 -4.62151 40.038
1186879 12.0522 14.9077 7.62646 5.72592 0.592238 -5.06328 40.3122
1186889 12.4957 15.1692 7.24985 5.47331 0.555262 -5.54932 40.388
1186899 12.4957 15.1692 7.24985 5.47331 0.555262 -5.54932 40.388
1186910 12.6522 15.2253 6.85231 5.10842 0.520363 -5.99302 39.8382
1186919 12.9739 15.3747 6.42338 4.80903 0.496736 -6.48652 39.581
1186929 12.9739 15.3747 6.42338 4.80903 0.496736 -6.48652 39.581
1186939 13.1565 15.5522 6.08862 4.56577 0.554344 -6.87992 39.3631
1186960 13.2957 15.5429 5.79569 4.40671 0.54957 -7.16022 39.0409
1186970 13.2783 15.4868 5.70154 4.32251 0.534636 -7.24727 38.7891
1186981 13.2783 15.4868 5.70154 4.32251 0.534636 -7.24727 38.7891
1186990 13.1913 15.3 5.68062 4.35058 0.505325 -7.18805 38.5225
1187003 13.0696 15.2253 5.76431 4.47221 0.560331 -7.02998 38.5314
1187010 13.0696 15.2253 5.76431 4.47221 0.560331 -7.02998 38.5314
1187024 12.8348 15.1786 6.10954 4.71547 0.611326 -6.63842 38.8384
1187030 12.8348 15.1786 6.10954 4.71547 0.611326 -6.63842 38.8384
1187040 12.913 15.3654 6.44431 5.02422 0.649264 -6.34385 39.747
1187050 13.1913 15.7857 6.50708 5.13649 0.753203 -6.40074 40.6206
1187066 13.1913 15.7857 6.50708 5.13649 0.753203 -6.40074 40.6206
1187071 13.3391 16.0753 6.38154 4.94001 0.794518 -6.66224 40.736
1187108 13.4609 16.2527 6.10954 4.69675 0.850871 -6.99927 40.5199
1187114 13.4609 16.2527 6.10954 4.69675 0.850871 -6.99927 40.5199
1187115 13.487 16.2247 5.76431 4.46285 0.899068 -7.31789 39.9388
1187116 13.487 16.2247 5.76431 4.46285 0.899068 -7.31789 39.9388
1187121 13.5217 16.1874 5.54462 4.33187 0.917551 -7.51509 39.5856
1187130 13.4174 15.9445 5.33538 4.23831 0.918207 -7.62344 38.9356
1187151 13.2 15.7857 5.26215 4.27573 1.03786 -7.57244 38.5236
1187162 12.9652 15.5335 5.36677 4.43478 1.06808 -7.3226 38.3003
1187171 12.9652 15.5335 5.36677 4.43478 1.06808 -7.3226 38.3003
1187184 12.9043 15.3187 5.65969 4.60319 0.882033 -7.00002 38.4859
1187191 12.913 15.3187 5.99446 2.47001 -0.762215 -8.0801 36.6962
1187204 12.913 15.4027 5.99446 4.86516 0.868151 -6.68385 39.1754
1187211 13.0609 15.5802 6.24554 5.01486 0.80741 -6.53385 39.9015
1187233 13.1217 15.6456 6.46523 5.09906 0.717613 -6.3981 40.3316
1187243 13.3391 15.8324 6.51754 5.16456 0.697798 -6.4215 40.8536
1187253 13.3391 15.8324 6.51754 5.16456 0.697798 -6.4215 40.8536
1187263 13.4348 15.8698 6.42338 5.04293 0.646627 -6.56286 40.7709
1187273 13.4348 15.8698 6.12 5.04293 0.8389 -6.72452 40.4675
1187283 13.3652 15.8885 6.12 4.85581 0.782415 -6.8151 40.2295
1187293 13.513 15.8978 5.87938 4.66868 0.734541 -7.08081 39.9589
1187313 13.7478 16.1687 5.47138 4.44414 0.874677 -7.532 39.832
1187324 14.0087 16.5236 5.11569 4.1541 0.975665 -8.01309 39.8021
1187334 14.0087 16.5236 5.11569 4.1541 0.975665 -8.01309 39.8021
1187343 14.2348 16.9066 4.72862 3.80793 1.10334 -8.54562 39.6779
1187355 14.2348 16.9066 4.72862 3.80793 1.10334 -8.54562 39.6779
1187363 14.4522 17.2529 4.352 3.52724 1.24792 -9.02851 39.5843
1187373 14.6696 17.5543 4.11138 3.28398 1.29822 -9.40018 39.6193
1187394 14.8348 17.8169 3.72431 3.13429 1.51361 -9.7923 39.5103
1187404 14.9478 17.9628 3.45231 2.90039 1.5683 -10.1461 39.2633
1187414 14.9478 17.9628 3.45231 2.90039 1.5683 -10.1461 39.2633
1187425 14.9913 18.099 3.30585 2.76004 1.63567 -10.3525 39.1562
1187434 14.9913 18.099 3.30585 2.76004 1.63567 -10.3525 39.1562
1187448 14.8957 18.0309 3.13846 2.66648 1.71905 -10.5037 38.7315
1187454 14.8 17.9823 3.19077 2.61035 1.68586 -10.4894 38.5834
1187474 14.8522 17.9823 3.02338 2.54485 1.72616 -10.6501 38.4027
1187484 15.0522 18.1865 2.96062 2.49807 1.72608 -10.7682 38.6974
1187494 15.0522 18.1865 2.96062 2.49807 1.72608 -10.7682 38.6974
1187504 15.0522 18.4005 2.88738 2.48872 1.89912 -10.8463 38.8287
1187515 15.0522 18.4005 2.88738 2.48872 1.89912 -10.8463 38.8287
1187524 15 18.3518 2.91877 2.48872 1.88457 -10.8146 38.7593
1187536 14.9826 18.4491 3.00246 2.50743 1.90763 -10.7553 38.9416
1187557 14.8261 18.4296 2.91877 2.47936 2.04646 -10.8104 38.6539
1187565 14.6174 18.2059 2.992 2.64777 2.10873 -10.6012 38.4631
1187580 14.6174 18.2059 2.992 2.64777 2.10873 -10.6012 38.4631
1187586 14.3478 18.0503 3.20123 2.70391 2.09198 -10.375 38.3033
1187601 14.3304 17.9239 3.41046 3.04073 2.08222 -9.99979 38.7055
1187607 14.3304 17.9239 3.41046 3.04073 2.08222 -9.99979 38.7055
1187616 14.313 17.6322 3.84985 3.35883 1.80576 -9.47665 39.1539
1187628 14.313 17.6322 3.84985 3.35883 1.80576 -9.47665 39.1539
1187638 14.3217 17.4474 4.16369 3.66758 1.66003 -9.06727 39.6004
1187646 14.4 17.5835 4.45662 3.95762 1.66131 -8.75146 40.3978
1187656 14.4 17.5835 4.45662 3.95762 1.66131 -8.75146 40.3978
1187666 14.5565 17.7197 4.67631 4.05118 1.54744 -8.6146 41.0037
1187678 14.5043 17.7586 4.85415 4.1541 1.5472 -8.45191 41.2712
1187688 14.5043 17.7586 4.85415 4.1541 1.5472 -8.45191 41.2712
1187700 14.4783 17.9045 4.78092 4.23831 1.74122 -8.46463 41.402
1187708 14.4783 17.9045 4.78092 4.23831 1.74122 -8.46463 41.402
1187728 14.3478 17.7294 4.82277 4.12603 1.63606 -8.45625 41.026
1187738 14.2261 17.5349 4.79138 4.14474 1.63535 -8.41271 40.6971
1187748 14.087 17.2723 4.90646 4.07925 1.46124 -8.31834 40.345
1187758 14.0957 17.0389 4.82277 3.92955 1.2849 -8.41714 39.8869
1187768 14.0957 17.0389 4.82277 3.92955 1.2849 -8.41714 39.8869
1187778 14.0783 16.9346 4.81231 3.83599 1.18506 -8.45836 39.6612
1187789 14.0783 16.9346 4.81231 3.83599 1.18506 -8.45836 39.6612
1187798 14.0696 16.8692 4.67631 3.72372 1.17382 -8.59409 39.3388
1187812 14.1652 16.9626 4.49846 3.54595 1.17744 -8.8392 39.1723
1187818 14.1652 16.9626 4.49846 3.54595 1.17744 -8.8392 39.1723
1187828 14.1391 16.9533 4.25785 3.3869 1.25411 -9.07953 38.7372
1187838 14.1391 16.9533 4.25785 3.3869 1.25411 -9.07953 38.7372
1187848 14.0696 16.7945 4.04862 3.27463 1.27723 -9.24685 38.1873
1187858 13.913 16.6824 3.96492 3.16236 1.30346 -9.33185 37.7227
1187868 13.913 16.6824 3.96492 3.16236 1.30346 -9.33185 37.7227
1187878 13.8087 16.5516 3.88123 3.19978 1.37649 -9.32632 37.4414
1187888 13.7826 16.3835 3.96492 3.27463 1.27695 -9.19375 37.4057
1187901 13.7826 16.3835 3.96492 3.27463 1.27695 -9.19375 37.4057
1187908 13.9478 16.6451 4.03815 3.26527 1.26948 -9.21836 37.8963
1187922 13.9478 16.6451 4.03815 3.26527 1.26948 -9.21836 37.8963
1187928 14.113 16.7852 4.16369 3.27463 1.16277 -9.17919 38.3365
1187938 14.3913 16.9346 4.216 3.33077 1.06635 -9.17578 38.8727
1187949 14.3913 16.9346 4.216 3.33077 1.06635 -9.17578 38.8727
1187958 14.4957 17.0486 4.22646 3.34012 1.06532 -9.19605 39.1109
1187968 14.487 17.1264 4.24738 3.32141 1.09329 -9.20492 39.1822
1187988 14.5217 17.1362 4.17415 3.37755 1.15904 -9.22205 39.2096
1188011 14.6 17.2042 4.12185 3.39626 1.19439 -9.26425 39.3223
1188019 14.7826 17.4765 4.19508 3.42433 1.20565 -9.26805 39.8786
1188033 14.7826 17.4765 4.19508 3.42433 1.20565 -9.26805 39.8786
1188039 14.8 17.5446 4.18462 3.43368 1.24721 -9.28098 39.9629
1188054 14.7652 17.4474 4.12185 3.3869 1.22554 -9.32893 39.7213
1188059 14.7652 17.4474 4.12185 3.3869 1.22554 -9.32893 39.7213
1188069 14.687 17.4474 4.10092 3.34012 1.26317 -9.35934 39.5754
1188079 14.687 17.4474 4.10092 3.34012 1.26317 -9.35934 39.5754
1188090 14.6174 17.4765 3.99631 3.24656 1.34061 -9.47627 39.3368
1188100 14.5304 17.3501 3.90215 3.16236 1.33514 -9.5581 38.9451
1188110 14.5304 17.3501 3.90215 3.16236 1.33514 -9.5581 38.9451
1188121 14.5739 17.4474 3.808 3.14364 1.41707 -9.64887 38.9729
1188130 14.713 17.5446 3.83938 3.13429 1.35509 -9.66727 39.2313
1188142 14.713 17.5446 3.83938 3.13429 1.35509 -9.66727 39.2313
1188153 14.6783 17.5835 3.74523 3.01266 1.39205 -9.80425 39.0197
1188170 14.6696 17.5543 3.78708 3.10622 1.40854 -9.71335 39.1172
1188180 14.8 17.71 3.76615 3.10622 1.42832 -9.76488 39.3823
1188202 14.8435 17.8169 3.66154 3.10622 1.53325 -9.85057 39.4282
1188212 14.8957 17.8461 3.74523 3.153 1.48728 -9.77934 39.64
1188222 14.8957 17.8461 3.74523 3.153 1.48728 -9.77934 39.64
1188232 14.9391 17.8558 3.672 3.04073 1.44619 -9.90272 39.5077
1188241 14.9391 17.8558 3.58831 3.04073 1.50234 -9.95558 39.424
1188254 15.0087 17.9239 3.58831 3.02201 1.48505 -9.98495 39.5429
1188262 15 17.9336 3.56738 3.03137 1.51624 -9.99239 39.5324
1188276 15 17.9336 3.56738 3.03137 1.51624 -9.99239 39.5324
1188282 14.887 17.9336 3.51508 2.99395 1.60537 -10.035 39.3296
1188291 14.8435 17.7878 3.51508 2.93781 1.51405 -10.0469 39.0841
1188302 14.8435 17.7878 3.51508 2.93781 1.51405 -10.0469 39.0841
1188311 14.8522 17.8072 3.51508 2.95652 1.53106 -10.0385 39.131
1188322 14.8522 17.8072 3.51508 2.95652 1.53106 -10.0385 39.131
1188331 14.8522 17.7975 3.48369 2.98459 1.56336 -10.0394 39.1179
1188341 14.913 17.9239 3.51508 3.0033 1.58752 -10.0311 39.3553
1188351 14.913 17.9239 3.51508 3.0033 1.58752 -10.0311 39.3553
1188369 14.9478 17.9239 3.56738 3.08751 1.57882 -9.94906 39.5266
1188373 14.9565 17.9823 3.60923 3.09686 1.58493 -9.92538 39.6449
1188385 14.9565 17.9823 3.60923 3.09686 1.58493 -9.92538 39.6449
1188393 14.913 17.9628 3.68246 3.09686 1.5535 -9.87129 39.6552
1188406 14.8087 17.9628 3.672 3.09686 1.6306 -9.86434 39.5404
1188413 14.8087 17.778 3.672 3.12493 1.53761 -9.82253 39.3837
1188423 14.7304 17.7975 3.672 3.14364 1.61316 -9.80298 39.3436
1188433 14.7304 17.7975 3.672 3.14364 1.61316 -9.80298 39.3436
1188443 14.6261 17.6127 3.63015 3.13429 1.5965 -9.79701 39.0032
1188453 14.4957 17.4668 3.71385 3.20914 1.58572 -9.65894 38.8855
1188463 14.4957 17.4668 3.71385 3.20914 1.58572 -9.65894 38.8855
1188475 14.3739 17.2237 3.84985 3.3027 1.48556 -9.46257 38.7501
1188483 14.3739 17.2237 3.84985 3.3027 1.48556 -9.46257 38.7501
1188495 14.2 17.0875 3.97538 3.41497 1.50416 -9.26777 38.6779
1188503 14.1913 16.972 4.11138 3.63952 1.48327 -9.02462 38.9142
1188524 14.1826 16.8412 4.36246 3.70501 1.27979 -8.80875 39.0913
1188534 14.0522 16.7291 4.61354 3.95762 1.28393 -8.46585 39.3525
1188544 14.0522 16.7291 4.61354 3.95762 1.28393 -8.46585 39.3525
1188554 14.0087 16.6077 4.82277 4.26637 1.2861 -8.13259 39.7055
1188564 14.0087 16.6077 4.82277 4.26637 1.2861 -8.13259 39.7055
1188574 13.8609 16.4209 5.14708 4.60319 1.25907 -7.69315 40.032
1188585 13.8348 16.3275 5.52369 4.96808 1.1912 -7.25776 40.654
1188607 13.713 16.0846 5.83754 5.23005 1.07921 -6.87506 40.8652
1188614 13.5391 15.8324 6.07815 5.48266 1.03695 -6.52689 40.9324
1188629 13.5391 15.8324 6.07815 5.48266 1.03695 -6.52689 40.9324
1188634 13.2522 15.5335 6.23508 5.63236 1.03229 -6.24242 40.6531
1188644 13.2522 15.5335 6.23508 5.63236 1.03229 -6.24242 40.6531
1188654 12.913 15.1599 6.35015 5.76335 1.03271 -5.95702 40.1864
1188664 12.5565 14.7863 6.54892 5.98789 1.04609 -5.569 39.8796
1188690 12.2348 14.4967 6.67446 6.23115 1.14704 -5.23217 39.6371
1188696 11.8957 14.1324 6.96738 6.47441 1.10451 -4.78325 39.4699
1188716 11.6522 13.8242 7.32308 6.86736 1.08169 -4.26777 39.6668
1188738 11.3391 13.3945 7.83569 7.24161 0.917643 -3.63832 39.8109
1188745 11.1565 13.2077 8.30646 7.78426 0.944856 -3.06767 40.4549
1188760 11.1565 13.2077 8.30646 7.78426 0.944856 -3.06767 40.4549
1188766 11.1043 13.0209 8.81908 8.20528 0.791463 -2.58843 41.1496
1188775 10.8522 12.7407 9.17477 8.52339 0.749016 -2.14139 41.291
1188785 10.8522 12.7407 9.17477 8.52339 0.749016 -2.14139 41.291
1188795 10.4696 12.3951 9.36308 8.76665 0.810513 -1.73252 40.9943
1188806 10.4696 12.3951 9.36308 8.76665 0.810513 -1.73252 40.9943
1188815 10.0696 11.8346 9.71877 8.97248 0.62739 -1.18718 40.5954
1188826 9.53913 11.3209 10.2418 9.37479 0.564954 -0.460771 40.4766
1188835 9.53913 11.3209 10.2418 9.37479 0.564954 -0.460771 40.4766
1188848 9.06087 10.6484 10.9218 9.91745 0.359496 0.418044 40.5485
1188855 8.53913 9.96648 11.6123 10.6098 0.260782 1.36878 40.7277
1188875 8.12174 9.45275 12.3969 11.2741 0.126174 2.21716 41.2455
1188885 8.12174 9.45275 12.3969 11.2741 0.126174 2.21716 41.2455
1188897 7.73913 8.94835 12.9828 11.7419 -0.0191137 2.91117 41.4121
1188905 7.44348 8.5467 13.4117 12.1816 -0.0762627 3.46404 41.5835
1188926 7.17391 8.13571 13.8197 12.4904 -0.220762 3.96463 41.6197
1188937 7 7.89286 13.9452 12.6775 -0.22575 4.23812 41.5156
1188947 7 7.89286 13.9452 12.6775 -0.22575 4.23812 41.5156
1188959 6.88696 7.79011 14.0603 12.5746 -0.35255 4.34178 41.3119
1188976 6.7913 7.66868 14.0812 12.481 -0.440522 4.42525 41.0222
1188986 6.75652 7.61264 13.9452 12.4623 -0.384298 4.4284 40.7767
1189004 6.75652 7.61264 13.9452 12.4623 -0.384298 4.4284 40.7767
1189013 6.73913 7.61264 13.9871 12.3968 -0.439887 4.43056 40.7357
1189018 6.55652 7.45385 14.2172 12.5278 -0.485896 4.68698 40.7554
1189028 6.55652 7.45385 14.2172 12.5278 -0.485896 4.68698 40.7554
1189038 6.48696 7.46319 14.3532 12.6681 -0.432539 4.78548 40.9715
1189049 6.48696 7.46319 14.3532 12.6681 -0.432539 4.78548 40.9715
1189058 6.3913 7.34176 14.6148 12.7149 -0.578016 4.96677 41.0627
1189071 6.34783 7.34176 14.6566 12.8833 -0.472572 5.03899 41.2295
1189078 6.34783 7.34176 14.6566 12.8833 -0.472572 5.03899 41.2295
1189092 6.30435 7.3044 14.7298 12.9488 -0.472894 5.1117 41.2874
1189100 6.1913 7.1456 14.7822 13.0611 -0.465494 5.28398 41.1802
1189108 6.1913 7.1456 14.7822 13.0611 -0.465494 5.28398 41.1802
1189118 6.06957 6.96813 14.9914 13.295 -0.482666 5.53504 41.3241
1189128 6.06957 6.96813 14.9914 13.295 -0.482666 5.53504 41.3241
1189139 5.91304 6.83736 15.1692 13.4353 -0.489408 5.75052 41.355
1189149 5.7913 6.7533 15.4935 13.6225 -0.545534 5.96657 41.6606
1189159 5.7913 6.7533 15.4935 13.6225 -0.545534 5.96657 41.6606
1189169 5.61739 6.5478 15.7028 13.6599 -0.669719 6.21178 41.5278
1189181 5.35652 6.39835 15.9538 13.8657 -0.629175 6.51771 41.5744
1189203 5.13913 6.17418 16.1317 13.8938 -0.727443 6.78981 41.3388
1189219 5.06087 6.04341 16.1945 13.9967 -0.735693 6.93305 41.2954
1189230 5.07826 5.92198 16.32 14.0341 -0.871831 7.02002 41.3544
1189240 5.07826 5.92198 16.32 14.0341 -0.871831 7.02002 41.3544
1189251 5.01739 5.70714 16.4874 14.0715 -1.04526 7.20666 41.2835
1189260 4.87826 5.62308 16.7489 14.2025 -1.08652 7.40003 41.4528
1189271 4.87826 5.62308 16.7489 14.2025 -1.08652 7.40003 41.4528
1189281 4.83478 5.49231 17.0591 14.3148 -1.25101 7.57061 41.701
1189295 4.83478 5.49231 17.0591 14.3148 -1.25101 7.57061 41.701
1189300 4.65217 5.23077 17.3544 14.4739 -1.37968 7.89187 41.7112
1189312 4.50435 5.08132 17.5808 14.6703 -1.39439 8.12638 41.8368
1189322 4.50435 5.08132 17.5808 14.6703 -1.39439 8.12638 41.8368
1189332 4.3913 4.94121 17.7481 14.7452 -1.46621 8.30616 41.8258
1189343 4.26087 4.73571 17.9351 14.9042 -1.52743 8.54867 41.836
1189352 4.26087 4.73571 17.9351 14.9042 -1.52743 8.54867 41.836
1189363 4.05217 4.5022 18.2797 15.3065 -1.49684 8.91012 42.1406
1189372 4.05217 4.5022 18.2797 15.3065 -1.49684 8.91012 42.1406
1189385 3.81739 4.17527 18.447 15.372 -1.6246 9.26525 41.8117
1189392 3.5913 3.93242 18.4372 15.5124 -1.55743 9.55766 41.4733
1189412 3.55652 3.75495 18.4175 15.4843 -1.6589 9.67783 41.2133
1189424 3.63478 3.80165 18.319 15.5685 -1.56305 9.60137 41.324
1189432 3.63478 3.80165 18.319 15.5685 -1.56305 9.60137 41.324
1189442 3.69565 3.88571 18.2895 15.5217 -1.55687 9.50528 41.3926
1189456 3.69565 3.88571 18.2895 15.5217 -1.55687 9.50528 41.3926
1189461 3.75652 3.94176 18.4864 15.7182 -1.54103 9.48848 41.9029
1189471 3.69565 3.89506 18.6242 15.8211 -1.54847 9.58272 42.036
1189493 3.67826 3.9044 18.5159 15.6995 -1.54929 9.55765 41.7981
1189503 3.58261 3.85769 18.5356 15.7463 -1.50654 9.65011 41.7222
1189524 3.6087 3.91374 18.4864 15.6621 -1.51141 9.5844 41.6709
1189533 3.6087 3.91374 18.4864 15.6621 -1.51141 9.5844 41.6709
1189546 3.58261 3.84835 18.3486 15.5685 -1.52022 9.60848 41.3481
1189553 3.57391 3.91374 18.3683 15.6434 -1.43682 9.58715 41.4993
1189563 3.57391 3.91374 18.3683 15.6434 -1.43682 9.58715 41.4993
1189574 3.65217 3.96978 18.2501 15.6059 -1.40231 9.48724 41.478
1189583 3.70435 4.09121 18.3978 15.6714 -1.39706 9.41376 41.8648
1189593 3.70435 4.09121 18.3978 15.6714 -1.39706 9.41376 41.8648
1189603 3.67826 4.08187 18.447 15.7931 -1.33948 9.45708 42.0002
1189614 3.67826 4.08187 18.447 15.7931 -1.33948 9.45708 42.0002
1189636 3.54783 3.87637 18.4372 15.9334 -1.30113 9.67096 41.7948
1189639 3.52174 3.83901 18.4273 15.9802 -1.27481 9.71315 41.7683
1189653 3.54783 3.77363 18.26 15.8679 -1.30658 9.70092 41.4494
1189663 3.6087 3.89506 18.0434 15.7744 -1.19957 9.55217 41.3215
1189684 3.8 4.01648 17.8662 15.6247 -1.22563 9.32318 41.3074
1189694 3.8 4.01648 17.8662 15.6247 -1.22563 9.32318 41.3074
1189705 3.92174 4.34341 17.6694 15.4095 -1.11155 9.00265 41.344
1189714 4.16522 4.69835 17.4233 15.1943 -1.02207 8.58969 41.4811
1189727 4.16522 4.69835 17.4233 15.1943 -1.02207 8.58969 41.4811
1189734 4.32174 5.0533 17.315 14.9229 -0.997581 8.24126 41.613
1189744 4.45217 5.42692 17.0689 14.7078 -0.832054 7.88519 41.6558
1189754 4.45217 5.42692 17.0689 14.7078 -0.832054 7.88519 41.6558
1189764 4.70435 5.76319 16.9686 14.5955 -0.781727 7.52882 42.0316
1189774 4.70435 5.76319 16.9686 14.5955 -0.781727 7.52882 42.0316
1189784 4.64348 5.88462 16.9163 14.4832 -0.710723 7.46695 41.9276
1189795 4.57391 5.80055 17.0197 14.7265 -0.633049 7.61089 42.1206
1189818 4.42609 5.50165 17.2264 15.0259 -0.666772 7.93902 42.18
1189825 4.21739 5.13736 17.3445 15.2317 -0.711203 8.30703 41.931
1189841 4.21739 5.13736 17.3445 15.2317 -0.711203 8.30703 41.931
1189845 4.02609 4.99725 17.3347 15.344 -0.611207 8.5087 41.702
1189855 4.02609 4.99725 17.3347 15.344 -0.611207 8.5087 41.702
1189865 3.93043 4.74505 17.3445 15.4843 -0.629809 8.72922 41.5043
1189875 3.81739 4.65165 17.2953 15.5685 -0.539844 8.85305 41.3329
1189887 3.81739 4.65165 17.2953 15.5685 -0.539844 8.85305 41.3329
1189895 3.74783 4.57692 17.2362 15.5779 -0.50395 8.92928 41.1389
1189910 3.73913 4.62363 17.2658 15.5685 -0.493217 8.91018 41.1971
1189915 3.73913 4.62363 17.2658 15.5685 -0.493217 8.91018 41.1971
1189925 3.83478 4.82912 17.2953 15.5779 -0.435211 8.74253 41.5371
1189935 3.83478 4.82912 17.2953 15.5779 -0.435211 8.74253 41.5371
1189946 3.86957 4.82912 17.2559 15.6059 -0.415321 8.72096 41.5606
1189957 3.88696 4.92253 17.3544 15.6808 -0.381176 8.68415 41.8447
1189967 3.88696 4.92253 17.3544 15.6808 -0.381176 8.68415 41.8447
1189978 3.81739 4.86648 17.443 15.7556 -0.380966 8.77983 41.8825
1189986 3.75652 4.66099 17.5512 15.9147 -0.436977 8.97076 41.8834
1189999 3.75652 4.66099 17.5512 15.9147 -0.436977 8.97076 41.8834
1190007 3.76522 4.65165 17.6694 15.9428 -0.499761 8.9921 42.029
1190022 3.76522 4.65165 17.6694 15.9428 -0.499761 8.9921 42.029
1190027 3.68696 4.52088 17.6891 15.8679 -0.59094 9.10424 41.7648
1190036 3.62609 4.57692 17.6103 15.7369 -0.555077 9.07728 41.5502
1190057 3.6087 4.51154 17.6103 15.6714 -0.625589 9.11606 41.402
1190068 3.69565 4.52088 17.7087 15.5779 -0.786471 9.06079 41.5032
1190077 3.69565 4.52088 17.7087 15.5779 -0.786471 9.06079 41.5032
1190090 3.72174 4.67033 17.7284 15.5498 -0.737956 8.95824 41.6703
1190100 3.72174 4.67033 17.7284 15.5498 -0.737956 8.95824 41.6703
1190116 3.75652 4.56758 17.9647 15.5592 -0.95253 9.03261 41.8479
1190127 3.75652 4.56758 17.9647 15.5592 -0.95253 9.03261 41.8479
1190139 3.73913 4.53022 18.1025 15.6621 -0.980945 9.09809 42.0339
1190148 3.68696 4.42747 18.1222 15.634 -1.04348 9.18607 41.8706
1190168 3.73043 4.43681 18.1222 15.6901 -1.02767 9.16341 41.9796
1190178 3.73043 4.43681 18.1222 15.6901 -1.02767 9.16341 41.9796
1190188 3.6 4.35275 18.1911 15.6714 -1.05637 9.29437 41.8153
1190198 3.5913 4.23132 18.1714 15.7089 -1.09257 9.3726 41.7029
1190218 3.5913 4.21264 18.073 15.5872 -1.1241 9.35372 41.4641
1190230 3.6087 4.26868 18.0631 15.6621 -1.04624 9.31955 41.6026
1190238 3.6087 4.26868 18.0631 15.6621 -1.04624 9.31955 41.6026
1190253 3.63478 4.40879 18.0828 15.5217 -1.07271 9.20605 41.6481
1190259 3.63478 4.40879 18.0828 15.5217 -1.07271 9.20605 41.6481
1190269 3.70435 4.52088 18.0434 15.372 -1.11361 9.07414 41.6407
1190289 3.74783 4.56758 17.8662 15.3627 -1.01325 8.99528 41.5443
1190299 3.82609 4.72637 17.8466 15.1756 -1.06477 8.82859 41.5746
1190309 3.87826 4.88516 17.6989 14.9697 -1.03921 8.65461 41.4321
1190321 3.87826 4.88516 17.6989 14.9697 -1.03921 8.65461 41.4321
1190329 3.95652 4.95989 17.6891 14.8855 -1.08467 8.553 41.491
1190349 3.96522 5.03462 17.7875 14.9791 -1.04091 8.53559 41.7664
1190359 3.93913 4.92253 17.9155 15.1007 -1.09327 8.65178 41.8778
1190369 3.93913 4.92253 17.9155 15.1007 -1.09327 8.65178 41.8778
1190379 3.86957 4.82912 17.9647 15.1475 -1.11073 8.75855 41.8109
1190389 3.84348 4.7544 18.0237 15.1849 -1.15287 8.83024 41.8065
1190410 3.8087 4.67033 18.0336 15.1849 -1.19134 8.89962 41.6975
1190420 3.8087 4.67033 18.0336 15.1849 -1.19134 8.89962 41.6975
1190433 3.76522 4.64231 18.0533 15.1288 -1.23072 8.93536 41.5896
1190440 3.8 4.62363 18.0828 15.1662 -1.2556 8.93586 41.6726
1190460 3.7913 4.63297 18.0631 15.1849 -1.22176 8.93534 41.6723
1190477 3.8 4.60495 18.0533 15.0726 -1.30967 8.92865 41.5309
1190480 3.8 4.60495 18.0533 15.0726 -1.30967 8.92865 41.5309
1190490 3.7913 4.66099 18.0533 14.9978 -1.31664 8.8904 41.5034
1190500 3.7913 4.66099 18.0533 14.9978 -1.31664 8.8904 41.5034
1190510 3.83478 4.64231 18.1025 14.9884 -1.3872 8.88201 41.568
1190522 3.85217 4.70769 18.1616 15.0259 -1.36546 8.8488 41.7473
1190545 3.87826 4.67033 18.1517 14.9978 -1.41603 8.84965 41.6981
1190552 3.89565 4.77308 18.1714 14.9323 -1.41341 8.77432 41.7724
1190561 3.89565 4.77308 18.1714 14.9323 -1.41341 8.77432 41.7724
1190574 3.95652 4.81044 18.1025 14.8107 -1.46226 8.68983 41.6801
1190593 3.96522 4.88516 18.0237 14.7078 -1.44055 8.61473 41.5819
1190601 4.03478 4.94121 18.0631 14.6142 -1.52598 8.53521 41.6533
1190617 4.03478 4.94121 18.0631 14.6142 -1.52598 8.53521 41.6533
1190621 4.06957 4.96923 18.073 14.5113 -1.59888 8.48524 41.623
1190631 4.01739 4.86648 18.1911 14.5206 -1.6957 8.59268 41.5956
1190653 4.06087 4.82912 18.2797 14.5768 -1.75743 8.61144 41.7464
1190663 4.06087 4.82912 18.2797 14.5768 -1.75743 8.61144 41.7464
1190673 3.93913 4.7544 18.447 14.6236 -1.80071 8.75526 41.7641
1190683 3.88696 4.55824 18.6045 14.8013 -1.87087 8.94625 41.851
1190693 3.88696 4.55824 18.6045 14.8013 -1.87087 8.94625 41.851
1190706 3.75652 4.35275 18.7817 14.9604 -1.92652 9.18709 41.8513
1190713 3.66087 4.11923 18.9097 15.0446 -2.04072 9.40741 41.7343
1190723 3.66087 4.11923 18.9097 15.0446 -2.04072 9.40741 41.7343
1190733 3.6087 4.04451 18.9786 14.9791 -2.14107 9.4823 41.6109
1190743 3.6087 4.04451 18.9786 14.9791 -2.14107 9.4823 41.6109
1190753 3.54783 3.97912 18.9983 14.9604 -2.1734 9.55694 41.4856
1190763 3.53043 3.9511 19.0081 14.9884 -2.16922 9.5888 41.4781
1190773 3.53043 3.9511 19.0081 14.9884 -2.16922 9.5888 41.4781
1190785 3.48696 3.86703 19.1361 15.1288 -2.17883 9.69905 41.6188
1190796 3.52174 3.82967 19.264 15.2036 -2.24328 9.72628 41.8191
1190813 3.57391 3.82967 19.1656 15.213 -2.21198 9.68416 41.7822
1190834 3.6 3.85769 19.1459 15.1194 -2.25822 9.63772 41.723
1190844 3.6 3.91374 19.0573 15.0726 -2.20378 9.58713 41.6437
1190854 3.6 3.91374 19.0573 15.0726 -2.20378 9.58713 41.6437
1190868 3.68696 3.96044 18.9589 14.9604 -2.2404 9.48063 41.5667
1190874 3.69565 4.06319 18.8014 14.8387 -2.17101 9.37752 41.399
1190891 3.69565 4.06319 18.8014 14.8387 -2.17101 9.37752 41.399
1190894 3.7913 4.2967 18.6537 14.689 -2.08739 9.14348 41.4308
1190923 3.92174 4.47418 18.4175 14.4271 -2.0841 8.89247 41.2405
1190924 4.2087 4.8011 18.1616 14.2119 -2.02815 8.46852 41.3832
1190944 4.44348 5.1 17.8761 13.9967 -1.94541 8.08715 41.4163
1190959 4.65217 5.49231 17.6202 13.716 -1.84664 7.66322 41.4806
1190964 4.65217 5.49231 17.6202 13.716 -1.84664 7.66322 41.4806
1190974 4.90435 5.80055 17.2559 13.454 -1.75401 7.24561 41.4149
1190994 5.1913 6.22088 16.8326 13.1453 -1.6053 6.72832 41.3901
1191004 5.56522 6.72527 16.184 12.6962 -1.41347 6.04424 41.1707
1191014 5.56522 6.72527 16.184 12.6962 -1.41347 6.04424 41.1707
1191027 5.93043 7.29505 15.4726 12.2097 -1.16011 5.301 40.9078
1191034 6.28696 7.74341 14.9809 11.7138 -1.11151 4.66458 40.7251
1191049 6.28696 7.74341 14.9809 11.7138 -1.11151 4.66458 40.7251
1191054 6.73043 8.18242 14.3428 11.3957 -0.919452 3.99456 40.6513
1191064 6.73043 8.18242 14.3428 11.3957 -0.919452 3.99456 40.6513
1191074 7.12174 8.60275 13.8302 11.0402 -0.806117 3.37944 40.5948
1191084 7.52174 8.8456 13.3385 10.7034 -0.811228 2.84879 40.4092
1191094 7.52174 8.8456 13.3385 10.7034 -0.811228 2.84879 40.4092
1191105 8 9.38736 12.7735 10.4133 -0.599429 2.14403 40.5742
1191116 8 9.38736 12.7735 10.4133 -0.599429 2.14403 40.5742
1191126 8.4 9.91044 12.1145 9.94551 -0.407791 1.39318 40.3704
1191140 8.90435 10.4335 11.424 9.46835 -0.265022 0.579597 40.2302
1191155 9.27826 10.994 10.6917 8.97248 -0.00219941 -0.228379 39.9364
1191165 9.63478 11.5077 10.1163 8.57017 0.205109 -0.924954 39.829
1191186 9.89565 11.9654 9.656 8.16786 0.366381 -1.52596 39.6849
1191195 9.89565 11.9654 11.8215 8.16786 -0.946194 -0.67083 41.8504
1191208 10.313 12.4604 9.14338 7.73748 0.46747 -2.22899 39.6543
1191216 10.7652 13.1143 8.68308 7.33517 0.627327 -2.95553 39.8977
1191230 10.7652 13.1143 8.68308 7.33517 0.627327 -2.95553 39.8977
1191237 11.1304 13.6187 8.01354 6.88608 0.858027 -3.72629 39.6487
1191247 11.6696 14.2538 7.43815 6.35278 0.943553 -4.5824 39.7143
1191267 12.087 14.8984 6.936 5.86626 1.09434 -5.34704 39.7876
1191277 12.6609 14.8984 6.17231 5.34232 0.900534 -6.15933 39.0739
1191287 12.6609 15.5242 6.17231 5.34232 1.28044 -6.2987 39.6997
1191297 13.087 16.122 5.53415 4.90259 1.51559 -7.10249 39.6457
1191322 13.3739 16.6077 4.95877 4.37865 1.68726 -7.87565 39.319
1191327 13.8 17.1264 4.55077 4.0699 1.79884 -8.46046 39.5471
1191336 13.8 17.1264 4.55077 4.0699 1.79884 -8.46046 39.5471
1191348 14.087 17.5738 4.13231 3.69565 1.93105 -9.05301 39.4887
1191370 14.3391 17.778 3.82892 3.40561 1.91579 -9.48471 39.3517
1191378 14.4348 17.8947 3.65108 3.20914 1.92526 -9.74846 39.1897
1191389 14.4348 17.8947 3.65108 3.20914 1.92526 -9.74846 39.1897
1191398 14.487 17.9531 3.45231 3.0033 1.93924 -10.0208 38.8957
1191411 14.4609 17.9725 3.4 3.02201 2.01625 -10.0416 38.8554
1191419 14.4609 17.9725 3.4 3.02201 2.01625 -10.0416 38.8554
1191428 14.4174 17.9239 3.24308 2.95652 2.08867 -10.1743 38.5409
1191438 14.2957 17.8656 3.30585 2.9191 2.07312 -10.135 38.3862
1191449 14.2957 17.8656 3.30585 2.9191 2.07312 -10.135 38.3862
1191459 14.487 18.2546 3.22215 3.0033 2.27678 -10.2071 38.967
1191469 14.487 18.2546 3.22215 3.0033 2.27678 -10.2071 38.967
1191482 14.5913 18.595 3.22215 2.97523 2.3847 -10.2792 39.3837
1191489 14.6696 18.8867 3.09662 2.90974 2.54678 -10.4454 39.5626
1191503 14.6696 18.8867 3.09662 2.90974 2.54678 -10.4454 39.5626
1191509 14.5913 18.9548 3.06523 2.90039 2.65658 -10.4705 39.5117
1191519 14.5043 18.9548 3.09662 2.9191 2.70612 -10.4282 39.4749
1191529 14.5043 18.8478 3.09662 2.9191 2.64553 -10.4158 39.3679
1191539 14.4087 18.6825 3.18031 2.96588 2.58642 -10.3008 39.2374
1191549 14.4087 18.6825 3.18031 2.96588 2.58642 -10.3008 39.2374
1191570 14.1826 18.4199 3.25354 3.04073 2.58664 -10.1454 38.8968
1191572 14.0261 18.0698 3.37908 3.18107 2.48713 -9.90883 38.656
1191579 14.0261 18.0698 3.37908 3.18107 2.48713 -9.90883 38.656
1191593 13.9739 17.9628 3.42092 3.35883 2.53562 -9.74661 38.7165
1191609 13.913 17.8267 3.64062 3.52724 2.44184 -9.47316 38.9076
1191619 13.9652 17.7391 3.91262 3.80793 2.32671 -9.12513 39.4249
1191630 13.9652 17.7391 3.91262 3.80793 2.32671 -9.12513 39.4249
1191641 14.0261 17.7489 3.99631 3.89213 2.28081 -9.03346 39.6634
1191649 14.0435 17.8753 4.19508 4.01376 2.2743 -8.86295 40.1276
1191664 14.0435 17.8753 4.19508 4.01376 2.2743 -8.86295 40.1276
1191669 14.1391 18.0892 4.216 4.11668 2.37345 -8.83694 40.5611
1191690 14.087 18.1379 4.08 4.02312 2.47597 -8.97208 40.3279
1191700 14.1043 18.2935 3.99631 3.88277 2.52973 -9.13132 40.2769
1191711 14.1043 18.2935 3.99631 3.88277 2.52973 -9.13132 40.2769
1191720 13.887 18.1573 3.77662 3.73308 2.67155 -9.30422 39.554
1191734 13.8435 18.0309 3.71385 3.64887 2.62662 -9.37059 39.2371
1191740 13.8435 18.0309 3.71385 3.64887 2.62662 -9.37059 39.2371
1191750 13.6609 17.8461 3.69292 3.63952 2.65956 -9.33634 38.8394
1191760 13.6609 17.8461 3.69292 3.63952 2.65956 -9.33634 38.8394
1191770 13.5217 17.6808 3.64062 3.71436 2.74447 -9.27739 38.5575
1191780 13.4261 17.5738 3.72431 3.79857 2.73992 -9.14148 38.5228
1191790 13.4261 17.5738 3.72431 3.79857 2.73992 -9.14148 38.5228
1191803 13.4 17.4571 3.81846 3.91084 2.68843 -8.99065 38.5864
1191810 13.2783 17.3209 4.05908 4.21024 2.69745 -8.61747 38.8685
1191825 13.2783 17.3209 4.05908 4.21024 2.69745 -8.61747 38.8685
1191830 13.3826 17.5446 4.22646 4.46285 2.77561 -8.41994 39.6165
1191842 13.3826 17.5446 4.22646 4.46285 2.77561 -8.41994 39.6165
1191851 13.4609 17.7002 4.34154 4.60319 2.80571 -8.30915 40.1058
1191860 13.4783 17.71 4.38338 4.72482 2.83718 -8.2191 40.2964
1191872 13.4783 17.71 4.38338 4.72482 2.83718 -8.2191 40.2964
1191880 13.4435 17.7391 4.37292 4.64062 2.83817 -8.27283 40.1962
1191895 13.3478 17.6613 4.47754 4.63126 2.78381 -8.18849 40.118
1191912 13.4087 17.5252 4.38338 4.50963 2.66322 -8.30125 39.8269
1191921 13.4087 17.5252 4.38338 4.50963 2.66322 -8.30125 39.8269
1191931 13.2261 17.3696 4.29969 4.51899 2.76725 -8.28771 39.4143
1191942 13.1565 17.1264 4.44615 4.55641 2.59649 -8.12528 39.2855
1191951 13.1565 17.1264 4.44615 4.55641 2.59649 -8.12528 39.2855
1191967 13.1739 17.0584 4.44615 4.59384 2.56677 -8.09437 39.2723
1191971 13.0609 16.9533 4.49846 4.61255 2.56006 -8.01395 39.1252
1191981 13.0609 16.9533 4.49846 4.61255 2.56006 -8.01395 39.1252
1191992 13.1217 16.9253 4.56123 4.64997 2.47864 -7.96106 39.2582
1192001 13.1217 16.9253 4.56123 4.64997 2.47864 -7.96106 39.2582
1192012 13.1391 16.9346 4.65538 4.71547 2.44366 -7.8729 39.4446
1192022 13.2435 16.9813 4.77046 4.78096 2.35589 -7.79613 39.7762
1192042 13.3652 17.0875 4.74954 4.74353 2.32584 -7.87054 39.9458
1192057 13.4609 17.0681 4.77046 4.66868 2.19264 -7.91499 39.9681
1192062 13.4609 17.0681 4.77046 4.66868 2.19264 -7.91499 39.9681
1192072 13.4696 17.0973 4.77046 4.55641 2.13921 -7.9862 39.8937
1192081 13.4696 17.0973 4.77046 4.55641 2.13921 -7.9862 39.8937
1192091 13.4696 16.9346 4.68677 4.43478 2.03226 -8.07675 39.5257
1192102 13.487 16.7852 4.68677 4.42543 1.92772 -8.05902 39.3843
1192111 13.487 16.7852 4.68677 4.42543 1.92772 -8.05902 39.3843
1192124 13.5652 16.6918 4.69723 4.37865 1.78474 -8.07764 39.3329
1192147 13.6522 16.5703 4.67631 4.36929 1.66238 -8.08935 39.2681
1192153 13.7913 16.561 4.73908 4.41607 1.54824 -8.04803 39.5074
1192173 13.8522 16.6077 4.83323 4.42543 1.47772 -8.0068 39.7185
1192183 13.8696 16.533 4.896 4.27573 1.2907 -8.0472 39.5743
1192194 13.8696 16.533 4.896 4.27573 1.2907 -8.0472 39.5743
1192209 13.8348 16.4022 4.90646 4.25702 1.21697 -8.02281 39.4005
1192217 13.7826 16.2154 4.94831 4.24766 1.10485 -7.96118 39.194
1192224 13.7826 16.2154 4.94831 4.24766 1.10485 -7.96118 39.194
1192234 13.713 15.9912 5.01108 4.37865 1.05242 -7.7945 39.094
1192244 13.713 15.9912 5.01108 4.37865 1.05242 -7.7945 39.094
1192254 13.6609 15.8137 5.13662 4.50028 0.969359 -7.60814 39.1115
1192265 13.6174 15.6456 5.31446 4.59384 0.834531 -7.41156 39.1713
1192287 13.487 15.3934 5.44 4.79031 0.803337 -7.1528 39.1107
1192294 13.4 15.1692 5.72246 5.071 0.709915 -6.77384 39.3627
1192304 13.4 15.1692 5.72246 5.071 0.709915 -6.77384 39.3627
1192315 13.3739 15.0758 6.02585 5.42653 0.690812 -6.38965 39.9021
1192325 13.3739 15.0758 6.02585 5.42653 0.690812 -6.38965 39.9021
1192336 13.3304 14.9637 6.21415 5.64172 0.660565 -6.14132 40.15
1192345 13.2957 14.7956 6.48615 5.86626 0.544003 -5.83732 40.4437
1192359 13.2957 14.7956 6.48615 5.86626 0.544003 -5.83732 40.4437
1192368 13.1739 14.7115 6.55938 6.01596 0.6143 -5.6759 40.4608
1192375 13 14.4967 6.63262 6.05338 0.570813 -5.52876 40.1827
1192385 13 14.4967 6.63262 6.05338 0.570813 -5.52876 40.1827
1192395 12.8087 14.3473 6.67446 6.12823 0.620848 -5.38804 39.9586
1192417 12.6609 14.1978 6.75815 6.24051 0.639331 -5.21611 39.8573
1192428 12.4696 14.039 6.84185 6.34342 0.674555 -5.03478 39.6938
1192437 12.4696 14.039 6.84185 6.34342 0.674555 -5.03478 39.6938
1192452 12.3391 13.8896 6.96738 6.5399 0.706506 -4.80222 39.736
1192457 12.2522 13.8335 7.09292 6.72702 0.761449 -4.61053 39.9056
1192467 12.2522 13.8335 7.09292 6.72702 0.761449 -4.61053 39.9056
1192477 12.1391 13.8055 7.17662 6.84865 0.837129 -4.47313 39.9699
1192486 12.1391 13.8055 7.17662 6.84865 0.837129 -4.47313 39.9699
1192501 12.0348 13.6841 7.31262 7.04513 0.861973 -4.25227 40.0766
1192507 12.0174 13.7308 7.41723 7.04513 0.833911 -4.21002 40.2105
1192516 12.0174 13.7308 7.41723 7.04513 0.833911 -4.21002 40.2105
1192527 11.8957 13.7681 7.39631 7.04513 0.948319 -4.19734 40.1052
1192536 11.8348 13.7214 7.344 7.08255 1.01619 -4.17542 39.9828
1192557 11.7565 13.7401 7.36492 7.04513 1.0423 -4.16719 39.9067
1192569 11.7565 13.7401 7.36492 7.04513 1.0423 -4.16719 39.9067
1192577 11.687 13.7495 7.33354 7.14805 1.17554 -4.1165 39.918
1192593 11.687 13.7308 7.36492 7.18547 1.16616 -4.0785 39.9681
1192597 11.687 13.7308 7.36492 7.18547 1.16616 -4.0785 39.9681
1192606 11.6522 13.6467 7.37538 7.12933 1.09819 -4.06778 39.8036
1192617 11.4696 13.6 7.50092 7.20418 1.15255 -3.90869 39.7747
1192627 11.4696 13.6 7.50092 7.20418 1.15255 -3.90869 39.7747
1192639 11.4261 13.572 7.57415 7.32581 1.189 -3.79647 39.898
1192664 11.3565 13.4786 7.74154 7.42873 1.13062 -3.62383 40.0054
1192668 11.3217 13.3665 7.89846 7.40066 0.967142 -3.52203 39.9873
1192678 11.3217 13.3665 7.89846 7.40066 0.967142 -3.52203 39.9873
1192689 11.287 13.3758 8.04492 7.50358 0.96212 -3.3999 40.2113
1192699 11.2174 13.3198 8.21231 7.63456 0.94384 -3.22787 40.384
1192713 11.2174 13.3198 8.21231 7.63456 0.94384 -3.22787 40.384
1192718 11.1391 13.133 8.33785 7.70941 0.846618 -3.05989 40.3194
1192738 11.0174 12.9088 8.37969 7.73748 0.779897 -2.92521 40.0434
1192749 10.9478 12.75 8.58892 7.89653 0.690448 -2.6923 40.1833
1192759 10.9478 12.75 8.58892 7.89653 0.690448 -2.6923 40.1833
1192769 10.8522 12.5165 8.72492 7.96203 0.562602 -2.50216 40.0556
1192782 10.7652 12.3297 9.01785 8.11172 0.409159 -2.22451 40.2245
1192789 10.7652 12.3297 9.01785 8.11172 0.409159 -2.22451 40.2245
1192805 10.5826 12.0681 9.248 8.42047 0.407991 -1.85356 40.3192
1192809 10.5826 12.0681 9.248 8.42047 0.407991 -1.85356 40.3192
1192819 10.4261 11.7786 9.53046 8.59824 0.260493 -1.51585 40.3334
1192830 10.2696 11.489 9.91754 8.82278 0.0769705 -1.1179 40.4989
1192853 10.2696 11.489 9.91754 8.82278 0.0769705 -1.1179 40.4989
1192855 10.2522 11.2368 10.1686 9.05669 -0.0781596 -0.833988 40.7143
1192860 10.1217 10.9846 10.3569 9.20638 -0.176829 -0.569114 40.6697
1192870 10.1217 10.9846 10.3569 9.20638 -0.176829 -0.569114 40.6697
1192880 9.96522 10.7511 10.5138 9.27188 -0.281522 -0.344648 40.502
1192900 9.72174 10.5082 10.7649 9.39351 -0.362054 -0.0265744 40.3884
1192911 9.58261 10.1626 11.016 9.63676 -0.494584 0.336966 40.398
1192923 9.58261 10.1626 11.016 9.63676 -0.494584 0.336966 40.398
1192930 9.4 9.93846 11.3508 9.88002 -0.574502 0.699667 40.5693
1192940 9.17391 9.6489 11.7483 10.1233 -0.706507 1.12378 40.6944
1192962 9.04348 9.45275 12.0203 10.3853 -0.749226 1.43368 40.9018
1192972 9.04348 9.45275 12.0203 10.3853 -0.749226 1.43368 40.9018
1192982 8.82609 9.23791 12.3132 10.5724 -0.811383 1.76617 40.9496
1192996 8.68696 9.02308 12.5643 10.8156 -0.85943 2.06981 41.09
1193001 8.68696 9.02308 12.5643 10.8156 -0.85943 2.06981 41.09
1193013 8.46957 8.80824 12.8782 11.0121 -0.927518 2.40932 41.1681
1193023 8.24348 8.5467 13.1292 11.1431 -1.0246 2.7332 41.0625
1193032 8.24348 8.5467 13.1292 11.1431 -1.0246 2.7332 41.0625
1193044 8.01739 8.2478 13.3908 11.508 -1.00354 3.14604 41.1639
1193051 8.01739 8.2478 13.3908 11.508 -1.00354 3.14604 41.1639
1193068 7.73913 7.92088 13.6628 11.6203 -1.13619 3.52552 40.943
1193072 7.46087 7.61264 13.9034 11.9009 -1.13184 3.93764 40.8778
1193095 7.17391 7.29505 14.2695 12.219 -1.17766 4.40198 40.9576
1193103 7 7.07088 14.5938 12.4904 -1.23472 4.74303 41.1551
1193116 7 7.07088 14.5938 12.4904 -1.23472 4.74303 41.1551
1193123 6.7913 6.87473 14.9809 12.7336 -1.3073 5.09243 41.3806
1193133 6.7913 6.87473 14.9809 12.7336 -1.3073 5.09243 41.3806
1193143 6.44348 6.5478 15.3157 13.0424 -1.31138 5.5745 41.3493
1193153 6.27826 6.40769 15.6295 13.1734 -1.40203 5.82697 41.4889
1193164 6.27826 6.40769 15.6295 13.1734 -1.40203 5.82697 41.4889
1193173 6.07826 6.18352 15.9015 13.4166 -1.43078 6.15311 41.5799
1193187 5.85217 5.81923 16.3305 13.7067 -1.59245 6.60502 41.7085
1193193 5.85217 5.81923 16.3305 13.7067 -1.59245 6.60502 41.7085
1193203 5.62609 5.52033 16.6129 13.9686 -1.6476 6.98637 41.728
1193215 5.62609 5.52033 16.6129 13.9686 -1.6476 6.98637 41.728
1193223 5.36522 5.25879 16.7908 14.0903 -1.69072 7.32092 41.505
1193235 5.1913 5.02527 16.9582 14.2587 -1.72899 7.60265 41.4334
1193243 5.1913 5.02527 16.9582 14.2587 -1.72899 7.60265 41.4334
1193253 5.02609 4.8478 17.0787 14.3803 -1.73998 7.8334 41.3329
1193263 4.86087 4.71703 17.4233 14.7171 -1.70788 8.11244 41.7183
1193273 4.86087 4.71703 17.4233 14.7171 -1.70788 8.11244 41.7183
1193284 4.61739 4.43681 17.8269 15.2036 -1.66558 8.54573 42.0847
1193308 4.30435 4.11923 18.0139 15.5498 -1.57738 8.98134 41.9873
1193314 4.14783 3.94176 18.1714 15.5872 -1.66688 9.20077 41.8482
1193325 4.14783 3.94176 18.1714 15.5872 -1.66688 9.20077 41.8482
1193334 3.86957 3.75495 18.1517 15.7744 -1.49936 9.49502 41.5506
1193344 3.70435 3.67088 18.2009 15.8773 -1.42155 9.66252 41.4534
1193364 3.65217 3.61484 18.1714 15.9521 -1.363 9.73285 41.3905
1193387 3.6 3.49341 18.1419 15.9147 -1.41784 9.82862 41.15
1193395 3.58261 3.54945 18.4273 16.3544 -1.25618 9.8952 41.9138
1193405 3.58261 3.54945 18.4273 16.3544 -1.25618 9.8952 41.9138
1193415 3.57391 3.49341 18.5947 16.4573 -1.3164 9.96622 42.1193
1193429 3.46087 3.39066 18.6045 16.4854 -1.30498 10.0992 41.9415
1193436 3.46087 3.39066 18.6045 16.4854 -1.30498 10.0992 41.9415
1193445 3.38261 3.36264 18.5356 16.579 -1.18049 10.1658 41.8598
1193455 3.38261 3.36264 18.5356 16.579 -1.18049 10.1658 41.8598
1193470 3.29565 3.32527 18.4667 16.5603 -1.1266 10.2308 41.6479
1193479 3.27826 3.29725 18.2698 16.4106 -1.11516 10.2185 41.2559
1193488 3.27826 3.29725 18.2698 16.4106 -1.11516 10.2185 41.2559
1193500 3.28696 3.22253 18.0631 16.3076 -1.11294 10.223 40.8802
1193507 3.4087 3.29725 18.0237 16.2796 -1.13121 10.0943 41.0093
1193516 3.4087 3.29725 18.0237 16.2796 -1.13121 10.0943 41.0093
1193527 3.57391 3.39066 17.9745 16.2328 -1.16886 9.92524 41.1719
1193538 3.69565 3.49341 18.0041 16.317 -1.13785 9.80436 41.5101
1193548 3.69565 3.49341 18.0041 16.317 -1.13785 9.80436 41.5101
1193558 3.89565 3.64286 18.1616 16.5228 -1.11995 9.64378 42.2229
1193570 3.89565 3.64286 18.1616 16.5228 -1.11995 9.64378 42.2229
1193578 3.94783 3.73626 18.1222 16.5509 -1.05226 9.55765 42.3572
1193588 4.0087 3.73626 17.945 16.4106 -1.07294 9.4811 42.1005
1193598 4.0087 3.73626 17.945 16.4106 -1.07294 9.4811 42.1005
1193608 4.08696 3.72692 17.6989 16.3076 -1.04691 9.39469 41.8204
1193618 4.08696 3.72692 17.5217 16.2515 -0.980009 9.36325 41.5871
1193628 4.08696 3.70824 17.5217 16.2515 -0.991687 9.37419 41.5684
1193641 4.2087 3.76429 17.3544 16.1112 -1.01814 9.22785 41.4385
1193650 4.2087 3.76429 17.3544 16.1112 -1.01814 9.22785 41.4385
1193659 4.25217 3.77363 17.1772 16.0363 -0.981715 9.16154 41.2393
1193668 4.22609 3.76429 17.1378 16.158 -0.87297 9.1939 41.2861
1193693 4.30435 3.92308 17.1083 16.3544 -0.68069 9.07959 41.6901
1193698 4.38261 3.92308 17.0591 16.3544 -0.697617 9.02743 41.7192
1193708 4.38261 3.89506 17.0591 16.4854 -0.634353 9.06224 41.8221
1193719 4.32174 3.9511 17.1477 16.6912 -0.490983 9.10651 42.1117
1193728 4.32174 3.9511 17.1477 16.6912 -0.490983 9.10651 42.1117
1193742 4.24348 3.94176 16.9791 16.6912 -0.352131 9.13323 41.8556
1193749 4.2087 3.91374 16.9686 16.6819 -0.348122 9.16673 41.7729
1193765 4.2087 3.91374 16.9686 16.6819 -0.348122 9.16673 41.7729
1193769 4.13913 3.88571 16.9582 16.6351 -0.346278 9.21537 41.6181
1193779 4.13913 3.88571 16.9582 16.6351 -0.346278 9.21537 41.6181
1193789 4.08696 3.82967 16.9163 16.6819 -0.296101 9.27918 41.5148
1193799 4.03478 3.82967 16.9477 16.7287 -0.255248 9.32044 41.5408
1193811 4.03478 3.82967 16.9477 16.7287 -0.255248 9.32044 41.5408
1193819 4.05217 3.81099 17 16.71 -0.319451 9.32578 41.5731
1193835 4.04348 3.83901 17.0787 16.7567 -0.315496 9.33159 41.718
1193839 4.04348 3.83901 17.0787 16.7567 -0.315496 9.33159 41.718
1193849 4.01739 3.78297 17.0689 16.7755 -0.316891 9.38078 41.6447
1193859 4.01739 3.78297 17.0689 16.7755 -0.316891 9.38078 41.6447
1193869 3.96522 3.79231 17.187 16.8409 -0.31051 9.43047 41.7855
1193882 4.0087 3.79231 17.128 16.7567 -0.352408 9.38585 41.6857
1193889 4.0087 3.79231 17.128 16.7567 -0.352408 9.38585 41.6857
1193899 3.98261 3.80165 17.1477 16.7193 -0.365712 9.39326 41.6512
1193909 3.93913 3.6989 17.2166 16.7474 -0.426304 9.49207 41.602
1193919 3.93913 3.6989 17.2166 16.7474 -0.426304 9.49207 41.602
1193930 3.95652 3.75495 17.2461 16.7661 -0.408383 9.45533 41.7237
1193954 3.94783 3.76429 17.2264 16.71 -0.420173 9.44485 41.6485
1193960 3.93913 3.76429 17.2658 16.7287 -0.42685 9.45769 41.6979
1193969 3.93913 3.76429 17.2658 16.7287 -0.42685 9.45769 41.6979
1193979 3.92174 3.72692 17.3347 16.6912 -0.502856 9.49401 41.6746
1193989 3.93043 3.76429 17.3347 16.579 -0.553888 9.45204 41.6084
1194001 3.93043 3.76429 17.3347 16.579 -0.553888 9.45204 41.6084
1194009 3.92174 3.77363 17.3544 16.5322 -0.583358 9.44805 41.5819
1194030 3.94783 3.70824 17.3937 16.5041 -0.679357 9.47268 41.5539
1194040 3.98261 3.76429 17.4134 16.4667 -0.699696 9.41692 41.627
1194050 3.98261 3.76429 17.4134 16.4667 -0.699696 9.41692 41.627
1194062 4.0087 3.72692 17.3937 16.4199 -0.755484 9.41462 41.5493
1194071 4.0087 3.75495 17.3544 16.4012 -0.726718 9.39033 41.5192
1194080 4.0087 3.75495 17.3544 16.4012 -0.726718 9.39033 41.5192
1194096 4.08696 3.75495 17.4036 16.2983 -0.864933 9.33713 41.5438
1194128 4.14783 3.71758 17.4233 16.3638 -0.894146 9.33498 41.6525
1194129 4.07826 3.75495 17.5808 16.3076 -0.956604 9.36752 41.7216
1194132 4.07826 3.75495 17.5808 16.3076 -0.956604 9.36752 41.7216
1194142 4.05217 3.70824 17.7383 16.317 -1.05535 9.43241 41.8157
1194151 3.9913 3.66154 17.7875 16.2889 -1.09534 9.49822 41.7293
1194166 3.9913 3.66154 17.7875 16.2889 -1.09534 9.49822 41.7293
1194172 3.93913 3.6989 17.7875 16.2328 -1.07717 9.49952 41.6583
1194183 3.93913 3.6989 17.7875 16.2328 -1.07717 9.49952 41.6583
1194193 3.84348 3.66154 17.8072 16.2047 -1.07449 9.5769 41.5169
1194203 3.86087 3.61484 17.9351 16.2234 -1.17556 9.61331 41.6343
1194216 3.86087 3.61484 17.9351 16.2234 -1.17556 9.61331 41.6343
1194223 3.82609 3.68956 17.9647 16.2141 -1.13152 9.59233 41.6944
1194233 3.8 3.67088 18.0336 16.1205 -1.22653 9.61558 41.625
1194253 3.88696 3.70824 17.9844 16.0737 -1.254 9.5297 41.6533
1194265 3.88696 3.70824 17.9844 16.0737 -1.254 9.5297 41.6533
1194273 3.90435 3.71758 18.0041 15.9521 -1.34608 9.50052 41.5781
1194288 3.98261 3.77363 17.9351 15.8118 -1.40493 9.39351 41.5032
1194304 4.06087 3.83901 17.9351 15.634 -1.52101 9.28498 41.469
1194314 4.15652 3.86703 17.7973 15.5498 -1.5331 9.18171 41.3707
1194324 4.15652 3.86703 17.7973 15.5498 -1.5331 9.18171 41.3707
1194335 4.24348 3.96044 17.758 15.4095 -1.59019 9.05101 41.3713
1194344 4.36522 3.96044 17.7186 15.1569 -1.80002 8.93779 41.2011
1194360 4.36522 4.12857 17.7186 15.1569 -1.6911 8.8405 41.3692
1194364 4.55652 4.34341 17.4331 14.9136 -1.65628 8.5268 41.2466
1194375 4.55652 4.34341 17.4331 14.9136 -1.65628 8.5268 41.2466
1194384 4.87826 4.61429 17.0886 14.5768 -1.68606 8.08088 41.1579
1194394 5.17391 4.97857 16.8431 14.3054 -1.6543 7.62549 41.301
1194407 5.17391 4.97857 16.8431 14.3054 -1.6543 7.62549 41.301
1194414 5.53043 5.34286 16.456 13.9218 -1.64949 7.09237 41.2511
1194430 5.53043 5.34286 16.456 13.9218 -1.64949 7.09237 41.2511
1194434 5.84348 5.66978 16.1212 13.5757 -1.64963 6.61863 41.2102
1194444 6.06087 5.95 15.776 13.2389 -1.61363 6.21707 41.0257
1194465 6.36522 6.36099 15.2843 12.8178 -1.51286 5.64899 40.8283
1194477 6.74783 6.85604 14.8972 12.3313 -1.50475 5.0051 40.8324
1194485 6.74783 6.85604 14.8972 12.3313 -1.50475 5.0051 40.8324
1194499 7.18261 7.33242 14.4265 11.8167 -1.50885 4.31624 40.7582
1194505 7.18261 7.33242 14.4265 11.8167 -1.50885 4.31624 40.7582
1194515 7.51304 7.86484 13.9766 11.3489 -1.39785 3.66591 40.7034
1194525 7.89565 8.44396 13.6209 10.9466 -1.29929 3.01705 40.9072
1194546 8.26957 8.85495 13.056 10.5256 -1.19456 2.3794 40.7061
1194555 8.53043 9.25659 12.5643 10.0671 -1.09542 1.79785 40.4185
1194570 8.53043 9.25659 12.5643 10.0671 -1.09542 1.79785 40.4185
1194575 8.7913 9.63022 12.1354 9.79582 -0.929709 1.30462 40.3527
1194587 8.7913 9.63022 12.1354 9.79582 -0.929709 1.30462 40.3527
1194596 9.0087 9.9011 11.8843 9.50578 -0.921917 0.92319 40.2999
1194607 9.4087 10.3868 11.3403 9.15025 -0.752087 0.258792 40.2861
1194619 9.4087 10.3868 11.3403 9.15025 -0.752087 0.258792 40.2861
1194627 9.73043 10.7885 10.7963 8.64502 -0.683969 -0.404491 39.9602
1194643 10.0348 11.1808 10.4929 8.28013 -0.666942 -0.916196 39.9886
1194647 10.0348 11.1808 10.4929 8.28013 -0.666942 -0.916196 39.9886
1194657 10.4348 11.6291 10.1058 7.98074 -0.579551 -1.48591 40.1505
1194667 10.4348 11.6291 10.1058 7.98074 -0.579551 -1.48591 40.1505
1194676 10.7913 12.0495 9.50954 7.55036 -0.43924 -2.17322 39.9007
1194694 11.0348 12.4511 9.05969 7.13869 -0.31794 -2.75455 39.6843
1194707 11.2 12.7126 8.78769 6.85801 -0.263566 -3.13471 39.5583
1194719 11.3391 12.9742 8.48431 6.74573 -0.0654519 -3.44556 39.5433
1194726 11.3391 12.9742 8.48431 6.74573 -0.0654519 -3.44556 39.5433
1194743 11.4087 13.1143 8.34831 6.65217 0.00598431 -3.61399 39.5235
1194752 11.4087 13.1143 8.34831 6.65217 0.00598431 -3.61399 39.5235
1194766 11.5043 13.1236 8.34831 6.63346 -0.0603199 -3.65297 39.6097
1194769 11.6609 13.3104 8.20185 6.60539 0.0333816 -3.83275 39.7785
1194778 11.6609 13.3104 8.20185 6.60539 0.0333816 -3.83275 39.7785
1194791 11.8348 13.5253 8.04492 6.47441 0.0752151 -4.07757 39.8794
1194798 11.9478 13.6934 7.95077 6.41827 0.133142 -4.22599 40.0103
1194818 12.0696 13.9643 7.79385 6.25922 0.224569 -4.48306 40.0869
1194828 12.0696 13.9643 7.79385 6.25922 0.224569 -4.48306 40.0869
1194838 12.1739 14.1511 7.56369 6.14695 0.349963 -4.72618 40.0356
1194848 12.3043 14.3286 7.35446 5.95047 0.388247 -5.00577 39.9378
1194869 12.4609 14.394 7.21846 5.7727 0.305757 -5.21897 39.846
1194879 12.713 14.7022 6.94646 5.57622 0.387427 -5.59339 39.9379
1194889 12.713 14.7022 6.94646 5.57622 0.387427 -5.59339 39.9379
1194902 12.9565 14.861 6.59077 5.37975 0.435713 -5.97428 39.788
1194912 12.9652 14.861 6.30831 5.04293 0.402266 -6.30783 39.1774
1194919 12.9652 14.917 6.30831 5.04293 0.437406 -6.32024 39.2335
1194929 13.0783 15.0385 6.20369 4.9213 0.431815 -6.49503 39.2417
1194949 13.0174 15.0758 6.01538 4.85581 0.576711 -6.62991 38.9644
1194961 13.0435 15.0665 5.95262 4.88387 0.612551 -6.65278 38.9464
1194969 13.0435 15.0665 5.95262 4.88387 0.612551 -6.65278 38.9464
1194986 12.913 14.9637 6.10954 5.06164 0.642028 -6.41734 39.048
1194989 12.913 14.9637 6.10954 5.06164 0.642028 -6.41734 39.048
1195001 12.7913 14.833 6.26646 5.26747 0.66568 -6.16359 39.1582
1195011 12.7478 14.8423 6.53846 5.63236 0.747204 -5.81701 39.761
1195034 13.1391 15.356 6.60123 5.70721 0.810522 -5.95048 40.8036
1195040 13.5043 15.8978 6.32923 5.39846 0.889063 -6.44585 41.1298
1195057 13.5043 15.8978 6.32923 5.39846 0.889063 -6.44585 41.1298
1195060 13.7826 16.178 5.90031 5.0055 0.917995 -6.99406 40.8664
1195070 13.7826 16.178 5.90031 5.0055 0.917995 -6.99406 40.8664
1195081 13.8 16.2901 5.53415 4.67804 1.01359 -7.3983 40.3023
1195090 13.8609 16.3648 5.26215 4.31315 0.976714 -7.78261 39.801
1195101 13.8609 16.3648 5.26215 4.31315 0.976714 -7.78261 39.801
1195120 13.713 16.0753 4.78092 3.90149 0.963587 -8.22934 38.4707
1195133 13.713 16.0753 4.78092 3.90149 0.963587 -8.22934 38.4707
1195140 13.5913 15.8698 4.73908 3.92955 0.963128 -8.17963 38.1297
1195161 13.4174 15.5335 4.90646 3.94827 0.765714 -7.97348 37.8056
1195172 13.4696 15.5148 5.10523 4.21959 0.756755 -7.69772 38.3092
1195182 13.4696 15.5148 5.10523 4.21959 0.756755 -7.69772 38.3092
1195191 13.5478 15.5802 5.39815 4.41607 0.674275 -7.4394 38.9423
1195205 13.8957 16.0192 5.576 4.54706 0.683498 -7.4149 40.0379
1195211 13.8957 16.0192 5.576 4.54706 0.683498 -7.4149 40.0379
1195223 14.0957 16.1687 5.576 4.49092 0.612396 -7.51182 40.3313
1195232 14.0957 16.1687 5.576 4.49092 0.612396 -7.51182 40.3313
1195241 14.0348 16.122 5.60738 4.49092 0.602862 -7.47426 40.2551
1195255 13.9565 16.0846 5.61785 4.50963 0.634745 -7.43628 40.1686
1195272 13.8348 15.8791 5.50277 4.36929 0.575244 -7.51852 39.586
1195281 13.6435 15.7016 5.50277 4.47221 0.653359 -7.38941 39.3201
1195293 13.6435 15.7016 5.50277 4.47221 0.653359 -7.38941 39.3201
1195303 13.6261 15.5242 5.48185 4.5377 0.608847 -7.32607 39.1698
1195312 13.6261 15.5242 5.48185 4.5377 0.608847 -7.32607 39.1698
1195327 13.4696 15.4681 5.51323 4.51899 0.644296 -7.27695 38.9699
1195333 13.5043 15.4868 5.63877 4.6219 0.615007 -7.15781 39.2518
1195341 13.5043 15.4868 5.63877 4.6219 0.615007 -7.15781 39.2518
1195351 13.5043 15.5242 5.70154 4.66868 0.626272 -7.10364 39.3987
1195361 13.5739 15.5522 5.78523 4.72482 0.57894 -7.0451 39.6362
1195374 13.5739 15.5522 5.78523 4.72482 0.57894 -7.0451 39.6362
1195382 13.5565 15.5896 5.90031 4.70611 0.52754 -6.99566 39.7525
1195409 13.513 15.5522 5.86892 4.80903 0.61599 -6.93979 39.7432
1195413 13.4609 15.5989 5.87938 4.86516 0.705835 -6.90197 39.8043
1195433 13.4 15.4962 5.81662 4.87452 0.728804 -6.89806 39.5873
1195444 13.3826 15.4868 5.80615 4.94937 0.787017 -6.85701 39.6249
1195453 13.3826 15.4868 5.80615 4.94937 0.787017 -6.85701 39.6249
1195463 13.4087 15.5148 5.86892 4.91194 0.723574 -6.85415 39.7044
1195473 13.4087 15.5148 5.86892 4.91194 0.723574 -6.85415 39.7044
1195483 13.4087 15.5615 5.73292 4.94001 0.85761 -6.92325 39.6432
1195495 13.4 15.683 5.63877 4.87452 0.958878 -7.03463 39.5963
1195504 13.4 15.683 5.63877 4.87452 0.958878 -7.03463 39.5963
1195518 13.4261 15.8324 5.55508 4.84645 1.07016 -7.13198 39.66
1195523 13.3304 15.8324 5.44 4.81838 1.19248 -7.19326 39.4212
1195544 13.2783 15.767 5.47138 4.80903 1.16108 -7.15749 39.3257
1195555 13.2783 15.767 5.47138 4.80903 1.16108 -7.15749 39.3257
1195565 13.2609 15.9071 5.38769 4.84645 1.33561 -7.20793 39.4022
1195574 13.2957 15.9165 5.35631 4.87452 1.35578 -7.21852 39.443
1195590 13.2957 15.9165 5.35631 4.87452 1.35578 -7.21852 39.443
1195594 13.2783 16.0379 5.35631 4.88387 1.44554 -7.23373 39.5564
1195604 13.3652 16.2341 5.27262 4.88387 1.55959 -7.33584 39.7558
1195614 13.3652 16.2341 5.27262 4.88387 1.55959 -7.33584 39.7558
1195624 13.487 16.5236 5.11569 4.76225 1.6817 -7.57084 39.8885
1195639 13.487 16.5236 5.11569 4.76225 1.6817 -7.57084 39.8885
1195645 13.5652 16.7478 4.896 4.63126 1.83097 -7.82591 39.8403
1195654 13.5826 16.9907 4.78092 4.52834 1.97798 -7.99749 39.8825
1195665 13.5826 16.9907 4.78092 4.52834 1.97798 -7.99749 39.8825
1195674 13.6174 17.1264 4.56123 4.3038 2.05232 -8.28557 39.6089
1195693 13.6 17.2723 4.46708 4.21959 2.16438 -8.41237 39.559
1195695 13.6 17.2723 4.46708 4.21959 2.16438 -8.41237 39.559
1195704 13.5739 17.3015 4.40431 4.11668 2.1829 -8.51135 39.3964
1195718 13.5739 17.3015 4.40431 4.11668 2.1829 -8.51135 39.3964
1195724 13.4261 17.2431 4.32062 4.01376 2.24992 -8.58953 39.0036
1195734 13.3913 17.2237 4.26831 4.04183 2.31592 -8.59529 38.9251
1195755 13.4 17.1848 4.22646 4.03247 2.31105 -8.62141 38.8437
1195767 13.3217 17.1653 4.20554 4.07925 2.39691 -8.58958 38.7719
1195791 13.3478 17.2237 4.25785 4.13539 2.4082 -8.53782 38.9647
1195805 13.2435 17.2334 4.36246 4.21959 2.46235 -8.40838 39.0589
1195815 13.287 17.3501 4.44615 4.31315 2.49399 -8.32986 39.3964
1195825 13.287 17.3501 4.44615 4.31315 2.49399 -8.32986 39.3964
1195839 13.3391 17.4279 4.45662 4.32251 2.50004 -8.34009 39.5462
1195845 13.3826 17.4668 4.49846 4.388 2.5001 -8.29085 39.7359
1195863 13.3826 17.4668 4.49846 4.388 2.5001 -8.29085 39.7359
1195867 13.4957 17.5057 4.59262 4.44414 2.4112 -8.22889 40.0381
1195877 13.4957 17.5057 4.59262 4.44414 2.4112 -8.22889 40.0381
1195889 13.5391 17.6224 4.57169 4.46285 2.47191 -8.25715 40.1961
1195897 13.487 17.6808 4.51938 4.45349 2.57092 -8.29391 40.1406
1195914 13.487 17.6808 4.51938 4.45349 2.57092 -8.29391 40.1406
1195917 13.4348 17.7294 4.39385 4.35058 2.66318 -8.42666 39.9086
1195926 13.3826 17.6905 4.352 4.26637 2.65943 -8.48598 39.6915
1195946 13.3565 17.6419 4.28923 4.22895 2.67297 -8.53321 39.5166
1195963 13.3565 17.6419 4.28923 4.22895 2.67297 -8.53321 39.5166
1195968 13.2174 17.5543 4.23692 4.23831 2.76349 -8.52162 39.247
1195978 13.1565 17.4182 4.23692 4.18217 2.69717 -8.52275 38.9938
1195989 13.1565 17.4182 4.23692 4.18217 2.69717 -8.52275 38.9938
1195998 13.0783 17.4571 4.23692 4.21959 2.79642 -8.49363 38.9919
1196013 13.087 17.4376 4.34154 4.18217 2.68342 -8.45141 39.0483
1196036 13.1217 17.4376 4.32062 4.26637 2.72162 -8.41932 39.1464
1196053 13.0174 17.3307 4.46708 4.31315 2.65751 -8.26812 39.1283
1196060 13.0609 17.2626 4.58215 4.49092 2.6084 -8.09096 39.3965
1196069 13.0609 17.2626 4.58215 4.49092 2.6084 -8.09096 39.3965
1196085 13.0609 17.214 4.68677 4.54706 2.53956 -7.9885 39.5087
1196089 12.9478 17.0973 4.83323 4.67804 2.5244 -7.78654 39.5564
1196099 12.9478 17.0973 4.83323 4.67804 2.5244 -7.78654 39.5564
1196110 12.9478 16.944 5.00062 4.75289 2.36371 -7.61942 39.6453
1196119 12.9478 16.944 5.00062 4.75289 2.36371 -7.61942 39.6453
1196133 12.8435 16.8225 5.09477 4.76225 2.30658 -7.51802 39.523
1196139 12.8261 16.6357 5.33538 4.95872 2.15878 -7.23202 39.7559
1196149 12.8261 16.6357 5.33538 4.95872 2.15878 -7.23202 39.7559
1196161 12.7478 16.5143 5.41908 5.071 2.14981 -7.0834 39.7522
1196169 12.6609 16.3742 5.67015 5.18327 2.02215 -6.83717 39.8885
1196181 12.6609 16.3742 5.67015 5.18327 2.02215 -6.83717 39.8885
1196189 12.7391 16.2994 5.82708 5.36103 1.92302 -6.6562 40.2267
1196206 12.7391 16.2994 5.82708 5.36103 1.92302 -6.6562 40.2267
1196209 12.8 16.2527 5.93169 5.37975 1.79664 -6.59296 40.3642
1196220 12.7913 16.1967 5.91077 5.42653 1.81099 -6.56562 40.3253
1196230 12.7913 16.1967 5.91077 5.42653 1.81099 -6.56562 40.3253
1196239 12.8609 16.122 5.94215 5.37039 1.66852 -6.57779 40.2954
1196255 12.8609 16.122 5.94215 5.37039 1.66852 -6.57779 40.2954
1196261 12.7391 16.0099 5.93169 5.31425 1.65854 -6.56448 39.995
1196269 12.6696 15.7764 5.96308 5.22069 1.49157 -6.5338 39.6297
1196289 12.5043 15.5335 5.93169 5.24876 1.49563 -6.44753 39.2183
1196305 12.4087 15.356 6.09908 5.28619 1.363 -6.27566 39.15
1196320 12.4087 15.1692 6.26646 5.42653 1.22266 -6.06744 39.2709
1196331 12.2435 14.8984 6.49662 5.65107 1.15128 -5.72448 39.2895
1196340 12.2435 14.8984 6.49662 5.65107 1.15128 -5.72448 39.2895
1196352 12.1826 14.7022 6.85231 5.95047 1.01905 -5.32233 39.6876
1196360 12.1826 14.7022 6.85231 5.95047 1.01905 -5.32233 39.6876
1196377 12.0087 14.394 7.29169 6.24986 0.840816 -4.82965 39.9442
1196381 11.8522 14.0951 7.71015 6.60539 0.706682 -4.33341 40.2628
1196392 11.8522 14.0951 7.71015 6.60539 0.706682 -4.33341 40.2628
1196401 11.5826 13.6934 8.11815 6.97964 0.602052 -3.7815 40.3738
1196412 11.3913 13.2731 8.53662 7.38195 0.447911 -3.23257 40.5829
1196425 11.3913 13.2731 8.53662 7.38195 0.447911 -3.23257 40.5829
1196432 11.1391 12.9088 8.96554 7.82168 0.38313 -2.66708 40.8351
1196441 11.1391 12.9088 8.96554 7.82168 0.38313 -2.66708 40.8351
1196452 10.8435 12.4698 9.30031 8.14915 0.291407 -2.15778 40.7627
1196462 10.5826 12.0214 9.64554 8.48597 0.171378 -1.64691 40.7355
1196482 10.2957 11.6945 9.94892 8.75729 0.127298 -1.21041 40.6964
1196492 9.98261 11.2368 10.3255 9.03797 -0.0205502 -0.685969 40.5829
1196501 9.98261 11.2368 10.3255 9.03797 -0.0205502 -0.685969 40.5829
1196511 9.61739 10.9566 10.6917 9.40286 0.0309646 -0.176831 40.6685
1196524 9.61739 10.9566 10.6917 9.40286 0.0309646 -0.176831 40.6685
1196531 9.44348 10.611 11.0892 9.68354 -0.145842 0.263908 40.8272
1196548 9.31304 10.4802 11.3926 9.88938 -0.204539 0.543661 41.0753
1196552 9.31304 10.4802 11.3926 9.88938 -0.204539 0.543661 41.0753
1196561 9.24348 10.3868 11.4345 10.011 -0.17049 0.662865 41.0758
1196573 9.24348 10.3868 11.4345 10.011 -0.17049 0.662865 41.0758
1196584 9.01739 10.0879 11.6437 10.0297 -0.333172 0.944651 40.7787
1196596 8.7913 9.84505 11.9052 10.1981 -0.400932 1.27652 40.7397
1196602 8.7913 9.84505 11.9052 10.1981 -0.400932 1.27652 40.7397
1196612 8.56522 9.51813 12.0726 10.3946 -0.44703 1.62163 40.5506
1196621 8.36522 9.31264 12.4178 10.6659 -0.493413 1.98934 40.7616
1196631 8.36522 9.31264 12.4178 10.6659 -0.493413 1.98934 40.7616
1196645 8.12174 9.0978 12.6898 10.9279 -0.481105 2.35013 40.8373
1196651 8.12174 9.0978 12.6898 10.9279 -0.481105 2.35013 40.8373
1196669 7.89565 8.74286 13.0037 11.1712 -0.603555 2.76981 40.8134
1196673 7.76522 8.4533 13.3385 11.5548 -0.666247 3.16505 41.1117
1196696 7.53913 8.25714 13.7883 11.8167 -0.756961 3.55379 41.4013
1196703 7.29565 7.88352 14.0603 12.0881 -0.837448 3.98132 41.3275
1196720 7.29565 7.88352 14.0603 12.0881 -0.837448 3.98132 41.3275
1196723 7.10435 7.66868 14.416 12.2845 -0.944656 4.3139 41.4736
1196733 7.10435 7.66868 14.416 12.2845 -0.944656 4.3139 41.4736
1196745 6.95652 7.48187 14.4788 12.3781 -0.953698 4.51086 41.2953
1196753 6.73043 7.24835 14.7089 12.4717 -1.04432 4.81122 41.1594
1196773 6.54783 7.03352 14.8972 12.6307 -1.08299 5.08885 41.1093
1196783 6.4 6.85604 15.0542 12.743 -1.12971 5.31302 41.0532
1196795 6.4 6.85604 15.0542 12.743 -1.12971 5.31302 41.0532
1196803 6.28696 6.64121 15.232 13.0143 -1.13143 5.58045 41.1745
1196820 6.28696 6.64121 15.232 13.0143 -1.13143 5.58045 41.1745
1196823 6.05217 6.47308 15.5563 13.2763 -1.12381 5.91448 41.3578
1196833 5.83478 6.2489 15.8178 13.5757 -1.10184 6.26001 41.4772
1196845 5.83478 6.2489 15.8178 13.5757 -1.10184 6.26001 41.4772
1196853 5.73913 6.09945 16.0689 13.7067 -1.20268 6.46547 41.6142
1196869 5.47826 5.83791 16.3828 13.8938 -1.27987 6.83787 41.5927
1196884 5.27826 5.58571 16.5292 14.2119 -1.20772 7.16636 41.6051
1196894 5.27826 5.58571 16.5292 14.2119 -1.20772 7.16636 41.6051
1196904 5.06087 5.38956 16.6966 14.399 -1.18478 7.45385 41.5461
1196919 4.87826 5.26813 16.9163 14.6236 -1.14119 7.69803 41.6863
1196924 4.87826 5.26813 16.9163 14.6236 -1.14119 7.69803 41.6863
1196934 4.69565 5.1467 17.0394 14.6423 -1.17165 7.88916 41.524
1196944 4.73913 5.11868 16.9791 14.5674 -1.22699 7.8574 41.4043
1196954 4.73913 5.11868 16.9791 14.5674 -1.22699 7.8574 41.4043
1196971 4.8 5.04396 16.8954 14.5768 -1.25535 7.85222 41.3161
1196974 4.8 5.04396 16.8954 14.5768 -1.25535 7.85222 41.3161
1196984 4.88696 5.12802 16.8012 14.4926 -1.25131 7.72674 41.3088
1196997 4.92174 5.1467 16.8326 14.5674 -1.22999 7.71607 41.4685
1197004 4.92174 5.1467 16.8326 14.5674 -1.22999 7.71607 41.4685
1197019 5.04348 5.10934 16.8326 14.661 -1.26408 7.68642 41.6464
1197024 4.98261 5.01593 16.8431 14.6797 -1.28251 7.77585 41.5213
1197034 4.98261 5.01593 16.8431 14.6797 -1.28251 7.77585 41.5213
1197044 4.96522 4.91319 17.1181 14.9697 -1.31083 7.93832 41.9663
1197054 4.96522 4.91319 17.1181 14.9697 -1.31083 7.93832 41.9663
1197068 4.70435 4.62363 17.5512 15.2691 -1.4015 8.36061 42.1483
1197074 4.46087 4.39011 17.8564 15.4188 -1.48858 8.69681 42.1262
1197084 4.46087 4.39011 17.8564 15.4188 -1.48858 8.69681 42.1262
1197094 4.16522 4.09121 18.0336 15.4843 -1.56991 9.07069 41.7743
1197105 3.94783 3.87637 18.1222 15.6153 -1.5509 9.35235 41.5617
1197116 3.94783 3.87637 18.1222 15.6153 -1.5509 9.35235 41.5617
1197125 3.84348 3.7456 18.3781 15.634 -1.70787 9.52726 41.6012
1197145 3.66957 3.60549 18.3486 15.6527 -1.67162 9.71243 41.2764
1197155 3.63478 3.64286 18.3584 15.6714 -1.62133 9.71454 41.3075
1197175 3.70435 3.75495 18.2206 15.6059 -1.55263 9.57977 41.2859
1197191 3.7913 3.82033 18.1812 15.5498 -1.57368 9.47668 41.3427
1197196 3.7913 3.82033 18.1812 15.5498 -1.57368 9.47668 41.3427
1197215 3.93043 3.94176 18.1616 15.7182 -1.45622 9.3436 41.752
1197216 3.93043 3.94176 18.1616 15.7182 -1.45622 9.3436 41.752
1197227 3.98261 3.96978 18.2108 15.765 -1.46596 9.30999 41.9282
1197239 3.89565 3.93242 18.0336 15.8118 -1.31081 9.36471 41.6734
1197247 3.89565 3.93242 18.0336 15.8118 -1.31081 9.36471 41.6734
1197263 3.96522 3.97912 17.9942 15.6995 -1.36942 9.27614 41.6381
1197267 3.9913 4.06319 17.8564 15.5779 -1.32966 9.1759 41.4888
1197277 3.9913 4.06319 17.8564 15.5779 -1.32966 9.1759 41.4888
1197289 4.04348 4.16593 17.7481 15.6059 -1.21484 9.07455 41.5635
1197296 4.04348 4.16593 17.7481 15.6059 -1.21484 9.07455 41.5635
1197313 4.1913 4.2967 17.3741 15.3814 -1.14398 8.82593 41.2435
1197320 4.33913 4.47418 17.0984 15.1381 -1.1116 8.55908 41.0499
1197329 4.33913 4.47418 17.0984 15.1381 -1.1116 8.55908 41.0499
1197337 4.6 4.73571 16.7698 14.9978 -0.995256 8.18617 41.1034
1197346 4.86087 5.11868 16.592 14.82 -0.914529 7.76697 41.3916
1197360 4.86087 5.11868 16.592 14.82 -0.914529 7.76697 41.3916
1197366 5.01739 5.38022 16.456 14.6236 -0.885798 7.47952 41.4772
1197378 5.01739 5.38022 16.456 14.6236 -0.885798 7.47952 41.4772
1197387 5.14783 5.49231 16.2782 14.4551 -0.893407 7.28481 41.3734
1197397 5.33043 5.81923 16.048 14.2774 -0.772646 6.93515 41.475
1197409 5.33043 5.81923 16.048 14.2774 -0.772646 6.93515 41.475
1197416 5.52174 6.02473 15.8911 14.0809 -0.787112 6.65687 41.5184
1197435 5.52174 6.02473 15.8911 14.0809 -0.787112 6.65687 41.5184
1197436 5.57391 6.13681 15.7655 13.978 -0.738557 6.52507 41.4543
1197447 5.58261 6.04341 15.776 13.9406 -0.831251 6.56365 41.3426
1197468 5.51304 5.96868 16.0271 13.9967 -0.948514 6.70106 41.5055
1197485 5.44348 5.81923 16.1317 14.2025 -0.933605 6.87726 41.5969
1197488 5.44348 5.81923 16.1317 14.2025 -0.933605 6.87726 41.5969
1197498 5.27826 5.64176 16.3618 14.2774 -1.03525 7.11726 41.5592
1197509 5.27826 5.64176 16.3618 14.2774 -1.03525 7.11726 41.5592
1197518 5.14783 5.52033 16.4978 14.4084 -1.03247 7.30188 41.5744
1197535 5.07826 5.33352 16.6234 14.4458 -1.15857 7.46996 41.4809
1197538 5.07826 5.33352 16.6234 14.4458 -1.15857 7.46996 41.4809
1197548 4.96522 5.23077 16.6862 14.5019 -1.15907 7.60876 41.3841
1197560 4.88696 5.23077 16.8326 14.5674 -1.15697 7.68911 41.5178
1197568 4.88696 5.23077 16.8326 14.5674 -1.15697 7.68911 41.5178
1197585 4.83478 5.17473 16.9895 14.53 -1.27598 7.76927 41.529
1197598 4.72174 5.08132 17.0295 14.6048 -1.24592 7.90275 41.4374
1197610 4.67826 4.98791 17.2559 14.8013 -1.28522 8.04983 41.7234
1197620 4.67826 4.98791 17.2559 14.8013 -1.28522 8.04983 41.7234
1197635 4.6 4.81978 17.4627 14.8949 -1.40506 8.23572 41.7773
1197638 4.43478 4.63297 17.6694 15.1288 -1.39875 8.50229 41.8659
1197661 4.34783 4.56758 17.6595 15.1662 -1.3617 8.59236 41.7411
1197669 4.34783 4.56758 17.6595 15.1662 -1.3617 8.59236 41.7411
1197679 4.26087 4.49286 17.6398 15.1569 -1.35438 8.67968 41.5504
1197689 4.27826 4.46484 17.6005 15.1007 -1.39535 8.67119 41.4443
1197699 4.27826 4.46484 17.6005 15.1007 -1.39535 8.67119 41.4443
1197712 4.24348 4.49286 17.6595 15.0914 -1.39729 8.68263 41.4872
1197719 4.29565 4.45549 17.5611 14.9884 -1.46051 8.64334 41.3007
1197729 4.29565 4.45549 17.5611 14.9884 -1.46051 8.64334 41.3007
1197739 4.4087 4.5956 17.5414 14.951 -1.44799 8.49035 41.4967
1197749 4.4087 4.5956 17.5414 14.951 -1.44799 8.49035 41.4967
1197763 4.42609 4.63297 17.4528 14.8575 -1.44338 8.4306 41.3693
1197769 4.53913 4.7544 17.4134 14.7826 -1.45552 8.2801 41.4896
1197779 4.53913 4.7544 17.4134 14.7826 -1.45552 8.2801 41.4896
1197789 4.57391 4.81978 17.3937 14.82 -1.39869 8.22692 41.6075
1197799 4.57391 4.81978 17.3839 14.8107 -1.39905 8.22379 41.5883
1197812 4.57391 4.8478 17.3839 14.8107 -1.38127 8.20815 41.6163
1197819 4.61739 4.82912 17.3937 14.8481 -1.39962 8.20205 41.6884
1197839 4.63478 4.86648 17.2264 14.7545 -1.35007 8.12867 41.4822
1197849 4.66087 4.95989 17.2362 14.689 -1.35282 8.05294 41.5461
1197862 4.66087 4.95989 17.2362 14.689 -1.35282 8.05294 41.5461
1197869 4.77391 5.01593 17.1378 14.5674 -1.4028 7.92216 41.4951
1197886 4.77391 5.01593 17.1378 14.5674 -1.4028 7.92216 41.4951
1197889 4.74783 5.04396 17.0787 14.5674 -1.33646 7.911 41.438
1197899 4.7913 5.08132 17.0689 14.5581 -1.33786 7.86309 41.4996
1197911 4.7913 5.08132 17.0689 14.5581 -1.33786 7.86309 41.4996
1197919 4.75652 5.11868 17.0492 14.5581 -1.28307 7.85828 41.4825
1197935 4.73913 5.15604 17.0098 14.5581 -1.22691 7.84049 41.4631
1197949 4.82609 5.21209 16.9895 14.5394 -1.24148 7.7552 41.5671
1197960 4.82609 5.21209 16.9895 14.5394 -1.24148 7.7552 41.5671
1197984 4.8087 5.1467 16.9686 14.5019 -1.28463 7.79046 41.4259
1197985 4.76522 5.24011 16.9163 14.53 -1.1528 7.75879 41.4516
1197990 4.76522 5.24011 16.9163 14.53 -1.1528 7.75879 41.4516
1198007 4.78261 5.22143 16.9058 14.5955 -1.12729 7.7691 41.5054
1198010 4.76522 5.21209 16.8954 14.5768 -1.12893 7.7787 41.4495
1198020 4.76522 5.21209 16.8954 14.5768 -1.12893 7.7787 41.4495
1198035 4.8 5.25879 16.8745 14.6236 -1.07811 7.73852 41.5568
1198040 4.8 5.25879 16.8745 14.6236 -1.07811 7.73852 41.5568
1198058 4.74783 5.25879 16.8326 14.661 -1.0004 7.76634 41.5002
1198060 4.81739 5.32418 16.8012 14.5955 -1.02253 7.6755 41.5383
1198070 4.81739 5.32418 16.8012 14.5955 -1.02253 7.6755 41.5383
1198083 4.76522 5.30549 16.7908 14.6048 -0.99216 7.71406 41.4663
1198090 4.77391 5.30549 16.8954 14.5955 -1.06345 7.726 41.5703
1198107 4.77391 5.30549 16.8954 14.5955 -1.06345 7.726 41.5703
1198110 4.70435 5.37088 16.8849 14.6516 -0.941302 7.73627 41.6118
1198120 4.70435 5.37088 16.8849 14.6516 -0.941302 7.73627 41.6118
1198133 4.57391 5.28681 16.8431 14.5955 -0.929005 7.83712 41.2993
1198140 4.65217 5.31484 16.8326 14.5394 -0.986117 7.76687 41.339
1198158 4.65217 5.31484 16.8326 14.5394 -0.986117 7.76687 41.339
1198160 4.68696 5.42692 16.8117 14.4926 -0.953181 7.67431 41.4181
1198172 4.63478 5.47363 16.8326 14.4458 -0.935072 7.67273 41.3868
1198183 4.63478 5.47363 16.8326 14.4458 -0.935072 7.67273 41.3868
1198192 4.73043 5.58571 16.8431 14.3803 -0.967453 7.54964 41.5395
1198207 4.73043 5.58571 16.8431 14.3803 -0.967453 7.54964 41.5395
1198212 4.72174 5.55769 16.8117 14.3335 -0.991093 7.55557 41.4246
1198222 4.73913 5.6511 16.7908 14.2961 -0.953966 7.48484 41.4771
1198231 4.73913 5.6511 16.7908 14.2961 -0.953966 7.48484 41.4771
1198242 4.8087 5.70714 16.7175 14.2025 -0.975336 7.38643 41.4359
1198256 4.86087 5.85659 16.7175 14.109 -0.970563 7.26064 41.544
1198271 4.97391 6.01538 16.4769 13.9593 -0.890863 7.04164 41.4255
1198283 4.97391 6.01538 16.4769 13.9593 -0.890863 7.04164 41.4255
1198291 5.05217 6.11813 16.3305 13.6879 -0.956908 6.86406 41.1887
1198307 5.16522 6.37967 16.1631 13.4447 -0.91363 6.58386 41.1527
1198313 5.16522 6.37967 16.1631 13.4447 -0.91363 6.58386 41.1527
1198322 5.30435 6.56648 16.0585 13.2763 -0.922236 6.35736 41.2056
1198333 5.43478 6.76264 15.9852 13.0611 -0.967593 6.1278 41.2437
1198343 5.43478 6.76264 15.9852 13.0611 -0.967593 6.1278 41.2437
1198356 5.52174 6.92143 15.776 12.9488 -0.866872 5.93239 41.168
1198362 5.52174 6.92143 15.776 12.9488 -0.866872 5.93239 41.168
1198372 5.62609 7.08022 15.5563 12.7523 -0.822769 5.70609 41.015
1198381 5.87826 7.3044 15.2948 12.6026 -0.770444 5.37295 41.0801
1198392 5.87826 7.3044 15.2948 12.6026 -0.770444 5.37295 41.0801
1198406 6.2 7.62198 14.9809 12.2565 -0.793046 4.90098 41.0594
1198423 6.47826 8.03297 14.5938 11.8167 -0.746797 4.36174 40.9218
1198433 6.75652 8.37857 14.3009 11.5267 -0.703189 3.91546 40.9627
1198456 6.90435 8.59341 13.9871 11.2086 -0.669295 3.57474 40.6934
1198463 7.10435 8.78022 13.8302 11.0215 -0.695215 3.30187 40.7362
1198484 7.25217 8.99506 13.6837 10.8905 -0.643247 3.05977 40.8214
1198494 7.4087 9.12582 13.4535 10.8437 -0.546579 2.85172 40.8318
1198514 7.54783 9.29396 13.3071 10.6472 -0.559933 2.61515 40.7961
1198535 7.63478 9.3967 13.1815 10.4695 -0.58389 2.44067 40.6825
1198544 7.82609 9.48077 12.9828 10.4227 -0.555982 2.24696 40.7123
1198556 7.82609 9.48077 12.9828 10.4227 -0.555982 2.24696 40.7123
1198564 7.97391 9.77967 12.8782 10.1981 -0.535311 1.95544 40.8299
1198582 8.22609 10.0319 12.5434 9.94551 -0.485981 1.55752 40.7469
1198584 8.22609 10.0319 12.5434 9.94551 -0.485981 1.55752 40.7469
1198606 8.48696 10.3027 12.0517 9.5432 -0.428812 1.04193 40.3846
1198610 8.48696 10.3027 12.0517 9.5432 -0.428812 1.04193 40.3846
1198615 8.68696 10.5736 11.5705 9.20638 -0.298099 0.568067 40.0374
1198632 8.93913 10.8632 11.2775 8.96313 -0.243711 0.164203 40.043
1198635 8.93913 10.8632 11.2775 8.96313 -0.243711 0.164203 40.043
1198645 9.06956 11.022 10.9951 8.90699 -0.0848114 -0.071066 39.9936
1198656 9.1913 11.1808 10.9742 8.86957 -0.0715658 -0.19707 40.2158
1198666 9.1913 11.1808 10.9742 8.86957 -0.0715658 -0.19707 40.2158
1198682 9.27826 11.4236 10.8382 8.72922 0.0226229 -0.422595 40.2693
1198695 9.45217 11.5918 10.7231 8.67309 0.0553846 -0.611189 40.4401
1198707 9.73913 11.9841 10.4092 8.46725 0.186554 -1.05175 40.5997
1198715 9.73913 11.9841 10.4092 8.46725 0.186554 -1.05175 40.5997
1198725 10.0261 12.4604 10.0222 8.17722 0.362173 -1.58058 40.6859
1198735 10.313 12.75 9.48862 7.6907 0.396994 -2.19311 40.2424
1198745 10.313 12.75 9.48862 7.6907 0.396994 -2.19311 40.2424
1198757 10.5826 12.9648 9.07015 7.3071 0.387713 -2.69389 39.9247
1198767 10.5826 12.9648 9.07015 7.3071 0.387713 -2.69389 39.9247
1198783 10.887 13.3665 8.59938 6.91414 0.499341 -3.29667 39.767
1198785 11.1826 13.6654 8.13908 6.60539 0.599292 -3.82782 39.5925
1198808 11.3913 13.9176 7.84615 6.35278 0.65361 -4.21813 39.5078
1198817 11.5304 14.0951 7.58462 6.25922 0.784928 -4.47752 39.4693
1198832 11.5304 14.0951 7.58462 6.25922 0.784928 -4.47752 39.4693
1198837 11.687 14.2912 7.45908 6.23115 0.867397 -4.6465 39.6684
1198847 11.687 14.2912 7.45908 6.23115 0.867397 -4.6465 39.6684
1198857 11.8609 14.4033 7.344 6.18437 0.868756 -4.80082 39.7925
1198868 11.9739 14.5527 7.24985 6.13759 0.918585 -4.93781 39.9141
1198882 11.9739 14.5527 7.24985 6.13759 0.918585 -4.93781 39.9141
1198887 12.1304 14.7863 7.18708 5.90369 0.857615 -5.18376 40.0075
1198896 12.2783 15.0011 7.16615 5.71657 0.792569 -5.37695 40.1621
1198907 12.2783 15.0011 7.16615 5.71657 0.792569 -5.37695 40.1621
1198917 12.4522 15.1412 6.90462 5.61365 0.87136 -5.63743 40.1116
1198932 12.4522 15.1412 6.90462 5.61365 0.87136 -5.63743 40.1116
1198936 12.5739 15.2626 6.65354 5.47331 0.94367 -5.89654 39.9634
1198946 12.6435 15.3934 6.38154 5.34232 1.07563 -6.15419 39.7607
1198957 12.6435 15.3934 6.38154 5.34232 1.07563 -6.15419 39.7607
1198967 12.7478 15.4308 6.24554 5.24876 1.06255 -6.3082 39.6729
1198981 12.7913 15.4308 6.08862 5.24876 1.13728 -6.40227 39.5594
1198988 12.7913 15.4775 6.08862 5.071 1.05796 -6.50895 39.4284
1198998 12.8261 15.5055 5.96308 5.05228 1.12373 -6.60136 39.3469
1199008 12.8261 15.5055 5.96308 5.05228 1.12373 -6.60136 39.3469
1199018 12.7913 15.5242 5.90031 4.94001 1.13175 -6.69447 39.1558
1199031 12.8957 15.6363 5.90031 4.94001 1.13044 -6.74013 39.3722
1199038 12.8957 15.6363 5.90031 4.94001 1.13044 -6.74013 39.3722
1199054 12.9391 15.8137 5.88985 4.93066 1.21004 -6.79713 39.5734
1199058 12.9391 15.8137 5.88985 4.93066 1.21004 -6.79713 39.5734
1199067 13.0261 15.7577 5.85846 4.81838 1.07165 -6.88291 39.4606
1199079 13.1043 15.8044 5.88985 4.89323 1.07291 -6.8499 39.6918
1199088 13.1043 15.8044 5.88985 4.89323 1.07291 -6.8499 39.6918
1199104 13.1739 15.8511 5.82708 4.88387 1.09094 -6.91341 39.736
1199108 13.1913 15.9071 5.64923 4.82774 1.19667 -7.05797 39.5754
1199129 13.2348 16.0099 5.59692 4.80903 1.25295 -7.12677 39.6506
1199139 13.287 16.0099 5.62831 4.67804 1.11902 -7.19279 39.6032
1199154 13.287 16.0566 5.62831 4.67804 1.14715 -7.20199 39.6499
1199159 13.4174 16.206 5.44 4.60319 1.23015 -7.4043 39.6666
1199179 13.3913 16.2808 5.37723 4.51899 1.28337 -7.49686 39.5683
1199189 13.5043 16.3648 5.18892 4.42543 1.32776 -7.69492 39.4835
1199209 13.6957 16.5049 5.06338 4.34122 1.31746 -7.87623 39.6052
1199219 13.6957 16.5049 5.06338 4.34122 1.31746 -7.87623 39.6052
1199230 13.713 16.5516 4.896 4.26637 1.40068 -8.02836 39.4271
1199256 13.6261 16.4115 4.91692 4.16346 1.29863 -8.03616 39.118
1199259 13.5043 16.3368 4.82277 4.19152 1.41629 -8.04013 38.8555
1199269 13.4348 16.2434 4.93785 4.24766 1.36274 -7.90944 38.8637
1199282 13.4348 16.2434 4.93785 4.24766 1.36274 -7.90944 38.8637
1199289 13.3652 16.3275 4.99015 4.46285 1.55506 -7.75552 39.1457
1199306 13.3652 16.3275 4.99015 4.46285 1.55506 -7.75552 39.1457
1199309 13.4087 16.4676 5.04246 4.49092 1.59056 -7.74286 39.4097
1199319 13.4087 16.5423 5.09477 4.49092 1.59963 -7.72649 39.5367
1199330 13.4087 16.5423 5.09477 4.49092 1.59963 -7.72649 39.5367
1199339 13.3652 16.617 5.14708 4.55641 1.67639 -7.66475 39.6857
1199357 13.3652 16.617 5.19938 4.64062 1.69067 -7.58706 39.8223
