2349680 8.05217 9.87308 26.6468 25.8556 0.365517 7.36439 70.4276
2349689 8.03478 9.81703 26.7452 25.9335 0.344017 7.40678 70.5306
2349699 7.95652 9.68626 26.8535 25.9433 0.290853 7.48599 70.4396
2349710 7.95652 9.68626 26.8535 25.9433 0.290853 7.48599 70.4396
2349719 7.92174 9.59286 27.0307 26.0017 0.227559 7.55194 70.547
2349729 7.92174 9.59286 27.0307 26.0017 0.227559 7.55194 70.547
2349739 7.90435 9.53681 27.0701 26.0115 0.203434 7.58062 70.5227
2349749 7.86957 9.52747 27.1488 26.0212 0.187871 7.60404 70.5671
2349769 7.95652 9.59286 27.1094 26.0115 0.190446 7.55017 70.6703
2349789 7.94783 9.52747 27.0504 25.992 0.184792 7.56556 70.5177
2349799 7.92174 9.58352 26.9716 26.0115 0.24884 7.54972 70.4883
2349810 7.92174 9.58352 26.9716 26.0115 0.24884 7.54972 70.4883
2349820 7.93913 9.68626 26.9519 26.0017 0.282276 7.50823 70.5791
2349830 7.98261 9.74231 26.8535 25.9725 0.311363 7.46292 70.5509
2349840 7.98261 9.74231 26.8535 25.9725 0.311363 7.46292 70.5509
2349850 8.01739 9.83571 26.7255 25.8848 0.346845 7.399 70.4635
2349860 8.01739 9.83571 26.7255 25.8848 0.346845 7.399 70.4635
2349871 8.0087 9.88242 26.6763 25.9335 0.401032 7.38686 70.501
2349880 8 9.95714 26.5976 25.914 0.451836 7.35528 70.4688
2349890 8 9.95714 26.5976 25.914 0.451836 7.35528 70.4688
2349900 8.01739 9.91044 26.5582 25.9433 0.45369 7.36348 70.4293
2349910 7.9913 9.97582 26.509 26.1089 0.561178 7.36362 70.585
2349920 7.9913 9.97582 26.509 26.1089 0.561178 7.36362 70.585
2349930 7.9913 10.1066 26.4302 26.1771 0.65842 7.32112 70.7052
2349940 7.9913 10.1066 26.4302 26.1771 0.65842 7.32112 70.7052
2349950 7.9913 10.1159 26.3613 26.1576 0.679955 7.30855 70.6262
2349969 8.0087 10.144 26.3515 26.1576 0.686854 7.29315 70.6617
2349973 8.0087 10.144 26.3515 26.1576 0.686854 7.29315 70.6617
2349981 7.87826 10.2 26.2629 26.1479 0.782645 7.30592 70.489
2349992 7.91304 10.1533 26.253 26.1284 0.750762 7.30649 70.4477
2350001 7.91304 10.1533 26.253 26.1284 0.750762 7.30649 70.4477
2350013 7.86957 10.144 26.2629 26.1186 0.75649 7.32324 70.395
2350032 7.76522 10.1066 26.2334 26.1381 0.799412 7.36718 70.2433
2350041 7.73043 10.0692 26.3121 26.255 0.810647 7.41133 70.3668
2350062 7.72174 10.0879 26.3219 26.333 0.843394 7.41761 70.4646
2350074 7.69565 10.1253 26.4696 26.3524 0.818363 7.43198 70.643
2350082 7.69565 10.1253 26.4696 26.3524 0.818363 7.43198 70.643
2350094 7.76522 10.0692 26.3515 26.333 0.810242 7.4129 70.5189
2350114 7.72174 10.0599 26.4302 26.3817 0.810835 7.44337 70.5935
2350124 7.71304 10.0412 26.4401 26.3817 0.804013 7.45313 70.576
2350134 7.71304 10.0412 26.4401 26.3817 0.804013 7.45313 70.576
2350145 7.61739 9.96648 26.4893 26.3232 0.775257 7.50649 70.3964
2350155 7.65217 9.98516 26.4893 26.3622 0.782353 7.49356 70.4888
2350167 7.65217 9.98516 26.4893 26.3622 0.782353 7.49356 70.4888
2350176 7.6 9.87308 26.5976 26.4499 0.753453 7.56681 70.5205
2350185 7.54783 9.91044 26.568 26.5375 0.82624 7.57767 70.5638
2350195 7.54783 9.91044 26.568 26.5375 0.82624 7.57767 70.5638
2350207 7.54783 9.84505 26.696 26.5083 0.747031 7.60896 70.5972
2350215 7.57391 9.72363 26.6665 26.596 0.73669 7.64561 70.56
2350225 7.57391 9.72363 26.6665 26.596 0.73669 7.64561 70.56
2350236 7.51304 9.74231 26.696 26.5765 0.747845 7.6602 70.5279
2350246 7.51304 9.74231 26.696 26.5765 0.747845 7.6602 70.5279
2350255 7.53913 9.75165 26.6862 26.557 0.738433 7.64576 70.534
2350266 7.61739 9.74231 26.6468 26.4596 0.687468 7.60934 70.4661
2350287 7.58261 9.74231 26.7058 26.3524 0.641587 7.61546 70.3832
2350296 7.54783 9.72363 26.7255 26.3622 0.643998 7.63574 70.3592
2350307 7.54783 9.72363 26.7255 26.3622 0.643998 7.63574 70.3592
2350316 7.57391 9.72363 26.7748 26.3427 0.609833 7.63046 70.415
2350327 7.57391 9.72363 26.7748 26.3427 0.609833 7.63046 70.415
2350336 7.6 9.6956 26.8535 26.3622 0.568801 7.64135 70.5113
2350347 7.61739 9.77967 26.8338 26.4011 0.61219 7.61083 70.632
2350356 7.61739 9.77967 26.8338 26.4011 0.61219 7.61083 70.632
2350366 7.64348 9.77033 26.7846 26.333 0.593778 7.59316 70.5314
2350376 7.64348 9.77033 26.7846 26.333 0.593778 7.59316 70.5314
2350388 7.56522 9.72363 26.8338 26.294 0.574642 7.63434 70.4166
2350396 7.67826 9.78901 26.7944 26.2453 0.553697 7.56785 70.507
2350406 7.67826 9.78901 26.7944 26.2453 0.553697 7.56785 70.507
2350416 7.68696 9.76099 26.8437 26.2453 0.523007 7.57922 70.5369
2350427 7.70435 9.74231 26.8338 26.1771 0.49009 7.57142 70.4576
2350438 7.70435 9.74231 26.8338 26.1771 0.49009 7.57142 70.4576
2350448 7.8 9.78901 26.8732 26.0699 0.420281 7.51872 70.5321
2350457 7.76522 9.74231 26.8437 26.0699 0.427195 7.54164 70.4211
2350468 7.76522 9.74231 26.8437 26.0699 0.427195 7.54164 70.4211
2350477 7.8 9.73297 26.8732 25.953 0.35986 7.52423 70.3592
2350497 7.8087 9.76099 26.8535 25.8653 0.342917 7.50105 70.2885
2350507 7.93913 9.77967 26.8437 25.7192 0.254714 7.43666 70.2817
2350527 8.17391 9.92912 26.7944 25.5438 0.179088 7.29016 70.4413
2350537 8.29565 10.0132 26.6566 25.3393 0.142294 7.18737 70.3047
2350549 8.29565 10.0132 26.6566 25.3393 0.142294 7.18737 70.3047
2350559 8.50435 10.144 26.5483 25.0762 0.0595808 7.0389 70.2729
2350579 8.76522 10.3588 26.2137 24.7255 0.0376135 6.81139 70.0632
2350588 8.93044 10.583 26.1054 24.4917 0.0138491 6.65029 70.1105
2350615 9.08696 10.7137 25.9085 24.3066 0.00887811 6.5159 70.0158
2350620 9.45217 10.9659 25.564 23.7513 -0.107171 6.21592 69.7334
2350640 9.96522 11.4703 25.062 23.2155 -0.122422 5.77551 69.713
2350650 9.96522 11.4703 25.062 23.2155 -0.122422 5.77551 69.713
2350660 10.5391 11.9654 24.432 22.4556 -0.198194 5.27071 69.3921
2350671 11.1913 12.4511 23.9398 21.7931 -0.31959 4.7763 69.3753
2350691 11.8 12.9275 23.4279 21.1404 -0.418508 4.29482 69.2958
2350704 12.3652 13.3852 22.9653 20.5948 -0.487107 3.85434 69.3105
2350713 12.3652 13.3852 22.9653 20.5948 -0.487107 3.85434 69.3105
2350722 12.887 13.8802 22.4731 19.9713 -0.544873 3.39768 69.2116
2350732 13.3652 14.2819 22.099 19.4258 -0.63486 3.0094 69.1719
2350742 13.3652 14.2819 22.099 19.4258 -0.63486 3.0094 69.1719
2350752 13.8348 14.5995 21.6462 18.851 -0.736432 2.625 68.9314
2350762 13.8348 14.5995 21.6462 18.851 -0.736432 2.625 68.9314
2350772 14.3217 14.9731 21.1737 18.3249 -0.798568 2.22488 68.7935
2350782 14.8348 15.4681 20.78 17.7599 -0.866731 1.79473 68.8428
2350802 15.3739 15.8418 20.3665 17.2046 -0.979151 1.3859 68.7868
2350815 15.7391 16.3368 19.9236 16.7755 -0.927092 1.0083 68.775
2350834 16.3478 16.8225 19.4215 16.317 -0.954096 0.55904 68.9089
2350844 16.3478 16.8225 19.4215 16.317 -0.954096 0.55904 68.9089
2350856 16.9217 17.3793 18.7915 15.5779 -1.00339 0.0149381 68.6705
2350864 17.5481 17.9628 18.2009 14.9604 -1.02873 -0.513217 68.6722
2350874 17.5481 17.9628 18.2009 14.9604 -1.02873 -0.513217 68.6722
2350884 18.146 18.3518 17.6103 14.4084 -1.09319 -0.980591 68.5165
2350894 18.6043 18.8089 17.0787 13.9406 -1.07171 -1.40152 68.4326
2350904 18.6043 18.8089 17.0787 13.9406 -1.07171 -1.40152 68.4326
2350914 19.0826 19.2077 16.7071 13.5195 -1.11743 -1.76534 68.5169
2350925 19.0826 19.2077 16.7071 13.5195 -1.11743 -1.76534 68.5169
2350934 19.4215 19.48 16.3723 13.2014 -1.13631 -2.0433 68.4752
2350945 19.8898 19.9176 16.0898 12.9114 -1.14471 -2.3557 68.8087
2350965 20.3581 20.3358 15.6714 12.5652 -1.13466 -2.71085 68.9306
2350975 20.8165 20.7929 15.1483 12.2003 -1.07732 -3.10206 68.9581
2350985 20.8165 20.7929 15.1483 12.2003 -1.07732 -3.10206 68.9581
2350995 21.1952 21.3667 14.6566 11.8354 -0.959271 -3.49071 69.054
2351015 21.3646 21.6196 14.2486 11.4238 -0.935774 -3.78226 68.6566
2351026 21.544 21.8433 13.872 11.2554 -0.845566 -3.99766 68.5146
2351036 21.544 21.8433 13.872 11.2554 -0.845566 -3.99766 68.5146
2351046 21.6835 22.349 13.5163 11.0495 -0.656459 -4.25665 68.5983
2351056 21.8728 22.7672 13.2234 10.9092 -0.516133 -4.47287 68.7725
2351066 21.8728 22.7672 13.2234 10.9092 -0.516133 -4.47287 68.7725
2351076 22.0322 23.1173 12.9932 10.6379 -0.46173 -4.69284 68.7806
2351096 22.1618 23.4674 12.6898 10.4507 -0.339352 -4.90519 68.7698
2351106 22.4009 23.837 12.4806 10.1981 -0.307062 -5.12775 68.9166
2351126 22.6301 24.0315 12.2714 9.96423 -0.328687 -5.31792 68.8972
2351136 22.8494 24.3621 11.8634 9.76775 -0.211665 -5.57366 68.8426
2351146 22.8494 24.3621 11.8634 9.76775 -0.211665 -5.57366 68.8426
2351156 23.0885 24.6539 11.5705 9.55256 -0.164275 -5.79813 68.8654
2351166 23.0885 24.6539 11.5705 9.55256 -0.164275 -5.79813 68.8654
2351176 23.2878 25.0235 11.2462 9.2251 -0.103736 -6.07131 68.7825
2351186 23.5668 25.4222 10.8905 8.93506 -0.0363395 -6.35698 68.8145
2351196 23.5668 25.4222 10.8905 8.93506 -0.0363395 -6.35698 68.8145
2351206 23.786 25.7626 10.5662 8.67309 0.0303358 -6.60932 68.7879
2351216 23.9056 26.0252 10.2209 8.40176 0.109541 -6.85044 68.5535
2351240 24.095 26.2294 10.0431 8.21464 0.11155 -7.01349 68.5821
2351249 24.095 26.2294 10.0431 8.21464 0.11155 -7.01349 68.5821
2351256 24.2843 26.5601 9.82338 7.95267 0.147575 -7.22853 68.6204
2351266 24.5334 26.8032 9.57231 7.80297 0.182083 -7.41386 68.7119
2351286 24.7128 27.0074 9.36308 7.60649 0.195837 -7.5886 68.6898
2351296 24.8224 27.0561 9.248 7.60649 0.215387 -7.64349 68.7329
2351306 24.8224 27.0561 9.248 7.60649 0.215387 -7.64349 68.7329
2351317 24.8623 27.1922 9.31077 7.53165 0.199881 -7.66625 68.8969
2351330 24.8623 27.1922 9.31077 7.53165 0.199881 -7.66625 68.8969
2351337 24.8722 27.1825 9.27938 7.47551 0.183991 -7.69511 68.8096
2351348 24.8324 27.1144 9.30031 7.55971 0.196734 -7.64897 68.8068
2351357 24.8324 27.1144 9.30031 7.55971 0.196734 -7.64897 68.8068
2351369 24.8025 27.0463 9.37354 7.56907 0.15969 -7.61131 68.7914
2351379 24.7427 27.0172 9.33169 7.62521 0.206646 -7.59704 68.7167
2351389 24.7427 27.0172 9.33169 7.62521 0.206646 -7.59704 68.7167
2351399 24.6729 27.0366 9.32123 7.61585 0.239748 -7.59814 68.6466
2351419 24.5633 27.0366 9.384 7.75619 0.307497 -7.51957 68.7401
2351429 24.5135 27.095 9.32123 7.75619 0.36996 -7.54108 68.6859
2351440 24.5135 27.095 9.32123 7.75619 0.36996 -7.54108 68.6859
2351450 24.4537 27.095 9.41538 7.81233 0.37739 -7.48533 68.7764
2351460 24.2444 26.8907 9.45723 7.97138 0.42313 -7.37413 68.5638
2351470 24.2444 26.8907 9.45723 7.97138 0.42313 -7.37413 68.5638
2351480 24.1249 26.7838 9.66646 8.11172 0.401884 -7.23511 68.6868
2351490 24.1249 26.7838 9.66646 8.11172 0.401884 -7.23511 68.6868
2351500 23.9355 26.6281 9.78154 8.20528 0.407135 -7.12836 68.5505
2351510 23.8957 26.5406 9.99077 8.46725 0.406945 -6.96246 68.8943
2351520 23.8957 26.5406 9.99077 8.46725 0.406945 -6.96246 68.8943
2351531 23.8658 26.4531 10.1582 8.56081 0.358492 -6.86578 69.0378
2351541 23.8259 26.385 10.3674 8.79472 0.355482 -6.71345 69.373
2351550 23.8259 26.385 10.3674 8.79472 0.355482 -6.71345 69.373
2351560 23.8658 26.5114 10.5243 8.83214 0.341839 -6.67269 69.7337
2351570 23.8658 26.5114 10.5243 8.83214 0.341839 -6.67269 69.7337
2351580 23.8857 26.5503 10.3569 8.83214 0.409287 -6.73183 69.6251
2351591 23.9455 26.6768 10.2628 8.72922 0.430134 -6.81547 69.6143
2351611 24.1049 26.774 10.0431 8.53275 0.417098 -6.97644 69.4548
2351621 24.095 26.7935 9.88615 8.28949 0.39885 -7.10488 69.0641
2351631 24.095 26.7935 9.88615 8.28949 0.39885 -7.10488 69.0641
2351640 24.1448 26.8324 9.72923 8.13043 0.395426 -7.21652 68.8368
2351651 24.1448 26.8324 9.72923 8.13043 0.395426 -7.21652 68.8368
2351661 24.2843 26.7449 9.57231 7.97138 0.313401 -7.32479 68.5728
2351673 24.354 26.7351 9.50954 7.9246 0.290468 -7.36721 68.5233
2351681 24.354 26.7351 9.50954 7.9246 0.290468 -7.36721 68.5233
2351691 24.4238 26.7254 9.43631 7.91525 0.284865 -7.40086 68.5008
2351701 24.5334 26.8129 9.46769 7.95267 0.27793 -7.40023 68.7667
2351712 24.5334 26.8129 9.46769 7.95267 0.27793 -7.40023 68.7667
2351721 24.5733 26.8616 9.50954 8.00881 0.285539 -7.37816 68.9532
2351731 24.5733 26.8616 9.50954 8.00881 0.285539 -7.37816 68.9532
2351741 24.7028 26.9199 9.50954 7.95267 0.238919 -7.41707 69.0849
2351752 24.8025 26.881 9.56185 7.99945 0.186351 -7.39164 69.2448
2351772 25.0217 27.0366 9.44677 7.90589 0.170735 -7.50004 69.411
2351781 25.1413 27.095 9.27938 7.87782 0.198913 -7.58264 69.3934
2351792 25.1413 27.095 9.27938 7.87782 0.198913 -7.58264 69.3934
2351802 25.221 27.1241 9.20615 7.68134 0.136623 -7.68228 69.2326
2351822 25.1014 26.9491 9.10154 7.56907 0.11467 -7.72249 68.7211
2351832 24.9121 26.8032 8.92369 7.56907 0.196645 -7.74597 68.208
2351844 24.9121 26.8032 8.92369 7.56907 0.196645 -7.74597 68.208
2351855 24.8124 26.5892 8.90277 7.49422 0.135794 -7.74455 67.7987
2351864 24.7028 26.5212 9.02831 7.57843 0.135803 -7.65522 67.8307
2351873 24.7028 26.5212 9.02831 7.57843 0.135803 -7.65522 67.8307
2351890 24.5633 26.4336 9.22708 7.78426 0.157154 -7.49591 68.0083
2351895 24.4836 26.3461 9.43631 7.9246 0.128615 -7.36218 68.1906
2351905 24.4836 26.3461 9.43631 7.9246 0.128615 -7.36218 68.1906
2351915 24.3939 26.2878 9.80246 8.31756 0.148597 -7.09902 68.8017
2351927 24.3939 26.2878 9.80246 8.31756 0.148597 -7.09902 68.8017
2351935 24.3341 26.2197 10.0849 8.64502 0.16081 -6.8899 69.2837
2351947 24.1946 26.1322 10.3883 8.96313 0.18383 -6.66823 69.6782
2351954 24.1946 26.1322 10.3883 8.96313 0.18383 -6.66823 69.6782
2351967 24.1448 26.1322 10.6289 9.14089 0.178215 -6.53288 70.0467
2351975 24.0451 26.0154 10.7231 9.20638 0.162029 -6.45759 69.99
2351995 24.0053 25.8987 10.7545 9.26252 0.143564 -6.4116 69.921
2352005 24.0053 25.8987 10.7545 9.26252 0.143564 -6.4116 69.921
2352016 23.9355 25.9182 10.7022 9.13154 0.14782 -6.46172 69.6874
2352026 23.8558 25.8015 10.5034 9.00991 0.163439 -6.53688 69.1706
2352036 23.8558 25.8015 10.5034 9.00991 0.163439 -6.53688 69.1706
2352046 23.7562 25.6848 10.3778 8.90699 0.16652 -6.58183 68.7258
2352056 23.6465 25.6459 10.2942 8.8415 0.199729 -6.61061 68.4281
2352067 23.6465 25.6459 10.2942 8.8415 0.199729 -6.61061 68.4281
2352076 23.507 25.5195 10.3883 8.82278 0.163725 -6.55403 68.2376
2352097 23.4174 25.3541 10.3988 8.96313 0.183877 -6.47471 68.1334
2352107 23.2679 25.286 10.5243 9.12218 0.225818 -6.3579 68.2004
2352127 23.1981 25.2763 10.6812 9.28123 0.247744 -6.24925 68.4369
2352137 23.228 25.3055 10.8486 9.42157 0.236338 -6.16173 68.8037
2352147 23.228 25.3055 10.8486 9.42157 0.236338 -6.16173 68.8037
2352158 23.238 25.3347 11.0474 9.59934 0.234267 -6.05161 69.2194
2352169 23.238 25.3347 11.0474 9.59934 0.234267 -6.05161 69.2194
2352177 23.1084 25.2666 11.1625 9.77711 0.278726 -5.93716 69.3146
2352187 23.1583 25.2277 11.3089 9.88938 0.233486 -5.86073 69.5843
2352197 23.1583 25.2277 11.3089 9.88938 0.233486 -5.86073 69.5843
2352207 23.0885 25.0915 11.3508 9.90809 0.201741 -5.81544 69.4389
2352217 23.0088 24.9943 11.3717 9.97358 0.211748 -5.76606 69.3484
2352239 22.9789 24.8581 11.3298 9.96423 0.185734 -5.75926 69.1311
2352249 22.9789 24.8581 11.3298 9.96423 0.185734 -5.75926 69.1311
2352261 22.939 24.7317 11.3403 9.91745 0.134122 -5.74791 68.9285
2352268 22.8593 24.7803 11.3403 9.89873 0.17401 -5.74937 68.8787
2352277 22.8593 24.7803 11.3403 9.89873 0.17401 -5.74937 68.8787
2352289 22.8992 24.7998 11.3717 9.97358 0.18194 -5.72539 69.0442
2352299 22.8892 24.897 11.2671 9.89873 0.231853 -5.79107 68.952
2352309 22.8892 24.897 11.2671 9.89873 0.231853 -5.79107 68.952
2352319 22.9291 24.8678 11.3403 9.91745 0.186777 -5.76482 69.0547
2352329 22.9291 24.8678 11.3403 9.91745 0.186777 -5.76482 69.0547
2352339 22.8693 24.7998 11.2671 9.88002 0.197423 -5.78105 68.8162
2352349 22.8792 24.7122 11.3194 9.97358 0.176814 -5.72666 68.8845
2352359 22.8792 24.7122 11.3194 9.97358 0.176814 -5.72666 68.8845
2352371 22.8095 24.6733 11.3822 9.98294 0.16872 -5.69031 68.8479
2352379 22.67 24.615 11.4763 10.0578 0.191256 -5.61273 68.8191
2352389 22.67 24.615 11.4763 10.0578 0.191256 -5.61273 68.8191
2352400 22.7198 24.5177 11.5495 10.1513 0.144961 -5.55641 68.9384
2352420 22.6102 24.4691 11.6332 10.1794 0.147006 -5.50137 68.892
2352430 22.5205 24.3524 11.7378 10.2543 0.126445 -5.41947 68.865
2352441 22.5205 24.3524 11.7378 10.2543 0.126445 -5.41947 68.865
2352451 22.4308 24.226 11.7902 10.3198 0.118062 -5.35438 68.7667
2352461 22.5106 24.2162 11.9366 10.3946 0.0592589 -5.29893 69.058
2352471 22.5106 24.2162 11.9366 10.3946 0.0592589 -5.29893 69.058
2352482 22.4508 24.1579 11.9262 10.5256 0.110981 -5.24691 69.0604
2352491 22.2913 23.9731 12.0203 10.5537 0.0781327 -5.16219 68.8384
2352502 22.2913 23.9731 12.0203 10.5537 0.0781327 -5.16219 68.8384
2352530 22.1618 23.9245 12.2086 10.6846 0.0865251 -5.04345 68.9795
2352535 22.1618 23.9245 12.2086 10.6846 0.0865251 -5.04345 68.9795
2352536 22.0322 23.8661 12.24 10.8437 0.158593 -4.961 68.9821
2352543 21.9625 23.7592 12.3969 10.956 0.128743 -4.85752 69.0745
2352555 21.9625 23.7592 12.3969 10.956 0.128743 -4.85752 69.0745
2352562 21.813 23.6424 12.4492 11.0589 0.159177 -4.77368 68.9636
2352572 21.6934 23.4479 12.5538 11.2086 0.148481 -4.65409 68.9038
2352595 21.5739 23.3215 12.6794 11.3021 0.134447 -4.55461 68.8769
2352612 21.5141 23.2437 12.8677 11.3957 0.093326 -4.45393 69.0212
2352623 21.3148 23.1854 12.9828 11.5641 0.16363 -4.33471 69.047
2352632 21.3148 23.1854 12.9828 11.5641 0.16363 -4.33471 69.047
2352642 21.1753 22.9908 13.0978 11.6296 0.126043 -4.23232 68.8936
2352652 21.1254 22.8839 13.2443 11.798 0.113007 -4.12017 69.0516
2352675 20.976 22.6699 13.464 11.9384 0.0609368 -3.96321 69.0482
2352695 20.687 22.4268 13.6837 12.1255 0.0658602 -3.76607 68.9229
2352704 20.5674 22.135 13.9766 12.2939 -0.0417292 -3.57356 68.9729
2352724 20.3183 21.96 14.2382 12.5465 -0.018093 -3.3651 69.0629
2352735 20.0492 21.6098 14.6043 12.8272 -0.0783473 -3.0889 69.0906
2352745 20.0492 21.6098 14.6043 12.8272 -0.0783473 -3.0889 69.0906
2352755 19.7104 21.2208 14.9495 13.1079 -0.12005 -2.79912 68.9887
2352775 19.3617 20.7735 15.3889 13.4166 -0.203258 -2.46507 68.9407
2352786 19.0826 20.3358 15.912 13.7534 -0.327644 -2.11765 69.0839
2352795 19.0826 20.3358 15.912 13.7534 -0.327644 -2.11765 69.0839
2352806 18.5944 19.7231 16.5292 14.2493 -0.416513 -1.63662 69.096
2352816 18.136 19.2077 17.1575 14.8294 -0.453061 -1.15896 69.3306
2352826 18.136 19.2077 17.1575 14.8294 -0.453061 -1.15896 69.3306
2352836 17.6975 18.6533 17.8761 15.3627 -0.559573 -0.670809 69.5896
2352846 17.6975 18.6533 17.8761 15.3627 -0.559573 -0.670809 69.5896
2352856 17.0996 18.0795 18.5947 15.9802 -0.58585 -0.129951 69.754
2352866 16.6087 17.4474 19.2936 16.4854 -0.705048 0.370072 69.8351
2352886 16.0783 16.7758 19.9433 17.0682 -0.779177 0.892578 69.8655
2352897 15.4783 16.0192 20.6815 17.6819 -0.87982 1.47421 69.861
2352917 14.8261 15.2346 21.4789 18.2178 -1.02232 2.07203 69.7573
2352927 14.1652 15.2346 22.3746 18.9484 -0.833118 2.52886 70.7229
2352937 14.1652 14.394 22.3746 18.9484 -1.14388 2.73973 69.8822
2352948 13.513 13.7214 23.231 19.6499 -1.20259 3.34729 70.1154
2352958 13.513 13.7214 23.231 19.6499 -1.20259 3.34729 70.1154
2352967 12.8522 12.9368 24.0481 20.1857 -1.34876 3.95116 70.0227
2352977 12.1826 12.2269 24.8749 20.8871 -1.40495 4.56435 70.1716
2352987 12.1826 12.2269 24.8749 20.8871 -1.40495 4.56435 70.1716
2352999 11.6522 11.6104 25.6821 21.5788 -1.46938 5.10432 70.5235
2353007 11.113 11.6104 26.2235 22.2023 -1.23818 5.41868 71.1493
2353017 11.113 11.078 26.2235 22.2023 -1.436 5.57262 70.6169
2353027 10.713 10.6764 26.6271 22.6504 -1.41981 5.91962 70.6669
2353049 10.3739 10.3214 26.8732 23.0401 -1.37574 6.20702 70.6087
2353059 10.0783 10.0412 27.139 23.2739 -1.38309 6.44245 70.5324
2353069 10.0783 10.0412 27.139 23.2739 -1.38309 6.44245 70.5324
2353079 9.90435 9.84505 27.1783 23.5467 -1.30931 6.59295 70.4744
2353089 9.90435 9.84505 27.1783 23.5467 -1.30931 6.59295 70.4744
2353101 9.74783 9.77033 27.3162 23.7318 -1.26188 6.70218 70.5661
2353109 9.54783 9.6489 27.3949 23.9559 -1.18288 6.83668 70.5475
2353119 9.54783 9.6489 27.3949 23.9559 -1.18288 6.83668 70.5475
2353129 9.32174 9.47143 27.5032 24.1117 -1.15106 6.99247 70.4081
2353138 9.16522 9.31264 27.5918 24.3261 -1.10741 7.12543 70.3957
2353154 9.16522 9.31264 27.5918 24.3261 -1.10741 7.12543 70.3957
2353162 8.93913 9.24725 27.7197 24.5209 -1.02614 7.2531 70.427
2353171 8.71304 9.24725 27.9068 24.5209 -1.01283 7.34516 70.388
2353179 8.71304 9.04176 27.9068 24.8132 -0.980805 7.44206 70.4748
2353189 8.58261 8.94835 28.084 24.9983 -0.962971 7.55198 70.6132
2353199 8.58261 8.94835 28.084 24.9983 -0.962971 7.55198 70.6132
2353210 8.45217 8.80824 28.1627 25.0957 -0.961068 7.6571 70.5188
2353220 8.32174 8.80824 28.2316 25.1834 -0.907835 7.71529 70.545
2353230 8.32174 8.80824 28.2316 25.1834 -0.907835 7.71529 70.545
2353240 8.26087 8.73352 28.2218 25.3003 -0.868179 7.77003 70.5164
2353252 8.26087 8.73352 28.2218 25.3003 -0.868179 7.77003 70.5164
2353260 8.16522 8.68681 28.2218 25.4172 -0.809674 7.82801 70.491
2353272 8.11304 8.67747 28.2021 25.4951 -0.759895 7.85386 70.4877
2353280 8.11304 8.67747 28.2021 25.4951 -0.759895 7.85386 70.4877
2353290 8.09565 8.70549 28.143 25.5341 -0.70911 7.84837 70.4783
2353300 8.09565 8.78022 28.0052 25.5438 -0.630745 7.81112 70.4249
2353313 8.09565 8.78022 28.0052 25.5438 -0.630745 7.81112 70.4249
2353320 8.18261 8.93901 27.8576 25.4464 -0.587407 7.7065 70.4256
2353330 8.18261 8.93901 27.8576 25.4464 -0.587407 7.7065 70.4256
2353340 8.23478 9.07912 27.6115 25.4172 -0.479773 7.61589 70.3426
2353351 8.26957 9.22857 27.5819 25.4464 -0.417045 7.55678 70.5265
2353371 8.26087 9.29396 27.5426 25.349 -0.411829 7.52418 70.4464
2353380 8.30435 9.27527 27.4146 25.4269 -0.360946 7.51093 70.4212
2353392 8.30435 9.27527 27.4146 25.4269 -0.360946 7.51093 70.4212
2353401 8.34783 9.41538 27.3555 25.388 -0.319119 7.44191 70.5067
2353414 8.34783 9.41538 27.3063 25.388 -0.301878 7.43663 70.4575
2353421 8.33043 9.40604 27.3063 25.5049 -0.257215 7.45766 70.5477
2353434 8.33043 9.46209 27.1587 25.5049 -0.185272 7.42399 70.4561
2353441 8.33043 9.46209 27.1587 25.5049 -0.185272 7.42399 70.4561
2353452 8.25217 9.51813 27.1291 25.4756 -0.137663 7.42474 70.3751
2353462 8.25217 9.50879 27.0504 25.5828 -0.0749186 7.43078 70.3941
2353482 8.2087 9.47143 27.0898 25.6705 -0.0555545 7.47017 70.4404
2353492 8.13043 9.48077 27.1094 25.7679 0.00312328 7.50465 70.4885
2353514 8.13043 9.63956 27.0996 25.8653 0.0971437 7.46341 70.7349
2353534 8.06087 9.63022 27.0602 25.8848 0.139427 7.48638 70.6361
2353545 8.02609 9.66758 26.883 25.8653 0.221387 7.46458 70.442
2353556 8.02609 9.66758 26.883 25.8653 0.221387 7.46458 70.442
2353565 8 9.63022 26.7944 25.9238 0.269929 7.48162 70.3484
2353575 7.95652 9.71429 26.7551 26.0797 0.383782 7.4811 70.5055
2353585 7.95652 9.71429 26.7551 26.0797 0.383782 7.4811 70.5055
2353596 7.85217 9.67692 26.6173 26.1186 0.471824 7.51586 70.265
2353605 7.73913 9.67692 26.696 26.1186 0.484267 7.56049 70.2307
2353615 7.73913 9.63022 26.696 26.2453 0.512141 7.58888 70.3106
2353626 7.75652 9.6489 26.7255 26.3817 0.549018 7.59476 70.5126
2353635 7.75652 9.6489 26.7255 26.3817 0.549018 7.59476 70.5126
2353645 7.65217 9.67692 26.7748 26.4206 0.592214 7.62848 70.5245
2353655 7.71304 9.68626 26.7846 26.4499 0.57992 7.61006 70.6338
2353665 7.71304 9.68626 26.7846 26.4499 0.57992 7.61006 70.6338
2353675 7.67826 9.66758 26.824 26.4888 0.58527 7.63536 70.6586
2353685 7.67826 9.66758 26.824 26.4888 0.58527 7.63536 70.6586
2353695 7.5913 9.63022 26.883 26.5765 0.612748 7.69047 70.6811
2353705 7.62609 9.6022 26.9421 26.6057 0.579205 7.69742 70.7761
2353715 7.62609 9.6022 26.9421 26.6057 0.579205 7.69742 70.7761
2353727 7.55652 9.51813 26.883 26.635 0.606838 7.74373 70.5926
2353736 7.58261 9.53681 26.9126 26.6252 0.589767 7.73135 70.6572
2353745 7.58261 9.53681 26.9126 26.6252 0.589767 7.73135 70.6572
2353756 7.53043 9.52747 26.9126 26.6447 0.612181 7.75316 70.6152
2353765 7.53043 9.52747 26.9126 26.6447 0.612181 7.75316 70.6152
2353775 7.54783 9.63022 26.8338 26.5765 0.646383 7.69935 70.5884
2353795 7.6087 9.51813 26.9027 26.5375 0.547087 7.71892 70.5671
2353802 7.6087 9.51813 26.9027 26.5375 0.547087 7.71892 70.5671
2353811 7.62609 9.58352 26.9126 26.4109 0.515983 7.6802 70.5331
2353817 7.70435 9.57418 26.8535 26.3232 0.475314 7.64277 70.4552
2353837 7.70435 9.63022 26.883 26.3037 0.477359 7.62582 70.5213
2353848 7.73043 9.61154 26.9519 26.2648 0.423023 7.62657 70.5587
2353857 7.73043 9.61154 26.9519 26.2648 0.423023 7.62657 70.5587
2353867 7.73913 9.61154 26.9618 26.1771 0.385767 7.61564 70.4895
2353887 7.77391 9.57418 26.9323 26.1284 0.353783 7.60826 70.4087
2353898 7.78261 9.6022 26.9618 26.0991 0.339606 7.59651 70.4457
2353909 7.78261 9.6022 26.9618 26.0991 0.339606 7.59651 70.4457
2353919 7.83478 9.63022 27.011 26.0894 0.309584 7.57497 70.5654
2353929 7.87826 9.62088 27.0307 26.0797 0.280267 7.5651 70.6095
2353939 7.87826 9.62088 27.0307 26.0797 0.280267 7.5651 70.6095
2353949 7.86957 9.61154 26.9421 26.0504 0.301638 7.55845 70.4736
2353969 7.86957 9.63956 26.9421 25.9725 0.284135 7.54124 70.4237
2353979 7.92174 9.70494 26.9323 25.9238 0.274795 7.49744 70.4827
2353990 7.92174 9.70494 26.9323 25.9238 0.274795 7.49744 70.4827
2354000 7.93913 9.66758 26.9815 25.9238 0.23782 7.50906 70.512
2354010 7.93913 9.68626 26.9519 25.8556 0.230992 7.49269 70.4329
2354030 7.9913 9.70494 26.9421 25.8166 0.208703 7.46487 70.455
2354042 7.9913 9.70494 26.9421 25.8166 0.208703 7.46487 70.455
2354051 7.95652 9.73297 27.0504 25.8751 0.212821 7.48481 70.6149
2354061 7.96522 9.74231 27.139 25.8458 0.171152 7.48539 70.6923
2354081 7.98261 9.58352 27.1882 25.8848 0.105304 7.53978 70.6391
2354091 8 9.55549 27.2276 25.9822 0.109574 7.55758 70.7653
2354102 8 9.55549 27.2276 25.9822 0.109574 7.55758 70.7653
2354112 7.93913 9.56484 27.2177 25.8946 0.10711 7.56377 70.6162
2354122 7.91304 9.50879 27.2669 25.8946 0.0791132 7.5952 70.5833
2354132 7.91304 9.50879 27.2669 25.8946 0.0791132 7.5952 70.5833
2354143 7.86957 9.35934 27.3752 25.9433 0.0204921 7.67347 70.5474
2354152 7.86957 9.35934 27.3752 25.9433 0.0204921 7.67347 70.5474
2354162 7.75652 9.29396 27.4047 26.0504 0.0649303 7.74506 70.5057
2354175 7.71304 9.15385 27.5524 26.1284 0.0059396 7.82745 70.5477
2354182 7.71304 9.15385 27.5524 26.1284 0.0059396 7.82745 70.5477
2354192 7.6087 8.98571 27.6804 26.2355 -0.0240475 7.93958 70.5103
2354203 7.52174 8.83626 27.9166 26.3817 -0.0779927 8.05454 70.6563
2354212 7.52174 8.83626 27.9166 26.3817 -0.0779927 8.05454 70.6563
2354222 7.4 8.72418 28.143 26.5473 -0.0958726 8.16912 70.8145
2354242 7.31304 8.58407 28.1332 26.635 -0.0803769 8.25109 70.6652
2354252 7.33043 8.48132 28.1824 26.6934 -0.119577 8.28945 70.6876
2354274 7.27826 8.49066 28.1922 26.6447 -0.118667 8.29988 70.6059
2354284 7.34783 8.47198 28.2218 26.4986 -0.212309 8.272 70.5401
2354294 7.34783 8.47198 28.2218 26.4986 -0.212309 8.272 70.5401
2354304 7.35652 8.48132 28.1726 26.5181 -0.187762 8.26321 70.5284
2354314 7.35652 8.48132 28.1726 26.5181 -0.187762 8.26321 70.5284
2354324 7.41739 8.50934 28.0052 26.4109 -0.178547 8.20752 70.3428
2354335 7.66087 8.67747 27.8969 26.2063 -0.239214 8.04175 70.4416
2354354 7.93043 8.96703 27.6115 25.8069 -0.27305 7.79075 70.3158
2354365 8.22609 9.18187 27.3063 25.4756 -0.311613 7.55963 70.1899
2354374 8.22609 9.18187 27.3063 25.4756 -0.311613 7.55963 70.1899
2354384 8.69565 9.66758 26.8732 24.8911 -0.36011 7.14435 70.1275
2354394 8.69565 9.66758 26.8732 24.8911 -0.36011 7.14435 70.1275
2354404 9.21739 10.2 26.3121 24.2287 -0.393392 6.67328 69.9581
2354414 9.70435 10.7324 25.7609 23.6246 -0.396775 6.21909 69.8223
2354424 9.70435 10.7324 25.7609 23.6246 -0.396775 6.21909 69.8223
2354433 10.087 11.1527 25.3277 23.0888 -0.421038 5.85235 69.6563
2354450 10.3478 11.4236 25.0816 22.6797 -0.476821 5.60668 69.5328
2354455 10.3478 11.4236 25.0816 22.6797 -0.476821 5.60668 69.5328
2354466 10.513 11.6478 24.9537 22.514 -0.468513 5.45183 69.6286
2354475 10.513 11.6478 24.9537 22.514 -0.468513 5.45183 69.6286
2354485 10.6957 11.7973 24.8848 22.3387 -0.51799 5.32096 69.7164
2354495 10.8696 12.0588 24.7765 22.1731 -0.505954 5.15639 69.8779
2354505 10.8696 12.0588 24.7765 22.1731 -0.505954 5.15639 69.8779
2354515 11.0435 12.2456 24.6584 21.9198 -0.549781 5 69.8672
2354525 11.1739 12.3951 24.5009 21.7249 -0.556916 4.86931 69.7948
2354535 11.1739 12.3951 24.5009 21.7249 -0.556916 4.86931 69.7948
2354545 11.4435 12.5445 24.2252 21.4814 -0.589301 4.67439 69.6946
2354555 11.4435 12.5445 24.2252 21.4814 -0.589301 4.67439 69.6946
2354565 11.6 12.7407 23.9693 21.1501 -0.604129 4.48721 69.4601
2354576 11.8348 13.0115 23.7528 20.8871 -0.607635 4.27284 69.4862
2354586 11.8348 13.0115 23.7528 20.8871 -0.607635 4.27284 69.4862
2354596 12.0435 13.2264 23.487 20.5851 -0.619747 4.06728 69.3419
2354606 12.287 13.4505 23.2212 20.2928 -0.637087 3.85042 69.2515
2354616 12.287 13.4505 23.2212 20.2928 -0.637087 3.85042 69.2515
2354626 12.6696 13.8148 22.9653 20.0688 -0.629771 3.57091 69.5184
2354636 12.6696 13.8148 22.9653 20.0688 -0.629771 3.57091 69.5184
2354646 13.0087 14.1511 22.6109 19.6888 -0.640537 3.26951 69.4595
2354656 13.3217 14.478 22.3254 19.4258 -0.626646 3.0089 69.551
2354666 13.3217 14.478 22.3254 19.4258 -0.626646 3.0089 69.551
2354677 13.6696 14.861 21.9317 19.0361 -0.613017 2.68436 69.4983
2354687 14.0522 15.272 21.4986 18.4516 -0.659394 2.30085 69.2743
2354696 14.0522 15.272 21.4986 18.4516 -0.659394 2.30085 69.2743
2354707 14.487 15.6923 20.9079 17.9547 -0.632897 1.88655 69.0419
2354727 14.9043 16.0005 20.3567 17.3605 -0.692207 1.48908 68.622
2354737 15.2696 16.3742 19.8743 16.9626 -0.659734 1.13751 68.4807
2354759 15.6 16.8132 19.4314 16.5322 -0.616436 0.77886 68.3768
2354769 16.0261 17.1945 19.0967 16.1112 -0.663872 0.435625 68.4285
2354780 16.0261 17.1945 19.0967 16.1112 -0.663872 0.435625 68.4285
2354790 16.3826 17.6419 18.6833 15.8305 -0.581247 0.107081 68.5382
2354800 16.7913 18.1087 18.3486 15.4469 -0.576565 -0.24118 68.6955
2354820 17.289 18.5755 17.9647 15.1101 -0.568642 -0.607 68.9392
2354831 17.289 18.5755 17.9647 15.1101 -0.568642 -0.607 68.9392
2354841 17.7374 19.0034 17.4036 14.5861 -0.56431 -1.0369 68.7305
2354851 18.3353 19.5481 17.0394 14.1183 -0.618576 -1.46123 69.041
2354861 18.3353 19.5481 17.0394 14.1183 -0.618576 -1.46123 69.041
2354871 18.7837 19.8593 16.3932 13.585 -0.631234 -1.89403 68.6212
2354883 19.2421 20.2969 15.9852 13.1827 -0.635922 -2.26419 68.7069
2354891 19.2421 20.2969 15.9852 13.1827 -0.635922 -2.26419 68.7069
2354901 19.5311 20.5692 15.6086 12.7991 -0.646402 -2.56011 68.508
2354912 19.5311 20.5692 15.6086 12.7991 -0.646402 -2.56011 68.508
2354921 19.7403 20.8318 15.232 12.5184 -0.59354 -2.81496 68.3226
2354933 20.0791 21.1625 15.0437 12.3407 -0.59004 -3.02886 68.626
2354941 20.0791 21.1625 15.0437 12.3407 -0.59004 -3.02886 68.626
2354951 20.4578 21.4737 14.6566 12.1161 -0.554772 -3.30957 68.7042
2354961 20.7567 21.6974 14.416 11.7887 -0.614166 -3.55005 68.6588
2354982 20.976 22.0961 14.1335 11.6296 -0.50257 -3.77182 68.8352
2354994 20.976 22.0961 14.1335 11.6296 -0.50257 -3.77182 68.8352
2355002 21.2351 22.3684 13.8406 11.3864 -0.479764 -4.00473 68.8304
2355012 21.5739 22.6796 13.5582 11.115 -0.485063 -4.26112 68.9267
2355022 21.5739 22.6796 13.5582 11.115 -0.485063 -4.26112 68.9267
2355032 21.7532 22.9325 13.2129 10.8343 -0.436221 -4.50405 68.733
2355042 21.9625 23.1951 12.9409 10.6098 -0.399707 -4.71708 68.7083
2355069 22.2614 23.4479 12.6898 10.4414 -0.385655 -4.91966 68.8406
2355089 22.2614 23.4479 12.6898 10.4414 -0.385655 -4.91966 68.8406
2355092 22.391 23.623 12.4911 10.2356 -0.372232 -5.08157 68.7406
2355105 22.4408 23.7203 12.2505 10.142 -0.302325 -5.20074 68.5535
2355109 22.4408 23.7203 12.2505 10.142 -0.302325 -5.20074 68.5535
2355124 22.6002 23.9439 12.1249 10.0204 -0.276919 -5.32808 68.6895
2355134 22.6002 23.9439 12.1249 10.0204 -0.276919 -5.32808 68.6895
2355144 22.6899 24.0315 12.1982 10.011 -0.306684 -5.33411 68.9305
2355154 22.6899 24.0315 12.1982 10.011 -0.306684 -5.33411 68.9305
2355167 22.7597 24.1773 12.1145 9.94551 -0.272213 -5.40829 68.997
2355174 22.9091 24.2843 12.0517 9.89873 -0.281218 -5.4762 69.1439
2355194 22.9889 24.3427 11.8843 9.81453 -0.259294 -5.56988 69.0304
2355204 22.9988 24.4108 11.7797 9.73032 -0.231227 -5.63691 68.9196
2355214 22.9988 24.4108 11.7797 9.73032 -0.231227 -5.63691 68.9196
2355227 23.0487 24.5275 11.7065 9.75839 -0.169921 -5.67299 69.041
2355234 23.0487 24.5275 11.7065 9.75839 -0.169921 -5.67299 69.041
2355244 22.9291 24.5275 11.6332 9.67419 -0.131121 -5.7041 68.764
2355254 22.9988 24.6247 11.6123 9.66483 -0.116685 -5.73573 68.9007
2355264 22.9988 24.6247 11.6123 9.66483 -0.116685 -5.73573 68.9007
2355274 22.8593 24.6831 11.5495 9.6087 -0.0426114 -5.76068 68.7006
2355284 22.8593 24.6831 11.5495 9.6087 -0.0426114 -5.76068 68.7006
2355294 22.8195 24.6539 11.5914 9.63676 -0.0437379 -5.73027 68.7015
2355305 22.7497 24.6539 11.6542 9.75839 0.00306368 -5.66532 68.8161
2355314 22.7497 24.6539 11.6542 9.75839 0.00306368 -5.66532 68.8161
2355324 22.6301 24.5372 11.6437 9.78646 0.0181586 -5.62787 68.5975
2355334 22.5106 24.4788 11.7902 9.9268 0.0381827 -5.51749 68.7063
2355344 22.5106 24.4788 11.7902 9.9268 0.0381827 -5.51749 68.7063
2355354 22.5305 24.4399 11.8215 10.0484 0.0495136 -5.46927 68.8404
2355365 22.4607 24.333 12.0412 10.2168 0.0173181 -5.32983 69.0518
2355388 22.5006 24.3524 12.2191 10.2917 -0.0272363 -5.26404 69.3638
2355395 22.5006 24.3524 12.2191 10.2917 -0.0272363 -5.26404 69.3638
2355440 22.5404 24.226 12.24 10.2823 -0.0981882 -5.24849 69.2887
2355446 22.4607 24.2551 12.2818 10.3198 -0.0604719 -5.21822 69.3175
2355448 22.4607 24.2551 12.2818 10.3198 -0.0604719 -5.21822 69.3175
2355450 22.5106 24.1676 12.2714 10.3198 -0.106308 -5.21595 69.2693
2355451 22.5404 24.226 12.1772 10.1233 -0.133358 -5.31352 69.0669
2355468 22.5703 24.2065 12.0935 10.0484 -0.148337 -5.36172 68.9188
2355477 22.5703 24.2065 12.0935 10.0484 -0.148337 -5.36172 68.9188
2355489 22.4906 24.1773 12.0098 10.0391 -0.103338 -5.37402 68.7169
2355497 22.5106 24.1676 12.0308 10.011 -0.131947 -5.37756 68.7199
2355506 22.5106 24.1676 12.0308 10.011 -0.131947 -5.37756 68.7199
2355518 22.4707 24.0898 12.0203 10.0297 -0.13535 -5.35861 68.6105
2355527 22.3113 24.0606 12.1563 10.0765 -0.12041 -5.27786 68.6047
2355537 22.3113 24.0606 12.1563 10.0765 -0.12041 -5.27786 68.6047
2355549 22.3411 24.012 12.3237 10.273 -0.137728 -5.16821 68.9498
2355558 22.3411 24.012 12.3237 10.273 -0.137728 -5.16821 68.9498
2355567 22.371 24.0412 12.4388 10.3665 -0.145225 -5.11581 69.2175
2355577 22.4209 23.9828 12.512 10.3478 -0.217359 -5.09876 69.2635
2355598 22.4109 23.9148 12.5957 10.3759 -0.258283 -5.05519 69.2972
2355607 22.4209 23.9342 12.4702 10.2449 -0.257675 -5.13392 69.0701
2355620 22.4209 23.9342 12.4702 10.2449 -0.257675 -5.13392 69.0701
2355627 22.4508 23.7981 12.4074 10.2262 -0.302653 -5.14251 68.8824
2355640 22.4508 23.7981 12.4074 10.2262 -0.302653 -5.14251 68.8824
2355647 22.3611 23.7786 12.4911 10.1888 -0.321414 -5.11334 68.8195
2355657 22.3113 23.7786 12.4283 10.2823 -0.246592 -5.09718 68.8005
2355667 22.3113 23.7786 12.4283 10.2823 -0.246592 -5.09718 68.8005
2355677 22.3113 23.7494 12.3865 10.2543 -0.252551 -5.11342 68.7014
2355688 22.4009 23.8856 12.4806 10.3759 -0.224198 -5.08294 69.143
2355714 22.4308 23.9342 12.4702 10.404 -0.203213 -5.08908 69.2392
2355732 22.4308 23.9342 12.4702 10.404 -0.203213 -5.08908 69.2392
2355733 22.3312 23.9148 12.3655 10.4507 -0.119901 -5.08882 69.0622
2355739 22.3013 23.9342 12.3132 10.4601 -0.0797749 -5.09982 69.0088
2355749 22.3013 23.9342 12.3132 10.4601 -0.0797749 -5.09982 69.0088
2355759 22.1319 23.9148 12.3342 10.5069 -0.0161141 -5.05292 68.8877
2355769 22.112 23.9537 12.3342 10.5724 0.0289679 -5.03662 68.9721
2355779 22.112 23.9537 12.3342 10.5724 0.0289679 -5.03662 68.9721
2355791 22.102 23.8759 12.3028 10.5724 0.0157803 -5.03305 68.853
2355799 22.102 23.8759 12.3028 10.5724 0.0157803 -5.03305 68.853
2355811 21.9226 23.8272 12.3446 10.7034 0.0956953 -4.94969 68.7978
2355820 21.8329 23.7981 12.4492 10.825 0.123671 -4.86685 68.9052
2355840 21.6436 23.6424 12.5538 10.9747 0.152466 -4.74264 68.8146
2355850 21.5141 23.516 12.6898 11.1431 0.165257 -4.61724 68.863
2355860 21.5141 23.516 12.6898 11.1431 0.165257 -4.61724 68.863
2355870 21.3845 23.5549 12.8363 11.3864 0.260419 -4.49309 69.1621
2355894 21.2052 23.4577 12.9618 11.5173 0.292152 -4.37874 69.142
2355901 21.0258 23.341 13.056 11.7419 0.361836 -4.24398 69.1646
2355921 20.8165 23.3701 13.1502 11.8635 0.457716 -4.15598 69.2003
2355934 20.677 23.2826 13.2129 11.9945 0.501379 -4.06672 69.1671
2355941 20.677 23.2826 13.2129 11.9945 0.501379 -4.06672 69.1671
2355951 20.4777 23.1367 13.2862 12.0506 0.516117 -3.97622 68.9512
2355961 20.398 23.2243 13.2757 12.1068 0.600439 -3.9649 69.0047
2355971 20.398 23.2243 13.2757 12.1068 0.600439 -3.9649 69.0047
2355981 20.4279 23.2632 13.2862 12.0881 0.592613 -3.97816 69.0653
2355991 20.4279 23.2632 13.2862 12.0881 0.592613 -3.97816 69.0653
2356001 20.4877 23.4188 13.1188 11.9758 0.647849 -4.08948 69.001
2356011 20.6172 23.5841 12.9618 11.9384 0.703087 -4.18973 69.1015
2356032 20.7169 23.7981 12.7317 11.7793 0.771013 -4.34705 69.0259
2356044 20.8564 23.9731 12.5015 11.5454 0.784227 -4.52605 68.8764
2356062 20.956 24.1968 12.2818 11.3396 0.83552 -4.69611 68.7742
2356082 20.9361 24.2649 12.2086 11.2086 0.848439 -4.76195 68.6182
2356092 20.9461 24.2746 12.1249 11.2647 0.899398 -4.77283 68.6103
2356104 20.9461 24.2746 12.1249 11.2647 0.899398 -4.77283 68.6103
2356114 20.8265 24.1871 12.104 11.2928 0.931647 -4.7398 68.4104
2356124 20.6471 24.0606 12.2295 11.4986 0.979969 -4.59837 68.4359
2356136 20.6471 24.0606 12.2295 11.4986 0.979969 -4.59837 68.4359
2356144 20.4478 23.9537 12.5329 11.6951 0.971889 -4.40921 68.6295
2356154 20.4478 23.9537 12.5329 11.6951 0.971889 -4.40921 68.6295
2356164 20.2585 23.73 12.7735 11.929 0.956073 -4.21145 68.691
2356176 20.2884 23.7397 13.0142 12.2097 0.95551 -4.07301 69.2519
2356187 20.2884 23.7397 13.0142 12.2097 0.95551 -4.07301 69.2519
2356195 20.2884 23.7981 13.0874 12.3781 1.00658 -4.01591 69.5519
2356207 20.2884 23.7494 13.1711 12.35 0.948831 -3.99303 69.5589
2356216 20.2884 23.7494 13.1711 12.35 0.948831 -3.99303 69.5589
2356227 20.2386 23.7494 13.056 12.2939 0.99107 -4.03202 69.3379
2356251 20.0991 23.6911 13.0037 12.219 1.01697 -4.03564 69.0129
2356255 19.9795 23.5646 12.9618 12.2097 1.0307 -4.01057 68.7157
2356275 19.9197 23.5257 12.9409 12.2565 1.06406 -3.98761 68.6428
2356285 19.8798 23.4577 13.0246 12.3407 1.05305 -3.9239 68.7028
2356295 19.8798 23.4577 13.0246 12.3407 1.05305 -3.9239 68.7028
2356305 19.9695 23.5744 13.1397 12.3875 1.03249 -3.91266 69.071
2356316 19.9695 23.5744 13.1397 12.3875 1.03249 -3.91266 69.071
2356326 19.8798 23.516 13.1397 12.4717 1.0753 -3.86579 69.0072
2356336 20.0094 23.6035 13.1188 12.5278 1.08404 -3.8911 69.2595
2356351 20.0094 23.6035 13.1188 12.5278 1.08404 -3.8911 69.2595
2356360 20.0193 23.7786 12.9932 12.4155 1.14929 -3.98571 69.2067
2356369 20.1589 23.7786 12.8154 12.2471 1.10561 -4.10325 68.9999
2356379 20.1589 23.7786 12.8154 12.2471 1.10561 -4.10325 68.9999
2356386 20.2784 23.9439 12.6585 12.0132 1.09598 -4.25669 68.894
2356397 20.2784 23.9439 12.6585 12.0132 1.09598 -4.25669 68.894
2356406 20.3183 23.8759 12.5225 11.9009 1.06972 -4.32194 68.6175
2356416 20.3482 23.9245 12.3865 11.9009 1.12703 -4.3725 68.5601
2356427 20.3482 23.9245 12.3865 11.9009 1.12703 -4.3725 68.5601
2356436 20.398 23.9342 12.3028 11.8448 1.12377 -4.4213 68.4798
2356446 20.3382 23.8953 12.3969 11.8635 1.10363 -4.37406 68.494
2356456 20.3382 23.8953 12.3969 11.8635 1.10363 -4.37406 68.494
2356467 20.4279 23.8272 12.5538 11.9664 1.02213 -4.3042 68.7754
2356476 20.4279 23.8272 12.5538 11.9664 1.02213 -4.3042 68.7754
2356486 20.3781 23.7689 12.5748 12.1255 1.06813 -4.23693 68.8472
2356496 20.4379 23.7981 12.7212 12.2003 1.02639 -4.18921 69.1575
2356506 20.4379 23.7981 12.7212 12.2003 1.02639 -4.18921 69.1575
2356516 20.4578 23.7883 12.8468 12.1723 0.958645 -4.1638 69.2652
2356526 20.3482 23.5646 12.7945 12.2939 0.984004 -4.09221 69.0012
2356536 20.3482 23.5646 12.7945 12.2939 0.984004 -4.09221 69.0012
2356547 20.2386 23.3507 13.0142 12.3687 0.894094 -3.9595 68.9722
2356566 19.9894 23.1076 13.1397 12.481 0.894755 -3.8148 68.7177
2356576 19.8798 22.8061 13.3594 12.6214 0.796676 -3.64919 68.6666
2356588 19.8798 22.8061 13.3594 12.6214 0.796676 -3.64919 68.6666
2356597 19.6407 22.6505 13.6837 12.8927 0.805447 -3.42283 68.8675
2356607 19.5311 22.349 13.9452 13.0985 0.71499 -3.22885 68.9238
2356617 19.5311 22.349 13.9452 13.0985 0.71499 -3.22885 68.9238
2356628 19.3118 22.1058 14.3009 13.3511 0.667515 -2.98951 69.0697
2356637 19.3118 22.1058 14.3009 13.3511 0.667515 -2.98951 69.0697
2356649 19.1624 21.746 14.5834 13.4915 0.540608 -2.79057 68.9832
2356657 18.9232 21.4348 14.8449 13.6879 0.491571 -2.57475 68.8909
2356671 18.9232 21.4348 14.8449 13.6879 0.491571 -2.57475 68.8909
2356677 18.6741 20.9291 15.2843 13.9031 0.317559 -2.27118 68.7906
2356687 18.2157 20.4331 15.8702 14.3148 0.240439 -1.8444 68.8337
2356697 18.2157 20.4331 15.8702 14.3148 0.240439 -1.8444 68.8337
2356707 17.9267 19.869 16.5083 14.8762 0.112072 -1.39012 69.1802
2356717 17.9267 19.869 16.5083 14.8762 0.112072 -1.39012 69.1802
2356727 17.4584 19.2855 17.1673 15.4937 0.0552624 -0.882395 69.4049
2356737 17.0399 18.8089 17.8662 16.1205 0.00835657 -0.399942 69.8356
2356759 16.7217 18.3227 18.3978 16.5416 -0.0912145 -0.0225145 69.9837
2356771 16.7217 18.3227 18.3978 16.5416 -0.0912145 -0.0225145 69.9837
2356779 16.3304 17.7975 18.7915 16.9439 -0.136206 0.345136 69.8633
2356789 15.9739 17.3793 19.2148 17.2241 -0.209682 0.66319 69.7921
2356799 15.9739 17.3793 19.2148 17.2241 -0.209682 0.66319 69.7921
2356809 15.5478 16.8505 19.6086 17.5456 -0.273277 1.02565 69.5525
2356819 15.1478 16.3088 19.9531 17.867 -0.333835 1.37785 69.2768
2356840 14.6783 15.8418 20.4945 18.3542 -0.35205 1.80095 69.3687
2356849 14.1913 15.3093 21.2229 18.9095 -0.429194 2.29024 69.633
2356860 14.1913 15.3093 21.2229 18.9095 -0.429194 2.29024 69.633
2356872 13.7739 14.7769 21.8628 19.4648 -0.49908 2.74263 69.8784
2356880 13.7739 14.7769 21.8628 19.4648 -0.49908 2.74263 69.8784
2356890 13.2609 14.1604 22.4731 20.0298 -0.551923 3.23527 69.9242
2356901 12.8 13.6467 23.1621 20.5948 -0.61271 3.69858 70.2037
2356923 12.3043 13.0676 23.7331 21.0819 -0.672446 4.15528 70.1869
2356931 11.887 12.4698 24.3827 21.5301 -0.807543 4.60144 70.2696
2356952 11.4435 11.9841 25.0423 21.9685 -0.899085 5.0221 70.4383
2356962 11.0087 11.5077 25.4459 22.4848 -0.873724 5.41136 70.4471
2356974 11.0087 11.5077 25.4459 22.4848 -0.873724 5.41136 70.4471
2356987 10.6609 11.0687 25.8888 22.8355 -0.938727 5.74733 70.4539
2356995 10.6609 11.0687 25.8888 22.8355 -0.938727 5.74733 70.4539
2357004 10.2522 10.6203 26.3023 23.2155 -0.965557 6.10423 70.3902
2357013 9.95652 10.2654 26.6665 23.5954 -0.979726 6.39295 70.4838
2357025 9.95652 10.2654 26.6665 23.5954 -0.979726 6.39295 70.4838
2357035 9.63478 9.91044 26.9519 23.9851 -0.954561 6.68079 70.4823
2357045 9.34783 9.63956 27.2866 24.3261 -0.945044 6.93172 70.6001
2357065 9.01739 9.34066 27.6115 24.745 -0.899112 7.21176 70.7145
2357075 9.01739 9.34066 27.6115 24.745 -0.899112 7.21176 70.7145
2357086 8.68696 9.06978 27.8477 25.1347 -0.823525 7.46948 70.7391
2357095 8.46087 8.88297 28.0347 25.4269 -0.771731 7.65149 70.8055
2357116 8.27826 8.64945 28.2021 25.6413 -0.773492 7.82431 70.7711
2357126 8.15652 8.61209 28.1332 25.6705 -0.711018 7.87173 70.5723
2357136 8.15652 8.61209 28.1332 25.6705 -0.711018 7.87173 70.5723
2357146 8.11304 8.62143 28.1726 25.6705 -0.706203 7.88677 70.5775
2357158 8.11304 8.62143 28.2021 25.6705 -0.716363 7.88974 70.607
2357166 8.03478 8.53736 28.2021 25.6705 -0.720076 7.94249 70.4447
2357176 8.04348 8.49066 28.3301 25.6705 -0.784145 7.96766 70.5347
2357196 8.03478 8.50934 28.3202 25.6315 -0.785197 7.95953 70.4958
2357206 8.06956 8.59341 28.3301 25.6023 -0.780477 7.91895 70.5953
2357226 8.08696 8.59341 28.2907 25.5244 -0.801426 7.90151 70.4954
2357237 8.08696 8.59341 28.2907 25.5244 -0.801426 7.90151 70.4954
2357246 8.11304 8.60275 28.2021 25.5244 -0.776532 7.88106 70.4422
2357256 8.13913 8.60275 28.2119 25.5633 -0.774634 7.87753 70.5171
2357276 8.11304 8.52802 28.2415 25.5828 -0.796019 7.91521 70.4653
2357286 8.03478 8.56538 28.3104 25.5438 -0.793394 7.93152 70.4544
2357299 8.03478 8.56538 28.3104 25.5438 -0.793394 7.93152 70.4544
2357307 7.94783 8.48132 28.4088 25.6705 -0.781757 8.00971 70.5084
2357317 7.93043 8.41593 28.586 25.8069 -0.810589 8.06762 70.7392
2357328 7.93043 8.41593 28.586 25.8069 -0.810589 8.06762 70.7392
2357337 7.91304 8.41593 28.6549 25.9043 -0.792696 8.08955 70.8882
2357347 7.91304 8.41593 28.6549 25.9043 -0.792696 8.08955 70.8882
2357357 7.85217 8.35055 28.714 25.8556 -0.833654 8.13175 70.7723
2357367 7.76522 8.31319 28.7829 25.8946 -0.826907 8.18286 70.7558
2357387 7.73913 8.21044 28.7238 25.8751 -0.84248 8.21761 70.5484
2357397 7.62609 8.16374 28.8813 25.9627 -0.842687 8.29366 70.6339
2357409 7.62609 8.16374 28.8813 25.9627 -0.842687 8.29366 70.6339
2357419 7.61739 8.13571 28.8911 25.9433 -0.860472 8.30486 70.5875
2357429 7.61739 8.13571 28.8911 25.9433 -0.860472 8.30486 70.5875
2357440 7.6087 8.05165 28.9404 25.9725 -0.894432 8.34293 70.5732
2357449 7.56522 7.98626 29.029 26.0407 -0.908801 8.3937 70.6211
2357460 7.56522 7.98626 29.029 26.0407 -0.908801 8.3937 70.6211
2357470 7.6087 7.98626 29.1865 26.0602 -0.970021 8.39585 70.8416
2357482 7.54783 7.89286 29.2455 26.0602 -1.00369 8.45238 70.7464
2357490 7.54783 7.89286 29.2455 26.0602 -1.00369 8.45238 70.7464
2357504 7.46087 7.9489 29.3046 25.9822 -1.00228 8.46088 70.6966
2357510 7.46087 7.9489 29.3046 25.9822 -1.00228 8.46088 70.6966
2357520 7.43478 7.79945 29.3636 26.0017 -1.06136 8.52649 70.5996
2357530 7.46957 7.75275 29.4719 26.0407 -1.11262 8.54393 70.7349
2357550 7.45217 7.72473 29.5605 26.0699 -1.1362 8.56978 70.8073
2357560 7.41739 7.70604 29.6688 26.0309 -1.18224 8.59386 70.8232
2357571 7.41739 7.70604 29.6688 26.0309 -1.18224 8.59386 70.8232
2357581 7.43478 7.68736 29.7574 26.0894 -1.20313 8.60756 70.9689
2357601 7.34783 7.59396 29.7574 26.1089 -1.20126 8.66946 70.808
2357612 7.33913 7.6033 29.7475 26.1868 -1.16278 8.67532 70.8768
2357626 7.33913 7.6033 29.7475 26.1868 -1.16278 8.67532 70.8768
2357632 7.26087 7.51923 29.6196 26.1771 -1.1279 8.71743 70.5768
2357650 7.13913 7.50989 29.6688 26.1673 -1.11041 8.76506 70.4851
2357652 7.13913 7.50989 29.6688 26.1673 -1.11041 8.76506 70.4851
2357662 7.13043 7.54725 29.6097 26.1771 -1.06998 8.75103 70.4645
2357672 7.15652 7.45385 29.5999 26.3037 -1.06321 8.78406 70.514
2357682 7.15652 7.45385 29.5999 26.3037 -1.06321 8.78406 70.514
2357692 7.06087 7.51923 29.6393 26.333 -1.00916 8.8003 70.5523
2357703 7.06087 7.51923 29.6393 26.333 -1.00916 8.8003 70.5523
2357714 7.12174 7.55659 29.6491 26.3719 -1.00508 8.77151 70.6994
2357722 7.17391 7.65934 29.5999 26.4206 -0.950487 8.71949 70.8538
2357744 7.24348 7.68736 29.5113 26.3719 -0.951608 8.67463 70.814
2357754 7.17391 7.72473 29.4916 26.2453 -0.954024 8.67232 70.6355
2357774 7.28696 7.79945 29.3833 26.1771 -0.953245 8.59359 70.6468
2357784 7.28696 7.79945 29.3833 26.1771 -0.953245 8.59359 70.6468
2357794 7.36522 7.83681 29.3341 26.0797 -0.985208 8.54166 70.6158
2357804 7.45217 7.84615 29.403 26.0407 -1.049 8.51234 70.742
2357814 7.45217 7.84615 29.403 26.0407 -1.049 8.51234 70.742
2357825 7.55652 8.00494 29.3636 25.9043 -1.06274 8.4089 70.8294
2357835 7.64348 7.98626 29.2849 25.6802 -1.15514 8.35798 70.5949
2357844 7.64348 7.98626 29.2849 25.6802 -1.15514 8.35798 70.5949
2357856 7.86087 8.08901 29.1471 25.3685 -1.25964 8.20949 70.4654
2357864 7.86087 8.08901 29.1471 25.3685 -1.25964 8.20949 70.4654
2357877 7.9913 8.16374 29.0388 25.0762 -1.34842 8.10302 70.2701
2357884 8.2087 8.28516 28.9994 24.9496 -1.41014 7.97564 70.4428
2357905 8.41739 8.37857 28.7927 24.7547 -1.44889 7.83687 70.3434
2357915 8.53913 8.46264 28.6844 24.6086 -1.47675 7.74409 70.2948
2357925 8.53913 8.46264 28.6844 24.6086 -1.47675 7.74409 70.2948
2357934 8.73913 8.58407 28.6352 24.5014 -1.52173 7.62422 70.4598
2357945 8.73913 8.58407 28.6352 24.5014 -1.52173 7.62422 70.4598
2357955 8.83478 8.67747 28.5368 24.3261 -1.55169 7.53475 70.3751
2357965 8.98261 8.81758 28.3399 24.2871 -1.49723 7.41762 70.4272
2357975 8.98261 8.81758 28.3399 24.2871 -1.49723 7.41762 70.4272
2357985 9.13913 8.90165 28.2415 24.2579 -1.49598 7.32744 70.5401
2357995 9.13913 8.90165 28.2415 24.2579 -1.49598 7.32744 70.5401
2358005 9.13043 8.91099 28.1332 24.2481 -1.45709 7.31437 70.4227
2358015 9.21739 9.01374 28.1036 24.2871 -1.42314 7.25546 70.6219
2358025 9.21739 9.01374 28.1036 24.2871 -1.42314 7.25546 70.6219
2358036 9.12174 8.96703 28.0052 24.2287 -1.39758 7.28324 70.3226
2358046 9.10435 9.01374 27.9461 24.365 -1.30333 7.28244 70.4293
2358055 9.10435 9.01374 27.9461 24.365 -1.30333 7.28244 70.4293
2358066 9.04348 9.0511 28.0052 24.443 -1.25974 7.30485 70.5428
2358087 8.88696 8.96703 27.9658 24.5307 -1.19228 7.38641 70.3505
2358096 8.85217 8.94835 28.0151 24.6476 -1.16065 7.42135 70.4632
2358116 8.69565 8.87363 28.0544 24.7158 -1.12337 7.50665 70.3395
2358126 8.64348 8.7989 28.1529 24.9203 -1.09093 7.57935 70.5156
2358146 8.54783 8.78956 28.2415 25.1542 -1.00574 7.64669 70.733
2358156 8.54783 8.78956 28.2415 25.1542 -1.00574 7.64669 70.733
2358166 8.38261 8.63077 28.3301 25.3198 -0.977214 7.77698 70.6632
2358176 8.27826 8.5467 28.4876 25.4464 -0.979625 7.86664 70.7589
2358196 8.15652 8.56538 28.5565 25.5536 -0.915553 7.91764 70.8319
2358206 8.04348 8.41593 28.586 25.612 -0.92046 8.0116 70.6574
2358227 7.9913 8.41593 28.5958 25.69 -0.877467 8.03726 70.693
2358239 7.91304 8.35055 28.5663 25.6315 -0.886041 8.07553 70.4614
2358249 7.91304 8.35055 28.5663 25.6315 -0.886041 8.07553 70.4614
2358260 7.88696 8.32253 28.5565 25.5926 -0.898376 8.08848 70.3585
2358274 7.88696 8.32253 28.5565 25.5926 -0.898376 8.08848 70.3585
2358283 7.87826 8.30385 28.4679 25.5828 -0.875469 8.0878 70.2328
2358291 7.91304 8.31319 28.4679 25.4854 -0.919902 8.06369 70.1795
2358309 7.93043 8.38791 28.4876 25.5341 -0.887112 8.04023 70.34
2358319 7.89565 8.40659 28.4383 25.4951 -0.865749 8.03677 70.2357
2358329 7.89565 8.40659 28.4383 25.4951 -0.865749 8.03677 70.2357
2358339 8.06956 8.47198 28.4186 25.5536 -0.873108 7.96242 70.5138
2358351 8.06956 8.47198 28.4186 25.5536 -0.873108 7.96242 70.5138
2358359 8.26087 8.59341 28.2611 25.3198 -0.925972 7.82137 70.4352
2358369 8.4 8.77088 28.1627 25.2029 -0.917599 7.69702 70.5365
2358379 8.4 8.77088 28.1627 25.2029 -0.917599 7.69702 70.5365
2358389 8.53913 8.88297 28.0643 25.0567 -0.944002 7.59087 70.5431
2358399 8.64348 8.94835 27.8083 24.8619 -0.939903 7.48876 70.2621
2358410 8.64348 8.94835 27.8083 24.8619 -0.939903 7.48876 70.2621
2358420 8.73913 9.02308 27.8083 24.8132 -0.963011 7.42913 70.3837
2358431 8.73913 9.02308 27.8083 24.8132 -0.963011 7.42913 70.3837
2358440 8.8087 9.04176 27.6804 24.7158 -0.972128 7.37666 70.2466
2358452 8.82609 9.06978 27.6607 24.6476 -0.986205 7.35264 70.2041
2358470 8.89565 9.16319 27.5426 24.5794 -0.960258 7.28043 70.1808
2358480 9 9.18187 27.4835 24.5014 -0.997694 7.22629 70.1668
2358490 9 9.18187 27.4835 24.5014 -0.997694 7.22629 70.1668
2358500 9.08696 9.35 27.4146 24.4722 -0.952506 7.13482 70.3238
2358510 9.08696 9.35 27.4146 24.4722 -0.952506 7.13482 70.3238
2358520 9.13913 9.3967 27.326 24.3845 -0.955173 7.08393 70.2464
2358530 9.1913 9.44341 27.2768 24.4235 -0.924568 7.05173 70.335
2358540 9.1913 9.44341 27.2768 24.4235 -0.924568 7.05173 70.335
2358550 9.31304 9.50879 27.1882 24.3066 -0.954911 6.96982 70.3166
2358562 9.25217 9.55549 27.1783 24.2092 -0.949444 6.96198 70.1952
2358570 9.25217 9.55549 27.1783 24.2092 -0.949444 6.96198 70.1952
2358582 9.38261 9.51813 27.0996 24.1702 -0.995386 6.91937 70.1705
2358590 9.38261 9.51813 27.0996 24.1702 -0.995386 6.91937 70.1705
2358600 9.49565 9.63956 26.9027 24.0143 -0.979444 6.80531 70.0523
2358610 9.57391 9.77033 26.7649 23.8779 -0.961091 6.70808 69.9871
2358620 9.57391 9.77033 26.7649 23.8779 -0.961091 6.70808 69.9871
2358630 9.8 9.9011 26.5877 23.6636 -1.00891 6.55093 69.9524
2358640 9.8 9.9011 26.5877 23.6636 -1.00891 6.55093 69.9524
2358651 9.89565 10.0319 26.4007 23.498 -0.990491 6.43838 69.8262
2358660 10.1739 10.1907 26.2137 23.2544 -1.0534 6.25141 69.8327
2358673 10.1739 10.1907 26.2137 23.2544 -1.0534 6.25141 69.8327
2358681 10.5391 10.5363 25.8199 22.8648 -1.06007 5.93662 69.7601
2358696 10.913 10.8352 25.4655 22.3387 -1.15192 5.61936 69.5524
2358702 10.913 10.8352 25.4655 22.3387 -1.15192 5.61936 69.5524
2358711 11.2609 11.1341 25.1407 22.0756 -1.14632 5.34858 69.6113
2358721 11.2609 11.1341 25.1407 22.0756 -1.14632 5.34858 69.6113
2358731 11.487 11.3863 24.8454 21.7249 -1.15963 5.11864 69.4435
2358741 11.913 11.5264 24.5698 21.4424 -1.26492 4.87521 69.4516
2358751 11.913 11.5264 24.5698 21.4424 -1.26492 4.87521 69.4516
2358762 12.1652 11.8346 24.2942 21.0235 -1.29883 4.61308 69.3175
2358771 12.6696 12.2269 23.8807 20.5266 -1.36959 4.2229 69.3039
2358784 12.6696 12.2269 23.8807 20.5266 -1.36959 4.2229 69.3039
2358791 13.3478 12.8527 23.1917 19.8837 -1.37244 3.65382 69.2759
2358805 13.3478 12.8527 23.1917 19.8837 -1.37244 3.65382 69.2759
2358811 14.2 13.5346 22.414 18.9679 -1.48716 2.9618 69.1165
2358821 15.2348 14.5341 21.4296 17.984 -1.49836 2.09116 69.1824
2358831 15.2348 14.5341 21.4296 17.984 -1.49836 2.09116 69.1824
2358841 16.287 15.4681 20.2779 16.8316 -1.54839 1.1663 68.8646
2358851 17.1993 16.3462 19.3231 15.8773 -1.56336 0.361095 68.7458
2358861 17.1993 16.3462 19.3231 15.8773 -1.56336 0.361095 68.7458
2358871 18.2157 17.1848 18.319 14.7639 -1.67416 -0.507614 68.4834
2358882 18.2157 17.1848 18.319 14.7639 -1.67416 -0.507614 68.4834
2358893 19.1424 17.9725 17.315 13.847 -1.69819 -1.30783 68.277
2358902 20.119 18.8965 16.2677 12.902 -1.68225 -2.16595 68.1852
2358912 20.119 18.8965 16.2677 12.902 -1.68225 -2.16595 68.1852
2358930 21.0059 19.5772 15.4726 12.0693 -1.77317 -2.87144 68.1251
2358934 21.6635 20.258 14.7089 11.4051 -1.73049 -3.48514 68.0355
2358944 21.6635 20.258 14.7089 11.4051 -1.73049 -3.48514 68.0355
2358954 22.1319 20.6373 14.2277 10.9653 -1.74985 -3.87925 67.9622
2358964 22.1319 20.6373 14.2277 10.9653 -1.74985 -3.87925 67.9622
2358974 22.4109 20.8902 13.8615 10.7969 -1.6868 -4.11479 67.9595
2358985 22.6899 21.0944 13.7569 10.694 -1.70676 -4.25002 68.2352
2358994 22.6899 21.0944 13.7569 10.694 -1.70676 -4.25002 68.2352
2359004 22.9091 21.3862 13.7046 10.5724 -1.6972 -4.37895 68.5723
2359014 23.2181 21.7849 13.464 10.5162 -1.58768 -4.57127 68.9832
2359025 23.2181 21.7849 13.464 10.5162 -1.58768 -4.57127 68.9832
2359035 23.4871 22.2128 13.3385 10.2636 -1.5689 -4.78294 69.302
2359045 23.6565 22.4657 13.056 10.1046 -1.49469 -4.97128 69.2827
2359065 23.8259 22.7477 12.7945 9.86131 -1.44857 -5.1823 69.2294
2359076 23.8259 22.7477 12.7945 9.86131 -1.44857 -5.1823 69.2294
2359086 24.0651 23.0006 12.5015 9.55256 -1.45164 -5.42787 69.1197
2359099 24.354 23.2729 12.1877 9.2251 -1.46428 -5.69545 69.0397
2359106 24.354 23.2729 12.1877 9.2251 -1.46428 -5.69545 69.0397
2359116 24.6331 23.516 11.7797 8.94441 -1.43464 -5.97293 68.8732
2359126 24.8623 23.73 11.4345 8.60759 -1.44212 -6.23963 68.6343
2359146 24.9818 23.9828 11.152 8.46725 -1.34279 -6.41814 68.5839
2359157 24.9818 23.9828 11.152 8.46725 -1.34279 -6.41814 68.5839
2359167 25.0117 24.0995 10.9742 8.26142 -1.32593 -6.55678 68.3468
2359176 25.0815 24.2454 10.88 8.18657 -1.29014 -6.63667 68.3935
2359188 25.0815 24.2454 10.88 8.18657 -1.29014 -6.63667 68.3935
2359196 25.0516 24.3232 10.7963 8.19593 -1.21723 -6.66606 68.367
2359209 25.1014 24.3913 10.744 8.20528 -1.1867 -6.69401 68.442
2359217 25.1014 24.3913 10.744 8.20528 -1.1867 -6.69401 68.442
2359230 25.1712 24.4497 10.744 8.26142 -1.16722 -6.69177 68.6262
2359237 25.1712 24.4497 10.744 8.26142 -1.16722 -6.69177 68.6262
2359247 25.1114 24.5761 10.7754 8.41112 -1.05248 -6.64278 68.874
2359257 25.1213 24.7414 10.8382 8.47661 -0.990735 -6.62383 69.1775
2359267 25.1213 24.7414 10.8382 8.47661 -0.990735 -6.62383 69.1775
2359277 25.1911 24.8387 10.88 8.42983 -1.01046 -6.64554 69.3396
2359290 25.2309 24.8776 10.7649 8.42983 -0.96982 -6.69098 69.3033
2359307 25.3904 25.0915 10.6185 8.33627 -0.929278 -6.81064 69.4366
2359327 25.6594 25.3152 10.4406 8.17722 -0.936747 -6.97421 69.5925
2359340 25.789 25.4903 10.2314 7.94331 -0.931112 -7.14961 69.4539
2359349 25.789 25.4903 10.2314 7.94331 -0.931112 -7.14961 69.4539
2359360 25.9683 25.5584 9.88615 7.66263 -0.953129 -7.37843 69.0755
2359369 26.0381 25.5875 9.70831 7.55036 -0.946704 -7.48363 68.8843
2359382 26.0381 25.5875 9.70831 7.55036 -0.946704 -7.48363 68.8843
2359391 25.9982 25.5973 9.56185 7.40066 -0.934309 -7.57745 68.558
2359410 25.9385 25.5097 9.56185 7.31646 -0.978434 -7.58927 68.3265
2359419 25.9584 25.393 9.62462 7.41937 -1.01271 -7.52406 68.3954
2359439 25.9185 25.286 9.70831 7.44744 -1.05812 -7.47118 68.3603
2359449 25.8089 25.1402 9.87569 7.61585 -1.06976 -7.33282 68.4406
2359470 25.789 25.1207 9.99077 7.74684 -1.06057 -7.24837 68.6473
2359480 25.7192 25.0429 10.2105 7.94331 -1.06777 -7.09742 68.9159
2359492 25.7192 25.0429 10.2105 7.94331 -1.06777 -7.09742 68.9159
2359503 25.6295 25.0721 10.2942 8.17722 -0.966562 -6.98905 69.173
2359511 25.6295 25.0721 10.2942 8.17722 -0.966562 -6.98905 69.173
2359521 25.6694 25.1207 10.5243 8.26142 -1.01026 -6.89989 69.5758
2359533 25.6694 25.2471 10.5557 8.31756 -0.953005 -6.8871 69.7898
2359542 25.6694 25.2471 10.5557 8.31756 -0.953005 -6.8871 69.7898
2359553 25.6196 25.2958 10.5557 8.20528 -0.959517 -6.92223 69.6763
2359570 25.5897 25.2569 10.3151 8.09301 -0.922279 -7.02591 69.2546
2359575 25.5897 25.2569 10.3151 8.09301 -0.922279 -7.02591 69.2546
2359582 25.4502 25.3249 10.2 8.03687 -0.828972 -7.0723 69.012
2359598 25.4502 25.3249 10.2 8.03687 -0.828972 -7.0723 69.012
2359604 25.1811 25.1596 10.1268 8.05559 -0.763503 -7.03961 68.5231
2359612 25.0018 25.004 10.064 8.00881 -0.75389 -7.03591 68.0786
2359623 25.0018 25.004 10.064 8.00881 -0.75389 -7.03591 68.0786
2359632 24.8224 25.0429 10.1268 8.17722 -0.634097 -6.94477 68.1693
2359642 24.7227 25.0721 10.3255 8.41112 -0.570934 -6.79793 68.5315
2359652 24.7227 25.0721 10.3255 8.41112 -0.570934 -6.79793 68.5315
2359665 24.7327 25.218 10.5243 8.67309 -0.493853 -6.67118 69.1481
2359673 24.7327 25.218 10.5243 8.67309 -0.493853 -6.67118 69.1481
2359686 24.6928 25.286 10.5662 8.81343 -0.417948 -6.61764 69.3585
2359692 24.5932 25.3347 10.7335 8.96313 -0.369462 -6.51305 69.6245
2359702 24.5932 25.3347 10.7335 8.96313 -0.369462 -6.51305 69.6245
2359712 24.4836 25.2958 10.7963 9.06604 -0.329573 -6.44377 69.6417
2359722 24.4039 25.2374 10.7335 9.06604 -0.300236 -6.44614 69.4409
2359732 24.4039 25.2374 10.7335 9.06604 -0.300236 -6.44614 69.4409
2359742 24.3839 25.1693 10.7231 9.10347 -0.300597 -6.42696 69.3798
2359764 24.2943 25.1013 10.5662 9.00991 -0.271577 -6.48516 68.9716
2359775 24.2046 25.0332 10.5557 8.96313 -0.277777 -6.48351 68.7566
2359796 24.0551 24.9748 10.5348 8.90699 -0.25852 -6.48184 68.4717
2359806 23.9455 24.9067 10.5452 8.98184 -0.220142 -6.4329 68.3793
2359818 23.9455 24.9067 10.5452 8.98184 -0.220142 -6.4329 68.3793
2359824 23.8757 24.7317 10.6708 9.15025 -0.242794 -6.31018 68.4284
2359834 23.8757 24.7317 10.6708 9.15025 -0.242794 -6.31018 68.4284
2359844 23.786 24.6539 10.7545 9.17832 -0.258987 -6.25407 68.3727
2359854 23.6565 24.6247 10.9742 9.39351 -0.223035 -6.0992 68.6489
2359874 23.6366 24.5761 11.152 9.5432 -0.242817 -5.99006 68.9079
2359884 23.6465 24.5955 11.1834 9.68354 -0.199266 -5.94173 69.109
2359895 23.6465 24.5955 11.1834 9.68354 -0.199266 -5.94173 69.109
2359907 23.5967 24.5858 11.3612 9.77711 -0.214596 -5.85196 69.3209
2359915 23.5967 24.5858 11.3612 9.77711 -0.214596 -5.85196 69.3209
2359925 23.507 24.4886 11.3926 9.78646 -0.225745 -5.81496 69.1747
2359935 23.4174 24.4108 11.5705 9.94551 -0.227685 -5.69165 69.3441
2359945 23.4174 24.4108 11.5705 9.94551 -0.227685 -5.69165 69.3441
2359955 23.3476 24.4399 11.4868 9.93616 -0.165537 -5.71401 69.2105
2359965 23.2081 24.2649 11.5077 10.0204 -0.155991 -5.64011 69.001
2359985 23.1284 24.2746 11.5809 10.0017 -0.156933 -5.61431 68.9855
2359996 23.1284 24.2746 11.5809 10.0017 -0.156933 -5.61431 68.9855
2360006 23.0088 24.1968 11.5077 10.0484 -0.0986218 -5.59529 68.7617
2360019 22.939 24.1384 11.6018 10.0391 -0.132194 -5.55235 68.7184
2360026 22.939 24.1384 11.6018 10.0391 -0.132194 -5.55235 68.7184
2360039 22.8195 24.0995 11.6228 10.1888 -0.0559852 -5.47954 68.7305
2360047 22.8095 24.0801 11.7902 10.2823 -0.0859961 -5.39799 68.9621
2360068 22.7198 24.0509 11.8634 10.4227 -0.0396788 -5.31838 69.0568
2360077 22.7098 24.0023 11.8111 10.4788 -0.0144258 -5.30903 69.002
2360089 22.7098 24.0023 11.8111 10.4788 -0.0144258 -5.30903 69.002
2360101 22.7198 24.119 11.9052 10.5349 0.0104278 -5.28269 69.279
2360119 22.6401 24.0509 11.9052 10.5162 0.00789464 -5.2674 69.1125
2360133 22.5703 24.0217 11.8948 10.5537 0.0399411 -5.24554 69.0405
2360150 22.5205 24.0023 11.8738 10.5349 0.0518143 -5.24738 68.9316
2360159 22.4906 24.0509 11.8738 10.5443 0.0836551 -5.24728 68.9597
2360169 22.4906 24.0509 11.8738 10.5443 0.0836551 -5.24728 68.9597
2360186 22.4707 23.9828 11.7902 10.5069 0.083223 -5.27047 68.7506
2360213 22.4906 23.9926 11.8529 10.4507 0.0362575 -5.27271 68.7868
2360215 22.5504 24.0606 11.8215 10.4601 0.0539929 -5.29724 68.8927
2360230 22.5504 24.1093 11.7588 10.4414 0.0876695 -5.32811 68.8598
2360240 22.4807 24.1482 11.7797 10.4882 0.136429 -5.3038 68.8967
2360251 22.4807 24.1482 11.7797 10.4882 0.136429 -5.3038 68.8967
2360261 22.4707 24.1579 11.7274 10.4975 0.166056 -5.31644 68.8535
2360271 22.4308 24.226 11.7065 10.5537 0.233009 -5.31002 68.9169
2360281 22.4308 24.226 11.7065 10.5537 0.233009 -5.31002 68.9169
2360291 22.4109 24.333 11.7274 10.6285 0.297821 -5.29408 69.0997
2360301 22.4109 24.333 11.7274 10.6285 0.297821 -5.29408 69.0997
2360313 22.371 24.3232 11.6751 10.6192 0.324786 -5.30524 68.9885
2360321 22.2415 24.2357 11.7378 10.6379 0.324684 -5.25065 68.8529
2360333 22.2415 24.2357 11.7378 10.6379 0.324684 -5.25065 68.8529
2360342 22.3511 24.3135 11.7169 10.6566 0.326645 -5.27776 69.0381
2360354 22.2515 24.2843 11.7169 10.6285 0.342783 -5.26784 68.8812
2360361 22.2515 24.2843 11.7169 10.6285 0.342783 -5.26784 68.8812
2360371 22.1717 24.2843 11.6855 10.694 0.407144 -5.24653 68.8356
2360381 22.1717 24.2843 11.6855 10.694 0.407144 -5.24653 68.8356
2360391 22.0422 24.1384 11.7274 10.7314 0.400746 -5.18401 68.6395
2360403 21.8927 24.0315 11.832 10.8905 0.436005 -5.06981 68.6467
2360425 21.7532 23.9828 11.9262 11.0308 0.485593 -4.9741 68.693
2360432 21.7532 23.9828 11.9262 11.0308 0.485593 -4.9741 68.693
2360448 21.5838 23.7883 12.1772 11.2367 0.45937 -4.78838 68.786
2360452 21.3447 23.6522 12.3342 11.4425 0.514674 -4.62828 68.7735
2360462 21.3447 23.6522 12.3342 11.4425 0.514674 -4.62828 68.7735
2360472 21.1753 23.4966 12.6375 11.6483 0.482938 -4.43445 68.9577
2360482 21.0059 23.3215 12.7945 11.9103 0.518414 -4.2638 69.0321
2360493 21.0059 23.3215 12.7945 11.9103 0.518414 -4.2638 69.0321
2360502 20.8165 23.1367 13.0351 12.2097 0.540045 -4.05543 69.198
2360515 20.8165 23.1367 13.2652 12.2097 0.455379 -3.99226 69.4282
2360522 20.5574 22.8839 13.2652 12.35 0.510892 -3.87205 69.0566
2360532 20.2984 22.6796 13.5582 12.612 0.518855 -3.64605 69.1481
2360542 20.2984 22.6796 13.5582 12.612 0.518855 -3.64605 69.1481
2360554 20.0492 22.4268 13.7255 12.8553 0.545654 -3.45264 69.0568
2360564 19.7005 22.2128 14.0394 13.1827 0.598711 -3.18748 69.1354
2360584 19.3617 21.9211 14.3846 13.4728 0.595725 -2.91264 69.1401
2360594 19.3617 21.9211 14.3846 13.4728 0.595725 -2.91264 69.1401
2360605 18.9332 21.5515 14.6671 13.9125 0.674638 -2.58566 69.0642
2360614 18.5944 21.2014 15.1588 14.24 0.609943 -2.25387 69.1945
2360634 18.0363 20.754 15.6505 14.7826 0.668058 -1.81094 69.2234
2360647 17.4982 20.3844 16.1631 15.2317 0.70543 -1.40477 69.2775
2360668 16.9826 19.869 16.6757 15.8305 0.735748 -0.939783 69.3578
2360675 16.4087 19.3438 17.315 16.3638 0.714347 -0.44801 69.4313
2360695 15.9391 18.8089 17.9548 16.9345 0.663963 0.0304341 69.6374
2360705 15.9391 18.8089 17.9548 16.9345 0.663963 0.0304341 69.6374
2360716 15.2957 18.2546 18.4076 17.5261 0.747424 0.514541 69.4839
2360726 14.8696 17.6613 19.1065 18.1398 0.653881 1.01368 69.7773
2360737 14.8696 17.6613 19.1065 18.1398 0.653881 1.01368 69.7773
2360746 14.3391 17.0875 19.6578 18.6659 0.629571 1.48323 69.7504
2360760 13.8174 16.533 20.1697 19.2699 0.650463 1.95355 69.7899
2360781 13.3217 16.094 20.7603 19.7668 0.63577 2.38295 69.9427
2360796 12.887 15.4962 21.3411 20.3123 0.564158 2.84215 70.0365
2360806 12.5391 14.9544 21.8726 20.741 0.457737 3.23506 70.1071
2360816 12.5391 14.9544 21.8726 20.741 0.457737 3.23506 70.1071
2360831 12.1304 14.5341 22.3254 21.267 0.478691 3.61415 70.257
2360845 11.6783 14.0016 22.857 21.7249 0.423893 4.03533 70.2618
2360849 11.6783 14.0016 22.857 21.7249 0.423893 4.03533 70.2618
2360856 11.313 13.4973 23.2606 22.1244 0.373244 4.39659 70.1952
2360869 11.313 13.4973 23.2606 22.1244 0.373244 4.39659 70.1952
2360877 10.9565 13.0676 23.7528 22.4946 0.30342 4.74372 70.2714
2360888 10.6435 12.6566 24.0087 22.8453 0.302798 5.03618 70.154
2360910 10.2783 12.2082 24.4812 23.1765 0.222865 5.38274 70.1442
2360917 10.0435 11.8346 24.8651 23.6246 0.195649 5.67268 70.3678
2360927 10.0435 11.8346 24.8651 23.6246 0.195649 5.67268 70.3678
2360937 9.8 11.5824 25.1801 23.8779 0.170451 5.8934 70.4404
2360949 9.8 11.5824 25.1801 23.8779 0.170451 5.8934 70.4404
2360959 9.55652 11.2275 25.3868 24.1799 0.164923 6.13698 70.3507
2360971 9.31304 11.0033 25.6821 24.404 0.146353 6.34277 70.4025
2360979 9.31304 11.0033 25.6821 24.404 0.146353 6.34277 70.4025
2360989 9.21739 10.9846 25.7805 24.5112 0.176558 6.40264 70.4937
2361000 9.18261 10.8352 25.7707 24.4917 0.13288 6.45515 70.2802
2361009 9.18261 10.8352 25.7707 24.4917 0.13288 6.45515 70.2802
2361022 9.14783 10.8725 25.8593 24.5307 0.140628 6.46985 70.4103
2361029 9.14783 10.8725 25.8593 24.5307 0.140628 6.46985 70.4103
2361039 9.08696 10.7791 25.8888 24.5014 0.108451 6.51703 70.2563
2361049 9.09565 10.7137 25.938 24.5307 0.0749528 6.54386 70.2781
2361059 9.09565 10.7137 25.938 24.5307 0.0749528 6.54386 70.2781
2361069 9.09565 10.667 25.9282 24.5599 0.0722647 6.56051 70.2508
2361080 9.02609 10.5923 26.0759 24.6281 0.0421077 6.63065 70.3223
2361089 9.02609 10.5923 26.0759 24.6281 0.0421077 6.63065 70.3223
2361099 8.96522 10.4989 26.1546 24.7645 0.0509888 6.70365 70.3832
2361111 8.96522 10.4989 26.1546 24.7645 0.0509888 6.70365 70.3832
2361119 8.85217 10.4896 26.2629 24.7352 0.0390053 6.75074 70.3399
2361133 8.86957 10.3962 26.2727 24.8132 0.023827 6.78453 70.3516
2361139 8.86957 10.3962 26.2727 24.8132 0.023827 6.78453 70.3516
2361153 8.82609 10.2934 26.3023 24.9106 0.0268966 6.84465 70.3324
2361159 8.77391 10.2747 26.3318 24.9983 0.0594288 6.88023 70.3787
2361180 8.75652 10.2467 26.4598 25.0373 0.0239998 6.91355 70.5002
2361191 8.75652 10.2467 26.4598 25.0373 0.0239998 6.91355 70.5002
2361200 8.71304 10.1346 26.5582 25.0567 -0.0283465 6.97546 70.4626
2361210 8.62609 10.1253 26.6369 25.1054 -0.011459 7.01999 70.4938
2361222 8.62609 10.1253 26.6369 25.1054 -0.011459 7.01999 70.4938
2361231 8.56522 9.99451 26.6763 25.0957 -0.0537887 7.08335 70.3317
2361243 8.50435 9.93846 26.7551 25.2613 -0.0211611 7.14745 70.4592
2361252 8.50435 9.93846 26.7551 25.2613 -0.0211611 7.14745 70.4592
2361265 8.48696 9.86374 26.8338 25.1931 -0.0937507 7.17762 70.3776
2361271 8.48696 9.86374 26.8338 25.1931 -0.0937507 7.17762 70.3776
2361286 8.42609 9.77033 26.9224 25.3003 -0.0986546 7.24795 70.4191
2361291 8.47826 9.6956 27.0602 25.1736 -0.237629 7.2563 70.4077
2361301 8.47826 9.6956 27.0602 25.1736 -0.237629 7.2563 70.4077
2361312 8.45217 9.63022 27.1094 25.2321 -0.248247 7.29705 70.4239
2361322 8.4 9.6022 27.1587 25.1834 -0.274751 7.32253 70.3442
2361332 8.4 9.6022 27.1587 25.1834 -0.274751 7.32253 70.3442
2361344 8.3913 9.55549 27.2472 25.2516 -0.295079 7.35717 70.4456
2361352 8.4 9.55549 27.3063 25.1834 -0.34333 7.35342 70.4452
2361362 8.4 9.47143 27.3063 25.1834 -0.373611 7.38013 70.3611
2361374 8.43478 9.53681 27.2866 25.0665 -0.397484 7.33345 70.3247
2361382 8.43478 9.53681 27.2866 25.0665 -0.397484 7.33345 70.3247
2361397 8.49565 9.43407 27.2177 25.047 -0.438893 7.33712 70.1944
2361402 8.46957 9.44341 27.326 25.0957 -0.446598 7.35954 70.3347
2361418 8.46957 9.44341 27.326 25.0957 -0.446598 7.35954 70.3347
2361423 8.53913 9.50879 27.3752 25.0665 -0.474921 7.3189 70.4896
2361434 8.57391 9.51813 27.3654 25.1834 -0.438054 7.3166 70.6408
2361444 8.57391 9.51813 27.3654 25.1834 -0.438054 7.3166 70.6408
2361454 8.53043 9.48077 27.2669 25.0957 -0.433718 7.32192 70.3738
2361464 8.53043 9.48077 27.2669 25.0957 -0.433718 7.32192 70.3738
2361474 8.53043 9.49945 27.2866 25.0373 -0.454971 7.31176 70.3538
2361490 8.54783 9.47143 27.3457 25.1054 -0.467089 7.32901 70.4704
2361495 8.54783 9.47143 27.3457 25.1054 -0.467089 7.32901 70.4704
2361506 8.53043 9.48077 27.3358 25.1444 -0.440156 7.33473 70.4915
2361515 8.51304 9.38736 27.3654 25.1054 -0.492251 7.36887 70.3712
2361528 8.51304 9.38736 27.3654 25.1054 -0.492251 7.36887 70.3712
2361535 8.45217 9.35934 27.3752 25.1347 -0.474031 7.40138 70.3214
2361545 8.45217 9.35934 27.3752 25.1347 -0.474031 7.40138 70.3214
2361555 8.4087 9.28462 27.454 25.1736 -0.499284 7.45176 70.3209
2361565 8.38261 9.29396 27.5229 25.2711 -0.475541 7.47491 70.4705
2361586 8.38261 9.27527 27.4933 25.3003 -0.461447 7.48083 70.4515
2361596 8.37391 9.26593 27.5426 25.3198 -0.47189 7.49391 70.5022
2361607 8.37391 9.26593 27.5426 25.3198 -0.47189 7.49391 70.5022
2361616 8.38261 9.28462 27.6213 25.349 -0.484976 7.49667 70.6375
2361626 8.34783 9.18187 27.5622 25.3587 -0.485967 7.53533 70.4507
2361638 8.34783 9.18187 27.5622 25.3587 -0.485967 7.53533 70.4507
2361648 8.33913 9.20055 27.5622 25.4562 -0.441007 7.54245 70.5581
2361667 8.2 9.17253 27.6312 25.5049 -0.409083 7.60833 70.5086
2361680 8.1913 9.16319 27.641 25.5731 -0.388294 7.62228 70.5686
2361689 8.1913 9.16319 27.641 25.5731 -0.388294 7.62228 70.5686
2361701 8.14783 9.14451 27.6115 25.6413 -0.345002 7.64626 70.5451
2361711 8.11304 9.10714 27.641 25.651 -0.353093 7.67353 70.5122
2361729 8.03478 9.14451 27.6213 25.7095 -0.284401 7.69071 70.51
2361739 8.03478 9.14451 27.6213 25.7095 -0.284401 7.69071 70.51
2361749 8.01739 9.19121 27.513 25.8556 -0.171308 7.6852 70.5772
2361759 7.93043 9.16319 27.3949 25.953 -0.0742257 7.72008 70.4415
2361770 7.93043 9.16319 27.3949 25.953 -0.0742257 7.72008 70.4415
2361779 7.88696 9.13517 27.4441 26.0407 -0.0550374 7.75726 70.5069
2361792 7.8087 9.16319 27.3949 26.1284 0.0311911 7.77742 70.4952
2361814 7.77391 9.20055 27.4441 26.2745 0.0908911 7.79655 70.6931
2361821 7.77391 9.20055 27.4441 26.2745 0.0908911 7.79655 70.6931
2361830 7.70435 9.19121 27.4638 26.2648 0.101879 7.82304 70.6241
2361840 7.68696 9.20055 27.4343 26.2842 0.128728 7.82462 70.606
2361850 7.68696 9.20055 27.4343 26.2842 0.128728 7.82462 70.606
2361860 7.66087 9.14451 27.4737 26.3524 0.128275 7.86208 70.6315
2361870 7.57391 9.18187 27.4146 26.3622 0.196913 7.87317 70.5325
2361881 7.57391 9.18187 27.4146 26.3622 0.196913 7.87317 70.5325
2361890 7.57391 9.14451 27.454 26.4401 0.19711 7.89711 70.6125
2361904 7.57391 9.14451 27.454 26.4401 0.19711 7.89711 70.6125
2361912 7.50435 9.08846 27.4638 26.4011 0.185025 7.935 70.4578
2361920 7.51304 9.06044 27.5721 26.4206 0.140271 7.95407 70.5662
2361941 7.48696 9.07912 27.5229 26.4206 0.173709 7.95156 70.5096
2361951 7.44348 9.13517 27.4933 26.4596 0.233209 7.94842 70.5316
2361961 7.44348 9.13517 27.4933 26.4596 0.233209 7.94842 70.5316
2361972 7.47826 9.11648 27.513 26.5278 0.231114 7.95196 70.6356
2361981 7.47826 9.11648 27.513 26.5278 0.231114 7.95196 70.6356
2361995 7.46087 9.07912 27.4835 26.4888 0.221089 7.96293 70.5123
2362001 7.4087 9.14451 27.4244 26.5278 0.297552 7.95663 70.5054
2362011 7.4087 9.14451 27.4244 26.5278 0.297552 7.95663 70.5054
2362023 7.45217 9.16319 27.4244 26.4791 0.271443 7.93153 70.5189
2362032 7.36522 9.18187 27.4441 26.4791 0.302118 7.95572 70.4703
2362043 7.36522 9.18187 27.4441 26.4791 0.302118 7.95572 70.4703
2362053 7.51304 9.25659 27.3851 26.4888 0.299856 7.87848 70.6435
2362064 7.51304 9.25659 27.3851 26.4888 0.299856 7.87848 70.6435
2362072 7.48696 9.26593 27.3949 26.5278 0.322554 7.88882 70.6756
2362086 7.52174 9.27527 27.4835 26.5083 0.274885 7.8815 70.7888
2362109 7.55652 9.37802 27.4047 26.4304 0.299257 7.82127 70.7697
2362130 7.56522 9.3967 27.2472 26.3232 0.321639 7.78547 70.5324
2362132 7.56522 9.3967 27.2472 26.3232 0.321639 7.78547 70.5324
2362134 7.63478 9.47143 27.1094 26.1089 0.297222 7.7026 70.3245
2362144 7.68696 9.53681 26.9716 26.0602 0.333923 7.64524 70.2556
2362154 7.68696 9.53681 26.9716 26.0602 0.333923 7.64524 70.2556
2362164 7.77391 9.67692 26.824 25.8556 0.333172 7.53498 70.1304
2362175 7.77391 9.67692 26.824 25.8556 0.333172 7.53498 70.1304
2362184 7.86957 9.79835 26.6665 25.6997 0.343415 7.43172 70.0341
2362197 8.03478 10.0599 26.4991 25.5633 0.388166 7.26251 70.1571
2362204 8.03478 10.0599 26.4991 25.5633 0.388166 7.26251 70.1571
2362214 8.2 10.228 26.4204 25.4659 0.381693 7.13758 70.3143
2362223 8.2 10.228 26.4204 25.4659 0.381693 7.13758 70.3143
2362235 8.3913 10.3681 26.3416 25.2808 0.325367 7.00386 70.3819
2362244 8.53913 10.6484 26.1546 25.1054 0.376189 6.82903 70.4475
2362254 8.53913 10.6484 26.1546 25.1054 0.376189 6.82903 70.4475
2362264 8.71304 10.7885 25.9873 24.8619 0.337613 6.68387 70.3507
2362274 8.94783 10.8538 25.8199 24.5404 0.223234 6.53316 70.162
2362284 8.94783 10.8538 25.8199 24.5404 0.223234 6.53316 70.162
2362294 9.09565 11.0967 25.5345 24.2384 0.25191 6.34183 69.9652
2362304 9.09565 11.0967 25.5345 24.2384 0.25191 6.34183 69.9652
2362314 9.2087 11.2275 25.3376 24.0338 0.256062 6.2175 69.8076
2362324 9.46087 11.4984 25.1604 23.7513 0.224835 6.00088 69.8709
2362344 9.61739 11.6571 24.9931 23.5077 0.19865 5.85298 69.7753
2362357 9.7913 11.8253 24.7568 23.2447 0.187403 5.68493 69.6181
2362380 10.087 12.1055 24.6288 23.0401 0.15381 5.47008 69.8614
2362385 10.2696 12.2736 24.4713 22.7186 0.0901073 5.30166 69.7332
2362406 10.5478 12.5632 24.2252 22.4848 0.0984401 5.0699 69.8211
2362417 10.5478 12.5632 24.2252 22.4848 0.0984401 5.0699 69.8211
2362426 10.8261 12.9088 23.8807 22.0756 0.0995934 4.78284 69.6912
2362437 11.1217 13.2918 23.4771 21.6567 0.125679 4.46898 69.5474
2362456 11.6348 13.7214 23.0637 21.0917 0.0412315 4.0567 69.5116
2362470 12.0957 14.2165 22.4829 20.361 -0.00037998 3.58576 69.1561
2362477 12.0957 14.2165 22.4829 20.361 -0.00037998 3.58576 69.1561
2362492 12.7391 14.8797 21.8923 19.7375 -0.00513345 3.03494 69.2486
2362507 13.2522 15.3747 21.3017 19.114 -0.0235677 2.5612 69.0426
2362517 13.8522 16.0286 20.652 18.4516 -0.00870377 2.00542 68.9843
2362529 13.8522 16.0286 20.652 18.4516 -0.00870377 2.00542 68.9843
2362540 14.487 16.7385 20.0122 17.7599 -0.000278652 1.42323 68.9975
2362549 15.1913 17.4668 19.2148 17.0097 0.0255644 0.776632 68.8827
2362570 15.8783 18.1184 18.5651 16.317 -0.00289679 0.192831 68.8788
2362580 16.3652 18.6436 17.8564 15.6621 0.0306636 -0.32622 68.5273
2362590 16.3652 18.6436 17.8564 15.6621 0.0306636 -0.32622 68.5273
2362600 16.8174 19.1299 17.315 15.1288 0.0461519 -0.768407 68.391
2362610 16.8174 19.1299 17.315 15.1288 0.0461519 -0.768407 68.391
2362620 17.1993 19.4022 16.8117 14.6984 0.0328839 -1.12126 68.1116
2362631 17.6676 19.9079 16.4455 14.2867 0.0298083 -1.50274 68.3078
2362640 17.6676 19.9079 16.4455 14.2867 0.0298083 -1.50274 68.3078
2362654 18.0762 20.3553 16.0794 14.0341 0.0852734 -1.82026 68.545
2362660 18.0762 20.3553 16.0794 14.0341 0.0852734 -1.82026 68.545
2362670 18.2755 20.6665 15.8178 13.8751 0.163254 -2.02136 68.6349
2362679 18.5445 21.0652 15.5458 13.6786 0.237316 -2.26312 68.8342
2362701 18.694 21.3278 15.3157 13.4634 0.283965 -2.45114 68.8009
2362710 18.8136 21.5709 15.1797 13.2482 0.300041 -2.60635 68.8124
2362722 18.8136 21.5709 15.1797 13.2482 0.300041 -2.60635 68.8124
2362731 19.0826 21.9016 14.8658 13.0237 0.354549 -2.8519 68.8738
2362745 19.3019 22.0767 14.4788 12.8365 0.412178 -3.07085 68.6938
2362752 19.3019 22.0767 14.4788 12.8365 0.412178 -3.07085 68.6938
2362761 19.551 22.4073 14.1335 12.6401 0.495711 -3.3139 68.7319
2362782 19.6307 22.6213 13.8197 12.35 0.555706 -3.5257 68.4217
2362792 19.9097 23.1076 13.4849 12.0974 0.659737 -3.81233 68.5996
2362802 19.9097 23.1076 13.4849 12.0974 0.659737 -3.81233 68.5996
2362816 20.2485 23.5452 13.1397 11.8916 0.744113 -4.08917 68.825
2362823 20.5574 23.9342 12.7108 11.5641 0.810754 -4.40987 68.7665
2362833 20.5574 23.9342 12.7108 11.5641 0.810754 -4.40987 68.7665
2362842 20.9361 24.333 12.2923 11.2367 0.850749 -4.73998 68.798
2362855 20.9361 24.333 12.2923 11.2367 0.850749 -4.73998 68.798
2362862 21.1852 24.6831 11.8634 10.9185 0.929716 -5.04434 68.6502
2362872 21.4144 25.0429 11.6228 10.6379 0.961751 -5.28174 68.718
2362892 21.4443 25.1304 11.4449 10.4882 0.996003 -5.39537 68.5078
2362907 21.5639 25.2666 11.1834 10.3104 1.0354 -5.56245 68.3243
2362912 21.5639 25.2666 11.1834 10.3104 1.0354 -5.56245 68.3243
2362922 21.7433 25.4319 11.0892 10.2262 1.03139 -5.6635 68.4906
2362933 21.7433 25.4319 11.0892 10.2262 1.03139 -5.6635 68.4906
2362943 21.7831 25.4611 11.0892 10.1607 1.00354 -5.69266 68.4941
2362953 21.8927 25.5778 11.0578 10.2449 1.04406 -5.7074 68.7733
2362974 22.092 25.8015 11.0265 10.2168 1.04859 -5.78206 69.1368
2362982 22.1618 25.9085 10.9637 10.0671 1.03115 -5.86953 69.1011
2363004 22.3113 26.0349 10.7649 9.96423 1.05788 -5.99715 69.0753
2363024 22.5106 26.2002 10.5871 9.72097 1.02275 -6.17282 69.0188
2363034 22.6401 26.4725 10.3151 9.56192 1.11585 -6.35653 68.9896
2363045 22.6401 26.4725 10.3151 9.56192 1.11585 -6.35653 68.9896
2363054 22.7995 26.6281 10.0117 9.33737 1.14657 -6.56006 68.7767
2363068 22.8693 26.8421 9.82338 9.0754 1.17505 -6.73645 68.6102
2363084 22.9889 26.9977 9.62462 8.97248 1.22358 -6.86522 68.5837
2363094 22.9889 26.9977 9.62462 8.97248 1.22358 -6.86522 68.5837
2363105 23.0287 27.1922 9.41538 8.81343 1.30078 -7.01072 68.4498
2363115 23.1682 27.3284 9.39446 8.75729 1.28298 -7.06751 68.6484
2363137 23.2081 27.3186 9.23754 8.59824 1.26943 -7.173 68.3625
2363145 23.2181 27.3381 9.30031 8.56081 1.23527 -7.16815 68.4173
2363160 23.2181 27.3381 9.30031 8.56081 1.23527 -7.16815 68.4173
2363166 23.3675 27.3867 9.32123 8.6918 1.23233 -7.14174 68.7673
2363182 23.517 27.3673 9.41538 8.66373 1.12329 -7.13534 68.9634
2363186 23.517 27.3673 9.41538 8.66373 1.12329 -7.13534 68.9634
2363196 23.5569 27.3673 9.45723 8.71987 1.1118 -7.10849 69.1012
2363217 23.5469 27.2311 9.45723 8.74794 1.07813 -7.08278 68.9832
2363229 23.5768 27.1922 9.46769 8.80407 1.06887 -7.06045 69.0408
2363237 23.5768 27.1922 9.46769 8.80407 1.06887 -7.06045 69.0408
2363252 23.6067 27.2603 9.40492 8.82278 1.11133 -7.08577 69.0947
2363257 23.6764 27.2603 9.36308 8.68244 1.05217 -7.1521 68.9823
2363267 23.6764 27.2019 9.36308 8.68244 1.03189 -7.14546 68.9239
2363279 23.7462 27.3381 9.26892 8.58888 1.05591 -7.22921 68.9421
2363287 23.7462 27.3381 9.26892 8.58888 1.05591 -7.22921 68.9421
2363297 23.7761 27.3965 9.15385 8.46725 1.06615 -7.31567 68.7936
2363307 23.8159 27.377 9.14338 8.42983 1.03521 -7.33349 68.7662
2363319 23.8159 27.377 9.14338 8.42983 1.03521 -7.33349 68.7662
2363329 23.8558 27.2992 9.01785 8.28013 0.988156 -7.41904 68.453
2363341 23.8159 27.1533 8.99692 8.27078 0.956675 -7.40835 68.237
2363349 23.8159 27.1533 8.99692 8.27078 0.956675 -7.40835 68.237
2363359 23.7661 27.0658 9.12246 8.29884 0.906935 -7.34264 68.2532
2363379 23.6964 26.9977 9.15385 8.39241 0.930503 -7.28627 68.2403
2363389 23.7063 26.9685 9.384 8.53275 0.878733 -7.16373 68.5916
2363398 23.7063 26.9685 9.384 8.53275 0.878733 -7.16373 68.5916
2363415 23.7462 26.9783 9.46769 8.6918 0.891417 -7.09127 68.8839
2363420 23.9853 27.1241 9.60369 8.62631 0.779286 -7.11272 69.3395
2363433 23.9853 27.1241 9.60369 8.62631 0.779286 -7.11272 69.3395
2363440 24.2245 27.2992 9.53046 8.58888 0.765732 -7.19477 69.643
2363460 24.2345 27.1728 9.47815 8.48597 0.701338 -7.23132 69.3714
2363470 24.2245 27.1241 9.35262 8.42047 0.711605 -7.28618 69.1217
2363482 24.2245 27.1241 9.35262 8.42047 0.711605 -7.28618 69.1217
2363491 24.1448 27.0074 9.33169 8.28949 0.661758 -7.31337 68.7734
2363502 24.1249 26.7838 9.30031 8.29884 0.604835 -7.29322 68.5078
2363511 24.1249 26.7838 9.30031 8.29884 0.604835 -7.29322 68.5078
2363524 24.0053 26.7059 9.40492 8.26142 0.569326 -7.24906 68.3776
2363531 24.0053 26.7059 9.40492 8.26142 0.569326 -7.24906 68.3776
2363541 23.8957 26.4531 9.52 8.32691 0.500154 -7.14895 68.1957
2363551 23.9555 26.4045 9.73969 8.48597 0.435689 -7.02792 68.5856
2363561 23.9555 26.4045 9.73969 8.48597 0.435689 -7.02792 68.5856
2363571 24.0152 26.3947 9.89662 8.64502 0.408944 -6.93276 68.9516
2363581 24.0352 26.3072 10.0326 8.74794 0.357106 -6.84906 69.1229
2363593 24.0352 26.3072 10.0326 8.74794 0.357106 -6.84906 69.1229
2363601 24.1547 26.3753 10.1477 8.72922 0.288901 -6.84077 69.407
2363621 24.085 26.2294 10.1582 8.71051 0.251785 -6.81794 69.1831
2363631 24.0551 26.1127 10.2 8.71987 0.208962 -6.78441 69.0877
2363642 24.0551 26.1127 10.2 8.71987 0.208962 -6.78441 69.0877
2363652 23.9555 25.9668 10.1791 8.67309 0.183707 -6.77652 68.7744
2363663 23.9555 25.7431 10.2732 8.70116 0.0784904 -6.71098 68.673
2363672 23.9555 25.7431 10.2732 8.70116 0.0784904 -6.71098 68.673
2363684 23.8259 25.5875 10.4302 8.71051 0.0153095 -6.62384 68.5541
2363705 23.8259 25.4416 10.4825 8.67309 -0.0707492 -6.60128 68.4231
2363712 23.9654 25.3736 10.6498 8.71987 -0.189866 -6.54268 68.7087
2363732 24.0352 25.3249 10.7231 8.71987 -0.25923 -6.52235 68.8031
2363742 24.1647 25.2569 10.9742 8.85085 -0.372273 -6.41113 69.2466
2363764 24.3441 25.2763 11.0055 8.83214 -0.446732 -6.4318 69.4581
2363775 24.5135 25.3347 10.9951 8.79472 -0.495122 -6.47456 69.6379
2363785 24.5135 25.3347 10.9951 8.79472 -0.495122 -6.47456 69.6379
2363794 24.6331 25.3833 10.9009 8.6918 -0.523959 -6.55596 69.6091
2363805 24.6331 25.3833 10.9009 8.6918 -0.523959 -6.55596 69.6091
2363817 24.6829 25.3541 10.7858 8.47661 -0.590916 -6.66121 69.2995
2363825 24.7526 25.4319 10.5557 8.36434 -0.547022 -6.78635 69.1046
2363845 24.7925 25.4125 10.3465 8.18657 -0.560068 -6.91145 68.738
2363855 24.7028 25.3152 10.3046 8.14915 -0.563392 -6.91473 68.4718
2363867 24.7028 25.3152 10.3046 8.14915 -0.563392 -6.91473 68.4718
2363875 24.7526 25.3152 10.2314 8.09301 -0.576015 -6.96207 68.3923
2363896 24.6829 25.2471 10.2523 8.13979 -0.56653 -6.9241 68.3221
2363909 24.6331 25.218 10.3465 8.31756 -0.526892 -6.82777 68.515
2363931 24.6231 25.1985 10.4511 8.36434 -0.550476 -6.77612 68.637
2363936 24.5533 25.218 10.5662 8.53275 -0.496873 -6.68048 68.8702
2363946 24.5533 25.218 10.5662 8.53275 -0.496873 -6.68048 68.8702
2363957 24.5135 25.2958 10.7126 8.72922 -0.433607 -6.57767 69.2511
2363977 24.4238 25.218 10.7963 8.71051 -0.466977 -6.537 69.1486
2363987 24.3242 25.1888 10.7754 8.83214 -0.390118 -6.48985 69.1205
2364000 24.3242 25.1888 10.7754 8.83214 -0.390118 -6.48985 69.1205
2364007 24.1149 25.0526 10.9009 8.88828 -0.3897 -6.3906 68.9567
2364016 24.0152 24.9262 10.88 8.95377 -0.369053 -6.34844 68.7752
2364046 23.8857 24.7998 11.016 8.99119 -0.404237 -6.2623 68.6927
2364059 23.7661 24.7706 11.0474 9.14089 -0.328125 -6.18736 68.725
2364069 23.7761 24.6636 11.2566 9.29059 -0.390835 -6.06474 68.9869
2364079 23.7761 24.6636 11.2566 9.29059 -0.390835 -6.06474 68.9869
2364091 23.6465 24.6053 11.3717 9.43093 -0.355531 -5.96251 69.0544
2364099 23.4871 24.4886 11.5286 9.64612 -0.318524 -5.81362 69.1504
2364113 23.4871 24.4886 11.5286 9.64612 -0.318524 -5.81362 69.1504
2364120 23.4174 24.3719 11.6542 9.76775 -0.336616 -5.71454 69.2111
2364129 23.1981 24.226 11.8843 9.9268 -0.335687 -5.54912 69.2352
2364139 23.1981 24.226 11.8843 9.9268 -0.335687 -5.54912 69.2352
2364149 23.1483 24.1773 11.8948 10.0578 -0.291553 -5.49374 69.2782
2364159 23.1483 24.1773 11.8948 10.0578 -0.291553 -5.49374 69.2782
2364169 22.8494 24.0606 12.0203 10.1981 -0.220928 -5.35776 69.1284
2364182 22.6401 23.8467 12.1145 10.3198 -0.213331 -5.23481 68.921
2364189 22.6401 23.8467 12.1145 10.3198 -0.213331 -5.23481 68.921
2364199 22.4209 23.7105 12.2086 10.4695 -0.163314 -5.11267 68.8095
2364209 22.4209 23.7105 12.3655 10.4695 -0.219825 -5.0669 68.9664
2364220 22.1817 23.5355 12.3655 10.694 -0.115511 -4.94156 68.7767
2364230 22.0522 23.4868 12.4388 10.8811 -0.0446454 -4.84014 68.8589
2364240 22.0522 23.4868 12.4388 10.8811 -0.0446454 -4.84014 68.8589
2364253 21.9426 23.2826 12.6271 11.0682 -0.0793591 -4.6858 68.9205
2364260 21.7732 23.1465 12.8886 11.2834 -0.0839055 -4.50436 69.0917
2364275 21.7732 23.1465 12.8886 11.2834 -0.0839055 -4.50436 69.0917
2364280 21.7333 23.02 13.056 11.4986 -0.0976264 -4.37151 69.3079
2364300 21.5739 22.8839 13.2025 11.6857 -0.0745192 -4.23302 69.3459
2364310 21.3746 22.7088 13.4431 11.8729 -0.0850022 -4.0564 69.3993
2364330 21.1553 22.4559 13.5372 11.9196 -0.114729 -3.94271 69.0682
2364344 20.9461 22.2614 13.7569 12.1255 -0.114369 -3.76143 69.0899
2364350 20.9461 22.2614 13.7569 12.1255 -0.114369 -3.76143 69.0899
2364360 20.7767 22.0864 14.008 12.2658 -0.156377 -3.59921 69.1369
2364370 20.7767 22.0864 14.008 12.2658 -0.156377 -3.59921 69.1369
2364380 20.4877 21.8724 14.1335 12.4529 -0.107276 -3.43171 68.9466
2364392 20.2485 21.5223 14.4683 12.6775 -0.187558 -3.1832 68.9166
2364400 20.2485 21.5223 14.4683 12.6775 -0.187558 -3.1832 68.9166
2364415 20.0492 21.3473 14.7298 12.8927 -0.195292 -2.99352 69.019
2364420 19.7603 21.0458 15.0855 13.1547 -0.233676 -2.72987 69.0462
2364440 19.4912 20.754 15.4308 13.5476 -0.224042 -2.4414 69.2236
2364450 19.4912 20.754 15.4308 13.5476 -0.224042 -2.4414 69.2236
2364462 19.1325 20.4525 15.8702 13.8002 -0.270699 -2.14741 69.2554
2364470 18.8236 20.0635 16.3514 14.109 -0.361398 -1.82272 69.3474
2364490 18.5445 19.6842 16.6443 14.3803 -0.405884 -1.56039 69.2534
2364501 18.1758 19.2271 17.0787 14.6703 -0.490639 -1.2264 69.1521
2364511 18.1758 19.2271 17.0787 14.6703 -0.490639 -1.2264 69.1521
2364521 17.9267 18.8381 17.5316 15.0165 -0.578418 -0.912548 69.3129
2364541 17.5182 18.3421 18.0139 15.3627 -0.659792 -0.538087 69.2369
2364555 17.1495 17.8169 18.4962 15.7556 -0.748767 -0.154843 69.2183
2364561 17.1495 17.8169 18.4962 15.7556 -0.748767 -0.154843 69.2183
2364571 16.8 17.4376 18.9392 16.1205 -0.786835 0.177948 69.2974
2364581 16.4435 16.9533 19.52 16.5416 -0.88852 0.575473 69.4583
2364592 16.4435 16.9533 19.52 16.5416 -0.88852 0.575473 69.4583
2364602 16.1304 16.589 19.9826 16.9439 -0.926179 0.906093 69.6459
2364611 16.1304 16.589 19.9826 16.9439 -0.926179 0.906093 69.6459
2364626 15.887 16.1967 20.3272 17.3312 -0.962898 1.199 69.7421
2364631 15.687 15.8978 20.6225 17.4871 -1.04905 1.40431 69.6943
2364651 15.4609 15.6082 20.8981 17.7501 -1.07598 1.63068 69.7173
2364661 15.1652 15.2626 21.1048 17.8378 -1.14226 1.84115 69.3705
2364672 15.1652 15.2626 21.1048 17.8378 -1.14226 1.84115 69.3705
2364697 14.9565 14.9918 21.4592 18.1009 -1.19521 2.07423 69.5083
2364698 14.9565 14.9918 21.4592 18.1009 -1.19521 2.07423 69.5083
2364702 14.6783 14.6462 21.8037 18.3736 -1.24535 2.3423 69.5018
2364712 14.4435 14.3005 22.1482 18.549 -1.34724 2.58201 69.4413
2364723 14.4435 14.3005 22.1482 18.549 -1.34724 2.58201 69.4413
2364735 14.2087 14.0764 22.4928 18.8607 -1.35139 2.81491 69.6386
2364744 14.0261 13.8148 22.7389 18.9874 -1.42406 2.99394 69.5672
2364766 13.8609 13.656 23.0342 19.2017 -1.44699 3.16524 69.7528
2364774 13.8609 13.656 23.0342 19.2017 -1.44699 3.16524 69.7528
2364789 13.7217 13.4225 23.2113 19.3186 -1.50412 3.31235 69.6742
2364794 13.5565 13.1797 23.4673 19.4745 -1.5678 3.48868 69.678
2364814 13.3913 12.9181 23.6248 19.5817 -1.6242 3.646 69.5159
2364824 13.1826 12.6286 23.9102 19.9032 -1.63776 3.87842 69.6246
2364834 13.1826 12.6286 23.9102 19.9032 -1.63776 3.87842 69.6246
2364846 12.9304 12.4044 24.3138 20.1077 -1.69595 4.1043 69.7564
2364858 12.9304 12.4044 24.3138 20.1077 -1.69595 4.1043 69.7564
2364864 12.6696 12.1522 24.5698 20.4 -1.67898 4.33033 69.7915
2364874 12.5478 12.0214 24.7765 20.6728 -1.65317 4.47311 70.0185
2364884 12.5478 12.0214 24.7765 20.6728 -1.65317 4.47311 70.0185
2364894 12.3304 11.8907 24.9734 20.8384 -1.63307 4.6244 70.0329
2364904 12.087 11.7038 25.1506 21.0138 -1.61529 4.7974 69.9551
2364927 11.9217 11.517 25.3573 21.2865 -1.59649 4.96665 70.0826
2364948 11.6783 11.3956 25.4754 21.4911 -1.52303 5.1169 70.0404
2364955 11.4174 11.2088 25.7215 21.7347 -1.4966 5.31446 70.0823
2364971 11.4174 11.2088 25.7215 21.7347 -1.4966 5.31446 70.0823
2364976 11.2435 11.0407 25.9282 21.9587 -1.48647 5.47294 70.1711
2364985 11.0174 10.8445 26.0365 22.0951 -1.46951 5.62975 69.9935
2364997 11.0174 10.8445 26.0365 22.0951 -1.46951 5.62975 69.9935
2365005 10.9565 10.6577 26.2432 22.3095 -1.50804 5.75879 70.1669
2365018 10.9565 10.6577 26.2432 22.3095 -1.50804 5.75879 70.1669
2365025 10.713 10.5176 26.4696 22.4361 -1.50741 5.91885 70.1363
2365035 10.6 10.3962 26.7452 22.6602 -1.52301 6.05297 70.4016
2365055 10.4435 10.2187 27.0307 22.7673 -1.59244 6.20262 70.4602
2365065 10.4435 10.2187 27.0307 22.7673 -1.59244 6.20262 70.4602
2365076 10.2696 10.0412 27.1783 22.7966 -1.63978 6.33076 70.2857
2365087 10.2174 9.8544 27.3851 22.8745 -1.73236 6.43833 70.3313
2365102 10.2174 9.8544 27.3851 22.8745 -1.73236 6.43833 70.3313
2365117 9.97391 9.52747 27.7493 22.9135 -1.8821 6.66182 70.1641
2365124 9.97391 9.52747 27.7493 22.9135 -1.8821 6.66182 70.1641
2365135 9.90435 9.34066 27.9461 22.9427 -1.98447 6.76788 70.1339
2365157 9.83478 9.14451 28.1135 23.0011 -2.06959 6.87692 70.0939
2365165 9.82609 9.13517 28.3694 23.1765 -2.08626 6.9322 70.5072
2365179 9.82609 9.13517 28.3694 23.1765 -2.08626 6.9322 70.5072
2365185 9.6087 9.06044 28.5269 23.2447 -2.06929 7.04901 70.4408
2365195 9.53043 8.89231 28.5466 23.4006 -2.05491 7.14604 70.3699
2365205 9.53043 8.89231 28.5466 23.4006 -2.05491 7.14604 70.3699
2365215 9.46087 8.83626 28.6943 23.4688 -2.07568 7.20958 70.4602
2365227 9.46087 8.83626 28.6943 23.4688 -2.07568 7.20958 70.4602
2365235 9.34783 8.73352 28.8419 23.5467 -2.09647 7.30253 70.47
2365245 9.28696 8.62143 28.9108 23.6539 -2.10098 7.3765 70.4731
2365265 9.2 8.57473 29.0782 23.7026 -2.12629 7.44223 70.5555
2365277 9.05217 8.46264 29.1569 23.8877 -2.07583 7.55316 70.5594
2365299 8.92174 8.32253 29.2652 24.0338 -2.06632 7.66652 70.5433
2365305 8.92174 8.32253 29.2652 24.0338 -2.06632 7.66652 70.5433
2365315 8.73913 8.16374 29.4719 24.1605 -2.08649 7.81088 70.5352
2365330 8.56522 8.10769 29.6885 24.1897 -2.11064 7.91028 70.5511
2365336 8.56522 8.10769 29.6885 24.1897 -2.11064 7.91028 70.5511
2365348 8.36522 7.91154 29.8361 24.3943 -2.0904 8.07442 70.5072
2365356 8.26957 7.84615 30.033 24.4722 -2.11843 8.15399 70.6209
2365376 8.12174 7.73407 30.161 24.6183 -2.09893 8.26576 70.6351
2365386 8.12174 7.73407 30.161 24.6183 -2.09893 8.26576 70.6351
2365396 8.03478 7.62198 30.2102 24.667 -2.11102 8.34076 70.534
2365406 7.98261 7.62198 30.348 24.7352 -2.1126 8.37739 70.6878
2365426 7.88696 7.6033 30.3972 24.706 -2.11594 8.41713 70.5935
2365436 7.82609 7.47253 30.4366 24.7742 -2.13303 8.49082 70.5094
2365457 7.81739 7.50989 30.5449 24.8619 -2.11726 8.49934 70.734
2365479 7.75652 7.41648 30.5941 24.8911 -2.13811 8.55786 70.6582
2365490 7.65217 7.42582 30.7221 24.9203 -2.13095 8.60383 70.7204
2365513 7.63478 7.37912 30.8402 24.9788 -2.15897 8.64113 70.8329
2365519 7.58261 7.3978 30.791 25.1444 -2.05573 8.66273 70.9158
2365529 7.58261 7.3978 30.791 25.1444 -2.05573 8.66273 70.9158
2365539 7.57391 7.3511 30.8107 25.086 -2.09947 8.67777 70.8216
2365549 7.57391 7.3511 30.8107 25.086 -2.09947 8.67777 70.8216
2365561 7.46087 7.24835 30.791 25.1347 -2.07717 8.75271 70.6349
2365569 7.45217 7.24835 30.8008 25.1931 -2.05515 8.76166 70.6945
2365589 7.38261 7.24835 30.9485 25.1931 -2.08047 8.79803 70.7726
2365599 7.4087 7.18297 30.8992 25.2516 -2.07563 8.81207 70.7425
2365611 7.4087 7.18297 30.8992 25.2516 -2.07563 8.81207 70.7425
2365619 7.43478 7.29505 30.8894 25.2029 -2.05665 8.76049 70.8221
2365640 7.3913 7.1456 30.85 25.1834 -2.09449 8.82024 70.5703
2365650 7.41739 7.19231 30.8205 25.2613 -2.0456 8.79995 70.6915
2365660 7.41739 7.19231 30.8205 25.2613 -2.0456 8.79995 70.6915
2365670 7.4 7.16429 30.7516 25.1931 -2.05441 8.80322 70.509
2365682 7.44348 7.28571 30.7713 25.1347 -2.05081 8.74425 70.6351
2365690 7.44348 7.28571 30.7713 25.1347 -2.05081 8.74425 70.6351
2365703 7.46957 7.27637 30.6433 25.1347 -2.02124 8.72726 70.5239
2365711 7.46957 7.32308 30.6827 25.1542 -2.00873 8.7168 70.6295
2365727 7.46957 7.32308 30.6827 25.1542 -2.00873 8.7168 70.6295
2365731 7.57391 7.34176 30.6925 25.1542 -2.0387 8.67644 70.7624
2365752 7.55652 7.33242 30.6433 25.2126 -1.99831 8.68621 70.7449
2365763 7.62609 7.45385 30.5843 25.1834 -1.96659 8.61449 70.8476
2365776 7.62609 7.45385 30.5843 25.1834 -1.96659 8.61449 70.8476
2365785 7.66957 7.43516 30.4268 25.086 -1.97373 8.58315 70.6174
2365792 7.69565 7.50989 30.3382 25.0567 -1.93596 8.53876 70.6004
2365804 7.69565 7.50989 30.3382 25.0567 -1.93596 8.53876 70.6004
2365814 7.77391 7.58462 30.1708 24.9106 -1.9341 8.45889 70.4399
2365824 7.8087 7.6033 30.0625 24.7937 -1.94762 8.42007 70.2682
2365834 7.8087 7.6033 30.0625 24.7937 -1.94762 8.42007 70.2682
2365849 7.94783 7.72473 29.9936 24.784 -1.92788 8.32611 70.4501
2365864 8.13913 7.80879 29.7771 24.5794 -1.96575 8.19477 70.3044
2365875 8.28696 7.92088 29.6589 24.5209 -1.95492 8.09205 70.3877
2365899 8.44348 8.04231 29.5211 24.365 -1.97424 7.97201 70.372
2365905 8.58261 8.12637 29.4325 24.2287 -2.01084 7.87668 70.3702
2365915 8.58261 8.12637 29.4325 24.2287 -2.01084 7.87668 70.3702
2365925 8.73043 8.28516 29.3046 24.1799 -1.97514 7.75933 70.5001
2365935 8.73043 8.28516 29.3046 24.1799 -1.97514 7.75933 70.5001
2365948 8.7913 8.30385 29.3144 24.063 -2.03584 7.72264 70.4726
2365955 8.86957 8.36923 29.1865 23.9754 -2.02819 7.65399 70.4006
2365971 8.86957 8.36923 29.1865 23.9754 -2.02819 7.65399 70.4006
2365975 8.91304 8.43462 29.1963 23.9754 -2.0205 7.62004 70.5193
2365985 9.02609 8.47198 29.1569 23.839 -2.08247 7.55338 70.4939
2365995 9.02609 8.47198 29.1569 23.839 -2.08247 7.55338 70.4939
2366006 9.09565 8.46264 29.1175 23.7513 -2.1296 7.52066 70.4271
2366018 9.09565 8.46264 29.1175 23.7513 -2.1296 7.52066 70.4271
2366026 9.18261 8.5 29.0683 23.6636 -2.16125 7.46635 70.4146
2366040 9.2 8.49066 29.0979 23.6246 -2.1951 7.46277 70.4132
2366046 9.2 8.49066 29.0979 23.6246 -2.1951 7.46277 70.4132
2366056 9.27826 8.58407 29.0585 23.5954 -2.18292 7.40076 70.5162
2366067 9.29565 8.51868 29.1077 23.5662 -2.24097 7.41817 70.4882
2366076 9.29565 8.51868 29.1077 23.5662 -2.24097 7.41817 70.4882
2366088 9.21739 8.5467 29.1471 23.5857 -2.21006 7.44047 70.4968
2366096 9.21739 8.5467 29.1471 23.5857 -2.21006 7.44047 70.4968
2366114 9.26087 8.46264 28.9994 23.537 -2.22769 7.43231 70.2599
2366116 9.23478 8.44396 29.0093 23.4688 -2.25613 7.44033 70.1568
2366128 9.23478 8.44396 29.0093 23.4688 -2.25613 7.44033 70.1568
2366138 9.31304 8.51868 29.0683 23.4688 -2.27157 7.39789 70.3688
2366147 9.26957 8.51868 29.088 23.5759 -2.22242 7.4254 70.4522
2366160 9.26957 8.51868 29.088 23.5759 -2.22242 7.4254 70.4522
2366167 9.28696 8.48132 29.1372 23.5272 -2.27723 7.43181 70.4327
2366187 9.2087 8.42527 29.1175 23.6052 -2.2371 7.4809 70.3567
2366199 9.2 8.46264 29.1077 23.6149 -2.21288 7.47173 70.3852
2366211 9.2 8.46264 29.1077 23.6149 -2.21288 7.47173 70.3852
2366219 9.16522 8.40659 29.1175 23.6246 -2.22272 7.50285 70.314
2366232 9.11304 8.37857 29.1668 23.6344 -2.22884 7.53481 70.2928
2366239 9.11304 8.37857 29.1668 23.6344 -2.22884 7.53481 70.2928
2366249 8.9913 8.34121 29.1077 23.7805 -2.12803 7.59513 70.2207
2366269 8.96522 8.26648 29.0782 23.8877 -2.09738 7.63577 70.1976
2366281 8.8087 8.25714 29.2258 24.0338 -2.04178 7.71992 70.3255
2366303 8.72174 8.27582 29.2947 24.1897 -1.96893 7.76515 70.482
2366312 8.58261 8.29451 29.3538 24.3261 -1.88352 7.82405 70.557
2366321 8.58261 8.29451 29.3538 24.3261 -1.88352 7.82405 70.557
2366331 8.52174 8.22912 29.3144 24.404 -1.84585 7.86887 70.4693
2366341 8.44348 8.26648 29.3439 24.5404 -1.76379 7.89888 70.5943
2366353 8.44348 8.26648 29.3439 24.5404 -1.76379 7.89888 70.5943
2366361 8.42609 8.29451 29.1865 24.5891 -1.67701 7.88447 70.4962
2366381 8.38261 8.28516 29.0585 24.5794 -1.62738 7.88772 70.3056
2366392 8.43478 8.31319 28.9896 24.5989 -1.60384 7.85663 70.3364
2366403 8.43478 8.31319 28.9896 24.5989 -1.60384 7.85663 70.3364
2366412 8.42609 8.41593 28.9305 24.5209 -1.57189 7.81212 70.2935
2366426 8.50435 8.51868 28.8321 24.5404 -1.51904 7.74541 70.3955
2366432 8.50435 8.51868 28.8321 24.5404 -1.51904 7.74541 70.3955
2366442 8.67826 8.73352 28.586 24.4332 -1.45443 7.58348 70.431
2366453 8.67826 8.73352 28.586 24.4332 -1.45443 7.58348 70.431
2366462 8.7913 8.92967 28.2316 24.1799 -1.39497 7.41965 70.1325
2366473 9.05217 9.19121 27.8871 23.9266 -1.36367 7.18778 70.0571
2366497 9.41739 9.6022 27.4343 23.498 -1.34074 6.84314 69.9519
2366504 9.73913 10.0599 26.8732 23.0011 -1.27426 6.47493 69.6734
2366520 9.73913 10.0599 26.8732 23.0011 -1.27426 6.47493 69.6734
2366524 10.2261 10.5549 26.1644 22.3679 -1.25073 6.00562 69.3134
2366535 10.8783 11.2742 25.3868 21.6372 -1.21199 5.39308 69.1765
2366545 10.8783 11.2742 25.3868 21.6372 -1.21199 5.39308 69.1765
2366555 11.5565 12.0214 24.5107 20.9943 -1.1043 4.76102 69.0829
2366566 11.5565 12.0214 24.5107 20.9943 -1.1043 4.76102 69.0829
2366575 12.2348 12.8341 23.7035 20.2052 -1.05074 4.09695 68.9775
2366594 13.0957 13.8615 22.7881 19.3673 -0.960334 3.29858 69.1126
2366596 13.0957 13.8615 22.7881 19.3673 -0.960334 3.29858 69.1126
2366615 13.7826 14.7302 21.9218 18.6951 -0.824207 2.62639 69.1298
2366617 14.5217 15.4962 20.9276 17.9645 -0.721496 1.93169 68.91
2366639 15.2783 16.4489 19.9826 17.0779 -0.630219 1.16301 68.7877
2366645 15.2783 16.4489 19.9826 17.0779 -0.630219 1.16301 68.7877
2366655 16.0522 17.4085 18.9589 16.2515 -0.491868 0.382206 68.671
2366665 16.8261 18.4685 17.8859 15.4095 -0.303985 -0.437213 68.59
2366675 16.8261 18.4685 17.8859 15.4095 -0.303985 -0.437213 68.59
2366690 17.7474 19.5092 16.9163 14.4926 -0.241002 -1.27742 68.6654
2366695 18.5944 20.3553 15.8702 13.6131 -0.181259 -2.07496 68.4329
2366716 19.3318 21.1138 14.9495 12.8646 -0.110921 -2.77575 68.2598
2366726 19.3318 21.1138 14.9495 12.8646 -0.110921 -2.77575 68.2598
2366737 19.8499 21.6779 14.1858 12.2565 -0.0372991 -3.32915 67.9702
2366746 20.2884 22.242 13.6105 11.8167 0.0588119 -3.77512 67.9576
2366766 20.7767 22.7574 13.1711 11.3957 0.0754029 -4.17777 68.1009
2366777 21.0856 22.7574 12.6898 11.3957 0.139013 -4.36285 67.9286
2366786 21.0856 23.2048 12.6898 11.0682 0.182819 -4.52596 68.0485
2366796 21.5539 23.7008 12.3551 10.7876 0.211763 -4.84933 68.3974
2366808 21.5539 23.7008 12.3551 10.7876 0.211763 -4.84933 68.3974
2366816 21.7831 24.0801 12.0203 10.5162 0.289804 -5.11552 68.3998
2366833 22.1817 24.508 11.6437 10.2917 0.354934 -5.41078 68.6251
2366838 22.1817 24.508 11.6437 10.2917 0.354934 -5.41078 68.6251
2366846 22.4906 24.9943 11.288 9.9923 0.439158 -5.7161 68.7652
2366858 22.4906 24.9943 11.288 9.9923 0.439158 -5.7161 68.7652
2366866 22.7397 25.3833 10.9742 9.73032 0.508419 -5.97549 68.8275
2366881 23.1583 25.8696 10.5871 9.33737 0.529927 -6.3312 68.9523
2366886 23.1583 25.8696 10.5871 9.33737 0.529927 -6.3312 68.9523
2366896 23.5469 26.4142 9.96985 8.98184 0.681764 -6.74971 68.9128
2366906 23.9156 26.881 9.62462 8.57017 0.692469 -7.08824 68.9914
2366931 24.2245 27.2603 9.23754 8.27078 0.749722 -7.38693 68.9931
2366936 24.2245 27.2603 9.23754 8.27078 0.749722 -7.38693 68.9931
2366946 24.4836 27.7077 8.88185 7.98074 0.840995 -7.67416 69.0538
2366956 24.653 28.155 8.59938 7.88718 1.00651 -7.8624 69.2946
2366966 24.653 28.155 8.59938 7.88718 1.00651 -7.8624 69.2946
2366980 24.8921 28.5246 8.20185 7.61585 1.10005 -8.14603 69.2344
2366986 25.221 28.9136 7.888 7.22289 1.09304 -8.45334 69.2455
2366996 25.221 28.9136 7.888 7.22289 1.09304 -8.45334 69.2455
2367006 25.4701 29.1373 7.46954 6.73638 1.06594 -8.80676 68.8133
2367016 25.4701 29.1373 7.46954 6.73638 1.06594 -8.80676 68.8133
2367029 25.5996 29.2151 7.15569 6.35278 1.02913 -9.06857 68.3232
2367036 25.7093 29.2151 6.90462 5.95047 0.941172 -9.31019 67.7794
2367057 25.8089 29.0887 6.72677 5.7727 0.862682 -9.43619 67.3971
2367067 25.8687 28.8844 6.68492 5.63236 0.73176 -9.49059 67.0704
2367087 25.9683 28.8164 6.74769 5.64172 0.648329 -9.46688 67.1741
2367105 25.9683 28.8164 6.74769 5.64172 0.648329 -9.46688 67.1741
2367107 26.1676 28.7775 6.94646 5.72592 0.513649 -9.37762 67.6175
2367117 26.3769 28.8455 7.27077 5.89433 0.399268 -9.22478 68.3875
2367129 26.3769 28.8455 7.27077 5.89433 0.399268 -9.22478 68.3875
2367137 26.5463 28.865 7.48 6.10952 0.343549 -9.09158 69.0008
2367152 26.646 28.8844 7.888 6.23115 0.208771 -8.91849 69.6495
2367159 26.646 28.8844 7.888 6.23115 0.208771 -8.91849 69.6495
2367169 26.7954 28.9914 8.024 6.38085 0.196901 -8.84335 70.1917
2367189 26.925 28.9914 8.06585 6.38085 0.135529 -8.84051 70.3631
2367203 26.9648 28.9817 7.97169 6.25922 0.108436 -8.91646 70.1774
2367219 26.9648 28.9331 7.77292 6.0721 0.0958592 -9.04455 69.7429
2367228 27.0246 28.758 7.74154 5.88498 -0.0443682 -9.11035 69.4091
2367239 27.0246 28.758 7.74154 5.88498 -0.0443682 -9.11035 69.4091
2367254 26.8453 28.5732 7.53231 5.83819 0.0123084 -9.1689 68.789
2367260 26.8453 28.5732 7.53231 5.83819 0.0123084 -9.1689 68.789
2367270 26.636 28.262 7.49046 5.73528 -0.0473976 -9.17571 68.1237
2367280 26.4965 28.0092 7.55323 5.71657 -0.119512 -9.12628 67.7754
2367301 26.3271 27.7952 7.65785 5.81948 -0.136927 -9.0189 67.5996
2367311 26.3171 27.6979 7.98215 5.97854 -0.22905 -8.83867 67.9757
2367332 26.4267 27.6882 8.28554 6.31535 -0.257835 -8.62553 68.7158
2367341 26.3669 27.5812 8.64123 6.56797 -0.31051 -8.40235 69.1574
2367353 26.3669 27.5812 8.64123 6.56797 -0.31051 -8.40235 69.1574
2367362 26.2972 27.4548 8.98646 6.85801 -0.348736 -8.17014 69.5965
2367378 26.2972 27.4548 8.98646 6.85801 -0.348736 -8.17014 69.5965
2367381 26.058 27.1241 9.41538 7.03577 -0.471577 -7.91238 69.6333
2367391 25.8288 26.7838 9.75015 7.35388 -0.516862 -7.6399 69.7166
2367403 25.8288 26.7838 9.75015 7.35388 -0.516862 -7.6399 69.7166
2367411 25.6196 26.5601 10.0431 7.49422 -0.576749 -7.4535 69.7169
2367428 25.6196 26.5601 10.0431 7.49422 -0.576749 -7.4535 69.7169
2367431 25.4701 26.4239 10.2732 7.65327 -0.596584 -7.29746 69.8205
2367441 25.3007 26.2294 10.472 7.82168 -0.616415 -7.14006 69.8238
2367452 25.3007 26.2294 10.472 7.82168 -0.616415 -7.14006 69.8238
2367462 25.1014 26.0933 10.6812 7.82168 -0.669932 -7.03577 69.6976
2367478 24.9818 25.7918 10.7754 7.98074 -0.71362 -6.90729 69.5297
2367481 24.9818 25.7918 10.7754 7.98074 -0.71362 -6.90729 69.5297
2367491 24.7526 25.6167 10.9323 7.9246 -0.774142 -6.82814 69.2262
2367504 24.7526 25.6167 10.9323 7.9246 -0.774142 -6.82814 69.2262
2367511 24.6331 25.393 10.9742 7.83104 -0.865579 -6.80379 68.8313
2367529 24.7327 25.3541 10.9532 7.90589 -0.879651 -6.79395 68.9459
2367542 24.7526 25.4125 10.8905 7.87782 -0.85329 -6.83199 68.9334
2367555 24.7028 25.3833 10.9009 7.96203 -0.818871 -6.79266 68.9491
2367579 24.643 25.4027 10.9428 7.94331 -0.8123 -6.78054 68.9318
2367592 24.4537 25.218 10.9742 8.03687 -0.790961 -6.69615 68.6827
2367605 24.4537 25.218 11.0578 8.13043 -0.78534 -6.6403 68.8599
2367612 24.4537 25.218 11.0578 8.13043 -0.78534 -6.6403 68.8599
2367622 24.374 25.1402 11.1311 8.08365 -0.829795 -6.61281 68.7289
2367634 24.3939 25.0235 11.0997 8.09301 -0.866173 -6.60792 68.6101
2367655 24.1747 24.8387 11.2148 8.17722 -0.867461 -6.49541 68.4053
2367679 24.0152 24.6442 11.3298 8.24271 -0.900683 -6.3944 68.232
2367684 24.1149 24.6733 11.56 8.47661 -0.917165 -6.26626 68.8248
2367694 24.1149 24.6733 11.56 8.47661 -0.917165 -6.26626 68.8248
2367704 24.1747 24.6636 11.7065 8.52339 -0.975174 -6.21309 69.0681
2367714 24.1647 24.5469 11.9052 8.67309 -1.02827 -6.09034 69.2899
2367728 24.1647 24.5469 11.9052 8.67309 -1.02827 -6.09034 69.2899
2367734 24.2345 24.6831 11.9575 8.72922 -0.998397 -6.08384 69.6043
2367751 24.2345 24.6831 11.9575 8.72922 -0.998397 -6.08384 69.6043
2367754 24.2644 24.8192 11.9262 8.776 -0.929733 -6.1004 69.7857
2367764 24.1647 24.7998 11.8948 8.73858 -0.905608 -6.10604 69.5978
2367776 24.1647 24.7998 11.8948 8.73858 -0.905608 -6.10604 69.5978
2367784 24.1448 24.7317 11.8425 8.71051 -0.916411 -6.1192 69.4295
2367801 24.085 24.6442 11.696 8.58888 -0.922979 -6.18228 69.014
2367805 24.085 24.6442 11.696 8.58888 -0.922979 -6.18228 69.014
2367815 24.085 24.6831 11.5705 8.5421 -0.882065 -6.24025 68.8806
2367825 24.0053 24.6344 11.6018 8.56081 -0.876375 -6.20845 68.8024
2367835 24.0053 24.6344 11.6018 8.56081 -0.876375 -6.20845 68.8024
2367849 23.8857 24.508 11.6018 8.57017 -0.878486 -6.17401 68.5657
2367874 23.7462 24.4788 11.6542 8.64502 -0.830542 -6.11299 68.5242
2367890 23.796 24.5177 11.7169 8.67309 -0.844973 -6.09655 68.7038
2367899 23.7761 24.4497 11.7065 8.83214 -0.800104 -6.03957 68.7643
2367907 23.7362 24.4497 11.8006 8.86021 -0.808668 -5.99703 68.8467
2367926 23.7163 24.4497 12.0412 9.06604 -0.809051 -5.85912 69.2732
2367949 23.6166 24.4399 12.0517 9.1596 -0.746667 -5.81336 69.2679
2367957 23.6266 24.5177 12.1877 9.23445 -0.74106 -5.76187 69.5665
2367975 23.6266 24.5177 12.1877 9.23445 -0.74106 -5.76187 69.5665
2367977 23.5768 24.4302 12.1458 9.23445 -0.741485 -5.7561 69.3873
2367988 23.5469 24.3719 12.2295 9.29059 -0.761098 -5.70256 69.4389
2368007 23.517 24.333 12.1249 9.27188 -0.735447 -5.73019 69.2467
2368025 23.517 24.333 12.1249 9.27188 -0.735447 -5.73019 69.2467
2368027 23.4074 24.119 12.1877 9.2251 -0.816296 -5.68188 68.9392
2368037 23.3675 24.0509 12.1668 9.20638 -0.8275 -5.67917 68.7916
2368059 23.3077 23.9634 12.2295 9.21574 -0.857927 -5.63748 68.7164
2368069 23.1284 23.8564 12.2609 9.29994 -0.814399 -5.56357 68.5456
2368079 23.1284 23.8564 12.2609 9.29994 -0.814399 -5.56357 68.5456
2368090 23.0287 23.837 12.4178 9.52449 -0.757587 -5.43323 68.808
2368109 22.9091 23.6716 12.5852 9.62741 -0.797802 -5.31333 68.7934
2368126 22.8693 23.623 12.8363 9.80517 -0.823559 -5.17493 69.1338
2368129 22.8693 23.623 12.8363 9.80517 -0.823559 -5.17493 69.1338
2368139 22.7896 23.5744 12.92 9.94551 -0.79073 -5.09142 69.2294
2368152 22.66 23.341 13.1397 10.1046 -0.849946 -4.92959 69.2452
2368177 22.5305 23.234 13.2757 10.301 -0.818831 -4.79969 69.3412
2368180 22.5305 23.234 13.4849 10.301 -0.891578 -4.74012 69.5504
2368190 22.3212 23.0006 13.4849 10.5443 -0.815153 -4.60539 69.351
2368202 22.1319 22.7769 13.6837 10.6472 -0.863473 -4.45796 69.2397
2368211 22.1319 22.7769 13.6837 10.6472 -0.863473 -4.45796 69.2397
2368226 21.9625 22.5921 13.8197 10.8343 -0.850952 -4.31317 69.2086
2368231 21.7831 22.3879 13.9871 10.9279 -0.888176 -4.18088 69.086
2368241 21.7831 22.3879 13.9871 10.9279 -0.888176 -4.18088 69.086
2368252 21.5838 22.2031 14.2068 11.0963 -0.901429 -4.01299 69.09
2368261 21.3746 22.0767 14.4055 11.3115 -0.864536 -3.84588 69.1683
2368276 21.3746 22.0767 14.4055 11.3115 -0.864536 -3.84588 69.1683
2368281 21.2052 21.8238 14.5625 11.4893 -0.888291 -3.68639 69.0807
2368291 21.2052 21.8238 14.5625 11.4893 -0.888291 -3.68639 69.0807
2368302 21.0158 21.5904 14.8658 11.6577 -0.952414 -3.48968 69.1297
2368311 20.7667 21.3278 15.1902 11.9009 -0.9858 -3.25286 69.1856
2368331 20.6073 21.0847 15.4517 12.0787 -1.04576 -3.06871 69.2223
2368341 20.388 20.7443 15.6923 12.35 -1.07917 -2.83846 69.1747
2368355 20.388 20.7443 15.6923 12.35 -1.07917 -2.83846 69.1747
2368361 20.0592 20.4428 16.048 12.612 -1.10336 -2.56832 69.162
2368371 20.0592 20.4428 16.048 12.612 -1.10336 -2.56832 69.162
2368381 19.7503 20.1316 16.3095 12.8272 -1.12327 -2.33527 69.0186
2368391 19.4812 19.8593 16.8117 13.1734 -1.17572 -2.02424 69.3256
2368405 19.4812 19.8593 16.8117 13.1734 -1.17572 -2.02424 69.3256
2368412 19.1424 19.4897 17.0295 13.557 -1.12878 -1.74353 69.2186
2368430 18.8734 19.1299 17.3937 13.8751 -1.17731 -1.45826 69.2721
2368432 18.8734 19.1299 17.3937 13.8751 -1.17731 -1.45826 69.2721
2368442 18.5246 18.8576 17.7973 14.2493 -1.15769 -1.15273 69.4288
2368454 18.5246 18.8576 17.7973 14.2493 -1.15769 -1.15273 69.4288
2368463 18.0961 18.4296 18.1616 14.6423 -1.14878 -0.805272 69.3296
2368480 17.7274 18.0114 18.6734 15.0259 -1.21099 -0.440591 69.4382
2368492 17.2192 17.5154 19.0869 15.4562 -1.20327 -0.0414795 69.2778
2368505 16.7826 17.5154 19.5889 15.4562 -1.22572 0.161603 69.3432
2368532 16.7826 17 19.5889 15.8024 -1.28989 0.348837 69.1739
2368532 16.3565 16.5236 20.1106 16.2889 -1.31877 0.761996 69.2797
2368544 15.8 15.9165 20.7012 16.8129 -1.36206 1.25615 69.2306
2368557 15.2261 15.272 21.5084 17.643 -1.37098 1.86361 69.6494
2368564 15.2261 15.272 21.5084 17.643 -1.37098 1.86361 69.6494
2368574 14.5739 14.5341 22.4239 18.4321 -1.44061 2.51872 69.9639
2368584 14.5739 14.5341 22.4239 18.4321 -1.44061 2.51872 69.9639
2368594 13.887 13.7121 23.3098 19.3479 -1.47204 3.21505 70.2567
2368608 13.2783 13.0489 24.1957 20.1467 -1.51351 3.82384 70.6696
2368624 12.8435 12.4137 24.806 20.7507 -1.58339 4.2999 70.8139
2368634 12.3913 11.8813 25.2195 21.1307 -1.62794 4.68917 70.6227
2368644 12.3913 11.8813 25.2195 21.1307 -1.62794 4.68917 70.6227
2368656 11.9913 11.4423 25.5345 21.4716 -1.6368 5.01971 70.4397
2368681 11.6 11.0687 25.8002 21.7542 -1.62959 5.31571 70.2231
2368684 11.2087 10.6577 26.066 22.0367 -1.63656 5.62455 69.9691
2368707 10.8 10.3214 26.4105 22.4653 -1.57998 5.94761 69.9973
2368714 10.4522 10.0505 26.8141 22.9524 -1.51678 6.24679 70.2693
2368735 10.1565 9.63022 27.3162 23.3713 -1.58608 6.57703 70.4742
2368745 9.73913 9.63022 27.7591 23.3713 -1.59457 6.7577 70.4998
2368756 9.73913 9.29396 27.7591 23.9461 -1.5049 6.9281 70.7383
2368765 9.28696 8.94835 28.3596 24.4332 -1.50115 7.29799 71.0281
2368782 9.28696 8.94835 28.3596 24.4332 -1.50115 7.29799 71.0281
2368785 8.86957 8.57473 28.6746 24.8229 -1.46123 7.62313 70.9418
2368795 8.46087 8.32253 28.901 25.086 -1.39655 7.88541 70.7703
2368808 8.46087 8.32253 28.901 25.086 -1.39655 7.88541 70.7703
2368815 8.15652 8.09835 29.1668 25.3587 -1.36556 8.11043 70.7804
2368836 7.84348 7.92088 29.2554 25.5731 -1.27665 8.30058 70.5928
2368846 7.69565 7.71538 29.4325 25.7874 -1.28322 8.45427 70.631
2368860 7.69565 7.71538 29.4325 25.7874 -1.28322 8.45427 70.631
2368865 7.53043 7.72473 29.4818 25.9433 -1.18287 8.52499 70.6802
2368875 7.38261 7.65934 29.5408 26.0894 -1.12303 8.61477 70.6722
2368886 7.38261 7.65934 29.5408 26.0894 -1.12303 8.61477 70.6722
2368895 7.37391 7.62198 29.5408 26.1771 -1.10151 8.63806 70.7138
2368913 7.37391 7.62198 29.5408 26.1771 -1.10151 8.63806 70.7138
2368915 7.35652 7.63132 29.3932 26.216 -1.02778 8.63096 70.5971
2368928 7.4087 7.73407 29.2554 26.1381 -0.989516 8.55958 70.5362
2368939 7.4087 7.73407 29.2554 26.1381 -0.989516 8.55958 70.5362
2368946 7.42609 7.85549 29.2061 26.1771 -0.919712 8.51237 70.6648
2368956 7.43478 7.86484 29.0486 26.2745 -0.829794 8.50084 70.6228
2368976 7.46087 7.9489 29.1274 26.2648 -0.838464 8.47061 70.8019
2368997 7.44348 7.91154 29.1077 26.3135 -0.821665 8.49145 70.7762
2369015 7.37391 7.9022 29.1372 26.4304 -0.768796 8.53107 70.8437
2369017 7.37391 7.9022 29.1372 26.4304 -0.768796 8.53107 70.8437
2369027 7.34783 7.81813 29.1865 26.596 -0.747077 8.58719 70.9484
2369042 7.29565 7.79945 29.216 26.6642 -0.721377 8.61957 70.9753
2369047 7.29565 7.79945 29.216 26.6642 -0.721377 8.61957 70.9753
2369057 7.26087 7.78077 29.2455 26.7324 -0.701652 8.64612 71.0195
2369069 7.26087 7.78077 29.2455 26.7324 -0.701652 8.64612 71.0195
2369077 7.10435 7.6033 29.3243 26.9564 -0.658159 8.78448 70.9884
2369095 6.9913 7.45385 29.4325 27.1221 -0.650685 8.89639 70.9998
2369097 6.9913 7.45385 29.4325 27.1221 -0.650685 8.89639 70.9998
2369108 6.98261 7.48187 29.403 27.1318 -0.623932 8.88819 70.9993
2369120 6.92174 7.40714 29.3932 27.1123 -0.633676 8.93139 70.8344
2369137 6.90435 7.32308 29.3538 27.1805 -0.619878 8.96817 70.7617
2369148 6.90435 7.32308 29.3538 27.1805 -0.619878 8.96817 70.7617
2369158 6.92174 7.26703 29.3538 27.1026 -0.674468 8.97463 70.6451
2369175 6.88696 7.34176 29.4227 27.1318 -0.648491 8.96946 70.7832
2369179 6.88696 7.34176 29.4227 27.1318 -0.648491 8.96946 70.7832
2369189 6.89565 7.28571 29.403 27.0441 -0.696893 8.97636 70.6285
2369199 6.88696 7.3511 29.4621 27.0831 -0.676301 8.9655 70.7832
2369209 6.88696 7.3511 29.4621 27.0831 -0.676301 8.9655 70.7832
2369223 6.96522 7.31374 29.5802 27.0246 -0.778398 8.95675 70.8838
2369239 6.94783 7.3044 29.5802 26.9175 -0.814895 8.95664 70.7499
2369249 6.98261 7.36978 29.5605 26.9175 -0.796218 8.92109 70.8304
2369259 6.98261 7.36978 29.5605 26.9175 -0.796218 8.92109 70.8304
2369275 7.08696 7.41648 29.5704 26.7713 -0.871435 8.85839 70.8451
2369279 7.12174 7.43516 29.5802 26.635 -0.929679 8.82938 70.7721
2369301 7.17391 7.52857 29.5113 26.4986 -0.939746 8.76241 70.7123
2369310 7.26957 7.55659 29.4227 26.2648 -1.01786 8.69221 70.5136
2369330 7.33913 7.54725 29.3932 26.255 -1.03851 8.66847 70.5346
2369354 7.37391 7.6033 29.4818 26.1576 -1.09563 8.63724 70.6166
2369363 7.4 7.59396 29.5211 26.0407 -1.1645 8.62464 70.5558
2369379 7.4 7.59396 29.5211 26.0407 -1.1645 8.62464 70.5558
2369381 7.41739 7.6033 29.5408 26.0407 -1.17356 8.61747 70.6022
2369391 7.44348 7.57527 29.6097 26.0017 -1.23043 8.62082 70.6302
2369405 7.44348 7.57527 29.6097 26.0017 -1.23043 8.62082 70.6302
2369411 7.47826 7.55659 29.718 26.0212 -1.27818 8.62697 70.7741
2369432 7.46087 7.49121 29.846 26.0017 -1.34673 8.66435 70.7998
2369442 7.55652 7.52857 29.9444 25.8848 -1.44102 8.61831 70.9143
2369457 7.55652 7.52857 29.9444 25.8848 -1.44102 8.61831 70.9143
2369464 7.6 7.51923 30.0428 25.8264 -1.51336 8.61055 70.9884
2369481 7.56522 7.44451 30.161 25.6413 -1.63829 8.64102 70.812
2369484 7.56522 7.44451 30.161 25.6413 -1.63829 8.64102 70.812
2369494 7.61739 7.40714 30.1807 25.4951 -1.73117 8.6247 70.7003
2369508 7.57391 7.3511 30.2397 25.4756 -1.76489 8.66155 70.6404
2369514 7.57391 7.3511 30.2397 25.4756 -1.76489 8.66155 70.6404
2369524 7.6087 7.34176 30.3578 25.3685 -1.85927 8.65402 70.6768
2369536 7.6087 7.34176 30.3578 25.3685 -1.85927 8.65402 70.6768
2369544 7.5913 7.21099 30.3677 25.3782 -1.90288 8.70546 70.5482
2369561 7.55652 7.21099 30.4464 25.3685 -1.92098 8.72329 70.5824
2369566 7.55652 7.21099 30.4464 25.3685 -1.92098 8.72329 70.5824
2369575 7.53913 7.23901 30.5843 25.388 -1.94218 8.73368 70.7504
2369588 7.55652 7.23901 30.6039 25.349 -1.96911 8.72614 70.7485
2369612 7.53913 7.16429 30.6728 25.3393 -2.0181 8.7623 70.7155
2369626 7.58261 7.16429 30.7417 25.3295 -2.05829 8.75292 70.8182
2369638 7.57391 7.12692 30.7811 25.3198 -2.08623 8.77099 70.8017
2369646 7.57391 7.12692 30.7811 25.3198 -2.08623 8.77099 70.8017
2369666 7.55652 7.12692 30.8107 25.1834 -2.14243 8.76742 70.6775
2369669 7.58261 7.1456 30.8697 25.2223 -2.14782 8.76102 70.8203
2369677 7.58261 7.1456 30.8697 25.2223 -2.14782 8.76102 70.8203
2369694 7.62609 7.0989 30.8894 25.2126 -2.18984 8.76298 70.827
2369697 7.62609 7.0989 30.8894 25.2126 -2.18984 8.76298 70.827
2369707 7.63478 7.08022 30.9288 25.1834 -2.22371 8.76722 70.8272
2369721 7.64348 7.06154 31.0075 25.1347 -2.27772 8.77321 70.8472
2369727 7.64348 7.06154 31.0075 25.1347 -2.27772 8.77321 70.8472
2369737 7.62609 7.07088 31.0272 25.1347 -2.27486 8.77764 70.8589
2369747 7.62609 7.04286 31.0272 25.047 -2.31947 8.77935 70.7431
2369757 7.62609 7.04286 31.0272 25.047 -2.31947 8.77935 70.7431
2369773 7.58261 7.04286 31.1257 25.008 -2.35213 8.79919 70.7591
2369789 7.64348 6.96813 31.0666 24.9203 -2.41563 8.79097 70.5985
2369809 7.72174 6.97747 31.1158 24.8132 -2.49436 8.75637 70.6282
2369810 7.72174 6.97747 31.1158 24.8132 -2.49436 8.75637 70.6282
2369824 7.67826 6.99615 31.1158 24.8229 -2.46944 8.76557 70.6131
2369829 7.73043 6.97747 31.1749 24.8034 -2.51972 8.75781 70.6862
2369839 7.73043 6.97747 31.1749 24.8034 -2.51972 8.75781 70.6862
2369851 7.68696 6.95879 31.2241 24.7158 -2.56302 8.77532 70.5856
2369859 7.69565 6.94011 31.1257 24.7547 -2.52654 8.77344 70.5161
2369879 7.73913 6.98681 31.2733 24.7255 -2.58047 8.75356 70.7247
2369890 7.73913 6.98681 31.2733 24.7255 -2.58047 8.75356 70.7247
2369901 7.69565 6.94011 31.1749 24.6476 -2.5841 8.76832 70.4582
2369909 7.76522 6.94945 31.1847 24.667 -2.59806 8.74433 70.5664
2369919 7.76522 6.94945 31.1847 24.667 -2.59806 8.74433 70.5664
2369929 7.84348 7.00549 31.1946 24.5794 -2.63837 8.69228 70.6229
2369939 7.84348 7.00549 31.1946 24.5794 -2.63837 8.69228 70.6229
2369956 7.81739 6.97747 31.2044 24.5404 -2.65947 8.70785 70.5397
2369959 7.83478 7.00549 31.1749 24.6086 -2.61794 8.69605 70.6237
2369969 7.83478 7.00549 31.1749 24.6086 -2.61794 8.69605 70.6237
2369981 7.94783 7.02418 31.1355 24.5501 -2.65682 8.64315 70.6576
2369989 7.89565 7.06154 31.0174 24.5696 -2.5806 8.63923 70.5442
2370010 7.96522 7.0989 30.9583 24.5209 -2.58838 8.59367 70.5434
2370020 7.96522 7.0989 30.9583 24.5209 -2.58838 8.59367 70.5434
2370033 7.94783 7.15494 30.9091 24.443 -2.57576 8.56917 70.4548
2370040 8 7.19231 30.6925 24.404 -2.52395 8.51577 70.2888
2370060 8.07826 7.22033 30.6236 24.5696 -2.45132 8.48921 70.4918
2370071 8.05217 7.34176 30.5843 24.5209 -2.40207 8.44931 70.4991
2370084 8.05217 7.34176 30.5843 24.5209 -2.40207 8.44931 70.4991
2370091 8.13913 7.43516 30.5744 24.6183 -2.3528 8.39765 70.767
2370103 8.1913 7.45385 30.4661 24.5891 -2.33891 8.36136 70.7004
2370121 8.28696 7.55659 30.3086 24.4819 -2.32078 8.27087 70.6341
2370139 8.28696 7.55659 30.3086 24.4819 -2.32078 8.27087 70.6341
2370142 8.30435 7.63132 30.1118 24.365 -2.27933 8.21043 70.4125
2370152 8.44348 7.74341 29.9739 24.3163 -2.25523 8.10973 70.4772
2370165 8.44348 7.74341 29.9739 24.3163 -2.25523 8.10973 70.4772
2370172 8.50435 7.79011 29.8755 24.2189 -2.26273 8.05524 70.3889
2370191 8.68696 7.93022 29.6589 24.0533 -2.26164 7.91171 70.3294
2370195 8.68696 7.93022 29.6589 24.0533 -2.26164 7.91171 70.3294
2370202 8.83478 8.03297 29.4621 23.9754 -2.23615 7.80235 70.3052
2370217 8.83478 8.03297 29.4621 23.9754 -2.23615 7.80235 70.3052
2370224 8.95652 8.16374 29.2652 23.8195 -2.22153 7.68417 70.2049
2370234 9.11304 8.32253 29.0191 23.7026 -2.1762 7.54436 70.1573
2370244 9.11304 8.32253 29.0191 23.7026 -2.1762 7.54436 70.1573
2370254 9.22609 8.48132 28.7238 23.5954 -2.09676 7.414 70.0266
2370269 9.41739 8.66813 28.5269 23.4688 -2.07167 7.25804 70.0812
2370274 9.41739 8.66813 28.5269 23.4688 -2.07167 7.25804 70.0812
2370284 9.55652 8.81758 28.2611 23.5467 -1.94259 7.1458 70.182
2370304 9.61739 8.96703 28.084 23.4493 -1.88435 7.04861 70.1177
2370322 9.8087 9.11648 27.8477 23.3908 -1.83467 6.90813 70.1637
2370324 9.8087 9.11648 27.8477 23.3908 -1.83467 6.90813 70.1637
2370334 10.0087 9.33132 27.4146 23.196 -1.7498 6.70557 69.9506
2370348 10.2087 9.67692 26.9815 22.9719 -1.62564 6.45795 69.839
2370354 10.2087 9.67692 26.9815 22.9719 -1.62564 6.45795 69.839
2370364 10.487 10.0599 26.5287 22.7089 -1.52142 6.167 69.7844
2370384 10.7304 10.5176 25.9676 22.4069 -1.35501 5.84433 69.6225
2370400 11.0783 10.8819 25.5246 22.1438 -1.28437 5.53831 69.6286
2370407 11.0783 10.8819 25.5246 22.1438 -1.28437 5.53831 69.6286
2370415 11.4 11.4423 24.934 21.8126 -1.10617 5.15261 69.5889
2370427 11.8435 12.0495 24.2646 21.345 -0.976102 4.68688 69.5025
2370435 11.8435 12.0495 24.2646 21.345 -0.976102 4.68688 69.5025
2370457 12.3565 12.6473 23.6248 20.9748 -0.847395 4.22303 69.6033
2370459 12.3565 12.6473 23.6248 20.9748 -0.847395 4.22303 69.6033
2370466 12.7913 13.161 22.9849 20.361 -0.813237 3.76496 69.2983
2370483 13.2783 13.7495 22.4042 19.8544 -0.749984 3.29738 69.2863
2370496 13.7739 14.2819 21.6659 19.2309 -0.698666 2.79345 68.9526
2370507 14.2348 14.833 20.9965 18.6854 -0.622897 2.31583 68.7497
2370535 14.6957 15.5055 20.4354 18.1203 -0.547308 1.82265 68.7569
2370536 15.1043 16.0192 19.8448 17.5748 -0.494269 1.37782 68.5432
2370560 15.4957 16.5703 19.3231 17.2143 -0.376838 0.977674 68.6034
2370567 15.4957 16.5703 19.3231 17.2143 -0.376838 0.977674 68.6034
2370577 15.9391 17.1848 18.7817 16.8129 -0.263093 0.539303 68.7185
2370587 16.4348 17.9045 18.2206 16.3451 -0.147256 0.0492936 68.9049
2370615 16.8174 18.663 17.5512 15.8305 0.0453442 -0.457151 68.8622
2370617 17.2691 19.3438 16.864 15.2598 0.17114 -0.979631 68.7366
2370629 17.2691 19.3438 16.864 15.2598 0.17114 -0.979631 68.7366
2370642 17.7573 20.083 16.0375 14.7826 0.389853 -1.53366 68.6604
2370649 17.7573 20.083 16.0375 14.7826 0.389853 -1.53366 68.6604
2370667 18.0961 20.6762 15.3366 14.2025 0.529188 -2.02745 68.3115
