5041221 4.01739 10.144 4.26831 6.80187 8.58066 -1.83768 25.2315
5041231 4.15652 9.87308 4.40431 6.54926 7.8668 -1.84686 24.9832
5041241 4.34783 9.66758 4.68677 6.29664 6.92996 -1.81928 24.9988
5041254 4.34783 9.66758 4.68677 6.29664 6.92996 -1.81928 24.9988
5041261 4.53913 9.35 4.84369 6.0721 6.08677 -1.79804 24.8049
5041273 4.68696 9.07912 5.17846 5.84755 5.1037 -1.65783 24.7921
5041282 4.68696 9.07912 5.17846 5.84755 5.1037 -1.65783 24.7921
5041292 4.93913 8.83626 5.50277 5.71657 4.1118 -1.53396 24.9947
5041302 5.2087 8.5467 5.984 5.56687 2.88553 -1.30671 25.3063
5041322 5.51304 8.28516 6.33969 5.37039 1.76689 -1.22791 25.5083
5041333 5.51304 8.28516 6.33969 5.37039 1.76689 -1.22791 25.5083
5041342 5.81739 7.95824 6.61169 5.02422 0.544414 -1.26304 25.4115
5041352 6.06957 7.65 6.82092 4.70611 -0.529158 -1.30267 25.2466
5041363 6.06957 7.65 6.82092 4.70611 -0.529158 -1.30267 25.2466
5041372 6.35652 7.28571 7.072 4.41607 -1.71779 -1.2858 25.1303
5041382 6.55652 6.88407 7.29169 4.16346 -2.81242 -1.19625 24.8957
5041392 6.55652 6.88407 7.29169 4.16346 -2.81242 -1.19625 24.8957
5041402 6.86087 6.53846 7.66831 3.96698 -4.01817 -1.05696 25.0346
5041412 6.86087 6.53846 7.66831 3.96698 -4.01817 -1.05696 25.0346
5041422 7.11304 6.09945 7.91938 3.74243 -5.21677 -0.935106 24.8743
5041432 7.34783 5.6511 8.25415 3.55531 -6.44497 -0.719188 24.8084
5041442 7.34783 5.6511 8.25415 3.55531 -6.44497 -0.719188 24.8084
5041452 7.58261 5.31484 8.66215 3.42433 -7.51043 -0.486891 24.9839
5041462 7.58261 5.31484 8.66215 3.42433 -7.51043 -0.486891 24.9839
5041472 7.8087 4.95055 8.89231 3.34948 -8.40063 -0.310464 25.001
5041482 8.08696 4.95989 9.19569 3.21849 -8.93941 -0.372723 25.461
5041492 8.08696 4.95989 9.19569 3.21849 -8.93941 -0.372723 25.461
5041502 8.28696 4.92253 9.34215 3.14364 -9.30418 -0.422464 25.6953
5041512 8.4087 4.67033 9.35262 3.10622 -9.77447 -0.364277 25.5379
5041522 8.4087 4.67033 9.35262 3.10622 -9.77447 -0.364277 25.5379
5041532 8.53913 4.51154 9.46769 3.02201 -10.2517 -0.329456 25.5404
5041542 8.53913 4.51154 9.46769 3.02201 -10.2517 -0.329456 25.5404
5041552 8.45217 4.21264 9.42585 2.96588 -10.6754 -0.163483 25.0565
5041562 8.53043 4.05385 9.59323 2.90039 -11.1347 -0.0542307 25.0779
5041573 8.53043 4.05385 9.59323 2.90039 -11.1347 -0.0542307 25.0779
5041584 8.63478 3.84835 9.76062 2.8536 -11.6481 0.0783455 25.0974
5041593 8.66087 3.77363 9.89662 2.8536 -11.8428 0.188044 25.1847
5041605 8.66087 3.77363 9.89662 2.8536 -11.8428 0.188044 25.1847
5041613 8.76522 3.58681 10.0326 2.84425 -12.2546 0.312043 25.2289
5041623 8.76522 3.58681 10.0326 2.84425 -12.2546 0.312043 25.2289
5041633 8.72174 3.51209 10.1582 2.81618 -12.448 0.440635 25.2082
5041643 8.76522 3.3533 10.4511 2.86296 -12.7789 0.705113 25.4326
5041663 8.84348 3.33462 10.4615 2.86296 -12.8491 0.674288 25.5026
5041673 8.93913 3.26923 10.4615 2.81618 -13.0613 0.629377 25.4861
5041684 8.93913 3.26923 10.4615 2.81618 -13.0613 0.629377 25.4861
5041693 8.93913 3.25989 10.5662 2.81618 -13.124 0.693852 25.5814
5041703 8.93913 3.25989 10.5662 2.81618 -13.124 0.693852 25.5814
5041713 8.92174 3.20385 10.4302 2.7694 -13.2069 0.636109 25.3251
5041723 8.90435 3.20385 10.4092 2.72262 -13.2598 0.608354 25.24
5041733 8.90435 3.20385 10.4092 2.72262 -13.2598 0.608354 25.24
5041743 8.89565 3.15714 10.2209 2.67584 -13.3105 0.507406 24.9496
5041753 8.85217 3.04505 10.3465 2.6852 -13.5068 0.682597 24.9289
5041774 8.84348 3.0544 10.3883 2.64777 -13.5655 0.68473 24.934
5041812 8.88696 2.97033 10.472 2.69455 -13.681 0.784811 25.0238
5041816 8.98261 2.96099 10.5243 2.64777 -13.8341 0.733693 25.1157
5041817 8.98261 2.96099 10.5243 2.64777 -13.8341 0.733693 25.1157
5041824 9.04348 2.96099 10.5034 2.67584 -13.8086 0.699715 25.1837
5041834 9.06087 2.90495 10.4406 2.70391 -13.8316 0.704119 25.1103
5041844 9.06087 2.90495 10.4406 2.70391 -13.8316 0.704119 25.1103
5041854 9.06956 2.92363 10.5975 2.6852 -13.9048 0.765279 25.2759
5041875 9.08696 2.83956 10.5975 2.69455 -14.0277 0.812241 25.2186
5041884 9.11304 2.97033 10.6394 2.71326 -13.8277 0.748508 25.436
5041896 9.11304 2.97033 10.6394 2.71326 -13.8277 0.748508 25.436
5041904 9.10435 2.95165 10.6917 2.69455 -13.9039 0.784274 25.4422
5041914 9.08696 2.92363 10.6498 2.69455 -13.921 0.789083 25.355
5041924 9.08696 2.92363 10.6498 2.69455 -13.921 0.789083 25.355
5041934 9.08696 2.86758 10.5034 2.64777 -14.0157 0.714946 25.1057
5041944 9.08696 2.86758 10.5034 2.64777 -14.0157 0.714946 25.1057
5041955 9.06087 2.8956 10.5557 2.67584 -13.9403 0.759326 25.188
5041964 9.11304 2.83956 10.5662 2.62906 -14.127 0.741184 25.1478
5041974 9.11304 2.83956 10.5662 2.62906 -14.127 0.741184 25.1478
5041984 9.17391 2.88626 10.5662 2.66648 -14.0231 0.695331 25.2928
5041994 9.17391 2.88626 10.5662 2.66648 -14.0231 0.695331 25.2928
5042005 9.08696 2.79286 10.6394 2.66648 -14.1618 0.849323 25.1857
5042017 9.03478 2.83022 10.5975 2.6852 -14.034 0.845641 25.1477
5042026 9.03478 2.83022 10.5975 2.6852 -14.034 0.845641 25.1477
5042035 9 2.83956 10.6812 2.67584 -14.0553 0.903402 25.1966
5042045 9.01739 2.85824 10.7126 2.6852 -14.0331 0.903423 25.2734
5042055 9.01739 2.85824 10.7126 2.6852 -14.0331 0.903423 25.2734
5042065 8.98261 2.86758 10.7126 2.65713 -14.0469 0.903781 25.2199
5042075 8.98261 2.86758 10.7126 2.65713 -14.0469 0.903781 25.2199
5042087 8.93913 2.83022 10.7335 2.59163 -14.1971 0.929979 25.0945
5042095 8.95652 2.86758 10.7649 2.6852 -14.0149 0.965023 25.2742
5042115 9.0087 2.87692 10.8382 2.67584 -14.0692 0.961654 25.3996
5042126 8.9913 2.85824 10.7126 2.61035 -14.1378 0.877991 25.1725
5042136 8.9913 2.85824 10.7126 2.61035 -14.1378 0.877991 25.1725
5042145 8.94783 2.86758 10.7963 2.72262 -13.9671 1.00862 25.3343
5042156 8.94783 2.86758 10.7963 2.72262 -13.9671 1.00862 25.3343
5042166 8.89565 2.83956 10.7858 2.6852 -14.0409 1.03297 25.2063
5042176 8.88696 2.90495 10.744 2.74133 -13.8313 1.00491 25.2772
5042186 8.88696 2.90495 10.744 2.74133 -13.8313 1.00491 25.2772
5042196 8.88696 2.90495 10.7649 2.71326 -13.8837 1.00096 25.2701
5042207 8.82609 2.91429 10.8068 2.74133 -13.8178 1.07226 25.2885
5042217 8.82609 2.91429 10.8068 2.74133 -13.8178 1.07226 25.2885
5042227 8.84348 2.95165 10.7858 2.69455 -13.8307 1.00014 25.2755
5042237 8.84348 2.95165 10.7858 2.69455 -13.8307 1.00014 25.2755
5042247 8.77391 2.91429 10.8591 2.72262 -13.8466 1.12396 25.2699
5042257 8.8 2.88626 10.9114 2.78811 -13.8237 1.18958 25.3858
5042267 8.8 2.88626 10.9114 2.78811 -13.8237 1.18958 25.3858
5042277 8.7913 2.94231 10.8068 2.74133 -13.7594 1.07656 25.2817
5042287 8.72174 2.95165 10.8486 2.71326 -13.7758 1.12253 25.2353
5042297 8.72174 2.95165 10.8486 2.71326 -13.7758 1.12253 25.2353
5042308 8.66957 2.93297 10.9218 2.87232 -13.5708 1.29444 25.3967
5042317 8.66957 2.93297 10.9218 2.87232 -13.5708 1.29444 25.3967
5042327 8.62609 2.98901 10.9114 2.78811 -13.5893 1.2351 25.3146
5042337 8.57391 3.09176 10.88 2.89103 -13.2399 1.24153 25.4367
5042357 8.50435 3.13846 10.7858 2.86296 -13.1355 1.18972 25.2916
5042367 8.33913 3.26923 10.5766 2.89103 -12.7168 1.11219 25.076
5042377 8.33913 3.26923 10.5766 2.89103 -12.7168 1.11219 25.076
5042387 8.21739 3.55879 10.2105 3.0033 -11.8705 0.862897 24.9899
5042397 8.21739 3.55879 10.2105 3.0033 -11.8705 0.862897 24.9899
5042408 7.98261 3.9044 9.87569 3.12493 -10.8779 0.671189 24.8876
5042418 7.82609 4.33407 9.42585 3.40561 -9.51544 0.40292 24.9916
5042447 7.67826 4.79176 9.00738 3.54595 -8.34014 0.0499463 25.0234
5042448 7.41739 5.23077 8.53662 3.88277 -6.82203 -0.136893 25.0676
5042458 7.41739 5.23077 8.53662 3.88277 -6.82203 -0.136893 25.0676
5042468 7.06087 5.71648 8.06585 4.22895 -5.16637 -0.288702 25.0721
5042478 7.06087 5.71648 8.06585 4.22895 -5.16637 -0.288702 25.0721
5042490 6.8087 6.22088 7.54277 4.50028 -3.6198 -0.590204 25.0726
5042498 6.57391 6.68791 7.08246 4.94937 -1.99565 -0.729432 25.2937
5042518 6.26087 7.19231 6.56985 5.37039 -0.263864 -0.8937 25.3934
5042530 6.26087 7.19231 6.56985 5.37039 -0.263864 -0.8937 25.3934
5042538 5.91304 7.64066 6.01538 5.93176 1.6117 -0.945006 25.5008
5042549 5.50435 7.98626 5.62831 6.306 3.1068 -0.918177 25.4249
5042558 5.50435 7.98626 5.62831 6.306 3.1068 -0.918177 25.4249
5042569 5.12174 8.36923 5.14708 6.54926 4.61509 -1.06878 25.1873
5042578 4.74783 8.72418 4.70769 6.82994 6.09625 -1.16018 25.0096
5042590 4.74783 8.72418 4.70769 6.82994 6.09625 -1.16018 25.0096
5042598 4.4087 8.92967 4.488 7.03577 7.10794 -1.09479 24.8621
5042618 4.16522 9.0978 4.24738 7.28839 8.03828 -1.04476 24.7988
5042631 3.90435 9.32198 4.00677 7.59714 9.06959 -0.980107 24.8302
5042638 3.90435 9.32198 4.00677 7.59714 9.06959 -0.980107 24.8302
5042650 3.67826 9.52747 3.89169 7.94331 9.88472 -0.821098 25.0407
5042658 3.53913 9.83571 3.79754 8.224 10.5557 -0.799313 25.3964
5042668 3.53913 9.83571 3.79754 8.224 10.5557 -0.799313 25.3964
5042678 3.38261 9.93846 3.58831 8.38305 11.2194 -0.800465 25.2924
5042688 3.38261 9.93846 3.58831 8.38305 11.2194 -0.800465 25.2924
5042698 3.2 10.1813 3.44185 8.47661 11.8737 -0.867317 25.2998
5042708 3.13043 10.2747 3.264 8.66373 12.3792 -0.874807 25.3329
5042729 3.02609 10.3868 3.15938 8.80407 12.8125 -0.856768 25.3764
5042741 2.93913 10.4989 3.14892 8.85085 13.0335 -0.848102 25.4378
5042749 2.93913 10.4989 3.14892 8.85085 13.0335 -0.848102 25.4378
5042759 2.91304 10.5269 3.06523 8.82278 13.1983 -0.919113 25.328
5042769 2.91304 10.5269 3.06523 8.82278 13.1983 -0.919113 25.328
5042779 2.87826 10.5549 2.95015 8.81343 13.4342 -0.993951 25.1968
5042789 2.8 10.4615 2.93969 8.73858 13.4929 -0.952253 24.9398
5042799 2.8 10.4615 2.93969 8.73858 13.4929 -0.952253 24.9398
5042809 2.71304 10.4709 2.93969 8.75729 13.6404 -0.896434 24.8809
5042819 2.71304 10.3868 3.00246 8.74794 13.5001 -0.814555 24.8503
5042829 2.71304 10.3868 3.00246 8.74794 13.5001 -0.814555 24.8503
5042841 2.74783 10.4802 2.992 8.75729 13.5099 -0.888057 24.9773
5042849 2.74783 10.4802 2.992 8.75729 13.5099 -0.888057 24.9773
5042859 2.76522 10.5082 2.98154 8.79472 13.5293 -0.896538 25.0497
5042869 2.73913 10.4055 3.00246 8.86021 13.5202 -0.768949 25.0073
5042891 2.78261 10.4429 2.992 8.85085 13.4823 -0.827307 25.0683
5042901 2.73913 10.4242 3.00246 8.81343 13.5073 -0.809123 24.9792
5042911 2.73913 10.4242 3.00246 8.81343 13.5073 -0.809123 24.9792
5042921 2.73913 10.4055 3.02338 8.82278 13.4707 -0.779361 24.9908
5042931 2.73913 10.4055 3.02338 8.82278 13.4707 -0.779361 24.9908
5042942 2.69565 10.3495 3.05477 8.86957 13.4851 -0.673284 24.9694
5042951 2.71304 10.2934 3.08615 8.95377 13.4231 -0.578842 25.0464
5042960 2.71304 10.2934 3.08615 8.95377 13.4231 -0.578842 25.0464
5042973 2.73913 10.2654 3.10708 8.98184 13.3511 -0.547315 25.0934
5042981 2.71304 10.2654 3.15938 8.95377 13.298 -0.517269 25.0916
5042992 2.71304 10.2654 3.15938 8.95377 13.298 -0.517269 25.0916
5043001 2.74783 10.2093 3.09662 9.00055 13.3365 -0.514881 25.0543
5043021 2.76522 10.1346 3.13846 9.03797 13.2286 -0.432718 25.0763
5043033 2.74783 10.0879 3.11754 9.12218 13.3046 -0.356537 25.0755
5043052 2.77391 10.1066 3.11754 9.15025 13.2866 -0.365464 25.1483
5043062 2.75652 10.0692 3.14892 9.13154 13.2391 -0.325792 25.1062
5043072 2.75652 10.0692 3.14892 9.13154 13.2391 -0.325792 25.1062
5043092 2.7913 10.144 3.14892 9.18767 13.2473 -0.355336 25.2719
5043095 2.7913 10.144 3.14892 9.18767 13.2473 -0.355336 25.2719
5043102 2.77391 10.0692 3.20123 9.09411 13.1155 -0.326869 25.1385
5043112 2.82609 10.1533 3.18031 9.18767 13.1518 -0.361816 25.3474
5043133 2.8087 10.1533 3.09662 9.08475 13.2567 -0.465703 25.1434
5043146 2.8087 10.1066 3.14892 9.0754 13.1509 -0.412278 25.1396
5043153 2.8087 10.1066 3.14892 9.0754 13.1509 -0.412278 25.1396
5043163 2.8087 10.1066 3.06523 9.02862 13.2564 -0.492685 25.0091
5043174 2.8087 10.1066 3.06523 9.02862 13.2564 -0.492685 25.0091
5043183 2.83478 10.0412 3.16985 8.88828 12.959 -0.492018 24.9341
5043193 2.95652 9.93846 3.23262 8.98184 12.6757 -0.406538 25.1094
5043203 2.95652 9.93846 3.23262 8.98184 12.6757 -0.406538 25.1094
5043213 2.93913 9.8544 3.24308 8.95377 12.6308 -0.358146 24.9904
5043223 3.01739 9.76099 3.34769 8.8415 12.2533 -0.353973 24.9676
5043233 3.01739 9.76099 3.34769 8.8415 12.2533 -0.353973 24.9676
5043243 3.10435 9.68626 3.4 8.81343 11.9934 -0.346254 25.004
5043254 3.10435 9.68626 3.4 8.81343 11.9934 -0.346254 25.004
5043264 3.2 9.58352 3.54646 8.73858 11.544 -0.298266 25.0686
5043274 3.4087 9.52747 3.66154 8.776 11.0678 -0.294769 25.3737
5043284 3.4087 9.52747 3.66154 8.776 11.0678 -0.294769 25.3737
5043294 3.44348 9.3967 3.73477 8.776 10.8423 -0.194908 25.351
5043304 3.58261 9.27527 3.87077 8.74794 10.3721 -0.140822 25.4766
5043314 3.58261 9.27527 3.87077 8.74794 10.3721 -0.140822 25.4766
5043324 3.69565 9.10714 4.03815 8.67309 9.84402 -0.0538248 25.514
5043334 3.69565 9.10714 4.03815 8.67309 9.84402 -0.0538248 25.514
5043344 3.68696 8.7989 4.25785 8.5421 9.29 0.186326 25.2858
5043357 3.78261 8.58407 4.40431 8.46725 8.78073 0.300073 25.2382
5043364 3.78261 8.58407 4.40431 8.46725 8.78073 0.300073 25.2382
5043374 3.88696 8.28516 4.56123 8.27078 8.10642 0.395865 25.0041
5043384 3.94783 8.10769 4.88554 8.14915 7.39679 0.585387 25.0902
5043406 4.1913 7.95824 5.14708 7.98074 6.52817 0.580521 25.2774
5043426 4.35652 7.57527 5.52369 7.73748 5.39092 0.791515 25.193
5043436 4.63478 7.3978 5.87938 7.52229 4.3307 0.807429 25.4343
5043456 4.84348 7.20165 6.12 7.1574 3.35232 0.729949 25.3225
5043468 5.12174 7.01484 6.392 6.78316 2.25612 0.615478 25.3117
5043477 5.12174 7.01484 6.392 6.78316 2.25612 0.615478 25.3117
5043489 5.33043 6.7533 6.78954 6.37149 0.995073 0.640111 25.2448
5043497 5.52174 6.51978 7.072 5.95982 -0.1138 0.592445 25.0733
5043510 5.52174 6.51978 7.072 5.95982 -0.1138 0.592445 25.0733
5043517 5.73043 6.2489 7.39631 5.66043 -1.21566 0.645509 25.0361
5043527 5.73043 6.2489 7.39631 5.66043 -1.21566 0.645509 25.0361
5043537 5.94783 5.95934 7.90892 5.32361 -2.55949 0.790801 25.1397
5043547 6.2087 5.6978 8.34831 5.02422 -3.79266 0.869907 25.279
5043559 6.2087 5.6978 8.34831 5.02422 -3.79266 0.869907 25.279
5043567 6.49565 5.38956 8.88185 4.71547 -5.17264 1.00781 25.4825
5043577 6.49565 5.38956 8.88185 4.71547 -5.17264 1.00781 25.4825
5043587 6.67826 5.04396 9.41538 4.40671 -6.50142 1.23308 25.5443
5043597 6.87826 4.77308 9.88615 4.19152 -7.57881 1.41455 25.729
5043617 7.06087 4.46484 10.2418 3.92955 -8.66666 1.54435 25.6971
5043627 7.13913 4.2033 10.5557 3.76114 -9.48038 1.73879 25.6593
5043637 7.13913 4.2033 10.5557 3.76114 -9.48038 1.73879 25.6593
5043647 7.29565 3.9978 10.7335 3.58338 -10.199 1.77084 25.6104
5043660 7.29565 3.9978 10.7335 3.58338 -10.199 1.77084 25.6104
5043667 7.36522 3.70824 11.0265 3.44304 -11.0015 1.99431 25.543
5043677 7.53043 3.51209 11.2252 3.36819 -11.5808 2.07769 25.6359
5043687 7.53043 3.51209 11.2252 3.36819 -11.5808 2.07769 25.6359
5043697 7.62609 3.26923 11.4972 3.25592 -12.2797 2.25618 25.6485
5043706 7.71304 3.13846 11.6542 3.20914 -12.6577 2.34016 25.7148
5043724 7.71304 3.13846 11.6542 3.20914 -12.6577 2.34016 25.7148
5043736 7.88696 3.09176 11.7797 3.11558 -13.0047 2.27055 25.874
5043738 7.88696 3.09176 11.7797 3.11558 -13.0047 2.27055 25.874
5043748 8 2.99835 11.7902 3.07815 -13.2542 2.24417 25.8667
5043759 8.06087 2.83022 11.7378 2.99395 -13.6348 2.2484 25.6229
5043769 8.06087 2.83022 11.7378 2.99395 -13.6348 2.2484 25.6229
5043778 8.11304 2.77418 11.5809 2.86296 -13.8731 2.1061 25.3311
5043788 8.18261 2.69945 11.4135 2.78811 -14.0615 1.98511 25.0837
5043808 8.26957 2.60604 11.4345 2.81618 -14.21 2.01484 25.1263
5043818 8.26957 2.60604 11.4345 2.81618 -14.21 2.01484 25.1263
5043828 8.33913 2.66209 11.3508 2.74133 -14.2334 1.84763 25.0933
5043839 8.4087 2.60604 11.3508 2.71326 -14.3948 1.82383 25.0788
5043848 8.4087 2.60604 11.3508 2.71326 -14.3948 1.82383 25.0788
5043860 8.48696 2.62473 11.2357 2.69455 -14.3793 1.68831 25.0419
5043868 8.52174 2.57802 11.2985 2.70391 -14.4791 1.73448 25.1021
5043880 8.52174 2.57802 11.2985 2.70391 -14.4791 1.73448 25.1021
5043888 8.66087 2.64341 11.3194 2.69455 -14.4583 1.60536 25.3182
5043909 8.66957 2.5967 11.2357 2.6197 -14.6177 1.54595 25.1217
5043920 8.76522 2.57802 11.2566 2.63841 -14.6656 1.51662 25.2383
5043929 8.76522 2.57802 11.2566 2.63841 -14.6656 1.51662 25.2383
5043940 8.8087 2.63407 11.1938 2.60099 -14.6285 1.39796 25.2376
5043949 8.82609 2.60604 11.1625 2.56357 -14.7258 1.36769 25.1582
5043961 8.82609 2.60604 11.1625 2.56357 -14.7258 1.36769 25.1582
5043969 8.88696 2.60604 11.152 2.55421 -14.7611 1.31743 25.1992
5043979 8.88696 2.60604 11.152 2.55421 -14.7611 1.31743 25.1992
5043989 8.90435 2.5033 11.0369 2.49807 -14.9743 1.27935 24.9426
5043999 8.95652 2.5967 11.1206 2.47001 -14.9246 1.21544 25.1438
5044009 8.95652 2.5967 11.1206 2.47001 -14.9246 1.21544 25.1438
5044022 9.06956 2.51264 11.0369 2.45129 -15.1 1.1404 25.0704
5044029 9.15652 2.51264 11.0265 2.41387 -15.19 1.05807 25.1095
5044039 9.15652 2.61538 11.0265 2.41387 -15.0262 0.992628 25.2122
5044049 9.26957 2.62473 11.0265 2.47936 -14.9526 0.951687 25.4001
5044059 9.26957 2.62473 11.0265 2.47936 -14.9526 0.951687 25.4001
5044069 9.31304 2.55 10.9428 2.43258 -15.129 0.898814 25.2384
5044080 9.3913 2.56868 10.9532 2.37644 -15.223 0.812402 25.2897
5044089 9.3913 2.56868 10.9532 2.37644 -15.223 0.812402 25.2897
5044099 9.45217 2.61538 10.744 2.37644 -15.0909 0.627018 25.188
5044109 9.45217 2.61538 10.744 2.37644 -15.0909 0.627018 25.188
5044119 9.47826 2.54066 10.5557 2.37644 -15.1465 0.549005 24.9511
5044129 9.52174 2.58736 10.5243 2.32031 -15.1665 0.442128 24.9537
5044139 9.52174 2.58736 10.5243 2.32031 -15.1665 0.442128 24.9537
5044149 9.66087 2.60604 10.5871 2.27353 -15.2904 0.354407 25.1275
5044159 9.66957 2.62473 10.4615 2.25482 -15.2451 0.253131 25.0106
5044169 9.66957 2.62473 10.4615 2.25482 -15.2451 0.253131 25.0106
5044181 9.66087 2.63407 10.5348 2.2361 -15.2852 0.284813 25.0658
5044190 9.66087 2.63407 10.5348 2.2361 -15.2852 0.284813 25.0658
5044200 9.73913 2.53132 10.4825 2.14254 -15.613 0.213627 24.8955
5044210 9.7913 2.56868 10.4406 2.17061 -15.5105 0.150919 24.9712
5044220 9.7913 2.56868 10.4406 2.17061 -15.5105 0.150919 24.9712
5044231 9.7913 2.61538 10.4615 2.1519 -15.4731 0.123948 25.0201
5044240 9.91304 2.62473 10.4302 2.17997 -15.4471 0.0431567 25.1479
5044251 9.91304 2.62473 10.4302 2.17997 -15.4471 0.0431567 25.1479
5044261 9.93044 2.62473 10.3569 2.17061 -15.4409 -0.0165197 25.0827
5044270 9.93044 2.62473 10.3569 2.17061 -15.4409 -0.0165197 25.0827
5044283 9.93913 2.62473 10.3569 2.12383 -15.5198 -0.0497729 25.0446
5044291 9.86957 2.61538 10.2105 2.07705 -15.5289 -0.119551 24.7725
5044300 9.86957 2.61538 10.2105 2.07705 -15.5289 -0.119551 24.7725
5044311 9.86087 2.64341 10.2 2.13319 -15.3843 -0.103327 24.8375
5044320 9.7913 2.61538 10.3046 2.14254 -15.4282 0.0244242 24.8538
5044331 9.7913 2.61538 10.3046 2.14254 -15.4282 0.0244242 24.8538
5044340 9.86087 2.66209 10.4511 2.17997 -15.3752 0.0644553 25.154
5044356 9.86087 2.66209 10.4511 2.17997 -15.3752 0.0644553 25.154
5044364 9.86957 2.67143 10.3778 2.24546 -15.2304 0.0490648 25.1643
5044373 9.86957 2.62473 10.3674 2.21739 -15.3463 0.0541198 25.0791
5044393 9.86087 2.65275 10.3883 2.09576 -15.5021 -0.0177294 24.9977
5044401 9.84348 2.58736 10.4197 2.11447 -15.5831 0.0620824 24.965
5044410 9.84348 2.58736 10.4197 2.11447 -15.5831 0.0620824 24.965
5044420 9.85217 2.58736 10.336 2.22675 -15.3727 0.0739217 25.0023
5044431 9.85217 2.58736 10.336 2.22675 -15.3727 0.0739217 25.0023
5044440 9.78261 2.71813 10.2314 2.08641 -15.3207 -0.110572 24.8185
5044450 9.71304 2.70879 10.1791 2.14254 -15.1967 -0.060752 24.7435
5044474 9.71304 2.81154 10.1791 2.14254 -15.0305 -0.12253 24.8462
5044482 9.77391 2.99835 10.1686 2.19868 -14.6636 -0.241633 25.1396
5044492 9.77391 2.99835 10.1686 2.19868 -14.6636 -0.241633 25.1396
5044503 9.74783 3.20385 9.89662 2.17061 -14.2592 -0.530266 25.0189
5044512 9.74783 3.20385 9.89662 2.17061 -14.2592 -0.530266 25.0189
5044522 9.66957 3.50275 9.59323 2.16125 -13.6387 -0.853195 24.9268
5044532 9.47826 3.81099 9.17477 2.24546 -12.7447 -1.1346 24.7095
5044542 9.47826 3.81099 9.17477 2.24546 -12.7447 -1.1346 24.7095
5044552 9.25217 4.15659 8.67262 2.31095 -11.7427 -1.49137 24.3923
5044562 8.73043 4.5489 7.99262 2.57292 -10.0663 -1.70716 23.8449
5044572 8.73043 4.5489 7.99262 2.57292 -10.0663 -1.70716 23.8449
5044582 8.26957 5.3522 7.50092 3.06879 -7.59513 -1.89243 24.1915
5044592 8.26957 5.3522 7.50092 3.06879 -7.59513 -1.89243 24.1915
5044603 7.68696 6.30494 6.94646 3.75179 -4.63412 -2.00099 24.6902
5044612 7.10435 7.22033 6.60123 4.65933 -1.78415 -1.79642 25.5852
5044622 7.10435 7.22033 6.60123 4.65933 -1.78415 -1.79642 25.5852
5044632 6.47826 8.07033 6.28738 5.42653 0.69606 -1.61905 26.2625
5044642 6.47826 8.07033 6.28738 5.42653 0.69606 -1.61905 26.2625
5044652 5.86087 8.66813 5.90031 6.13759 2.86498 -1.40651 26.5669
5044662 5.33043 9.18187 5.51323 6.79252 4.7829 -1.23418 26.818
5044684 4.92174 9.70494 5.02154 7.12933 6.43356 -1.38688 26.7776
5044693 4.54783 9.95714 4.47754 7.20418 7.76727 -1.61719 26.1867
5044713 4.25217 10.144 3.92308 7.05449 8.8903 -2.02093 25.3737
5044724 4.25217 10.144 3.92308 7.05449 8.8903 -2.02093 25.3737
5044733 3.93913 10.2093 3.55692 6.85801 9.74142 -2.27994 24.5634
5044745 3.83478 10.2374 3.33723 6.71767 10.137 -2.49756 24.127
5044766 3.85217 10.2 3.28492 6.68024 10.1418 -2.55254 24.0173
5044773 4.01739 10.3214 3.34769 6.65217 9.86959 -2.67411 24.3387
5044787 4.01739 10.3214 3.34769 6.65217 9.86959 -2.67411 24.3387
5044793 4.21739 10.3962 3.42092 6.62411 9.51185 -2.77906 24.6586
5044803 4.21739 10.3962 3.42092 6.62411 9.51185 -2.77906 24.6586
5044816 4.4 10.4055 3.60923 6.59604 8.98843 -2.75895 25.0108
5044823 4.73913 10.4802 3.672 6.55861 8.47516 -2.94032 25.45
5044833 4.73913 10.4802 3.672 6.55861 8.47516 -2.94032 25.45
5044843 5.06957 10.4802 3.78708 6.35278 7.76223 -3.15882 25.6896
5044853 5.24348 10.4989 3.65108 6.19373 7.61912 -3.45734 25.5872
5044874 5.3913 10.3308 3.672 5.90369 7.08675 -3.64442 25.2978
5044884 5.3913 10.3308 3.672 5.90369 7.08675 -3.64442 25.2978
5044894 5.37391 10.0973 3.59877 5.67914 6.87269 -3.75363 24.7491
5044904 5.53043 10.0038 3.65108 5.55751 6.44615 -3.83486 24.7429
5044914 5.53043 10.0038 3.65108 5.55751 6.44615 -3.83486 24.7429
5044924 5.66087 9.95714 3.52554 5.39846 6.28432 -4.09136 24.542
5044934 5.75652 9.86374 3.60923 5.31425 5.92029 -4.09276 24.5437
5044944 5.75652 9.86374 3.60923 5.31425 5.92029 -4.09276 24.5437
5044954 5.8087 9.78901 3.57785 5.31425 5.83582 -4.10718 24.4898
5044964 5.8087 9.78901 3.57785 5.31425 5.83582 -4.10718 24.4898
5044975 5.83478 9.73297 3.60923 5.41717 5.80029 -3.98958 24.5942
5044984 5.90435 9.68626 3.61969 5.36103 5.61962 -4.03512 24.5713
5044995 5.90435 9.68626 3.61969 5.36103 5.61962 -4.03512 24.5713
5045016 5.87826 9.71429 3.536 5.42653 5.83031 -4.05009 24.5551
5045017 5.74783 9.74231 3.54646 5.48266 6.04697 -3.95261 24.5193
5045025 5.74783 9.74231 3.54646 5.48266 6.04697 -3.95261 24.5193
5045039 5.72174 9.6489 3.59877 5.50138 5.95584 -3.84366 24.4708
5045046 5.72174 9.6489 3.59877 5.50138 5.95584 -3.84366 24.4708
5045055 5.66087 9.67692 3.672 5.58558 6.02719 -3.70814 24.5954
5045065 5.70435 9.63022 3.66154 5.55751 5.92769 -3.73602 24.5536
5045075 5.70435 9.63022 3.66154 5.55751 5.92769 -3.73602 24.5536
5045085 5.6 9.61154 3.72431 5.63236 6.02363 -3.57466 24.5682
5045100 5.63478 9.49011 3.74523 5.67914 5.89553 -3.48311 24.5493
5045115 5.71304 9.53681 3.92308 5.79141 5.70024 -3.32596 24.9643
5045142 5.81739 9.50879 4.09046 5.78206 5.34055 -3.24639 25.1987
5045148 5.92174 9.40604 4.20554 5.73528 4.96075 -3.19782 25.2686
5045155 5.92174 9.40604 4.20554 5.73528 4.96075 -3.19782 25.2686
5045169 6.05217 9.31264 4.27877 5.59494 4.53338 -3.26353 25.2385
5045176 6.11304 9.07912 4.55077 5.37975 3.77652 -3.14157 25.1227
5045190 6.11304 9.07912 4.55077 5.37975 3.77652 -3.14157 25.1227
5045196 6.33913 8.8456 4.74954 5.19263 2.93466 -3.12966 25.1269
5045217 6.43478 8.61209 4.91692 4.99615 2.26015 -3.08522 24.9599
5045231 6.6 8.36923 5.11569 4.79031 1.4511 -3.05317 24.8752
5045237 6.6 8.36923 5.11569 4.79031 1.4511 -3.05317 24.8752
5045247 6.75652 8.09835 5.40862 4.60319 0.539282 -2.92142 24.8667
5045257 6.93913 7.76209 5.848 4.41607 -0.60982 -2.66599 24.9653
5045267 6.93913 7.76209 5.848 4.41607 -0.60982 -2.66599 24.9653
5045277 7.13913 7.49121 6.47569 4.29444 -1.80033 -2.27961 25.4005
5045297 7.34783 7.06154 7.04062 4.17281 -3.07743 -1.87095 25.6228
5045307 7.6 6.79066 7.65785 3.96698 -4.32455 -1.59472 26.0155
5045317 7.6 6.79066 7.65785 3.96698 -4.32455 -1.59472 26.0155
5045327 7.86087 6.26758 8.30646 3.77986 -5.8363 -1.1685 26.2148
5045339 7.98261 5.75385 8.93415 3.64887 -7.13734 -0.657364 26.3195
5045347 7.98261 5.75385 8.93415 3.64887 -7.13734 -0.657364 26.3195
5045360 8.13043 5.32418 9.67692 3.48046 -8.45739 -0.167534 26.612
5045367 8.13043 5.32418 9.67692 3.48046 -8.45739 -0.167534 26.612
5045377 8.29565 4.8011 10.1791 3.33077 -9.71833 0.232887 26.6066
5045387 8.46087 4.38077 10.5871 3.19978 -10.7661 0.532447 26.6285
5045408 8.55652 4.00714 10.7335 3.0033 -11.6724 0.6691 26.3005
5045418 8.55652 3.56813 10.8382 2.90974 -12.4812 0.9411 25.8725
5045428 8.55652 3.56813 10.8382 2.90974 -12.4812 0.9411 25.8725
5045445 8.47826 3.37198 10.7022 2.70391 -12.9715 0.924021 25.2563
5045448 8.47826 3.37198 10.7022 2.70391 -12.9715 0.924021 25.2563
5045458 8.45217 3.0544 10.6498 2.61035 -13.5638 1.06208 24.7668
5045468 8.52174 2.90495 10.6917 2.55421 -13.9368 1.10602 24.6726
5045479 8.52174 2.90495 10.6917 2.55421 -13.9368 1.10602 24.6726
5045490 8.6 2.8489 10.6708 2.55421 -14.0509 1.07973 24.6739
5045499 8.66087 2.71813 10.6603 2.48872 -14.3859 1.08245 24.528
5045512 8.66087 2.71813 10.6603 2.48872 -14.3859 1.08245 24.528
5045519 8.75652 2.69945 10.6708 2.41387 -14.5819 0.995493 24.5406
5045534 8.75652 2.69945 10.6708 2.41387 -14.5819 0.995493 24.5406
5045539 8.8 2.64341 10.6394 2.36709 -14.7535 0.958942 24.4499
5045551 8.7913 2.5967 10.6917 2.41387 -14.7717 1.05184 24.4936
5045559 8.7913 2.5967 10.6917 2.41387 -14.7717 1.05184 24.4936
5045569 8.87826 2.55 10.5452 2.32966 -14.9608 0.892868 24.3032
5045581 8.81739 2.52198 10.5034 2.29224 -15.0265 0.905069 24.135
5045590 8.81739 2.52198 10.5034 2.29224 -15.0265 0.905069 24.135
5045601 8.86957 2.55 10.5662 2.28288 -15.0429 0.883532 24.2686
5045611 8.86957 2.55 10.5662 2.28288 -15.0429 0.883532 24.2686
5045621 8.86087 2.55 10.8172 2.36709 -15.004 1.08158 24.5952
5045635 8.9913 2.5967 11.0055 2.41387 -14.9818 1.09851 25.0074
5045644 8.9913 2.5967 11.0055 2.41387 -14.9818 1.09851 25.0074
5045653 9.14783 2.58736 11.2462 2.47001 -15.0646 1.1675 25.4513
5045664 9.29565 2.54066 11.3822 2.42323 -15.3207 1.15187 25.6417
5045670 9.29565 2.54066 11.3822 2.42323 -15.3207 1.15187 25.6417
5045686 9.26957 2.62473 11.3822 2.3858 -15.2376 1.09519 25.6622
5045690 9.26957 2.62473 11.3822 2.3858 -15.2376 1.09519 25.6622
5045700 9.21739 2.54066 11.3717 2.44194 -15.2576 1.20577 25.5717
5045711 9.17391 2.56868 11.3403 2.42323 -15.2143 1.1885 25.5061
5045720 9.17391 2.56868 11.3403 2.42323 -15.2143 1.1885 25.5061
5045730 9.21739 2.53132 11.1625 2.39516 -15.2663 1.07221 25.3063
5045741 9.18261 2.49396 11.0265 2.33902 -15.3503 1.01165 25.042
5045752 9.18261 2.49396 11.0265 2.33902 -15.3503 1.01165 25.042
5045762 9.18261 2.5033 10.9951 2.33902 -15.3231 0.988124 25.02
5045783 9.25217 2.51264 10.9428 2.29224 -15.3902 0.882125 24.9998
5045792 9.25217 2.52198 10.9428 2.33902 -15.2997 0.902563 25.0559
5045812 9.23478 2.51264 11.0055 2.3016 -15.3925 0.933791 25.0546
5045822 9.31304 2.58736 10.9323 2.32031 -15.2444 0.806388 25.153
5045832 9.31304 2.58736 10.9323 2.32031 -15.2444 0.806388 25.153
5045842 9.3913 2.62473 10.9742 2.36709 -15.157 0.783924 25.3573
5045854 9.3913 2.62473 10.9742 2.36709 -15.157 0.783924 25.3573
5045863 9.3913 2.64341 10.9742 2.40451 -15.0684 0.793256 25.4134
5045872 9.4 2.69011 10.9428 2.3016 -15.1484 0.683409 25.3345
5045885 9.4 2.69011 10.9428 2.3016 -15.1484 0.683409 25.3345
5045892 9.45217 2.67143 10.9009 2.32031 -15.1524 0.649617 25.3448
5045902 9.34783 2.68077 10.8486 2.29224 -15.1209 0.662863 25.1695
5045912 9.34783 2.68077 10.8486 2.29224 -15.1209 0.662863 25.1695
5045922 9.38261 2.71813 10.7754 2.24546 -15.1209 0.54939 25.1216
5045932 9.38261 2.71813 10.7754 2.24546 -15.1209 0.54939 25.1216
5045942 9.4087 2.66209 10.5975 2.3016 -15.0607 0.497609 24.9699
5045952 9.33913 2.68077 10.5871 2.24546 -15.089 0.490478 24.8524
5045963 9.33913 2.68077 10.5871 2.24546 -15.089 0.490478 24.8524
5045973 9.34783 2.69945 10.5348 2.28288 -14.9812 0.464736 24.8649
5045982 9.26957 2.73681 10.6812 2.27353 -14.9637 0.569914 24.9611
5046003 9.26957 2.77418 10.7126 2.35773 -14.7828 0.613165 25.1141
5046016 9.26957 2.77418 10.7126 2.35773 -14.7828 0.613165 25.1141
5046023 9.24348 2.76484 10.6289 2.32031 -14.8124 0.565512 24.9575
5046033 9.28696 2.77418 10.7126 2.31095 -14.8641 0.575513 25.0847
5046053 9.23478 2.82088 10.7231 2.33902 -14.7286 0.601031 25.1178
5046064 9.16522 2.78352 10.7858 2.31095 -14.8296 0.687586 25.0455
5046073 9.16522 2.78352 10.7858 2.31095 -14.8296 0.687586 25.0455
5046084 9.15652 2.83022 10.7649 2.40451 -14.5955 0.70521 25.1562
5046093 9.15652 2.83022 10.7649 2.40451 -14.5955 0.70521 25.1562
5046104 9.04348 2.85824 10.6185 2.32031 -14.5764 0.626226 24.8405
5046113 8.96522 2.95165 10.472 2.39516 -14.2132 0.575143 24.784
5046134 8.86957 3.04505 10.3255 2.41387 -13.9289 0.501818 24.654
5046147 8.66957 3.1011 10.1477 2.47936 -13.5636 0.526518 24.3977
5046154 8.66957 3.1011 10.1477 2.47936 -13.5636 0.526518 24.3977
5046169 8.61739 3.41868 10.0117 2.61035 -12.7748 0.356455 24.6581
5046174 8.61739 3.41868 10.0117 2.61035 -12.7748 0.356455 24.6581
5046184 8.5913 3.83901 9.84431 2.83489 -11.7104 0.14868 25.1095
5046196 8.53913 4.35275 9.53046 3.02201 -10.5081 -0.200086 25.4444
5046216 8.36522 4.93187 9.23754 3.34948 -9.00303 -0.41149 25.8841
5046225 8.13913 5.57637 8.71446 3.87342 -7.03693 -0.643049 26.3034
5046236 8.13913 5.57637 8.71446 3.87342 -7.03693 -0.643049 26.3034
5046245 7.78261 6.2022 8.30646 4.64062 -4.86993 -0.577974 26.9319
5046258 7.78261 6.2022 8.30646 4.64062 -4.86993 -0.577974 26.9319
5046265 7.43478 6.76264 7.69969 5.31425 -2.80911 -0.652378 27.2114
5046293 6.86957 7.22967 7.01969 5.83819 -0.761758 -0.690735 26.9571
5046294 6.86957 7.22967 7.01969 5.83819 -0.761758 -0.690735 26.9571
5046295 6.22609 7.44451 6.22462 6.14695 1.0951 -0.748228 26.0422
5046306 5.46957 7.6967 5.55508 6.4557 3.10576 -0.688423 25.177
5046316 5.46957 7.6967 5.55508 6.4557 3.10576 -0.688423 25.177
5046326 4.93913 8.13571 4.84369 6.79252 5.20557 -0.873275 24.7111
5046336 4.93913 8.13571 4.84369 6.79252 5.20557 -0.873275 24.7111
5046348 4.45217 8.39725 4.43569 7.03577 6.72792 -0.849862 24.3209
5046355 4.04348 8.74286 4.00677 7.47551 8.41428 -0.806014 24.2686
5046370 4.04348 8.74286 4.00677 7.47551 8.41428 -0.806014 24.2686
5046376 3.84348 9.12582 3.74523 7.84975 9.55337 -0.839218 24.5643
5046386 3.65217 9.46209 3.50462 8.24271 10.6067 -0.824728 24.8616
5046396 3.65217 9.46209 3.50462 8.24271 10.6067 -0.824728 24.8616
5046406 3.50435 9.75165 3.52554 8.55146 11.125 -0.698101 25.333
5046416 3.50435 9.75165 3.52554 8.55146 11.125 -0.698101 25.333
5046426 3.50435 10.0225 3.45231 8.72922 11.4701 -0.784964 25.7084
5046440 3.46087 10.2 3.44185 8.8415 11.697 -0.796436 25.9442
5046462 3.53913 10.3495 3.38954 8.75729 11.6938 -1.00349 26.0354
5046467 3.44348 10.2747 3.264 8.58888 11.8846 -1.0942 25.5711
5046477 3.44348 10.2747 3.264 8.58888 11.8846 -1.0942 25.5711
5046489 3.35652 10.2093 3.16985 8.4579 12.0476 -1.15394 25.1936
5046497 3.35652 10.2093 3.16985 8.4579 12.0476 -1.15394 25.1936
5046508 3.28696 10.0599 3.13846 8.25206 12.0127 -1.18625 24.7374
5046517 3.26087 9.97582 3.19077 8.25206 11.9292 -1.09029 24.6795
5046530 3.26087 9.97582 3.19077 8.25206 11.9292 -1.09029 24.6795
5046537 3.25217 9.93846 3.09662 8.1585 12.0145 -1.18764 24.4458
5046547 3.25217 9.93846 3.09662 8.1585 12.0145 -1.18764 24.4458
5046557 3.1913 9.89176 3.02338 8.19593 12.2138 -1.15035 24.3024
5046567 3.13043 9.91044 3.18031 8.33627 12.1511 -0.93106 24.5574
5046587 3.18261 10.0038 3.06523 8.33627 12.2949 -1.08892 24.588
5046598 3.2087 10.1253 3.11754 8.44854 12.2967 -1.06499 24.9
5046607 3.2087 10.1253 3.11754 8.44854 12.2967 -1.06499 24.9
5046621 3.2 10.2467 3.05477 8.41112 12.4466 -1.19266 24.9126
5046627 3.2 10.2467 3.05477 8.41112 12.4466 -1.19266 24.9126
5046637 3.13913 10.3027 3.05477 8.44854 12.585 -1.1657 24.9452
5046647 3.10435 10.3214 2.97108 8.33627 12.718 -1.28477 24.7331
5046657 3.10435 10.3214 2.97108 8.33627 12.718 -1.28477 24.7331
5046667 3.11304 10.4242 2.97108 8.26142 12.7186 -1.39569 24.7697
5046677 3.13913 10.4055 2.98154 8.25206 12.6491 -1.39902 24.7782
5046689 3.13913 10.4055 2.98154 8.25206 12.6491 -1.39902 24.7782
5046697 3.16522 10.4242 2.97108 8.20528 12.6113 -1.46152 24.7658
5046712 3.16522 10.4242 2.97108 8.20528 12.6113 -1.46152 24.7658
5046717 3.09565 10.3681 2.95015 8.16786 12.7027 -1.43141 24.5818
5046727 3.16522 10.2841 2.93969 8.224 12.5982 -1.39292 24.613
5046738 3.16522 10.2841 2.93969 8.224 12.5982 -1.39292 24.613
5046747 3.23478 10.4055 3.01292 8.26142 12.4618 -1.42442 24.9146
5046759 3.27826 10.3775 3.10708 8.29884 12.2607 -1.34657 25.0617
5046767 3.27826 10.3775 3.10708 8.29884 12.2607 -1.34657 25.0617
5046781 3.34783 10.2934 3.10708 8.39241 12.1624 -1.27786 25.1407
5046786 3.34783 10.2934 3.10708 8.39241 12.1624 -1.27786 25.1407
5046798 3.38261 10.2 3.23262 8.37369 11.8688 -1.17689 25.1889
5046808 3.35652 10.144 3.23262 8.41112 11.8973 -1.10766 25.1442
5046818 3.35652 10.144 3.23262 8.41112 11.8973 -1.10766 25.1442
5046828 3.41739 9.98516 3.23262 8.42983 11.7345 -1.04136 25.065
5046838 3.42609 9.84505 3.264 8.51403 11.6461 -0.894105 25.0492
5046851 3.42609 9.84505 3.264 8.51403 11.6461 -0.894105 25.0492
5046858 3.46957 9.66758 3.37908 8.51403 11.3193 -0.745519 25.0303
5046868 3.46957 9.66758 3.37908 8.51403 11.3193 -0.745519 25.0303
5046878 3.41739 9.55549 3.35815 8.49532 11.3541 -0.676344 24.8264
5046888 3.46087 9.47143 3.41046 8.51403 11.1782 -0.608166 24.8568
5046900 3.46087 9.47143 3.41046 8.51403 11.1782 -0.608166 24.8568
5046908 3.4 9.35 3.41046 8.53275 11.2099 -0.490089 24.6932
5046919 3.4 9.35 3.41046 8.53275 11.2099 -0.490089 24.6932
5046935 3.46087 9.26593 3.47323 8.64502 11.0453 -0.36741 24.8451
5046942 3.53913 9.21923 3.56738 8.6918 10.7969 -0.299294 25.0175
5046964 3.62609 9.19121 3.65108 8.64502 10.5114 -0.311307 25.1134
5046969 3.81739 9.11648 3.75569 8.65438 10.0594 -0.31002 25.3439
5046989 3.93043 9.03242 3.79754 8.53275 9.72318 -0.375141 25.2931
5047000 3.97391 8.91099 3.90215 8.42047 9.37755 -0.334588 25.2075
5047011 3.97391 8.91099 3.90215 8.42047 9.37755 -0.334588 25.2075
5047019 4.07826 8.69615 4.05908 8.35498 8.8471 -0.214596 25.1885
5047034 4.07826 8.69615 4.05908 8.35498 8.8471 -0.214596 25.1885
5047039 4.17391 8.60275 4.19508 8.24271 8.40437 -0.201596 25.2144
5047049 4.41739 8.51868 4.40431 8.0743 7.64448 -0.270004 25.4147
5047059 4.41739 8.51868 4.40431 8.0743 7.64448 -0.270004 25.4147
5047069 4.65217 8.42527 4.55077 7.81233 6.91284 -0.421189 25.4405
5047079 4.65217 8.42527 4.77046 7.81233 6.63962 -0.289159 25.6602
5047089 4.76522 8.21044 4.77046 7.47551 6.09623 -0.433965 25.2216
5047100 4.90435 7.95824 5.12615 7.24161 5.12215 -0.294186 25.2304
5047110 4.90435 7.95824 5.12615 7.24161 5.12215 -0.294186 25.2304
5047123 5.08696 7.73407 5.46092 6.98899 4.13042 -0.220276 25.2709
5047130 5.33913 7.47253 6.06769 6.76445 2.7591 0.0119805 25.6438
5047140 5.33913 7.47253 6.06769 6.76445 2.7591 0.0119805 25.6438
5047151 5.53043 7.28571 6.61169 6.38085 1.47667 0.102519 25.8087
5047160 5.53043 7.28571 6.61169 6.38085 1.47667 0.102519 25.8087
5047171 5.70435 6.92143 7.05108 5.96918 0.131777 0.230725 25.646
5047180 5.84348 6.60385 7.57415 5.48266 -1.30481 0.358467 25.5041
5047192 5.84348 6.60385 7.57415 5.48266 -1.30481 0.358467 25.5041
5047203 5.93913 6.35165 8.10769 5.23005 -2.40467 0.612772 25.6285
5047215 6.18261 6.07143 8.77723 4.94001 -3.80073 0.845091 25.9713
5047221 6.18261 6.07143 8.77723 4.94001 -3.80073 0.845091 25.9713
5047231 6.4 5.88462 9.27938 4.56577 -5.00291 0.895838 26.1298
5047242 6.63478 5.51099 9.78154 4.24766 -6.35882 1.07933 26.175
5047252 6.63478 5.51099 9.78154 4.24766 -6.35882 1.07933 26.175
5047262 6.91304 5.20275 10.3255 3.98569 -7.61545 1.24613 26.427
5047272 6.91304 5.20275 10.3255 3.98569 -7.61545 1.24613 26.427
5047282 7.06087 4.83846 10.8905 3.70501 -8.87708 1.52642 26.4948
5047292 7.2 4.46484 11.3403 3.5366 -9.9267 1.81529 26.5417
5047306 7.2 4.46484 11.3403 3.5366 -9.9267 1.81529 26.5417
5047313 7.26957 3.98846 11.6332 3.31205 -11.0695 2.11076 26.2033
5047322 7.32174 3.98846 11.6437 3.10622 -11.3879 1.97987 26.0601
5047332 7.32174 3.64286 11.6437 3.10622 -11.8769 2.20808 25.7145
5047343 7.34783 3.32527 11.6855 3.05944 -12.4406 2.40294 25.4181
5047363 7.46957 3.01703 11.5809 2.88167 -13.1786 2.39046 24.9492
5047374 7.58261 2.94231 11.5286 2.77876 -13.4806 2.2848 24.8323
5047383 7.58261 2.94231 11.5286 2.77876 -13.4806 2.2848 24.8323
5047399 7.68696 2.69945 11.5077 2.76004 -13.9278 2.36147 24.6541
5047403 7.75652 2.58736 11.5914 2.6852 -14.2923 2.39599 24.6205
5047413 7.75652 2.58736 11.5914 2.6852 -14.2923 2.39599 24.6205
5047423 7.76522 2.53132 11.6751 2.70391 -14.3919 2.48168 24.6755
5047434 7.76522 2.53132 11.6751 2.70391 -14.3919 2.48168 24.6755
5047445 7.83478 2.43791 11.7902 2.6852 -14.6495 2.54727 24.748
5047453 8.03478 2.36319 11.9575 2.6852 -14.9196 2.54272 25.0407
5047474 8.10435 2.43791 11.9889 2.70391 -14.8122 2.46714 25.2351
5047484 8.08696 2.41923 12.1249 2.70391 -14.8892 2.55929 25.335
5047494 8.08696 2.41923 12.1249 2.70391 -14.8892 2.55929 25.335
5047504 8.13913 2.45659 12.1877 2.76004 -14.7887 2.55565 25.5435
5047517 8.13913 2.45659 12.1877 2.76004 -14.7887 2.55565 25.5435
5047525 8.16522 2.34451 12.1249 2.64777 -15.127 2.52921 25.2824
5047535 8.17391 2.40989 12.1145 2.6852 -14.9638 2.4913 25.3835
5047544 8.17391 2.40989 12.1145 2.6852 -14.9638 2.4913 25.3835
5047558 8.16522 2.48462 12.0517 2.63841 -14.8914 2.39165 25.3399
5047574 8.09565 2.37253 12.1354 2.72262 -14.941 2.59997 25.3262
5047581 8.09565 2.37253 12.1354 2.72262 -14.941 2.59997 25.3262
5047585 8.06087 2.35385 12.1668 2.7694 -14.8953 2.67532 25.3509
5047595 8.06087 2.35385 12.1668 2.7694 -14.8953 2.67532 25.3509
5047606 8.03478 2.34451 12.1982 2.70391 -15.0155 2.68346 25.2813
5047618 8.06956 2.39121 12.1563 2.7694 -14.8359 2.63818 25.3865
5047629 8.06956 2.39121 12.1563 2.7694 -14.8359 2.63818 25.3865
5047635 8.04348 2.39121 12.2714 2.78811 -14.8421 2.7211 25.4942
5047651 8.10435 2.37253 12.4178 2.69455 -15.0992 2.71726 25.5893
5047656 8.10435 2.37253 12.4178 2.69455 -15.0992 2.71726 25.5893
5047666 8.04348 2.40055 12.3237 2.78811 -14.8484 2.73975 25.5558
5047676 8.04348 2.40055 12.3237 2.78811 -14.8484 2.73975 25.5558
5047685 8.07826 2.37253 12.2818 2.75069 -14.9479 2.69691 25.4833
5047698 8.05217 2.34451 12.2505 2.73198 -14.9987 2.71035 25.3791
5047705 8.05217 2.34451 12.2505 2.73198 -14.9987 2.71035 25.3791
5047715 8.06087 2.47527 12.1982 2.66648 -14.8787 2.55612 25.4008
5047727 8.03478 2.46593 12.2295 2.71326 -14.8222 2.61879 25.4435
5047743 8.03478 2.46593 12.2295 2.71326 -14.8222 2.61879 25.4435
5047747 8.06956 2.5033 12.3028 2.80682 -14.662 2.64971 25.6825
5047757 8.06956 2.5033 12.3028 2.80682 -14.662 2.64971 25.6825
5047767 8.08696 2.5033 12.2086 2.74133 -14.7326 2.56049 25.5402
5047777 8.0087 2.53132 12.1145 2.77876 -14.5608 2.56743 25.4332
5047788 8.0087 2.53132 12.1145 2.77876 -14.5608 2.56743 25.4332
5047797 8.01739 2.62473 11.9889 2.75069 -14.4109 2.42152 25.3817
5047811 8 2.60604 11.9366 2.76004 -14.3962 2.42501 25.3027
5047817 8 2.60604 11.9366 2.76004 -14.3962 2.42501 25.3027
5047833 8.04348 2.64341 11.8634 2.76004 -14.3256 2.33297 25.3103
5047847 8.03478 2.75549 11.8425 2.67584 -14.2698 2.20954 25.3086
5047857 8.02609 2.77418 11.7588 2.82554 -13.9702 2.23603 25.3846
5047881 8.05217 2.83956 11.7483 2.7694 -13.9628 2.14053 25.4094
5047888 8 2.86758 11.7483 2.78811 -13.8685 2.16629 25.404
5047908 7.95652 2.91429 11.6542 2.87232 -13.6078 2.15909 25.3973
5047929 7.91304 2.95165 11.5495 2.84425 -13.5268 2.09579 25.2585
5047940 7.84348 3.04505 11.4658 2.8536 -13.3 2.04157 25.208
5047951 7.84348 3.04505 11.4658 2.8536 -13.3 2.04157 25.208
5047959 7.81739 3.0544 11.3612 2.78811 -13.3249 1.96487 25.0211
5047973 7.74783 2.99835 11.3612 2.80682 -13.3497 2.0602 24.9142
5047979 7.74783 2.99835 11.3612 2.80682 -13.3497 2.0602 24.9142
5047989 7.72174 3.07308 11.3194 2.7694 -13.2604 1.98563 24.8836
5047999 7.72174 3.07308 11.3194 2.7694 -13.2604 1.98563 24.8836
5048010 7.67826 2.91429 11.3089 2.78811 -13.4518 2.12913 24.6896
5048019 7.67826 2.92363 11.4345 2.88167 -13.3512 2.23588 24.918
5048029 7.67826 2.92363 11.4345 2.88167 -13.3512 2.23588 24.918
5048042 7.72174 3.0544 11.3089 2.97523 -12.9698 2.09975 25.0603
5048049 7.66957 3.28791 11.2671 3.06879 -12.434 2.00353 25.2933
5048065 7.66957 3.28791 11.2671 3.06879 -12.434 2.00353 25.2933
5048069 7.62609 3.54945 11.0265 3.14364 -11.7964 1.77224 25.3456
5048079 7.62609 3.54945 11.0265 3.14364 -11.7964 1.77224 25.3456
5048089 7.49565 3.78297 10.7545 3.21849 -11.1366 1.6005 25.2516
5048099 7.3913 4.13791 10.3988 3.57402 -9.87975 1.43728 25.502
5048120 7.29565 4.77308 9.87569 3.89213 -8.23072 0.986447 25.8366
5048132 7.09565 5.49231 9.30031 4.34122 -6.25482 0.60251 26.2295
5048140 7.09565 5.49231 9.30031 4.34122 -6.25482 0.60251 26.2295
5048154 6.8 6.15549 8.65169 4.89323 -4.15368 0.333633 26.5004
5048160 6.8 6.15549 8.65169 4.89323 -4.15368 0.333633 26.5004
5048171 6.37391 6.71593 7.752 5.34232 -1.97415 0.00256419 26.1842
5048180 6.13913 7.25769 6.86277 5.80077 0.0542611 -0.422067 26.0604
5048199 6.13913 7.25769 6.86277 5.80077 0.0542611 -0.422067 26.0604
5048204 5.66957 7.84615 6.04677 6.26857 2.32123 -0.697053 25.8311
5048213 5.29565 8.42527 5.36677 6.57733 4.22772 -1.03848 25.665
5048232 4.94783 8.83626 4.64492 6.86736 6.03928 -1.34711 25.2964
5048242 4.94783 8.83626 4.64492 6.86736 6.03928 -1.34711 25.2964
5048253 4.57391 9.26593 4.05908 7.10127 7.73415 -1.60769 25.0002
5048262 4.32174 9.6022 3.60923 7.32581 9.04808 -1.80351 24.859
5048272 4.32174 9.6022 3.60923 7.32581 9.04808 -1.80351 24.859
5048283 4.14783 9.93846 3.47323 7.59714 9.8528 -1.79828 25.1567
5048294 4.09565 10.2747 3.37908 7.8404 10.3951 -1.84697 25.5899
5048303 4.09565 10.2747 3.37908 7.8404 10.3951 -1.84697 25.5899
5048319 4.05217 10.3868 3.24308 7.95267 10.7708 -1.89776 25.6347
5048323 3.91304 10.5736 3.21169 7.98074 11.1274 -1.92427 25.6791
5048345 3.8 10.639 3.09662 7.97138 11.4809 -1.9824 25.507
5048353 3.8 10.639 3.09662 7.97138 11.4809 -1.9824 25.507
5048367 3.66957 10.5643 3.02338 7.91525 11.7058 -1.96359 25.1725
5048373 3.6087 10.5456 2.93969 7.79362 11.8441 -2.06187 24.8876
5048394 3.56522 10.611 2.89785 7.83104 12.0246 -2.07627 24.9051
5048404 3.50435 10.5176 2.80369 7.80297 12.1937 -2.08006 24.6286
5048424 3.36522 10.5736 2.74092 7.76555 12.5106 -2.10615 24.4453
5048444 3.21739 10.5549 2.78277 7.83104 12.6976 -1.94282 24.3861
5048454 3.22609 10.5643 2.856 7.90589 12.614 -1.85023 24.5523
5048466 3.22609 10.5643 2.856 7.90589 12.614 -1.85023 24.5523
5048475 3.21739 10.6484 2.78277 7.95267 12.8051 -1.90863 24.6012
5048487 3.13913 10.583 2.80369 8.02752 12.8981 -1.76609 24.5533
5048511 3.25217 10.6016 2.76185 8.06494 12.8163 -1.83972 24.6806
5048525 3.15652 10.6484 2.79323 8.04623 12.9288 -1.80493 24.6443
5048535 3.18261 10.639 2.82462 8.18657 12.9047 -1.69761 24.8328
5048560 3.22609 10.7231 2.82462 8.18657 12.8794 -1.76559 24.9604
5048567 3.2087 10.6577 2.87692 8.21464 12.8083 -1.6677 24.958
5048584 3.2087 10.6577 2.87692 8.21464 12.8083 -1.6677 24.958
5048587 3.31304 10.7418 2.856 8.17722 12.7052 -1.80659 25.088
5048607 3.29565 10.7418 2.856 8.11172 12.6992 -1.84143 25.0051
5048617 3.33913 10.7418 2.856 8.02752 12.5921 -1.92116 24.9644
5048630 3.33913 10.7418 2.856 8.02752 12.5921 -1.92116 24.9644
5048637 3.33043 10.7044 2.87692 8.0743 12.5784 -1.8512 24.986
5048654 3.4087 10.7791 2.81415 7.98074 12.5457 -2.03716 24.9827
5048667 3.46087 10.7791 2.81415 7.94331 12.4487 -2.08973 24.9975
5048687 3.37391 10.7604 2.78277 7.87782 12.5848 -2.1015 24.7949
5048701 3.41739 10.7698 2.79323 7.79362 12.4655 -2.1799 24.774
5048708 3.41739 10.7698 2.79323 7.79362 12.4655 -2.1799 24.774
5048724 3.44348 10.7885 2.78277 7.74684 12.4276 -2.24279 24.7615
5048727 3.44348 10.7698 2.78277 7.75619 12.4229 -2.22665 24.7522
5048749 3.49565 10.7885 2.83508 7.81233 12.3038 -2.18802 24.9315
5048772 3.42609 10.7511 2.80369 7.82168 12.4413 -2.14805 24.8026
5048778 3.37391 10.7791 2.79323 7.81233 12.5454 -2.14924 24.7586
5048788 3.37391 10.7791 2.79323 7.81233 12.5454 -2.14924 24.7586
5048798 3.36522 10.7698 2.72 7.82168 12.6701 -2.18424 24.6767
5048808 3.33043 10.7044 2.70954 7.86846 12.73 -2.10672 24.6128
5048834 3.27826 10.7698 2.82462 7.98074 12.7222 -1.95709 24.8534
5048845 3.27826 10.7698 2.82462 7.98074 12.7222 -1.95709 24.8534
5048852 3.16522 10.639 2.78277 8.13043 12.968 -1.75445 24.7174
5048858 3.2087 10.6764 2.81415 8.12108 12.8671 -1.78272 24.8203
5048871 3.2087 10.6764 2.81415 8.12108 12.8671 -1.78272 24.8203
5048878 3.21739 10.6577 2.81415 8.18657 12.8767 -1.73323 24.8758
5048893 3.14783 10.5456 2.80369 8.19593 12.949 -1.63638 24.6931
5048898 3.14783 10.5456 2.80369 8.19593 12.949 -1.63638 24.6931
5048908 3.10435 10.3962 2.81415 8.23335 12.945 -1.4989 24.548
5048918 3.10435 10.3962 2.81415 8.23335 12.945 -1.4989 24.548
5048928 2.96522 10.3121 2.82462 8.31756 13.1451 -1.31153 24.4195
5048945 3.10435 10.3308 2.95015 8.59824 12.883 -1.13278 24.9835
5048948 3.10435 10.3308 2.95015 8.59824 12.883 -1.13278 24.9835
5048958 3.15652 10.3681 3.06523 8.78536 12.7405 -0.989583 25.3752
5048969 3.12174 10.2187 3.04431 8.86957 12.7921 -0.847309 25.2543
5048979 3.12174 10.2187 3.04431 8.86957 12.7921 -0.847309 25.2543
5048995 3.21739 10.1159 3.19077 8.96313 12.4287 -0.694131 25.4872
5048999 3.21739 10.1159 3.19077 8.96313 12.4287 -0.694131 25.4872
5049009 3.18261 10.0692 3.23262 8.91635 12.372 -0.651286 25.4008
5049019 3.29565 10.0505 3.30585 8.8415 12.0526 -0.70539 25.4935
5049029 3.29565 10.0505 3.30585 8.8415 12.0526 -0.70539 25.4935
5049045 3.47826 9.91978 3.27446 8.75729 11.7228 -0.805917 25.4298
5049049 3.47826 9.91978 3.32677 8.75729 11.6474 -0.773472 25.4821
5049059 3.53043 9.73297 3.32677 8.55146 11.3628 -0.826423 25.1416
5049070 3.5913 9.63022 3.29538 8.38305 11.1713 -0.929574 24.9
5049082 3.5913 9.63022 3.29538 8.38305 11.1713 -0.929574 24.9
5049095 3.7913 9.51813 3.4 8.11172 10.5138 -1.0864 24.8212
5049099 3.97391 9.34066 3.59877 8.01816 9.81303 -1.02138 24.9315
5049109 3.97391 9.34066 3.59877 8.01816 9.81303 -1.02138 24.9315
5049119 4.25217 9.21923 3.83938 7.85911 8.92612 -1.05657 25.1699
5049129 4.25217 9.21923 3.83938 7.85911 8.92612 -1.05657 25.1699
5049145 4.41739 9.07912 4.11138 7.71877 8.16246 -0.98692 25.3267
5049149 4.74783 8.94835 4.51938 7.4568 6.951 -1.00497 25.6724
5049159 4.74783 8.94835 4.51938 7.4568 6.951 -1.00497 25.6724
5049170 5.09565 8.71484 5.08431 7.10127 5.42019 -0.937591 25.9961
5049179 5.41739 8.35989 5.576 6.81123 3.99179 -0.796911 26.1645
5049194 5.41739 8.35989 5.576 6.81123 3.99179 -0.796911 26.1645
5049201 5.66957 7.95824 5.984 6.39956 2.59909 -0.717521 26.0114
5049218 5.66957 7.95824 5.984 6.39956 2.59909 -0.717521 26.0114
5049220 5.88696 7.51923 6.42338 5.88498 1.06347 -0.640392 25.7145
5049230 6.10435 7.15494 6.86277 5.3891 -0.414592 -0.592342 25.5112
5049251 6.44348 6.65989 7.36492 5.02422 -2.08326 -0.420258 25.4925
5049261 6.76522 6.23956 7.89846 4.51899 -3.84027 -0.346546 25.4222
5049281 7.06957 5.88462 8.50523 4.14474 -5.41459 -0.178218 25.6042
5049294 7.06957 5.88462 8.50523 4.14474 -5.41459 -0.178218 25.6042
5049302 7.32174 5.42692 9.112 3.83599 -6.97642 0.116356 25.6967
5049319 7.66087 5.09066 9.85477 3.67694 -8.32093 0.445254 26.2832
5049322 7.66087 5.09066 9.85477 3.67694 -8.32093 0.445254 26.2832
5049332 7.82609 4.71703 10.3151 3.44304 -9.48729 0.692931 26.3012
5049344 8.07826 4.37143 10.6185 3.24656 -10.5252 0.806773 26.3147
5049368 8.16522 4.12857 10.8277 3.06879 -11.2595 0.917916 26.1903
5049382 8.23478 3.86703 10.8486 3.0033 -11.7643 1.01147 25.9537
5049393 8.28696 3.67088 10.8695 2.90974 -12.2157 1.06157 25.7371
5049404 8.28696 3.67088 10.8695 2.90974 -12.2157 1.06157 25.7371
5049419 8.25217 3.49341 10.8068 2.77876 -12.6196 1.08954 25.3311
5049422 8.22609 3.25989 10.8277 2.70391 -13.0808 1.22651 25.0176
5049432 8.22609 3.25989 10.8277 2.70391 -13.0808 1.22651 25.0176
5049444 8.31304 3.1478 11.016 2.64777 -13.4663 1.3152 25.1246
5049453 8.31304 3.1478 11.016 2.64777 -13.4663 1.3152 25.1246
5049468 8.37391 3.0544 11.1206 2.62906 -13.7134 1.38297 25.178
5049472 8.47826 2.94231 11.2148 2.67584 -13.9018 1.4638 25.3112
5049495 8.47826 2.94231 11.2148 2.67584 -13.9018 1.4638 25.3112
5049496 8.48696 2.83956 11.152 2.62906 -14.1096 1.46642 25.1076
5049503 8.3913 2.73681 11.1311 2.62906 -14.2201 1.5863 24.8883
5049523 8.4 2.76484 10.9218 2.55421 -14.2069 1.40694 24.6409
5049533 8.25217 2.76484 10.7126 2.5355 -14.0783 1.3792 24.2651
5049545 8.25217 2.8022 10.7126 2.5355 -14.0182 1.35402 24.3025
5049553 8.12174 2.8022 10.6289 2.58228 -13.8452 1.42154 24.1351
5049569 8.12174 2.8022 10.6289 2.58228 -13.8452 1.42154 24.1351
5049573 7.9913 2.91429 10.3255 2.57292 -13.4742 1.2558 23.8041
5049583 7.86087 2.94231 10.1791 2.63841 -13.1868 1.27917 23.6207
5049595 7.86087 2.94231 10.1791 2.63841 -13.1868 1.27917 23.6207
5049603 7.64348 3.16648 10.1582 2.70391 -12.6006 1.30033 23.672
5049618 7.64348 3.16648 10.1582 2.70391 -12.6006 1.30033 23.672
5049624 7.5913 3.4 10.3674 2.90974 -12.0001 1.41284 24.2684
5049634 7.66087 3.7456 10.9114 3.14364 -11.4712 1.56033 25.4615
5049644 7.66087 3.7456 10.9114 3.14364 -11.4712 1.56033 25.4615
5049654 7.78261 3.97912 11.2671 3.25592 -11.2372 1.57578 26.2847
5049668 7.93043 4.22198 11.2357 3.2372 -10.9923 1.3073 26.6253
5049674 7.93043 4.22198 11.2357 3.2372 -10.9923 1.3073 26.6253
5049684 7.93913 4.2033 11.0997 3.17171 -11.0395 1.20901 26.4138
5049696 7.93913 4.2033 11.0997 3.17171 -11.0395 1.20901 26.4138
5049704 7.91304 4.22198 10.9428 3.08751 -11.0321 1.08651 26.1653
5049721 7.86957 4.12857 10.8172 3.03137 -11.1492 1.07391 25.8467
5049724 7.86957 4.12857 10.8172 3.03137 -11.1492 1.07391 25.8467
5049734 8 3.97912 10.608 2.98459 -11.384 0.946439 25.5717
5049746 8.0087 3.81099 10.3255 2.7694 -11.7941 0.767773 24.9146
5049772 8.12174 3.63352 10.2 2.67584 -12.1923 0.68242 24.6311
5049774 8.12174 3.63352 10.2 2.67584 -12.1923 0.68242 24.6311
5049784 8.10435 3.32527 10.1268 2.59163 -12.7487 0.80055 24.148
5049796 8.1913 3.19451 10.2837 2.54485 -13.1488 0.893728 24.2144
5049821 8.31304 2.99835 10.4825 2.48872 -13.7016 1.02529 24.2826
5049827 8.6087 2.8956 10.6917 2.5355 -14.0199 1.04496 24.7315
5049836 8.6087 2.8956 10.6917 2.5355 -14.0199 1.04496 24.7315
5049847 8.86957 2.8489 10.9637 2.55421 -14.295 1.06955 25.2364
5049856 8.86957 2.8489 10.9637 2.55421 -14.295 1.06955 25.2364
5049872 9.08696 2.87692 11.1834 2.51679 -14.4917 1.01482 25.6641
5049875 9.30435 2.8022 11.1102 2.50743 -14.6797 0.881102 25.7241
5049886 9.30435 2.8022 11.1102 2.50743 -14.6797 0.881102 25.7241
5049897 9.45217 2.83956 10.9846 2.42323 -14.7609 0.651435 25.6996
5049905 9.51304 2.8022 10.9009 2.34838 -14.9263 0.548058 25.5645
5049922 9.51304 2.8022 10.9009 2.34838 -14.9263 0.548058 25.5645
5049925 9.6 2.82088 10.7126 2.28288 -14.9597 0.339122 25.4164
5049936 9.6 2.82088 10.7126 2.28288 -14.9597 0.339122 25.4164
5049948 9.63478 2.69011 10.5452 2.22675 -15.2042 0.267216 25.0969
5049956 9.64348 2.72747 10.3988 2.19868 -15.1352 0.13607 24.9684
5049977 9.73043 2.73681 10.2942 2.13319 -15.2188 -0.024046 24.8946
5049987 9.64348 2.63407 10.2732 2.12383 -15.3587 0.0726575 24.6746
5050007 9.73043 2.65275 10.3569 2.14254 -15.3642 0.0701004 24.8826
5050022 9.73043 2.65275 10.3569 2.14254 -15.3642 0.0701004 24.8826
5050027 9.72174 2.67143 10.4197 2.14254 -15.3549 0.101624 24.9554
5050038 9.78261 2.70879 10.472 2.17061 -15.2932 0.090242 25.134
5050047 9.78261 2.70879 10.472 2.17061 -15.2932 0.090242 25.134
5050057 9.76522 2.68077 10.5662 2.18932 -15.3377 0.184209 25.2015
5050072 9.70435 2.66209 10.6185 2.1519 -15.4244 0.241034 25.1368
5050078 9.70435 2.66209 10.6185 2.1519 -15.4244 0.241034 25.1368
5050087 9.69565 2.68077 10.6185 2.24546 -15.2414 0.289716 25.2403
5050122 9.69565 2.68077 10.6185 2.24546 -15.2414 0.289716 25.2403
5050131 9.61739 2.63407 10.5452 2.21739 -15.3025 0.306526 25.0141
5050140 9.44348 2.66209 10.5348 2.17997 -15.2458 0.368149 24.8203
5050141 9.27826 2.61538 10.5452 2.2361 -15.1692 0.539628 24.675
5050156 9.10435 2.69945 10.6917 2.29224 -14.9311 0.714144 24.7877
5050158 9.10435 2.69945 10.6917 2.29224 -14.9311 0.714144 24.7877
5050168 9.02609 2.70879 10.8486 2.41387 -14.7536 0.916659 24.9974
5050180 9.02609 2.70879 10.8486 2.41387 -14.7536 0.916659 24.9974
5050188 8.91304 2.77418 10.9114 2.47001 -14.5403 1.01372 25.0686
5050205 8.85217 2.71813 11.016 2.36709 -14.8106 1.0897 24.9534
5050209 8.85217 2.71813 11.016 2.36709 -14.8106 1.0897 24.9534
5050219 8.70435 2.77418 11.0683 2.51679 -14.4449 1.26073 25.0636
5050231 8.61739 2.76484 11.152 2.60099 -14.3261 1.41481 25.1352
5050248 8.57391 2.88626 11.2043 2.63841 -14.0829 1.41241 25.3029
5050269 8.44348 3.03571 11.0892 2.69455 -13.6588 1.36836 25.263
5050283 8.33913 3.23187 10.9323 2.72262 -13.1977 1.23916 25.2259
5050289 8.33913 3.23187 10.9323 2.72262 -13.1977 1.23916 25.2259
5050299 8.26087 3.48407 10.744 2.8536 -12.496 1.09657 25.3425
5050310 8.13043 3.82033 10.3255 3.07815 -11.3959 0.859568 25.3545
5050319 8.13043 3.82033 10.3255 3.07815 -11.3959 0.859568 25.3545
5050333 8.03478 4.22198 9.94892 3.25592 -10.3153 0.558534 25.4616
5050339 8.03478 4.22198 9.94892 3.25592 -10.3153 0.558534 25.4616
5050349 7.86087 4.61429 9.41538 3.48982 -9.03469 0.254163 25.3804
5050360 7.66957 5.1 8.96554 3.89213 -7.45591 0.0515682 25.6272
5050369 7.66957 5.1 8.96554 3.89213 -7.45591 0.0515682 25.6272
5050383 7.51304 5.66044 8.40062 4.39736 -5.63682 -0.216878 25.9715
5050389 7.23478 6.18352 7.81477 5.0055 -3.6783 -0.341878 26.2386
5050399 7.23478 6.18352 7.81477 5.0055 -3.6783 -0.341878 26.2386
5050410 6.93043 6.65989 7.072 5.63236 -1.62598 -0.505404 26.2947
5050419 6.93043 6.65989 7.072 5.63236 -1.62598 -0.505404 26.2947
5050435 6.49565 6.92143 6.38154 6.10952 0.148371 -0.536136 25.9081
5050439 6.08696 7.38846 5.81662 6.74573 2.14172 -0.526006 26.0378
5050449 6.08696 7.38846 5.81662 6.74573 2.14172 -0.526006 26.0378
5050461 5.66957 7.80879 5.23077 7.19483 3.9601 -0.609613 25.904
5050469 5.66957 7.80879 5.23077 7.19483 3.9601 -0.609613 25.904
5050487 5.24348 8.08901 4.66585 7.40066 5.49269 -0.747655 25.399
5050489 4.87826 8.4533 4.26831 7.71877 6.93708 -0.796537 25.3186
5050499 4.87826 8.4533 4.26831 7.71877 6.93708 -0.796537 25.3186
5050515 4.50435 8.82692 4.02769 8.00881 8.18331 -0.765602 25.3678
5050519 4.2 9.07912 3.75569 8.3082 9.30397 -0.719268 25.343
5050529 4.2 9.07912 3.75569 8.3082 9.30397 -0.719268 25.343
5050542 3.96522 9.45275 3.55692 8.43919 10.2008 -0.839215 25.4141
5050568 3.68696 9.70494 3.32677 8.55146 11.1225 -0.898496 25.2701
5050569 3.46957 9.93846 3.22215 8.68244 11.7819 -0.890917 25.3126
5050581 3.46957 9.93846 3.22215 8.68244 11.7819 -0.890917 25.3126
5050593 3.28696 10.0973 3.10708 8.76665 12.3425 -0.897036 25.2579
5050601 3.06957 10.0599 3.02338 8.80407 12.7931 -0.782548 24.9569
5050619 3.06957 10.0599 3.02338 8.80407 12.7931 -0.782548 24.9569
5050621 2.93913 10.0692 2.92923 8.95377 13.2121 -0.678163 24.8914
5050630 2.93913 10.0692 2.92923 8.95377 13.2121 -0.678163 24.8914
5050647 2.8 9.97582 2.97108 9.02862 13.3533 -0.469896 24.7755
5050653 2.74783 9.99451 2.93969 9.17832 13.5611 -0.376698 24.8603
5050660 2.74783 9.99451 2.93969 9.17832 13.5611 -0.376698 24.8603
5050674 2.67826 9.96648 3.00246 9.11282 13.5284 -0.320755 24.76
5050681 2.64348 9.92912 2.992 9.2251 13.6334 -0.215111 24.7897
5050701 2.6 9.95714 3.01292 9.27188 13.7027 -0.164445 24.8419
5050711 2.6 9.95714 3.01292 9.27188 13.7027 -0.164445 24.8419
5050728 2.58261 10.0132 2.992 9.2251 13.7667 -0.228934 24.8129
5050730 2.58261 10.0319 2.96062 9.33737 13.8746 -0.190563 24.9125
5050755 2.58261 10.0319 2.96062 9.33737 13.8746 -0.190563 24.9125
5050758 2.6087 9.99451 2.98154 9.35608 13.793 -0.159728 24.9408
5050782 2.55652 9.98516 2.90831 9.3093 13.9641 -0.196337 24.7593
5050784 2.55652 9.98516 2.90831 9.3093 13.9641 -0.196337 24.7593
5050784 2.62609 10.0225 3.03385 9.36544 13.7018 -0.149312 25.0479
5050792 2.62609 10.0225 3.03385 9.36544 13.7018 -0.149312 25.0479
5050810 2.66957 9.98516 2.97108 9.37479 13.719 -0.185311 25.0006
5050813 2.55652 9.98516 2.97108 9.44029 13.924 -0.0783402 24.953
5050822 2.55652 9.98516 2.97108 9.44029 13.924 -0.0783402 24.953
5050837 2.55652 10.0599 2.98154 9.40286 13.9242 -0.139202 25.0008
5050842 2.55652 9.91044 2.91877 9.43093 13.9685 -0.0708765 24.8167
5050852 2.55652 9.91044 2.91877 9.43093 13.9685 -0.0708765 24.8167
5050863 2.56522 9.99451 2.95015 9.36544 13.914 -0.147212 24.8753
5050872 2.56522 9.99451 2.95015 9.36544 13.914 -0.147212 24.8753
5050890 2.53043 9.97582 2.90831 9.29994 13.9969 -0.180869 24.7145
5050893 2.57391 9.91978 2.96062 9.26252 13.8041 -0.164193 24.7168
5050903 2.57391 9.91978 2.96062 9.26252 13.8041 -0.164193 24.7168
5050917 2.58261 9.93846 2.97108 9.38415 13.8374 -0.100001 24.8763
5050923 2.58261 9.97582 2.95015 9.37479 13.8826 -0.140748 24.8834
5050943 2.70435 10.0599 2.95015 9.40286 13.7438 -0.24558 25.1173
5050953 2.70435 10.0599 2.95015 9.40286 13.7438 -0.24558 25.1173
5050970 2.61739 10.0038 2.95015 9.32801 13.8199 -0.206674 24.8994
5050973 2.68696 10.0692 2.95015 9.38415 13.7664 -0.252218 25.0905
5050983 2.68696 10.0692 2.95015 9.38415 13.7664 -0.252218 25.0905
5050996 2.66087 9.98516 2.97108 9.3093 13.7029 -0.220041 24.9264
5051003 2.67826 10.0505 2.992 9.32801 13.6816 -0.244801 25.0488
5051024 2.68696 10.0973 3.01292 9.41222 13.6949 -0.213651 25.2094
5051051 2.70435 10.0132 2.98154 9.26252 13.6107 -0.284522 24.9616
5051054 2.71304 10.0599 2.992 9.31866 13.6279 -0.27644 25.0836
5051065 2.71304 10.0599 2.992 9.31866 13.6279 -0.27644 25.0836
5051079 2.77391 10.0692 2.97108 9.34673 13.5835 -0.313188 25.1609
5051084 2.8087 10.1346 3.01292 9.21574 13.4363 -0.425859 25.172
5051095 2.8087 10.1346 3.01292 9.21574 13.4363 -0.425859 25.172
5051106 2.89565 10.0973 3.01292 9.16896 13.2649 -0.483233 25.1748
5051115 2.89565 10.0973 3.01292 9.16896 13.2649 -0.483233 25.1748
5051132 2.90435 9.96648 3.05477 9.06604 13.0778 -0.450161 24.9916
5051136 2.95652 9.99451 3.00246 9.04733 13.0824 -0.540724 25.0008
5051145 2.95652 9.99451 3.00246 9.04733 13.0824 -0.540724 25.0008
5051161 3.05217 9.95714 3.01292 8.94441 12.8536 -0.63203 24.9667
5051165 3.10435 9.91978 3.07569 8.86021 12.6201 -0.653982 24.96
5051177 3.10435 9.91978 3.07569 8.86021 12.6201 -0.653982 24.96
5051187 3.15652 9.89176 3.02338 8.80407 12.5784 -0.736152 24.8757
5051195 3.15652 9.89176 3.02338 8.80407 12.5784 -0.736152 24.8757
5051214 3.2087 9.82637 3.05477 8.75729 12.396 -0.738319 24.8471
5051215 3.26957 9.92912 3.10708 8.79472 12.2978 -0.775021 25.1005
5051226 3.26957 9.92912 3.10708 8.79472 12.2978 -0.775021 25.1005
5051240 3.38261 9.76099 3.128 8.71051 11.9695 -0.783611 24.9821
5051245 3.46957 9.79835 3.10708 8.62631 11.8474 -0.920672 25.0013
5051268 3.63478 9.79835 3.14892 8.57017 11.5147 -1.0222 25.1522
5051294 3.73043 9.70494 3.14892 8.49532 11.285 -1.07127 25.0796
5051297 3.96522 9.79835 3.23262 8.33627 10.7933 -1.29953 25.3325
5051307 3.96522 9.79835 3.23262 8.33627 10.7933 -1.29953 25.3325
5051322 4.05217 9.6489 3.23262 8.10237 10.4514 -1.41761 25.0361
5051327 4.13043 9.54615 3.21169 7.9246 10.205 -1.53567 24.8129
5051337 4.13043 9.54615 3.21169 7.9246 10.205 -1.53567 24.8129
5051350 4.26957 9.35 3.24308 7.78426 9.75946 -1.57762 24.6469
5051367 4.33913 9.24725 3.31631 7.73748 9.46553 -1.54175 24.6402
5051377 4.62609 9.19121 3.45231 7.68134 8.81144 -1.61335 24.9509
5051386 4.62609 9.19121 3.45231 7.68134 8.81144 -1.61335 24.9509
5051405 4.82609 9.10714 3.54646 7.42873 8.19334 -1.78135 24.9084
5051409 5.15652 8.92033 3.68246 7.23225 7.31606 -1.89792 24.9916
5051418 5.15652 8.92033 3.68246 7.23225 7.31606 -1.89792 24.9916
5051433 5.33043 8.78022 3.90215 7.08255 6.60499 -1.86844 25.0954
5051438 5.33043 8.78022 3.90215 7.08255 6.60499 -1.86844 25.0954
5051448 5.64348 8.53736 3.98585 6.79252 5.70987 -2.04482 24.9592
5051460 5.77391 8.33187 4.27877 6.52119 4.81854 -1.991 24.9057
5051468 5.77391 8.33187 4.27877 6.52119 4.81854 -1.991 24.9057
5051478 6.06087 8.04231 4.56123 6.18437 3.62651 -2.02681 24.8488
5051490 6.33913 7.75275 4.87508 5.89433 2.44645 -2.0046 24.8613
5051514 6.64348 7.40714 5.31446 5.51073 0.964728 -1.94492 24.8758
5051518 6.64348 7.40714 5.31446 5.51073 0.964728 -1.94492 24.8758
5051529 6.9913 7.16429 5.72246 5.22069 -0.327493 -1.91988 25.0987
5051540 7.31304 6.85604 6.45477 4.9213 -1.94799 -1.64005 25.5452
5051548 7.31304 6.85604 6.45477 4.9213 -1.94799 -1.64005 25.5452
5051565 7.6 6.5011 6.89415 4.58448 -3.33132 -1.53782 25.5797
5051568 7.76522 6.10879 7.36492 4.35993 -4.55236 -1.25932 25.5989
5051594 7.9913 5.78187 7.85662 4.14474 -5.74337 -1.03114 25.7745
5051601 7.9913 5.78187 7.85662 4.14474 -5.74337 -1.03114 25.7745
5051609 8.05217 5.41758 8.296 3.83599 -6.92784 -0.783792 25.6017
5051621 8.2 5.10934 8.75631 3.63952 -7.9823 -0.533073 25.7052
5051629 8.2 5.10934 8.75631 3.63952 -7.9823 -0.533073 25.7052
5051648 8.38261 4.83846 9.18523 3.39626 -9.04282 -0.371812 25.8026
5051649 8.56522 4.47418 9.69785 3.17171 -10.2447 -0.0983253 25.909
5051675 8.6 4.26868 10.1791 3.05008 -10.9782 0.207186 26.0978
5051690 8.68696 3.92308 10.4615 2.94717 -11.7975 0.460439 26.0187
5051704 8.68696 3.67088 10.7126 2.75069 -12.5653 0.642187 25.8211
5051711 8.68696 3.67088 10.7126 2.75069 -12.5653 0.642187 25.8211
5051720 8.68696 3.43736 10.8172 2.67584 -13.0683 0.801458 25.6174
5051731 8.6087 3.15714 10.9009 2.57292 -13.6487 1.01507 25.2397
5051759 8.63478 3.03571 10.9637 2.5355 -13.9327 1.08982 25.1697
5051772 8.6 2.82088 11.0474 2.40451 -14.4958 1.22484 24.8728
5051787 8.55652 2.73681 11.2148 2.3858 -14.7111 1.39024 24.8939
5051794 8.55652 2.73681 11.2148 2.3858 -14.7111 1.39024 24.8939
5051802 8.45217 2.60604 11.3822 2.46065 -14.8263 1.67739 24.901
5051816 8.54783 2.54066 11.5705 2.49807 -14.9854 1.77687 25.157
5051823 8.54783 2.54066 11.5705 2.49807 -14.9854 1.77687 25.157
5051833 8.55652 2.56868 11.9157 2.49807 -15.0803 1.9315 25.539
5051844 8.51304 2.47527 12.2191 2.63841 -15.1073 2.24553 25.8458
5051853 8.51304 2.47527 12.2191 2.63841 -15.1073 2.24553 25.8458
5051871 8.5913 2.48462 12.3969 2.64777 -15.1756 2.2791 26.1206
5051873 8.5913 2.48462 12.3969 2.64777 -15.1756 2.2791 26.1206
5051883 8.53913 2.44725 12.3342 2.59163 -15.277 2.28044 25.9122
5051899 8.55652 2.44725 12.1668 2.54485 -15.2935 2.16282 25.7154
5051904 8.55652 2.44725 12.1668 2.54485 -15.2935 2.16282 25.7154
5051913 8.42609 2.34451 11.832 2.49807 -15.3537 2.12712 25.1007
5051927 8.38261 2.2978 11.6332 2.37644 -15.5342 2.02263 24.6901
5051944 8.34783 2.27912 11.6751 2.33902 -15.6292 2.06189 24.641
5051964 8.24348 2.22308 11.5391 2.28288 -15.7241 2.07222 24.2885
5051983 8.33043 2.22308 11.6751 2.27353 -15.824 2.07845 24.5021
5051984 8.33043 2.22308 11.6751 2.27353 -15.824 2.07845 24.5021
5051994 8.36522 2.19506 11.7902 2.3016 -15.8798 2.1488 24.652
5052012 8.46087 2.17637 11.9889 2.29224 -16.0335 2.19351 24.9184
5052014 8.46087 2.17637 11.9889 2.29224 -16.0335 2.19351 24.9184
5052024 8.53913 2.17637 12.1877 2.36709 -16.0103 2.27893 25.2703
5052052 8.58261 2.19506 12.4388 2.43258 -15.9789 2.39406 25.649
5052055 8.67826 2.27912 12.4597 2.37644 -15.9753 2.25566 25.7935
5052067 8.67826 2.27912 12.4597 2.37644 -15.9753 2.25566 25.7935
5052075 8.68696 2.23242 12.4178 2.32031 -16.1279 2.23255 25.6575
5052095 8.63478 2.26044 12.2923 2.26417 -16.1114 2.15777 25.4517
5052097 8.63478 2.26044 12.2923 2.26417 -16.1114 2.15777 25.4517
5052105 8.64348 2.26044 12.2714 2.36709 -15.9415 2.19315 25.5424
5052123 8.64348 2.26044 12.2714 2.36709 -15.9415 2.19315 25.5424
5052125 8.6087 2.13901 12.2295 2.27353 -16.2626 2.23084 25.2508
5052135 8.54783 2.16703 12.2295 2.3858 -16.013 2.30978 25.3302
5052153 8.54783 2.16703 12.2295 2.3858 -16.013 2.30978 25.3302
5052155 8.45217 2.17637 12.0935 2.32031 -16.0219 2.26733 25.0424
5052165 8.43478 2.10165 11.9889 2.26417 -16.1942 2.24893 24.7895
5052180 8.43478 2.10165 11.9889 2.26417 -16.1942 2.24893 24.7895
5052186 8.43478 2.13901 11.9262 2.22675 -16.172 2.1712 24.7267
5052196 8.43478 2.13901 11.9262 2.22675 -16.172 2.1712 24.7267
5052208 8.38261 2.12967 11.8738 2.21739 -16.1658 2.18198 24.6035
5052217 8.45217 2.17637 11.9889 2.24546 -16.1076 2.17543 24.8629
5052236 8.45217 2.17637 11.9889 2.24546 -16.1076 2.17543 24.8629
5052238 8.53913 2.12967 12.2086 2.28288 -16.2311 2.27901 25.1603
5052246 8.6 2.2044 12.3865 2.33902 -16.1018 2.30382 25.5299
5052264 8.6 2.2044 12.3865 2.33902 -16.1018 2.30382 25.5299
5052265 8.68696 2.28846 12.5957 2.32031 -16.0998 2.28295 25.8914
5052291 8.72174 2.28846 12.6271 2.44194 -15.9307 2.33451 26.0792
5052295 8.69565 2.31648 12.5329 2.40451 -15.9035 2.269 25.9496
5052305 8.69565 2.31648 12.5329 2.40451 -15.9035 2.269 25.9496
5052320 8.68696 2.36319 12.3132 2.32031 -15.8824 2.09281 25.6837
5052325 8.62609 2.36319 12.0726 2.32031 -15.7741 2.01144 25.3822
5052347 8.62609 2.40989 12.0726 2.33902 -15.6692 1.98977 25.4476
5052348 8.58261 2.37253 11.7797 2.3016 -15.6654 1.87296 25.0364
5052359 8.58261 2.37253 11.7797 2.3016 -15.6654 1.87296 25.0364
5052375 8.52174 2.39121 11.5914 2.25482 -15.6176 1.77707 24.7591
5052377 8.51304 2.53132 11.4554 2.31095 -15.2416 1.64564 24.8107
5052403 8.49565 2.66209 11.4135 2.33902 -14.9618 1.5625 24.9103
5052407 8.48696 2.78352 11.2985 2.35773 -14.6873 1.43564 24.9267
5052417 8.48696 2.78352 11.2985 2.35773 -14.6873 1.43564 24.9267
5052431 8.47826 3.06374 11.0997 2.54485 -13.8659 1.25219 25.1865
5052458 8.4087 3.3533 10.9218 2.49807 -13.3818 0.987571 25.1819
5052460 8.34783 3.63352 10.336 2.6852 -12.3639 0.62385 25.0025
5052469 8.34783 3.63352 10.336 2.6852 -12.3639 0.62385 25.0025
5052486 8.21739 4.07253 9.91754 2.66648 -11.4537 0.177355 24.8739
5052488 8.21739 4.07253 9.91754 2.66648 -11.4537 0.177355 24.8739
5052497 7.94783 4.37143 9.33169 2.96588 -10.097 -0.0132135 24.6168
5052513 7.75652 4.96923 8.74585 3.40561 -8.16764 -0.346276 24.8772
5052527 7.72174 5.75385 8.25415 3.96698 -6.08547 -0.732265 25.6967
5052542 7.62609 6.51044 7.69969 4.63126 -3.95209 -1.02328 26.4675
5052558 7.4087 7.19231 7.072 5.26747 -1.87535 -1.25918 26.9405
5052571 7.4087 7.19231 7.072 5.26747 -1.87535 -1.25918 26.9405
5052578 7.15652 7.66868 6.49662 5.75399 -0.212798 -1.42633 27.0758
5052588 6.87826 8.18242 5.93169 6.0721 1.33437 -1.69423 27.0645
5052599 6.87826 8.18242 5.93169 6.0721 1.33437 -1.69423 27.0645
5052608 6.67826 8.36923 5.46092 6.01596 2.11693 -2.01924 26.5244
5052627 6.41739 8.64011 4.896 6.03467 3.23358 -2.38195 25.9882
5052629 6.41739 8.64011 4.896 6.03467 3.23358 -2.38195 25.9882
5052638 6.1913 8.72418 4.50892 5.85691 3.83767 -2.69942 25.2813
5052655 6.1913 8.72418 4.50892 5.85691 3.83767 -2.69942 25.2813
5052658 5.98261 8.67747 4.13231 5.80077 4.43551 -2.88312 24.5932
5052682 5.89565 8.80824 3.97538 5.76335 4.80774 -3.04703 24.4426
5052692 5.89565 8.80824 3.97538 5.76335 4.80774 -3.04703 24.4426
5052693 5.77391 8.90165 3.86031 5.91304 5.29724 -3.00762 24.4489
5052709 5.70435 9.08846 3.77662 6.04403 5.74028 -3.03015 24.6135
5052711 5.70435 9.08846 3.77662 6.04403 5.74028 -3.03015 24.6135
5052721 5.57391 9.20989 3.63015 6.21244 6.3126 -3.00971 24.6264
5052737 5.4 9.31264 3.61969 6.33407 6.71664 -2.89394 24.6664
5052739 5.4 9.31264 3.61969 6.33407 6.71664 -2.89394 24.6664
5052749 5.25217 9.51813 3.51508 6.53054 7.33544 -2.85584 24.8159
5052771 4.98261 9.62088 3.36862 6.66153 8.04915 -2.78482 24.6336
5052781 4.86087 9.75165 3.37908 6.7738 8.36399 -2.70113 24.7654
5052792 4.86087 9.75165 3.37908 6.7738 8.36399 -2.70113 24.7654
5052801 4.56522 9.80769 3.22215 6.79252 9.03415 -2.68061 24.3876
5052820 4.36522 9.9011 3.09662 6.89543 9.62008 -2.64297 24.2584
5052831 4.17391 9.97582 3.02338 7.05449 10.1465 -2.52101 24.2276
5052847 4.17391 9.97582 3.02338 7.05449 10.1465 -2.52101 24.2276
5052852 3.95652 10.0879 2.90831 7.11998 10.7415 -2.50251 24.0727
5052862 3.81739 10.1907 2.87692 7.20418 11.1051 -2.44526 24.0892
5052875 3.81739 10.1907 2.87692 7.20418 11.1051 -2.44526 24.0892
5052882 3.54783 10.2 2.75138 7.44744 11.8474 -2.22307 23.9467
5052902 3.36522 10.2187 2.83508 7.70941 12.1515 -1.88952 24.1284
5052904 3.36522 10.2187 2.83508 7.70941 12.1515 -1.88952 24.1284
5052912 3.25217 10.4522 2.78277 7.95267 12.6535 -1.82219 24.4398
5052931 3.25217 10.4522 2.78277 7.95267 12.6535 -1.82219 24.4398
5052932 3.08696 10.6016 2.76185 8.16786 13.121 -1.681 24.6183
5052941 3.02609 10.667 2.68862 8.37369 13.4577 -1.59408 24.7554
5052962 2.92174 10.6857 2.83508 8.60759 13.5094 -1.29627 25.0501
5052972 2.82609 10.6857 2.83508 8.71051 13.7036 -1.17702 25.0574
5052986 2.82609 10.7511 2.83508 8.71051 13.733 -1.213 25.1228
5052992 2.74783 10.8258 2.84554 8.776 13.8999 -1.16219 25.1952
5053002 2.74783 10.8258 2.84554 8.776 13.8999 -1.16219 25.1952
5053014 2.70435 10.8632 2.77231 8.78536 14.1013 -1.19991 25.1252
5053022 2.69565 10.8725 2.73046 8.6918 14.1436 -1.28804 24.9904
5053043 2.64348 10.8538 2.69908 8.72922 14.283 -1.24512 24.9256
5053052 2.64348 10.8538 2.69908 8.72922 14.283 -1.24512 24.9256
5053071 2.58261 10.7511 2.75138 8.68244 14.2319 -1.15063 24.7675
5053072 2.53043 10.7418 2.66769 8.62631 14.4202 -1.20788 24.5662
5053082 2.53043 10.7418 2.66769 8.62631 14.4202 -1.20788 24.5662
5053098 2.61739 10.639 2.64677 8.47661 14.2038 -1.31237 24.3798
5053102 2.70435 10.5923 2.78277 8.48597 13.8316 -1.23828 24.5654
5053112 2.70435 10.5923 2.78277 8.48597 13.8316 -1.23828 24.5654
5053128 2.86087 10.6203 2.91877 8.57017 13.4269 -1.19679 24.9701
5053132 2.86087 10.6203 2.91877 8.57017 13.4269 -1.19679 24.9701
5053155 3.06087 10.5923 3.01292 8.52339 12.9438 -1.26056 25.1895
5053156 3.4087 10.5456 3.03385 8.4579 12.3408 -1.45163 25.446
5053162 3.4087 10.5456 3.03385 8.4579 12.3408 -1.45163 25.446
5053183 3.78261 10.4429 3.11754 8.19593 11.4909 -1.71033 25.5389
5053184 4.09565 10.3775 3.128 7.97138 10.8761 -1.97893 25.5725
5053192 4.09565 10.3775 3.128 7.97138 10.8761 -1.97893 25.5725
5053211 4.4 10.172 3.30585 7.62521 9.89229 -2.14146 25.503
5053212 4.4 10.172 3.30585 7.62521 9.89229 -2.14146 25.503
5053222 4.77391 9.84505 3.33723 7.17611 8.86312 -2.4504 25.1323
5053240 5.10435 9.57418 3.45231 6.6896 7.76288 -2.74166 24.8204
5053242 5.10435 9.57418 3.45231 6.6896 7.76288 -2.74166 24.8204
5053252 5.49565 9.27527 3.69292 6.17501 6.35349 -2.98491 24.6389
5053268 5.49565 9.27527 3.69292 6.17501 6.35349 -2.98491 24.6389
5053272 5.86957 8.85495 4.04862 5.71657 4.75029 -3.0376 24.4897
5053296 6.4087 8.48132 4.57169 5.35168 2.87406 -3.0024 24.8134
5053297 6.4087 8.48132 4.57169 5.35168 2.87406 -3.0024 24.8134
5053303 7.02609 8.04231 5.25169 4.90259 0.661227 -2.92244 25.2227
5053324 7.61739 7.72473 6.02585 4.56577 -1.30404 -2.74768 25.9337
5053334 8.09565 7.32308 6.90462 4.23831 -3.2367 -2.41465 26.5616
5053352 8.53043 6.81868 7.86708 4.0044 -5.11968 -1.91636 27.2206
5053354 8.53043 6.81868 7.86708 4.0044 -5.11968 -1.91636 27.2206
5053366 8.86957 6.19286 8.51569 3.65823 -6.91555 -1.5908 27.2363
5053380 8.86957 6.19286 8.51569 3.65823 -6.91555 -1.5908 27.2363
5053384 8.97391 5.6511 8.72492 3.32141 -8.1795 -1.45025 26.6713
5053394 9.04348 5.09066 8.85046 2.98459 -9.45225 -1.32797 25.9692
5053414 8.9913 4.63297 8.98646 2.7694 -10.417 -1.10426 25.3801
5053424 9 4.22198 9.17477 2.57292 -11.3937 -0.885646 24.9697
5053438 9 4.22198 9.17477 2.57292 -11.3937 -0.885646 24.9697
5053444 9.0087 3.93242 9.50954 2.52614 -12.0709 -0.543765 24.9768
5053467 9.11304 3.64286 9.76062 2.50743 -12.7112 -0.292433 25.0239
5053476 9.21739 3.50275 10.1058 2.51679 -13.1238 -0.0577131 25.3428
5053497 9.25217 3.33462 10.2837 2.37644 -13.6896 0.043577 25.2469
5053506 9.31304 3.15714 10.4615 2.3858 -14.0531 0.223455 25.3175
5053527 9.31304 3.15714 10.4615 2.3858 -14.0531 0.223455 25.3175
5053528 9.26087 2.98901 10.4615 2.33902 -14.3654 0.329742 25.0504
5053535 9.26087 2.98901 10.4615 2.33902 -14.3654 0.329742 25.0504
5053557 9.22609 2.83022 10.4092 2.27353 -14.6848 0.379837 24.7391
5053558 9.13043 2.86758 10.3255 2.25482 -14.5795 0.355396 24.5784
5053585 9.08696 2.77418 10.2523 2.2361 -14.7118 0.38642 24.3495
5053587 8.95652 2.74615 10.3569 2.25482 -14.716 0.560816 24.3144
5053597 8.95652 2.74615 10.3569 2.25482 -14.716 0.560816 24.3144
5053616 8.95652 2.70879 10.4092 2.29224 -14.738 0.637851 24.3668
5053617 8.95652 2.70879 10.4092 2.29224 -14.738 0.637851 24.3668
5053627 8.94783 2.66209 10.5662 2.22675 -14.9831 0.727163 24.4028
5053645 8.93913 2.68077 10.6603 2.35773 -14.7749 0.851212 24.6379
5053647 8.93913 2.68077 10.6603 2.35773 -14.7749 0.851212 24.6379
5053657 8.89565 2.60604 10.7963 2.33902 -14.9642 0.99462 24.637
5053675 8.86087 2.55 11.0474 2.42323 -15.0062 1.24173 24.8815
5053679 8.86087 2.55 11.0474 2.42323 -15.0062 1.24173 24.8815
5053687 8.82609 2.60604 11.3089 2.52614 -14.8442 1.42651 25.2672
5053704 8.82609 2.60604 11.3089 2.52614 -14.8442 1.42651 25.2672
5053707 8.82609 2.5967 11.5077 2.61035 -14.8064 1.58291 25.5408
5053717 8.71304 2.58736 11.696 2.58228 -14.8946 1.7463 25.5787
5053737 8.70435 2.64341 11.7588 2.66648 -14.6987 1.79112 25.773
5053747 8.6087 2.5967 11.7274 2.6197 -14.7928 1.84425 25.5525
5053767 8.51304 2.53132 11.7797 2.64777 -14.8337 1.99226 25.4718
5053777 8.51304 2.53132 11.7797 2.64777 -14.8337 1.99226 25.4718
5053794 8.4087 2.48462 11.6751 2.56357 -14.9566 1.99666 25.132
5053798 8.36522 2.45659 11.7483 2.64777 -14.8795 2.12603 25.2179
5053823 8.28696 2.52198 11.6751 2.62906 -14.7443 2.08768 25.1131
5053828 8.24348 2.45659 11.7378 2.64777 -14.8261 2.20377 25.0857
5053853 8.29565 2.44725 11.8634 2.6197 -14.9569 2.22401 25.226
5053858 8.29565 2.44725 11.8634 2.6197 -14.9569 2.22401 25.226
5053868 8.26957 2.42857 11.8948 2.69455 -14.8702 2.30817 25.2875
5053882 8.2087 2.48462 11.9471 2.63841 -14.8669 2.30955 25.2788
5053888 8.2087 2.48462 11.9471 2.63841 -14.8669 2.30955 25.2788
5053898 8.13043 2.41923 11.9889 2.71326 -14.8374 2.46666 25.2519
5053913 8.16522 2.39121 12.0622 2.67584 -14.9839 2.47974 25.2944
5053919 8.16522 2.39121 12.0622 2.67584 -14.9839 2.47974 25.2944
5053942 8.16522 2.43791 12.0726 2.66648 -14.9291 2.44807 25.3422
5053943 8.16522 2.43791 12.0726 2.66648 -14.9291 2.44807 25.3422
5053954 8.11304 2.40989 11.9785 2.65713 -14.9298 2.45204 25.1585
5053972 8.10435 2.40055 12.0622 2.73198 -14.8563 2.54312 25.299
5053973 8.10435 2.40055 12.0622 2.73198 -14.8563 2.54312 25.299
5053978 8.07826 2.39121 12.0412 2.65713 -14.9707 2.52041 25.1678
5054001 8.05217 2.34451 11.9785 2.76004 -14.8458 2.59108 25.1352
5054003 8.05217 2.34451 11.9785 2.76004 -14.8458 2.59108 25.1352
5054009 8.03478 2.43791 12.0412 2.75069 -14.7315 2.56439 25.2646
5054031 8.03478 2.43791 12.0412 2.75069 -14.7315 2.56439 25.2646
5054034 8.02609 2.40989 12.0308 2.73198 -14.7974 2.57559 25.1987
5054039 8.05217 2.45659 11.9994 2.78811 -14.6334 2.53717 25.2963
5054061 8.05217 2.45659 11.9994 2.78811 -14.6334 2.53717 25.2963
5054062 8.02609 2.46593 12.0203 2.76004 -14.6607 2.54527 25.2724
5054069 7.95652 2.46593 12.1668 2.76004 -14.6921 2.66538 25.3493
5054091 7.95652 2.52198 12.1668 2.86296 -14.4447 2.67633 25.5082
5054093 7.87826 2.47527 12.2191 2.82554 -14.5646 2.77052 25.3981
5054100 7.87826 2.47527 12.2191 2.82554 -14.5646 2.77052 25.3981
5054121 7.67826 2.44725 12.0622 2.8536 -14.4158 2.86941 25.0413
5054122 7.52174 2.54066 12.0622 2.94717 -14.0557 2.95966 25.0717
5054129 7.52174 2.54066 12.0622 2.94717 -14.0557 2.95966 25.0717
5054150 7.34783 2.58736 12.1772 2.97523 -13.9137 3.11943 25.0877
5054152 7.34783 2.58736 12.1772 2.97523 -13.9137 3.11943 25.0877
5054159 7.22609 2.64341 12.5329 3.19042 -13.6026 3.43095 25.5928
5054181 7.26087 2.79286 12.8468 3.34948 -13.3003 3.51002 26.25
5054189 7.2 2.99835 12.8258 3.36819 -12.9387 3.40762 26.3924
5054210 7.09565 3.17582 12.5329 3.43368 -12.4047 3.25584 26.2381
5054211 7.09565 3.17582 12.5329 3.43368 -12.4047 3.25584 26.2381
5054222 7 3.34396 12.1563 3.51789 -11.8134 3.07299 26.0182
5054241 6.86087 3.62418 11.6437 3.51789 -11.076 2.73517 25.6466
5054250 6.71304 3.97912 11.0474 3.6863 -9.92593 2.3843 25.4258
5054269 6.71304 3.97912 11.0474 3.6863 -9.92593 2.3843 25.4258
5054271 6.6087 4.40879 10.472 3.82664 -8.73482 1.94411 25.3161
5054281 6.46087 4.94121 9.90708 4.17281 -7.11672 1.5763 25.482
5054300 6.46087 4.94121 9.90708 4.17281 -7.11672 1.5763 25.482
5054303 6.37391 5.66978 9.19569 4.70611 -5.00445 1.07424 25.9455
5054312 6.15652 6.14615 8.53662 5.10842 -3.31298 0.775999 25.9477
5054330 6.15652 6.14615 8.53662 5.10842 -3.31298 0.775999 25.9477
5054339 5.97391 6.57582 7.82523 5.50138 -1.66363 0.450336 25.8763
5054342 5.97391 6.57582 7.82523 5.50138 -1.66363 0.450336 25.8763
5054360 5.67826 6.97747 7.04062 5.95982 0.212833 0.201534 25.6562
5054362 5.44348 7.33242 6.41292 6.3902 1.82397 0.0159681 25.579
5054372 5.44348 7.33242 6.41292 6.3902 1.82397 0.0159681 25.579
5054391 5.13913 7.75275 5.86892 6.82058 3.48425 -0.118664 25.5814
5054402 4.92174 8.03297 5.33538 7.08255 4.78704 -0.31733 25.3726
5054421 4.73913 8.33187 4.84369 7.21354 5.93216 -0.605157 25.1282
5054423 4.73913 8.33187 4.84369 7.21354 5.93216 -0.605157 25.1282
5054433 4.6 8.5 4.46708 7.31646 6.78097 -0.793577 24.8835
5054452 4.56522 8.66813 4.25785 7.48487 7.33696 -0.895239 24.9761
5054453 4.56522 8.66813 4.25785 7.48487 7.33696 -0.895239 24.9761
5054463 4.50435 8.87363 4.00677 7.51293 7.90781 -1.11954 24.8977
5054482 4.50435 8.87363 4.00677 7.51293 7.90781 -1.11954 24.8977
5054484 4.41739 8.96703 3.84985 7.541 8.31555 -1.207 24.7753
5054493 4.46957 9.12582 3.71385 7.55971 8.54693 -1.40044 24.8689
5054519 4.42609 9.21923 3.61969 7.53165 8.77649 -1.50866 24.7967
5054522 4.48696 9.27527 3.52554 7.46615 8.81571 -1.67885 24.7539
5054543 4.4087 9.29396 3.51508 7.50358 8.9738 -1.62855 24.7213
5054553 4.4087 9.29396 3.51508 7.50358 8.9738 -1.62855 24.7213
5054573 4.30435 9.27527 3.55692 7.541 9.07202 -1.50847 24.6775
5054575 4.30435 9.27527 3.52554 7.62521 9.16949 -1.47321 24.7304
5054583 4.30435 9.27527 3.52554 7.62521 9.16949 -1.47321 24.7304
5054603 4.22609 9.3033 3.55692 7.61585 9.2463 -1.43102 24.7022
5054612 4.18261 9.21923 3.65108 7.80297 9.24179 -1.17545 24.8559
5054615 4.18261 9.21923 3.65108 7.80297 9.24179 -1.17545 24.8559
5054635 4.16522 9.18187 3.74523 7.99009 9.23109 -0.963879 25.0824
5054636 4.16522 9.18187 3.74523 7.99009 9.23109 -0.963879 25.0824
5054643 4.03478 9.0511 3.73477 8.0743 9.39533 -0.769321 24.8949
5054653 4 9.03242 3.76615 8.14915 9.43514 -0.671675 24.9477
5054667 4 9.03242 3.76615 8.14915 9.43514 -0.671675 24.9477
5054673 3.9913 8.90165 3.87077 8.19593 9.25043 -0.496554 24.9596
5054697 3.94783 8.7989 3.90215 8.41112 9.33763 -0.259451 25.06
5054704 3.92174 8.67747 4.04862 8.55146 9.18536 0.000513196 25.1993
5054726 3.92174 8.67747 4.04862 8.55146 9.18536 0.000513196 25.1993
5054729 3.83478 8.50934 4.13231 8.64502 9.14285 0.258665 25.1215
5054734 3.86087 8.4533 4.16369 8.59824 8.99958 0.267844 25.0761
5054758 3.91304 8.30385 4.20554 8.71987 8.85473 0.422704 25.1423
5054766 3.93043 8.1544 4.28923 8.8415 8.7012 0.622174 25.2156
5054788 3.93043 8.1544 4.28923 8.8415 8.7012 0.622174 25.2156
5054789 3.94783 8.12637 4.32062 8.94441 8.6845 0.704933 25.3392
5054805 3.86957 8.07033 4.34154 9.12218 8.83871 0.899767 25.4036
5054819 3.90435 7.95824 4.41477 9.12218 8.62349 0.988812 25.3995
5054827 3.90435 7.95824 4.41477 9.12218 8.62349 0.988812 25.3995
5054836 3.86087 7.92088 4.40431 9.16896 8.7011 1.05986 25.355
5054849 3.82609 7.86484 4.32062 9.1596 8.81738 1.06628 25.1711
5054855 3.82609 7.86484 4.32062 9.1596 8.81738 1.06628 25.1711
5054866 3.86087 7.9489 4.36246 9.15025 8.76278 1.00875 25.3225
5054880 3.86087 7.9489 4.36246 9.15025 8.76278 1.00875 25.3225
5054887 3.76522 7.85549 4.37292 9.14089 8.81084 1.12978 25.1345
5054911 3.73043 7.81813 4.43569 9.20638 8.79135 1.2466 25.1906
5054917 3.73043 7.73407 4.45662 9.27188 8.75134 1.34799 25.193
5054942 3.68696 7.70604 4.488 9.29059 8.76154 1.4216 25.1716
5054943 3.68696 7.70604 4.488 9.29059 8.76154 1.4216 25.1716
5054947 3.61739 7.76209 4.43569 9.34673 8.99746 1.43249 25.1619
5054957 3.54783 7.76209 4.52985 9.34673 8.96428 1.52859 25.1865
5054972 3.54783 7.67802 4.52985 9.44029 8.97032 1.63376 25.196
5054977 3.56522 7.6967 4.57169 9.459 8.91445 1.64204 25.2926
5054987 3.56522 7.6967 4.57169 9.459 8.91445 1.64204 25.2926
5055003 3.54783 7.57527 4.624 9.49642 8.81402 1.78104 25.2435
5055007 3.6 7.56593 4.69723 9.56192 8.68298 1.8249 25.4251
5055017 3.6 7.56593 4.69723 9.56192 8.68298 1.8249 25.4251
5055034 3.51304 7.50055 4.79138 9.58998 8.64946 1.98924 25.395
5055037 3.51304 7.50055 4.79138 9.58998 8.64946 1.98924 25.395
5055048 3.50435 7.3511 4.77046 9.6087 8.60424 2.09457 25.2346
5055063 3.46087 7.3511 4.88554 9.67419 8.55173 2.21571 25.3717
5055078 3.46957 7.20165 5.05292 9.62741 8.19138 2.37212 25.3515
5055103 3.41739 7.19231 5.17846 9.64612 8.10184 2.48575 25.4343
5055104 3.41739 7.19231 5.17846 9.64612 8.10184 2.48575 25.4343
5055126 3.44348 7.19231 5.28308 9.66483 7.94508 2.52824 25.5837
5055128 3.44348 7.17363 5.32492 9.58998 7.82861 2.52495 25.532
5055138 3.48696 7.0522 5.35631 9.49642 7.58644 2.5482 25.3919
5055158 3.47826 7.00549 5.304 9.44964 7.6007 2.53783 25.2374
5055169 3.50435 7.03352 5.36677 9.27188 7.38215 2.44322 25.1765
5055189 3.54783 7.0522 5.29354 9.1596 7.3548 2.30697 25.0532
5055201 3.68696 7.0522 5.31446 9.0754 7.08959 2.17918 25.129
5055220 3.68696 7.07088 5.31446 9.0754 7.1029 2.16642 25.1477
5055222 3.86957 7.16429 5.35631 8.93506 6.7852 1.92941 25.3252
5055251 3.97391 7.0522 5.26215 8.6918 6.51312 1.75811 24.9801
5055252 4.17391 6.97747 5.38769 8.39241 5.82423 1.58156 24.9315
5055259 4.17391 6.97747 5.38769 8.39241 5.82423 1.58156 24.9315
5055281 4.31304 6.98681 5.44 8.06494 5.34041 1.33346 24.8048
5055283 4.31304 6.98681 5.44 8.06494 5.34041 1.33346 24.8048
5055289 4.6087 6.93077 5.68062 7.56907 4.24634 1.03486 24.7892
5055312 4.88696 6.88407 5.93169 7.11062 3.19993 0.768514 24.8133
5055314 4.88696 6.88407 5.93169 7.11062 3.19993 0.768514 24.8133
5055319 5.22609 6.78132 6.20369 6.56797 1.93662 0.462642 24.7791
5055329 5.51304 6.62253 6.48615 6.0721 0.70405 0.256752 24.6938
5055345 5.51304 6.62253 6.48615 6.0721 0.70405 0.256752 24.6938
5055350 5.84348 6.55714 7.14523 5.66979 -0.755265 0.246511 25.2156
5055359 5.84348 6.55714 7.14523 5.66979 -0.755265 0.246511 25.2156
5055375 6.1913 6.2489 7.82523 5.16456 -2.55906 0.324175 25.43
5055379 6.56522 5.97802 8.55754 4.65933 -4.35305 0.39225 25.7601
5055406 6.93913 5.61374 9.22708 4.20088 -6.1118 0.505233 25.9808
5055409 7.30435 5.19341 9.87569 3.7705 -7.85663 0.658913 26.1439
5055439 7.6087 4.81044 10.3883 3.43368 -9.2916 0.801902 26.2411
5055440 7.6087 4.81044 10.3883 3.43368 -9.2916 0.801902 26.2411
5055449 7.73043 4.35275 10.7858 3.2372 -10.4633 1.1146 26.1062
5055470 7.90435 3.89506 11.0997 3.04073 -11.631 1.35372 25.9398
5055480 8.07826 3.58681 11.3298 2.8536 -12.542 1.46142 25.8485
5055502 8.29565 3.37198 11.4345 2.83489 -13.0347 1.50464 25.937
5055511 8.29565 3.07308 11.3298 2.67584 -13.6718 1.55883 25.3744
5055534 8.30435 2.88626 11.3612 2.60099 -14.0922 1.65286 25.1528
5055540 8.30435 2.70879 11.2671 2.47936 -14.5229 1.6559 24.7596
5055567 8.42609 2.64341 11.2566 2.47936 -14.6741 1.61243 24.8055
5055572 8.44348 2.5033 11.4135 2.48872 -14.9553 1.78406 24.849
5055582 8.44348 2.5033 11.4135 2.48872 -14.9553 1.78406 24.849
5055599 8.46957 2.43791 11.4972 2.47001 -15.1347 1.8451 24.8747
5055602 8.46957 2.43791 11.4972 2.47001 -15.1347 1.8451 24.8747
5055612 8.50435 2.42857 11.6332 2.43258 -15.2772 1.87983 24.9987
5055631 8.51304 2.31648 11.8111 2.45129 -15.4994 2.05216 25.0919
5055632 8.51304 2.31648 11.8111 2.45129 -15.4994 2.05216 25.0919
5055642 8.50435 2.36319 11.9575 2.49807 -15.4015 2.12537 25.3231
5055662 8.48696 2.2978 12.0098 2.51679 -15.4893 2.2175 25.3114
5055663 8.48696 2.2978 12.0098 2.51679 -15.4893 2.2175 25.3114
5055673 8.44348 2.32582 12.1458 2.51679 -15.4793 2.29632 25.4319
5055695 8.44348 2.32582 12.1458 2.51679 -15.4793 2.29632 25.4319
5055697 8.3913 2.17637 12.1772 2.52614 -15.6958 2.4548 25.271
5055702 8.4 2.2044 12.1458 2.5355 -15.6273 2.41853 25.2857
5055712 8.4 2.2044 12.1458 2.5355 -15.6273 2.41853 25.2857
5055728 8.43478 2.2511 12.2714 2.58228 -15.5375 2.44784 25.5395
5055732 8.36522 2.2044 12.3132 2.55421 -15.6463 2.53439 25.4371
5055743 8.36522 2.2044 12.3132 2.55421 -15.6463 2.53439 25.4371
5055760 8.38261 2.2044 12.3655 2.5355 -15.7017 2.53886 25.488
5055763 8.38261 2.2044 12.3655 2.5355 -15.7017 2.53886 25.488
5055773 8.41739 2.17637 12.3237 2.54485 -15.729 2.5183 25.4623
5055793 8.3913 2.2044 12.3865 2.47936 -15.8023 2.51563 25.4615
5055795 8.3913 2.2044 12.3865 2.47936 -15.8023 2.51563 25.4615
5055803 8.4 2.21374 12.3342 2.49807 -15.7415 2.48673 25.446
5055827 8.4 2.21374 12.2609 2.49807 -15.7148 2.45062 25.3727
5055828 8.4 2.13901 12.2609 2.52614 -15.7898 2.51602 25.3261
5055833 8.37391 2.18571 12.3028 2.50743 -15.7505 2.51317 25.3698
5055859 8.35652 2.16703 12.2714 2.54485 -15.7026 2.54107 25.3398
5055863 8.33913 2.24176 12.24 2.49807 -15.6398 2.46289 25.319
5055892 8.48696 2.16703 12.2923 2.52614 -15.7877 2.45233 25.4724
5055894 8.48696 2.16703 12.2923 2.52614 -15.7877 2.45233 25.4724
5055903 8.38261 2.22308 12.24 2.52614 -15.6408 2.45969 25.3718
5055925 8.43478 2.22308 12.2086 2.52614 -15.6484 2.40832 25.3926
5055926 8.43478 2.22308 12.2086 2.52614 -15.6484 2.40832 25.3926
5055933 8.3913 2.21374 12.2086 2.5355 -15.6324 2.44924 25.3492
5055956 8.44348 2.23242 12.1145 2.54485 -15.5719 2.35843 25.3352
5055957 8.44348 2.23242 12.1145 2.54485 -15.5719 2.35843 25.3352
5055963 8.4087 2.26978 12.1458 2.48872 -15.6007 2.3443 25.313
5055987 8.4087 2.26978 12.1458 2.48872 -15.6007 2.3443 25.313
5055988 8.43478 2.23242 12.1354 2.54485 -15.5764 2.37482 25.3474
5055994 8.51304 2.32582 12.1563 2.47936 -15.5686 2.23564 25.4745
5056019 8.58261 2.33516 12.0935 2.48872 -15.5414 2.15558 25.5
5056024 8.52174 2.30714 12.1668 2.49807 -15.5757 2.257 25.4937
5056034 8.52174 2.30714 12.1668 2.49807 -15.5757 2.257 25.4937
5056052 8.53913 2.37253 12.2295 2.49807 -15.5017 2.23249 25.6393
5056054 8.53913 2.37253 12.2295 2.49807 -15.5017 2.23249 25.6393
5056064 8.53913 2.34451 12.1354 2.44194 -15.6004 2.17609 25.461
5056084 8.55652 2.37253 12.1982 2.5355 -15.4374 2.22381 25.6627
5056085 8.55652 2.37253 12.1982 2.5355 -15.4374 2.22381 25.6627
5056095 8.51304 2.40055 12.1354 2.49807 -15.4125 2.18413 25.5471
5056115 8.45217 2.39121 12.2086 2.54485 -15.3581 2.29135 25.5969
5056118 8.45217 2.39121 12.2086 2.54485 -15.3581 2.29135 25.5969
5056124 8.44348 2.49396 12.1668 2.51679 -15.2214 2.19319 25.621
5056149 8.44348 2.49396 12.1668 2.51679 -15.2214 2.19319 25.621
5056150 8.32174 2.40055 12.1563 2.58228 -15.2147 2.36616 25.4609
5056155 8.26087 2.40989 12.1877 2.56357 -15.2182 2.40766 25.422
5056181 8.26087 2.40989 12.1877 2.56357 -15.2182 2.40766 25.422
5056183 8.2 2.47527 12.1458 2.52614 -15.1342 2.36518 25.3473
5056186 8.13913 2.38187 12.2086 2.60099 -15.1644 2.53958 25.3306
5056215 8.08696 2.49396 12.1877 2.52614 -15.0768 2.45086 25.2947
5056226 8 2.41923 12.1354 2.6197 -14.9919 2.5835 25.1743
5056249 7.98261 2.49396 12.1458 2.66648 -14.797 2.57174 25.2889
5056250 7.98261 2.49396 12.1458 2.66648 -14.797 2.57174 25.2889
5056257 7.98261 2.61538 12.1354 2.64777 -14.6318 2.47339 25.3812
5056280 8.02609 2.64341 12.0203 2.66648 -14.5294 2.37651 25.3563
5056283 8.02609 2.64341 12.0203 2.66648 -14.5294 2.37651 25.3563
5056287 7.96522 2.74615 11.9471 2.67584 -14.2991 2.31596 25.3343
5056296 7.96522 2.74615 11.9471 2.67584 -14.2991 2.31596 25.3343
5056315 7.93043 2.87692 11.7378 2.70391 -13.9485 2.15912 25.2491
5056317 7.89565 3.07308 11.6228 2.76004 -13.4955 2.02004 25.3515
5056349 7.8 3.41868 11.1834 2.8536 -12.5824 1.67387 25.2557
5056350 7.66957 3.64286 10.7858 3.05008 -11.6931 1.50517 25.1483
5056357 7.66957 3.64286 10.7858 3.05008 -11.6931 1.50517 25.1483
5056382 7.56522 4.05385 10.3255 3.2372 -10.5232 1.15779 25.1818
5056383 7.56522 4.05385 10.3255 3.2372 -10.5232 1.15779 25.1818
5056387 7.34783 4.48352 9.77108 3.58338 -8.98523 0.907125 25.1858
5056414 7.06087 5.02527 9.22708 4.04183 -7.11973 0.699717 25.355
5056415 7.06087 5.02527 9.22708 4.04183 -7.11973 0.699717 25.355
5056417 6.76522 5.66978 8.50523 4.5377 -4.968 0.357918 25.4779
5056427 6.36522 6.23956 7.82523 5.28619 -2.59049 0.295519 25.7162
5056448 6.36522 6.23956 7.82523 5.28619 -2.59049 0.295519 25.7162
5056449 5.9913 6.74396 7.19754 6.16566 -0.267476 0.360904 26.0985
5056458 5.9913 6.74396 7.19754 6.16566 -0.267476 0.360904 26.0985
5056481 5.46957 7.34176 6.33969 6.78316 2.23225 0.180184 25.9342
5056482 4.96522 7.91154 5.67015 7.44744 4.54292 0.138974 25.9944
5056488 4.96522 7.91154 5.67015 7.44744 4.54292 0.138974 25.9944
5056513 4.46087 8.26648 4.99015 7.73748 6.43581 0.000164509 25.455
5056514 4.11304 8.61209 4.49846 8.11172 8.00494 -0.0680566 25.3353
5056528 3.81739 8.90165 4.22646 8.31756 9.07981 -0.10392 25.2631
5056546 3.81739 8.90165 4.22646 8.31756 9.07981 -0.10392 25.2631
5056549 3.50435 9.06044 3.92308 8.52339 10.1518 -0.0709605 25.0113
5056558 3.4087 9.25659 3.69292 8.62631 10.788 -0.207763 24.9845
5056578 3.4087 9.25659 3.69292 8.62631 10.788 -0.207763 24.9845
5056579 3.28696 9.47143 3.58831 8.71987 11.286 -0.269409 25.0666
5056588 3.2 9.61154 3.55692 8.8415 11.5987 -0.245807 25.21
5056611 3.2 9.61154 3.55692 8.8415 11.5987 -0.245807 25.21
5056612 3.18261 9.75165 3.49415 8.86021 11.7989 -0.343965 25.2886
5056620 3.18261 9.75165 3.49415 8.86021 11.7989 -0.343965 25.2886
5056643 3.07826 9.9011 3.4 8.85085 12.1617 -0.433117 25.2302
5056643 3.07826 10.0132 3.4 8.73858 12.1616 -0.566507 25.23
5056659 3.06087 10.0412 3.32677 8.67309 12.2766 -0.658649 25.1019
5056679 3.03478 10.0319 3.28492 8.68244 12.3778 -0.658674 25.034
5056680 3.03478 10.0319 3.28492 8.68244 12.3778 -0.658674 25.034
5056689 3.0087 10.144 3.27446 8.56081 12.4276 -0.790806 24.9879
5056713 3.0087 10.144 3.27446 8.56081 12.4276 -0.790806 24.9879
5056714 3.02609 10.0879 3.13846 8.43919 12.5169 -0.933324 24.6916
5056720 2.9913 10.2093 3.15938 8.37369 12.5662 -1.01131 24.7337
5056746 2.9913 10.2093 3.15938 8.37369 12.5662 -1.01131 24.7337
5056747 3.06957 10.2374 3.04431 8.26142 12.5798 -1.21962 24.6127
5056751 3.07826 10.2934 3.06523 8.16786 12.5156 -1.30376 24.6048
5056760 3.07826 10.2934 3.06523 8.16786 12.5156 -1.30376 24.6048
5056780 3.09565 10.3588 3.06523 8.21464 12.5459 -1.31876 24.7343
5056790 3.08696 10.3775 3.03385 8.21464 12.6162 -1.34501 24.7129
5056814 3.13043 10.4335 3.11754 8.20528 12.4472 -1.3508 24.8868
5056816 3.13043 10.4335 3.11754 8.20528 12.4472 -1.3508 24.8868
5056823 3.18261 10.5549 3.04431 8.25206 12.563 -1.46272 25.0339
5056831 3.15652 10.5549 3.08615 8.29884 12.5626 -1.39052 25.0965
5056847 3.15652 10.5549 3.08615 8.29884 12.5626 -1.39052 25.0965
5056850 3.1913 10.6577 3.08615 8.23335 12.5291 -1.50753 25.1685
5056860 3.1913 10.6577 3.08615 8.23335 12.5291 -1.50753 25.1685
5056880 3.2 10.583 3.08615 8.17722 12.451 -1.50896 25.0463
5056881 3.18261 10.6857 3.06523 8.17722 12.5594 -1.56858 25.1108
5056891 3.18261 10.6857 3.06523 8.17722 12.5594 -1.56858 25.1108
5056914 3.18261 10.7324 3.05477 8.0743 12.5472 -1.66863 25.0441
5056915 3.25217 10.7791 2.96062 7.95267 12.5468 -1.87496 24.9446
5056920 3.25217 10.7791 2.96062 7.95267 12.5468 -1.87496 24.9446
5056947 3.26957 10.7511 2.98154 8.00881 12.5033 -1.81739 25.011
5056948 3.26957 10.7511 2.98154 8.00881 12.5033 -1.81739 25.011
5056952 3.27826 10.8538 3.03385 7.88718 12.4026 -1.92257 25.0531
5056962 3.30435 10.7885 2.92923 7.83104 12.4591 -2.01134 24.8531
5056981 3.30435 10.7885 2.92923 7.83104 12.4591 -2.01134 24.8531
5056982 3.37391 10.8352 2.95015 7.8404 12.3517 -2.05115 24.9996
5056992 3.35652 10.8632 2.89785 7.75619 12.4278 -2.15026 24.8737
5057015 3.35652 10.8632 2.89785 7.75619 12.4278 -2.15026 24.8737
5057016 3.37391 10.8538 2.97108 7.75619 12.2872 -2.10408 24.955
5057048 3.38261 10.7978 2.97108 7.78426 12.2599 -2.06034 24.9357
5057049 3.47826 10.8071 2.992 7.74684 12.072 -2.12588 25.0242
5057052 3.47826 10.8071 2.992 7.74684 12.072 -2.12588 25.0242
5057062 3.48696 10.8725 2.992 7.72812 12.0832 -2.17669 25.0796
5057081 3.6 10.8538 3.10708 7.66263 11.7047 -2.19089 25.2236
5057082 3.6 10.8538 3.10708 7.66263 11.7047 -2.19089 25.2236
5057092 3.66957 10.8538 3.09662 7.64392 11.609 -2.24601 25.2639
5057114 3.66957 10.8538 3.09662 7.64392 11.609 -2.24601 25.2639
5057115 3.68696 10.7978 3.11754 7.55971 11.4786 -2.26979 25.162
5057122 3.8087 10.7044 3.08615 7.3913 11.2051 -2.4223 24.9905
5057147 3.8087 10.7044 3.08615 7.3913 11.2051 -2.4223 24.9905
5057148 3.85217 10.6764 3.13846 7.33517 11.0199 -2.43274 25.0022
5057153 3.84348 10.5082 3.07569 7.21354 10.96 -2.47301 24.641
5057182 3.84348 10.5082 3.07569 7.21354 10.96 -2.47301 24.641
5057183 3.9913 10.4335 3.10708 7.0732 10.5754 -2.5876 24.6051
5057193 4.05217 10.3495 3.22215 7.10127 10.2896 -2.47413 24.725
5057216 4.1913 10.2654 3.32677 6.97028 9.81427 -2.52061 24.7537
5057217 4.1913 10.2654 3.32677 6.97028 9.81427 -2.52061 24.7537
5057224 4.35652 10.228 3.45231 6.93286 9.36339 -2.52268 24.9697
5057250 4.58261 10.1626 3.64062 6.82058 8.68825 -2.54938 25.2064
5057251 4.58261 10.1626 3.64062 6.82058 8.68825 -2.54938 25.2064
5057254 4.81739 9.96648 3.87077 6.67089 7.84703 -2.51261 25.3255
5057264 4.81739 9.96648 3.87077 6.67089 7.84703 -2.51261 25.3255
5057285 5.06087 9.75165 4.02769 6.5399 7.09511 -2.50881 25.3801
5057286 5.27826 9.65824 4.16369 6.306 6.41801 -2.63724 25.4062
5057294 5.27826 9.65824 4.16369 6.306 6.41801 -2.63724 25.4062
5057319 5.45217 9.36868 4.43569 6.04403 5.45921 -2.57374 25.3006
5057320 5.66087 9.15385 4.67631 5.81013 4.57172 -2.56606 25.3012
5057324 5.66087 9.15385 4.67631 5.81013 4.57172 -2.56606 25.3012
5057334 5.86957 8.98571 4.96923 5.57622 3.6644 -2.5451 25.4007
5057353 5.86957 8.98571 4.96923 5.57622 3.6644 -2.5451 25.4007
5057354 6.12174 8.52802 5.32492 5.26747 2.3263 -2.41106 25.2422
5057364 6.35652 8.2011 5.68062 5.06164 1.21108 -2.26208 25.2999
5057386 6.35652 8.2011 5.68062 5.06164 1.21108 -2.26208 25.2999
5057389 6.6 7.79011 6.13046 4.73418 -0.204095 -2.09395 25.2547
5057394 6.8087 7.22033 6.60123 4.41607 -1.77025 -1.80369 25.0463
5057420 6.8087 7.22033 6.60123 4.41607 -1.77025 -1.80369 25.0463
5057421 7.13913 6.79066 7.19754 4.10732 -3.40672 -1.56032 25.2346
5057424 7.13913 6.79066 7.19754 4.10732 -3.40672 -1.56032 25.2346
5057434 7.35652 6.2489 7.84615 3.85471 -5.03736 -1.12891 25.3063
5057453 7.63478 5.74451 8.62031 3.58338 -6.76935 -0.689287 25.583
5057454 7.63478 5.74451 8.62031 3.58338 -6.76935 -0.689287 25.583
5057465 7.83478 5.24011 9.23754 3.40561 -8.19133 -0.251811 25.718
5057489 7.83478 5.24011 9.23754 3.40561 -8.19133 -0.251811 25.718
5057491 7.9913 4.74505 9.76062 3.17171 -9.57894 0.114518 25.6687
5057496 8.12174 4.32473 10.064 3.0033 -10.6391 0.365002 25.5138
5057506 8.12174 4.32473 10.064 3.0033 -10.6391 0.365002 25.5138
5057523 8.18261 3.93242 10.1895 2.81618 -11.5677 0.531844 25.1207
5057525 8.23478 3.63352 10.5348 2.64777 -12.4629 0.786944 25.0508
5057535 8.23478 3.63352 10.5348 2.64777 -12.4629 0.786944 25.0508
5057557 8.33913 3.43736 10.6185 2.57292 -12.964 0.850028 24.9679
5057558 8.33913 3.43736 10.6185 2.57292 -12.964 0.850028 24.9679
5057566 8.35652 3.16648 10.7022 2.51679 -13.5149 1.02817 24.7419
5057592 8.44348 3.16648 10.7335 2.47936 -13.6277 0.968624 24.8229
5057593 8.44348 3.16648 10.7335 2.47936 -13.6277 0.968624 24.8229
5057596 8.43478 3.0544 10.8905 2.48872 -13.8551 1.14 24.8684
5057605 8.47826 3.0544 11.0997 2.52614 -13.9092 1.24799 25.1585
5057627 8.47826 3.0544 11.0997 2.52614 -13.9092 1.24799 25.1585
5057629 8.52174 3.06374 11.2775 2.56357 -13.9342 1.33067 25.4266
5057637 8.52174 3.06374 11.2775 2.56357 -13.9342 1.33067 25.4266
5057662 8.48696 2.97967 11.3508 2.5355 -14.1232 1.43158 25.3529
5057663 8.46087 2.8956 11.4658 2.63841 -14.1322 1.61884 25.4607
5057667 8.46087 2.8956 11.4658 2.63841 -14.1322 1.61884 25.4607
5057677 8.36522 2.85824 11.5286 2.63841 -14.1758 1.73898 25.3905
5057702 8.28696 2.83956 11.7274 2.62906 -14.27 1.90123 25.483
5057707 8.27826 2.79286 11.7797 2.67584 -14.2883 1.98875 25.5266
5057717 8.27826 2.79286 11.7797 2.67584 -14.2883 1.98875 25.5266
5057735 8.18261 2.72747 11.8006 2.67584 -14.3579 2.10724 25.3865
5057737 8.18261 2.71813 11.9052 2.7694 -14.2718 2.21339 25.5754
5057749 8.18261 2.71813 11.9052 2.7694 -14.2718 2.21339 25.5754
5057769 8.21739 2.69945 11.9471 2.72262 -14.4044 2.2001 25.5865
5057771 8.10435 2.69945 12.0098 2.78811 -14.2828 2.34017 25.6018
5057777 8.10435 2.69945 12.0098 2.78811 -14.2828 2.34017 25.6018
5057787 8.17391 2.78352 12.0622 2.74133 -14.2767 2.23947 25.7609
5057813 8.11304 2.70879 11.9785 2.7694 -14.2877 2.30313 25.5697
5057818 8.07826 2.63407 11.9052 2.73198 -14.4159 2.32246 25.3495
5057839 8.07826 2.63407 11.9052 2.73198 -14.4159 2.32246 25.3495
5057840 7.97391 2.61538 11.7692 2.6852 -14.4173 2.31503 25.0437
5057848 7.92174 2.60604 11.8738 2.67584 -14.4689 2.40569 25.0775
5057873 7.97391 2.75549 11.8529 2.75069 -14.1324 2.29396 25.333
5057878 7.94783 2.75549 11.8215 2.75069 -14.1077 2.29604 25.2755
5057889 7.94783 2.73681 11.8215 2.73198 -14.1656 2.29942 25.2382
5057910 8.03478 2.85824 11.8843 2.7694 -13.9856 2.20812 25.5467
5057910 8.03478 2.85824 11.8843 2.7694 -13.9856 2.20812 25.5467
5057919 8.05217 2.83956 11.8634 2.75069 -14.0412 2.18911 25.5058
5057942 8.06956 2.95165 11.9366 2.87232 -13.7264 2.19959 25.8301
5057943 8.06956 2.95165 11.9366 2.87232 -13.7264 2.19959 25.8301
5057949 8.06956 3.03571 11.8843 2.79747 -13.6897 2.0804 25.7871
5057978 8.06956 3.03571 11.8843 2.79747 -13.6897 2.0804 25.7871
5057979 8.04348 3.03571 11.8529 2.83489 -13.6083 2.10072 25.767
5057980 8.05217 3.07308 11.7378 2.86296 -13.463 2.02648 25.7261
5057989 8.05217 3.07308 11.7378 2.86296 -13.463 2.02648 25.7261
5058012 8.06956 3.15714 11.4972 2.7694 -13.3763 1.78866 25.4933
5058013 7.9913 3.1011 11.3403 2.73198 -13.4102 1.77623 25.1647
5058019 7.9913 3.1011 11.3403 2.73198 -13.4102 1.77623 25.1647
5058029 7.98261 3.19451 11.1938 2.80682 -13.0821 1.68217 25.1778
5058050 7.95652 3.25989 10.9846 2.83489 -12.8279 1.55962 25.0359
5058061 7.91304 3.39066 10.8486 2.90974 -12.4304 1.46914 25.0621
5058083 7.91304 3.39066 10.8486 2.90974 -12.4304 1.46914 25.0621
5058084 7.96522 3.50275 10.6812 2.87232 -12.2608 1.25027 25.0215
5058091 7.88696 3.70824 10.4406 2.90974 -11.7351 1.05539 24.9456
5058100 7.88696 3.70824 10.4406 2.90974 -11.7351 1.05539 24.9456
5058119 7.76522 3.89506 10.1268 2.96588 -11.1412 0.868004 24.7529
5058121 7.76522 3.89506 10.1268 2.96588 -11.1412 0.868004 24.7529
5058130 7.70435 4.05385 9.89662 3.05944 -10.6089 0.727027 24.7142
5058155 7.68696 4.35275 9.61415 3.21849 -9.77981 0.478206 24.8724
5058156 7.68696 4.35275 9.61415 3.21849 -9.77981 0.478206 24.8724
5058163 7.66087 4.7544 9.27938 3.24656 -8.96037 0.0665635 24.9412
5058171 7.57391 4.99725 8.90277 3.5366 -7.93948 -0.0790456 25.0105
5058190 7.43478 5.40824 8.46338 3.73308 -6.74619 -0.387326 25.0395
5058201 7.43478 5.40824 8.46338 3.73308 -6.74619 -0.387326 25.0395
5058224 7.26957 5.78187 8.05538 3.93891 -5.59394 -0.633125 25.0457
5058225 7.06957 6.25824 7.56369 4.34122 -3.99659 -0.845861 25.2327
5058232 7.06957 6.25824 7.56369 4.34122 -3.99659 -0.845861 25.2327
5058242 6.75652 6.60385 6.98831 4.61255 -2.53236 -1.05735 24.9612
5058260 6.41739 7.10824 6.42338 5.12713 -0.603561 -1.18147 25.0761
5058262 6.41739 7.10824 6.42338 5.12713 -0.603561 -1.18147 25.0761
5058273 6.08696 7.61264 5.97354 5.623 1.16139 -1.24706 25.2961
5058295 6.08696 7.61264 5.97354 5.623 1.16139 -1.24706 25.2961
5058296 5.81739 8.09835 5.49231 6.04403 2.78237 -1.40229 25.4521
5058302 5.63478 8.58407 5.13662 6.31535 4.02015 -1.61675 25.6708
5058329 5.63478 8.58407 5.13662 6.31535 4.02015 -1.61675 25.6708
5058331 5.31304 8.94835 4.73908 6.52119 5.30669 -1.76387 25.5217
5058332 5.13043 9.15385 4.34154 6.6896 6.29208 -1.92757 25.3154
5058342 5.13043 9.15385 4.34154 6.6896 6.29208 -1.92757 25.3154
5058364 4.86957 9.19121 4.20554 6.70831 6.83135 -1.89007 24.9746
5058365 4.86957 9.19121 4.20554 6.70831 6.83135 -1.89007 24.9746
5058374 4.77391 9.38736 3.93354 6.73638 7.46671 -2.10906 24.8312
5058399 4.78261 9.46209 3.86031 6.70831 7.58412 -2.22224 24.8133
5058401 4.78261 9.46209 3.86031 6.70831 7.58412 -2.22224 24.8133
5058402 4.67826 9.55549 3.75569 6.64282 7.88027 -2.3355 24.6323
5058412 4.5913 9.62088 3.61969 6.76445 8.30849 -2.33452 24.5963
5058440 4.56522 9.72363 3.61969 6.88608 8.49458 -2.28865 24.7946
5058441 4.56522 9.72363 3.61969 6.88608 8.49458 -2.28865 24.7946
5058469 4.49565 9.79835 3.66154 7.0732 8.70435 -2.13311 25.0287
5058472 4.53043 9.88242 3.65108 7.25096 8.84052 -2.08028 25.3149
5058473 4.53043 9.88242 3.65108 7.25096 8.84052 -2.08028 25.3149
5058484 4.57391 10.0319 3.57785 7.3071 9.01034 -2.18952 25.4907
5058503 4.48696 9.98516 3.56738 7.38195 9.15838 -2.07863 25.4215
5058504 4.48696 9.98516 3.56738 7.38195 9.15838 -2.07863 25.4215
5058514 4.37391 10.0319 3.56738 7.50358 9.41462 -1.96345 25.4767
5058539 4.37391 10.0319 3.56738 7.50358 9.41462 -1.96345 25.4767
5058540 4.26957 10.0692 3.49415 7.55036 9.70704 -1.94672 25.3833
5058544 4.17391 10.0412 3.49415 7.58778 9.84395 -1.85784 25.2971
5058554 4.17391 10.0412 3.49415 7.58778 9.84395 -1.85784 25.2971
5058573 4.13913 10.1159 3.45231 7.51293 9.94975 -1.95665 25.2203
5058574 4.06957 10.0412 3.30585 7.55036 10.2297 -1.95533 24.967
5058584 4.06957 10.0412 3.30585 7.55036 10.2297 -1.95533 24.967
5058608 4 10.0692 3.37908 7.52229 10.2245 -1.90296 24.9706
5058609 4 10.0692 3.37908 7.52229 10.2245 -1.90296 24.9706
5058614 3.92174 10.0599 3.33723 7.62521 10.4495 -1.81558 24.9441
5058624 3.86087 10.0973 3.35815 7.6907 10.566 -1.74507 25.007
5058642 3.86087 10.0973 3.35815 7.6907 10.566 -1.74507 25.007
5058644 3.8087 10.0786 3.28492 7.70941 10.7453 -1.74402 24.8816
5058654 3.73043 10.2093 3.28492 7.74684 10.9533 -1.7468 24.9715
5058677 3.57391 10.2654 3.24308 7.82168 11.3135 -1.67114 24.9041
5058684 3.57391 10.2654 3.24308 7.82168 11.3135 -1.67114 24.9041
5058711 3.53043 10.228 3.21169 7.79362 11.3871 -1.66765 24.7638
5058712 3.43478 10.2467 3.18031 7.79362 11.5849 -1.64724 24.6554
5058716 3.43478 10.2467 3.18031 7.79362 11.5849 -1.64724 24.6554
5058726 3.46087 10.3401 3.15938 7.82168 11.643 -1.70683 24.782
5058745 3.46087 10.3681 3.13846 7.80297 11.679 -1.7486 24.7704
5058745 3.46087 10.3681 3.13846 7.80297 11.679 -1.7486 24.7704
5058756 3.3913 10.4335 3.05477 7.82168 11.9519 -1.79041 24.7013
5058779 3.4 10.3868 3.05477 7.80297 11.9043 -1.78279 24.6446
5058785 3.3913 10.4709 3.10708 7.89653 11.9331 -1.7244 24.8658
5058814 3.3913 10.4709 3.10708 7.89653 11.9331 -1.7244 24.8658
5058815 3.42609 10.5269 3.18031 7.97138 11.8423 -1.67378 25.1047
5058817 3.42609 10.5176 3.128 7.98074 11.9192 -1.6974 25.0524
5058827 3.42609 10.5176 3.128 7.98074 11.9192 -1.6974 25.0524
5058848 3.45217 10.583 3.05477 7.91525 11.9888 -1.8387 25.0052
5058857 3.3913 10.5643 3.08615 7.91525 12.0228 -1.77557 24.957
5058883 3.37391 10.6857 3.09662 7.96203 12.1199 -1.79211 25.1183
5058887 3.4 10.6484 3.05477 7.97138 12.1288 -1.80793 25.0745
5058897 3.4087 10.6764 3.06523 7.8404 12.0473 -1.90838 24.9907
5058918 3.48696 10.7137 3.04431 7.90589 12.0158 -1.9386 25.1509
5058928 3.48696 10.7137 3.04431 7.90589 12.0158 -1.9386 25.1509
5058952 3.41739 10.6857 3.05477 7.83104 12.0499 -1.93123 24.9889
5058954 3.3913 10.7137 3.00246 7.84975 12.1906 -1.95504 24.9573
5058959 3.3913 10.7137 3.00246 7.84975 12.1906 -1.95504 24.9573
5058987 3.34783 10.6484 3.01292 7.81233 12.187 -1.91624 24.8214
5058988 3.42609 10.667 3.01292 7.83104 12.0895 -1.95441 24.9371
5058989 3.42609 10.667 3.01292 7.83104 12.0895 -1.95441 24.9371
5058999 3.43478 10.7044 3.09662 7.78426 11.9477 -1.95341 25.0201
5059022 3.46087 10.7324 3.05477 7.76555 11.9758 -2.02268 25.0136
5059023 3.46087 10.7324 3.05477 7.76555 11.9758 -2.02268 25.0136
5059029 3.5913 10.6577 3.13846 7.84975 11.667 -1.93808 25.2372
5059039 3.5913 10.6577 3.13846 7.84975 11.667 -1.93808 25.2372
5059058 3.61739 10.6203 3.15938 7.7749 11.5391 -1.96852 25.172
5059059 3.70435 10.583 3.14892 7.75619 11.3982 -2.01382 25.1924
5059093 3.73913 10.5456 3.19077 7.66263 11.2164 -2.04749 25.1381
5059094 3.81739 10.4709 3.20123 7.55036 10.9851 -2.11863 25.0399
5059099 3.81739 10.4709 3.20123 7.55036 10.9851 -2.11863 25.0399
5059109 3.91304 10.3775 3.24308 7.46615 10.6876 -2.14879 24.9997
5059128 3.91304 10.3775 3.24308 7.46615 10.6876 -2.14879 24.9997
5059129 4.01739 10.2654 3.264 7.3071 10.3516 -2.2401 24.8539
5059140 4.07826 10.1253 3.264 7.20418 10.1201 -2.27103 24.6717
5059164 4.07826 10.1253 3.264 7.20418 10.1201 -2.27103 24.6717
5059165 4.22609 10.0412 3.30585 7.03577 9.69674 -2.39284 24.6089
5059171 4.22609 10.0412 3.48369 7.03577 9.44779 -2.26804 24.7868
5059180 4.33913 9.96648 3.48369 6.94221 9.18451 -2.3531 24.7315
5059202 4.66957 9.83571 3.78708 6.76445 8.12506 -2.36688 25.0568
5059203 4.66957 9.83571 3.78708 6.76445 8.12506 -2.36688 25.0568
5059211 4.88696 9.67692 4.04862 6.56797 7.25693 -2.3514 25.1805
5059236 5.1913 9.59286 4.47754 6.36214 6.13311 -2.30907 25.6238
5059237 5.1913 9.59286 4.47754 6.36214 6.13311 -2.30907 25.6238
5059240 5.56522 9.35 5.00062 6.14695 4.73003 -2.16841 26.0628
5059251 5.56522 9.35 5.00062 6.14695 4.73003 -2.16841 26.0628
5059272 5.87826 8.97637 5.59692 5.69785 3.05843 -2.04203 26.1494
5059273 6.17391 8.48132 6.21415 5.36103 1.38607 -1.76134 26.2304
5059281 6.17391 8.48132 6.21415 5.36103 1.38607 -1.76134 26.2304
5059308 6.46957 7.88352 6.58031 4.85581 -0.301047 -1.69662 25.7892
5059309 6.63478 7.17363 7.15569 4.35993 -2.22804 -1.35807 25.324
5059311 6.63478 7.17363 7.15569 4.35993 -2.22804 -1.35807 25.324
5059321 6.94783 6.48242 7.81477 3.96698 -4.27693 -0.98078 25.212
5059342 7.30435 5.80989 8.46338 3.55531 -6.36867 -0.653849 25.1329
5059350 7.62609 5.24011 9.01785 3.33077 -8.00428 -0.307907 25.2148
5059378 7.62609 5.24011 9.01785 3.33077 -8.00428 -0.307907 25.2148
5059379 7.86957 4.68901 9.45723 3.05008 -9.5625 -0.0306782 25.0659
5059381 8.04348 4.24066 9.85477 2.90974 -10.727 0.287665 25.0486
5059391 8.04348 4.24066 9.85477 2.90974 -10.727 0.287665 25.0486
5059414 8.22609 3.85769 10.1686 2.71326 -11.84 0.47952 24.9657
5059416 8.22609 3.85769 10.1686 2.71326 -11.84 0.47952 24.9657
5059420 8.25217 3.62418 10.4825 2.63841 -12.4734 0.746799 24.9972
5059431 8.34783 3.42802 10.6812 2.56357 -13.0267 0.880643 25.0206
5059450 8.55652 3.3533 10.6603 2.56357 -13.2292 0.78424 25.1337
5059460 8.55652 3.3533 10.6603 2.56357 -13.2292 0.78424 25.1337
5059484 8.55652 3.21319 10.7022 2.51679 -13.5349 0.869933 24.9886
5059485 8.58261 3.27857 10.7858 2.52614 -13.4704 0.864496 25.1732
5059491 8.58261 3.27857 10.7858 2.52614 -13.4704 0.864496 25.1732
5059519 8.51304 3.25989 10.9742 2.51679 -13.5673 1.02004 25.2639
5059520 8.50435 3.24121 11.0055 2.54485 -13.5633 1.07023 25.2959
5059521 8.50435 3.24121 11.0055 2.54485 -13.5633 1.07023 25.2959
5059531 8.58261 3.27857 11.016 2.5355 -13.5607 0.997723 25.4127
5059553 8.58261 3.27857 11.016 2.5355 -13.5607 0.997723 25.4127
5059555 8.61739 3.25989 11.0892 2.57292 -13.5808 1.04831 25.5394
5059562 8.63478 3.26923 11.0788 2.47936 -13.7115 0.974455 25.4621
5059589 8.63478 3.26923 11.0788 2.47936 -13.7115 0.974455 25.4621
5059590 8.61739 3.22253 11.1834 2.50743 -13.7783 1.08745 25.5307
5059591 8.66087 3.07308 11.2148 2.49807 -14.0533 1.16649 25.4468
5059625 8.74783 3.03571 11.1834 2.47936 -14.1633 1.10775 25.4463
5059626 8.74783 3.03571 11.2985 2.37644 -14.3706 1.11439 25.4584
5059632 8.74783 2.86758 11.2985 2.37644 -14.6323 1.22152 25.2903
5059660 8.90435 2.82088 11.3508 2.3858 -14.7755 1.18492 25.4618
5059661 8.90435 2.82088 11.3508 2.3858 -14.7755 1.18492 25.4618
5059662 8.90435 2.78352 11.3298 2.32966 -14.9138 1.16678 25.3474
5059673 9.01739 2.69011 11.2671 2.3016 -15.1257 1.1045 25.2762
5059697 9.01739 2.69011 11.2671 2.3016 -15.1257 1.1045 25.2762
5059699 9.03478 2.69011 11.2566 2.2361 -15.2326 1.05154 25.2176
5059713 9.15652 2.55934 11.2671 2.25482 -15.4624 1.07341 25.2378
5059735 9.25217 2.51264 11.1834 2.27353 -15.5118 1.00634 25.2217
5059743 9.29565 2.48462 11.1834 2.24546 -15.6183 0.980939 25.2091
5059770 9.33913 2.47527 11.1729 2.17997 -15.7514 0.916956 25.1673
5059772 9.33913 2.47527 11.1729 2.17997 -15.7514 0.916956 25.1673
5059773 9.53043 2.48462 11.1102 2.17997 -15.7833 0.755816 25.3052
5059783 9.53043 2.48462 11.1102 2.17997 -15.7833 0.755816 25.3052
5059806 9.54783 2.38187 11.1102 2.08641 -16.1084 0.756299 25.1263
5059807 9.57391 2.39121 11.0997 2.10512 -16.0681 0.738793 25.1699
5059814 9.57391 2.39121 11.0997 2.10512 -16.0681 0.738793 25.1699
5059842 9.54783 2.36319 11.0578 2.06769 -16.1512 0.727653 25.0366
5059844 9.56522 2.27912 11.1206 2.06769 -16.3177 0.805331 25.0326
5059844 9.56522 2.27912 11.1206 2.06769 -16.3177 0.805331 25.0326
5059854 9.65217 2.24176 11.0683 2.06769 -16.3914 0.744351 25.0299
5059878 9.65217 2.24176 11.0683 2.06769 -16.3914 0.744351 25.0299
5059880 9.70435 2.30714 11.016 2.04898 -16.3143 0.630165 25.0765
5059884 9.65217 2.26044 11.0474 2.03027 -16.4152 0.699295 24.9903
5059894 9.65217 2.26044 11.0474 2.03027 -16.4152 0.699295 24.9903
5059916 9.68696 2.2511 11.0997 1.93671 -16.6158 0.659682 24.9745
5059917 9.69565 2.26044 11.1729 2.08641 -16.3806 0.775262 25.2154
5059950 9.77391 2.28846 11.1938 2.02091 -16.4757 0.683849 25.2771
5059952 9.77391 2.28846 11.1938 2.02091 -16.4757 0.683849 25.2771
5059956 9.77391 2.26978 11.1938 2.02091 -16.5064 0.69545 25.2585
5059967 9.73913 2.26044 11.1102 1.99285 -16.5282 0.659353 25.1026
5059987 9.73913 2.26044 11.1102 1.99285 -16.5282 0.659353 25.1026
5059988 9.73913 2.2978 11.0997 2.0022 -16.4475 0.635449 25.1388
5059995 9.73043 2.30714 11.1206 1.918 -16.5754 0.598796 25.0762
5060023 9.73043 2.30714 11.1206 1.918 -16.5754 0.598796 25.0762
5060024 9.70435 2.26044 11.1729 1.98349 -16.5531 0.711524 25.1212
5060036 9.73043 2.26044 11.1834 1.97413 -16.5808 0.695856 25.1484
5060057 9.72174 2.31648 11.1206 1.93671 -16.526 0.609133 25.0955
5060058 9.72174 2.31648 11.1206 1.93671 -16.526 0.609133 25.0955
5060066 9.75652 2.26044 11.0892 2.03963 -16.4497 0.663267 25.1458
5060093 9.76522 2.28846 11.1415 2.01156 -16.4705 0.654239 25.2068
5060095 9.76522 2.28846 11.1415 2.01156 -16.4705 0.654239 25.2068
5060103 9.81739 2.31648 11.1938 1.99285 -16.4905 0.623692 25.3206
5060130 9.82609 2.30714 11.152 2.03027 -16.4333 0.621579 25.3155
5060132 9.90435 2.35385 11.0997 2.0022 -16.4116 0.499032 25.3601
5060137 9.90435 2.35385 11.0997 2.0022 -16.4116 0.499032 25.3601
5060147 9.85217 2.38187 11.0683 2.02091 -16.3068 0.506558 25.3233
5060166 9.73913 2.34451 11.0474 1.99285 -16.3681 0.571126 25.1239
5060177 9.63478 2.37253 10.9637 2.01156 -16.2257 0.58117 24.9826
5060201 9.48696 2.31648 11.0369 2.03963 -16.2458 0.767552 24.88
5060207 9.45217 2.26978 11.0788 2.01156 -16.3725 0.827234 24.8123
5060217 9.45217 2.26978 11.0788 2.01156 -16.3725 0.827234 24.8123
5060236 9.34783 2.15769 11.3194 2.01156 -16.6066 1.10247 24.8365
5060237 9.26957 2.17637 11.3508 2.06769 -16.4656 1.18997 24.8644
5060247 9.26957 2.17637 11.3508 2.06769 -16.4656 1.18997 24.8644
5060272 9.12174 2.14835 11.5914 2.16125 -16.3886 1.48818 25.0227
5060277 9.02609 2.08297 11.7274 2.18932 -16.4642 1.68286 25.0258
5060288 8.93044 2.19506 11.8006 2.21739 -16.2255 1.7256 25.1435
5060308 8.93044 2.19506 11.8006 2.21739 -16.2255 1.7256 25.1435
5060309 8.91304 2.34451 11.8006 2.27353 -15.8849 1.66783 25.3317
5060318 8.8 2.56868 11.7065 2.3858 -15.2704 1.60456 25.4609
5060344 8.8 2.56868 11.7065 2.3858 -15.2704 1.60456 25.4609
5060346 8.68696 2.81154 11.4972 2.43258 -14.6884 1.43422 25.4283
5060353 8.68696 2.81154 11.4972 2.43258 -14.6884 1.43422 25.4283
5060381 8.45217 3.04505 11.2043 2.58228 -13.8717 1.3582 25.2838
5060382 8.30435 3.40934 10.7858 2.74133 -12.816 1.07771 25.2409
5060383 8.30435 3.40934 10.7858 2.74133 -12.816 1.07771 25.2409
5060389 8.14783 3.96044 10.1895 3.03137 -11.1981 0.65891 25.3292
5060398 7.91304 4.57692 9.54092 3.40561 -9.3089 0.269242 25.4365
5060418 7.91304 4.57692 9.54092 3.40561 -9.3089 0.269242 25.4365
5060419 7.6 5.15604 8.74585 3.92955 -7.13708 -0.0475663 25.4314
5060453 7.24348 5.79121 7.81477 4.60319 -4.58091 -0.363455 25.4526
5060454 6.72174 6.59451 6.97785 5.48266 -1.57353 -0.497968 25.7768
5060459 6.72174 6.59451 6.97785 5.48266 -1.57353 -0.497968 25.7768
5060470 6.17391 7.26703 6.30831 6.34342 1.08099 -0.453699 26.0927
5060490 5.5913 7.77143 5.49231 6.97028 3.54119 -0.522827 25.8253
5060492 5.5913 7.77143 5.49231 6.97028 3.54119 -0.522827 25.8253
5060499 4.92174 8.25714 4.99015 7.67199 5.8214 -0.299955 25.841
5060528 4.92174 8.25714 4.99015 7.67199 5.8214 -0.299955 25.841
5060531 4.38261 8.63077 4.60308 8.32691 7.68211 -0.0482127 25.9434
5060532 4.02609 8.86429 4.29969 8.82278 8.99679 0.13384 26.0128
5060540 4.02609 8.86429 4.29969 8.82278 8.99679 0.13384 26.0128
5060566 3.75652 9.14451 3.99631 9.0754 10.0751 0.098573 25.9727
5060567 3.46957 9.3967 3.82892 9.06604 10.8344 0.0167102 25.7612
5060570 3.46957 9.3967 3.82892 9.06604 10.8344 0.0167102 25.7612
5060580 3.32174 9.43407 3.60923 8.98184 11.3278 -0.0974885 25.3469
5060602 3.32174 9.43407 3.60923 8.98184 11.3278 -0.0974885 25.3469
5060603 3.10435 9.54615 3.43138 8.86957 11.9031 -0.210139 24.9515
5060611 3.02609 9.59286 3.34769 8.78536 12.1247 -0.294456 24.752
5060637 3.02609 9.59286 3.34769 8.78536 12.1247 -0.294456 24.752
5060638 3.01739 9.59286 3.264 8.65438 12.1958 -0.423101 24.5286
5060641 3.02609 9.72363 3.264 8.63566 12.2409 -0.517285 24.6494
5060674 3.11304 9.81703 3.13846 8.59824 12.3281 -0.7257 24.6668
5060675 3.11304 9.81703 3.13846 8.59824 12.3281 -0.7257 24.6668
5060682 3.2 9.9011 3.16985 8.49532 12.1401 -0.869688 24.7663
5060712 3.16522 9.83571 3.16985 8.47661 12.1486 -0.824313 24.6474
5060713 3.16522 9.83571 3.16985 8.47661 12.1486 -0.824313 24.6474
5060714 3.11304 9.81703 3.18031 8.50468 12.2165 -0.758738 24.6151
5060722 3.13043 9.92912 3.15938 8.67309 12.3658 -0.739445 24.892
5060749 3.13043 9.92912 3.15938 8.67309 12.3658 -0.739445 24.892
5060751 3.10435 9.9478 3.20123 8.78536 12.4084 -0.638346 25.0387
5060752 3.10435 9.9478 3.20123 8.78536 12.4084 -0.638346 25.0387
5060762 2.98261 9.93846 3.20123 8.8415 12.6144 -0.527769 24.9638
5060787 2.96522 9.91978 3.32677 8.88828 12.4662 -0.400369 25.1
5060788 2.96522 9.91978 3.32677 8.88828 12.4662 -0.400369 25.1
5060792 2.88696 9.91978 3.34769 8.9257 12.5705 -0.318983 25.0801
5060802 2.91304 9.88242 3.24308 8.81343 12.6144 -0.446014 24.852
5060822 2.91304 9.88242 3.24308 8.81343 12.6144 -0.446014 24.852
5060824 2.94783 9.89176 3.25354 8.86021 12.5741 -0.436316 24.9533
5060832 2.94783 9.89176 3.25354 8.86021 12.5741 -0.436316 24.9533
5060860 2.94783 9.87308 3.27446 8.81343 12.5099 -0.441418 24.9088
5060863 2.94783 9.93846 3.24308 8.8415 12.6037 -0.481589 24.9709
5060872 2.9913 9.91044 3.31631 8.82278 12.4053 -0.456845 25.0408
5060897 2.94783 9.91978 3.25354 8.83214 12.5741 -0.470035 24.9533
5060898 2.94783 9.91978 3.25354 8.83214 12.5741 -0.470035 24.9533
5060903 3 9.9478 3.28492 8.94441 12.5186 -0.428046 25.1771
5060912 3 9.9478 3.28492 8.94441 12.5186 -0.428046 25.1771
5060935 2.98261 9.89176 3.27446 8.86957 12.4951 -0.437882 25.0184
5060936 2.95652 9.80769 3.30585 8.85085 12.4355 -0.365666 24.9209
5060943 2.95652 9.80769 3.30585 8.85085 12.4355 -0.365666 24.9209
5060971 3 9.80769 3.25354 8.85085 12.4488 -0.423471 24.9121
5060973 2.93913 9.77033 3.34769 8.88828 12.3989 -0.284716 24.9454
5060974 2.93913 9.77033 3.34769 8.88828 12.3989 -0.284716 24.9454
5060983 3.05217 9.70494 3.34769 8.93506 12.2207 -0.284168 25.0399
5061008 3.05217 9.70494 3.34769 8.93506 12.2207 -0.284168 25.0399
5061012 3.11304 9.67692 3.41046 8.90699 12.0088 -0.282297 25.1074
5061017 3.09565 9.55549 3.43138 8.90699 11.9404 -0.187744 24.9895
5061046 3.09565 9.44341 3.49415 8.93506 11.8036 -0.0659913 24.9683
5061047 3.18261 9.3967 3.43138 8.90699 11.7283 -0.145041 24.9177
5061054 3.18261 9.3967 3.43138 8.90699 11.7283 -0.145041 24.9177
5061083 3.14783 9.27527 3.46277 8.91635 11.6734 -0.0266013 24.8022
5061084 3.14783 9.27527 3.46277 8.91635 11.6734 -0.0266013 24.8022
5061085 3.13043 9.20989 3.47323 8.86021 11.618 -0.00418603 24.6738
5061094 3.17391 9.07912 3.45231 8.86021 11.5132 0.0363207 24.5656
5061121 3.17391 9.07912 3.45231 8.86021 11.5132 0.0363207 24.5656
5061123 3.1913 8.94835 3.536 8.8415 11.2804 0.145515 24.5172
5061126 3.26087 8.91099 3.536 8.98184 11.2354 0.210198 24.6897
5061134 3.26087 8.91099 3.536 8.98184 11.2354 0.210198 24.6897
5061159 3.31304 8.97637 3.65108 9.12218 11.1066 0.289577 25.0627
5061164 3.27826 8.87363 3.77662 9.23445 10.9816 0.512168 25.163
5061174 3.28696 8.77088 3.75569 9.41222 11.0408 0.660084 25.2257
5061197 3.21739 8.7522 3.78708 9.49642 11.1315 0.780444 25.2531
5061206 3.2 8.61209 3.89169 9.6087 10.9917 1.00047 25.3125
5061234 3.2 8.61209 3.89169 9.6087 10.9917 1.00047 25.3125
5061235 3.23478 8.58407 3.90215 9.75839 10.9947 1.08423 25.4794
5061236 3.23478 8.58407 3.90215 9.75839 10.9947 1.08423 25.4794
5061245 3.15652 8.48132 3.92308 9.66483 10.9675 1.15957 25.2257
5061270 3.24348 8.37857 4.01723 9.70226 10.6743 1.2415 25.3415
5061275 3.2087 8.25714 3.99631 9.70226 10.6841 1.33088 25.1644
5061286 3.26957 8.07033 4.09046 9.73032 10.374 1.47903 25.1607
5061307 3.32174 7.95824 4.13231 9.53385 10.0597 1.4348 24.9461
5061317 3.32174 7.95824 4.18462 9.53385 9.98636 1.46318 24.9984
5061346 3.37391 7.85549 4.18462 9.43093 9.78861 1.44062 24.845
5061348 3.56522 7.76209 4.36246 9.29059 9.13218 1.39655 24.9804
5061358 3.8 7.70604 4.77046 9.1596 8.15296 1.42948 25.4361
5061382 4.13913 7.6033 5.91077 8.99119 6.14068 1.77872 26.6444
5061383 4.13913 7.6033 5.91077 8.99119 6.14068 1.77872 26.6444
5061388 4.72174 7.42582 7.26031 8.52339 3.55083 1.95272 27.9313
5061398 4.72174 7.42582 7.26031 8.52339 3.55083 1.95272 27.9313
5061419 5.09565 7.08022 8.00308 7.60649 1.42879 1.85369 27.7854
5061420 5.28696 6.59451 8.32738 6.64282 -0.351019 1.72545 26.8517
5061428 5.28696 6.59451 8.32738 6.64282 -0.351019 1.72545 26.8517
5061457 5.52174 6.13681 8.73538 5.75399 -2.26244 1.62393 26.1479
5061458 5.73043 5.75385 9.18523 4.97744 -4.07884 1.56649 25.6469
5061459 5.73043 5.75385 9.18523 4.97744 -4.07884 1.56649 25.6469
5061468 5.96522 5.45495 9.55138 4.49092 -5.46956 1.54471 25.4625
5061495 5.96522 5.45495 9.55138 4.49092 -5.46956 1.54471 25.4625
5061496 6.14783 5.10934 9.95938 4.11668 -6.79068 1.66909 25.3332
5061498 6.4 4.96923 10.2942 3.83599 -7.73443 1.62411 25.4994
5061508 6.4 4.96923 10.2942 3.83599 -7.73443 1.62411 25.4994
5061533 6.6 4.81978 10.5557 3.69565 -8.41438 1.65452 25.6711
5061534 6.81739 4.60495 10.6708 3.54595 -9.10453 1.63484 25.6391
5061539 6.81739 4.60495 10.6708 3.54595 -9.10453 1.63484 25.6391
5061548 6.91304 4.5022 10.4929 3.43368 -9.34234 1.48649 25.3418
5061572 6.91304 4.5022 10.4929 3.43368 -9.34234 1.48649 25.3418
5061573 6.96522 4.49286 10.0954 3.28398 -9.34452 1.16032 24.8374
5061578 7.08696 4.60495 9.85477 3.18107 -9.25652 0.815238 24.7277
5061609 7.21739 4.72637 9.71877 3.19978 -9.0599 0.588108 24.8623
5061610 7.25217 4.8478 9.73969 3.22785 -8.8922 0.519136 25.0675
5061618 7.25217 4.8478 9.73969 3.22785 -8.8922 0.519136 25.0675
5061647 7.35652 4.85714 9.83385 3.24656 -8.98102 0.513997 25.2941
5061650 7.27826 4.71703 10.0954 3.28398 -9.23424 0.818183 25.3747
5061659 7.26957 4.60495 10.472 3.22785 -9.68624 1.07061 25.5744
5061688 7.26957 4.60495 10.472 3.22785 -9.68624 1.07061 25.5744
5061690 7.1913 4.21264 10.744 3.08751 -10.5359 1.44295 25.2354
5061691 7.17391 3.9044 11.152 3.05944 -11.2319 1.85834 25.2897
5061727 7.18261 3.64286 11.4868 2.93781 -11.969 2.13808 25.25
5061728 7.18261 3.64286 11.4868 2.93781 -11.969 2.13808 25.25
5061729 7.16522 3.33462 11.8215 2.92845 -12.5978 2.52486 25.2498
5061742 7.12174 3.1011 12.2295 2.88167 -13.1922 2.89435 25.3341
