8207716 9.29275 15.3055 17.0295 34 7.59749 5.24237 75.6278
8207725 9.29275 15.3055 17.0295 34 7.59749 5.24237 75.6278
8207729 9.03731 15.7107 16.4801 34 8.03998 5.13081 75.2281
8207742 9.03731 15.7107 16.4801 34 8.03998 5.13081 75.2281
8207749 8.73782 16.0607 16.0954 34 8.42106 5.06655 74.8939
8207761 8.53523 16.558 15.7731 34 8.76551 4.94479 74.8663
8207769 8.53523 16.558 15.7731 34 8.76551 4.94479 74.8663
8207781 8.27979 16.9632 15.3052 34 9.18137 4.84162 74.5482
8207790 8.12124 17.1653 15.0557 34 9.41202 4.79588 74.3422
8207801 8.12124 17.1653 15.0557 34 9.41202 4.79588 74.3422
8207809 7.9715 17.4376 14.7541 34 9.67865 4.72167 74.1633
8207820 7.9715 17.4376 14.7541 34 9.67865 4.72167 74.1633
8207829 7.79534 17.5349 14.5566 34 9.87422 4.71525 73.8868
8207840 7.68964 17.7002 14.3486 34 10.0565 4.67031 73.7385
8207849 7.68964 17.7002 14.3486 34 10.0565 4.67031 73.7385
8207859 7.61917 17.8558 14.2239 34 10.1809 4.6301 73.6989
8207870 7.62798 17.9142 14.0991 34 10.248 4.59462 73.6413
8207880 7.62798 17.9142 14.0991 34 10.248 4.59462 73.6413
8207891 7.61917 18.0406 14.1199 34 10.2676 4.56632 73.7797
8207901 7.61917 18.0406 14.1199 34 10.2676 4.56632 73.7797
8207911 7.63679 18.1768 14.0783 34 10.3062 4.51973 73.8918
8207921 7.72487 18.2254 14.0783 34 10.2738 4.48368 74.0286
8207936 7.72487 18.2254 14.0783 34 10.2738 4.48368 74.0286
8207944 7.82176 18.3907 13.9847 34 10.3051 4.40156 74.1972
8207953 7.89223 18.488 14.0783 34 10.2465 4.37117 74.4585
8207961 7.89223 18.488 14.0783 34 10.2465 4.37117 74.4585
8207971 7.95389 18.5463 14.0367 34 10.2485 4.33405 74.5369
8207981 7.95389 18.5463 14.0367 34 10.2485 4.33405 74.5369
8207991 8.10363 18.6436 13.9743 34 10.2265 4.26124 74.7215
8208002 8.15648 18.8089 13.9223 34 10.2587 4.19767 74.8877
8208012 8.15648 18.8089 13.9223 34 10.2587 4.19767 74.8877
8208022 8.20052 18.7895 13.8703 34 10.2586 4.18386 74.8603
8208032 8.24456 18.877 13.8495 34 10.2649 4.14719 74.9711
8208042 8.24456 18.877 13.8495 34 10.2649 4.14719 74.9711
8208053 8.36788 18.9937 13.8807 34 10.2154 4.09061 75.2423
8208063 8.36788 18.9937 13.8807 34 10.2154 4.09061 75.2423
8208072 8.37668 18.9062 13.8495 34 10.2086 4.10609 75.1324
8208083 8.38549 18.7992 13.9535 34 10.1347 4.14612 75.1382
8208092 8.38549 18.7992 13.9535 34 10.1347 4.14612 75.1382
8208105 8.45596 18.7506 14.0991 34 10.0243 4.16155 75.3056
8208112 8.42953 18.5755 14.1615 34 9.97269 4.22191 75.1665
8208122 8.42953 18.5755 14.1615 34 9.97269 4.22191 75.1665
8208132 8.43834 18.4394 14.3174 34 9.86885 4.27682 75.1951
8208152 8.41192 18.1768 14.5046 34 9.74131 4.37773 75.0933
8208163 8.36788 18.0698 14.5774 34 9.70624 4.42705 75.015
8208186 8.3943 17.8656 14.7437 34 9.57539 4.49656 75.0036
8208193 8.34145 17.7683 14.9309 34 9.49351 4.56175 75.0406
8208208 8.34145 17.7683 14.9309 34 9.49351 4.56175 75.0406
8208213 8.42073 17.6905 15.0245 34 9.3981 4.57437 75.1357
8208228 8.42073 17.6905 15.0245 34 9.3981 4.57437 75.1357
8208233 8.38549 17.5543 15.2012 34 9.30504 4.64354 75.1411
8208243 8.42953 17.4376 15.4404 33.9805 9.14762 4.69272 75.2881
8208253 8.42953 17.4376 15.4404 33.9805 9.14762 4.69272 75.2881
8208264 8.52642 17.2529 15.7627 33.8441 8.89019 4.7411 75.3861
8208273 8.64974 17.0292 16.1994 33.659 8.55176 4.8015 75.5373
8208284 8.64974 17.0292 16.1994 33.659 8.55176 4.8015 75.5373
8208293 8.78187 16.825 16.6985 33.5129 8.19644 4.86779 75.8183
8208306 8.78187 16.825 16.6985 33.5129 8.19644 4.86779 75.8183
8208313 8.86114 16.5395 17.187 33.2596 7.82855 4.95323 75.8473
8208323 8.97565 16.2356 17.6792 33.1427 7.47156 5.05252 76.0332
8208333 8.97565 16.2356 17.6792 33.1427 7.47156 5.05252 76.0332
8208343 9.12539 16.0054 18.2009 32.8212 7.05827 5.09987 76.1529
8208353 9.2487 15.5542 18.8703 32.3731 6.51191 5.21534 76.0462
8208364 9.2487 15.5542 18.8703 32.3731 6.51191 5.21534 76.0462
8208373 9.48653 15.1306 19.579 31.7691 5.86915 5.27827 75.9652
8208383 9.48653 15.1306 19.579 31.7691 5.86915 5.27827 75.9652
8208393 9.79482 14.7069 20.3961 30.941 5.09536 5.3077 75.8388
8208403 10.0855 14.2096 21.4395 30.0057 4.18878 5.37694 75.7404
8208413 10.0855 14.2096 21.4395 30.0057 4.18878 5.37694 75.7404
8208423 10.5611 13.6939 22.6109 28.7295 3.05952 5.37439 75.5955
8208433 10.5611 13.6939 22.6109 28.7295 3.05952 5.37439 75.5955
8208443 11.0808 13.169 24.0087 27.2974 1.77912 5.37143 75.556
8208453 11.6886 12.5981 25.5345 25.8166 0.393856 5.36725 75.6377
8208463 11.6886 12.5981 25.5345 25.8166 0.393856 5.36725 75.6377
8208473 12.2171 11.9442 27.1094 24.3748 -0.99396 5.41795 75.6455
8208483 12.772 11.3824 28.714 23.1083 -2.30176 5.46242 75.9767
8208505 13.371 10.8852 29.9641 21.91 -3.46114 5.44159 76.1303
8208514 13.371 10.8852 29.9641 21.91 -3.46114 5.44159 76.1303
8208525 13.7409 10.3602 31.0174 20.7994 -4.47807 5.4761 75.918
8208534 14.0492 9.96425 31.9033 19.835 -5.33101 5.48993 75.7517
8208544 14.0492 9.96425 31.9033 19.835 -5.33101 5.48993 75.7517
8208554 14.3663 9.63272 32.7203 18.9582 -6.11006 5.48633 75.6775
8208565 14.6306 9.39328 33.3897 18.1203 -6.78723 5.45838 75.5339
8208582 14.6306 9.39328 33.3897 18.1203 -6.78723 5.45838 75.5339
8208593 14.9124 9.2091 33.9705 17.341 -7.40155 5.40677 75.433
8208602 14.9124 9.2091 33.9705 17.341 -7.40155 5.40677 75.433
8208606 15.1855 9.06176 34 16.5717 -7.86969 5.27763 74.8189
8208616 15.4762 8.71181 34 15.9244 -8.37915 5.20894 74.1124
8208628 15.4762 8.71181 34 15.9244 -8.37915 5.20894 74.1124
8208636 15.7492 8.43554 34 15.2486 -8.87372 5.11971 73.4334
8208646 16.0047 8.10401 34 14.5347 -9.4179 5.04369 72.6434
8208656 16.0047 8.10401 34 14.5347 -9.4179 5.04369 72.6434
8208666 16.1456 7.84615 34 13.916 -9.868 4.99062 71.9078
8208676 16.1456 7.84615 34 13.916 -9.868 4.99062 71.9078
8208686 16.2953 7.43174 34 13.4591 -10.3266 5.0007 71.1862
8208696 16.3922 7.19231 34 13.0498 -10.6712 4.98312 70.6344
8208706 16.3922 7.19231 34 13.0498 -10.6712 4.98312 70.6344
8208718 16.5508 7.00813 34 12.6976 -10.9758 4.9402 70.2566
8208726 16.6917 6.72264 34 12.2312 -11.3926 4.91421 69.6456
8208737 16.6917 6.72264 34 12.2312 -11.3926 4.91421 69.6456
8208746 16.8415 6.56609 34 11.8315 -11.7145 4.85794 69.239
8208759 16.8415 6.56609 34 11.8315 -11.7145 4.85794 69.239
8208767 16.9383 6.3727 34 11.6601 -11.9273 4.86053 68.9712
8208777 17.1794 6.32665 34 11.4793 -12.0944 4.77781 68.9853
8208787 17.1794 6.32665 34 11.4793 -12.0944 4.77781 68.9853
8208797 17.279 6.16089 34 11.2604 -12.3208 4.76427 68.7003
8208807 17.4982 6.0688 34 11.2223 -12.4319 4.72208 68.7893
8208817 17.4982 6.0688 34 11.2223 -12.4319 4.72208 68.7893
8208827 17.7474 6.12405 34 11.1271 -12.4989 4.6209 68.9985
8208839 17.7474 6.12405 34 11.1271 -12.4989 4.6209 68.9985
8208847 17.7374 6.04117 34 11.0414 -12.5889 4.63445 68.82
8208857 17.9467 6.05038 34 10.9843 -12.6527 4.56369 68.9814
8208878 18.0563 6.03196 34 10.8891 -12.7343 4.52342 68.9774
8208888 18.1958 6.03196 34 10.8415 -12.7851 4.47677 69.0693
8208898 18.1958 6.03196 34 10.8415 -12.7851 4.47677 69.0693
8208912 18.415 6.12405 34 10.794 -12.7995 4.38209 69.333
8208918 18.415 6.12405 34 10.794 -12.7995 4.38209 69.333
8208928 18.5944 6.22535 34 10.7464 -12.8017 4.29663 69.5661
8208938 18.8435 6.31744 34 10.7273 -12.8057 4.1995 69.8883
8208958 19.0428 6.43716 34 10.5941 -12.8477 4.09156 70.074
8208968 19.1823 6.54767 34 10.6797 -12.7663 4.03704 70.4097
8208978 19.1823 6.54767 34 10.6797 -12.7663 4.03704 70.4097
8208988 19.2919 6.69502 34 10.7559 -12.666 3.97969 70.7428
8208999 19.2919 6.69502 34 10.7559 -12.666 3.97969 70.7428
8209008 19.3617 6.80553 34 10.832 -12.5791 3.94332 70.9992
8209018 19.4713 6.89762 34 10.8796 -12.5245 3.89708 71.2485
8209028 19.4713 6.89762 34 10.8796 -12.5245 3.89708 71.2485
8209038 19.5111 7.00813 34 10.9462 -12.4384 3.86767 71.4655
8209048 19.541 6.9805 34 10.9748 -12.4432 3.87151 71.4963
8209059 19.541 6.9805 34 10.9748 -12.4432 3.87151 71.4963
8209069 19.4713 6.96208 34 10.9938 -12.4306 3.89778 71.4272
8209079 19.4713 6.96208 34 10.9938 -12.4306 3.89778 71.4272
8209089 19.4314 7.07259 34 11.0319 -12.3459 3.88502 71.5359
8209099 19.3617 7.11863 34 11.1937 -12.2252 3.91636 71.674
8209110 19.3617 7.11863 34 11.1937 -12.2252 3.91636 71.674
8209119 19.3218 7.10022 34 11.2128 -12.2178 3.9347 71.6348
8209129 19.1624 7.05417 34 11.3746 -12.1292 4.01405 71.5911
8209149 19.0428 7.11863 34 11.5364 -11.9905 4.05346 71.6978
8209162 19.0428 7.11863 34 11.5364 -11.9905 4.05346 71.6978
8209169 18.8435 7.12784 34 11.7077 -11.8612 4.13016 71.6791
8209179 18.6741 7.19231 34 11.9457 -11.6749 4.19413 71.8121
8209189 18.6741 7.19231 34 11.9457 -11.6749 4.19413 71.8121
8209199 18.5645 7.16468 34 12.117 -11.5813 4.25657 71.8462
8209209 18.3253 7.15547 34 12.355 -11.4201 4.35873 71.8358
8209227 18.3253 7.15547 34 12.355 -11.4201 4.35873 71.8358
8209236 18.1161 7.21993 34 12.6596 -11.1939 4.44269 71.9956
8209241 18.1161 7.21993 34 12.6596 -11.1939 4.44269 71.9956
8209251 17.8669 7.24756 34 12.9832 -10.9699 4.54981 72.0977
8209263 17.6278 7.35807 34 13.3639 -10.6793 4.63956 72.3498
8209271 17.6278 7.35807 34 13.3639 -10.6793 4.63956 72.3498
8209281 17.3189 7.52384 34 13.7637 -10.3405 4.73533 72.6064
8209291 17.01 7.60672 34 14.2968 -9.97981 4.87154 72.9134
8209300 17.01 7.60672 34 14.2968 -9.97981 4.87154 72.9134
8209311 16.8238 7.73564 34 14.8203 -9.6307 4.9593 73.3797
8209321 16.8238 7.73564 34 14.8203 -9.6307 4.9593 73.3797
8209331 16.6124 7.95666 34 15.477 -9.17628 5.04576 74.0461
8209340 16.401 8.23294 34 16.1624 -8.69218 5.11958 74.7963
8209351 16.401 8.23294 34 16.1624 -8.69218 5.11958 74.7963
8209361 16.1984 8.52763 34 16.8382 -8.21573 5.18343 75.5643
8209373 15.9166 8.52763 33.0845 17.6917 -7.57168 5.25097 75.2204
8209383 15.9166 8.88678 33.0845 17.6917 -7.4169 5.15474 75.5796
8209392 15.6171 9.30119 32.1297 18.6367 -6.54324 5.12285 75.6847
8209403 15.6171 9.30119 32.1297 18.6367 -6.54324 5.12285 75.6847
8209412 15.2736 9.66956 30.8402 19.5232 -5.61737 5.06336 75.3065
8209422 14.9124 10.2313 29.6294 20.7702 -4.48098 5.01484 75.5434
8209432 14.9124 10.2313 29.6294 20.7702 -4.48098 5.01484 75.5434
8209442 14.4456 10.7194 28.3399 21.9295 -3.35941 4.99197 75.4344
8209454 14.4456 10.7194 28.3399 21.9295 -3.35941 4.99197 75.4344
8209464 13.9083 11.1983 26.8437 23.4201 -2.0345 5.00671 75.3703
8209474 13.3446 11.7969 25.5049 24.8034 -0.745259 5.00338 75.4498
8209482 13.3446 11.7969 25.5049 24.8034 -0.745259 5.00338 75.4498
8209494 12.8689 12.3218 24.1563 26.1966 0.494114 4.99623 75.5436
8209502 12.3756 12.773 22.9751 27.6092 1.66092 5.03789 75.7329
8209515 12.3756 12.773 22.9751 27.6092 1.66092 5.03789 75.7329
8209522 11.9176 13.1414 21.9218 28.9341 2.71226 5.0972 75.9149
8209532 11.9176 13.1414 21.9218 28.9341 2.71226 5.0972 75.9149
8209542 11.3803 13.4269 20.8981 30.035 3.69138 5.17411 75.7402
8209552 10.9135 13.8229 20.0023 31.0676 4.60868 5.2107 75.8063
8209562 10.9135 13.8229 20.0023 31.0676 4.60868 5.2107 75.8063
8209573 10.5523 14.2741 19.1065 31.847 5.43093 5.17164 75.78
8209582 10.1648 14.6241 18.4864 32.5484 6.10671 5.19218 75.8236
8209592 10.1648 14.6241 18.4864 32.5484 6.10671 5.19218 75.8236
8209604 9.86528 14.9924 17.758 33.2011 6.7829 5.16404 75.8168
8209612 9.86528 14.9924 17.758 33.2011 6.7829 5.16404 75.8168
8209624 9.54819 15.2871 17.1969 33.5616 7.31001 5.14391 75.5938
8209632 9.3456 15.6555 16.6465 33.9903 7.81806 5.0839 75.6378
8209642 9.3456 15.6555 16.6465 33.9903 7.81806 5.0839 75.6378
8209652 9.07254 15.9502 16.1786 34 8.21097 5.01771 75.2013
8209662 8.85233 16.162 15.8771 34 8.48982 4.97977 74.8914
8209674 8.85233 16.162 15.8771 34 8.48982 4.97977 74.8914
8209682 8.58808 16.2449 15.6379 34 8.73458 4.99625 74.4709
8209693 8.58808 16.2449 15.6379 34 8.73458 4.99625 74.4709
8209702 8.3943 16.2449 15.4404 34 8.91278 5.02188 74.0795
8209715 8.25337 16.3922 15.2948 34 9.07624 5.0005 73.9404
8209722 8.25337 16.3922 15.2948 34 9.07624 5.0005 73.9404
8209732 7.99793 16.4475 15.1596 34 9.26904 5.03653 73.605
8209742 7.99793 16.4475 15.1596 34 9.26904 5.03653 73.605
8209752 7.84819 16.4567 15.0037 34 9.41392 5.05374 73.3085
8209762 7.74249 16.558 14.9725 34 9.49976 5.05071 73.2729
8209772 7.74249 16.558 14.9725 34 9.49976 5.05071 73.2729
8209783 7.6544 16.6501 14.7437 34 9.66893 5.01846 73.0482
8209792 7.58394 16.779 14.5046 34 9.84336 4.96963 72.8675
8209802 7.58394 16.779 14.5046 34 9.84336 4.96963 72.8675
8209812 7.51347 17.1945 14.3382 34 10.0426 4.85246 73.0462
8209822 7.51347 17.1945 14.3382 34 10.0426 4.85246 73.0462
8209833 7.49585 17.496 14.1199 34 10.2173 4.74507 73.1117
8209843 7.41658 17.7683 14.0055 34 10.3655 4.67697 73.1904
8209858 7.41658 17.7683 14.0055 34 10.3655 4.67697 73.1904
8209867 7.42539 17.9725 13.8599 34 10.4723 4.59924 73.2579
8209876 7.37254 18.1865 13.8391 34 10.5503 4.55327 73.3982
8209893 7.31969 18.274 13.7976 34 10.6132 4.53811 73.3913
8209906 7.31969 18.274 13.7976 34 10.6132 4.53811 73.3913
8209913 7.28446 18.381 13.704 34 10.6967 4.50566 73.3694
8209928 7.24922 18.4783 13.6416 34 10.7632 4.48025 73.3691
8209933 7.24922 18.4783 13.6416 34 10.7632 4.48025 73.3691
8209943 7.21399 18.7117 13.4336 34 10.9271 4.3978 73.3593
8209954 7.24041 18.8576 13.4648 34 10.9268 4.35686 73.5628
8209963 7.24041 18.8576 13.4648 34 10.9268 4.35686 73.5628
8209976 7.23161 19.1882 13.2257 34 11.111 4.23771 73.6455
8209983 7.23161 19.1882 13.2257 34 11.111 4.23771 73.6455
8210001 7.3285 19.3924 13.2153 34 11.1071 4.15784 73.9362
8210006 7.42539 19.5967 13.1425 34 11.1336 4.06942 74.1646
8210013 7.42539 19.5967 13.1425 34 11.1336 4.06942 74.1646
8210024 7.46062 19.7815 13.1113 34 11.1661 4.0084 74.3534
8210033 7.48705 19.9273 13.1009 34 11.1854 3.96292 74.5153
8210048 7.48705 19.9273 13.1009 34 11.1854 3.96292 74.5153
8210053 7.52228 19.9176 13.2049 34 11.1161 3.97181 74.6448
8210063 7.52228 19.9176 13.2049 34 11.1161 3.97181 74.6448
8210073 7.51347 19.9273 13.2985 34 11.077 3.98538 74.7393
8210083 7.53109 19.7231 13.5064 34 10.9301 4.06341 74.7606
8210106 7.60155 19.5772 13.704 34 10.7741 4.11147 74.8828
8210123 7.60155 19.373 13.8599 34 10.6607 4.18632 74.8345
8210133 7.80414 19.266 14.0679 34 10.4454 4.19183 75.1381
8210147 7.80414 19.266 14.0679 34 10.4454 4.19183 75.1381
8210153 7.84819 19.1396 14.3278 34 10.2779 4.25013 75.3156
8210163 7.98912 18.9354 14.515 34 10.0847 4.29295 75.4395
8210185 8.0772 18.7603 14.7853 34 9.88385 4.35341 75.6228
8210196 8.0772 18.7603 14.7853 34 9.88385 4.35341 75.6228
8210206 8.15648 18.4491 15.0453 34 9.66525 4.44933 75.6508
8210219 8.29741 18.1962 15.3052 33.8831 9.40671 4.49803 75.6819
8210224 8.29741 18.1962 15.3052 33.8831 9.40671 4.49803 75.6819
8210235 8.35026 17.8072 15.6795 33.5908 9.07101 4.59636 75.4278
8210245 8.51762 17.496 16.1266 33.2499 8.65552 4.64839 75.3901
8210255 8.51762 17.496 16.1266 33.2499 8.65552 4.64839 75.3901
8210267 8.66736 17.1264 16.6465 32.9381 8.20882 4.73428 75.3784
8210274 8.66736 17.1264 16.6465 32.9381 8.20882 4.73428 75.3784
8210288 8.79067 16.6224 17.315 32.753 7.70715 4.89955 75.4811
8210294 9.00207 16.0791 18.073 32.5582 7.11979 5.06192 75.7123
8210305 9.00207 16.0791 18.073 32.5582 7.11979 5.06192 75.7123
8210315 9.30155 15.591 18.9097 32.2659 6.45661 5.18279 76.0681
8210325 9.47772 15.0385 19.7956 31.7496 5.75677 5.33036 76.0614
8210334 9.47772 15.0385 19.7956 31.7496 5.75677 5.33036 76.0614
8210345 9.75078 14.5135 20.7307 31.1943 4.9962 5.44578 76.1893
8210355 9.75078 14.5135 20.7307 31.1943 4.9962 5.44578 76.1893
8210364 9.99741 14.007 21.7151 30.3759 4.16268 5.53645 76.0955
8210374 10.2969 13.4361 22.7881 29.4309 3.21982 5.6258 75.952
8210385 10.2969 13.4361 22.7881 29.4309 3.21982 5.6258 75.952
8210395 10.7109 12.8927 24.0579 28.3885 2.14086 5.68891 76.0501
8210404 11.1073 12.2113 25.3868 27.2487 0.976223 5.78975 75.954
8210416 11.1073 12.2113 25.3868 27.2487 0.976223 5.78975 75.954
8210425 11.5741 11.6311 27.0405 25.8751 -0.364046 5.85459 76.1208
8210436 11.5741 11.6311 27.0405 25.8751 -0.364046 5.85459 76.1208
8210446 12.1114 10.968 28.8813 24.365 -1.85377 5.92858 76.3258
8210457 12.6839 10.1853 30.7516 22.6797 -3.46348 6.00823 76.3005
8210478 13.1067 9.49458 32.6022 21.0332 -4.97828 6.10613 76.2368
8210486 13.3974 8.77627 34 19.3576 -6.37602 6.19291 75.5313
8210514 13.3974 8.77627 34 19.3576 -6.37602 6.19291 75.5313
8210515 13.7409 8.18689 34 17.8378 -7.35987 6.0821 73.7656
8210524 13.7409 8.18689 34 17.8378 -7.35987 6.0821 73.7656
8210527 14.0316 7.63434 34 16.5907 -8.2368 6.00459 72.2567
8210537 14.3047 7.1831 34 15.5246 -9.01143 5.92225 71.0124
8210547 14.3047 7.1831 34 15.5246 -9.01143 5.92225 71.0124
8210557 14.6658 6.85157 34 14.687 -9.66009 5.80512 70.2044
8210570 15.0093 6.60293 34 14.0207 -10.1912 5.68879 69.633
8210577 15.0093 6.60293 34 14.0207 -10.1912 5.68879 69.633
8210587 15.3352 6.46479 34 13.5162 -10.5871 5.56497 69.3163
8210597 15.3352 6.46479 34 13.5162 -10.5871 5.56497 69.3163
8210607 15.5819 6.30823 34 13.2307 -10.8661 5.4992 69.1208
8210617 15.8109 6.26219 34 12.9261 -11.0953 5.4029 68.9992
8210639 16.1192 6.23456 34 12.6881 -11.2962 5.28688 69.0419
8210648 16.2953 6.09642 34 12.4597 -11.5245 5.24345 68.8514
8210668 16.4715 6.16089 34 12.2408 -11.6409 5.14171 68.8732
8210681 16.4715 6.16089 34 12.2408 -11.6409 5.14171 68.8732
8210688 16.5684 6.15168 34 12.0218 -11.7813 5.08462 68.7419
8210698 16.7534 6.12405 34 11.8505 -11.9234 5.01392 68.7279
8210719 16.8855 6.19772 34 11.5649 -12.0625 4.91238 68.6482
8210729 17.1196 6.1701 34 11.3651 -12.2295 4.82313 68.6547
8210739 17.1196 6.1701 34 11.3651 -12.2295 4.82313 68.6547
8210749 17.2989 6.11484 34 11.2413 -12.3599 4.76896 68.6551
8210769 17.568 6.0688 34 10.9653 -12.5849 4.66352 68.6021
8210779 17.8769 6.07801 34 10.9177 -12.6615 4.56556 68.8726
8210789 17.8769 6.07801 34 10.9177 -12.6615 4.56556 68.8726
8210799 18.2356 6.19772 34 10.7844 -12.7328 4.41023 69.2178
8210810 18.4748 6.21614 34 10.6892 -12.8168 4.32364 69.3802
8210819 18.4748 6.21614 34 10.6892 -12.8168 4.32364 69.3802
8210831 18.7239 6.23456 34 10.6036 -12.897 4.23617 69.5621
8210852 18.9332 6.25298 34 10.5179 -12.9699 4.16011 69.7041
8210861 18.9631 6.28061 34 10.4703 -12.986 4.1369 69.714
8210875 18.9631 6.28061 34 10.4703 -12.986 4.1369 69.714
8210881 19.0229 6.21614 34 10.5179 -13.0054 4.14559 69.7569
8210891 19.1026 6.26219 34 10.5084 -12.9993 4.10965 69.8732
8210901 19.1026 6.26219 34 10.5084 -12.9993 4.10965 69.8732
8210911 19.1325 6.35428 34 10.4608 -12.9802 4.06892 69.9476
8210921 19.1325 6.35428 34 10.4608 -12.9802 4.06892 69.9476
8210931 19.1923 6.23456 34 10.4418 -13.0659 4.08229 69.8686
8210942 19.2421 6.33586 34 10.4323 -13.0245 4.03962 70.0102
8210951 19.2421 6.33586 34 10.4323 -13.0245 4.03962 70.0102
8210962 19.3417 6.49242 34 10.4513 -12.9465 3.97318 70.2854
8210971 19.4414 6.49242 34 10.3751 -13.0047 3.93435 70.3089
8210981 19.4414 6.49242 34 10.3751 -13.0047 3.93435 70.3089
8210991 19.541 6.55688 34 10.4132 -12.9664 3.89626 70.5111
8211001 19.541 6.55688 34 10.4132 -12.9664 3.89626 70.5111
8211010 19.6606 6.63976 34 10.3561 -12.9729 3.83314 70.6565
8211021 19.82 6.7779 34 10.4323 -12.8853 3.76621 71.0302
8211031 19.82 6.7779 34 10.4323 -12.8853 3.76621 71.0302
8211040 19.8499 6.93445 34 10.4132 -12.8172 3.71406 71.1976
8211052 20.0094 7.05417 34 10.4227 -12.776 3.64249 71.4863
8211061 20.0094 7.05417 34 10.4227 -12.776 3.64249 71.4863
8211073 20.1389 7.20152 34 10.4227 -12.7205 3.57056 71.7632
8211081 20.1389 7.20152 34 10.4227 -12.7205 3.57056 71.7632
8211091 20.2087 7.40412 34 10.4037 -12.6363 3.4973 72.0165
8211101 20.2186 7.42254 34 10.4894 -12.5837 3.50369 72.1305
8211111 20.2186 7.42254 34 10.4894 -12.5837 3.50369 72.1305
8211120 20.3382 7.5883 34 10.6321 -12.4443 3.45354 72.5587
8211136 20.3382 7.5883 34 10.6321 -12.4443 3.45354 72.5587
8211145 20.3083 7.67118 34 10.7464 -12.3377 3.45823 72.7259
8211153 20.4578 7.83694 34 10.9558 -12.1723 3.41179 73.2505
8211162 20.4578 7.83694 34 10.9558 -12.1723 3.41179 73.2505
8211172 20.388 7.95666 34 11.1747 -11.9889 3.43379 73.5194
8211184 20.3283 8.06717 34 11.4317 -11.7942 3.46138 73.8271
8211192 20.3283 8.06717 34 11.4317 -11.7942 3.46138 73.8271
8211206 20.2784 8.31582 34 11.841 -11.4602 3.47552 74.4352
8211213 20.2784 8.31582 34 11.841 -11.4602 3.47552 74.4352
8211222 20.2186 8.53684 34 12.1551 -11.1889 3.48408 74.9106
8211232 20.0791 8.74865 34 12.5168 -10.8879 3.52162 75.3446
8211243 20.0791 8.74865 34 12.5168 -10.8879 3.52162 75.3446
8211256 19.9396 9.01571 33.9311 12.9071 -10.5378 3.53912 75.7935
8211263 19.7304 9.24594 33.3503 13.3735 -10.0599 3.51667 75.7001
8211279 19.7304 9.24594 33.3503 13.3735 -10.0599 3.51667 75.7001
8211283 19.4115 9.43933 32.7892 13.8303 -9.58357 3.5316 75.4704
8211292 19.4115 9.43933 32.7892 13.8303 -9.58357 3.5316 75.4704
8211303 19.0528 9.66035 32.1395 14.449 -8.99147 3.56077 75.3017
8211312 18.7638 9.92741 31.5096 15.0011 -8.42559 3.55433 75.2019
8211325 18.7638 9.92741 31.5096 15.0011 -8.42559 3.55433 75.2019
8211332 18.4349 10.1945 30.8205 15.7721 -7.74003 3.58204 75.222
8211342 18.0363 10.4707 30.1118 16.5146 -7.04174 3.61741 75.1334
8211352 18.0363 10.4707 30.1118 16.5146 -7.04174 3.61741 75.1334
8211364 17.7075 10.701 29.3144 17.3605 -6.31315 3.64922 75.0834
8211373 17.7075 10.701 29.3144 17.3605 -6.31315 3.64922 75.0834
8211383 17.1096 10.9957 28.4679 18.4613 -5.37103 3.76305 75.0345
8211393 16.586 11.3272 27.4441 19.6791 -4.33918 3.84014 75.0364
8211403 16.586 11.3272 27.4441 19.6791 -4.33918 3.84014 75.0364
8211414 16.1016 11.7876 26.4204 21.0527 -3.21167 3.89795 75.3623
8211423 15.5907 12.2021 25.3573 22.4069 -2.09743 3.96484 75.5569
8211437 15.5907 12.2021 25.3573 22.4069 -2.09743 3.96484 75.5569
8211443 15.0093 12.6165 24.3335 23.7318 -0.989078 4.05058 75.6911
8211464 14.428 12.9388 23.3393 24.9788 0.0496417 4.15235 75.6849
8211474 13.7497 13.3624 22.3648 26.3524 1.18698 4.27376 75.8294
8211483 13.7497 13.3624 22.3648 26.3524 1.18698 4.27376 75.8294
8211493 13.142 13.6295 21.469 27.463 2.14043 4.39094 75.7035
8211503 12.4373 13.9702 20.6422 28.5736 3.12879 4.52406 75.6233
8211513 12.4373 13.9702 20.6422 28.5736 3.12879 4.52406 75.6233
8211524 11.9088 14.1544 19.9039 29.7232 3.98496 4.6698 75.6903
8211533 11.9088 14.1544 19.9039 29.7232 3.98496 4.6698 75.6903
8211546 11.3803 14.3202 19.2247 30.7851 4.78808 4.81625 75.7102
8211553 10.9663 14.4951 18.703 31.8178 5.47616 4.94707 75.9822
8211563 10.9663 14.4951 18.703 31.8178 5.47616 4.94707 75.9822
8211574 10.5611 14.5412 18.132 32.7822 6.12703 5.09335 76.0166
8211585 10.1472 14.578 17.5611 33.5421 6.72964 5.21798 75.8284
8211594 10.1472 14.578 17.5611 33.5421 6.72964 5.21798 75.8284
8211605 9.81244 14.7161 17.1673 34 7.17884 5.27877 75.6959
8211615 9.81244 14.7161 17.1673 34 7.17884 5.27877 75.6959
8211625 9.4601 14.7069 16.792 34 7.48901 5.32791 74.9591
8211635 9.17824 14.7622 16.4697 34 7.76582 5.34792 74.4101
8211645 9.17824 14.7622 16.4697 34 7.76582 5.34792 74.4101
8211654 9.06373 14.8359 16.2202 34 7.94388 5.32663 74.1198
8211664 9.06373 14.8359 16.2202 34 7.94388 5.32663 74.1198
8211677 8.9228 14.8727 16.085 34 8.0755 5.33758 73.8805
8211704 8.83471 15.0293 15.8459 34 8.25828 5.28733 73.7098
8211708 8.78187 15.2319 15.6171 34 8.43154 5.2159 73.6308
8211714 8.78187 15.3608 15.4196 34 8.55036 5.15419 73.5622
8211724 8.78187 15.3608 15.4196 34 8.55036 5.15419 73.5622
8211734 8.77306 15.6186 15.1908 34 8.71632 5.05537 73.5825
8211746 8.77306 15.6186 15.1908 34 8.71632 5.05537 73.5825
8211754 8.70259 15.7199 15.0245 34 8.8475 5.02443 73.447
8211764 8.56166 15.9686 14.8061 34 9.06808 4.96531 73.3364
8211783 8.56166 15.9686 14.8061 34 9.06808 4.96531 73.3364
8211799 8.49119 16.162 14.5982 34 9.23963 4.90333 73.2513
8211801 8.42953 16.5856 14.3694 34 9.46611 4.77368 73.3845
8211808 8.42953 16.5856 14.3694 34 9.46611 4.77368 73.3845
8211816 8.43834 17.0584 14.0679 34 9.70308 4.60232 73.5646
8211826 8.46477 17.7002 13.7144 34 9.98962 4.37525 73.8794
8211837 8.46477 17.7002 13.7144 34 9.98962 4.37525 73.8794
8211847 8.46477 18.3616 13.496 34 10.226 4.17163 74.3223
8211857 8.46477 18.3616 13.496 34 10.226 4.17163 74.3223
8211867 8.5 19.0132 13.2777 34 10.4409 3.96396 74.7908
8211877 8.51762 19.5286 13.1841 34 10.5765 3.81586 75.2303
8211888 8.51762 19.5286 13.1841 34 10.5765 3.81586 75.2303
8211898 8.47358 19.7912 13.0281 34 10.7213 3.73807 75.2929
8211907 8.47358 19.7912 12.9346 34 10.7657 3.72406 75.1993
8211917 8.36788 20.0732 12.9346 34 10.8692 3.68026 75.3757
8211927 8.35026 20.4331 12.841 34 10.9891 3.58172 75.6243
8211937 8.35026 20.4331 12.841 34 10.9891 3.58172 75.6243
8211947 8.33264 20.647 12.7578 33.8539 11.0497 3.49881 75.5913
8211957 8.33264 20.8999 12.633 33.7175 11.1307 3.39719 75.583
8211967 8.33264 20.8999 12.633 33.7175 11.1307 3.39719 75.583
8211983 8.35907 21.0263 12.581 33.6785 11.1589 3.34606 75.6449
8211989 8.35907 21.0263 12.581 33.6785 11.1589 3.34606 75.6449
8211997 8.33264 21.0944 12.5914 33.737 11.1897 3.34657 75.7554
8212015 8.19171 21.1527 12.6538 33.7857 11.2467 3.38364 75.784
8212018 8.19171 21.1527 12.6538 33.7857 11.2467 3.38364 75.784
8212027 8.1829 21.2111 12.5602 33.8441 11.3169 3.36624 75.7984
8212039 8.06839 21.0749 12.5498 33.9123 11.3646 3.43603 75.6055
8212047 8.06839 21.0749 12.5498 33.9123 11.3646 3.43603 75.6055
8212057 7.9715 21.0847 12.6538 33.9415 11.3682 3.47763 75.6515
8212067 7.9715 21.0847 12.6538 33.9415 11.3682 3.47763 75.6515
8212077 7.93627 21.0555 12.6226 34 11.4054 3.49752 75.6144
8212087 7.89223 21.0166 12.6226 34 11.4197 3.51784 75.5314
8212097 7.89223 21.0166 12.6226 34 11.4197 3.51784 75.5314
8212107 7.90984 20.9291 12.7474 34 11.3353 3.55392 75.5863
8212125 7.82176 20.6665 12.7474 34 11.3302 3.64039 75.2356
8212129 7.82176 20.6665 12.7474 34 11.3302 3.64039 75.2356
8212137 7.81295 20.4914 12.9034 34 11.2273 3.70953 75.2077
8212150 7.81295 20.4914 12.9034 34 11.2273 3.70953 75.2077
8212157 7.84819 20.4233 12.9969 34 11.1528 3.73172 75.2685
8212167 7.78653 20.258 13.1841 34 11.0621 3.81628 75.2286
8212177 7.78653 20.258 13.1841 34 11.0621 3.81628 75.2286
8212202 7.83057 20.1219 13.2361 34 10.9908 3.84706 75.1885
8212205 7.8658 19.9468 13.444 34 10.8419 3.9129 75.2566
8212208 7.8658 19.9468 13.444 34 10.8419 3.9129 75.2566
8212220 7.88342 19.7328 13.6104 33.9708 10.7084 3.9825 75.1974
8212228 7.88342 19.7328 13.6104 33.9708 10.7084 3.9825 75.1974
8212241 7.93627 19.5772 14.0055 33.7564 10.4257 4.03487 75.2755
8212248 8.14767 19.3049 14.3798 33.6103 10.0698 4.0834 75.4427
8212262 8.14767 19.3049 14.3798 33.6103 10.0698 4.0834 75.4427
8212268 8.32383 18.9645 14.8269 33.2986 9.65086 4.14455 75.4138
8212282 8.32383 18.9645 14.8269 33.2986 9.65086 4.14455 75.4138
8212288 8.63212 18.7408 15.378 33.016 9.1553 4.16165 75.767
8212298 8.79948 18.4394 16.1058 32.8894 8.66525 4.28084 76.234
8212308 8.79948 18.4394 16.1058 32.8894 8.66525 4.28084 76.234
8212318 9.04611 17.9725 16.6465 32.49 8.1314 4.35646 76.1551
8212328 9.36321 17.496 17.2855 32.0224 7.50642 4.42093 76.167
8212338 9.36321 17.496 17.2855 32.0224 7.50642 4.42093 76.167
8212348 9.60984 17.0389 17.9155 31.4476 6.89405 4.48239 76.0118
8212358 9.60984 17.0389 17.9155 31.4476 6.89405 4.48239 76.0118
8212369 9.83886 16.4014 18.6242 30.7461 6.17786 4.58866 75.6106
8212378 10.2264 15.7015 19.6184 29.8791 5.21567 4.68732 75.4254
8212390 10.2264 15.7015 19.6184 29.8791 5.21567 4.68732 75.4254
8212411 10.6228 14.9003 20.8882 28.8464 4.06459 4.82572 75.2578
8212412 11.1337 14.1728 22.3648 27.7845 2.80259 4.93855 75.4558
8212419 11.1337 14.1728 22.3648 27.7845 2.80259 4.93855 75.4558
8212430 11.6974 13.3348 24.1957 26.4304 1.27945 5.07424 75.6583
8212446 11.6974 13.3348 24.1957 26.4304 1.27945 5.07424 75.6583
8212452 12.4021 12.4415 26.0857 24.8229 -0.403735 5.16125 75.7522
8212458 13.1684 11.585 28.0544 23.235 -2.105 5.23441 76.0428
8212477 13.1684 11.585 28.0544 23.235 -2.105 5.23441 76.0428
8212481 13.8114 10.8391 29.9739 21.5983 -3.72197 5.29797 76.2227
8212489 14.3223 10.0471 31.7556 20.0006 -5.2644 5.39637 76.1256
8212504 14.3223 10.0471 31.7556 20.0006 -5.2644 5.39637 76.1256
8212510 14.8332 9.44854 33.0747 18.5685 -6.54951 5.40564 75.9249
8212521 14.8332 9.44854 33.0747 18.5685 -6.54951 5.40564 75.9249
8212530 15.2383 8.87757 34 17.3799 -7.60996 5.41699 75.4959
8212539 15.5642 8.50921 34 16.3813 -8.28481 5.3001 74.4548
8212552 15.5642 8.50921 34 16.3813 -8.28481 5.3001 74.4548
8212559 15.8549 8.23294 34 15.5151 -8.86747 5.18197 73.603
8212573 16.1104 7.98429 34 14.8583 -9.34428 5.09171 72.953
8212580 16.1104 7.98429 34 14.8583 -9.34428 5.09171 72.953
8212589 16.4363 7.80932 34 14.2016 -9.80901 4.96003 72.4472
8212601 16.4363 7.80932 34 14.2016 -9.80901 4.96003 72.4472
8212611 16.6301 7.6896 34 13.659 -10.1702 4.86381 71.9787
8212621 16.9383 7.55146 34 13.1926 -10.5306 4.75071 71.6824
8212632 16.9383 7.55146 34 13.1926 -10.5306 4.75071 71.6824
8212643 17.1196 7.40412 34 12.9546 -10.7588 4.70722 71.4783
8212651 17.3089 7.26598 34 12.6691 -11.0093 4.6518 71.244
8212667 17.3089 7.26598 34 12.6691 -11.0093 4.6518 71.244
8212672 17.3986 7.11863 34 12.4502 -11.2128 4.63585 70.9674
8212682 17.3986 7.11863 34 12.4502 -11.2128 4.63585 70.9674
8212693 17.4285 6.98971 34 12.2312 -11.397 4.63126 70.6494
8212704 17.568 6.7779 34 11.9171 -11.6964 4.6051 70.263
8212712 17.568 6.7779 34 11.9171 -11.6964 4.6051 70.263
8212722 17.7374 6.75948 34 11.6411 -11.8826 4.52199 70.138
8212734 17.9367 6.58451 34 11.3746 -12.153 4.47524 69.8958
8212742 17.9367 6.58451 34 11.3746 -12.153 4.47524 69.8958
8212756 18.0662 6.51083 34 11.1271 -12.348 4.42227 69.7042
8212762 18.0662 6.51083 34 11.1271 -12.348 4.42227 69.7042
8212772 18.2755 6.36349 34 10.8987 -12.5879 4.37022 69.5376
8212782 18.6342 6.30823 34 10.7083 -12.7844 4.25677 69.6508
8212792 18.6342 6.30823 34 10.7083 -12.7844 4.25677 69.6508
8212802 18.993 6.23456 34 10.4323 -13.037 4.1354 69.6598
8212812 19.4015 6.22535 34 10.1467 -13.2677 3.98141 69.7736
8212823 19.4015 6.22535 34 10.1467 -13.2677 3.98141 69.7736
8212834 19.84 6.22535 34 10.0039 -13.4191 3.84018 70.0693
8212846 19.84 6.22535 34 10.0039 -13.4191 3.84018 70.0693
8212852 20.1389 6.26219 34 9.88018 -13.5159 3.73053 70.2813
8212862 20.4379 6.23456 34 9.76596 -13.6422 3.6401 70.4384
8212873 20.4379 6.23456 34 9.76596 -13.6422 3.6401 70.4384
8212882 20.7169 6.25298 34 9.62318 -13.7552 3.53859 70.593
8212894 20.956 6.25298 34 9.47088 -13.8767 3.45117 70.6799
8212902 20.956 6.25298 34 9.47088 -13.8767 3.45117 70.6799
8212912 21.2351 6.25298 34 9.38522 -13.9675 3.36457 70.8732
8212923 21.2351 6.25298 34 9.38522 -13.9675 3.36457 70.8732
8212935 21.3945 6.25298 34 9.32811 -14.0236 3.31395 70.9756
8212944 21.5838 6.32665 34 9.30907 -14.0229 3.2432 71.2195
8212952 21.5838 6.32665 34 9.30907 -14.0229 3.2432 71.2195
8212967 21.803 6.32665 34 9.35666 -14.0306 3.19508 71.4864
8212972 21.803 6.32665 34 9.35666 -14.0306 3.19508 71.4864
8212982 21.823 6.38191 34 9.2234 -14.0762 3.1539 71.4283
8212994 21.8728 6.49242 34 9.32811 -13.9665 3.1306 71.6933
8213002 21.8728 6.49242 34 9.32811 -13.9665 3.1306 71.6933
8213015 21.9824 6.48321 34 9.35666 -13.9729 3.10998 71.8223
8213023 22.0821 6.66739 34 9.45185 -13.8373 3.05446 72.2013
8213037 22.0821 6.66739 34 9.45185 -13.8373 3.05446 72.2013
8213043 22.1618 6.68581 34 9.46137 -13.8346 3.03153 72.309
8213063 22.1518 6.71343 34 9.45185 -13.8233 3.02555 72.3171
8213077 22.1817 6.75027 34 9.49944 -13.7827 3.01681 72.4314
8213085 22.1817 6.75027 34 9.49944 -13.7827 3.01681 72.4314
8213093 22.1518 6.84236 34 9.56607 -13.6932 3.01237 72.5602
8213103 22.0621 6.86999 34 9.59462 -13.6493 3.0325 72.5267
8213113 22.0621 6.86999 34 9.59462 -13.6493 3.0325 72.5267
8213124 22.0023 6.95287 34 9.68981 -13.5452 3.04245 72.645
8213133 22.0023 6.95287 34 9.68981 -13.5452 3.04245 72.645
8213145 21.8728 6.99892 34 9.80403 -13.4398 3.08197 72.6758
8213154 21.7632 7.0818 34 10.0801 -13.2332 3.13371 72.9251
8213167 21.7632 7.0818 34 10.0801 -13.2332 3.13371 72.9251
8213173 21.5739 7.20152 34 10.318 -13.0156 3.18962 73.0934
8213183 21.4244 7.33044 34 10.7368 -12.7079 3.26201 73.4917
8213193 21.4244 7.33044 34 10.7368 -12.7079 3.26201 73.4917
8213203 21.2749 7.51463 34 11.1176 -12.3948 3.3139 73.9071
8213214 21.2749 7.51463 34 11.1176 -12.3948 3.3139 73.9071
8213224 21.0358 7.65276 34 11.5459 -12.0689 3.40625 74.2344
8213235 20.8265 7.76327 34 12.0028 -11.7506 3.50163 74.5926
8213244 20.8265 7.76327 34 12.0028 -11.7506 3.50163 74.5926
8213256 20.4478 7.85536 34 12.4311 -11.4276 3.63848 74.7343
8213264 20.1788 7.93824 34 13.0594 -11.0344 3.77958 75.1764
8213279 20.1788 7.93824 34 13.0594 -11.0344 3.77958 75.1764
8213286 19.8001 8.08559 34 13.6114 -10.6306 3.91917 75.4971
8213296 19.8001 8.08559 34 13.6114 -10.6306 3.91917 75.4971
8213306 19.3517 8.28819 33.4389 14.2968 -10.0184 3.99913 75.3756
8213318 19.0528 8.46316 32.8384 15.0011 -9.43094 4.04556 75.3555
8213326 19.0528 8.46316 32.8384 15.0011 -9.43094 4.04556 75.3555
8213338 18.6442 8.79469 32.0608 15.9054 -8.62175 4.0834 75.4051
8213346 18.2057 9.12622 31.2241 16.8953 -7.7561 4.13262 75.4513
8213359 18.2057 9.12622 31.2241 16.8953 -7.7561 4.13262 75.4513
8213366 17.6577 9.37486 30.2693 18.0229 -6.81355 4.23359 75.3247
8213375 17.6577 9.37486 30.2693 18.0229 -6.81355 4.23359 75.3247
8213386 17.1395 9.73402 29.1865 19.3284 -5.72488 4.30596 75.3883
8213395 16.4451 10.1945 28.0347 20.8287 -4.45568 4.41516 75.5029
8213406 16.4451 10.1945 28.0347 20.8287 -4.45568 4.41516 75.5029
8213430 15.7933 10.747 26.5483 22.4946 -3.00994 4.4658 75.5832
8213430 15.0181 11.3456 25.1801 24.2189 -1.52902 4.56067 75.7627
8213438 15.0181 11.3456 25.1801 24.2189 -1.52902 4.56067 75.7627
8213447 14.3311 11.9718 23.7528 25.8069 -0.100553 4.59846 75.8625
8213457 14.3311 11.9718 23.7528 25.8069 -0.100553 4.59846 75.8625
8213468 13.5912 12.5704 22.2762 27.2877 1.31749 4.63561 75.7255
8213477 12.8953 13.1322 21.0753 28.788 2.61874 4.71119 75.8908
8213489 12.8953 13.1322 21.0753 28.788 2.61874 4.71119 75.8908
8213497 12.1642 13.6387 19.9826 30.1616 3.83603 4.80755 75.9472
8213509 11.486 14.1083 18.9195 31.3209 4.95279 4.87496 75.8348
8213518 11.486 14.1083 18.9195 31.3209 4.95279 4.87496 75.8348
8213531 10.9311 14.4583 18.0631 32.188 5.8342 4.93024 75.6405
8213537 10.9311 14.4583 18.0631 32.188 5.8342 4.93024 75.6405
8213547 10.3497 14.7714 17.3347 33.1427 6.68983 5.0311 75.5985
8213560 9.8829 15.0845 16.8336 33.8734 7.3477 5.10204 75.6744
8213568 9.8829 15.0845 16.8336 33.8734 7.3477 5.10204 75.6744
8213589 9.39845 15.3792 16.2514 34 7.90673 5.09277 75.029
8213593 9.05492 15.5265 15.8147 34 8.28569 5.0876 74.3961
8213598 9.05492 15.5265 15.8147 34 8.28569 5.0876 74.3961
8213618 8.76425 15.8212 15.326 34 8.70332 5.02097 73.9115
8213622 8.76425 15.8212 15.326 34 8.70332 5.02097 73.9115
8213628 8.42953 15.9133 15.2116 34 8.92949 5.0715 73.5545
8213647 8.27979 16.0423 15.1076 34 9.07494 5.06313 73.4297
8213650 8.27979 16.0423 15.1076 34 9.07494 5.06313 73.4297
8213658 8.05959 16.1712 14.9413 34 9.28302 5.06556 73.1721
8213669 7.90104 16.2356 14.8165 34 9.43005 5.07445 72.9532
8213680 7.90104 16.2356 14.8165 34 9.43005 5.07445 72.9532
8213696 7.73368 16.2909 14.7229 34 9.56537 5.09262 72.7475
8213722 7.56632 16.3738 14.619 34 9.71226 5.10181 72.5591
8213724 7.37254 16.4659 14.4422 34 9.90969 5.10589 72.2806
8213729 7.37254 16.4659 14.4422 34 9.90969 5.10589 72.2806
8213739 7.21399 16.558 14.3694 34 10.0409 5.11443 72.1414
8213749 7.03782 16.6869 14.2031 34 10.2346 5.10477 71.9278
8213759 7.03782 16.6869 14.2031 34 10.2346 5.10477 71.9278
8213771 6.80881 16.6869 14.0679 34 10.4139 5.15043 71.5636
8213780 6.80881 16.6869 14.0679 34 10.4139 5.15043 71.5636
8213790 6.64145 16.6316 13.9743 34 10.5323 5.20045 71.2474
8213800 6.46528 16.6224 13.9327 34 10.6393 5.24744 71.0204
8213809 6.46528 16.6224 13.9327 34 10.6393 5.24744 71.0204
8213824 6.40363 16.6224 13.9119 34 10.6808 5.26218 70.938
8213829 6.28031 16.6501 13.7976 34 10.8063 5.27384 70.7279
8213850 6.21865 16.8158 13.7352 34 10.9023 5.23545 70.7696
8213859 6.21865 16.8158 13.7352 34 10.9023 5.23545 70.7696
8213874 6.21865 17.0097 13.704 34 10.9566 5.17583 70.9324
8213881 6.21865 17.282 13.5376 34 11.0946 5.07549 71.0383
8213891 6.21865 17.282 13.5376 34 11.0946 5.07549 71.0383
8213901 6.2715 17.6127 13.5272 34 11.1376 4.96622 71.4114
8213911 6.2715 17.9045 13.4648 34 11.2255 4.87618 71.6408
8213931 6.35959 18.1865 13.3713 34 11.2823 4.76071 71.9173
8213941 6.35959 18.1865 13.3713 34 11.2823 4.76071 71.9173
8213951 6.30674 18.5269 13.1945 34 11.4628 4.6567 72.0281
8213961 6.44767 18.877 13.1009 34 11.5044 4.51006 72.4256
8213981 6.4829 19.1688 12.893 34 11.6456 4.39205 72.5446
8213991 6.50933 19.5675 12.7994 34 11.7524 4.26529 72.8762
8214001 6.50933 19.5675 12.7994 34 11.7524 4.26529 72.8762
8214011 6.53575 19.869 12.7162 34 11.8355 4.16668 73.121
8214023 6.53575 19.869 12.7162 34 11.8355 4.16668 73.121
8214037 6.57098 20.1024 12.6538 34 11.8911 4.08725 73.3272
8214043 6.67668 20.2775 12.6018 34 11.8953 4.00668 73.556
8214065 6.72073 20.4914 12.6018 34 11.9113 3.94025 73.814
8214072 6.87047 20.6081 12.6746 34 11.8211 3.88305 74.1532
8214083 6.87047 20.6081 12.6746 34 11.8211 3.88305 74.1532
8214094 6.96736 20.6957 12.6746 34 11.7887 3.8362 74.3376
8214102 6.96736 20.6957 12.6746 34 11.7887 3.8362 74.3376
8214121 7.00259 20.647 12.6122 34 11.7935 3.83022 74.2618
8214124 7.03782 20.6081 12.7994 34 11.6767 3.85923 74.4453
8214132 7.03782 20.6081 12.7994 34 11.6767 3.85923 74.4453
8214145 7.15233 20.6665 12.945 34 11.5595 3.83732 74.7638
8214153 7.3285 20.5109 13.1009 34 11.3695 3.85538 74.9403
8214168 7.3285 20.5109 13.1009 34 11.3695 3.85538 74.9403
8214173 7.58394 20.5303 13.3817 34 11.1147 3.82817 75.4959
8214183 7.58394 20.5303 13.3817 34 11.1147 3.82817 75.4959
8214193 7.8658 20.4233 13.6624 33.7954 10.7894 3.79593 75.7469
8214203 8.14767 20.2386 13.9743 33.3765 10.3955 3.75601 75.737
8214217 8.14767 20.2386 13.9743 33.3765 10.3955 3.75601 75.737
8214223 8.45596 19.976 14.3278 32.8115 9.92562 3.71319 75.5712
8214242 8.84352 19.7328 14.7333 32.3341 9.41587 3.66674 75.6438
8214251 8.84352 19.7328 14.7333 32.3341 9.41587 3.66674 75.6438
8214253 9.16943 19.4703 15.1908 31.6619 8.86575 3.61885 75.4924
8214266 9.16943 19.4703 15.1908 31.6619 8.86575 3.61885 75.4924
8214273 9.52176 19.0812 15.7627 30.9117 8.20582 3.60097 75.2774
8214289 9.90052 18.6436 16.3761 30.1713 7.50359 3.59628 75.0916
8214293 9.90052 18.6436 16.3761 30.1713 7.50359 3.59628 75.0916
8214303 10.3674 18.1281 17.1378 29.4309 6.67892 3.61156 75.0643
8214313 10.8518 18.1281 18.0533 31.1748 6.52038 3.88351 78.208
8214323 10.8518 17.5446 18.0533 28.6808 5.76342 3.66116 75.1305
8214338 11.301 16.8711 19.2148 27.9599 4.74973 3.78303 75.3468
8214347 11.301 16.8711 19.2148 27.9599 4.74973 3.78303 75.3468
8214361 11.7943 16.1988 20.5142 27.1123 3.6375 3.89451 75.6196
8214363 12.4461 15.6002 21.6954 26.216 2.52599 3.92293 75.9578
8214373 12.4461 15.6002 21.6954 26.216 2.52599 3.92293 75.9578
8214383 13.001 14.8911 22.8274 25.1347 1.38335 3.96879 75.8543
8214396 13.001 14.8911 22.8274 25.1347 1.38335 3.96879 75.8543
8214403 13.4415 14.0991 24.1859 23.8585 0.109234 4.06901 75.5849
8214414 14.0492 13.3532 25.8298 22.4946 -1.33085 4.14422 75.7267
8214425 14.0492 13.3532 25.8298 22.4946 -1.33085 4.14422 75.7267
8214433 14.5777 12.5336 27.7001 21.0819 -2.85343 4.28312 75.8933
8214450 15.0886 11.6219 29.5704 19.6401 -4.41148 4.44541 75.921
8214456 15.0886 11.6219 29.5704 19.6401 -4.41148 4.44541 75.921
8214464 15.5202 10.8115 31.1847 18.247 -5.82288 4.57345 75.7634
8214476 15.5202 10.8115 31.1847 18.247 -5.82288 4.57345 75.7634
8214484 15.8549 10.084 32.6514 17.0292 -7.07263 4.70945 75.6195
8214501 16.1984 9.34724 33.9212 15.8959 -8.25228 4.83092 75.3628
8214504 16.1984 9.34724 33.9212 15.8959 -8.25228 4.83092 75.3628
8214515 16.4539 8.79469 34 14.925 -9.0107 4.78804 74.1735
8214527 16.6389 8.28819 34 14.1159 -9.66376 4.76203 73.043
8214534 16.6389 8.28819 34 14.1159 -9.66376 4.76203 73.043
8214552 16.9031 7.8922 34 13.5162 -10.1971 4.71313 72.3115
8214555 16.9031 7.8922 34 13.5162 -10.1971 4.71313 72.3115
8214564 17.1196 7.5883 34 12.9832 -10.6527 4.66069 71.6911
8214575 17.3886 7.27519 34 12.5739 -11.0684 4.61344 71.2377
8214584 17.3886 7.27519 34 12.5739 -11.0684 4.61344 71.2377
8214600 17.6776 7.09101 34 12.1265 -11.4465 4.51891 70.8952
8214606 17.9267 6.93445 34 11.7458 -11.7717 4.4368 70.607
8214616 17.9267 6.93445 34 11.7458 -11.7717 4.4368 70.607
8214626 18.1958 6.86078 34 11.584 -11.9446 4.35885 70.6405
8214636 18.1958 6.86078 34 11.584 -11.9446 4.35885 70.6405
8214653 18.3652 6.97129 34 11.3651 -12.0326 4.24926 70.7015
8214656 18.5545 7.16468 34 11.2508 -12.0258 4.12815 70.97
8214671 18.5545 7.16468 34 11.2508 -12.0258 4.12815 70.97
8214676 18.6741 7.32124 34 11.0414 -12.0752 4.02174 71.0368
8214686 18.7438 7.45937 34 11.0319 -12.021 3.96476 71.2351
8214695 18.7438 7.45937 34 11.0319 -12.021 3.96476 71.2351
8214706 18.7937 7.45937 34 10.9843 -12.0548 3.94413 71.2374
8214721 18.7937 7.45937 34 10.9843 -12.0548 3.94413 71.2374
8214727 18.8236 7.31203 34 10.8796 -12.1917 3.95916 71.0152
8214737 18.7937 7.31203 34 10.7749 -12.2413 3.95085 70.8806
8214748 18.7937 7.31203 34 10.7749 -12.2413 3.95085 70.8806
8214757 18.8435 7.21073 34 10.7178 -12.3336 3.95571 70.772
8214770 18.8734 7.05417 34 10.7178 -12.4217 3.9897 70.6454
8214777 18.8734 7.05417 34 10.7178 -12.4217 3.9897 70.6454
8214787 18.7837 6.95287 34 10.6797 -12.4797 4.03525 70.4163
8214807 18.6542 6.75027 34 10.6321 -12.5905 4.11807 70.0366
8214825 18.3951 6.59372 34 10.6607 -12.6134 4.23662 69.6495
8214829 18.3951 6.59372 34 10.6607 -12.6134 4.23662 69.6495
8214838 18.1758 6.40032 34 10.7464 -12.6327 4.36442 69.3225
8214851 17.9766 6.19772 34 10.6607 -12.7545 4.46425 68.835
8214858 17.9766 6.19772 34 10.6607 -12.7545 4.46425 68.835
8214868 17.8869 6.03196 34 10.7178 -12.7982 4.54545 68.6366
8214878 17.8869 6.03196 34 10.7178 -12.7982 4.54545 68.6366
8214888 17.7274 5.88462 34 10.7559 -12.8302 4.63898 68.3679
8214898 17.5281 5.77411 34 10.9462 -12.7504 4.75703 68.2485
8214909 17.5281 5.77411 34 10.9462 -12.7504 4.75703 68.2485
8214927 17.3787 5.67281 34 10.8987 -12.8062 4.82277 67.9501
8214931 17.2292 5.58072 34 10.9843 -12.7829 4.90626 67.7942
8214957 17.0399 5.51625 34 10.9843 -12.7847 4.98106 67.5404
8214961 17.0399 5.51625 34 10.9843 -12.7847 4.98106 67.5404
8214968 16.8767 5.44258 34 11.07 -12.7484 5.06402 67.3893
8214985 16.7358 5.37811 34 11.0605 -12.7642 5.12397 67.1743
8214994 16.7358 5.37811 34 11.0605 -12.7642 5.12397 67.1743
8215001 16.586 5.35049 34 11.1366 -12.7096 5.1884 67.0731
8215013 16.4539 5.28602 34 11.2128 -12.6788 5.25883 66.9527
8215019 16.4539 5.28602 34 11.2128 -12.6788 5.25883 66.9527
8215029 16.3218 5.35049 34 11.2794 -12.5807 5.289 66.9516
8215040 16.3218 5.35049 34 11.2794 -12.5807 5.289 66.9516
8215051 16.1632 5.32286 34 11.4127 -12.4919 5.36481 66.8987
8215063 16.0663 5.35049 34 11.5554 -12.3784 5.40641 66.9722
8215069 16.0663 5.35049 34 11.5554 -12.3784 5.40641 66.9722
8215079 16.0839 5.43337 34 11.6982 -12.2562 5.39628 67.2155
8215090 15.943 5.50704 34 11.8791 -12.0887 5.44245 67.3291
8215104 15.943 5.50704 34 11.8791 -12.0887 5.44245 67.3291
8215126 15.9166 5.64518 34 12.2217 -11.8206 5.45707 67.7835
8215131 15.8373 5.79252 34 12.5263 -11.5611 5.47929 68.1561
8215141 15.7404 5.87541 34 12.8499 -11.325 5.52848 68.4658
8215161 15.6523 5.99512 34 13.2021 -11.0586 5.5675 68.8496
8215171 15.5378 6.20693 34 13.6876 -10.6735 5.60462 69.4323
8215186 15.5378 6.20693 34 13.6876 -10.6735 5.60462 69.4323
8215192 15.3617 6.44637 34 14.1349 -10.2871 5.64608 69.943
8215212 15.1767 6.63055 34 14.668 -9.88935 5.71706 70.4752
8215215 15.1767 6.63055 34 14.668 -9.88935 5.71706 70.4752
8215225 15.0181 6.7779 34 15.201 -9.52125 5.79003 70.997
8215241 15.0181 6.7779 34 15.201 -9.52125 5.79003 70.997
8215243 14.8155 7.00813 34 15.8197 -9.06843 5.86154 71.6434
8215252 14.5777 7.30282 34 16.4574 -8.57691 5.92571 72.338
8215273 14.5777 7.30282 34 16.4574 -8.57691 5.92571 72.338
8215276 14.3575 7.5883 34 17.1461 -8.07992 5.99252 73.0919
8215283 14.0492 7.85536 34 17.945 -7.53182 6.10167 73.8496
8215299 14.0492 7.85536 34 17.945 -7.53182 6.10167 73.8496
8215303 13.785 8.0948 34 19.0556 -6.88413 6.24054 74.9354
8215313 13.785 8.0948 34 19.0556 -6.88413 6.24054 74.9354
8215326 13.4767 8.31582 33.6948 20.2441 -6.14394 6.36719 75.7315
8215333 13.1244 8.62893 32.5727 21.5885 -5.09769 6.40351 75.9145
8215349 13.1244 8.62893 32.5727 21.5885 -5.09769 6.40351 75.9145
8215353 12.7456 9.01571 31.3521 23.1278 -3.91985 6.43718 76.2412
8215365 12.3492 9.37486 29.9641 24.5794 -2.74006 6.45479 76.2676
8215373 12.3492 9.37486 29.9641 24.5794 -2.74006 6.45479 76.2676
8215383 11.9088 9.90899 28.3399 26.0797 -1.39697 6.41452 76.2374
8215393 11.9088 9.90899 28.3399 26.0797 -1.39697 6.41452 76.2374
8215405 11.4332 10.3879 26.6271 27.4436 -0.075382 6.37414 75.8917
8215415 10.9927 10.9404 25.0226 28.8367 1.24081 6.31846 75.7924
8215438 10.6756 11.6495 23.5657 29.9181 2.41601 6.16522 75.8089
8215443 10.6756 11.6495 23.5657 29.9181 2.41601 6.16522 75.8089
8215453 10.3762 12.3954 22.1679 30.8533 3.53089 5.98664 75.7928
8215464 10.1736 13.1046 20.8587 31.6716 4.53244 5.78805 75.8085
8215473 10.1736 13.1046 20.8587 31.6716 4.53244 5.78805 75.8085
8215485 9.94456 13.7584 19.7464 32.3633 5.41821 5.62045 75.8127
8215493 9.7772 14.4675 18.6636 32.8699 6.23419 5.40171 75.7782
8215518 9.7772 14.4675 18.6636 32.8699 6.23419 5.40171 75.7782
8215521 9.52176 15.0108 17.8564 33.3862 6.93463 5.28736 75.7752
8215524 9.52176 15.0108 17.8564 33.3862 6.93463 5.28736 75.7752
8215533 9.26632 15.3976 17.1378 33.6688 7.50699 5.19593 75.4705
8215550 9.05492 15.812 16.5841 33.961 8.00072 5.10757 75.4121
8215555 9.05492 15.812 16.5841 33.961 8.00072 5.10757 75.4121
8215564 8.86114 16.1067 16.0538 34 8.39482 5.01574 75.0217
8215576 8.64974 16.4659 15.5859 34 8.77833 4.91362 74.7015
8215584 8.64974 16.4659 15.5859 34 8.77833 4.91362 74.7015
8215602 8.49119 16.825 15.2636 34 9.07425 4.81646 74.5798
8215604 8.49119 16.825 15.2636 34 9.07425 4.81646 74.5798
8215614 8.3943 17.0584 14.9413 34 9.3162 4.736 74.3939
8215633 8.22694 17.5057 14.6606 34 9.61722 4.62298 74.3932
8215634 8.22694 17.5057 14.6606 34 9.61722 4.62298 74.3932
8215651 8.24456 17.9142 14.3486 34 9.83829 4.46732 74.5074
8215654 8.17409 18.1962 14.1511 34 10.021 4.38413 74.5214
8215664 8.17409 18.1962 14.1511 34 10.021 4.38413 74.5214
8215688 8.09482 18.5755 14.0159 34 10.1976 4.28705 74.6862
8215690 8.09482 18.5755 14.0159 34 10.1976 4.28705 74.6862
8215695 7.93627 18.6922 13.7872 34 10.404 4.26496 74.4156
8215706 7.90104 18.9645 13.5792 34 10.573 4.17362 74.4448
8215721 7.90104 18.9645 13.5792 34 10.573 4.17362 74.4448
8215726 7.83057 19.1007 13.444 34 10.6978 4.13702 74.3753
8215736 7.73368 19.2563 13.3505 34 10.8192 4.10823 74.3404
8215746 7.73368 19.2563 13.3505 34 10.8192 4.10823 74.3404
8215756 7.6456 19.3244 13.1945 34 10.9501 4.09048 74.1645
8215770 7.6456 19.3244 13.1945 34 10.9501 4.09048 74.1645
8215776 7.5399 19.3341 13.1841 34 11.0083 4.11368 74.0581
8215786 7.45181 19.4411 13.1633 34 11.0814 4.10575 74.0562
8215796 7.45181 19.4411 13.1633 34 11.0814 4.10575 74.0562
8215806 7.50466 19.587 13.0801 34 11.1236 4.04234 74.1717
8215821 7.44301 19.6842 12.9865 34 11.2174 4.01936 74.1138
8215826 7.44301 19.6842 12.9865 34 11.2174 4.01936 74.1138
8215836 7.38135 19.7815 13.0073 34 11.2555 4.01331 74.1702
8215856 7.37254 19.8106 12.9761 34 11.2804 4.00347 74.1593
8215873 7.35492 19.8884 12.9969 34 11.2933 3.99114 74.2403
8215888 7.45181 20.083 12.9657 34 11.297 3.91225 74.5005
8215899 7.53109 20.1705 12.8826 34 11.315 3.85759 74.5841
8215907 7.53109 20.1705 12.8826 34 11.315 3.85759 74.5841
8215922 7.59275 20.4428 12.8306 34 11.3601 3.76573 74.8661
8215927 7.59275 20.4428 12.8306 34 11.3601 3.76573 74.8661
8215937 7.71606 20.6373 12.7578 34 11.371 3.67544 75.1112
8215947 7.77772 20.6859 12.7682 34 11.3449 3.64963 75.2318
8215957 7.77772 20.6859 12.7682 34 11.3449 3.64963 75.2318
8215973 7.85699 20.7248 12.7994 34 11.2987 3.62509 75.3812
8215977 7.85699 20.7248 12.7994 34 11.2987 3.62509 75.3812
8215987 7.84819 20.647 12.8306 34 11.2738 3.65121 75.3258
8216000 7.99793 20.7054 12.893 33.8831 11.1612 3.59159 75.4794
8216007 7.99793 20.7054 12.893 33.8831 11.1612 3.59159 75.4794
8216025 8.04197 20.7637 12.893 33.6785 11.1132 3.53538 75.3772
8216027 8.15648 20.6762 12.9657 33.5908 10.9912 3.52648 75.3893
8216037 8.15648 20.6762 12.9657 33.5908 10.9912 3.52648 75.3893
8216051 8.30622 20.5692 13.1633 33.5519 10.7988 3.54007 75.5906
8216067 8.33264 20.3844 13.2777 33.6298 10.7121 3.60803 75.6246
8216087 8.37668 20.2386 13.5168 33.5811 10.5418 3.66172 75.7132
8216089 8.37668 20.2386 13.5168 33.5811 10.5418 3.66172 75.7132
8216103 8.42073 20.0246 13.6624 33.4837 10.3931 3.71089 75.5914
8216108 8.42953 19.6939 13.9535 33.5226 10.1963 3.83984 75.5996
8216118 8.42953 19.6939 13.9535 33.5226 10.1963 3.83984 75.5996
8216131 8.56166 19.4022 14.0263 33.4739 10.034 3.88325 75.4641
8216138 8.56166 19.4022 14.0263 33.4739 10.034 3.88325 75.4641
8216148 8.58808 19.159 14.2966 33.2109 9.79514 3.93871 75.2546
8216160 8.73782 18.9937 14.6709 32.9284 9.46269 3.9561 75.3308
8216168 8.73782 18.9937 14.6709 32.9284 9.46269 3.9561 75.3308
8216185 8.79067 18.663 14.9829 32.8504 9.21139 4.06038 75.287
8216188 8.98446 18.3616 15.378 32.6751 8.84434 4.11949 75.3991
8216198 8.98446 18.3616 15.378 32.6751 8.84434 4.11949 75.3991
8216211 9.14301 18.0017 15.9291 32.4802 8.40786 4.22173 75.554
8216218 9.14301 18.0017 15.9291 32.4802 8.40786 4.22173 75.554
8216228 9.32798 17.496 16.5841 32.1782 7.85927 4.35364 75.5863
8216239 9.54819 16.9816 17.443 31.7691 7.18213 4.49202 75.7418
8216248 9.54819 16.9816 17.443 31.7691 7.18213 4.49202 75.7418
8216262 9.78601 16.429 18.2994 31.2819 6.47314 4.62415 75.7964
8216277 10.1119 15.7291 19.3231 30.8046 5.62689 4.79538 75.9688
8216287 10.1119 15.7291 19.3231 30.8046 5.62689 4.79538 75.9688
8216298 10.4114 15.0293 20.5929 30.259 4.68065 4.99615 76.2926
8216300 10.4114 15.0293 20.5929 30.259 4.68065 4.99615 76.2926
8216311 10.7021 14.2096 21.9021 29.4894 3.63511 5.20551 76.3033
8216322 11.0016 13.4545 23.3688 28.7003 2.54308 5.41255 76.5252
8216336 11.0016 13.4545 23.3688 28.7003 2.54308 5.41255 76.5252
8216340 11.3363 12.8006 24.7273 27.7066 1.45085 5.54329 76.5708
8216349 11.671 12.1468 26.1054 26.4401 0.26536 5.64297 76.3633
8216362 11.671 12.1468 26.1054 26.4401 0.26536 5.64297 76.3633
8216369 12.085 11.493 27.6607 25.0762 -1.04059 5.73132 76.3148
8216386 12.085 11.493 27.6607 25.0762 -1.04059 5.73132 76.3148
8216389 12.5694 10.7746 29.1274 23.537 -2.42908 5.78625 76.0084
8216399 13.1244 10.1945 30.3775 22.0659 -3.70947 5.76632 75.7623
8216419 13.6088 9.6143 31.5391 20.6533 -4.93277 5.76194 75.4155
8216437 14.0316 9.18147 32.5333 19.4453 -5.96415 5.73843 75.1917
8216439 14.0316 9.18147 32.5333 19.4453 -5.96415 5.73843 75.1917
8216449 14.4192 8.75785 33.4783 18.4126 -6.90275 5.73758 75.0679
8216462 14.4192 8.75785 33.4783 18.4126 -6.90275 5.73758 75.0679
8216469 14.6834 8.40791 34 17.6332 -7.57524 5.72942 74.7246
8216480 14.9829 8.14085 34 16.9239 -8.07528 5.63153 74.0476
8216493 14.9829 8.14085 34 16.9239 -8.07528 5.63153 74.0476
8216503 15.2824 8.00271 34 16.3337 -8.47133 5.51122 73.6188
8216515 15.485 7.80011 34 15.8197 -8.84523 5.44451 73.1048
8216521 15.485 7.80011 34 15.8197 -8.84523 5.44451 73.1048
8216531 15.7756 7.75406 34 15.3152 -9.16548 5.30967 72.8449
8216541 15.7756 7.75406 34 15.3152 -9.16548 5.30967 72.8449
8216551 15.9694 7.61593 34 14.7251 -9.55202 5.21496 72.3104
8216566 16.2513 7.60672 34 14.2111 -9.86328 5.06869 72.0691
8216571 16.2513 7.60672 34 14.2111 -9.86328 5.06869 72.0691
8216581 16.5508 7.51463 34 13.7066 -10.2162 4.9409 71.772
8216591 16.5508 7.51463 34 13.7066 -10.2162 4.9409 71.772
8216601 16.7181 7.40412 34 13.2688 -10.5214 4.86332 71.391
8216616 16.9031 7.26598 34 12.8785 -10.8232 4.79455 71.0476
8216621 16.9031 7.26598 34 12.8785 -10.8232 4.79455 71.0476
8216631 17.0797 7.10943 34 12.5073 -11.1261 4.73535 70.6964
8216644 17.2292 6.97129 34 12.2122 -11.3778 4.68915 70.4127
8216651 17.2292 6.97129 34 12.2122 -11.3778 4.68915 70.4127
8216661 17.3787 6.90683 34 12.0314 -11.5337 4.63883 70.3168
8216673 17.3787 6.90683 34 12.0314 -11.5337 4.63883 70.3168
8216681 17.4783 6.76869 34 11.8695 -11.7091 4.6257 70.1165
8216700 17.6278 6.73185 34 11.6697 -11.8616 4.56452 70.0293
8216701 17.6278 6.73185 34 11.6697 -11.8616 4.56452 70.0293
8216711 17.7673 6.62134 34 11.5269 -12.0213 4.5351 69.9155
8216722 17.9367 6.55688 34 11.3651 -12.1727 4.48151 69.8586
8216742 18.1958 6.54767 34 11.1461 -12.3416 4.37891 69.8896
8216752 18.1958 6.54767 34 11.1461 -12.3416 4.37891 69.8896
8216764 18.415 6.46479 34 10.9558 -12.5274 4.31212 69.8356
8216772 18.7538 6.55688 34 10.7559 -12.6455 4.16287 70.0666
8216796 18.7538 6.55688 34 10.7559 -12.6455 4.16287 70.0666
8216800 19.0328 6.52925 34 10.556 -12.8168 4.06327 70.1181
8216802 19.4314 6.61213 34 10.4227 -12.9128 3.91233 70.4663
8216812 19.4314 6.61213 34 10.4227 -12.9128 3.91233 70.4663
8216823 19.7802 6.68581 34 10.318 -12.9889 3.78306 70.784
8216832 19.7802 6.68581 34 10.318 -12.9889 3.78306 70.784
8216847 20.1688 6.79632 34 10.1086 -13.1075 3.61811 71.0738
8216852 20.5674 6.81473 34 10.1181 -13.1589 3.51103 71.5003
8216862 20.5674 6.81473 34 10.1181 -13.1589 3.51103 71.5003
8216874 20.9261 6.94366 34 10.0039 -13.2102 3.36718 71.8737
8216884 21.2351 7.01733 34 9.94681 -13.2518 3.26065 72.1992
8216896 21.2351 7.01733 34 9.94681 -13.2518 3.26065 72.1992
8216912 21.5041 7.09101 34 9.8897 -13.2867 3.16506 72.4848
8216920 21.7134 7.16468 34 9.8897 -13.2816 3.09443 72.7677
8216924 21.7134 7.16468 34 9.8897 -13.2816 3.09443 72.7677
8216934 21.9824 7.16468 34 9.88018 -13.3298 3.02621 73.0273
8216946 21.9824 7.16468 34 9.88018 -13.3298 3.02621 73.0273
8216954 22.2814 7.29361 34 9.80403 -13.3498 2.90868 73.379
8216969 22.6202 7.42254 34 9.82307 -13.3264 2.7984 73.8658
8216975 22.6202 7.42254 34 9.82307 -13.3264 2.7984 73.8658
8216992 22.949 7.56067 34 9.68029 -13.3805 2.66288 74.19
8216995 23.2878 7.66197 34 9.74692 -13.3469 2.56982 74.6967
8217006 23.2878 7.66197 34 9.74692 -13.3469 2.56982 74.6967
8217016 23.6266 7.7909 34 9.69933 -13.358 2.45254 75.1168
8217036 23.8359 7.91062 34 9.67077 -13.3439 2.37166 75.4173
8217046 24.1547 8.05796 33.5767 9.71836 -13.2288 2.20157 75.5078
8217059 24.1547 8.05796 33.5767 9.71836 -13.2288 2.20157 75.5078
8217066 24.2644 8.18689 33.0156 9.74692 -13.0781 2.0564 75.2138
8217082 24.2843 8.34344 32.4939 9.82307 -12.8801 1.93928 74.9447
8217085 24.2843 8.34344 32.4939 9.82307 -12.8801 1.93928 74.9447
8217097 24.2644 8.45395 32.1297 10.1467 -12.5987 1.91175 74.9947
8217109 24.2644 8.45395 32.1297 10.1467 -12.5987 1.91175 74.9947
8217117 24.1049 8.63814 31.8738 10.5084 -12.2569 1.92461 75.1252
8217133 24.0551 8.82232 31.5096 10.9367 -11.8839 1.90555 75.3237
8217137 24.0551 8.82232 31.5096 10.9367 -11.8839 1.90555 75.3237
8217147 23.8359 9.2091 31.1355 11.4412 -11.3463 1.89068 75.6217
8217159 23.5369 9.54063 30.6039 12.0409 -10.7496 1.8952 75.7224
8217167 23.5369 9.54063 30.6039 12.0409 -10.7496 1.8952 75.7224
8217183 23.1882 9.82611 29.9543 12.6881 -10.1208 1.90891 75.6567
8217187 23.1882 9.82611 29.9543 12.6881 -10.1208 1.90891 75.6567
8217200 22.6202 10.1761 29.3144 13.5448 -9.3231 1.99516 75.6554
8217209 22.112 10.526 28.6254 14.3634 -8.54458 2.053 75.6267
8217217 22.112 10.526 28.6254 14.3634 -8.54458 2.053 75.6267
8217237 21.5041 10.9588 27.769 15.3533 -7.59439 2.11536 75.5852
8217241 20.8165 11.318 26.7944 16.4384 -6.58593 2.20885 75.3674
8217267 19.9994 11.8337 25.8494 17.6722 -5.42201 2.3267 75.3548
8217269 19.9994 11.8337 25.8494 17.6722 -5.42201 2.3267 75.3548
8217278 19.0826 12.2389 24.9045 19.0556 -4.21505 2.51824 75.2816
8217296 18.1559 12.6994 23.8807 20.5072 -2.93386 2.69778 75.2431
8217301 18.1559 12.6994 23.8807 20.5072 -2.93386 2.69778 75.2431
8217322 17.2292 13.0953 22.9751 21.8905 -1.73507 2.90087 75.1902
8217324 16.4275 13.4545 22.0793 23.235 -0.604197 3.07841 75.1962
8217344 15.7492 13.7216 21.1934 24.6768 0.483045 3.26504 75.341
8217348 15.7492 13.7216 21.1934 24.6768 0.483045 3.26504 75.341
8217358 15.0622 14.2465 20.4354 25.8751 1.52869 3.37253 75.6192
8217374 14.3047 14.4491 19.6972 27.0539 2.48365 3.57539 75.5048
8217378 14.3047 14.4491 19.6972 27.0539 2.48365 3.57539 75.5048
8217388 13.6705 14.6609 19.0376 28.067 3.32064 3.73296 75.436
8217404 12.9746 14.7898 18.5159 28.9438 4.06888 3.92733 75.2242
8217409 12.9746 14.7898 18.5159 28.9438 4.06888 3.92733 75.2242
8217419 12.499 14.8267 18.132 30.0739 4.72306 4.14668 75.5316
8217430 12.499 14.8267 18.132 30.0739 4.72306 4.14668 75.5316
8217439 11.9617 14.8082 17.7875 31.2138 5.36907 4.40102 75.7711
8217458 11.5124 14.974 17.4627 32.3926 6.02275 4.59162 76.3416
8217460 11.5124 14.974 17.4627 32.3926 6.02275 4.59162 76.3416
8217469 10.9663 15.0108 17.0591 33.3473 6.65482 4.79734 76.3835
8217482 10.4026 14.974 16.6777 34 7.19675 4.99007 76.0543
8217489 10.4026 14.974 16.6777 34 7.19675 4.99007 76.0543
8217499 9.83005 14.9003 16.4489 34 7.52246 5.13144 75.1793
8217510 9.83005 14.9003 16.4489 34 7.52246 5.13144 75.1793
8217519 9.31036 14.9095 16.1786 34 7.86998 5.23371 74.3985
8217530 8.82591 14.8543 15.8667 34 8.21303 5.34078 73.5469
8217539 8.82591 14.8543 15.8667 34 8.21303 5.34078 73.5469
8217555 8.42073 14.8359 15.5443 34 8.54068 5.41636 72.8009
8217559 8.06839 14.9095 15.2948 34 8.83679 5.46199 72.2727
8217579 7.74249 14.9648 15.0349 34 9.12554 5.50463 71.7421
8217589 7.74249 14.9648 15.0349 34 9.12554 5.50463 71.7421
8217603 7.50466 15.0569 14.8477 34 9.34911 5.52159 71.4092
8217611 7.21399 15.2319 14.619 34 9.6387 5.52449 71.0648
8217628 7.21399 15.2319 14.619 34 9.6387 5.52449 71.0648
8217631 7.05544 15.2963 14.5878 34 9.74531 5.54754 70.9395
8217641 7.04663 15.5081 14.619 34 9.77978 5.49308 71.1737
8217658 7.04663 15.5081 14.619 34 9.77978 5.49308 71.1737
8217661 7.03782 15.7476 14.5254 34 9.88082 5.41433 71.3108
8217671 7.03782 15.7476 14.5254 34 9.88082 5.41433 71.3108
8217691 7.12591 15.9502 14.5358 34 9.87563 5.33286 71.6118
8217692 7.30207 16.1988 14.4526 34 9.88282 5.20164 71.9535
8217701 7.30207 16.1988 14.4526 34 9.88282 5.20164 71.9535
8217721 7.35492 16.5948 14.359 34 9.98526 5.06356 72.3087
8217723 7.35492 16.5948 14.359 34 9.98526 5.06356 72.3087
8217732 7.41658 16.825 14.255 34 10.0534 4.96853 72.4967
8217750 7.41658 17.0973 14.0991 34 10.1847 4.87212 72.6129
8217762 7.40777 17.2626 13.9119 34 10.3134 4.80315 72.5823
8217775 7.37254 17.4863 13.8807 34 10.3908 4.74747 72.7395
8217792 7.39016 17.6808 13.7248 34 10.4971 4.66796 72.7957
8217802 7.31088 17.885 13.548 34 10.6628 4.60907 72.7439
8217812 7.31088 17.885 13.548 34 10.6628 4.60907 72.7439
8217826 7.27565 18.1476 13.4336 34 10.7877 4.53157 72.8569
8217848 7.17876 18.2838 13.2673 34 10.9438 4.49708 72.7298
8217853 7.12591 18.6241 13.1841 34 11.0765 4.40823 72.9341
8217873 6.97617 18.9256 13.0593 34 11.2697 4.34975 72.9611
8217883 6.94093 19.1104 12.8618 34 11.4203 4.28121 72.9131
8217896 6.94093 19.1104 12.8618 34 11.4203 4.28121 72.9131
8217904 6.87927 19.3438 12.9138 34 11.4685 4.24355 73.1369
8217926 6.83523 19.4508 12.9761 34 11.4791 4.23618 73.2622
8217937 6.81762 19.4314 13.0489 34 11.4481 4.25659 73.2979
8217957 6.81762 19.4314 13.0489 34 11.4481 4.25659 73.2979
8217959 6.76477 19.3341 13.0801 34 11.4409 4.30067 73.179
8217964 6.79119 19.159 13.2673 34 11.3021 4.3672 73.2175
8217981 6.79119 19.159 13.2673 34 11.3021 4.3672 73.2175
8217984 6.79119 19.091 13.3609 34 11.243 4.39879 73.243
8217994 6.79119 19.091 13.3609 34 11.243 4.39879 73.243
8218006 6.73834 18.8284 13.496 34 11.1527 4.50215 73.0627
8218014 6.73834 18.6533 13.6312 34 11.0526 4.56833 73.0229
8218024 6.73834 18.6533 13.6312 34 11.0526 4.56833 73.0229
8218037 6.77358 18.5755 13.7664 34 10.9538 4.59902 73.1154
8218045 6.8 18.4199 13.8911 34 10.8495 4.6514 73.111
8218055 6.8 18.4199 13.8911 34 10.8495 4.6514 73.111
8218066 6.84404 18.1865 14.0575 34 10.7011 4.72587 73.088
8218091 6.84404 18.1865 14.0575 34 10.7011 4.72587 73.088
8218094 6.98497 17.9142 14.2031 34 10.5079 4.78178 73.1022
8218100 7.12591 17.7878 14.5462 34 10.249 4.8256 73.4598
8218106 7.12591 17.7878 14.5462 34 10.249 4.8256 73.4598
8218115 7.38135 17.4571 14.8269 34 9.92625 4.88462 73.6654
8218127 7.49585 17.1653 15.0661 34 9.69907 4.96523 73.7272
8218141 7.49585 17.1653 15.0661 34 9.69907 4.96523 73.7272
8218146 7.70725 16.8066 15.5755 34 9.28737 5.07394 74.0894
8218157 7.70725 16.8066 15.5755 34 9.28737 5.07394 74.0894
8218165 7.76891 16.4475 16.0434 34 8.96687 5.2169 74.2598
8218180 7.95389 15.987 16.7193 34 8.47636 5.38006 74.6601
8218185 7.95389 15.987 16.7193 34 8.47636 5.38006 74.6601
8218195 8.17409 15.5634 17.4331 34 7.96727 5.52656 75.1706
8218208 8.54404 15.5634 18.2895 34 7.43807 5.53336 76.3969
8218216 8.54404 15.0937 18.2895 34 7.32943 5.66037 75.9273
8218238 8.90518 14.6333 19.2837 33.5421 6.54314 5.75284 76.3643
8218240 8.90518 14.6333 19.2837 33.5421 6.54314 5.75284 76.3643
8218248 9.19586 14.0439 20.2878 32.7043 5.66185 5.85432 76.2318
8218268 9.66269 13.4913 21.4198 31.8665 4.66878 5.9129 76.4403
8218270 9.66269 13.4913 21.4198 31.8665 4.66878 5.9129 76.4403
8218276 10.1031 12.9756 22.4435 30.7072 3.65218 5.91739 76.2294
8218286 10.1031 12.9756 22.4435 30.7072 3.65218 5.91739 76.2294
8218296 10.5347 12.377 23.5263 29.4602 2.56137 5.94377 75.8983
8218305 11.1249 11.8705 24.7273 28.1158 1.36282 5.90353 75.8384
8218322 11.1249 11.8705 24.7273 28.1158 1.36282 5.90353 75.8384
8218325 11.7415 11.4101 25.8298 26.6447 0.159851 5.81604 75.626
8218338 12.4109 11.0049 26.9224 25.047 -1.08822 5.68155 75.3852
8218347 12.4109 11.0049 26.9224 25.047 -1.08822 5.68155 75.3852
8218357 13.1244 10.6641 28.0446 23.4201 -2.35364 5.51661 75.2531
8218367 13.1244 10.6641 28.0446 23.4201 -2.35364 5.51661 75.2531
8218377 13.8907 10.305 29.1766 21.8029 -3.64463 5.34428 75.1751
8218391 14.6746 9.96425 30.3972 20.2539 -4.93217 5.18241 75.2899
8218397 14.6746 9.96425 30.3972 20.2539 -4.93217 5.18241 75.2899
8218407 15.3705 9.53142 31.6375 18.7341 -6.22479 5.07544 75.2735
8218417 16.0839 9.05255 32.927 17.2923 -7.51972 4.99288 75.3558
8218427 16.0839 9.05255 32.927 17.2923 -7.51972 4.99288 75.3558
8218437 16.6565 8.76706 33.9803 16.0482 -8.55563 4.8915 75.452
8218447 16.6565 8.76706 33.9803 16.0482 -8.55563 4.8915 75.452
8218458 17.3886 8.3987 34 14.8393 -9.43049 4.63346 74.6266
8218467 17.9965 7.96587 34 13.8684 -10.2133 4.45059 73.8308
8218480 17.9965 7.96587 34 13.8684 -10.2133 4.45059 73.8308
8218487 18.5246 7.61593 34 12.9261 -10.943 4.26711 73.0666
8218497 18.993 7.34886 34 12.2598 -11.4957 4.11519 72.6016
8218518 19.3716 7.15547 34 11.7458 -11.9237 3.98878 72.2729
8218538 19.8101 7.03575 34 11.327 -12.2786 3.84102 72.1728
8218552 20.129 6.88841 34 10.9748 -12.5936 3.74154 71.9922
8218559 20.129 6.88841 34 10.9748 -12.5936 3.74154 71.9922
8218568 20.4678 6.91603 34 10.6417 -12.8115 3.59412 72.0255
8218579 20.8066 6.84236 34 10.3942 -13.0373 3.48651 72.0431
8218589 20.8066 6.84236 34 10.3942 -13.0373 3.48651 72.0431
8218606 21.1254 6.8792 34 10.1181 -13.2164 3.35126 72.1228
8218609 21.4842 6.82394 34 9.94681 -13.3947 3.24657 72.2549
8218619 21.4842 6.82394 34 9.94681 -13.3947 3.24657 72.2549
8218630 21.6735 6.83315 34 9.74692 -13.5265 3.16391 72.2536
8218640 21.6735 6.83315 34 9.74692 -13.5265 3.16391 72.2536
8218651 21.7333 6.80553 34 9.62318 -13.6168 3.13552 72.162
8218660 21.8628 6.80553 34 9.54703 -13.6779 3.09048 72.2154
8218673 21.8628 6.80553 34 9.54703 -13.6779 3.09048 72.2154
8218680 21.9426 6.82394 34 9.48992 -13.7111 3.05649 72.2564
8218690 21.9426 6.82394 34 9.48992 -13.7111 3.05649 72.2564
8218701 21.9027 6.7779 34 9.3757 -13.791 3.05909 72.0563
8218709 22.102 6.81473 34 9.47088 -13.7511 3.01588 72.3876
8218728 22.102 6.81473 34 9.47088 -13.7511 3.01588 72.3876
8218730 22.2714 7.00813 34 9.38522 -13.7199 2.91181 72.6647
8218744 22.5604 7.02654 34 9.30907 -13.7953 2.82364 72.896
8218756 22.5604 7.02654 34 9.30907 -13.7953 2.82364 72.896
8218761 22.7597 7.12784 34 9.30907 -13.7721 2.75045 73.1966
8218769 22.7597 7.12784 34 9.30907 -13.7721 2.75045 73.1966
8218782 22.949 7.17389 34 9.18533 -13.8422 2.67278 73.3082
8218789 23.0287 7.10022 34 9.18533 -13.8933 2.67132 73.3143
8218809 23.0287 7.10022 34 9.18533 -13.8933 2.67132 73.3143
8218810 22.9889 7.14626 34 9.12822 -13.8932 2.66022 73.2633
8218835 22.8992 7.13705 34 9.16629 -13.8642 2.6905 73.2025
8218837 22.8992 7.13705 34 9.16629 -13.8642 2.6905 73.2025
8218841 22.7995 7.17389 34 9.14726 -13.8396 2.70248 73.1207
8218851 22.7995 7.17389 34 9.14726 -13.8396 2.70248 73.1207
8218863 22.6999 7.14626 34 9.24244 -13.7885 2.74933 73.0886
8218871 22.5205 7.11863 34 9.36618 -13.7099 2.82042 73.0053
8218891 22.3312 7.1831 34 9.49944 -13.5758 2.87312 73.0137
8218901 22.2415 7.15547 34 9.57559 -13.5361 2.91451 72.9726
8218916 22.2415 7.15547 34 9.57559 -13.5361 2.91451 72.9726
8218921 22.1717 7.17389 34 9.66125 -13.4702 2.94129 73.0069
8218942 22.0223 7.15547 34 9.67077 -13.4512 2.98421 72.8485
8218967 21.9326 7.19231 34 9.77548 -13.3623 3.01451 72.9004
8218973 21.9027 7.12784 34 9.80403 -13.3765 3.04254 72.8346
8218982 21.7831 7.10022 34 9.80403 -13.3719 3.07908 72.6874
8218994 21.7831 7.10022 34 9.80403 -13.3719 3.07908 72.6874
8219002 21.6934 7.13705 34 9.83259 -13.3231 3.09692 72.6631
8219012 21.6934 7.13705 34 9.83259 -13.3231 3.09692 72.6631
8219022 21.5141 7.10943 34 9.96585 -13.2384 3.17037 72.5893
8219032 21.3945 7.07259 34 10.0896 -13.1733 3.22972 72.5567
8219049 21.3945 7.07259 34 10.0896 -13.1733 3.22972 72.5567
8219052 21.2649 7.09101 34 10.1181 -13.1274 3.26231 72.4741
8219062 21.1155 7.15547 34 10.3751 -12.9342 3.3252 72.6461
8219078 21.1155 7.15547 34 10.3751 -12.9342 3.3252 72.6461
8219083 20.966 7.21993 34 10.575 -12.7716 3.37869 72.761
8219093 20.966 7.21993 34 10.575 -12.7716 3.37869 72.761
8219106 20.8066 7.1831 34 10.794 -12.6503 3.4632 72.7836
8219113 20.5475 7.27519 34 11.1557 -12.3724 3.56263 72.9783
8219123 20.5475 7.27519 34 11.1557 -12.3724 3.56263 72.9783
8219136 20.2784 7.32124 34 11.4602 -12.1465 3.66698 73.0599
8219143 20.0293 7.42254 34 11.8695 -11.8442 3.76787 73.3214
8219163 20.0293 7.42254 34 11.8695 -11.8442 3.76787 73.3214
8219165 19.7304 7.61593 34 12.2788 -11.4891 3.85722 73.6251
8219173 19.7304 7.61593 34 12.2788 -11.4891 3.85722 73.6251
8219188 19.4513 7.90141 34 12.8785 -11.0033 3.94559 74.2313
8219193 19.0926 8.21452 34 13.8303 -10.3303 4.09713 75.1375
8219203 19.0926 8.21452 34 13.8303 -10.3303 4.09713 75.1375
8219214 18.7638 8.61972 33.3208 14.7156 -9.52974 4.10758 75.4198
8219225 18.3253 9.06176 32.4349 15.7816 -8.56996 4.13262 75.6036
8219236 18.3253 9.06176 32.4349 15.7816 -8.56996 4.13262 75.6036
8219245 17.9666 9.68797 31.3422 16.743 -7.55146 4.04622 75.7398
8219259 17.9666 9.68797 31.3422 16.743 -7.55146 4.04622 75.7398
8219265 17.3986 10.2866 30.1216 17.7404 -6.45068 4.00614 75.5472
8219275 16.956 10.9036 28.8025 18.8413 -5.30231 3.93048 75.5033
8219286 16.956 10.9036 28.8025 18.8413 -5.30231 3.93048 75.5033
8219294 16.4363 11.4469 27.454 19.8642 -4.18182 3.87659 75.2013
8219306 15.8373 11.9718 26.1251 21.2573 -2.90367 3.90468 75.1915
8219315 15.8373 11.9718 26.1251 21.2573 -2.90367 3.90468 75.1915
8219330 15.2736 12.5612 24.8552 22.514 -1.67995 3.89629 75.2041
8219334 15.2736 12.5612 24.8552 22.514 -1.67995 3.89629 75.2041
8219345 14.7715 13.0493 23.7429 23.6149 -0.615275 3.89812 75.1786
8219368 14.2782 13.5926 22.5223 24.8521 0.546297 3.888 75.2453
8219370 14.2782 13.5926 22.5223 24.8521 0.546297 3.888 75.2453
8219377 13.8026 14.2925 21.3706 26.1381 1.73849 3.85171 75.6038
8219386 13.3798 15.0753 20.2583 27.0441 2.79886 3.73177 75.7575
8219402 13.3798 15.0753 20.2583 27.0441 2.79886 3.73177 75.7575
8219406 12.9041 15.766 19.2345 27.9891 3.82654 3.667 75.8938
8219416 12.9041 15.766 19.2345 27.9891 3.82654 3.667 75.8938
8219426 12.3404 16.4106 18.1222 28.71 4.84832 3.58833 75.5832
8219436 11.8383 17.1751 17.1575 29.5186 5.84554 3.50037 75.6895
8219449 11.8383 17.1751 17.1575 29.5186 5.84554 3.50037 75.6895
8219474 11.301 17.8364 16.2514 30.4441 6.83348 3.47305 75.8329
8219476 10.7021 18.4296 15.43 30.9994 7.70801 3.43385 75.5611
8219485 10.1031 18.9354 14.7541 31.4963 8.49209 3.42918 75.2889
8219497 10.1031 18.9354 14.7541 31.4963 8.49209 3.42918 75.2889
8219507 9.64508 19.373 14.1199 31.9152 9.16792 3.40099 75.0531
8219520 9.2487 19.7231 13.6728 32.3146 9.71069 3.40497 74.9592
8219527 9.2487 19.7231 13.6728 32.3146 9.71069 3.40497 74.9592
8219537 8.95803 20.0343 13.2777 32.3926 10.1092 3.35065 74.6626
8219547 8.77306 20.3747 12.9969 32.5777 10.4327 3.29757 74.7224
8219557 8.77306 20.3747 12.9969 32.5777 10.4327 3.29757 74.7224
8219568 8.57047 20.754 12.789 32.6361 10.7127 3.23091 74.7496
8219592 8.52642 21.0458 12.6226 32.8017 10.9 3.17058 74.9965
8219598 8.47358 21.4251 12.5706 32.9576 11.0499 3.10823 75.4269
8219618 8.44715 21.7946 12.3939 33.1427 11.2487 3.02754 75.7784
8219627 8.2886 22.2614 12.2067 33.1719 11.5036 2.92945 75.9287
8219646 8.2886 22.2614 12.2067 33.1719 11.5036 2.92945 75.9287
8219648 8.27979 22.6505 11.978 32.8699 11.6335 2.75495 75.7782
8219657 8.27979 22.6505 11.978 32.8699 11.6335 2.75495 75.7782
8219677 8.19171 23.0784 11.7076 32.6946 11.8516 2.60309 75.6723
8219679 8.0772 23.4771 11.4373 32.3536 12.0499 2.4361 75.3452
8219709 7.98031 23.7689 11.2606 32.1977 12.2081 2.33536 75.2074
8219711 7.88342 23.9634 11.0942 32.0321 12.3437 2.25671 74.9731
8219717 7.88342 23.9634 11.0942 32.0321 12.3437 2.25671 74.9731
8219727 7.85699 24.1968 11.0526 31.9444 12.4021 2.18716 75.0508
8219739 7.85699 24.1968 11.0526 31.9444 12.4021 2.18716 75.0508
8219747 7.79534 24.1968 10.9382 32.0516 12.5079 2.20006 74.9819
8219764 7.71606 24.1579 10.9382 32.2172 12.5687 2.25541 75.0294
8219773 7.71606 24.1579 10.9382 32.2172 12.5687 2.25541 75.0294
8219789 7.69845 24.2454 10.907 32.3244 12.6253 2.25224 75.1753
8219791 7.6456 24.2357 10.9798 32.4607 12.6361 2.30198 75.3219
8219798 7.6456 24.2357 10.9798 32.4607 12.6361 2.30198 75.3219
8219814 7.6456 24.333 11.0318 32.5679 12.6437 2.30645 75.5783
8219818 7.6456 24.333 11.0318 32.5679 12.6437 2.30645 75.5783
8219828 7.61917 24.3135 11.0006 32.6848 12.6883 2.33134 75.6181
8219841 7.53109 24.2941 11.063 32.7725 12.7122 2.3811 75.6606
8219848 7.53109 24.2941 11.063 32.7725 12.7122 2.3811 75.6606
8219858 7.5399 24.2551 11.0526 32.7627 12.7051 2.38465 75.6104
8219868 7.5399 24.2551 11.0526 32.7627 12.7051 2.38465 75.6104
8219878 7.48705 24.2843 10.959 32.6264 12.7608 2.35162 75.3568
8219893 7.51347 24.226 11.011 32.6166 12.7105 2.36606 75.3671
8219899 7.51347 24.226 11.011 32.6166 12.7105 2.36606 75.3671
8219909 7.58394 24.3524 11.0422 32.4802 12.6581 2.30313 75.4588
8219921 7.6544 24.2649 10.9902 32.4023 12.6217 2.28515 75.3118
8219929 7.6544 24.2649 10.9902 32.4023 12.6217 2.28515 75.3118
8219945 7.72487 24.2454 11.0318 32.2854 12.5433 2.26071 75.2875
8219951 7.81295 24.1871 11.0942 32.2075 12.4457 2.25127 75.3017
8219961 7.81295 24.1871 11.0942 32.2075 12.4457 2.25127 75.3017
8219977 7.9715 24.0606 11.1774 32.0808 12.2833 2.23655 75.2903
8219981 7.9715 24.0606 11.1774 32.0808 12.2833 2.23655 75.2903
8219996 8.02435 24.012 11.2709 31.8762 12.1679 2.21673 75.1835
8220001 8.25337 23.8953 11.4477 31.7691 11.9296 2.20288 75.3654
8220023 8.50881 23.7689 11.5309 31.6132 11.7149 2.16112 75.4218
8220031 8.64974 23.6035 11.6765 31.5742 11.5396 2.1848 75.504
8220047 8.64974 23.6035 11.6765 31.5742 11.5396 2.1848 75.504
8220051 8.86114 23.4868 11.8428 31.5158 11.3262 2.18157 75.7066
8220061 8.86114 23.4868 11.8428 31.5158 11.3262 2.18157 75.7066
8220075 8.94922 23.3312 11.9468 31.3501 11.1758 2.18646 75.5774
8220081 9.04611 23.0492 12.082 31.1358 10.9732 2.21524 75.3131
8220121 9.04611 23.0492 12.082 31.1358 10.9732 2.21524 75.3131
8220133 9.17824 22.7769 12.2587 31.0774 10.764 2.26739 75.2912
8220133 9.27513 22.5143 12.4043 30.941 10.573 2.30702 75.1347
8220141 9.37202 22.2128 12.5914 30.8533 10.3635 2.37104 75.0296
8220142 9.37202 22.2128 12.5914 30.8533 10.3635 2.37104 75.0296
8220161 9.45129 21.9016 12.7994 30.7559 10.148 2.44347 74.9082
8220163 9.60104 21.5612 13.2257 30.9507 9.85059 2.59113 75.3387
8220174 9.60104 21.5612 13.2257 30.9507 9.85059 2.59113 75.3387
8220193 9.6715 21.25 13.5064 31.0384 9.64353 2.70782 75.4663
8220195 9.79482 20.8999 13.8495 31.1553 9.38276 2.83558 75.6995
8220202 9.79482 20.8999 13.8495 31.1553 9.38276 2.83558 75.6995
8220224 9.89171 20.6081 14.1823 31.0676 9.10953 2.92081 75.7497
8220226 9.89171 20.6081 14.1823 31.0676 9.10953 2.92081 75.7497
8220233 10.0238 20.2386 14.4838 30.7851 8.77651 2.98019 75.5313
8220250 10.1207 19.8106 14.9621 30.5513 8.37671 3.09803 75.4447
8220253 10.1207 19.8106 14.9621 30.5513 8.37671 3.09803 75.4447
8220263 10.2528 19.4897 15.3988 30.2201 7.98092 3.16003 75.3614
8220275 10.3409 18.9548 15.9291 30.0739 7.55615 3.32819 75.2987
8220283 10.3409 18.9548 15.9291 30.0739 7.55615 3.32819 75.2987
8220300 10.4466 18.4199 16.6569 29.7135 6.98788 3.48974 75.2369
8220313 10.6404 17.7975 17.4528 29.4991 6.36803 3.68366 75.3898
8220326 10.7373 17.1556 18.4667 29.1874 5.67163 3.92362 75.547
8220333 10.7373 17.1556 18.4667 29.1874 5.67163 3.92362 75.547
8220343 10.9399 16.3646 19.6086 28.7977 4.82554 4.18074 75.7107
8220353 11.1337 15.5265 20.9473 28.2716 3.86048 4.45947 75.8792
8220363 11.1337 15.5265 20.9473 28.2716 3.86048 4.45947 75.8792
8220393 11.4067 14.7714 22.5715 27.541 2.73104 4.70589 76.2906
8220396 11.4067 14.7714 22.5715 27.541 2.73104 4.70589 76.2906
8220397 11.7326 14.0255 24.2646 26.4791 1.47293 4.89902 76.5018
8220404 12.0497 13.2059 26.0857 25.31 0.124079 5.1154 76.6513
8220422 12.0497 13.2059 26.0857 25.31 0.124079 5.1154 76.6513
8220424 12.4197 12.3954 27.8674 24.063 -1.24717 5.29971 76.7456
8220434 12.6223 11.6035 29.4719 22.7673 -2.52514 5.49536 76.465
8220449 12.6223 11.6035 29.4719 22.7673 -2.52514 5.49536 76.465
8220454 12.957 10.8575 31.0961 21.5788 -3.79686 5.65968 76.4894
8220464 12.957 10.8575 31.0961 21.5788 -3.79686 5.65968 76.4894
8220474 13.0539 10.2405 32.3561 20.439 -4.83986 5.81565 76.0895
8220484 13.1948 9.65114 33.4192 19.494 -5.76462 5.95319 75.7592
8220500 13.1948 9.65114 33.4192 19.494 -5.76462 5.95319 75.7592
8220504 13.3622 9.23673 34 18.5295 -6.52082 5.97589 75.1284
8220514 13.5472 8.86836 34 17.6917 -7.07998 5.92577 74.1072
8220536 13.9171 8.63814 34 16.724 -7.69488 5.76604 73.2792
8220553 13.9171 8.63814 34 16.724 -7.69488 5.76604 73.2792
8220556 14.3399 8.49079 34 15.7816 -8.28629 5.56743 72.6123
8220566 14.7803 8.27898 34 14.9821 -8.85576 5.39748 72.0414
8220577 14.7803 8.27898 34 14.9821 -8.85576 5.39748 72.0414
8220604 15.2383 7.85536 34 14.2301 -9.51746 5.2864 71.3238
8220605 15.5554 7.62514 34 13.6114 -10.0007 5.17661 70.792
8220617 15.8285 7.27519 34 13.0118 -10.5332 5.11472 70.1154
8220636 15.8285 7.27519 34 13.0118 -10.5332 5.11472 70.1154
8220638 15.987 6.94366 34 12.5644 -10.9644 5.10115 69.4951
8220648 16.2161 6.72264 34 12.2312 -11.299 5.05115 69.17
8220668 16.2777 6.50163 34 11.9171 -11.5941 5.05218 68.6965
8220677 16.2777 6.28982 34 11.7172 -11.8147 5.08526 68.2848
8220691 16.2777 6.28982 34 11.7172 -11.8147 5.08526 68.2848
8220697 16.2425 6.07801 34 11.5174 -12.0313 5.12918 67.8379
8220707 16.2425 6.07801 34 11.5174 -12.0313 5.12918 67.8379
8220717 16.1632 5.79252 34 11.4031 -12.2358 5.22145 67.3589
8220727 16.0575 5.67281 34 11.3651 -12.3032 5.28384 67.0954
8220754 16.0575 5.67281 34 11.3651 -12.3032 5.28384 67.0954
8220767 15.9959 5.52546 34 11.308 -12.4057 5.33897 66.8293
8220769 15.8373 5.45179 34 11.3175 -12.4117 5.41127 66.6066
8220778 15.7845 5.28602 34 11.2508 -12.5328 5.46891 66.3213
8220794 15.7845 5.28602 34 11.2508 -12.5328 5.46891 66.3213
8220798 15.6964 5.1571 34 11.2604 -12.5839 5.53747 66.1138
8220808 15.6876 5.13868 34 11.2032 -12.6253 5.53776 66.0295
8220821 15.6876 5.13868 34 11.2032 -12.6253 5.53776 66.0295
8220828 15.6876 5.16631 34 11.07 -12.6856 5.51002 65.9239
8220849 15.7316 5.18472 34 11.0985 -12.667 5.49472 66.0149
8220860 15.8373 5.33207 34 11.1652 -12.5651 5.42609 66.3345
8220875 15.8373 5.33207 34 11.1652 -12.5651 5.42609 66.3345
8220880 15.8725 5.36891 34 11.1081 -12.5832 5.39566 66.3495
8220889 15.9078 5.38732 34 11.1081 -12.5794 5.37918 66.4032
8220906 15.9078 5.38732 34 11.1081 -12.5794 5.37918 66.4032
8220910 15.9606 5.45179 34 11.1271 -12.5421 5.346 66.5395
8220919 15.987 5.47941 34 11.0795 -12.5583 5.32257 66.546
8220936 15.987 5.47941 34 11.0795 -12.5583 5.32257 66.546
8220939 16.0663 5.58992 34 11.1461 -12.4735 5.27449 66.8024
8220949 16.0663 5.58992 34 11.1461 -12.4735 5.27449 66.8024
8220962 16.1104 5.65439 34 11.1176 -12.4616 5.23744 66.8823
8220971 16.1632 5.70043 34 11.1652 -12.4191 5.21451 67.0288
8220981 16.1632 5.70043 34 11.1652 -12.4191 5.21451 67.0288
8220991 16.1456 5.75569 34 11.2413 -12.3426 5.21428 67.1426
8221001 16.1808 5.85699 34 11.2794 -12.2719 5.17882 67.3172
8221016 16.1808 5.85699 34 11.2794 -12.2719 5.17882 67.3172
8221021 16.1544 5.82015 34 11.327 -12.261 5.20473 67.3015
8221041 16.1544 5.82015 34 11.327 -12.261 5.20473 67.3015
8221043 16.1104 5.7649 34 11.3936 -12.2463 5.24426 67.2689
8221052 16.0839 5.81094 34 11.4793 -12.1685 5.25077 67.3742
8221073 16.0839 5.81094 34 11.4793 -12.1685 5.25077 67.3742
8221075 16.0311 5.83857 34 11.5174 -12.1222 5.26385 67.387
8221082 16.0047 5.80173 34 11.4602 -12.169 5.27465 67.2666
8221104 16.0047 5.80173 34 11.4602 -12.169 5.27465 67.2666
8221106 16.0839 5.88462 34 11.3936 -12.1751 5.21622 67.3622
8221112 16.0839 5.88462 34 11.3936 -12.1751 5.21622 67.3622
8221131 16.0839 5.78332 34 11.3555 -12.2522 5.24114 67.2228
8221132 16.2249 5.88462 34 11.4127 -12.1914 5.17678 67.5221
8221157 16.2601 5.84778 34 11.346 -12.2551 5.16756 67.4539
8221162 16.3658 5.85699 34 11.346 -12.27 5.13326 67.5688
8221175 16.3658 5.85699 34 11.346 -12.27 5.13326 67.5688
8221184 16.4715 5.94908 34 11.4412 -12.187 5.08842 67.8618
8221192 16.4715 5.94908 34 11.4412 -12.187 5.08842 67.8618
8221216 16.4451 6.02275 34 11.603 -12.0534 5.09804 68.0709
8221218 16.4715 6.05959 34 11.7744 -11.9454 5.10427 68.3054
8221222 16.4715 6.05959 34 11.7744 -11.9454 5.10427 68.3054
8221232 16.4979 6.17931 34 12.0599 -11.7326 5.10263 68.7371
8221247 16.3041 6.28982 34 12.3931 -11.4591 5.17469 68.987
8221252 16.3041 6.28982 34 12.3931 -11.4591 5.17469 68.987
8221262 16.2513 6.32665 34 12.7738 -11.2293 5.23329 69.3517
8221272 16.2513 6.32665 34 12.7738 -11.2293 5.23329 69.3517
8221283 16.0575 6.55688 34 13.3735 -10.7616 5.30643 69.9879
8221311 15.8637 6.7779 34 14.0873 -10.2499 5.39646 70.729
8221313 15.6171 7.02654 34 14.8774 -9.68707 5.50197 71.521
8221323 15.3793 7.40412 34 15.7531 -9.03755 5.57713 72.5365
8221343 15.1238 7.80932 34 16.6383 -8.38512 5.64862 73.5714
8221353 15.1238 7.80932 34 16.6383 -8.38512 5.64862 73.5714
8221366 14.7803 8.07638 34 17.604 -7.75574 5.7911 74.4607
8221378 14.4016 8.48158 34 18.6756 -7.02907 5.91444 75.5588
8221392 14.4016 8.48158 34 18.6756 -7.02907 5.91444 75.5588
8221396 14.0228 8.97887 32.6219 19.9226 -5.87163 5.86585 75.5462
8221404 13.6352 9.54984 31.0961 21.3352 -4.5778 5.80158 75.6164
8221420 13.6352 9.54984 31.0961 21.3352 -4.5778 5.80158 75.6164
8221424 13.2036 10.084 29.4227 23.0693 -3.12519 5.7808 75.7796
8221434 13.2036 10.084 29.4227 23.0693 -3.12519 5.7808 75.7796
8221448 12.6663 10.6365 27.6705 24.7937 -1.61899 5.77323 75.7671
8221454 12.1819 11.2167 26.0955 26.5473 -0.168803 5.76876 76.0414
8221464 12.1819 11.2167 26.0955 26.5473 -0.168803 5.76876 76.0414
8221478 11.6269 11.7324 24.5599 28.106 1.20077 5.78228 76.0253
8221484 11.028 12.1468 23.172 29.6453 2.49767 5.8511 75.992
8221502 11.028 12.1468 23.172 29.6453 2.49767 5.8511 75.992
8221504 10.4554 12.5336 21.8628 31.0871 3.72091 5.91808 75.9389
8221516 10.4554 12.5336 21.8628 31.0871 3.72091 5.91808 75.9389
8221530 9.83005 12.9112 20.5634 32.5777 4.97328 6.00928 75.8823
8221536 9.36321 13.2611 19.4806 33.8831 6.02081 6.06794 75.988
8221546 9.36321 13.2611 19.4806 33.8831 6.02081 6.06794 75.988
8221558 8.89637 13.7492 18.5947 34 6.73115 5.9707 75.2402
8221566 8.57047 14.2649 17.7973 34 7.33495 5.8209 74.6327
8221584 8.57047 14.2649 17.7973 34 7.33495 5.8209 74.6327
8221587 8.26218 14.7346 17.0886 34 7.89083 5.68774 74.0853
8221596 8.26218 14.7346 17.0886 34 7.89083 5.68774 74.0853
8221622 7.8658 15.0753 16.3346 34 8.48677 5.60762 73.2757
8221624 7.52228 15.3608 15.7003 34 9.00282 5.54202 72.5834
8221626 7.52228 15.3608 15.7003 34 9.00282 5.54202 72.5834
8221638 7.16995 15.7476 15.1492 34 9.51493 5.45988 72.0667
8221646 6.9057 16.0054 14.619 34 9.95412 5.39099 71.5301
8221655 6.9057 16.0054 14.619 34 9.95412 5.39099 71.5301
8221666 6.62383 16.3185 14.307 34 10.3115 5.33998 71.2494
8221687 6.38601 16.4935 14.0159 34 10.6113 5.31834 70.8954
8221698 6.20104 16.7145 13.7976 34 10.8593 5.27809 70.7131
8221714 6.20104 16.7145 13.7976 34 10.8593 5.27809 70.7131
8221717 6.12176 16.9632 13.6 34 11.0495 5.20233 70.6849
8221727 5.98083 17.1945 13.4232 34 11.2575 5.15192 70.5986
8221737 5.98083 17.1945 13.4232 34 11.2575 5.15192 70.5986
8221747 5.92798 17.5641 13.392 34 11.3721 5.05755 70.8841
8221764 5.92798 17.5641 13.392 34 11.3721 5.05755 70.8841
8221767 5.8399 17.7878 13.1633 34 11.5779 4.987 70.791
8221777 5.78705 18.2254 12.9865 34 11.779 4.85375 70.999
8221797 5.78705 18.2254 12.9865 34 11.779 4.85375 70.999
8221798 5.77824 18.6436 12.8098 34 11.9524 4.71447 71.2316
8221808 5.66373 18.9937 12.6018 34 12.1837 4.61927 71.2593
8221828 5.66373 18.9937 12.6018 34 12.1837 4.61927 71.2593
8221830 5.63731 19.3438 12.5187 34 12.3035 4.51837 71.4998
8221838 5.63731 19.3438 12.5187 34 12.3035 4.51837 71.4998
8221856 5.55803 19.5675 12.3523 34 12.4714 4.45455 71.4778
8221858 5.61088 19.762 12.2795 34 12.5158 4.37667 71.6524
8221868 5.61088 19.762 12.2795 34 12.5158 4.37667 71.6524
8221884 5.61969 20.0732 12.2483 34 12.5815 4.28587 71.9412
8221888 5.61088 20.258 12.082 34 12.7049 4.21393 71.9508
8221898 5.61088 20.258 12.082 34 12.7049 4.21393 71.9508
8221912 5.72539 20.5595 12.0508 34 12.7127 4.09879 72.3356
8221929 5.77824 20.8221 12.0196 34 12.7459 4.01115 72.6199
8221940 5.80466 21.0166 11.9364 34 12.8081 3.94085 72.7576
8221949 5.80466 21.0166 11.9364 34 12.8081 3.94085 72.7576
8221969 5.93679 21.2403 11.978 34 12.7556 3.85502 73.155
8221971 6.01606 21.3375 11.874 34 12.7846 3.79374 73.2276
8221996 6.02487 21.4834 11.8116 34 12.8365 3.74455 73.3199
8222007 6.02487 21.4834 11.8116 34 12.8365 3.74455 73.3199
8222028 6.11295 21.5904 11.8324 34 12.7982 3.69801 73.5358
8222030 6.06891 21.5904 11.7908 34 12.8423 3.70282 73.4501
8222042 6.17461 21.6196 11.7492 34 12.8141 3.66214 73.5434
8222050 6.15699 21.6293 11.7908 34 12.8034 3.67055 73.5771
8222066 6.15699 21.6293 11.7908 34 12.8034 3.67055 73.5771
8222071 6.2715 21.6098 11.8636 34 12.7042 3.65766 73.7449
8222081 6.2715 21.6098 11.8636 34 12.7042 3.65766 73.7449
8222090 6.28912 21.5126 11.8532 34 12.6842 3.67623 73.6549
8222101 6.3772 21.4251 11.9572 34 12.5715 3.69206 73.7594
8222112 6.3772 21.4251 11.9572 34 12.5715 3.69206 73.7594
8222126 6.39482 21.25 11.978 34 12.5223 3.73522 73.6228
8222133 6.42124 21.0652 12.2379 34 12.3453 3.81518 73.7244
8222141 6.42124 21.0652 12.2379 34 12.3453 3.81518 73.7244
8222151 6.4829 20.8221 12.3939 34 12.1933 3.88518 73.6989
8222161 6.4829 20.8221 12.3939 34 12.1933 3.88518 73.6989
8222171 6.50052 20.54 12.5706 34 12.046 3.97971 73.6112
8222182 6.57979 20.4622 12.6642 34 11.9455 3.99332 73.7063
8222191 6.57979 20.4622 12.6642 34 11.9455 3.99332 73.7063
8222206 6.65907 20.2483 12.8722 34 11.7638 4.05902 73.7795
8222211 6.76477 20.1219 13.1009 34 11.575 4.09818 73.9875
8222223 6.76477 20.1219 13.1009 34 11.575 4.09818 73.9875
8222231 6.89689 19.7912 13.3193 34 11.3418 4.18158 74.0073
8222240 6.89689 19.7912 13.3193 34 11.3418 4.18158 74.0073
8222252 7.0114 19.5675 13.6416 34 11.0867 4.25678 74.2205
8222261 7.24922 19.3244 14.0887 34 10.7104 4.32248 74.6623
8222274 7.24922 19.3244 14.0887 34 10.7104 4.32248 74.6623
8222280 7.47824 19.0034 14.6709 34 10.2639 4.42884 75.1526
8222290 7.47824 19.0034 14.6709 34 10.2639 4.42884 75.1526
8222301 7.62798 18.5852 15.118 34 9.90267 4.56082 75.3313
8222310 7.80414 18.0698 15.8043 34 9.4021 4.74318 75.6782
8222322 7.80414 18.0698 15.8043 34 9.4021 4.74318 75.6782
8222332 7.92746 17.5835 16.5113 34 8.92658 4.93283 76.0223
8222347 8.11244 16.9355 17.3937 33.7759 8.26753 5.14088 76.2177
8222352 8.11244 16.9355 17.3937 33.7759 8.26753 5.14088 76.2177
8222362 8.30622 16.2541 18.3486 33.1914 7.48705 5.31793 76.1003
8222372 8.30622 16.2541 18.3486 33.1914 7.48705 5.31793 76.1003
8222382 8.55285 15.6186 19.4511 32.5679 6.62242 5.48248 76.1905
8222397 8.79067 15.0477 20.7898 31.8372 5.6576 5.6474 76.4654
8222402 8.79067 15.0477 20.7898 31.8372 5.6576 5.6474 76.4654
8222412 9.16943 14.4583 22.1187 30.8923 4.58724 5.75099 76.6387
8222423 9.59223 13.8137 23.4378 29.7817 3.44708 5.83623 76.6253
8222437 9.59223 13.8137 23.4378 29.7817 3.44708 5.83623 76.6253
8222443 10.0326 13.1874 24.8159 28.3983 2.2036 5.88625 76.4342
8222452 10.0326 13.1874 24.8159 28.3983 2.2036 5.88625 76.4342
8222462 10.4731 12.5152 26.4007 26.937 0.844529 5.96444 76.3259
8222472 11.0104 11.7416 27.9954 25.2808 -0.652167 6.02229 76.0281
8222482 11.0104 11.7416 27.9954 25.2808 -0.652167 6.02229 76.0281
8222492 11.5124 11.0417 29.7672 23.5272 -2.21188 6.07928 75.8486
8222502 11.9705 10.2313 31.4702 21.9295 -3.73003 6.18994 75.6015
8222518 11.9705 10.2313 31.4702 21.9295 -3.73003 6.18994 75.6015
8222523 12.3933 9.513 33.0452 20.5656 -5.08488 6.29749 75.517
8222533 12.3933 9.513 33.0452 20.5656 -5.08488 6.29749 75.517
8222543 12.6751 8.88678 34 19.3868 -6.13804 6.36933 74.9487
8222553 12.9746 8.43554 34 18.51 -6.77388 6.31084 73.9202
8222566 12.9746 8.43554 34 18.51 -6.77388 6.31084 73.9202
8222573 13.2477 8.13164 34 17.6917 -7.32997 6.22252 73.071
8222583 13.644 7.98429 34 16.9905 -7.8042 6.06499 72.6188
8222593 13.644 7.98429 34 16.9905 -7.8042 6.06499 72.6188
8222603 13.9964 7.8922 34 16.4289 -8.1845 5.9198 72.3175
8222616 13.9964 7.8922 34 16.4289 -8.1845 5.9198 72.3175
8222626 14.2606 7.70802 34 15.7436 -8.64882 5.80966 71.7122
8222640 14.472 7.57909 34 15.0963 -9.0645 5.70193 71.1474
8222648 14.472 7.57909 34 15.0963 -9.0645 5.70193 71.1474
8222657 14.701 7.39491 34 14.5062 -9.48979 5.61107 70.6021
8222674 14.8508 7.17389 34 14.0778 -9.8424 5.57466 70.1025
8222676 14.8508 7.17389 34 14.0778 -9.8424 5.57466 70.1025
8222687 14.9301 6.97129 34 13.659 -10.1709 5.55439 69.5604
8222704 14.9653 6.75027 34 13.2973 -10.4755 5.56021 69.0129
8222714 15.0886 6.55688 34 13.0879 -10.7094 5.55242 68.7334
8222724 15.0886 6.55688 34 13.0879 -10.7094 5.55242 68.7334
8222736 15.0798 6.45558 34 12.869 -10.8748 5.55526 68.4044
8222746 15.1062 6.2714 34 12.631 -11.1029 5.5699 68.0086
8222760 15.1062 6.2714 34 12.631 -11.1029 5.5699 68.0086
8222766 15.1591 6.19772 34 12.4787 -11.234 5.55504 67.8355
8222776 15.1591 6.19772 34 12.4787 -11.234 5.55504 67.8355
8222785 15.1062 6.01354 34 12.3835 -11.3732 5.6139 67.5033
8222796 15.1326 5.88462 34 12.3359 -11.4739 5.63864 67.3532
8222807 15.1326 5.88462 34 12.3359 -11.4739 5.63864 67.3532
8222816 15.1415 5.73727 34 12.2122 -11.623 5.66399 67.0909
8222831 15.0974 5.58992 34 11.9742 -11.8259 5.68999 66.6616
8222847 15.0974 5.58992 34 11.9742 -11.8259 5.68999 66.6616
8222848 15.0622 5.41495 34 11.8695 -11.9741 5.74085 66.3467
8222856 15.0622 5.41495 34 11.8695 -11.9741 5.74085 66.3467
8222866 14.9389 5.32286 34 11.6411 -12.1296 5.77655 65.9028
8222880 14.9565 5.2584 34 11.5459 -12.2232 5.778 65.7608
8222886 14.9565 5.2584 34 11.5459 -12.2232 5.778 65.7608
8222896 14.9917 5.28602 34 11.4983 -12.2413 5.75147 65.7761
8222906 15.071 5.23077 34 11.4793 -12.2987 5.74121 65.781
8222929 15.1591 5.27681 34 11.5078 -12.2735 5.70303 65.9437
8222939 15.1591 5.27681 34 11.5078 -12.2735 5.70303 65.9437
8222954 15.1591 5.39653 34 11.6792 -12.1097 5.68966 66.2348
8222957 15.2383 5.57151 34 11.6601 -12.038 5.60786 66.47
8222967 15.2383 5.57151 34 11.6601 -12.038 5.60786 66.47
8222981 15.2295 5.60834 34 11.6506 -12.0211 5.59783 66.4885
8222987 15.2207 5.60834 34 11.7268 -11.977 5.61131 66.5558
8223007 15.1503 5.75569 34 11.7648 -11.8604 5.59291 66.6708
8223017 15.1503 5.75569 34 11.7648 -11.8604 5.59291 66.6708
8223031 15.1062 5.74648 34 11.9076 -11.778 5.62945 66.7603
8223037 15.0269 5.92145 34 11.9647 -11.6348 5.60794 66.9131
8223057 15.0269 5.92145 34 11.9647 -11.6348 5.60794 66.9131
8223071 14.9389 6.21614 34 12.0504 -11.4099 5.55656 67.2054
8223083 14.9389 6.21614 34 12.0504 -11.4099 5.55656 67.2054
8223087 14.9389 6.34507 34 12.2312 -11.2429 5.5426 67.5152
8223097 14.9389 6.34507 34 12.2312 -11.2429 5.5426 67.5152
8223110 14.8684 6.42795 34 12.3169 -11.1382 5.55081 67.6133
8223117 14.8332 6.58451 34 12.4882 -10.9565 5.53794 67.9059
8223137 14.8332 6.58451 34 12.4882 -10.9565 5.53794 67.9059
8223138 14.7363 6.60293 34 12.6596 -10.8361 5.58548 67.9988
8223148 14.6218 6.69502 34 12.8214 -10.6788 5.61461 68.1382
8223168 14.6218 6.69502 34 12.8214 -10.6788 5.61461 68.1382
8223170 14.5073 6.79632 34 13.1069 -10.4531 5.65776 68.4105
8223178 14.5073 6.79632 34 13.1069 -10.4531 5.65776 68.4105
8223197 14.3927 6.83315 34 13.3163 -10.3014 5.70971 68.5423
8223198 14.199 6.91603 34 13.5353 -10.1047 5.7728 68.6503
8223208 14.199 6.91603 34 13.5353 -10.1047 5.7728 68.6503
8223223 14.0933 7.03575 34 13.6685 -9.95274 5.78644 68.7975
8223228 13.8642 7.03575 34 13.6685 -9.90249 5.85586 68.5685
8223238 13.8642 7.01733 34 14.0017 -9.74302 5.90566 68.8833
8223249 13.785 7.04496 34 14.3634 -9.53005 5.96881 69.1933
8223260 13.785 7.04496 34 14.3634 -9.53005 5.96881 69.1933
8223275 13.644 7.13705 34 14.8203 -9.22637 6.04281 69.6014
8223278 13.4943 7.32124 34 15.3914 -8.82452 6.10535 70.2069
8223288 13.4943 7.32124 34 15.3914 -8.82452 6.10535 70.2069
8223300 13.415 7.46858 34 15.9339 -8.4769 6.15321 70.8175
8223326 13.3181 7.62514 34 16.4099 -8.15771 6.19453 71.3531
8223327 13.3181 7.62514 34 16.4099 -8.15771 6.19453 71.3531
8223331 13.1332 7.90141 34 17.0195 -7.70681 6.24217 72.0541
8223340 13.1332 7.90141 34 17.0195 -7.70681 6.24217 72.0541
8223352 12.9658 8.11322 34 17.7989 -7.22227 6.32287 72.8779
8223359 12.7456 8.36186 34 18.7828 -6.63177 6.43021 73.8903
8223378 12.7456 8.36186 34 18.7828 -6.63177 6.43021 73.8903
8223379 12.4461 8.74865 34 20.098 -5.84368 6.55506 75.2928
8223389 12.0585 9.09859 33.0452 21.5301 -4.77835 6.61899 75.7324
8223412 12.0585 9.09859 33.0452 21.5301 -4.77835 6.61899 75.7324
8223414 11.715 9.54984 31.4603 23.2837 -3.40153 6.60696 76.0089
8223420 11.715 9.54984 31.4603 23.2837 -3.40153 6.60696 76.0089
8223446 11.2922 10.0471 29.8164 25.0373 -1.97665 6.59791 76.1931
8223448 10.8606 10.4892 28.1529 26.6739 -0.607274 6.59199 76.1766
8223452 10.8606 10.4892 28.1529 26.6739 -0.607274 6.59199 76.1766
8223460 10.5347 11.1246 26.5877 28.106 0.690272 6.48981 76.3531
8223474 10.156 11.6035 25.1407 29.3822 1.86447 6.44255 76.2824
8223481 10.156 11.6035 25.1407 29.3822 1.86447 6.44255 76.2824
8223491 9.80363 12.1468 23.7626 30.5318 2.98787 6.36318 76.2448
8223501 9.80363 12.1468 23.7626 30.5318 2.98787 6.36318 76.2448
8223511 9.53057 12.5336 22.3943 31.4573 3.97348 6.2808 75.9158
8223528 9.32798 13.0585 21.2426 32.3926 4.89349 6.16575 76.0217
8223541 9.11658 13.4453 20.2386 33.0648 5.65309 6.07817 75.8652
8223561 8.98446 13.8873 19.3329 33.659 6.33667 5.95545 75.8638
8223572 8.84352 14.3294 18.3683 34 6.98876 5.79725 75.5412
8223585 8.84352 14.3294 18.3683 34 6.98876 5.79725 75.5412
8223592 8.7114 14.7069 17.63 34 7.45038 5.6387 75.0483
8223602 8.59689 15.1398 17.0394 34 7.85796 5.4769 74.776
8223616 8.59689 15.1398 17.0394 34 7.85796 5.4769 74.776
8223622 8.41192 15.6094 16.3346 34 8.35944 5.30823 74.3559
8223632 8.21813 15.6094 15.9083 34 8.63998 5.30557 73.7358
8223646 8.21813 15.9594 15.9083 34 8.71726 5.20965 74.0858
8223652 8.09482 16.2356 15.5651 34 8.99096 5.12236 73.8956
8223662 8.09482 16.2356 15.5651 34 8.99096 5.12236 73.8956
8223676 7.96269 16.429 15.326 34 9.20414 5.0736 73.7177
8223683 7.72487 16.5303 15.0453 34 9.46795 5.07297 73.3005
8223692 7.72487 16.5303 15.0453 34 9.46795 5.07297 73.3005
8223704 7.6456 16.6869 14.7853 34 9.66111 5.01646 73.1178
8223712 7.6456 16.6869 14.7853 34 9.66111 5.01646 73.1178
8223722 7.47824 16.6961 14.7021 34 9.78221 5.0485 72.8765
8223732 7.28446 16.7421 14.515 34 9.97452 5.06366 72.5416
8223742 7.28446 16.7421 14.515 34 9.97452 5.06366 72.5416
8223758 7.0114 16.6869 14.307 34 10.1966 5.12644 72.0053
8223762 6.8 16.7421 14.0783 34 10.4244 5.13879 71.6204
8223772 6.8 16.7421 14.0783 34 10.4244 5.13879 71.6204
8223785 6.59741 16.8158 13.9327 34 10.6123 5.15506 71.3459
8223793 6.59741 16.8158 13.9327 34 10.6123 5.15506 71.3459
8223812 6.44767 16.9816 13.7144 34 10.83 5.1203 71.1436
8223813 6.3772 17.282 13.5792 34 10.9932 5.0366 71.2384
8223823 6.3772 17.282 13.5792 34 10.9932 5.0366 71.2384
8223841 6.2715 17.5738 13.4544 34 11.1669 4.96688 71.2997
8223843 6.17461 17.7878 13.3713 34 11.2997 4.92241 71.3336
8223853 6.17461 17.7878 13.3713 34 11.2997 4.92241 71.3336
8223870 6.12176 17.8947 13.3089 34 11.3789 4.89848 71.3254
8223876 6.12176 17.8947 13.3089 34 11.3789 4.89848 71.3254
8223883 5.99845 17.9336 13.2569 34 11.4759 4.91469 71.189
8223899 5.9456 18.099 13.3193 34 11.5024 4.89212 71.3638
8223903 5.9456 18.099 13.3193 34 11.5024 4.89212 71.3638
8223913 5.85751 18.2254 13.1841 34 11.6407 4.86225 71.267
8223927 5.8487 18.3616 13.2465 34 11.6386 4.8357 71.4567
8223933 5.8487 18.3616 13.2465 34 11.6386 4.8357 71.4567
8223943 5.8487 18.488 13.2257 34 11.6729 4.7977 71.5624
8223958 5.8487 18.488 13.2257 34 11.6729 4.7977 71.5624
8223963 5.85751 18.6241 13.1217 34 11.747 4.74281 71.6034
8223982 5.89275 18.8673 13.0177 34 11.8271 4.65138 71.7778
8223984 5.89275 18.8673 13.0177 34 11.8271 4.65138 71.7778
8223994 5.93679 19.1104 12.945 34 11.8862 4.56253 71.9922
8224010 5.9456 19.3049 12.8722 34 11.9543 4.49685 72.1227
8224015 5.9456 19.3049 12.8722 34 11.9543 4.49685 72.1227
8224025 6.04249 19.5189 12.737 34 12.0125 4.39338 72.2984
8224037 6.04249 19.5189 12.737 34 12.0125 4.39338 72.2984
8224044 6.07772 19.6745 12.6122 34 12.0862 4.32395 72.3644
8224054 6.02487 19.8495 12.6226 34 12.1391 4.29291 72.497
8224078 6.02487 19.8495 12.6226 34 12.1391 4.29291 72.497
8224081 6.11295 19.9273 12.5291 34 12.1557 4.235 72.5694
8224093 6.13938 20.0149 12.6434 34 12.0993 4.22181 72.7977
8224094 6.13938 20.0149 12.6434 34 12.0993 4.22181 72.7977
8224104 6.11295 19.9954 12.6642 34 12.0987 4.237 72.7726
8224123 6.11295 19.9954 12.6642 34 12.0987 4.237 72.7726
8224124 6.1658 19.8301 12.7578 34 11.9947 4.28059 72.7537
8224135 6.18342 19.8204 12.8202 34 11.9524 4.28768 72.824
8224150 6.18342 19.8204 12.8202 34 11.9524 4.28768 72.824
8224154 6.28912 19.655 12.9554 34 11.8007 4.32332 72.8995
8224178 6.32435 19.587 13.0697 34 11.7129 4.34875 72.981
8224186 6.38601 19.4605 13.2569 34 11.565 4.39316 73.1034
8224206 6.38601 19.2466 13.3713 34 11.4683 4.46662 73.0038
8224216 6.45648 19.1007 13.5376 34 11.3232 4.51067 73.0948
8224236 6.45648 19.1007 13.5376 34 11.3232 4.51067 73.0948
8224238 6.50933 18.8673 13.6832 34 11.1808 4.57979 73.0598
8224246 6.62383 18.7214 14.0367 34 10.9226 4.63836 73.3819
8224267 6.62383 18.7214 14.0367 34 10.9226 4.63836 73.3819
8224268 6.73834 18.4102 14.2862 34 10.6849 4.72618 73.4348
8224276 6.73834 18.4102 14.2862 34 10.6849 4.72618 73.4348
8224298 6.83523 18.1087 14.8165 34 10.3229 4.85475 73.7604
8224300 6.98497 17.778 15.3676 34 9.92352 4.97863 74.1306
8224307 6.98497 17.778 15.3676 34 9.92352 4.97863 74.1306
8224332 7.20518 17.4376 16.1058 34 9.40708 5.10972 74.7486
8224334 7.36373 17.0584 16.8856 34 8.89982 5.27108 75.3077
8224337 7.36373 17.0584 16.8856 34 8.89982 5.27108 75.3077
8224347 7.63679 16.558 17.758 34 8.28252 5.44349 75.9527
8224367 7.63679 16.558 17.758 34 8.28252 5.44349 75.9527
8224368 7.90984 16.0238 18.6144 33.8636 7.64387 5.60339 76.4117
8224377 8.22694 15.5081 19.6578 32.8699 6.71799 5.66318 76.2628
8224397 8.55285 14.8727 21.1048 31.6229 5.52766 5.77169 76.1533
8224408 8.93161 14.0899 22.7881 30.3175 4.16663 5.92772 76.1271
8224421 8.93161 14.0899 22.7881 30.3175 4.16663 5.92772 76.1271
8224427 9.41606 13.4361 24.806 28.71 2.59402 6.02291 76.3682
8224437 9.41606 13.4361 24.806 28.71 2.59402 6.02291 76.3682
8224452 9.94456 12.6165 26.7846 26.9564 0.93174 6.12959 76.3021
8224457 10.5523 11.9258 28.8715 25.2613 -0.729883 6.19781 76.6109
8224467 10.5523 11.9258 28.8715 25.2613 -0.729883 6.19781 76.6109
8224491 11.1337 11.2443 30.791 23.4785 -2.34901 6.2412 76.6475
8224493 11.6181 10.3602 32.5038 21.8808 -3.88961 6.36556 76.3629
8224498 11.6181 10.3602 32.5038 21.8808 -3.88961 6.36556 76.3629
8224523 12.0674 9.67877 34 20.4097 -5.24544 6.43357 76.1559
8224525 12.0674 9.67877 34 20.4097 -5.24544 6.43357 76.1559
8224528 12.4109 9.04334 34 19.0069 -6.16452 6.3562 74.4611
8224538 12.7632 8.56446 34 17.8573 -6.94864 6.25736 73.185
8224550 12.7632 8.56446 34 17.8573 -6.94864 6.25736 73.185
8224558 13.0451 8.1961 34 16.9524 -7.58259 6.17324 72.1936
8224577 13.0451 8.1961 34 16.9524 -7.58259 6.17324 72.1936
8224578 13.2741 7.90141 34 16.1053 -8.16048 6.08785 71.2808
8224603 13.5472 7.77248 34 15.439 -8.59814 5.96097 70.7586
8224604 13.5472 7.77248 34 15.439 -8.59814 5.96097 70.7586
8224611 13.785 7.53304 34 14.7822 -9.08333 5.87677 70.1002
8224619 13.9523 7.24756 34 14.2587 -9.51866 5.84351 69.4586
8224631 13.9523 7.24756 34 14.2587 -9.51866 5.84351 69.4586
8224640 14.1373 6.9805 34 13.8494 -9.8987 5.81398 68.9672
8224657 14.1725 6.64897 34 13.3735 -10.3197 5.8403 68.195
8224660 14.1725 6.64897 34 13.3735 -10.3197 5.8403 68.195
8224669 14.1021 6.40032 34 13.0879 -10.5836 5.9 67.5903
8224693 14.0404 6.15168 34 12.7928 -10.8591 5.95673 66.9849
8224699 14.0404 5.93987 34 12.6025 -11.0757 5.99754 66.5827
8224712 14.0404 5.93987 34 12.6025 -11.0757 5.99754 66.5827
8224719 14.0756 5.79252 34 12.355 -11.2982 5.99945 66.2232
8224735 14.0756 5.79252 34 12.355 -11.2982 5.99945 66.2232
8224739 14.0668 5.60834 34 12.2598 -11.4502 6.04791 65.935
8224750 14.0404 5.54388 34 12.0885 -11.5756 6.05369 65.6728
8224771 14.058 5.36891 34 12.0123 -11.7196 6.09391 65.4393
8224781 14.1373 5.34128 34 11.9742 -11.7725 6.07208 65.4528
8224795 14.1373 5.34128 34 11.9742 -11.7725 6.07208 65.4528
8224801 14.243 5.33207 34 11.8029 -11.8954 6.01758 65.378
8224812 14.1373 5.23077 34 11.7839 -11.9423 6.08174 65.1519
8224825 14.1373 5.23077 34 11.7839 -11.9423 6.08174 65.1519
8224832 14.3487 5.1571 34 11.6506 -12.102 6.01893 65.1564
8224842 14.3487 5.1571 34 11.6506 -12.102 6.01893 65.1564
8224855 14.5073 5.1571 34 11.5554 -12.1875 5.95473 65.2198
8224862 14.7979 5.23077 34 11.4793 -12.2458 5.82767 65.508
8224886 14.7979 5.23077 34 11.4793 -12.2458 5.82767 65.508
8224887 15.1238 5.34128 34 11.346 -12.3218 5.67098 65.8111
8224901 15.4233 5.43337 34 11.2794 -12.3649 5.5392 66.1361
8224903 15.4233 5.43337 34 11.2794 -12.3649 5.5392 66.1361
8224918 15.6435 5.51625 34 11.2794 -12.3601 5.4455 66.4392
8224923 15.6435 5.51625 34 11.2794 -12.3601 5.4455 66.4392
8224933 15.8725 5.63597 34 11.2413 -12.3578 5.33323 66.7498
8224946 16.0663 5.81094 34 11.2794 -12.2758 5.22706 67.1567
8224953 16.0663 5.81094 34 11.2794 -12.2758 5.22706 67.1567
8224963 16.1632 6.02275 34 11.2604 -12.1875 5.13173 67.4463
8224974 16.2073 6.09642 34 11.2413 -12.1658 5.09386 67.545
8225007 16.2073 6.13326 34 11.1366 -12.2032 5.06752 67.4771
8225009 16.2073 6.13326 34 11.1366 -12.2032 5.06752 67.4771
8225013 16.2513 6.24377 34 11.0985 -12.1716 5.01604 67.5936
8225040 16.2865 6.18852 34 11.0319 -12.2454 5.01212 67.507
8225041 16.2865 6.18852 34 11.0319 -12.2454 5.01212 67.507
8225043 16.3306 6.3727 34 10.9938 -12.1734 4.93904 67.6971
8225053 16.3834 6.3727 34 10.9938 -12.1834 4.92348 67.75
8225071 16.3834 6.51083 34 10.9748 -12.1181 4.88011 67.8691
8225073 16.4715 6.69502 34 11.0034 -12.0189 4.80495 68.1699
8225083 16.4715 6.69502 34 11.0034 -12.0189 4.80495 68.1699
8225107 16.5772 6.73185 34 10.9462 -12.05 4.75506 68.2553
8225108 16.6829 6.83315 34 10.9653 -12.0049 4.69819 68.4813
8225132 16.8591 7.02654 34 10.8796 -11.9802 4.5795 68.7652
8225135 16.8591 7.02654 34 10.8796 -11.9802 4.5795 68.7652
8225143 16.9472 7.13705 34 11.0034 -11.8714 4.54188 69.0876
8225161 17.1096 7.24756 34 11.0129 -11.8384 4.46642 69.3701
8225174 17.1594 7.32124 34 11.051 -11.7886 4.43761 69.5316
8225192 17.2491 7.487 34 11.1081 -11.6882 4.37515 69.8442
8225194 17.2491 7.487 34 11.1081 -11.6882 4.37515 69.8442
8225204 17.3488 7.63434 34 11.1652 -11.6002 4.31559 70.1483
8225233 17.4385 7.82774 34 11.1747 -11.5118 4.23941 70.4409
8225237 17.4385 7.82774 34 11.1747 -11.5118 4.23941 70.4409
8225259 17.4883 8.01192 34 11.2318 -11.3967 4.18445 70.732
8225260 17.558 8.15005 34 11.3175 -11.2954 4.14134 71.0256
8225266 17.6178 8.27898 34 11.3365 -11.2315 4.09353 71.2333
8225276 17.6178 8.27898 34 11.3365 -11.2315 4.09353 71.2333
8225291 17.6676 8.44475 34 11.4317 -11.109 4.0505 71.5441
8225296 17.6278 8.57367 34 11.6887 -10.9074 4.06604 71.8902
8225306 17.6278 8.57367 34 11.6887 -10.9074 4.06604 71.8902
8225319 17.5082 8.75785 34 12.0314 -10.6224 4.10083 72.2974
8225326 17.5082 8.75785 34 12.0314 -10.6224 4.10083 72.2974
8225336 17.4185 9.03413 34 12.4978 -10.2421 4.12166 72.9504
8225348 17.2093 9.33803 34 13.0022 -9.81277 4.17167 73.5495
8225356 17.2093 9.33803 34 13.0022 -9.81277 4.17167 73.5495
8225375 16.9295 9.8169 34 13.7447 -9.18497 4.22834 74.4911
8225376 16.6389 10.2589 33.6948 14.8203 -8.37207 4.29979 75.4129
8225386 16.6389 10.2589 33.6948 14.8203 -8.37207 4.29979 75.4129
8225406 16.2513 10.7562 32.4349 16.1909 -7.18566 4.28745 75.6333
8225408 16.2513 10.7562 32.4349 16.1909 -7.18566 4.28745 75.6333
8225416 15.7052 11.3732 30.8599 17.945 -5.68202 4.29471 75.8833
8225439 15.0358 12.0639 29.2455 19.9616 -4.01528 4.34577 76.3068
8225440 15.0358 12.0639 29.2455 19.9616 -4.01528 4.34577 76.3068
8225447 14.3135 12.7546 27.6213 21.91 -2.37278 4.39884 76.5994
8225470 14.3135 12.7546 27.6213 21.91 -2.37278 4.39884 76.5994
8225472 13.644 13.2243 25.8987 23.6246 -0.881574 4.44846 76.3916
8225477 12.913 13.7031 24.2843 25.1542 0.545672 4.50118 76.0546
8225487 12.913 13.7031 24.2843 25.1542 0.545672 4.50118 76.0546
8225507 12.2435 14.0899 22.9062 26.596 1.82506 4.58269 75.8356
8225509 11.6005 14.403 21.7053 27.8235 2.95262 4.67188 75.5323
8225517 11.6005 14.403 21.7053 27.8235 2.95262 4.67188 75.5323
8225535 11.1865 14.6241 20.7898 28.8367 3.80595 4.73558 75.4371
8225537 11.1865 14.6241 20.7898 28.8367 3.80595 4.73558 75.4371
8225549 10.799 14.753 20.1008 29.8791 4.54522 4.85118 75.5318
8225563 10.4202 14.8727 19.2936 30.9605 5.33423 4.95608 75.5469
8225567 10.4202 14.8727 19.2936 30.9605 5.33423 4.95608 75.5469
8225577 10.1207 15.0477 18.6833 32.0516 6.02585 5.05244 75.9032
8225592 9.82124 15.1674 18.0336 33.0648 6.6954 5.14734 76.087
8225607 9.45129 15.3516 17.4627 33.7857 7.30537 5.21599 76.0512
8225619 9.45129 15.3516 17.4627 33.7857 7.30537 5.21599 76.0512
8225627 9.10777 15.4437 17 34 7.72185 5.2511 75.5514
8225645 8.72021 15.545 16.4905 34 8.13792 5.26221 74.7557
8225647 8.72021 15.545 16.4905 34 8.13792 5.26221 74.7557
8225658 8.38549 15.5358 16.1474 34 8.43908 5.31118 74.0686
8225679 8.09482 15.6094 15.7211 34 8.78222 5.31496 73.4253
8225681 8.09482 15.6094 15.7211 34 8.78222 5.31496 73.4253
8225690 7.85699 15.6923 15.4508 34 9.0358 5.32221 73.0001
8225705 7.85699 15.6923 15.4508 34 9.0358 5.32221 73.0001
8225709 7.55751 15.6371 15.1596 34 9.30143 5.38291 72.3542
8225719 7.39896 15.7384 14.8997 34 9.52278 5.36441 72.037
8225731 7.39896 15.7384 14.8997 34 9.52278 5.36441 72.037
8225738 7.19637 15.8304 14.7021 34 9.73524 5.36924 71.729
8225760 7.0114 15.8397 14.5462 34 9.90307 5.39834 71.3972
8225763 7.0114 15.8397 14.5462 34 9.90307 5.39834 71.3972
8225770 6.91451 15.9778 14.411 34 10.0459 5.36834 71.3033
8225791 6.78238 16.0975 14.1407 34 10.2697 5.33524 71.0206
8225800 6.65907 16.4382 14.0471 34 10.4478 5.26038 71.1444
8225822 6.65907 16.4382 14.0471 34 10.4478 5.26038 71.1444
8225823 6.63264 16.7421 13.8183 34 10.637 5.15012 71.1931
8225829 6.64145 17.2334 13.548 34 10.8662 4.97176 71.4229
8225852 6.64145 17.2334 13.548 34 10.8662 4.97176 71.4229
8225853 6.61503 17.5738 13.5376 34 10.9517 4.88288 71.7264
8225862 6.61503 17.5738 13.5376 34 10.9517 4.88288 71.7264
8225879 6.57979 17.7391 13.3817 34 11.08 4.8248 71.7006
8225884 6.61503 18.0892 13.2673 34 11.1874 4.70248 71.9715
8225891 6.61503 18.0892 13.2673 34 11.1874 4.70248 71.9715
8225911 6.65026 18.3421 13.1737 34 11.265 4.61048 72.1661
8225915 6.67668 18.5852 13.1217 34 11.324 4.52998 72.3836
8225942 6.76477 18.7895 13.0385 34 11.36 4.43935 72.5928
8225943 6.76477 18.7895 13.0385 34 11.36 4.43935 72.5928
8225951 6.79119 18.9937 13.1217 34 11.3436 4.38989 72.9066
8225975 6.86166 19.0521 13.1529 34 11.3039 4.36024 73.0666
8225976 6.86166 19.0521 13.1529 34 11.3039 4.36024 73.0666
8225981 6.94974 19.0812 13.1945 34 11.2451 4.33528 73.2255
8225991 7.03782 18.9937 13.2257 34 11.1696 4.33967 73.2572
8226012 7.03782 18.9451 13.3817 34 11.0836 4.37515 73.3646
8226022 7.03782 18.9451 13.3817 34 11.0836 4.37515 73.3646
8226032 7.0114 18.8673 13.2673 34 11.1382 4.38615 73.146
8226042 7.06425 18.9159 13.3505 34 11.0804 4.37136 73.3306
8226059 7.06425 18.9159 13.3505 34 11.0804 4.37136 73.3306
8226062 7.10829 18.877 13.3297 34 11.0615 4.36699 73.315
8226073 7.14352 18.77 13.3401 34 11.0187 4.38747 73.2536
8226092 7.12591 18.7408 13.3401 34 11.0218 4.39986 73.2068
8226102 7.12591 18.7408 13.3401 34 11.0218 4.39986 73.2068
8226122 7.09948 18.5074 13.5064 34 10.9082 4.49292 73.1133
8226124 7.1171 18.4685 13.5896 34 10.8513 4.51054 73.1752
8226139 7.1171 18.4685 13.5896 34 10.8513 4.51054 73.1752
8226143 7.16114 18.4296 13.6936 34 10.7714 4.52405 73.2843
8226153 7.21399 18.3129 13.7768 34 10.6823 4.55294 73.3037
8226172 7.21399 18.3129 13.7768 34 10.6823 4.55294 73.3037
8226176 7.2228 18.1184 13.9535 34 10.554 4.62768 73.2947
8226183 7.2228 18.1184 14.1407 34 10.4634 4.6541 73.4819
8226205 7.26684 17.992 14.1407 34 10.4171 4.67616 73.3995
8226206 7.37254 17.8072 14.4422 34 10.1846 4.73958 73.6219
8226233 7.40777 17.6224 14.7021 34 10.0066 4.81579 73.7323
8226234 7.52228 17.4863 15.118 34 9.72861 4.87871 74.1266
8226244 7.52228 17.4863 15.118 34 9.72861 4.87871 74.1266
8226262 7.69845 17.3015 15.5755 34 9.39569 4.9431 74.5755
8226264 7.84819 17.0389 16.137 34 9.01501 5.04836 75.0241
8226274 7.84819 17.0389 16.137 34 9.01501 5.04836 75.0241
8226294 8.05078 16.7606 16.8752 34 8.5334 5.16549 75.6866
8226295 8.05078 16.7606 16.8752 34 8.5334 5.16549 75.6866
8226304 8.27098 16.4935 17.6989 33.5324 7.9136 5.224 75.9958
8226325 8.56166 16.1343 18.6537 32.9576 7.16725 5.29084 76.3073
8226326 8.56166 16.1343 18.6537 32.9576 7.16725 5.29084 76.3073
8226336 8.84352 15.7752 19.6676 32.0224 6.31854 5.3214 76.3087
8226356 9.10777 15.2134 21.1048 30.8825 5.20367 5.43834 76.3085
8226366 9.49534 14.5228 22.7487 29.6648 3.90659 5.57271 76.4315
8226386 9.78601 13.786 24.5599 28.2327 2.51188 5.73968 76.3646
8226396 10.1472 13.0217 26.3515 26.7811 1.08259 5.89054 76.3014
8226416 10.4907 12.4323 27.9855 25.349 -0.227819 5.98201 76.2575
8226426 10.799 11.7876 29.6097 23.9169 -1.54511 6.0975 76.1133
8226449 10.799 11.7876 29.6097 23.9169 -1.54511 6.0975 76.1133
8226450 11.1073 11.2075 31.0075 22.553 -2.75264 6.17707 75.8753
8226483 11.5212 10.8299 32.2183 21.1112 -3.89745 6.13995 75.6806
8226484 11.856 10.4523 33.3897 19.8544 -4.94322 6.14193 75.5524
8226487 11.856 10.4523 33.3897 19.8544 -4.94322 6.14193 75.5524
8226497 12.3404 10.1208 34 18.7244 -5.81736 6.03769 75.1856
8226516 12.7104 9.70639 34 17.6235 -6.5439 5.91707 74.0403
8226517 12.7104 9.70639 34 17.6235 -6.5439 5.91707 74.0403
8226527 13.2301 9.33803 34 16.7049 -7.22882 5.76 73.273
8226550 13.2301 9.33803 34 16.7049 -7.22882 5.76 73.273
8226551 13.6529 8.93283 34 15.7816 -7.92429 5.63707 72.3673
8226557 14.0316 8.6013 34 14.9535 -8.54798 5.51514 71.5864
8226567 14.0316 8.6013 34 14.9535 -8.54798 5.51514 71.5864
8226584 14.5161 8.27898 34 14.2682 -9.13584 5.37686 71.0632
8226589 14.5161 8.27898 34 14.2682 -9.13584 5.37686 71.0632
8226597 14.8684 7.84615 34 13.6685 -9.71601 5.31818 70.3831
8226616 15.256 7.56067 34 13.1545 -10.1973 5.21741 69.9712
8226617 15.256 7.56067 34 13.1545 -10.1973 5.21741 69.9712
8226628 15.4409 7.20152 34 12.6786 -10.6608 5.20105 69.3211
8226645 15.5995 6.88841 34 12.1837 -11.1136 5.17589 68.6715
8226658 15.7316 6.63976 34 11.9076 -11.4179 5.17061 68.279
8226673 15.6876 8.61972 34 11.6601 -10.5076 4.57774 69.9674
8226678 15.6876 6.26219 34 11.6601 -11.7458 5.26041 67.6099
8226688 15.6964 6.07801 34 11.4507 -11.9627 5.28293 67.2251
8226701 15.6964 6.07801 34 11.4507 -11.9627 5.28293 67.2251
8226708 15.714 5.80173 34 11.2984 -12.2032 5.3393 66.8142
8226718 15.7492 5.59913 34 11.0985 -12.4353 5.36147 66.4469
8226731 15.7492 5.59913 34 11.0985 -12.4353 5.36147 66.4469
8226738 15.9166 5.42416 34 10.9748 -12.6357 5.34582 66.3155
8226748 15.9166 5.42416 34 10.9748 -12.6357 5.34582 66.3155
8226764 16.1632 5.2584 34 10.8035 -12.8733 5.296 66.2251
8226768 16.4275 5.2584 34 10.6321 -13.0194 5.19006 66.318
8226778 16.4275 5.2584 34 10.6321 -13.0194 5.19006 66.318
8226797 16.8062 5.23077 34 10.2895 -13.3001 5.03249 66.3265
8226801 17.1893 5.23077 34 10.2324 -13.4002 4.9088 66.6525
8226808 17.1893 5.23077 34 10.2324 -13.4002 4.9088 66.6525
8226826 17.6079 5.24919 34 10.1181 -13.5276 4.76171 66.9752
8226828 17.6079 5.24919 34 10.1181 -13.5276 4.76171 66.9752
8226838 18.0164 5.21235 34 10.023 -13.6729 4.63799 67.2517
8226853 18.3951 5.2584 34 10.0325 -13.7045 4.51623 67.6859
8226869 18.8236 5.32286 34 9.90873 -13.8094 4.3558 68.0552
8226882 19.2022 5.33207 34 9.78499 -13.9365 4.22663 68.3193
8226889 19.2022 5.33207 34 9.78499 -13.9365 4.22663 68.3193
8226909 19.6208 5.47021 34 9.7374 -13.9525 4.06368 68.8284
8226919 19.8699 5.3597 34 9.6327 -14.1142 4.00868 68.8623
8226942 20.1887 5.39653 34 9.44233 -14.2515 3.88042 69.0276
8226948 20.1887 5.39653 34 9.44233 -14.2515 3.88042 69.0276
8226951 20.4379 5.40574 34 9.29955 -14.3661 3.78691 69.1432
8226974 20.6571 5.41495 34 9.17581 -14.4648 3.7049 69.2479
8226976 20.6571 5.41495 34 9.17581 -14.4648 3.7049 69.2479
8226981 20.8863 5.42416 34 9.19485 -14.4835 3.64384 69.5053
8226991 20.8863 5.42416 34 9.19485 -14.4835 3.64384 69.5053
8227006 21.0756 5.36891 34 9.00448 -14.6518 3.57672 69.449
8227011 21.2749 5.36891 34 8.97592 -14.6977 3.51885 69.6197
8227022 21.2749 5.36891 34 8.97592 -14.6977 3.51885 69.6197
8227034 21.4144 5.43337 34 8.84266 -14.7575 3.4427 69.6905
8227040 21.5739 5.47941 34 8.77604 -14.7926 3.3774 69.8293
8227060 21.5739 5.47941 34 8.77604 -14.7926 3.3774 69.8293
8227061 21.6735 5.49783 34 8.69989 -14.8401 3.33368 69.8712
8227071 21.6735 5.49783 34 8.69989 -14.8401 3.33368 69.8712
8227088 21.7632 5.51625 34 8.62374 -14.886 3.29262 69.9032
8227091 21.803 5.48862 34 8.77604 -14.8208 3.31487 70.0677
8227101 21.803 5.48862 34 8.77604 -14.8208 3.31487 70.0677
8227117 21.8728 5.50704 34 8.757 -14.8313 3.28868 70.1368
8227122 21.9326 5.55309 34 8.78555 -14.7976 3.26589 70.2712
8227132 21.9326 5.55309 34 8.78555 -14.7976 3.26589 70.2712
8227153 21.9924 5.64518 34 8.78555 -14.7543 3.2265 70.4231
8227162 21.8927 5.59913 34 8.77604 -14.7712 3.26269 70.2679
8227176 21.9625 5.65439 34 8.82363 -14.7232 3.23821 70.4405
8227182 21.9625 5.65439 34 8.82363 -14.7232 3.23821 70.4405
8227192 21.9326 5.71885 34 8.82363 -14.6825 3.22927 70.4751
8227205 21.9625 5.7649 34 8.85218 -14.645 3.21441 70.5796
8227222 21.803 5.82936 34 8.91881 -14.5479 3.25006 70.5512
8227242 21.6038 5.85699 34 9.1187 -14.3909 3.32773 70.5794
8227268 21.4543 5.90303 34 9.23292 -14.279 3.37347 70.5902
8227269 21.4543 5.90303 34 9.23292 -14.279 3.37347 70.5902
8227272 21.2052 6.05038 34 9.53751 -13.9905 3.44991 70.7931
8227282 20.8863 6.16089 34 9.78499 -13.7439 3.54454 70.8322
8227303 20.8863 6.16089 34 9.78499 -13.7439 3.54454 70.8322
8227304 20.5475 6.29903 34 10.2609 -13.3557 3.67354 71.1074
8227312 20.5475 6.29903 34 10.2609 -13.3557 3.67354 71.1074
8227332 20.0393 6.46479 34 10.8035 -12.8917 3.8494 71.3075
8227333 19.5909 6.71343 34 11.5745 -12.2786 4.02139 71.8788
8227359 18.9631 7.00813 34 12.5073 -11.5371 4.2501 72.4785
8227363 18.126 7.20152 34 13.6876 -10.6954 4.59357 73.0151
8227373 18.126 7.20152 34 13.6876 -10.6954 4.59357 73.0151
8227387 17.3787 7.61593 34 14.9726 -9.73073 4.86256 73.9672
8227393 17.3787 7.61593 34 14.9726 -9.73073 4.86256 73.9672
8227403 16.5684 7.96587 34 16.21 -8.82762 5.15271 74.7442
8227415 15.9518 8.46316 34 17.5066 -7.89699 5.35255 75.9216
8227423 15.9518 8.46316 34 17.5066 -7.89699 5.35255 75.9216
8227447 15.3617 8.96045 32.3561 18.9679 -6.54012 5.35425 75.6461
8227449 15.3617 8.96045 32.3561 18.9679 -6.54012 5.35425 75.6461
8227455 14.6482 9.43933 30.7024 20.663 -5.05222 5.42283 75.4529
8227463 13.8642 10.1024 28.9108 22.553 -3.35398 5.46806 75.4305
8227480 13.8642 10.1024 28.9108 22.553 -3.35398 5.46806 75.4305
8227486 13.1596 10.7194 27.2276 24.4917 -1.7117 5.52399 75.5982
8227493 12.3933 11.3548 25.4852 26.5473 0.00778735 5.59862 75.7806
8227510 12.3933 11.3548 25.4852 26.5473 0.00778735 5.59862 75.7806
8227513 11.6181 11.9442 23.9398 28.447 1.59096 5.69284 75.9491
8227538 10.887 12.4507 22.5124 30.2006 3.04132 5.79388 76.0508
8227544 10.2793 12.9019 21.3509 31.6132 4.23039 5.86698 76.1453
8227556 10.2793 12.9019 21.3509 31.6132 4.23039 5.86698 76.1453
8227566 9.78601 13.3348 20.3173 32.7238 5.23728 5.89277 76.1619
8227576 9.3544 13.7308 19.4412 33.6493 6.0992 5.90845 76.1757
8227597 9.3544 13.7308 19.4412 33.6493 6.0992 5.90845 76.1757
8227598 8.94922 13.961 18.6439 34 6.7395 5.90312 75.5541
8227607 8.94922 13.961 18.6439 34 6.7395 5.90312 75.5541
8227629 8.62332 14.1452 17.9942 34 7.19866 5.8637 74.7627
8227631 8.34145 14.3017 17.4233 34 7.60702 5.82857 74.0665
8227634 8.34145 14.3017 17.4233 34 7.60702 5.82857 74.0665
8227644 8.09482 14.4583 16.8544 34 8.00634 5.78305 73.4075
8227662 7.8658 14.6885 16.2826 34 8.42298 5.71035 72.8369
8227676 7.6544 14.9556 15.7731 34 8.81701 5.62903 72.3831
8227692 7.40777 15.1213 15.3884 34 9.15118 5.6021 71.9175
8227696 7.40777 15.1213 15.3884 34 9.15118 5.6021 71.9175
8227706 7.24922 15.3424 15.1076 34 9.40927 5.54735 71.6992
8227722 7.24922 15.3424 15.1076 34 9.40927 5.54735 71.6992
8227726 7.03782 15.3976 14.8581 34 9.64382 5.55927 71.2935
8227736 6.86166 15.5634 14.619 34 9.88217 5.5305 71.044
8227755 6.86166 15.5634 14.619 34 9.88217 5.5305 71.044
8227758 6.74715 15.7015 14.411 34 10.0704 5.49586 70.8597
8227768 6.63264 15.8028 14.2343 34 10.2363 5.47592 70.6697
8227789 6.63264 15.8028 14.2343 34 10.2363 5.47592 70.6697
8227794 6.50052 15.8581 14.0783 34 10.392 5.47718 70.4369
8227807 6.46528 15.8581 14.0575 34 10.4202 5.48462 70.3808
8227821 6.43005 15.8397 14.0055 34 10.4603 5.49322 70.2752
8227827 6.43005 15.8397 14.0055 34 10.4603 5.49322 70.2752
8227837 6.38601 15.812 13.9743 34 10.4926 5.50992 70.1723
8227849 6.38601 15.812 13.9743 34 10.4926 5.50992 70.1723
8227857 6.26269 15.7568 13.8807 34 10.5913 5.54961 69.9002
8227876 6.2715 15.7199 13.8391 34 10.6004 5.55223 69.8306
8227877 6.2715 15.7199 13.8391 34 10.6004 5.55223 69.8306
8227887 6.1658 15.7568 13.7872 34 10.6885 5.56549 69.7097
8227903 6.21865 15.7568 13.8703 34 10.619 5.56116 69.8458
8227907 6.21865 15.7568 13.8703 34 10.619 5.56116 69.8458
8227917 6.35078 15.812 13.9743 34 10.5105 5.52022 70.1371
8227933 6.35078 15.812 13.9743 34 10.5105 5.52022 70.1371
8227937 6.39482 15.7384 14.0159 34 10.4519 5.53451 70.1491
8227948 6.52694 15.7107 14.0887 34 10.3429 5.5138 70.3264
8227963 6.52694 15.7107 14.0887 34 10.3429 5.5138 70.3264
8227967 6.65907 15.6647 14.1927 34 10.215 5.50274 70.5164
8227988 6.75596 15.6371 14.2343 34 10.1402 5.48823 70.6273
8227989 6.75596 15.6371 14.2343 34 10.1402 5.48823 70.6273
8227999 6.88808 15.591 14.2239 34 10.07 5.46189 70.7029
8228019 6.94093 15.6278 14.1615 34 10.0825 5.42753 70.7302
8228028 7.03782 15.6831 14.1303 34 10.0616 5.37945 70.8512
8228047 7.03782 15.6831 14.1303 34 10.0616 5.37945 70.8512
8228048 7.09067 15.7384 14.0887 34 10.0677 5.34274 70.9177
8228061 7.2228 15.6463 14.0887 34 9.98298 5.33126 70.9577
8228081 7.2228 15.6463 14.0887 34 9.98298 5.33126 70.9577
8228082 7.31088 15.7107 14.1199 34 9.93793 5.29191 71.1415
8228089 7.31088 15.7107 14.1199 34 9.93793 5.29191 71.1415
8228115 7.35492 15.7291 14.1823 34 9.88965 5.28262 71.2663
8228116 7.51347 15.8397 14.2135 34 9.82048 5.2106 71.5666
8228120 7.51347 15.8397 14.2135 34 9.82048 5.2106 71.5666
8228128 7.66321 15.9133 14.3382 34 9.70311 5.1648 71.9148
8228147 7.7601 15.9686 14.3798 34 9.64819 5.12792 72.1085
8228149 7.7601 15.9686 14.3798 34 9.64819 5.12792 72.1085
8228158 7.90984 15.9778 14.411 34 9.56343 5.08793 72.2986
8228176 7.90984 15.9778 14.411 34 9.56343 5.08793 72.2986
8228179 7.9715 15.9962 14.4422 34 9.52304 5.06999 72.4099
8228190 8.02435 15.9594 14.5566 34 9.4356 5.08121 72.5403
8228208 8.02435 15.9594 14.5566 34 9.4356 5.08121 72.5403
8228209 8.00674 15.8028 14.6813 34 9.35108 5.14653 72.4909
8228220 8.08601 15.7015 14.7125 34 9.27688 5.1569 72.5001
8228241 8.08601 15.7015 14.7125 34 9.27688 5.1569 72.5001
8228242 8.10363 15.7015 14.8685 34 9.19501 5.17313 72.6736
8228249 8.10363 15.7015 14.8685 34 9.19501 5.17313 72.6736
8228275 8.10363 15.4805 15.0349 34 9.06857 5.25704 72.619
8228276 8.19171 15.4437 15.2844 34 8.90278 5.27615 72.9198
8228280 8.19171 15.4437 15.2844 34 8.90278 5.27615 72.9198
8228291 8.26218 15.4529 15.4612 34 8.79027 5.27756 73.1762
8228307 8.35026 15.3884 15.9498 34 8.51161 5.33554 73.6885
8228309 8.35026 15.3884 15.9498 34 8.51161 5.33554 73.6885
8228320 8.50881 15.2134 16.4281 34 8.18488 5.40238 74.1504
8228339 8.50881 15.2134 16.4281 34 8.18488 5.40238 74.1504
8228340 8.79067 15.0385 17.2559 34 7.65527 5.47915 75.0851
8228350 9.08135 14.7714 18.2305 34 7.05135 5.59474 76.0832
8228371 9.08135 14.7714 18.2305 34 7.05135 5.59474 76.0832
8228371 9.38083 14.403 19.3526 33.1622 6.1704 5.64838 76.2987
8228380 9.74197 13.9334 20.8095 31.9152 5.00559 5.7034 76.4
8228401 9.74197 13.9334 20.8095 31.9152 5.00559 5.7034 76.4
8228402 10.1472 13.4177 22.6503 30.5415 3.63545 5.78979 76.7566
8228411 10.1472 13.4177 22.6503 30.5415 3.63545 5.78979 76.7566
8228431 10.6316 12.8743 24.5993 29.2264 2.22088 5.88112 77.3316
8228437 11.028 12.2297 26.4893 27.4533 0.701329 5.96208 77.2002
8228461 11.3451 11.6403 28.0741 25.69 -0.680432 6.01542 76.7495
8228462 11.8207 11.0785 29.5999 23.8877 -2.1124 6.00659 76.3868
8228471 11.8207 11.0785 29.5999 23.8877 -2.1124 6.00659 76.3868
8228492 12.2083 10.5905 31.0469 22.1828 -3.44671 6.00386 76.0285
8228494 12.2083 10.5905 31.0469 22.1828 -3.44671 6.00386 76.0285
8228504 12.6135 10.1945 32.1592 20.5851 -4.63028 5.94351 75.5523
8228522 13.0539 9.8169 33.3011 19.1335 -5.77799 5.88879 75.3054
8228524 13.0539 9.8169 33.3011 19.1335 -5.77799 5.88879 75.3054
8228532 13.5119 9.48537 34 17.8476 -6.74027 5.78201 74.8449
8228554 13.9435 9.19989 34 16.7716 -7.43154 5.60674 73.915
8228555 13.9435 9.19989 34 16.7716 -7.43154 5.60674 73.915
8228562 14.3751 8.81311 34 15.8292 -8.12573 5.47287 73.0175
8228589 14.3751 8.81311 34 15.8292 -8.12573 5.47287 73.0175
8228591 14.8155 8.45395 34 14.8774 -8.83067 5.32411 72.1469
8228592 15.1415 8.12243 34 14.1635 -9.39959 5.22901 71.4274
8228603 15.1415 8.12243 34 14.1635 -9.39959 5.22901 71.4274
8228619 15.4762 7.78169 34 13.5543 -9.93479 5.14667 70.8122
8228623 15.8197 7.47779 34 12.9832 -10.4434 5.05524 70.2807
8228633 15.8197 7.47779 34 12.9832 -10.4434 5.05524 70.2807
8228649 16.1368 7.23835 34 12.4692 -10.8918 4.95976 69.8443
8228653 16.1368 7.23835 34 12.4692 -10.8918 4.95976 69.8443
8228663 16.3658 7.00813 34 12.0694 -11.2639 4.9023 69.4434
8228679 16.5684 6.82394 34 11.6601 -11.6159 4.83715 69.0525
8228683 16.5684 6.82394 34 11.6601 -11.6159 4.83715 69.0525
8228693 16.8326 6.60293 34 11.4412 -11.9011 4.79239 68.8768
8228706 16.956 6.50163 34 11.1937 -12.1122 4.74925 68.6513
8228715 16.956 6.50163 34 11.1937 -12.1122 4.74925 68.6513
8228724 17.1694 6.39112 34 10.9462 -12.3462 4.68255 68.5068
8228736 17.1694 6.39112 34 10.9462 -12.3462 4.68255 68.5068
8228746 17.3488 6.28061 34 10.7749 -12.5333 4.63689 68.4043
8228766 17.3488 6.24377 34 10.7273 -12.5797 4.64026 68.3199
8228777 17.4185 6.23456 34 10.6797 -12.6236 4.61564 68.3328
