9798354 21.4642 13.3624 26.7649 14.1349 -6.84431 1.20299 75.7265
9798364 21.4642 13.3624 26.7649 14.1349 -6.84431 1.20299 75.7265
9798371 20.3581 14.5872 25.0127 15.5151 -5.05761 1.1095 75.4732
9798377 19.1125 15.9594 23.2999 17.1169 -3.09192 1.06207 75.4888
9798397 17.8669 17.4279 21.6561 18.7731 -1.09675 1.01703 75.724
9798409 17.8669 17.4279 19.9334 18.7731 -0.540319 0.691531 74.0013
9798419 16.5067 19.0132 19.9334 20.4487 0.995272 0.960891 75.902
9798429 15.1415 20.4428 18.3978 22.1926 2.98528 0.985783 76.1746
9798439 15.1415 20.4428 18.3978 22.1926 2.98528 0.985783 76.1746
9798449 13.9171 21.7946 16.9896 23.7123 4.77671 0.979577 76.4136
9798459 12.8425 22.9422 15.6795 25.008 6.3514 0.961686 76.4722
9798480 11.9352 24.0315 14.5358 26.0309 7.70624 0.901573 76.5334
9798490 11.2218 24.7803 13.6416 26.8688 8.75209 0.883833 76.5124
9798500 11.2218 24.7803 13.6416 26.8688 8.75209 0.883833 76.5124
9798510 10.5876 25.5292 12.7058 27.6384 9.7678 0.829339 76.4609
9798520 10.5876 25.5292 12.7058 27.6384 9.7678 0.829339 76.4609
9798530 9.90933 26.1322 11.9052 28.3788 10.7095 0.83377 76.3255
9798540 9.49534 26.9005 11.2398 29.1582 11.4995 0.781728 76.7937
9798551 9.49534 26.9005 11.2398 29.1582 11.4995 0.781728 76.7937
9798561 8.95803 27.5715 10.6159 29.8206 12.2841 0.761438 76.9661
9798571 8.5 28.1453 10.0336 30.3467 12.9692 0.727363 77.0257
9798581 8.5 28.1453 10.0336 30.3467 12.9692 0.727363 77.0257
9798590 8.11244 28.7483 9.52416 30.5708 13.5411 0.630405 76.9557
9798611 7.77772 29.3415 9.09786 30.639 14.0213 0.510873 76.8561
9798621 7.46943 29.8959 8.69236 30.8046 14.4865 0.415996 76.8623
9798641 7.13472 30.4891 8.30764 31.0481 14.9698 0.337479 76.9796
9798651 6.82643 30.9268 7.92294 31.204 15.4076 0.268031 76.8801
9798662 6.82643 30.9268 7.92294 31.204 15.4076 0.268031 76.8801
9798673 6.46528 31.413 7.71498 31.4281 15.7946 0.246309 77.0214
9798681 6.46528 31.413 7.71498 31.4281 15.7946 0.246309 77.0214
9798696 6.18342 31.8118 7.44465 31.4086 16.1332 0.167481 76.8484
9798703 6.0601 32.123 7.31988 31.3501 16.2951 0.095036 76.8531
9798715 6.0601 32.123 7.31988 31.3501 16.2951 0.095036 76.8531
9798723 5.8399 32.4634 7.09113 31.3014 16.5699 0.017463 76.6958
9798736 5.71658 32.7843 6.97676 31.2722 16.7307 -0.0492391 76.7499
9798743 5.71658 32.7843 6.97676 31.2722 16.7307 -0.0492391 76.7499
9798755 5.67254 33.0566 6.87278 31.2722 16.8404 -0.113989 76.8742
9798775 5.54922 33.2122 6.83119 31.243 16.9436 -0.134175 76.8356
9798784 5.5228 33.3873 6.73761 31.1261 17.0152 -0.204447 76.7738
9798793 5.5228 33.3873 6.73761 31.1261 17.0152 -0.204447 76.7738
9798803 5.48756 33.5429 6.61284 30.8923 17.0949 -0.298951 76.5356
9798813 5.51399 33.5818 6.62324 30.7461 17.0636 -0.338669 76.4652
9798834 5.48756 33.6596 6.58165 30.8923 17.1241 -0.327571 76.6211
9798844 5.48756 33.6596 6.58165 30.8923 17.1241 -0.327571 76.6211
9798854 5.46995 33.6985 6.65443 30.9994 17.1088 -0.295735 76.8223
9798864 5.46114 33.6791 6.74801 31.2235 17.0835 -0.227338 77.1117
9798874 5.46114 33.6791 6.74801 31.2235 17.0835 -0.227338 77.1117
9798886 5.39067 33.6888 6.74801 31.4086 17.1418 -0.179227 77.2361
9798894 5.37306 33.5429 6.83119 31.4768 17.0981 -0.118096 77.224
9798904 5.37306 33.5429 6.83119 31.4768 17.0981 -0.118096 77.224
9798914 5.4171 33.5526 6.88318 31.5645 17.0559 -0.101155 77.4174
9798934 5.39948 33.3776 6.89358 31.6911 17.0548 -0.0372988 77.3618
9798944 5.39067 33.2317 7.04954 31.9444 16.9861 0.0718135 77.6163
9798954 5.39067 33.2317 7.04954 31.9444 16.9861 0.0718135 77.6163
9798964 5.3114 33.0372 7.11193 32.0418 16.9852 0.155836 77.5023
9798975 5.25855 32.7746 7.12232 32.1393 16.9911 0.238395 77.2947
9799001 5.25855 32.7746 7.12232 32.1393 16.9911 0.238395 77.2947
9799020 5.21451 32.5023 7.29908 32.3146 16.909 0.367947 77.3305
9799030 5.24974 32.2008 7.35107 32.3536 16.8341 0.438228 77.1552
9799035 5.24974 32.2008 7.35107 32.3536 16.8341 0.438228 77.1552
9799045 5.19689 32.0841 7.47584 32.49 16.7972 0.521348 77.2468
9799055 5.17047 31.7243 7.54862 32.4607 16.7306 0.607506 76.9041
9799065 5.17047 31.7243 7.54862 32.4607 16.7306 0.607506 76.9041
9799077 5.22332 31.5103 7.76697 32.5777 16.5733 0.70273 77.0782
9799095 5.2057 31.2672 7.81896 32.6069 16.5313 0.771074 76.8987
9799105 5.32021 31.0629 8.0789 32.7043 16.318 0.855308 77.1663
9799115 5.32021 31.0629 8.0789 32.7043 16.318 0.855308 77.1663
9799127 5.32021 30.849 8.31804 32.6653 16.1615 0.935977 77.1525
9799135 5.40829 30.4989 8.57798 32.6361 15.9323 1.03219 77.1212
9799145 5.40829 30.4989 8.57798 32.6361 15.9323 1.03219 77.1212
9799155 5.44352 30.3043 8.9211 32.6069 15.7056 1.12198 77.2758
9799165 5.44352 30.3043 8.9211 32.6069 15.7056 1.12198 77.2758
9799175 5.5228 29.9737 9.38899 32.451 15.3591 1.23037 77.3365
9799185 5.64611 29.7792 9.89847 32.2756 14.9841 1.30455 77.5994
9799196 5.64611 29.7792 9.89847 32.2756 14.9841 1.30455 77.5994
9799205 5.75181 29.4096 10.3976 32.149 14.6089 1.42555 77.708
9799226 5.89275 28.9914 10.907 31.9834 14.1997 1.54413 77.7746
9799236 6.15699 28.6219 11.4997 31.6132 13.6659 1.60492 77.8917
9799246 6.15699 28.6219 11.4997 31.6132 13.6659 1.60492 77.8917
9799256 6.24508 28.1064 12.0716 31.2917 13.2155 1.73939 77.7147
9799267 6.43886 27.5618 12.7162 30.7461 12.636 1.83217 77.463
9799287 6.68549 27.0852 13.3505 30.2785 12.0568 1.91052 77.3997
9799300 7.02021 26.5017 14.0679 29.6063 11.3412 1.97269 77.1961
9799319 7.40777 25.9474 14.8269 28.9049 10.5782 2.01914 77.0869
9799329 7.94508 25.9474 15.6171 28.0963 9.81931 1.89824 77.6059
9799339 7.94508 25.2082 15.6171 28.0963 9.67334 2.06073 76.8667
9799349 8.5 24.508 16.5945 27.1903 8.66089 2.10503 76.7928
9799359 8.5 24.508 16.5945 27.1903 8.66089 2.10503 76.7928
9799369 9.09896 23.7883 17.5119 26.2745 7.64669 2.13223 76.6737
9799379 9.75078 23.0784 18.6144 25.1639 6.48669 2.14388 76.6074
9799389 9.75078 23.0784 18.6144 25.1639 6.48669 2.14388 76.6074
9799398 10.4554 22.1836 19.9728 24.0436 5.15259 2.22631 76.6554
9799409 10.4554 22.1836 19.9728 24.0436 5.15259 2.22631 76.6554
9799419 11.0192 21.1722 21.3312 22.894 3.83287 2.36215 76.4166
9799429 11.6534 20.151 22.9948 21.7054 2.35552 2.52844 76.5046
9799440 11.6534 20.151 22.9948 21.7054 2.35552 2.52844 76.5046
9799450 12.2964 18.9743 24.7863 20.4487 0.764734 2.73792 76.5057
9799460 12.8689 17.8558 26.6763 19.2699 -0.788917 2.97795 76.671
9799470 12.8689 17.8558 26.6763 19.2699 -0.788917 2.97795 76.671
9799480 13.5207 16.7698 28.3596 17.9547 -2.3353 3.13762 76.6048
9799490 13.5207 16.7698 28.3596 17.9547 -2.3353 3.13762 76.6048
9799500 14.0228 15.4989 29.9739 16.762 -3.84741 3.38607 76.2577
9799510 14.613 14.3109 31.6966 15.8007 -5.2989 3.64559 76.4212
9799520 14.613 14.3109 31.6966 15.8007 -5.2989 3.64559 76.4212
9799530 15.1238 13.3348 33.2716 14.7536 -6.63767 3.8374 76.4838
9799540 15.6523 12.3586 34 13.8494 -7.72615 3.92269 75.8603
9799550 15.6523 12.3586 34 13.8494 -7.72615 3.92269 75.8603
9799560 16.1456 11.4285 34 12.9832 -8.6289 3.90487 74.5573
9799570 16.1456 11.4285 34 12.9832 -8.6289 3.90487 74.5573
9799580 16.6301 10.5536 34 12.1932 -9.50002 3.886 73.3768
9799590 17.1993 9.77086 34 11.5364 -10.3067 3.84094 72.5065
9799610 17.6477 9.02492 34 10.9082 -11.0765 3.82132 71.5808
9799621 18.1758 8.30661 34 10.4418 -11.7828 3.79827 70.9242
9799633 18.1758 8.30661 34 10.4418 -11.7828 3.79827 70.9242
9799644 18.5445 7.73564 34 10.0515 -12.3548 3.79018 70.3317
9799652 18.5445 7.73564 34 10.0515 -12.3548 3.79018 70.3317
9799661 18.8634 7.1831 34 9.75644 -12.8662 3.80569 69.803
9799671 19.262 6.83315 34 9.49944 -13.2659 3.75121 69.5946
9799681 19.262 6.83315 34 9.49944 -13.2659 3.75121 69.5946
9799691 19.4613 6.52925 34 9.28051 -13.5885 3.74398 69.2711
9799702 19.8101 6.20693 34 9.13774 -13.9056 3.71357 69.1548
9799711 19.8101 6.20693 34 9.13774 -13.9056 3.71357 69.1548
9799722 20.1987 5.90303 34 8.89978 -14.2736 3.65166 69.0015
9799731 20.1987 5.90303 34 8.89978 -14.2736 3.65166 69.0015
9799741 20.3581 5.58992 34 8.68085 -14.6029 3.65723 68.6289
9799751 20.6372 5.38732 34 8.57615 -14.8226 3.61913 68.6006
9799761 20.6372 5.38732 34 8.57615 -14.8226 3.61913 68.6006
9799774 20.9461 5.22156 34 8.3477 -15.0976 3.54229 68.5153
9799781 21.3646 5.03738 34 8.20493 -15.3491 3.45511 68.6069
9799796 21.3646 5.03738 34 8.20493 -15.3491 3.45511 68.6069
9799802 21.6835 4.9545 34 8.10022 -15.504 3.37416 68.7382
9799823 22.112 4.91766 34 7.95745 -15.6685 3.24579 68.9871
9799834 22.5106 4.8532 34 7.87178 -15.8104 3.14319 69.2355
9799843 22.5106 4.8532 34 7.87178 -15.8104 3.14319 69.2355
9799853 22.9091 4.88082 34 7.729 -15.9307 3.0076 69.519
9799863 23.3277 4.87161 34 7.59574 -16.0686 2.8791 69.795
9799873 23.3277 4.87161 34 7.59574 -16.0686 2.8791 69.795
9799883 23.796 4.92687 34 7.472 -16.1683 2.72437 70.1949
9799893 23.796 4.92687 34 7.472 -16.1683 2.72437 70.1949
9799904 24.3142 4.99133 34 7.32923 -16.2787 2.55335 70.6348
9799912 24.653 5.04659 34 7.30067 -16.3048 2.45093 71.0003
9799939 24.9818 5.12947 34 7.21501 -16.3465 2.33512 71.3263
9799942 25.221 5.12947 34 7.19597 -16.3864 2.27381 71.5464
9799952 25.221 5.18472 34 7.19597 -16.3545 2.26048 71.6017
9799963 25.3306 5.24919 34 7.19597 -16.3305 2.21861 71.7758
9799973 25.3306 5.24919 34 7.19597 -16.3305 2.21861 71.7758
9799982 25.4302 5.27681 34 7.22452 -16.3103 2.19322 71.9316
9799993 25.4601 5.27681 34 7.2626 -16.292 2.19286 71.9995
9800020 25.5498 5.38732 34 7.37682 -16.1745 2.16549 72.314
9800035 25.5698 5.41495 34 7.48152 -16.1017 2.17277 72.4662
9800044 25.6495 5.461 34 7.5196 -16.0639 2.14975 72.6301
9800064 25.7292 5.55309 34 7.60526 -15.9735 2.12443 72.8875
9800074 25.7192 5.64518 34 7.71948 -15.8566 2.12531 73.0839
9800094 25.7392 5.68201 34 7.84323 -15.7696 2.13379 73.2644
9800105 25.7392 5.68201 34 7.84323 -15.7696 2.13379 73.2644
9800125 25.7292 5.90303 34 8.16685 -15.4674 2.14121 73.7991
9800145 25.6096 6.02275 34 8.31915 -15.3032 2.16766 73.9515
9800155 25.5598 6.1701 34 8.6523 -15.0363 2.20263 74.3822
9800165 25.5598 6.1701 34 8.6523 -15.0363 2.20263 74.3822
9800175 25.3705 6.42795 34 8.95689 -14.7099 2.239 74.7553
9800185 25.1811 6.65818 34 9.29955 -14.3812 2.28781 75.1389
9800205 24.9719 7.01733 34 9.71836 -13.9471 2.32391 75.7076
9800216 24.9719 7.01733 34 9.71836 -13.9471 2.32391 75.7076
9800227 24.6829 7.56067 34 10.1848 -13.3908 2.34361 76.4283
9800236 24.374 8.18689 33.3109 10.7083 -12.6631 2.24439 76.5801
9800248 24.374 8.18689 33.3109 10.7083 -12.6631 2.24439 76.5801
9800259 23.9156 8.91441 32.297 11.327 -11.7624 2.11775 76.454
9800270 23.2778 9.84453 31.0469 12.0599 -10.6325 1.96469 76.2292
9800292 22.6999 10.8391 29.6393 12.8309 -9.4295 1.76252 76.0092
9800298 22.6999 10.8391 29.6393 12.8309 -9.4295 1.76252 76.0092
9800310 22.0123 12.0363 27.9461 13.9065 -7.91017 1.54228 75.9013
9800318 20.966 13.3348 26.1546 15.2772 -6.10988 1.4124 75.7325
9800329 20.966 13.3348 26.1546 15.2772 -6.10988 1.4124 75.7325
9800338 19.6606 14.6977 24.2843 16.8096 -4.121 1.33905 75.4523
9800351 18.2257 16.0607 22.5617 18.8315 -1.94741 1.4086 75.6795
9800368 16.586 17.5252 20.9473 20.6241 0.203454 1.47858 75.6826
9800389 15.0622 18.77 19.5594 22.3192 2.13566 1.59416 75.7107
9800399 13.7674 20.0246 18.3978 23.761 3.825 1.65243 75.9508
9800422 12.4549 21.0847 17.4627 25.1249 5.35027 1.7828 76.1272
9800429 11.4772 22.0183 16.6153 26.3427 6.62773 1.85652 76.4535
9800450 10.6228 22.9714 15.7315 27.4436 7.83538 1.87201 76.7692
9800460 10.0062 23.7494 14.9829 28.1937 8.75902 1.83686 76.9322
9800471 10.0062 23.7494 14.9829 28.1937 8.75902 1.83686 76.9322
9800482 9.39845 24.3816 14.1511 28.8074 9.65601 1.79411 76.7385
9800496 9.39845 24.3816 14.1511 28.8074 9.65601 1.79411 76.7385
9800501 9.05492 24.9457 13.2777 29.4115 10.4396 1.69942 76.6897
9800511 8.69378 25.6556 12.5187 30.035 11.2083 1.60024 76.903
9800523 8.69378 25.6556 12.5187 30.035 11.2083 1.60024 76.903
9800531 8.37668 26.3656 11.8324 30.639 11.9135 1.50151 77.2136
9800544 7.95389 26.9491 11.1046 31.0481 12.6333 1.41127 77.0557
9800551 7.95389 26.9491 11.1046 31.0481 12.6333 1.41127 77.0557
9800566 7.6544 27.7563 10.4807 31.243 13.2445 1.22766 77.1344
9800571 7.6544 27.7563 10.4807 31.243 13.2445 1.22766 77.1344
9800587 7.36373 28.3204 9.89847 31.2819 13.771 1.0726 76.8645
9800593 7.14352 29.0692 9.3682 31.3891 14.2739 0.885649 76.97
9800603 7.14352 29.0692 9.3682 31.3891 14.2739 0.885649 76.97
9800613 6.95855 29.75 8.86911 31.4963 14.7322 0.711688 77.0739
9800636 6.66788 30.4308 8.39083 31.6424 15.2383 0.570695 77.1319
9800640 6.66788 30.4308 8.39083 31.6424 15.2383 0.570695 77.1319
9800643 6.44767 30.9949 8.0685 31.6424 15.5927 0.441014 77.1534
9800653 6.23627 30.9949 7.71498 31.5645 15.8828 0.40158 76.5106
9800665 6.23627 31.4811 7.71498 31.5645 15.9404 0.304311 76.9968
9800676 6.0601 31.9479 7.50703 31.4086 16.1814 0.176978 76.9237
9800683 6.0601 31.9479 7.50703 31.4086 16.1814 0.176978 76.9237
9800697 5.93679 32.2981 7.15352 31.3014 16.4654 0.0430512 76.6898
9800703 5.8487 32.5023 6.92477 31.2138 16.6502 -0.0416663 76.4895
9800713 5.8487 32.5023 6.92477 31.2138 16.6502 -0.0416663 76.4895
9800722 5.69896 32.7357 6.8208 31.1943 16.8118 -0.0823277 76.4497
9800743 5.54041 32.8232 6.71682 31.2138 16.9671 -0.085144 76.2942
9800753 5.46114 33.0664 6.58165 31.3112 17.1207 -0.124575 76.4203
9800764 5.46114 33.0664 6.58165 31.3112 17.1207 -0.124575 76.4203
9800773 5.39948 33.2803 6.55046 31.4573 17.2087 -0.13145 76.6876
9800783 5.32021 33.5332 6.47768 31.6619 17.3383 -0.139067 76.993
9800793 5.32021 33.5332 6.47768 31.6619 17.3383 -0.139067 76.993
9800804 5.21451 33.6499 6.47768 31.7398 17.4157 -0.125885 77.0819
9800813 5.21451 33.6499 6.47768 31.7398 17.4157 -0.125885 77.0819
9800825 5.13523 33.8055 6.31132 31.7593 17.5683 -0.169475 77.0114
9800833 5.08238 33.9514 6.28012 31.7788 17.6306 -0.189674 77.0927
9800853 5.04715 34 6.31132 31.8567 17.6449 -0.170775 77.2152
9800863 5.00311 34 6.26972 31.8957 17.696 -0.162827 77.1685
9800872 5.00311 34 6.26972 31.8957 17.696 -0.162827 77.1685
9800883 4.98549 34 6.22813 31.9347 17.7324 -0.159957 77.1483
9800920 4.8886 34 6.13456 31.8665 17.8318 -0.173151 76.8896
9800923 4.89741 34 6.12416 31.6327 17.8109 -0.223196 76.6542
9800925 4.89741 34 6.12416 31.6327 17.8109 -0.223196 76.6542
9800934 4.95026 34 6.03058 31.4963 17.8208 -0.279183 76.4771
9800944 4.95026 34 5.9682 31.3794 17.8448 -0.315087 76.2978
9800965 4.91503 34 5.9682 31.3404 17.861 -0.316127 76.2236
9800978 4.91503 34 5.9682 31.3404 17.861 -0.316127 76.2236
9800985 4.87979 34 5.97859 31.2625 17.8677 -0.322921 76.1208
9800995 4.91503 34 6.04098 31.2819 17.8146 -0.313248 76.2379
9801005 4.91503 34 6.04098 31.2819 17.8146 -0.313248 76.2379
9801015 4.96788 34 6.02018 31.3989 17.8076 -0.304145 76.3869
9801025 4.93264 34 6.15535 31.5255 17.7637 -0.245084 76.6135
9801036 4.93264 34 6.15535 31.5255 17.7637 -0.245084 76.6135
9801048 4.92383 34 6.28012 31.6424 17.7102 -0.195449 76.8464
9801055 4.92383 34 6.28012 31.6424 17.7102 -0.195449 76.8464
9801067 4.93264 34 6.25933 31.8178 17.7334 -0.166645 77.0097
9801076 4.95907 34 6.41529 31.8762 17.638 -0.129623 77.2506
9801090 4.95907 34 6.41529 31.8762 17.638 -0.129623 77.2506
9801096 4.95026 34 6.42569 31.8665 17.6362 -0.127798 77.2424
9801106 5.01192 33.9027 6.50887 31.8567 17.5461 -0.106573 77.2803
9801116 5.01192 33.9027 6.50887 31.8567 17.5461 -0.106573 77.2803
9801127 5.02073 33.6791 6.61284 31.8957 17.4661 -0.037154 77.2083
9801136 5.02073 33.6791 6.61284 31.8957 17.4661 -0.037154 77.2083
9801146 4.92383 33.397 6.71682 31.9152 17.4365 0.0606483 76.9529
9801156 4.95907 33.115 6.97676 32.1977 17.2744 0.213675 77.2485
9801166 4.95907 33.115 6.97676 32.1977 17.2744 0.213675 77.2485
9801179 5.01192 32.726 7.15352 32.3341 17.1234 0.339861 77.2255
9801186 4.90622 32.3661 7.37187 32.5289 17.0451 0.510886 77.1732
9801201 4.90622 32.3661 7.37187 32.5289 17.0451 0.510886 77.1732
9801207 4.97668 31.9966 7.70459 32.714 16.8071 0.667779 77.3919
9801228 4.97668 31.4519 8.02691 33.0063 16.6065 0.891649 77.4618
9801252 5.02953 31.0338 8.42202 33.2986 16.3532 1.09097 77.7839
9801260 4.98549 30.5086 8.9315 33.5519 16.0763 1.34448 77.9774
9801269 5.02953 29.9445 9.38899 33.6785 15.7623 1.55561 78.0415
9801279 5.02953 29.9445 9.38899 33.6785 15.7623 1.55561 78.0415
9801292 5.03834 29.2929 9.84648 33.5324 15.4229 1.74641 77.7101
9801300 5.11762 28.5732 10.3352 33.6201 15.0492 1.98292 77.6461
9801310 5.11762 28.5732 10.3352 33.6201 15.0492 1.98292 77.6461
9801320 5.24093 27.7855 11.0734 33.5908 14.5005 2.24696 77.6906
9801342 5.23212 26.9296 11.9052 33.5811 13.9647 2.57403 77.648
9801350 5.3114 26.0641 12.789 33.3862 13.33 2.8626 77.5507
9801371 5.54041 25.2277 13.7456 32.9381 12.5497 3.08235 77.4518
9801383 5.76943 24.4399 14.8893 32.3536 11.6636 3.29884 77.4522
9801393 5.76943 24.4399 14.8893 32.3536 11.6636 3.29884 77.4522
9801406 6.07772 23.5938 16.3242 31.5937 10.5638 3.52747 77.5894
9801412 6.07772 23.5938 16.3242 31.5937 10.5638 3.52747 77.5894
9801422 6.42124 22.6602 17.7973 30.639 9.37868 3.74525 77.5177
9801433 6.94093 21.639 19.4314 29.5186 7.99218 3.94107 77.53
9801444 6.94093 21.639 19.4314 29.5186 7.99218 3.94107 77.53
9801453 7.53109 20.5789 21.1343 28.2327 6.5007 4.11547 77.477
9801462 8.20933 19.655 22.9653 26.5765 4.86297 4.20071 77.4061
9801472 8.20933 19.655 22.9653 26.5765 4.86297 4.20071 77.4061
9801482 9.09016 18.6436 24.6977 24.8424 3.13757 4.23294 77.2739
9801495 9.09016 18.6436 24.6977 24.8424 3.13757 4.23294 77.2739
9801502 9.96218 17.4279 26.6173 23.0693 1.27076 4.33915 77.0767
9801512 10.799 16.2725 28.5466 21.2476 -0.593741 4.43424 76.8656
9801523 10.799 16.2725 28.5466 21.2476 -0.593741 4.43424 76.8656
9801533 11.5653 15.0477 30.2299 19.4063 -2.40698 4.52921 76.2491
9801544 12.4461 13.915 31.8541 17.9645 -4.07615 4.61885 76.1796
9801561 12.4461 13.915 31.8541 17.9645 -4.07615 4.61885 76.1796
9801564 13.2741 13.0585 33.1731 16.8667 -5.40836 4.65625 76.3725
9801574 14.1109 12.2113 34 15.8863 -6.5653 4.6381 76.2085
9801584 14.1109 12.2113 34 15.8863 -6.5653 4.6381 76.2085
9801593 14.8772 11.4837 34 14.963 -7.44464 4.50098 75.324
9801605 14.8772 11.4837 34 14.963 -7.44464 4.50098 75.324
9801616 15.5114 10.7931 34 14.0207 -8.30728 4.38268 74.3252
9801625 16.128 10.0932 34 13.4686 -9.01283 4.32506 73.6898
9801635 16.128 10.0932 34 13.4686 -9.01283 4.32506 73.6898
9801645 16.6829 9.49458 34 12.7072 -9.76925 4.22511 72.8847
9801664 17.3288 8.96966 34 12.1075 -10.4452 4.10373 72.406
9801665 17.3288 8.96966 34 12.1075 -10.4452 4.10373 72.406
9801682 18.0363 8.59209 34 11.5078 -11.0681 3.92578 72.1363
9801695 18.6641 8.14085 34 11.0224 -11.6602 3.80442 71.8274
9801707 19.2521 7.81853 34 10.6892 -12.1044 3.68284 71.7598
9801728 19.8699 7.59751 34 10.3371 -12.5115 3.52409 71.8044
9801736 20.3283 7.50542 34 10.1562 -12.7333 3.40101 71.9899
9801756 20.7667 7.3857 34 9.96585 -12.9701 3.28906 72.1182
9801769 20.7667 7.3857 34 9.96585 -12.9701 3.28906 72.1182
9801776 21.1055 7.33965 34 9.69933 -13.1911 3.17159 72.1445
9801786 21.4543 7.23835 34 9.6327 -13.3367 3.09851 72.3253
9801806 21.7333 7.14626 34 9.41377 -13.5466 3.01567 72.2933
9801819 22.0821 7.01733 34 9.26148 -13.7516 2.93572 72.3609
9801845 22.4009 6.98971 34 9.06159 -13.9228 2.83033 72.4522
9801849 22.4009 6.98971 34 9.06159 -13.9228 2.83033 72.4522
9801858 22.7696 6.86999 34 8.8617 -14.1508 2.73555 72.5013
9801871 23.1184 6.86078 34 8.76652 -14.259 2.63672 72.7457
9801878 23.1184 6.86078 34 8.76652 -14.259 2.63672 72.7457
9801888 23.6465 6.88841 34 8.51904 -14.4548 2.46066 73.054
9801898 24.0651 6.88841 34 8.3953 -14.5815 2.33988 73.3488
9801919 24.5733 6.94366 34 8.20493 -14.7258 2.17466 73.7219
9801928 24.5733 6.94366 34 8.20493 -14.7258 2.17466 73.7219
9801941 24.9021 6.93445 34 8.01456 -14.879 2.06727 73.8511
9801948 25.3904 6.9805 34 8.01456 -14.9207 1.94467 74.3854
9801958 25.3904 6.9805 34 8.01456 -14.9207 1.94467 74.3854
9801968 25.7491 7.10943 34 7.94793 -14.9358 1.82258 74.8065
9801978 25.9385 7.10943 34 7.94793 -14.9612 1.78011 74.9958
9801997 26.1377 7.23835 34 8.02408 -14.879 1.72042 75.4002
9802007 26.1377 7.23835 34 8.02408 -14.879 1.72042 75.4002
9802021 26.1577 7.34886 34 8.06215 -14.8033 1.69824 75.5687
9802030 26.2773 7.45016 34 8.21445 -14.6864 1.67635 75.9419
9802039 26.2773 7.45016 34 8.21445 -14.6864 1.67635 75.9419
9802050 26.2573 7.70802 34 8.41433 -14.4459 1.65927 76.3797
9802059 26.2274 7.93824 34 8.6047 -14.2257 1.64888 76.7704
9802079 26.1676 8.10401 33.7047 8.81411 -13.9842 1.61097 76.7905
9802099 26.0481 8.36186 33.1633 8.98544 -13.6706 1.51625 76.5587
9802109 25.8986 8.65656 32.681 9.35666 -13.2409 1.46537 76.5928
9802119 25.8986 8.65656 32.681 9.35666 -13.2409 1.46537 76.5928
9802130 25.6196 9.05255 31.9525 9.71836 -12.7062 1.37513 76.343
9802139 25.6196 9.05255 31.2733 9.71836 -12.5958 1.25282 75.6638
9802149 25.3007 9.53142 31.2733 10.1372 -12.1013 1.29423 76.2426
9802160 24.9818 10.1208 30.5449 10.6226 -11.4013 1.19277 76.2701
9802168 24.9818 10.1208 30.5449 10.6226 -11.4013 1.19277 76.2701
9802182 24.5832 10.7746 29.6589 11.1652 -10.6004 1.07628 76.182
9802189 24.1846 11.5574 28.6647 11.7172 -9.71267 0.914281 76.124
9802198 24.1846 11.5574 28.6647 11.7172 -9.71267 0.914281 76.124
9802209 23.6565 12.5704 27.3752 12.4692 -8.54201 0.713308 76.0714
9802229 22.939 13.6203 25.9085 13.3163 -7.22808 0.527596 75.7842
9802239 22.0721 14.928 24.3631 14.2682 -5.69837 0.323517 75.6313
9802249 22.0721 14.928 24.3631 14.2682 -5.69837 0.323517 75.6313
9802259 21.1553 16.0791 22.8471 15.1249 -4.25446 0.147108 75.2064
9802276 20.129 17.2918 21.3804 16.2576 -2.65128 0.0434196 75.0587
9802280 20.129 17.2918 21.3804 16.2576 -2.65128 0.0434196 75.0587
9802292 19.0528 18.5269 20.0318 17.4676 -1.02895 -0.0160182 75.0791
9802300 19.0528 18.5269 20.0318 17.4676 -1.02895 -0.0160182 75.0791
9802314 17.9467 19.8009 18.6537 18.8997 0.697282 -0.0386694 75.301
9802320 16.7534 21.2986 17.3347 20.5948 2.5682 -0.0241774 75.9815
9802335 16.7534 21.2986 17.3347 20.5948 2.5682 -0.0241774 75.9815
9802340 15.714 22.6116 15.981 21.988 4.22851 -0.0700986 76.2946
9802350 14.6922 23.7981 14.7229 23.1473 5.73928 -0.121804 76.3605
9802360 14.6922 23.7981 14.7229 23.1473 5.73928 -0.121804 76.3605
9802370 13.785 24.9651 13.6416 24.0728 7.06581 -0.203174 76.4644
9802380 13.785 24.9651 13.6416 24.0728 7.06581 -0.203174 76.4644
9802390 12.9041 25.9085 12.7162 24.9398 8.24781 -0.226871 76.4686
9802403 12.1819 26.8518 11.926 25.7874 9.29396 -0.258052 76.7471
9802425 11.486 27.6396 11.2294 26.4596 10.2141 -0.280542 76.8146
9802431 10.8782 28.2426 10.5119 27.0344 11.05 -0.308052 76.6671
9802451 10.385 28.6316 10.0752 27.6092 11.6624 -0.260524 76.701
9802461 10.385 28.6316 10.0752 27.6092 11.6624 -0.260524 76.701
9802473 9.82124 28.9136 9.63853 28.1937 12.2923 -0.176832 76.5671
9802481 9.32798 29.1762 9.24343 28.7003 12.8536 -0.109971 76.4479
9802497 9.32798 29.1762 9.24343 28.7003 12.8536 -0.109971 76.4479
9802501 8.88756 29.4485 8.97309 29.3043 13.3437 -0.0114915 76.6135
9802511 8.48238 29.6722 8.74434 29.8888 13.7829 0.0934893 76.7878
9802521 8.48238 29.6722 8.74434 29.8888 13.7829 0.0934893 76.7878
9802531 8.10363 30.0029 8.58838 30.4734 14.1847 0.18568 77.1682
9802551 7.69845 30.1585 8.40122 30.9994 14.5805 0.299726 77.2576
9802566 7.39016 30.3335 8.24526 31.5352 14.9132 0.398074 77.5042
9802571 7.39016 30.3335 8.24526 31.5352 14.9132 0.398074 77.5042
9802581 7.00259 30.4502 8.03731 31.9542 15.2899 0.491704 77.4443
9802591 6.71192 30.5669 7.90214 32.2464 15.5627 0.555947 77.4274
9802615 6.40363 30.6934 7.74618 32.3536 15.8352 0.583465 77.1967
9802638 6.1658 30.6739 7.61101 32.4705 16.0449 0.632163 76.9212
9802643 5.98083 30.6739 7.45505 32.6361 16.2465 0.671647 76.7459
9802653 5.98083 30.6739 7.45505 32.6361 16.2465 0.671647 76.7459
9802663 5.79586 30.6447 7.46544 32.8602 16.3625 0.759128 76.7662
9802675 5.69896 30.6545 7.43425 32.8894 16.436 0.776677 76.6771
9802687 5.69896 30.6545 7.43425 32.8894 16.436 0.776677 76.6771
9802693 5.65492 30.8003 7.38226 33.1329 16.531 0.791203 76.9705
9802713 5.56684 30.8781 7.37187 33.1037 16.5896 0.785993 76.9206
9802724 5.54041 30.9754 7.37187 33.2499 16.6304 0.798426 77.1375
9802744 5.50518 31.024 7.2367 33.3765 16.7413 0.794114 77.1424
9802756 5.39948 30.9462 7.27829 33.4155 16.7719 0.846589 77.0395
9802775 5.3114 30.9365 7.2263 33.5519 16.8614 0.882221 77.0261
9802797 5.19689 30.9073 7.25749 33.6493 16.9139 0.935431 77.011
9802805 5.17047 30.8587 7.2367 33.7564 16.9457 0.966729 77.0223
9802819 5.17047 30.8587 7.2367 33.7564 16.9457 0.966729 77.0223
9802825 5.06477 30.8684 7.25749 33.9123 17.0092 1.01876 77.103
9802841 5.06477 30.7128 7.27829 34 16.9908 1.07079 77.0559
9802845 5.06477 30.7128 7.27829 34 16.9908 1.07079 77.0559
9802855 5.02953 30.6156 7.29908 34 16.9886 1.10223 76.9442
9802868 5.02953 30.6156 7.39266 34 16.9376 1.11911 77.0378
9802888 4.97668 30.4794 7.39266 34 16.9521 1.15875 76.8488
9802889 5.00311 30.4211 7.39266 34 16.9316 1.16547 76.8168
9802896 5.00311 30.4211 7.39266 34 16.9316 1.16547 76.8168
9802908 4.89741 30.1682 7.41346 34 16.9515 1.24502 76.4791
9802918 4.85337 30.0029 7.45505 34 16.9354 1.29709 76.3113
9802931 4.85337 30.0029 7.45505 34 16.9354 1.29709 76.3113
9802938 4.81813 29.7986 7.55902 34 16.8759 1.36702 76.1758
9802948 4.82694 29.6333 7.60061 34 16.8305 1.40816 76.0609
9802968 4.80052 29.468 7.79817 34 16.7187 1.48482 76.0667
9802989 4.77409 29.2346 7.92294 34 16.6392 1.56344 75.9316
9803001 4.80933 29.0595 8.0789 34 16.5151 1.62152 75.9477
9803009 4.80933 29.0595 8.0789 34 16.5151 1.62152 75.9477
9803023 4.77409 28.8747 8.21407 34 16.4397 1.69357 75.8629
9803029 4.86218 28.8164 8.41162 34 16.2776 1.72159 76.0902
9803049 4.7829 28.5538 8.60917 34 16.1831 1.8314 75.9459
9803060 4.81813 28.2328 8.83792 34 16.0026 1.93446 75.8889
9803070 4.81813 28.2328 8.83792 34 16.0026 1.93446 75.8889
9803098 4.81813 27.873 9.09786 34 15.8193 2.05968 75.789
9803101 4.89741 27.5812 9.45138 34 15.5513 2.16767 75.93
9803113 4.87979 27.1144 9.89847 34 15.2637 2.35285 75.8927
9803120 4.87979 27.1144 9.89847 34 15.2637 2.35285 75.8927
9803135 5.05596 26.7351 10.4599 34 14.8258 2.4922 76.251
9803140 5.15285 26.278 11.1046 34 14.3791 2.67988 76.5355
9803161 5.26736 25.5389 11.9364 34 13.7913 2.95731 76.7427
9803181 5.44352 24.8289 13.0073 34 13.0623 3.24824 77.2798
9803193 5.67254 23.9537 14.1615 33.6883 12.1999 3.52823 77.4759
9803211 5.9544 23.1756 15.3988 32.9186 11.2144 3.71621 77.4474
9803227 6.31554 22.3976 16.9064 32.2075 10.081 3.93194 77.827
9803231 6.31554 22.3976 16.9064 32.2075 10.081 3.93194 77.827
9803241 6.71192 21.5904 18.4372 31.0968 8.84489 4.09161 77.8363
9803261 7.08187 20.54 20.0417 29.3433 7.38887 4.23918 77.0069
9803274 7.47824 19.2952 22.0104 27.5897 5.69446 4.48323 76.3735
9803288 7.47824 19.2952 22.0104 27.5897 5.69446 4.48323 76.3735
9803299 8.06839 17.8753 24.1563 25.4854 3.68323 4.7029 75.5854
9803303 8.70259 16.3922 26.568 23.7026 1.60026 5.01075 75.3654
9803323 9.4601 15.1398 29.2061 22.0854 -0.474723 5.27563 75.8914
9803334 9.4601 15.1398 29.2061 22.0854 -0.474723 5.27563 75.8914
9803345 10.4642 14.0255 31.4111 20.8092 -2.29459 5.42248 76.71
9803354 11.5565 13.3624 33.0648 19.5817 -3.76368 5.36211 77.5654
9803369 11.5565 13.3624 33.0648 19.5817 -3.76368 5.36211 77.5654
9803374 12.6047 12.5704 34 18.1398 -5.1395 5.23148 77.3149
9803384 13.4238 11.7876 34 16.6669 -6.24992 5.03214 75.8783
9803395 13.4238 11.7876 34 16.6669 -6.24992 5.03214 75.8783
9803405 14.3575 10.9588 34 15.4104 -7.35623 4.83643 74.7268
9803425 15.1679 10.0287 34 14.2587 -8.46791 4.70942 73.4553
9803441 15.9254 9.3104 34 13.3639 -9.384 4.57195 72.5997
9803465 16.6212 8.45395 34 12.4978 -10.3634 4.48966 71.573
9803480 17.3388 7.90141 34 11.8695 -11.0983 4.35158 71.1098
9803491 17.3388 7.90141 34 11.8695 -11.0983 4.35158 71.1098
9803492 18.0164 7.3857 34 11.1652 -11.8559 4.2009 70.5673
9803514 18.6143 6.93445 34 10.7178 -12.4391 4.09207 70.2666
9803517 19.1624 6.62134 34 10.2609 -12.9489 3.95688 70.0446
9803525 19.1624 6.62134 34 10.2609 -12.9489 3.95688 70.0446
9803537 19.5709 6.25298 34 9.91825 -13.4064 3.89169 69.7422
9803545 20.0094 6.16089 34 9.68981 -13.6554 3.76171 69.8601
9803557 20.0094 6.16089 34 9.68981 -13.6554 3.76171 69.8601
9803565 20.3482 5.97671 34 9.50896 -13.9125 3.69106 69.8338
9803575 20.3482 5.97671 34 9.50896 -13.9125 3.69106 69.8338
9803585 20.7567 5.75569 34 9.32811 -14.2013 3.61159 69.8405
9803599 21.1354 5.58992 34 9.1187 -14.4704 3.52071 69.844
9803606 21.1354 5.58992 34 9.1187 -14.4704 3.52071 69.844
9803616 21.4642 5.55309 34 8.8617 -14.6859 3.4011 69.879
9803626 21.6835 5.33207 34 8.80459 -14.8764 3.39209 69.8201
9803647 22.112 5.31365 34 8.57615 -15.079 3.24646 70.0018
9803658 22.3212 5.20314 34 8.54759 -15.1881 3.21596 70.072
9803668 22.3212 5.20314 34 8.54759 -15.1881 3.21596 70.072
9803678 22.7397 5.21235 34 8.44289 -15.301 3.08775 70.395
9803698 23.0188 5.14789 34 8.36674 -15.4197 3.01987 70.5334
9803708 23.3875 5.19393 34 8.23348 -15.5194 2.89178 70.8149
9803723 23.3875 5.19393 34 8.23348 -15.5194 2.89178 70.8149
9803728 23.6964 5.17551 34 8.16685 -15.6091 2.80727 71.0387
9803738 24.0152 5.12026 34 8.01456 -15.7696 2.71519 71.1501
9803747 24.0152 5.12026 34 8.01456 -15.7696 2.71519 71.1501
9803758 24.3441 5.12026 34 7.96697 -15.8393 2.62545 71.4313
9803768 24.3441 5.12026 34 7.96697 -15.8393 2.62545 71.4313
9803778 24.5832 5.18472 34 7.87178 -15.8874 2.53431 71.6397
9803788 24.922 5.19393 34 7.90985 -15.9034 2.45618 72.0258
9803800 24.922 5.19393 34 7.90985 -15.9034 2.45618 72.0258
9803810 25.0317 5.28602 34 7.8813 -15.8812 2.40245 72.199
9803819 25.211 5.29523 34 7.81467 -15.9363 2.34547 72.3209
9803832 25.211 5.29523 34 7.81467 -15.9363 2.34547 72.3209
9803839 25.3406 5.42416 34 7.89082 -15.8369 2.29702 72.6555
9803859 25.51 5.43337 34 7.86226 -15.8691 2.24961 72.8056
9803870 25.49 5.54388 34 7.93841 -15.7621 2.2415 72.9723
9803880 25.49 5.54388 34 7.93841 -15.7621 2.2415 72.9723
9803890 25.49 5.60834 34 7.99552 -15.6943 2.23626 73.0939
9803920 25.4502 5.67281 34 8.12878 -15.5793 2.25369 73.2518
9803921 25.4502 5.67281 34 8.12878 -15.5793 2.25369 73.2518
9803930 25.5 5.73727 34 8.29059 -15.4609 2.25492 73.5279
9803942 25.4004 5.83857 34 8.3477 -15.3608 2.26443 73.5866
9803950 25.5 5.9675 34 8.6523 -15.1377 2.26353 74.1198
9803965 25.5 5.9675 34 8.6523 -15.1377 2.26353 74.1198
9803970 25.3107 6.09642 34 8.77604 -14.9758 2.29883 74.1831
9803980 25.1413 6.15168 34 8.99496 -14.8054 2.36284 74.2879
9803990 25.1413 6.15168 34 8.99496 -14.8054 2.36284 74.2879
9804000 25.0317 6.38191 34 9.29003 -14.5106 2.38472 74.7036
9804011 25.0317 6.38191 34 9.29003 -14.5106 2.38472 74.7036
9804021 24.7427 6.49242 34 9.54703 -14.2759 2.46956 74.7821
9804035 24.4936 6.66739 34 9.97536 -13.925 2.55824 75.1363
9804041 24.4936 6.66739 34 9.97536 -13.925 2.55824 75.1363
9804058 24.1249 6.88841 34 10.3561 -13.56 2.65549 75.3694
9804061 23.786 7.26598 34 10.9367 -13.0228 2.74081 75.9888
9804071 23.786 7.26598 34 10.9367 -13.0228 2.74081 75.9888
9804081 23.4771 7.62514 34 11.6316 -12.4523 2.8402 76.7338
9804091 23.4771 7.62514 34 11.6316 -12.4523 2.8402 76.7338
9804106 22.9689 8.05796 33.7736 12.2122 -11.8397 2.91359 77.0127
9804120 22.5504 8.48158 33.0845 12.8595 -11.1379 2.90584 76.976
9804129 22.5504 8.48158 33.0845 12.8595 -11.1379 2.90584 76.976
9804131 21.9824 9.02492 32.297 13.4782 -10.3462 2.88501 76.7825
9804141 21.3447 9.50379 31.3914 14.2587 -9.46868 2.90234 76.4986
9804153 21.3447 9.50379 31.3914 14.2587 -9.46868 2.90234 76.4986
9804161 20.7069 10.0195 30.4464 14.9916 -8.58086 2.89734 76.1645
9804177 20.7069 10.0195 30.4464 14.9916 -8.58086 2.89734 76.1645
9804182 19.9596 10.5997 29.4522 15.9434 -7.52705 2.92998 75.9549
9804191 19.0328 11.3364 28.3301 17.0877 -6.24738 2.97845 75.787
9804202 19.0328 11.3364 28.3301 17.0877 -6.24738 2.97845 75.787
9804214 18.0961 12.156 27.011 18.5393 -4.7531 3.02723 75.8024
9804226 18.0961 12.156 27.011 18.5393 -4.7531 3.02723 75.8024
9804231 16.956 13.0217 25.7018 20.1954 -3.11061 3.14721 75.8748
9804241 15.8637 14.0255 24.2154 22.0464 -1.31556 3.22503 76.151
9804263 14.8332 14.974 22.7389 23.7318 0.371599 3.27687 76.2778
9804275 13.8202 16.1067 21.2721 25.4269 2.10154 3.28325 76.626
9804283 13.8202 16.1067 21.2721 25.4269 2.10154 3.28325 76.626
9804298 12.9658 17.1167 19.7759 26.8493 3.65813 3.23488 76.7077
9804303 12.9658 17.1167 19.7759 26.8493 3.65813 3.23488 76.7077
9804313 12.129 18.0892 18.3387 27.9307 5.08322 3.14779 76.4877
9804324 11.4332 18.8965 17 29.1289 6.40616 3.09959 76.4586
9804333 11.4332 18.8965 17 29.1289 6.40616 3.09959 76.4586
9804348 10.6668 19.7134 15.8251 30.1908 7.66148 3.06999 76.3961
9804352 10.0503 20.3164 14.8893 31.3209 8.71599 3.10347 76.5768
9804362 10.0503 20.3164 14.8893 31.3209 8.71599 3.10347 76.5768
9804372 9.39845 20.9096 13.8391 32.3244 9.80638 3.11007 76.4716
9804383 9.39845 20.9096 13.8391 32.3244 9.80638 3.11007 76.4716
9804393 8.77306 21.5029 13.0593 33.2499 10.7463 3.14028 76.5851
9804403 8.20052 22.0475 12.4459 33.9123 11.5243 3.15448 76.6062
9804423 7.74249 22.5824 11.77 34 12.1788 3.04459 76.0949
9804436 7.21399 23.1465 11.2502 34 12.79 2.95389 75.6106
9804454 6.85285 23.7105 10.8135 34 13.2813 2.83577 75.3768
9804464 6.85285 23.7105 10.8135 34 13.2813 2.83577 75.3768
9804474 6.44767 24.1579 10.4287 34 13.7542 2.76337 75.0343
9804489 6.11295 24.7803 10.1168 34 14.1816 2.64435 75.0101
9804504 5.8487 25.2763 9.72171 34 14.5985 2.5245 74.8467
9804534 5.46995 25.7042 9.3474 34 15.0583 2.45027 74.5216
9804547 5.46995 25.7042 9.3474 34 15.0583 2.45027 74.5216
9804548 5.24093 25.9571 9.01468 34 15.3954 2.3884 74.2127
9804554 5.01192 26.2002 8.78593 34 15.6769 2.3461 73.9981
9804570 4.80052 26.6184 8.5052 34 16.0004 2.24952 73.9241
9804574 4.80052 26.6184 8.5052 34 16.0004 2.24952 73.9241
9804584 4.64197 27.0172 8.22446 34 16.2928 2.145 73.8836
9804594 4.58031 27.3576 8.01651 34 16.4834 2.04423 73.9544
9804604 4.58031 27.3576 8.01651 34 16.4834 2.04423 73.9544
9804615 4.4658 27.6785 7.87095 34 16.6661 1.97121 74.0152
9804626 4.4658 27.6785 7.87095 34 16.6661 1.97121 74.0152
9804636 4.41295 27.8633 7.70459 34 16.8104 1.91165 73.9808
9804644 4.40415 28.1259 7.56942 34 16.9206 1.82985 74.0994
9804654 4.40415 28.1259 7.56942 34 16.9206 1.82985 74.0994
9804664 4.3513 28.4565 7.49664 34 17.0274 1.75403 74.3045
9804674 4.31606 28.6802 7.38226 34 17.136 1.69121 74.3785
9804685 4.31606 28.6802 7.38226 34 17.136 1.69121 74.3785
9804694 4.3513 28.9914 7.33028 34 17.1782 1.60451 74.673
9804708 4.3513 28.9914 7.33028 34 17.1782 1.60451 74.673
9804714 4.43938 29.2735 7.28868 34 17.1814 1.51514 75.0015
9804731 4.41295 29.5069 7.14312 34 17.3024 1.44345 75.0629
9804735 4.41295 29.5069 7.14312 34 17.3024 1.44345 75.0629
9804745 4.47461 29.7305 7.14312 34 17.2906 1.38118 75.3483
9804763 4.43938 29.9348 7.08073 34 17.3662 1.33323 75.4549
9804765 4.43938 29.9348 7.08073 34 17.3662 1.33323 75.4549
9804780 4.50984 30.0807 7.00795 34 17.3823 1.27333 75.5985
9804785 4.50984 30.0807 7.00795 34 17.3823 1.27333 75.5985
9804795 4.48342 30.2071 6.91437 34 17.4623 1.23481 75.6049
9804806 4.54508 30.2849 6.95596 34 17.4122 1.21249 75.7859
9804827 4.5715 30.2946 6.85199 34 17.4566 1.18582 75.7181
9804838 4.56269 30.2946 6.86239 34 17.4557 1.1896 75.7197
9804845 4.56269 30.2752 6.86239 34 17.4537 1.19376 75.7002
9804855 4.58031 30.2363 6.85199 34 17.4458 1.19642 75.6686
9804865 4.58031 30.2363 6.85199 34 17.4458 1.19642 75.6686
9804877 4.58912 30.2557 6.86239 34 17.437 1.19227 75.7072
9804885 4.5715 30.1876 6.94557 34 17.3934 1.22577 75.7047
9804900 4.5715 30.1876 6.94557 34 17.3934 1.22577 75.7047
9804905 4.63316 30.2363 6.95596 34 17.358 1.20406 75.8254
9804926 4.62435 30.0709 7.05994 34 17.2881 1.26024 75.7552
9804936 4.6772 29.964 7.12232 34 17.2129 1.28317 75.7635
9804947 4.6772 29.964 7.12232 34 17.2129 1.28317 75.7635
9804956 4.66839 29.857 7.19511 34 17.1663 1.32126 75.7205
9804970 4.72124 29.5847 7.39266 34 16.9986 1.40427 75.6986
9804976 4.72124 29.5847 7.39266 34 16.9986 1.40427 75.6986
9804986 4.79171 29.2735 7.56942 34 16.8284 1.48826 75.6346
9805006 4.80052 28.8747 7.76697 34 16.6708 1.60886 75.4422
9805016 4.76529 28.3884 8.0685 34 16.4694 1.77769 75.2222
9805028 4.76529 28.3884 8.0685 34 16.4694 1.77769 75.2222
9805038 4.87098 27.9508 8.38043 34 16.1895 1.90659 75.2022
9805048 4.85337 27.5326 8.82752 34 15.9053 2.08238 75.2135
9805062 4.85337 27.5326 8.82752 34 15.9053 2.08238 75.2135
9805068 4.92383 27.0366 9.24343 34 15.5808 2.25048 75.2039
9805078 4.92383 27.0366 9.24343 34 15.5808 2.25048 75.2039
9805088 5.05596 26.5503 9.7529 34 15.1745 2.41774 75.3592
9805098 5.2057 26.0738 10.4183 34 14.68 2.60355 75.6978
9805110 5.2057 26.0738 10.4183 34 14.68 2.60355 75.6978
9805133 5.45233 24.9457 11.9676 34 13.5944 3.05824 76.3656
9805145 5.45233 24.9457 11.9676 34 13.5944 3.05824 76.3656
9805151 5.68135 24.3232 12.9657 34 12.8868 3.3054 76.9703
9805163 5.8487 23.5355 13.9951 34 12.1776 3.60774 77.3793
9805169 5.8487 23.5355 13.9951 34 12.1776 3.60774 77.3793
9805179 6.15699 22.7283 15.3156 33.5421 11.19 3.85356 77.743
9805189 6.15699 22.7283 15.3156 33.5421 11.19 3.85356 77.743
9805199 6.50052 21.8141 16.6153 32.6848 10.1086 4.05571 77.6147
9805210 6.87927 20.8707 18.0041 31.808 8.95908 4.26666 77.5621
9805219 6.87927 20.8707 18.0041 31.808 8.95908 4.26666 77.5621
9805231 7.27565 20.0149 19.4019 30.8436 7.79668 4.44082 77.5359
9805240 7.72487 19.1299 20.78 29.5966 6.54579 4.56845 77.2313
9805265 8.22694 18.2546 22.1876 28.2716 5.23509 4.67458 76.9408
9805269 8.22694 18.2546 22.1876 28.2716 5.23509 4.67458 76.9408
9805279 8.61451 17.4182 23.7035 26.9467 3.92749 4.81545 76.6829
9805297 9.16943 16.6685 25.2982 25.7387 2.58197 4.91689 76.8748
9805301 9.16943 16.6685 25.2982 25.7387 2.58197 4.91689 76.8748
9805309 9.61865 15.8949 26.8338 24.4625 1.27096 5.03504 76.8098
9805332 10.0238 15.0753 28.2415 23.3032 0.0369072 5.17566 76.6437
9805342 10.4554 14.403 29.59 22.3387 -1.07563 5.28804 76.7872
9805360 10.4554 14.403 29.59 22.3387 -1.07563 5.28804 76.7872
9805361 10.9135 13.7492 30.8107 21.4424 -2.12328 5.38064 76.9157
9805371 11.3715 13.1506 31.8442 20.4585 -3.12617 5.42415 76.8248
9805386 11.3715 13.1506 31.8442 20.4585 -3.12617 5.42415 76.8248
9805391 11.9352 12.6625 32.7105 19.5037 -4.0617 5.393 76.812
9805401 12.4725 12.1192 33.5866 18.549 -5.01482 5.38476 76.7273
9805428 13.0891 11.6863 34 17.7307 -5.77474 5.28491 76.5061
9805445 13.6264 11.143 34 16.981 -6.43642 5.19037 75.7504
9805453 14.1461 10.701 34 16.1338 -7.10558 5.05863 74.9809
9805472 14.1461 10.701 34 16.1338 -7.10558 5.05863 74.9809
9805474 14.657 10.1392 34 15.3628 -7.80584 4.96904 74.159
9805483 15.1855 9.72481 34 14.6013 -8.45422 4.83414 73.5116
9805503 15.758 9.50379 34 14.0778 -8.92301 4.66651 73.3396
9805513 15.758 9.50379 34 14.0778 -8.92301 4.66651 73.3396
9805523 16.2865 9.24594 34 13.6019 -9.37955 4.52649 73.1344
9805533 16.7269 9.15385 34 13.0403 -9.78207 4.35255 72.9211
9805549 16.7269 9.15385 34 13.0403 -9.78207 4.35255 72.9211
9805553 17.2192 8.9052 34 12.5739 -10.2272 4.21938 72.6983
9805569 17.6178 8.65656 34 12.1456 -10.6378 4.11583 72.42
9805584 18.0164 8.48158 34 11.8029 -10.9722 4.00512 72.3009
9805595 18.0164 8.48158 34 11.8029 -10.9722 4.00512 72.3009
9805604 18.2556 8.20531 34 11.4983 -11.3092 3.96838 71.9592
9805619 18.6243 8.12243 34 11.2889 -11.5266 3.86105 72.0356
9805624 18.6243 8.12243 34 11.2889 -11.5266 3.86105 72.0356
9805634 18.8834 7.9935 34 11.1842 -11.6934 3.8108 72.0611
9805644 19.0528 7.82774 34 11.07 -11.8675 3.79209 71.9505
9805654 19.0528 7.82774 34 11.07 -11.8675 3.79209 71.9505
9805669 19.272 7.78169 34 10.8987 -12.0189 3.72017 71.9523
9805675 19.272 7.78169 34 10.8987 -12.0189 3.72017 71.9523
9805685 19.4015 7.62514 34 10.8606 -12.1426 3.72123 71.8872
9805695 19.561 7.6896 34 10.9082 -12.1133 3.67058 72.1587
9805719 19.6805 7.65276 34 10.794 -12.2124 3.63122 72.1273
9805726 19.7005 7.67118 34 10.8035 -12.2015 3.62282 72.1751
9805744 19.7005 7.67118 34 10.8035 -12.2015 3.62282 72.1751
9805746 19.7603 7.71723 34 10.7559 -12.2129 3.58803 72.2334
9805756 19.6905 7.69881 34 10.813 -12.1806 3.61976 72.2023
9805776 19.6706 7.69881 34 10.813 -12.1771 3.6249 72.1824
9805794 19.6706 7.69881 34 10.813 -12.1771 3.6249 72.1824
9805796 19.4713 7.70802 34 10.8225 -12.1319 3.67558 72.0018
9805806 19.3617 7.7909 34 10.9272 -12.0157 3.69895 72.0798
9805818 19.3617 7.7909 34 10.9272 -12.0157 3.69895 72.0798
9805826 19.2122 7.85536 34 11.051 -11.8922 3.74039 72.1185
9805839 19.0627 7.83694 34 11.2032 -11.7965 3.8078 72.1029
9805846 19.0627 7.83694 34 11.2032 -11.7965 3.8078 72.1029
9805856 19.0029 8.03955 34 11.3746 -11.5956 3.79719 72.4171
9805866 19.0029 8.03955 34 11.3746 -11.5956 3.79719 72.4171
9805876 18.8335 8.20531 34 11.4793 -11.4278 3.81431 72.5181
9805888 18.7638 8.34344 34 11.7363 -11.2172 3.83611 72.8435
9805898 18.7638 8.34344 34 11.7363 -11.2172 3.83611 72.8435
9805912 18.6043 8.50921 34 11.9552 -10.9965 3.86793 73.0688
9805918 18.4349 8.65656 34 12.0885 -10.826 3.89389 73.18
9805938 18.3353 8.73023 34 12.2503 -10.6917 3.9251 73.3158
9805960 18.3353 8.73023 34 12.2503 -10.6917 3.9251 73.3158
9805962 18.1559 8.84995 34 12.4311 -10.5107 3.96774 73.437
9805969 17.9666 9.06176 34 12.7643 -10.2112 4.01177 73.7926
9805984 17.9666 9.06176 34 12.7643 -10.2112 4.01177 73.7926
9805989 17.7972 9.21831 34 13.0784 -9.95375 4.06165 74.0939
9806000 17.5182 9.39328 34 13.4496 -9.64056 4.14293 74.3611
9806026 17.2093 9.66956 34 13.8684 -9.25495 4.21212 74.7472
9806035 17.2093 9.66956 34 13.8684 -9.25495 4.21212 74.7472
9806044 16.8943 9.84453 34 14.2016 -8.95652 4.29596 74.9404
9806056 16.5508 9.96425 34 14.7156 -8.59722 4.4265 75.2306
9806060 16.5508 9.96425 34 14.7156 -8.59722 4.4265 75.2306
9806072 16.2425 10.2221 34 15.1344 -8.22961 4.49803 75.599
9806081 15.9254 10.4247 34 15.6769 -7.83398 4.60235 76.027
9806101 15.6435 10.7102 34 16.2004 -7.42379 4.67252 76.5542
9806111 15.2648 10.8667 33.8228 16.5907 -7.06451 4.75838 76.545
9806122 15.2648 10.8667 33.8228 16.5907 -7.06451 4.75838 76.545
9806131 14.9653 11.1062 33.4094 17.0195 -6.61729 4.77594 76.5003
9806154 14.613 11.3824 32.7499 17.5553 -6.037 4.77908 76.3006
9806161 14.3575 11.5666 32.0706 18.0424 -5.5299 4.77179 76.0372
9806171 14.3575 11.5666 32.0706 18.0424 -5.5299 4.77179 76.0372
9806181 14.058 11.8889 31.3127 18.8413 -4.80957 4.77135 76.1009
9806193 14.058 11.8889 31.3127 18.8413 -4.80957 4.77135 76.1009
9806203 13.6969 12.331 30.5153 19.6693 -4.00587 4.75449 76.2126
9806216 13.3446 12.8006 29.6688 20.5461 -3.1648 4.7282 76.3601
9806223 13.3446 12.8006 29.6688 20.5461 -3.1648 4.7282 76.3601
9806233 13.0275 13.2059 28.773 21.4034 -2.35284 4.70028 76.4098
9806243 12.6575 13.786 27.7197 22.3582 -1.38297 4.63289 76.5215
9806253 12.6575 13.786 27.7197 22.3582 -1.38297 4.63289 76.5215
9806263 12.2435 14.2833 26.5877 23.4688 -0.352284 4.60864 76.5833
9806284 11.7238 14.8911 25.4163 24.7937 0.828066 4.60691 76.825
9806295 11.1953 15.6186 24.1563 25.9433 2.01857 4.54126 76.9136
9806309 11.1953 15.6186 24.1563 25.9433 2.01857 4.54126 76.9136
9806313 10.7461 16.3369 22.8471 27.0734 3.18721 4.44865 77.0035
9806323 10.2352 17.0389 21.4493 28.1255 4.38517 4.35283 76.849
9806333 10.2352 17.0389 21.4493 28.1255 4.38517 4.35283 76.849
9806343 9.73316 17.7683 20.1795 29.1095 5.52318 4.2559 76.7904
9806355 9.73316 17.7683 20.1795 29.1095 5.52318 4.2559 76.7904
9806363 9.22228 18.4491 18.9589 29.9765 6.60661 4.16361 76.6068
9806378 8.77306 19.3049 17.7973 30.9117 7.69865 4.03019 76.7871
9806383 8.77306 19.3049 17.7973 30.9117 7.69865 4.03019 76.7871
9806393 8.41192 20.0635 16.7817 31.6229 8.61501 3.88836 76.88
9806405 7.98031 20.8124 15.8563 32.2269 9.49671 3.76397 76.8759
9806413 7.98031 20.8124 15.8563 32.2269 9.49671 3.76397 76.8759
9806425 7.67202 21.5904 14.8997 32.6069 10.2989 3.56475 76.769
9806433 7.67202 21.5904 14.8997 32.6069 10.2989 3.56475 76.769
9806448 7.35492 22.2031 14.1823 33.0258 10.9722 3.4488 76.7661
9806453 7.08187 22.845 13.496 33.5616 11.635 3.33784 76.9845
9806473 6.87927 23.4479 12.9865 34 12.1525 3.23215 77.3138
9806483 6.60622 23.9245 12.3939 34 12.6502 3.09326 76.9246
9806504 6.2715 24.2843 11.8948 34 13.1189 3.00958 76.4506
9806518 6.2715 24.2843 11.8948 34 13.1189 3.00958 76.4506
9806524 6.06891 24.4691 11.3957 34 13.5001 2.935 75.9337
9806534 5.89275 24.8776 11.0318 34 13.8364 2.82211 75.8021
9806544 5.89275 24.8776 11.0318 34 13.8364 2.82211 75.8021
9806554 5.69016 25.3249 10.6263 34 14.2146 2.69916 75.6414
9806569 5.58446 25.3249 10.1792 34 14.5033 2.65083 75.0886
9806574 5.58446 25.6945 10.1792 34 14.5547 2.56438 75.4582
9806584 5.40829 25.9765 9.84648 34 14.8614 2.48467 75.2313
9806595 5.40829 25.9765 9.84648 34 14.8614 2.48467 75.2313
9806604 5.32902 26.2391 9.57615 34 15.0823 2.39699 75.1443
9806621 5.27617 26.5503 9.43058 34 15.229 2.31289 75.2571
9806635 5.25855 26.7643 9.25382 34 15.3606 2.23794 75.2767
9806647 5.24093 27.0269 9.16024 34 15.4537 2.16612 75.4281
9806655 5.24093 27.0269 9.16024 34 15.4537 2.16612 75.4281
9806681 5.16166 27.2506 9.06667 34 15.5746 2.11737 75.4789
9806683 5.16166 27.2506 9.06667 34 15.5746 2.11737 75.4789
9806685 5.09119 27.484 8.9107 34 15.7255 2.0538 75.4859
9806700 5.1 27.7563 8.88991 34 15.7653 1.98695 75.7462
9806715 5.06477 28.0286 8.88991 34 15.8173 1.93395 75.9833
9806727 5.06477 28.1259 8.87951 34 15.8346 1.91052 76.0701
9806735 5.06477 28.1259 8.87951 34 15.8346 1.91052 76.0701
9806751 5.08238 28.1842 8.79633 34 15.8768 1.87931 76.0629
9806780 5.07358 28.1453 8.85872 34 15.8434 1.90066 76.0776
9806782 5.02953 28.0772 8.85872 34 15.8588 1.9256 75.9655
9806786 5.02953 28.0772 8.85872 34 15.8588 1.9256 75.9655
9806803 5.05596 28.0092 8.99388 34 15.7639 1.95811 76.059
9806806 5.07358 27.9119 8.95229 34 15.7649 1.96875 75.9378
9806819 5.07358 27.9119 8.95229 34 15.7649 1.96875 75.9378
9806829 5.05596 27.6396 9.16024 34 15.6295 2.06933 75.8558
9806838 5.05596 27.6396 9.16024 34 15.6295 2.06933 75.8558
9806853 4.95026 27.4451 9.10826 34 15.6902 2.12829 75.5036
9806858 5.02073 27.2408 9.25382 34 15.5486 2.18344 75.5154
9806878 4.93264 27.0658 9.28502 34 15.5572 2.24882 75.2834
9806888 4.90622 26.8421 9.39939 34 15.4817 2.32563 75.1477
9806908 4.95907 26.7059 9.50336 34 15.38 2.36237 75.1684
9806919 4.95907 26.7059 9.50336 34 15.38 2.36237 75.1684
9806930 4.92383 26.5795 9.51376 34 15.3771 2.40154 75.0171
9806939 4.93264 26.599 9.65933 34 15.2967 2.41938 75.1909
9806953 4.93264 26.599 9.65933 34 15.2967 2.41938 75.1909
9806959 4.92383 26.5698 9.58654 34 15.3367 2.416 75.0802
9806969 4.91503 26.5503 9.55535 34 15.3557 2.41733 75.0207
9806979 4.91503 26.5503 9.55535 34 15.3557 2.41733 75.0207
9806989 4.95026 26.6962 9.60734 34 15.3277 2.3841 75.2538
9807009 4.9943 26.6476 9.65933 34 15.27 2.39387 75.3012
9807019 5.06477 26.599 9.64893 34 15.2316 2.38709 75.3127
9807043 5.02953 26.6281 9.7633 34 15.1932 2.40761 75.421
9807053 5.11762 26.5795 9.97125 34 15.0296 2.43314 75.6684
9807077 5.25855 26.385 10.148 34 14.8362 2.47477 75.7916
9807080 5.25855 26.385 10.148 34 14.8362 2.47477 75.7916
9807090 5.30259 26.2878 10.4911 34 14.6205 2.54348 76.0815
9807103 5.39067 26.0641 10.9174 34 14.3233 2.64416 76.3722
9807110 5.39067 26.0641 10.9174 34 14.3233 2.64416 76.3722
9807120 5.57565 25.8209 11.5205 34 13.8866 2.75438 76.9171
9807133 5.71658 25.5292 12.1443 34 13.4605 2.88769 77.3901
9807140 5.71658 25.5292 12.1443 34 13.4605 2.88769 77.3901
9807163 5.92798 25.1791 12.9657 33.8246 12.8727 3.02 77.8974
9807166 5.92798 25.1791 12.9657 33.8246 12.8727 3.02 77.8974
9807170 6.10415 24.6928 13.6208 33.4934 12.3414 3.14152 77.9111
9807192 6.31554 24.226 14.4006 32.8699 11.6883 3.22489 77.812
9807194 6.31554 24.226 14.4006 32.8699 11.6883 3.22489 77.812
9807201 6.62383 23.73 15.2012 32.1685 10.9598 3.28393 77.7235
9807222 6.94093 23.1465 16.1682 31.4768 10.1355 3.38809 77.7324
9807224 6.94093 23.1465 16.1682 31.4768 10.1355 3.38809 77.7324
9807231 7.24922 22.5143 17.1969 30.7364 9.26827 3.50782 77.6968
9807252 7.24922 22.5143 17.1969 30.7364 9.26827 3.50782 77.6968
9807254 7.56632 21.9016 18.2403 30.0934 8.41512 3.63728 77.8016
9807261 7.92746 21.3473 19.205 29.4309 7.58746 3.72758 77.9106
9807279 7.92746 21.3473 19.205 29.4309 7.58746 3.72758 77.9106
9807281 8.25337 20.6762 19.9826 28.5834 6.78219 3.80082 77.4956
9807309 8.59689 20.0635 20.6618 27.765 6.02233 3.84626 77.0873
9807320 8.59689 20.0635 20.6618 27.765 6.02233 3.84626 77.0873
9807322 8.83471 19.4703 21.3115 27.0636 5.34285 3.92608 76.6801
9807323 9.2399 18.8284 22.1089 26.3719 4.52375 3.99989 76.549
9807344 9.54819 18.099 22.9849 25.8166 3.72225 4.15071 76.4487
9807353 9.54819 18.099 22.9849 25.8166 3.72225 4.15071 76.4487
9807363 9.87409 17.389 23.9496 25.1054 2.84033 4.28311 76.3182
9807373 10.2352 16.6224 25.1702 24.3456 1.82083 4.45013 76.3735
9807385 10.2352 16.6224 25.1702 24.3456 1.82083 4.45013 76.3735
9807393 10.6316 15.9594 26.3909 23.3519 0.749597 4.54945 76.3337
9807409 11.0192 15.9594 27.5524 22.4361 -0.0571981 4.48438 76.967
9807413 11.0192 15.2042 27.5524 22.4361 -0.305478 4.67744 76.2119
9807423 11.5124 14.3662 28.9797 21.3352 -1.57189 4.81071 76.1936
9807444 12.1114 13.519 30.2693 20.2441 -2.82938 4.90185 76.1437
9807464 12.7104 12.6901 31.3422 19.2407 -3.98829 4.9713 75.9834
9807467 12.7104 12.6901 31.3422 19.2407 -3.98829 4.9713 75.9834
9807474 13.3534 11.935 32.4644 18.2372 -5.14723 5.01644 75.99
9807494 14.014 11.2075 33.7342 17.2436 -6.33116 5.07019 76.1992
9807504 14.8596 10.4707 34 16.1814 -7.35231 4.93653 75.5117
9807518 14.8596 10.4707 34 16.1814 -7.35231 4.93653 75.5117
9807524 15.6964 9.87216 34 15.1249 -8.26692 4.73061 74.6934
9807534 16.4803 9.3104 34 14.3063 -9.06367 4.55799 74.097
9807544 16.4803 9.3104 34 14.3063 -9.06367 4.55799 74.097
9807555 17.2591 8.9052 34 13.5543 -9.76673 4.35237 73.7186
9807568 17.9467 8.46316 34 12.8404 -10.4584 4.18373 73.2502
9807594 18.6342 8.00271 34 12.1646 -11.1491 4.02347 72.8016
9807595 18.6342 8.00271 34 12.1646 -11.1491 4.02347 72.8016
9807605 19.2521 7.64355 34 11.6411 -11.707 3.87641 72.5367
9807621 19.6905 7.25677 34 11.0224 -12.3008 3.76724 71.9697
9807625 19.6905 7.25677 34 11.0224 -12.3008 3.76724 71.9697
9807635 20.0492 6.81473 34 10.6226 -12.8038 3.72629 71.4866
9807647 20.1987 6.52004 34 10.2514 -13.1842 3.70564 70.9702
9807656 20.1987 6.52004 34 10.2514 -13.1842 3.70564 70.9702
9807674 20.5076 6.20693 34 9.94681 -13.5696 3.65806 70.6614
9807676 20.5076 6.20693 34 9.94681 -13.5696 3.65806 70.6614
9807686 20.7866 5.95829 34 9.61366 -13.9339 3.59631 70.3586
9807699 21.1055 5.78332 34 9.38522 -14.2076 3.52116 70.274
9807725 21.2849 5.64518 34 9.12822 -14.4563 3.46815 70.0583
9807726 21.4742 5.48862 34 8.87122 -14.7186 3.41704 69.8341
9807736 21.4742 5.48862 34 8.87122 -14.7186 3.41704 69.8341
9807750 21.6536 5.39653 34 8.83315 -14.819 3.38773 69.8833
9807766 21.7831 5.27681 34 8.64278 -15.015 3.35342 69.7027
9807776 22.0023 5.17551 34 8.53807 -15.1647 3.30489 69.7159
9807786 22.0023 5.17551 34 8.53807 -15.1647 3.30489 69.7159
9807808 22.2016 5.08342 34 8.45241 -15.2952 3.26238 69.7375
9807810 22.2016 5.08342 34 8.45241 -15.2952 3.26238 69.7375
9807816 22.3511 5.06501 34 8.32867 -15.3981 3.20724 69.7448
9807828 22.4807 5.02817 34 8.29059 -15.4593 3.17662 69.7994
9807836 22.4807 5.02817 34 8.29059 -15.4593 3.17662 69.7994
9807851 22.5404 4.98212 34 8.19541 -15.5494 3.1569 69.718
9807856 22.68 4.90845 34 8.28108 -15.5613 3.15431 69.8695
9807868 22.68 4.90845 34 8.28108 -15.5613 3.15431 69.8695
9807878 22.6999 4.89924 34 8.32867 -15.5417 3.15959 69.9278
9807888 22.6999 4.89924 34 8.32867 -15.5417 3.15959 69.9278
9807898 22.6202 4.90845 34 8.30963 -15.5366 3.1747 69.8382
9807908 22.7098 4.83478 34 8.38578 -15.5473 3.18341 69.9304
9807928 22.67 4.92687 34 8.42385 -15.4666 3.17627 70.0207
9807937 22.7397 4.94529 34 8.51904 -15.4106 3.16948 70.2041
9807949 22.7397 4.94529 34 8.51904 -15.4106 3.16948 70.2041
9807963 22.7597 4.98212 34 8.51904 -15.3921 3.15479 70.2608
9807978 22.6999 4.92687 34 8.63326 -15.35 3.20378 70.26
9807989 22.66 5.00054 34 8.73796 -15.2423 3.21258 70.3985
9808006 22.66 5.00054 34 8.73796 -15.2423 3.21258 70.3985
9808011 22.6102 5.07421 34 8.83315 -15.1391 3.22233 70.5176
9808019 22.6002 5.06501 34 8.89026 -15.1104 3.23682 70.5555
9808035 22.6002 5.06501 34 8.89026 -15.1104 3.23682 70.5555
9808040 22.5106 5.12026 34 8.95689 -15.0286 3.25681 70.5877
9808050 22.4906 5.1571 34 9.02352 -14.9672 3.26352 70.6712
9808063 22.4906 5.1571 34 9.02352 -14.9672 3.26352 70.6712
9808070 22.4707 5.27681 34 9.15677 -14.8218 3.25987 70.9043
9808090 22.3511 5.26761 34 9.33763 -14.7083 3.32294 70.9563
9808100 22.3312 5.38732 34 9.49944 -14.5484 3.3238 71.2179
9808115 22.3312 5.38732 34 9.49944 -14.5484 3.3238 71.2179
9808120 22.391 5.41495 34 9.66125 -14.4524 3.32782 71.4672
9808130 22.2116 5.48862 34 9.87066 -14.2699 3.38904 71.5709
9808140 22.2116 5.48862 34 9.87066 -14.2699 3.38904 71.5709
9808150 22.2315 5.60834 34 9.97536 -14.1501 3.37021 71.8152
9808167 22.2315 5.60834 34 9.97536 -14.1501 3.37021 71.8152
9808170 22.0721 5.67281 34 10.2514 -13.941 3.43903 71.9963
9808183 22.0223 5.82015 34 10.4323 -13.7565 3.44308 72.2747
9808203 21.8529 5.94908 34 10.6988 -13.5188 3.49586 72.5007
9808217 21.6735 6.25298 34 11.0605 -13.1394 3.52131 72.987
9808221 21.6735 6.25298 34 11.0605 -13.1394 3.52131 72.987
9808231 21.5141 6.49242 34 11.3555 -12.8357 3.54728 73.362
9808241 21.5141 6.49242 34 11.3555 -12.8357 3.54728 73.362
9808252 21.3148 6.75027 34 11.7363 -12.4755 3.59165 73.8013
9808267 21.0856 7.16468 34 12.3359 -11.9275 3.6372 74.5862
9808271 21.0856 7.16468 34 12.3359 -11.9275 3.6372 74.5862
9808284 20.697 7.63434 34 12.8309 -11.3859 3.69194 75.1622
9808295 20.3781 8.22373 34 13.4306 -10.7598 3.71462 76.0324
9808304 20.3781 8.22373 34 13.4306 -10.7598 3.71462 76.0324
9808313 20.0094 8.84995 33.1633 14.0398 -9.95333 3.6175 76.0624
9808333 19.551 9.40249 31.8836 14.8774 -8.96616 3.52789 75.7145
9808350 18.9531 10.1484 30.5153 16.0386 -7.69322 3.46024 75.6555
9808364 18.1858 10.9128 29.029 17.3312 -6.28514 3.43133 75.4588
9808377 17.3089 11.7784 27.4835 19.0458 -4.61807 3.45995 75.6167
9808394 16.4979 12.7638 25.7805 20.9358 -2.8228 3.44598 75.9781
9808405 16.4979 12.7638 25.7805 20.9358 -2.8228 3.44598 75.9781
9808414 15.4938 13.786 24.0579 22.894 -0.941758 3.47731 76.2317
9808431 14.4984 14.9003 22.227 24.8814 0.998691 3.47214 76.5071
9808444 13.3886 16.033 20.4847 26.6739 2.88381 3.47419 76.5802
9808460 12.4109 17.214 18.8506 28.2327 4.62309 3.41394 76.7081
9808465 12.4109 17.214 18.8506 28.2327 4.62309 3.41394 76.7081
9808475 11.4684 18.4102 17.3839 29.6355 6.23989 3.34356 76.898
9808485 10.4731 19.5481 15.9083 30.8338 7.81643 3.26738 76.7632
9808495 10.4731 19.5481 15.9083 30.8338 7.81643 3.26738 76.7632
9808511 9.48653 20.5984 14.7645 31.9054 9.20228 3.24117 76.7549
9808515 9.48653 20.5984 14.7645 31.9054 9.20228 3.24117 76.7549
9808525 8.67617 21.4737 13.6832 32.8602 10.4229 3.20631 76.6932
9808536 7.94508 22.3003 12.7474 33.6493 11.5006 3.16104 76.6421
9808545 7.94508 22.3003 12.7474 33.6493 11.5006 3.16104 76.6421
9808562 7.29326 23.1173 12.0196 34 12.3657 3.06339 76.4301
9808565 7.29326 23.1173 12.0196 34 12.3657 3.06339 76.4301
9808575 6.77358 23.6327 11.4061 34 13.0101 2.96782 75.8124
9808587 6.36839 24.2746 10.9174 34 13.5616 2.83371 75.5604
9808613 6.02487 24.79 10.4391 34 14.061 2.71565 75.2541
9808616 5.6285 25.3736 10.044 34 14.5581 2.60679 75.0461
9808626 5.6285 25.3736 10.044 34 14.5581 2.60679 75.0461
9808638 5.42591 25.9279 9.66972 34 14.9394 2.46241 75.0235
9808661 5.17927 26.3267 9.25382 34 15.347 2.35713 74.7598
9808666 5.10881 26.7546 8.99388 34 15.5803 2.23034 74.8573
9808676 5.10881 26.7546 8.99388 34 15.5803 2.23034 74.8573
9808687 4.96788 27.0366 8.78593 34 15.8051 2.16233 74.7904
9808696 4.91503 27.2214 8.68196 34 15.9133 2.11423 74.8184
9808710 4.91503 27.2214 8.68196 34 15.9133 2.11423 74.8184
9808718 4.89741 27.3186 8.53639 34 16.0145 2.0709 74.7524
9808728 4.84456 27.3478 8.22446 34 16.219 2.02214 74.4169
9808737 4.84456 27.3478 8.22446 34 16.219 2.02214 74.4169
9808748 4.7829 27.5034 8.20367 34 16.283 1.99705 74.49
9808767 4.80052 27.5715 8.11009 34 16.3331 1.96116 74.4821
9808781 4.80052 27.6493 8.09969 34 16.3479 1.94163 74.5495
9808803 4.83575 27.6688 8.11009 34 16.3249 1.93104 74.6146
9808810 4.95026 27.6979 8.18287 34 16.2248 1.91124 74.8311
9808830 4.95026 27.6979 8.18287 34 16.2248 1.91124 74.8311
9808831 5.07358 27.7563 8.18287 34 16.1639 1.87028 75.0127
9808840 5.07358 27.7563 8.18287 34 16.1639 1.87028 75.0127
9808859 5.11762 27.7563 8.27645 34 16.0885 1.87675 75.1504
9808861 5.24093 27.873 8.35963 34 15.9898 1.83754 75.4736
9808870 5.24093 27.873 8.35963 34 15.9898 1.83754 75.4736
9808889 5.40829 27.9703 8.46361 34 15.8548 1.79684 75.8421
9808891 5.44352 28.0772 8.5156 34 15.8208 1.77445 76.0364
9808900 5.44352 28.0772 8.5156 34 15.8208 1.77445 76.0364
9808921 5.54922 28.1453 8.53639 34 15.7612 1.73982 76.2309
9808923 5.54922 28.1453 8.53639 34 15.7612 1.73982 76.2309
9808931 5.59326 28.1842 8.46361 34 15.7813 1.70895 76.2411
9808947 5.65492 28.3495 8.52599 34 15.7351 1.67022 76.5305
9808951 5.65492 28.3495 8.52599 34 15.7351 1.67022 76.5305
9808961 5.68135 28.3106 8.4948 34 15.7329 1.66751 76.4868
9808973 5.74301 28.3787 8.54679 34 15.6808 1.64834 76.6685
9808981 5.74301 28.3787 8.54679 34 15.6808 1.64834 76.6685
9809000 5.82228 28.3398 8.57798 34 15.6175 1.64501 76.7401
9809001 5.82228 28.3398 8.57798 34 15.6175 1.64501 76.7401
9809011 5.92798 28.3398 8.61957 33.8441 15.5205 1.60219 76.7315
9809033 5.97202 28.3009 8.83792 33.7954 15.3714 1.63063 76.9063
9809036 5.97202 28.3009 8.83792 33.7954 15.3714 1.63063 76.9063
9809051 5.99845 28.1648 8.9211 33.6395 15.2771 1.64175 76.7238
9809053 6.02487 28.0967 9.19144 33.5032 15.0956 1.67407 76.8161
9809063 6.02487 28.0967 9.19144 33.5032 15.0956 1.67407 76.8161
9809078 6.13057 27.9605 9.44098 33.4057 14.8804 1.70702 76.9378
9809083 6.17461 27.8438 9.7841 33.2011 14.6377 1.7467 77.0037
9809093 6.17461 27.8438 9.7841 33.2011 14.6377 1.7467 77.0037
9809103 6.39482 27.7271 10.2 32.8699 14.2509 1.73878 77.1918
9809113 6.39482 27.7271 10.2 32.8699 14.2509 1.73878 77.1918
9809132 6.64145 27.6007 10.6575 32.4413 13.8164 1.71771 77.3409
9809135 6.9057 27.377 11.2086 32.0808 13.3242 1.74161 77.5721
9809144 6.9057 27.377 11.2086 32.0808 13.3242 1.74161 77.5721
9809156 7.16114 27.1144 11.8012 31.5158 12.7808 1.74787 77.5925
9809162 7.41658 26.7059 12.4355 30.9994 12.2017 1.80106 77.5574
9809172 7.41658 26.7059 12.4355 30.9994 12.2017 1.80106 77.5574
9809183 7.66321 26.3169 13.0905 30.3662 11.5996 1.83567 77.4369
9809193 7.66321 26.3169 13.0905 30.3662 11.5996 1.83567 77.4369
9809203 7.99793 25.8598 13.7248 29.7232 10.9501 1.86083 77.3057
9809226 8.31503 25.4708 14.3902 28.8854 10.2681 1.84718 77.0614
9809240 8.31503 25.4708 14.3902 28.8854 10.2681 1.84718 77.0614
9809251 9.14301 24.4497 15.8979 27.2195 8.67823 1.86247 76.71
9809262 9.14301 24.4497 15.8979 27.2195 8.67823 1.86247 76.71
9809265 9.6715 23.8564 16.7089 26.3817 7.78458 1.87212 76.6184
9809285 10.2088 23.2243 17.5906 25.4659 6.82797 1.88721 76.4896
9809297 10.7461 22.5435 18.5947 24.6281 5.82611 1.94737 76.5123
9809305 10.7461 22.5435 18.5947 24.6281 5.82611 1.94737 76.5123
9809328 11.1689 21.7849 19.5298 23.6734 4.84509 2.01873 76.157
9809328 11.7415 21.0847 20.839 22.816 3.70033 2.12385 76.4812
9809335 11.7415 21.0847 20.839 22.816 3.70033 2.12385 76.4812
9809359 12.3316 20.3455 21.9514 21.949 2.61551 2.1984 76.5775
9809360 12.3316 20.3455 21.9514 21.949 2.61551 2.1984 76.5775
9809366 12.8513 19.48 23.0243 20.9845 1.50278 2.29452 76.3401
9809386 13.4855 18.6533 24.176 20.1564 0.375384 2.39181 76.4713
9809387 13.4855 18.6533 24.176 20.1564 0.375384 2.39181 76.4713
9809396 14.0228 17.8364 25.377 19.2991 -0.739603 2.51196 76.5353
9809411 14.5161 17.0681 26.3613 18.4808 -1.74302 2.60211 76.4263
9809426 15.0005 16.5211 27.3358 17.6527 -2.66713 2.64022 76.5102
9809438 15.0005 16.5211 27.3358 17.6527 -2.66713 2.64022 76.5102
9809450 15.4497 15.8489 28.0938 16.8477 -3.55685 2.6842 76.2401
9809464 15.8813 15.2503 28.9207 16.0482 -4.43611 2.72742 76.1004
9809468 15.8813 15.2503 28.9207 16.0482 -4.43611 2.72742 76.1004
9809478 16.1984 14.7069 29.8263 15.4295 -5.21537 2.82632 76.1611
9809490 16.5244 14.1176 30.7811 14.8679 -6.00336 2.95063 76.2909
9809498 16.5244 14.1176 30.7811 14.8679 -6.00336 2.95063 76.2909
9809508 16.8767 13.5834 31.6178 14.3634 -6.72009 3.04569 76.4413
9809518 16.8767 13.5834 31.6178 14.3634 -6.72009 3.04569 76.4413
9809528 17.1495 13.0769 32.3364 13.8208 -7.39299 3.12845 76.3837
9809543 17.568 12.5244 33.0944 13.2116 -8.1567 3.18338 76.3984
9809558 18.0264 11.8982 33.8523 12.6786 -8.9274 3.25806 76.4555
9809570 18.4848 11.2259 34 12.1741 -9.58187 3.2543 75.8848
9809577 18.4848 11.2259 34 12.1741 -9.58187 3.2543 75.8848
9809595 19.0727 10.6733 34 11.6601 -10.1912 3.16568 75.4062
9809609 19.6706 10.0748 34 11.1461 -10.8322 3.08463 74.8915
9809620 20.1489 9.56826 34 10.6607 -11.4012 3.01371 74.3778
9809646 20.7468 9.08938 34 10.2514 -11.9473 2.91856 74.0876
9809649 21.2251 8.57367 34 9.86114 -12.4865 2.86364 73.6599
9809659 21.2251 8.57367 34 9.86114 -12.4865 2.86364 73.6599
9809672 21.7532 8.25135 34 9.54703 -12.9008 2.76183 73.5516
9809679 21.7532 8.25135 34 9.54703 -12.9008 2.76183 73.5516
9809689 22.1618 7.90141 34 9.24244 -13.3066 2.69678 73.3056
9809699 22.6501 7.62514 34 9.02352 -13.6433 2.60885 73.2987
9809709 22.6501 7.62514 34 9.02352 -13.6433 2.60885 73.2987
9809724 22.9988 7.42254 34 8.84266 -13.8996 2.54312 73.264
9809729 23.3675 7.17389 34 8.68085 -14.1736 2.48684 73.2223
9809750 23.7163 7.02654 34 8.5 -14.4006 2.40784 73.2428
9809759 23.7163 7.02654 34 8.5 -14.4006 2.40784 73.2428
9809774 24.0352 6.89762 34 8.3477 -14.598 2.33655 73.2805
9809780 24.3441 6.83315 34 8.16685 -14.7742 2.24755 73.3441
9809790 24.3441 6.83315 34 8.16685 -14.7742 2.24755 73.3441
9809803 24.643 6.7779 34 8.01456 -14.9283 2.16387 73.4355
9809810 24.9121 6.63976 34 7.76708 -15.1752 2.08989 73.3189
9809820 24.9121 6.63976 34 7.76708 -15.1752 2.08989 73.3189
9809833 25.2509 6.63055 34 7.59574 -15.3192 1.98313 73.4772
9809841 25.2509 6.63055 34 7.59574 -15.3192 1.98313 73.4772
9809861 25.5598 6.52004 34 7.50056 -15.4726 1.9205 73.5804
9809863 25.8189 6.49242 34 7.3673 -15.5945 1.84368 73.6786
9809886 25.8189 6.49242 34 7.3673 -15.5945 1.84368 73.6786
9809891 26.3271 6.52004 34 7.2626 -15.7012 1.70331 74.1097
9809900 26.3271 6.52004 34 7.2626 -15.7012 1.70331 74.1097
9809910 26.5961 6.59372 34 7.38634 -15.627 1.64861 74.5762
9809935 26.8154 6.63055 34 7.33875 -15.6603 1.58311 74.7847
9809943 26.915 6.65818 34 7.35778 -15.6474 1.55836 74.931
9809952 26.915 6.65818 34 7.35778 -15.6474 1.55836 74.931
9809976 27.0744 6.70423 34 7.37682 -15.6321 1.51649 75.1555
9809978 27.0744 6.81473 34 7.34826 -15.5878 1.48711 75.2374
9809983 27.0744 6.81473 34 7.34826 -15.5878 1.48711 75.2374
9809991 27.2438 6.85157 34 7.38634 -15.5686 1.44888 75.4818
9810001 27.2438 6.85157 34 7.38634 -15.5686 1.44888 75.4818
9810011 27.3335 6.81473 34 7.40538 -15.5894 1.44079 75.5536
9810026 27.4431 6.82394 34 7.41489 -15.593 1.41668 75.682
9810031 27.4431 6.82394 34 7.41489 -15.593 1.41668 75.682
9810041 27.4033 6.78711 34 7.43393 -15.5976 1.43675 75.6243
9810054 27.3634 6.84236 34 7.58623 -15.4815 1.46066 75.792
9810061 27.3634 6.84236 34 7.58623 -15.4815 1.46066 75.792
9810073 27.2737 6.80553 34 7.729 -15.4136 1.51363 75.8083
9810081 27.2737 6.80553 34 7.729 -15.4136 1.51363 75.8083
9810095 27.1243 6.74106 34 7.82419 -15.3783 1.57727 75.6895
9810105 26.9947 6.85157 34 7.93841 -15.2421 1.60167 75.7847
9810124 26.8253 6.75948 34 8.00504 -15.2338 1.67091 75.5898
9810133 26.8253 6.75948 34 8.00504 -15.2338 1.67091 75.5898
9810149 26.6758 6.83315 34 8.11926 -15.1145 1.70775 75.6283
9810153 26.4766 6.85157 34 8.35722 -14.9526 1.78947 75.6853
9810163 26.4766 6.85157 34 8.35722 -14.9526 1.78947 75.6853
9810173 26.3171 6.8792 34 8.57615 -14.8015 1.85684 75.7725
9810183 26.0879 6.91603 34 8.89026 -14.5866 1.95396 75.8942
9810203 25.8787 7.07259 34 9.19485 -14.3183 2.01788 76.1461
9810214 25.5199 7.14626 34 9.49944 -14.0727 2.13349 76.1656
9810224 25.5199 7.14626 34 9.49944 -14.0727 2.13349 76.1656
9810234 25.3505 7.32124 34 9.82307 -13.7938 2.18668 76.4948
9810255 24.9519 7.43174 34 10.2038 -13.4867 2.31502 76.5875
9810264 24.653 7.70802 33.5472 10.6512 -13.0098 2.31925 76.5594
9810286 24.374 8.03034 33.0255 11.2032 -12.4509 2.31449 76.633
9810295 23.8757 8.47237 32.3561 11.7648 -11.7677 2.30934 76.4691
9810316 23.3875 8.94204 31.5785 12.4882 -10.9742 2.30454 76.3962
9810325 23.3875 8.94204 31.5785 12.4882 -10.9742 2.30454 76.3962
9810344 22.8095 9.37486 30.6433 13.1831 -10.1613 2.29745 76.0108
9810345 22.092 10.1116 29.6786 14.0398 -9.09464 2.27499 75.922
9810369 21.4343 10.9404 28.586 15.0487 -7.90402 2.22208 76.0095
9810376 20.5973 11.8521 27.3949 16.0862 -6.6027 2.1793 75.9305
9810399 20.5973 11.8521 27.3949 16.0862 -6.6027 2.1793 75.9305
9810401 19.5909 12.9019 26.0759 17.2046 -5.1338 2.13551 75.7732
9810408 18.1958 13.8781 24.6682 18.4418 -3.50608 2.20183 75.1839
9810428 18.1958 13.8781 24.6682 18.4418 -3.50608 2.20183 75.1839
9810431 16.6741 14.9372 23.3393 20.0201 -1.68606 2.35054 74.9706
9810438 16.6741 14.9372 23.3393 20.0201 -1.68606 2.35054 74.9706
9810459 15.0534 16.2356 22.0203 21.9782 0.378624 2.53219 75.2875
9810461 13.6088 17.6419 20.7307 23.9754 2.39533 2.65719 75.9568
9810469 13.6088 17.6419 20.7307 23.9754 2.39533 2.65719 75.9568
9810488 12.3404 19.266 19.3231 25.9627 4.41047 2.66855 76.8923
9810490 11.1953 20.8318 17.6989 27.5215 6.29763 2.56188 77.2475
9810499 11.1953 20.8318 17.6989 27.5215 6.29763 2.56188 77.2475
9810516 10.1912 22.2225 16.1786 28.4567 7.88767 2.37931 77.0491
9810520 10.1912 22.2225 16.1786 28.4567 7.88767 2.37931 77.0491
9810529 9.2487 23.409 14.8165 29.2166 9.31025 2.22492 76.6909
9810542 8.56166 24.6344 13.6416 29.8304 10.5199 2.01046 76.6681
9810569 8.05959 25.5681 12.6122 30.3175 11.4991 1.82256 76.5574
9810570 7.63679 26.3364 11.7804 30.8436 12.3251 1.69409 76.5972
9810596 7.29326 27.163 11.0318 31.4086 13.0846 1.55743 76.8967
9810601 6.91451 27.163 10.3976 31.7398 13.6426 1.58627 76.2149
9810611 6.91451 27.8438 10.3976 31.7398 13.7432 1.43943 76.8957
9810628 6.74715 28.4468 9.82569 31.9542 14.2348 1.2834 76.9738
9810641 6.43886 28.9233 9.39939 32.1003 14.6969 1.19776 76.8619
9810661 6.19223 29.3513 9.06667 32.3633 15.0882 1.14712 76.9735
9810676 6.19223 29.3513 9.06667 32.3633 15.0882 1.14712 76.9735
9810690 6.03368 29.8181 8.77554 32.6458 15.4176 1.08116 77.2731
9810691 5.86632 30.1487 8.4844 32.8407 15.7223 1.02987 77.3401
9810693 5.86632 30.1487 8.4844 32.8407 15.7223 1.02987 77.3401
9810703 5.70777 30.4697 8.18287 33.0648 16.0296 0.982275 77.4251
9810723 5.59326 30.7323 7.95413 33.2206 16.2598 0.938557 77.5003
9810733 5.49637 30.9365 7.74618 33.2499 16.4486 0.884002 77.4289
9810746 5.49637 30.9365 7.74618 33.2499 16.4486 0.884002 77.4289
9810753 5.39948 31.1116 7.6318 33.357 16.5927 0.86667 77.4999
9810763 5.37306 31.1991 7.39266 33.4155 16.7513 0.821139 77.3803
9810784 5.28497 31.3158 7.31988 33.5713 16.867 0.830498 77.492
9810806 5.14404 31.2672 7.2367 33.4252 16.9682 0.827276 77.0731
9810815 5.18808 31.2185 7.10153 33.357 17.0057 0.790721 76.8652
9810833 5.18808 31.2185 7.10153 33.357 17.0057 0.790721 76.8652
9810834 5.1 31.131 7.05994 33.2791 17.0596 0.804757 76.57
9810844 5.04715 31.0143 6.99755 33.3083 17.114 0.833684 76.3673
9810857 5.04715 31.0143 6.99755 33.3083 17.114 0.833684 76.3673
9810865 5.00311 30.9754 7.03914 33.4544 17.1264 0.885631 76.4721
9810874 5.00311 30.9754 7.03914 33.4544 17.1264 0.885631 76.4721
9810885 4.97668 30.9657 6.99755 33.6201 17.1798 0.915999 76.56
9810894 4.93264 30.9462 7.05994 33.8539 17.1916 0.98348 76.7927
9810914 4.95907 31.1018 7.01835 33.9903 17.2295 0.96297 77.0695
9810924 4.97668 31.0921 7.04954 34 17.2027 0.968787 77.1183
9810941 4.97668 31.0921 7.04954 34 17.2027 0.968787 77.1183
9810944 4.90622 31.0824 7.13272 34 17.1948 1.00052 77.1213
9810968 4.87098 31.0629 7.08073 34 17.2406 1.00244 77.0146
9810976 4.92383 31.1018 7.05994 34 17.227 0.979614 77.0856
9810996 4.92383 31.1018 7.05994 34 17.227 0.979614 77.0856
9810998 4.91503 31.1018 7.10153 34 17.209 0.989002 77.1184
9811005 4.89741 31.131 7.11193 34 17.2159 0.988491 77.1404
9811024 4.89741 31.131 7.11193 34 17.2159 0.988491 77.1404
9811025 4.8886 31.0046 7.15352 34 17.1852 1.02412 77.0467
9811035 4.8886 31.0046 7.15352 34 17.1852 1.02412 77.0467
9811050 4.80052 30.8198 7.2367 34 17.1691 1.09614 76.857
9811055 4.7829 30.7906 7.34067 34 17.1188 1.12472 76.9142
9811077 4.80052 30.6058 7.46544 34 17.0218 1.18231 76.8718
9811085 4.76529 30.4502 7.54862 34 16.9794 1.23751 76.7641
9811105 4.76529 30.4502 7.54862 34 16.9794 1.23751 76.7641
9811106 4.73005 30.1974 7.72538 34 16.8754 1.33028 76.6528
9811132 4.70363 29.9542 7.72538 34 16.864 1.38791 76.3832
9811135 4.6772 29.6722 7.97492 34 16.7116 1.49864 76.3243
9811145 4.6772 29.6722 7.97492 34 16.7116 1.49864 76.3243
9811165 4.65959 29.3221 8.04771 34 16.6432 1.59137 76.0294
9811167 4.65078 29.04 8.29725 34 16.4802 1.6989 75.9881
9811176 4.65078 29.04 8.29725 34 16.4802 1.6989 75.9881
9811197 4.69482 28.7775 8.45321 34 16.3415 1.77429 75.9255
9811198 4.69482 28.7775 8.45321 34 16.3415 1.77429 75.9255
9811206 4.69482 28.4273 8.73394 34 16.1485 1.90066 75.8561
9811223 4.70363 28.0189 8.99388 34 15.9547 2.03484 75.7164
9811238 4.70363 27.7077 9.27462 34 15.7656 2.15298 75.6859
9811249 4.7829 27.3576 9.68012 34 15.4623 2.28296 75.8206
9811276 4.87098 27.0755 10.0232 34 15.1973 2.38452 75.9697
9811288 4.94145 26.6476 10.3872 34 14.9122 2.52673 75.9762
9811302 5.01192 26.4142 10.8446 34 14.6051 2.639 76.2708
9811308 5.01192 26.4142 10.8446 34 14.6051 2.639 76.2708
9811318 5.13523 26.0641 11.2917 34 14.2622 2.76355 76.4911
9811328 5.25855 25.7237 11.8948 34 13.8436 2.90969 76.877
9811338 5.25855 25.7237 11.8948 34 13.8436 2.90969 76.877
9811355 5.32902 25.4027 12.4667 34 13.4741 3.05736 77.1984
9811358 5.32902 25.4027 12.4667 34 13.4741 3.05736 77.1984
9811368 5.46995 25.0721 13.1841 33.7077 12.9549 3.16718 77.4339
9811382 5.70777 24.6928 13.9639 32.9284 12.2746 3.2005 77.2928
9811398 5.99845 24.3135 14.8269 32.1782 11.5325 3.23858 77.3171
9811409 6.26269 23.8953 15.7731 31.3209 10.7377 3.28846 77.252
9811438 6.60622 23.4674 16.7505 30.4052 9.87835 3.31779 77.2292
9811440 6.60622 23.4674 16.7505 30.4052 9.87835 3.31779 77.2292
9811449 7.1171 22.9714 17.7875 29.1679 8.83741 3.28389 77.0439
9811462 7.79534 22.3781 18.8112 27.8917 7.69523 3.2252 76.8764
9811469 7.79534 22.3781 18.8112 27.8917 7.69523 3.2252 76.8764
9811486 8.54404 21.746 20.0318 26.5083 6.40322 3.1726 76.8302
9811490 9.40725 21.0458 21.2721 25.008 5.00904 3.09393 76.7332
9811500 9.40725 21.0458 21.2721 25.008 5.00904 3.09393 76.7332
9811511 10.3674 20.258 22.7093 23.3713 3.43933 3.02231 76.706
9811520 10.3674 20.258 22.7093 23.3713 3.43933 3.02231 76.706
9811536 11.4684 19.2563 24.0973 21.6275 1.7391 2.94314 76.4495
9811540 12.8073 18.274 25.4852 19.7375 -0.09204 2.77996 76.304
9811560 14.0052 17.0973 26.9224 17.8768 -1.96094 2.70681 75.9016
9811570 15.1679 15.8489 28.5171 16.0862 -3.88451 2.69503 75.62
9811590 16.4451 14.5412 30.1511 14.4586 -5.81925 2.70321 75.5959
9811600 16.4451 14.5412 30.1511 14.4586 -5.81925 2.70321 75.5959
9811621 17.5281 13.2151 31.421 13.0308 -7.54813 2.73461 75.1949
9811622 18.6542 12.0731 32.681 11.7934 -9.13165 2.74204 75.2016
9811630 18.6542 12.0731 32.681 11.7934 -9.13165 2.74204 75.2016
9811652 19.6606 11.0417 33.8031 10.8511 -10.4739 2.77717 75.3565
9811653 19.6606 11.0417 33.8031 10.8511 -10.4739 2.77717 75.3565
9811660 20.6073 10.2313 34 10.1086 -11.4305 2.65588 74.9472
9811678 21.3646 9.56826 34 9.59462 -12.1437 2.54841 74.5275
9811680 21.3646 9.56826 34 9.59462 -12.1437 2.54841 74.5275
9811690 22.112 8.96045 34 9.04255 -12.8547 2.42262 74.115
9811703 22.7397 8.43554 34 8.66181 -13.4222 2.33349 73.8371
9811711 22.7397 8.43554 34 8.66181 -13.4222 2.33349 73.8371
9811730 23.1383 8.05796 34 8.30963 -13.8665 2.26784 73.5059
9811731 23.517 7.64355 34 8.10022 -14.255 2.23988 73.2608
9811762 23.8658 7.21993 34 7.68141 -14.7609 2.18417 72.7671
9811771 24.2444 6.74106 34 7.31019 -15.2821 2.14218 72.2957
9811793 24.653 6.46479 34 7.06271 -15.6294 2.06668 72.1805
9811803 25.0018 6.24377 34 6.83427 -15.9281 1.99544 72.0798
9811820 25.3904 5.90303 34 6.5963 -16.3066 1.94107 71.8897
9811823 25.3904 5.90303 34 6.5963 -16.3066 1.94107 71.8897
9811833 25.7392 5.72806 34 6.47256 -16.5203 1.87768 71.9398
9811846 25.7392 5.72806 34 6.47256 -16.5203 1.87768 71.9398
9811853 25.9584 5.54388 34 6.31075 -16.7462 1.83988 71.813
9811871 26.1975 5.41495 34 6.22508 -16.8984 1.79835 71.8376
9811874 26.1975 5.41495 34 6.22508 -16.8984 1.79835 71.8376
9811884 26.4267 5.20314 34 6.08231 -17.1314 1.76799 71.7122
9811903 26.626 5.09263 34 6.01568 -17.2573 1.73495 71.7343
9811914 26.8951 5.10184 34 5.86338 -17.3705 1.64203 71.8603
9811931 26.8951 5.10184 34 5.86338 -17.3705 1.64203 71.8603
9811934 27.0944 4.97291 34 5.89194 -17.4507 1.63106 71.9592
9811944 27.2937 5.00975 34 5.7682 -17.5228 1.55362 72.0716
9811962 27.2937 5.00975 34 5.7682 -17.5228 1.55362 72.0716
9811964 27.3435 4.98212 34 5.80627 -17.5218 1.55562 72.1319
9811975 27.4431 4.93608 34 5.7682 -17.5817 1.53622 72.1474
9811995 27.3634 4.97291 34 5.80627 -17.5293 1.55316 72.1426
9812015 27.3236 4.98212 34 5.83483 -17.5029 1.56552 72.1405
9812025 27.2239 5.02817 34 5.92049 -17.4149 1.59377 72.1726
9812045 27.1342 5.02817 34 6.04423 -17.3328 1.63735 72.2066
9812055 26.9449 5.02817 34 6.05375 -17.3071 1.68285 72.0268
9812067 26.9449 5.02817 34 6.05375 -17.3071 1.68285 72.0268
9812076 26.8253 5.0558 34 6.17749 -17.2055 1.727 72.0586
9812095 26.5164 5.00054 34 6.20605 -17.1876 1.81722 71.723
9812105 26.2872 4.98212 34 6.32979 -17.1005 1.89816 71.5991
9812125 25.9285 5.07421 34 6.32979 -17.0064 1.96133 71.3325
9812135 25.6096 4.94529 34 6.45353 -16.9736 2.09101 71.0084
9812157 25.2907 4.9545 34 6.60582 -16.8418 2.19346 70.8511
9812177 25.2907 4.9545 34 6.60582 -16.8418 2.19346 70.8511
9812179 24.932 4.86241 34 6.65342 -16.8267 2.31214 70.4478
9812186 24.5733 4.90845 34 6.81523 -16.6613 2.41835 70.297
9812210 24.5733 4.90845 34 6.81523 -16.6613 2.41835 70.297
9812212 24.2345 4.88082 34 6.97704 -16.5413 2.53846 70.0923
9812217 23.9853 4.91766 34 7.27212 -16.3147 2.64391 70.1751
9812226 23.9853 4.91766 34 7.27212 -16.3147 2.64391 70.1751
9812244 23.6764 5.01896 34 7.44345 -16.1159 2.72632 70.1388
9812246 23.6764 5.01896 34 7.44345 -16.1159 2.72632 70.1388
9812256 23.3875 4.98212 34 7.6243 -15.9946 2.84055 69.9939
9812278 23.1184 4.98212 34 7.86226 -15.8206 2.95051 69.9628
9812286 22.7896 5.09263 34 8.16685 -15.5356 3.05886 70.049
9812307 22.5903 5.07421 34 8.3477 -15.4146 3.14586 70.0122
9812309 22.5903 5.07421 34 8.3477 -15.4146 3.14586 70.0122
9812316 22.3113 5.12026 34 8.63326 -15.1851 3.2545 70.0648
9812337 22.3113 5.12026 34 8.63326 -15.1851 3.2545 70.0648
9812338 21.9725 5.10184 34 8.84266 -15.0278 3.38295 69.917
9812346 21.6735 5.16631 34 9.09015 -14.8066 3.4857 69.93
9812367 21.6735 5.16631 34 9.09015 -14.8066 3.4857 69.93
9812368 21.4144 5.19393 34 9.29955 -14.6339 3.5814 69.9079
9812376 21.0358 5.28602 34 9.58511 -14.3636 3.70421 69.9069
9812396 20.7966 5.33207 34 9.88018 -14.1355 3.80341 70.0089
9812406 20.7966 5.33207 34 9.88018 -14.1355 3.80341 70.0089
9812425 20.4678 5.40574 34 10.28 -13.8204 3.93561 70.1535
9812434 20.0393 5.62676 34 10.7844 -13.3527 4.07061 70.4505
9812454 19.7304 5.91224 34 11.584 -12.7179 4.19956 71.2266
9812468 19.1923 6.28061 34 12.5644 -11.92 4.39179 72.0373
9812482 18.6143 6.84236 34 13.8303 -10.8961 4.57933 73.287
9812488 18.6143 6.84236 34 13.8303 -10.8961 4.57933 73.287
9812498 17.8271 7.61593 34 15.1725 -9.72945 4.77035 74.6155
9812509 17.0797 8.65656 34 16.5907 -8.46112 4.88447 76.327
9812519 17.0797 8.65656 34 16.5907 -8.46112 4.88447 76.327
9812535 16.1016 9.77086 32.1592 18.0911 -6.69932 4.80368 76.1228
9812539 15.0181 10.8023 30.1118 20.1175 -4.67134 4.81439 76.0496
9812549 15.0181 10.8023 30.1118 20.1175 -4.67134 4.81439 76.0496
9812563 13.829 12.0179 28.0741 22.1731 -2.53377 4.80989 76.0941
9812569 13.829 12.0179 28.0741 22.1731 -2.53377 4.80989 76.0941
9812579 12.6399 13.1598 26.1251 24.4625 -0.373983 4.86754 76.3872
9812591 11.4948 14.3478 24.1367 26.5862 1.73138 4.87432 76.5655
9812618 10.4378 15.4437 22.4632 28.5639 3.61029 4.90432 76.9086
9812619 10.4378 15.4437 22.4632 28.5639 3.61029 4.90432 76.9086
9812629 9.31917 16.4014 20.7406 30.259 5.40948 4.94245 76.7202
9812645 8.42953 17.3793 19.3723 31.7983 6.94202 4.94193 76.9794
9812649 8.42953 17.3793 19.3723 31.7983 6.94202 4.94193 76.9794
9812659 7.68083 18.3129 18.0631 32.753 8.24178 4.84749 76.8099
9812672 7.1171 19.2855 16.9168 33.5324 9.36346 4.69344 76.8518
9812679 7.1171 19.2855 16.9168 33.5324 9.36346 4.69344 76.8518
9812689 6.67668 20.3455 15.7939 34 10.3738 4.44666 76.8161
9812699 6.67668 20.3455 15.7939 34 10.3738 4.44666 76.8161
9812710 6.26269 21.2305 14.6606 34 11.2625 4.16932 76.1538
9812726 5.89275 22.1934 13.652 34 12.0972 3.87504 75.7381
9812741 5.60207 22.9617 12.7786 34 12.8019 3.62642 75.3423
9812752 5.40829 23.6716 11.9988 34 13.4075 3.38023 75.0787
9812760 5.40829 23.6716 11.9988 34 13.4075 3.38023 75.0787
9812779 5.34663 24.4302 11.3021 34 13.9125 3.10179 75.079
9812780 5.34663 24.4302 11.3021 34 13.9125 3.10179 75.079
9812790 5.16166 25.1791 10.8135 34 14.3718 2.88861 75.1542
9812808 5.03834 25.8793 10.3248 34 14.7909 2.67279 75.2424
9812810 5.03834 25.8793 10.3248 34 14.7909 2.67279 75.2424
9812820 5.02073 26.6184 9.86728 34 15.1412 2.42922 75.5064
9812837 4.98549 27.2992 9.52416 34 15.4301 2.22391 75.8089
9812840 4.98549 27.2992 9.52416 34 15.4301 2.22391 75.8089
9812850 5.02953 27.8633 9.30581 34 15.5934 2.04984 76.1986
9812870 5.03834 28.5246 9.07706 34 15.7911 1.86211 76.64
9812881 5.13523 29.0498 8.85872 34 15.9182 1.68873 77.0437
9812896 5.13523 29.0498 8.85872 34 15.9182 1.68873 77.0437
9812902 5.14404 29.6236 8.61957 33.6298 16.0646 1.45716 77.017
9812912 5.24093 30.1196 8.40122 33.3181 16.1506 1.23744 77.0798
9812926 5.24093 30.1196 8.40122 33.3181 16.1506 1.23744 77.0798
9812933 5.24093 30.6545 8.26606 32.8991 16.2361 1.02578 77.0606
9812952 5.28497 31.0143 8.0789 32.4413 16.3018 0.824184 76.8194
9812963 5.4171 31.3936 7.96453 32.2464 16.3131 0.662202 77.0216
9812984 5.46114 31.7534 7.79817 31.9736 16.3885 0.498251 76.9864
9812994 5.48756 32.0355 7.70459 31.7203 16.4279 0.370749 76.948
9813011 5.48756 32.0355 7.70459 31.7203 16.4279 0.370749 76.948
9813014 5.61088 32.23 7.68379 31.545 16.3749 0.270129 77.0696
9813024 5.60207 32.405 7.68379 31.4183 16.385 0.213014 77.1092
9813042 5.60207 32.405 7.68379 31.4183 16.385 0.213014 77.1092
9813044 5.74301 32.5315 7.75658 31.3014 16.2717 0.151983 77.3325
9813054 5.74301 32.5315 7.75658 31.3014 16.2717 0.151983 77.3325
9813069 5.74301 32.6482 7.75658 31.0968 16.2618 0.0897628 77.2446
9813081 5.82228 32.7357 7.85015 30.9312 16.1608 0.0433284 77.3394
9813095 5.82228 32.7357 7.85015 30.9312 16.1608 0.0433284 77.3394
9813096 5.83109 32.8427 7.78777 30.8143 16.1882 -0.0139117 77.2759
9813105 5.81347 32.8913 7.89174 30.6195 16.1254 -0.0375992 77.216
9813126 5.92798 32.9691 7.94373 30.4149 16.0222 -0.104546 77.2557
9813135 5.92798 32.9691 7.94373 30.4149 16.0222 -0.104546 77.2557
9813157 5.98083 33.0177 8.04771 30.1616 15.9151 -0.153337 77.2079
9813159 5.98964 32.9691 8.21407 29.8986 15.7854 -0.164675 77.0714
9813186 6.10415 32.8913 8.34924 29.5284 15.5992 -0.218122 76.873
9813188 6.24508 32.6676 8.57798 29.1095 15.3244 -0.239931 76.6001
9813196 6.24508 32.6676 8.57798 29.1095 15.3244 -0.239931 76.6001
9813214 6.49171 32.5995 8.9315 28.7977 14.9615 -0.265954 76.8205
9813216 6.49171 32.5995 8.9315 28.7977 14.9615 -0.265954 76.8205
9813228 6.59741 32.23 9.3578 28.4762 14.5937 -0.194368 76.6614
9813243 6.88808 31.841 9.99205 28.067 14.0086 -0.13087 76.7881
9813247 6.88808 31.841 9.99205 28.067 14.0086 -0.13087 76.7881
9813256 7.12591 31.52 10.7615 27.4923 13.3697 -0.076502 76.8997
9813270 7.50466 31.131 11.5829 26.8785 12.6211 -0.0339094 77.0971
9813297 7.99793 30.4697 12.685 26.0797 11.6099 0.0576943 77.2323
9813308 8.55285 29.7014 13.7768 25.1249 10.5296 0.125874 77.1559
9813324 9.1342 28.8747 14.9829 24.1799 9.37441 0.224286 77.1717
9813329 9.1342 28.8747 14.9829 24.1799 9.37441 0.224286 77.1717
9813338 9.69793 27.8633 16.2514 23.0011 8.10894 0.330278 76.8137
9813352 10.4642 26.7546 17.8367 21.7931 6.58656 0.470603 76.8487
9813369 11.1865 25.4708 19.4904 20.5364 4.99785 0.659096 76.6842
9813382 12.0497 24.1482 21.3017 19.192 3.25614 0.840198 76.6916
9813389 12.0497 24.1482 21.3017 19.192 3.25614 0.840198 76.6916
9813409 12.9041 22.7477 22.9948 17.945 1.56471 1.03561 76.5916
9813409 12.9041 22.7477 22.9948 17.945 1.56471 1.03561 76.5916
9813419 13.6705 21.3764 24.6485 16.7906 -0.049673 1.25361 76.486
9813436 14.3927 20.0343 26.194 15.7245 -1.58093 1.47188 76.3456
9813439 14.3927 20.0343 26.194 15.7245 -1.58093 1.47188 76.3456
9813450 14.9917 18.6436 28.1036 14.7156 -3.18366 1.80184 76.4545
9813464 15.4497 17.2042 29.9149 13.9446 -4.64488 2.19677 76.5134
9813469 15.4497 17.2042 29.9149 13.9446 -4.64488 2.19677 76.5134
9813479 16.0399 15.8857 31.6474 13.1641 -6.07188 2.51883 76.737
9813495 16.0399 15.8857 31.6474 13.1641 -6.07188 2.51883 76.737
9813500 16.3746 14.5964 33.2617 12.4121 -7.38074 2.87745 76.6449
9813510 16.6477 13.344 34 11.7744 -8.42374 3.12463 75.766
9813521 16.6477 13.344 34 11.7744 -8.42374 3.12463 75.766
9813530 17.01 12.2205 34 11.1747 -9.27853 3.21434 74.4051
9813549 17.3886 11.1891 34 10.6512 -10.0877 3.29245 73.2289
9813551 17.3886 11.1891 34 10.6512 -10.0877 3.29245 73.2289
9813561 17.8271 10.3602 34 10.2704 -10.7637 3.32948 72.4578
9813580 17.8271 10.3602 34 10.2704 -10.7637 3.32948 72.4578
9813581 18.2356 9.69718 34 9.94681 -11.3355 3.34183 71.8796
9813591 18.5645 9.19989 34 9.65174 -11.8016 3.33693 71.4161
9813611 18.5645 9.19989 34 9.65174 -11.8016 3.33693 71.4161
9813612 19.0627 8.69339 34 9.3757 -12.2989 3.2938 71.1318
9813621 19.4115 8.27898 34 9.09015 -12.7303 3.26354 70.7806
9813643 19.4115 8.27898 34 9.09015 -12.7303 3.26354 70.7806
9813645 19.8599 7.85536 34 8.78555 -13.1981 3.20641 70.5008
9813673 20.1688 7.39491 34 8.52856 -13.6411 3.20253 70.0923
9813674 20.5375 6.97129 34 8.35722 -14.0301 3.18791 69.866
9813681 20.5375 6.97129 34 8.35722 -14.0301 3.18791 69.866
9813705 20.956 6.61213 34 8.01456 -14.4897 3.11422 69.5827
9813720 21.3746 6.28061 34 7.85274 -14.8333 3.06388 69.5079
9813721 21.3746 6.28061 34 7.85274 -14.8333 3.06388 69.5079
9813723 21.7732 6.01354 34 7.70997 -15.1265 3.00516 69.4967
9813743 22.2315 5.85699 34 7.50056 -15.4026 2.89098 69.5891
9813754 22.6401 5.73727 34 7.46249 -15.55 2.81038 69.8399
9813767 22.6401 5.73727 34 7.46249 -15.55 2.81038 69.8399
9813773 23.1084 5.65439 34 7.24356 -15.788 2.6742 70.0064
9813794 23.5369 5.59913 34 7.03415 -15.9981 2.5434 70.1702
9813804 23.9555 5.52546 34 6.95801 -16.1388 2.44405 70.4389
9813822 23.9555 5.52546 34 6.95801 -16.1388 2.44405 70.4389
9813824 24.2145 5.37811 34 6.83427 -16.3297 2.39432 70.4269
9813834 24.5135 5.37811 34 6.70101 -16.4445 2.29686 70.5926
9813854 24.8324 5.29523 34 6.54871 -16.621 2.21173 70.6763
9813864 25.1612 5.27681 34 6.54871 -16.6706 2.13646 70.9867
9813884 25.3107 5.23998 34 6.45353 -16.7656 2.09204 71.0042
9813905 25.3107 5.23998 34 6.45353 -16.7656 2.09204 71.0042
9813906 25.4601 5.22156 34 6.53919 -16.7435 2.07611 71.2209
9813915 25.6794 5.23998 34 6.45353 -16.8082 2.00374 71.3729
9813935 25.9086 5.23077 34 6.48208 -16.8231 1.95669 71.6214
9813946 26.1477 5.31365 34 6.46305 -16.8131 1.87732 71.9244
9813965 26.347 5.36891 34 6.42497 -16.8258 1.81084 72.1409
9813975 26.5164 5.35049 34 6.32979 -16.9108 1.7583 72.1967
9813993 26.5164 5.35049 34 6.32979 -16.9108 1.7583 72.1967
9813995 26.646 5.33207 34 6.34882 -16.9249 1.73603 72.3269
9814005 26.646 5.33207 34 6.34882 -16.9249 1.73603 72.3269
9814022 26.7755 5.37811 34 6.36786 -16.9017 1.699 72.5215
9814025 26.8851 5.3597 34 6.37738 -16.9191 1.67977 72.6222
9814035 26.8851 5.3597 34 6.37738 -16.9191 1.67977 72.6222
9814052 27.0047 5.43337 34 6.33931 -16.9119 1.62851 72.7774
9814055 27.0047 5.43337 34 6.33931 -16.9119 1.62851 72.7774
9814066 27.0445 5.47941 34 6.32979 -16.8953 1.60716 72.8538
9814081 27.0844 5.461 34 6.26316 -16.9486 1.59001 72.8086
9814086 27.0844 5.461 34 6.26316 -16.9486 1.59001 72.8086
9814096 27.0047 5.48862 34 6.26316 -16.9239 1.60188 72.7565
9814111 27.0545 5.50704 34 6.29171 -16.9024 1.59159 72.8533
9814116 27.0545 5.50704 34 6.29171 -16.9024 1.59159 72.8533
9814127 27.1342 5.461 34 6.28219 -16.9432 1.58217 72.8774
9814146 27.194 5.49783 34 6.24412 -16.9505 1.5532 72.936
9814171 27.2937 5.5623 34 6.36786 -16.8536 1.53882 73.2238
9814176 27.3335 5.60834 34 6.25364 -16.8971 1.49841 73.1955
9814186 27.3834 5.68201 34 6.25364 -16.8605 1.47062 73.319
9814204 27.3834 5.68201 34 6.25364 -16.8605 1.47062 73.319
9814206 27.4431 5.73727 34 6.24412 -16.841 1.44306 73.4245
9814216 27.4431 5.73727 34 6.24412 -16.841 1.44306 73.4245
9814236 27.493 5.74648 34 6.29171 -16.8142 1.43863 73.5312
9814237 27.5528 5.85699 34 6.21557 -16.8014 1.38658 73.6253
9814264 27.5528 5.95829 34 6.27268 -16.7116 1.37462 73.7837
9814268 27.5029 6.04117 34 6.31075 -16.6377 1.37431 73.8549
9814292 27.483 6.28982 34 6.51064 -16.384 1.36056 74.2835
9814298 27.483 6.28982 34 6.51064 -16.384 1.36056 74.2835
9814309 27.3834 6.43716 34 6.67245 -16.2008 1.37971 74.493
9814320 27.1841 6.71343 34 6.91041 -15.8941 1.40619 74.8079
9814349 27.0545 7.11863 34 7.25308 -15.473 1.40798 75.4262
9814355 26.8253 7.42254 34 7.6243 -15.0841 1.45833 75.8722
9814364 26.8253 7.42254 34 7.6243 -15.0841 1.45833 75.8722
9814386 26.6061 7.90141 34 8.08119 -14.566 1.48332 76.5887
9814387 26.2075 8.41712 34 8.6523 -13.9557 1.55823 77.2769
9814390 26.2075 8.41712 34 8.6523 -13.9557 1.55823 77.2769
9814400 25.8189 9.17226 32.9664 9.35666 -13.0171 1.4225 77.3142
9814420 25.8189 9.17226 32.9664 9.35666 -13.0171 1.4225 77.3142
9814422 25.211 9.99187 31.8049 10.2133 -11.9173 1.32385 77.2211
9814430 24.5633 10.9036 30.476 11.1557 -10.6941 1.19939 77.0985
9814448 24.5633 10.9036 30.476 11.1557 -10.6941 1.19939 77.0985
9814450 23.786 11.8889 28.8715 12.1741 -9.31771 1.05003 76.7206
9814460 22.7298 11.8889 27.1094 13.3544 -8.18959 1.16774 75.0826
9814478 22.7298 13.0033 27.1094 13.3544 -7.70423 0.931304 76.1969
9814480 21.6038 14.2004 25.3868 14.6109 -5.99565 0.829824 75.8018
9814492 21.6038 14.2004 25.3868 14.6109 -5.99565 0.829824 75.8018
9814509 20.388 15.3516 23.674 16.0482 -4.19494 0.791634 75.4618
9814511 18.993 16.604 22.0006 17.7599 -2.1994 0.828751 75.3574
9814521 18.993 16.604 22.0006 17.7599 -2.1994 0.828751 75.3574
9814540 17.578 18.0406 20.6028 19.3576 -0.258845 0.861708 75.5789
9814541 16.2073 19.3438 19.1853 20.9261 1.61155 0.904073 75.6624
9814551 16.2073 19.3438 19.1853 20.9261 1.61155 0.904073 75.6624
9814570 15.0534 20.5692 18.0631 22.2997 3.20866 0.935753 75.9854
9814574 15.0534 20.5692 18.0631 22.2997 3.20866 0.935753 75.9854
9814581 14.058 21.7168 16.9896 23.5662 4.6624 0.939521 76.3306
9814598 13.1596 22.8644 15.8875 24.7547 6.05616 0.903565 76.6662
9814603 13.1596 22.8644 15.8875 24.7547 6.05616 0.903565 76.6662
9814613 12.3228 23.9537 14.7541 25.7387 7.36474 0.823835 76.7693
9814628 11.5212 24.9262 13.6728 26.5375 8.56721 0.7363 76.6578
9814633 11.5212 24.9262 13.6728 26.5375 8.56721 0.7363 76.6578
9814643 10.887 25.8112 12.685 27.0539 9.58076 0.596691 76.4371
9814658 10.887 25.8112 12.685 27.0539 9.58076 0.596691 76.4371
9814663 10.2264 26.5601 11.6972 27.4923 10.572 0.474429 75.976
9814673 9.71554 27.3089 11.0318 28.0183 11.3638 0.399411 76.0746
9814690 9.71554 27.3089 11.0318 28.0183 11.3638 0.399411 76.0746
9814693 9.21347 28.1161 10.4287 28.4957 12.1205 0.313722 76.2541
9814703 8.79067 28.6802 9.7945 28.7977 12.7831 0.22113 76.0631
9814723 8.42073 29.2443 9.38899 29.0218 13.2948 0.147044 76.0758
9814753 8.06839 29.7305 9.03547 29.2946 13.7665 0.104642 76.129
9814754 7.8658 30.1974 8.81713 29.7135 14.1095 0.0915384 76.5938
9814764 7.8658 30.1974 8.81713 29.7135 14.1095 0.0915384 76.5938
9814785 7.68083 30.5961 8.59878 29.9862 14.4098 0.0601244 76.862
9814787 7.51347 30.9365 8.5052 30.3175 14.635 0.0723499 77.2726
9814815 7.41658 31.2574 8.35963 30.4149 14.815 0.0194657 77.4486
9814825 7.26684 31.3936 8.22446 30.4539 14.9848 0.00347257 77.3388
9814844 7.20518 31.5978 8.15168 30.4052 15.0744 -0.0477317 77.3598
9814845 7.20518 31.5978 8.15168 30.4052 15.0744 -0.0477317 77.3598
9814855 7.09067 31.6562 7.96453 30.4441 15.2436 -0.0657499 77.1555
9814874 7.03782 31.8215 7.88135 30.3857 15.3281 -0.115196 77.1264
9814885 6.99378 31.8896 7.79817 30.3467 15.3984 -0.14381 77.0282
9814903 6.99378 31.8896 7.79817 30.3467 15.3984 -0.14381 77.0282
9814905 6.83523 31.8604 7.69419 30.4344 15.5437 -0.110721 76.8242
9814915 6.80881 31.8215 7.62141 30.4734 15.5962 -0.104704 76.7251
9814933 6.80881 31.8215 7.62141 30.4734 15.5962 -0.104704 76.7251
9814935 6.73834 31.7729 7.60061 30.6 15.654 -0.0607368 76.7118
9814945 6.65026 31.7145 7.59021 30.6682 15.7075 -0.0208265 76.6232
9814961 6.65026 31.7145 7.59021 30.6682 15.7075 -0.0208265 76.6232
9814965 6.65907 31.6367 7.59021 30.7364 15.7016 0.00603318 76.6224
9814975 6.65907 31.6367 7.59021 30.7364 15.7016 0.00603318 76.6224
9814995 6.5886 31.5686 7.67339 30.9994 15.7185 0.100658 76.8301
9815001 6.57098 31.5103 7.73578 31.1261 15.703 0.152172 76.9431
9815007 6.57098 31.5103 7.73578 31.1261 15.703 0.152172 76.9431
9815024 6.56218 31.4228 7.78777 31.2138 15.6802 0.198069 76.9865
9815026 6.49171 31.2088 7.90214 31.4183 15.6559 0.315492 77.021
9815036 6.49171 31.2088 7.90214 31.4183 15.6559 0.315492 77.021
9815051 6.56218 31.1116 7.95413 31.6327 15.6056 0.371416 77.2605
9815057 6.56218 31.1116 7.95413 31.6327 15.6056 0.371416 77.2605
9815067 6.46528 30.8587 8.01651 31.5742 15.5858 0.442064 76.9147
9815078 6.4829 30.5669 8.22446 31.7691 15.4551 0.573124 77.0434
9815087 6.4829 30.5669 8.22446 31.7691 15.4551 0.573124 77.0434
9815106 6.45648 30.4211 8.35963 32.0224 15.4115 0.680392 77.2595
9815111 6.39482 30.2849 8.45321 32.0808 15.3851 0.748758 77.2137
9815134 6.38601 29.9931 8.5156 32.1198 15.3255 0.828978 77.0145
9815136 6.38601 29.9931 8.5156 32.1198 15.3255 0.828978 77.0145
9815146 6.39482 29.6138 8.77554 32.3438 15.1655 0.993941 77.128
9815161 6.35959 29.4874 8.97309 32.5679 15.0936 1.10366 77.388
9815166 6.35959 29.4874 8.97309 32.5679 15.0936 1.10366 77.388
9815176 6.39482 29.2929 9.20183 32.6556 14.9435 1.19344 77.5452
9815188 6.38601 29.0303 9.32661 32.7238 14.8585 1.28456 77.4667
9815196 6.38601 29.0303 9.32661 32.7238 14.8585 1.28456 77.4667
9815217 6.35959 28.865 9.54495 32.7725 14.7446 1.37207 77.542
9815228 6.40363 28.6121 9.7841 32.6653 14.5516 1.43942 77.4652
9815245 6.42124 28.4662 10.0128 32.5679 14.393 1.48963 77.4682
9815248 6.42124 28.4662 10.0128 32.5679 14.393 1.48963 77.4682
9815258 6.4829 28.3204 10.2312 32.4802 14.2188 1.53032 77.5147
9815272 6.51813 28.1259 10.5223 32.3341 14.0062 1.58949 77.5004
9815278 6.51813 28.1259 10.5223 32.3341 14.0062 1.58949 77.5004
9815288 6.60622 27.98 10.8343 32.0029 13.7369 1.59853 77.4233
9815308 6.72953 27.7368 11.3021 31.6034 13.3474 1.6361 77.372
9815327 6.89689 27.5326 11.8532 31.2332 12.9057 1.6752 77.5159
9815327 6.89689 27.5326 11.8532 31.2332 12.9057 1.6752 77.5159
9815338 7.09948 27.1922 12.5291 30.7364 12.3458 1.73557 77.5571
9815359 7.39896 26.8421 13.2465 30.1713 11.7076 1.77251 77.6589
9815369 7.69845 26.3267 13.8807 29.5381 11.0679 1.81946 77.4439
9815389 8.13886 25.9182 14.4214 28.788 10.401 1.77677 77.2664
9815400 8.47358 25.3249 15.0972 27.8332 9.64021 1.78524 76.729
9815422 8.47358 25.3249 15.0972 27.8332 9.64021 1.78524 76.729
9815423 8.99326 24.6928 15.9083 26.7713 8.69586 1.76654 76.3657
9815431 9.47772 23.8661 16.9792 25.8848 7.64161 1.87385 76.2079
9815451 10.1207 23.127 18.2108 24.8229 6.42962 1.92432 76.2814
9815462 10.7725 22.2128 19.52 23.6052 5.09964 1.99837 76.1105
9815482 10.7725 22.2128 19.52 23.6052 5.09964 1.99837 76.1105
9815484 11.4772 21.3862 20.9375 22.4556 3.74627 2.07124 76.2564
9815493 11.4772 21.3862 20.9375 22.4556 3.74627 2.07124 76.2564
9815518 12.1642 20.4622 22.3353 21.2963 2.37975 2.1647 76.258
9815519 12.8601 19.5092 23.989 19.9129 0.843355 2.26809 76.2711
9815533 13.7145 18.5366 25.564 18.549 -0.717905 2.32999 76.3641
9815554 14.5865 17.4863 27.1783 17.1559 -2.33052 2.40713 76.407
9815555 14.5865 17.4863 27.1783 17.1559 -2.33052 2.40713 76.407
9815563 15.485 16.3922 28.8518 15.8863 -3.93466 2.51796 76.6153
9815585 16.313 15.3239 30.3578 14.706 -5.42394 2.62585 76.7008
9815594 17.01 14.3478 31.7458 13.5543 -6.80089 2.72817 76.6579
9815612 17.01 14.3478 31.7458 13.5543 -6.80089 2.72817 76.6579
9815614 17.9666 13.4637 33.0156 12.5739 -8.09681 2.75758 77.0198
9815624 18.7339 12.4783 34 11.6411 -9.30814 2.81619 76.8533
9815642 18.7339 12.4783 34 11.6411 -9.30814 2.81619 76.8533
9815645 19.4513 11.6127 34 10.813 -10.2224 2.71801 75.877
9815655 19.4513 11.6127 34 10.813 -10.2224 2.71801 75.877
9815672 20.109 10.7931 34 10.0896 -11.0767 2.63779 74.9917
9815675 20.7667 9.99187 34 9.46137 -11.8949 2.56726 74.2199
9815702 21.2052 9.19989 34 8.82363 -12.6937 2.54379 73.2287
9815707 21.7134 8.54605 34 8.44289 -13.3161 2.51371 72.7023
9815716 21.7134 8.54605 34 8.44289 -13.3161 2.51371 72.7023
9815731 22.0522 7.96587 34 8.11926 -13.851 2.51629 72.1373
9815738 22.391 7.44095 34 7.91937 -14.2961 2.52695 71.7513
9815748 22.391 7.44095 34 7.91937 -14.2961 2.52695 71.7513
9815759 22.7098 7.10022 34 7.65286 -14.6778 2.48579 71.4629
9815768 22.7098 7.10022 34 7.65286 -14.6778 2.48579 71.4629
9815788 22.939 6.68581 34 7.44345 -15.0594 2.49449 71.0683
9815789 23.1284 6.40953 34 7.29115 -15.3283 2.48907 70.8291
9815798 23.1284 6.40953 34 7.29115 -15.3283 2.48907 70.8291
9815821 23.3476 6.15168 34 7.17693 -15.5707 2.47841 70.6762
9815822 23.4572 5.8662 34 7.13886 -15.7716 2.51527 70.4623
9815830 23.4572 5.8662 34 7.13886 -15.7716 2.51527 70.4623
9815838 23.6565 5.71885 34 7.04367 -15.9382 2.48548 70.419
9815859 23.8259 5.47021 34 6.97704 -16.1437 2.49333 70.2732
9815877 23.9455 5.26761 34 6.99608 -16.2663 2.5174 70.2092
9815889 23.9953 5.16631 34 6.89138 -16.3939 2.51162 70.053
9815907 24.095 5.03738 34 6.91993 -16.4654 2.52403 70.0523
9815919 24.085 4.91766 34 6.88186 -16.5578 2.54975 69.8845
9815937 24.085 4.91766 34 6.88186 -16.5578 2.54975 69.8845
9815940 24.085 4.81636 34 6.82475 -16.6523 2.56505 69.7261
9815950 24.1946 4.7519 34 6.79619 -16.7209 2.54859 69.7427
9815969 24.1946 4.7519 34 6.79619 -16.7209 2.54859 69.7427
9815971 24.2943 4.69664 34 6.76764 -16.7829 2.53232 69.7585
9815980 24.364 4.68743 34 6.72004 -16.8251 2.5086 69.7715
9815999 24.364 4.68743 34 6.72004 -16.8251 2.5086 69.7715
9816000 24.4537 4.64139 34 6.75812 -16.8404 2.50447 69.8532
9816010 24.4537 4.64139 34 6.75812 -16.8404 2.50447 69.8532
9816029 24.4736 4.53088 34 6.72004 -16.9319 2.52039 69.7245
9816030 24.4637 4.5493 34 6.70101 -16.9311 2.51486 69.714
9816083 24.4836 4.57692 34 6.72004 -16.9054 2.50633 69.7806
9816084 24.5234 4.54009 34 6.63438 -16.9836 2.49021 69.6979
9816085 24.5234 4.54009 34 6.63438 -16.9836 2.49021 69.6979
9816087 24.5334 4.56771 34 6.65342 -16.9567 2.4842 69.7545
9816100 24.4836 4.54009 34 6.62486 -16.9848 2.49851 69.6485
9816114 24.4836 4.61376 34 6.69149 -16.9004 2.49198 69.7888
9816121 24.4836 4.61376 34 6.69149 -16.9004 2.49198 69.7888
9816144 24.4338 4.60455 34 6.66293 -16.9173 2.50167 69.7012
9816145 24.364 4.63218 34 6.73908 -16.8468 2.52589 69.7353
9816151 24.364 4.63218 34 6.73908 -16.8468 2.52589 69.7353
9816176 24.3341 4.66901 34 6.73908 -16.8212 2.52414 69.7422
9816177 24.3242 4.60455 34 6.73908 -16.8588 2.54287 69.6678
9816183 24.3242 4.60455 34 6.73908 -16.8588 2.54287 69.6678
9816193 24.4039 4.81636 34 6.83427 -16.6846 2.48679 70.0545
9816207 24.4039 4.81636 34 6.83427 -16.6846 2.48679 70.0545
9816213 24.2743 4.87161 34 6.86282 -16.6193 2.51045 70.0088
9816223 24.2943 4.93608 34 6.93897 -16.5383 2.50294 70.1693
9816239 24.2943 4.93608 34 6.93897 -16.5383 2.50294 70.1693
9816243 24.3341 5.0558 34 6.95801 -16.4612 2.46662 70.3479
9816253 24.2345 5.10184 34 7.0056 -16.3939 2.48841 70.3419
9816281 24.1448 5.18472 34 7.03415 -16.3173 2.49517 70.3637
9816284 24.1448 5.18472 34 7.03415 -16.3173 2.49517 70.3637
9816299 23.9953 5.34128 34 7.19597 -16.1124 2.52211 70.5326
9816304 23.8957 5.59913 34 7.30067 -15.8894 2.5014 70.7955
9816329 23.7263 5.78332 34 7.45297 -15.6738 2.52458 70.9625
9816335 23.4771 6.05959 34 7.66237 -15.3637 2.55459 71.1991
9816345 23.4771 6.05959 34 7.66237 -15.3637 2.55459 71.1991
9816357 23.3376 6.46479 34 7.92889 -14.9669 2.53581 71.7313
9816365 23.3376 6.46479 34 7.92889 -14.9669 2.53581 71.7313
9816386 23.0188 6.84236 34 8.47144 -14.4143 2.61507 72.3326
9816387 22.6401 7.40412 34 9.06159 -13.7384 2.67093 73.1058
9816395 22.6401 7.40412 34 9.06159 -13.7384 2.67093 73.1058
9816415 22.3013 8.01192 34 9.7374 -13.0154 2.71926 74.0506
9816415 21.7732 8.6013 34 10.6036 -12.193 2.84666 74.978
9816425 21.7732 8.6013 34 10.6036 -12.193 2.84666 74.978
9816443 21.3247 9.39328 34 11.6601 -11.2176 2.9345 76.3782
9816445 21.3247 9.39328 34 11.6601 -11.2176 2.9345 76.3782
9816455 20.6571 10.1484 33.6456 12.8309 -10.1328 3.04165 77.2821
9816471 19.9795 11.0049 32.1002 14.0493 -8.75929 2.94911 77.1338
9816487 19.1424 11.8337 30.5547 15.3914 -7.30351 2.91917 76.9222
9816498 18.2855 12.6901 28.9404 16.6764 -5.82934 2.86735 76.5923
9816506 18.2855 12.6901 28.9404 16.6764 -5.82934 2.86735 76.5923
9816526 17.3089 13.6387 27.3752 17.8865 -4.3167 2.8174 76.2093
9816536 16.2513 14.5872 25.7412 19.192 -2.70988 2.79022 75.7717
9816555 15.4409 15.6278 24.1957 20.6533 -1.10498 2.72273 75.9178
9816568 14.4632 16.6685 22.5912 22.0659 0.554159 2.67693 75.7888
9816585 13.556 17.8558 21.1343 23.5662 2.21112 2.61891 76.1123
9816598 12.7456 19.1299 19.7562 25.008 3.7957 2.52261 76.6397
9816614 11.9881 20.3261 18.3486 26.1284 5.24728 2.37582 76.7911
9816618 11.9881 20.3261 18.3486 26.1284 5.24728 2.37582 76.7911
9816628 11.2834 21.3764 16.9792 27.2 6.60921 2.24873 76.8391
9816643 11.2834 21.3764 16.9792 27.2 6.60921 2.24873 76.8391
9816648 10.5347 22.4073 15.7003 28.0963 7.90625 2.12172 76.7386
9816658 9.99741 23.341 14.5254 28.8269 9.01188 1.95864 76.6907
9816671 9.99741 23.341 14.5254 28.8269 9.01188 1.95864 76.6907
9816679 9.40725 24.1676 13.5792 29.392 9.98521 1.8413 76.5461
9816700 9.40725 24.1676 13.5792 29.392 9.98521 1.8413 76.5461
9816701 8.91399 25.004 12.6642 29.9375 10.9002 1.70226 76.5198
9816709 8.50881 25.6848 12.0404 30.2201 11.5611 1.58268 76.454
9816735 8.50881 25.6848 12.0404 30.2201 11.5611 1.58268 76.454
9816736 8.20052 26.1419 11.4581 30.4149 12.1032 1.4821 76.2154
9816739 7.9715 26.6281 11.0214 30.7072 12.5584 1.40097 76.3282
9816749 7.9715 26.6281 11.0214 30.7072 12.5584 1.40097 76.3282
9816768 7.81295 27.1533 10.6471 31.1748 12.9799 1.33919 76.7881
9816769 7.81295 27.1533 10.6471 31.1748 12.9799 1.33919 76.7881
9816780 7.52228 27.659 10.2728 31.4963 13.4373 1.28415 76.9504
9816799 7.42539 28.1842 9.84648 31.7203 13.8101 1.15785 77.1764
9816800 7.42539 28.1842 9.84648 31.7203 13.8101 1.15785 77.1764
9816810 7.23161 28.476 9.45138 31.7593 14.1554 1.07318 76.9183
9816829 7.05544 28.7483 9.28502 31.9054 14.3885 1.04944 76.9942
9816830 7.05544 28.7483 9.28502 31.9054 14.3885 1.04944 76.9942
9816840 6.96736 29.1081 8.96269 32.0516 14.6679 0.96098 77.0898
9816865 6.96736 29.1081 8.96269 32.0516 14.6679 0.96098 77.0898
9816867 6.88808 29.4874 8.77554 32.11 14.8632 0.875614 77.2611
9816870 6.82643 29.9056 8.54679 32.0224 15.0563 0.744578 77.3012
9816883 6.82643 29.9056 8.54679 32.0224 15.0563 0.744578 77.3012
9816903 6.75596 30.1876 8.32844 31.886 15.225 0.635864 77.158
9816904 6.68549 30.4502 8.14128 31.7593 15.3768 0.538359 77.0363
9816921 6.68549 30.4502 8.14128 31.7593 15.3768 0.538359 77.0363
9816941 6.61503 30.6058 8.02691 31.6814 15.4835 0.48501 76.9291
9816942 6.51813 30.6253 7.87095 31.6229 15.6122 0.460047 76.6373
9816952 6.47409 30.6447 7.85015 31.6424 15.6514 0.464761 76.6114
9816970 6.47409 30.6447 7.85015 31.6424 15.6514 0.464761 76.6114
9816972 6.42124 30.6642 7.88135 31.5937 15.6593 0.468181 76.5605
9816984 6.35959 30.6836 7.81896 31.6716 15.7371 0.479665 76.5338
9816999 6.35959 30.6836 7.81896 31.6716 15.7371 0.479665 76.5338
9817003 6.32435 30.6156 7.76697 31.7691 15.7871 0.509203 76.4759
9817013 6.26269 30.528 7.78777 31.886 15.8124 0.56556 76.4644
9817028 6.26269 30.528 7.78777 31.886 15.8124 0.56556 76.4644
9817033 6.2715 30.5183 7.83976 32.0029 15.7929 0.597555 76.6324
9817057 6.26269 30.3335 7.86055 32.149 15.7819 0.668356 76.6058
9817064 6.19223 30.2946 7.97492 32.3341 15.7761 0.746559 76.7959
9817086 6.21865 30.2557 7.96453 32.4023 15.7711 0.759836 76.8412
9817095 6.25389 30.1001 8.0685 32.4997 15.6903 0.821782 76.9222
9817115 6.26269 30.0029 8.13089 32.5387 15.6456 0.858648 76.9351
9817125 6.26269 30.0029 8.13089 32.5387 15.6456 0.858648 76.9351
9817143 6.21865 29.8862 8.20367 32.7725 15.6447 0.947968 77.081
9817146 6.20984 29.7792 8.32844 32.9771 15.5955 1.03173 77.2945
9817172 6.21865 29.6916 8.28685 33.0355 15.6092 1.05113 77.2327
9817175 6.1658 29.6236 8.43242 32.9966 15.5474 1.09552 77.2184
9817206 6.23627 29.5555 8.45321 32.8797 15.4768 1.07769 77.1246
9817207 6.23627 29.5555 8.45321 32.8797 15.4768 1.07769 77.1246
9817215 6.19223 29.4291 8.52599 32.8602 15.4436 1.12292 77.0075
9817238 6.24508 29.3026 8.71315 33.016 15.3217 1.19987 77.2769
9817240 6.24508 29.3026 8.71315 33.016 15.3217 1.19987 77.2769
9817245 6.2715 29.2637 8.83792 32.9771 15.2331 1.21779 77.3502
9817255 6.3772 29.1665 9.00428 32.7335 15.0484 1.20225 77.2815
9817275 6.41244 28.9622 9.07706 32.6653 14.9572 1.23858 77.1171
9817299 6.43886 28.6899 9.27462 32.4705 14.7797 1.291 76.8739
9817306 6.54456 28.6219 9.61774 32.2659 14.5118 1.3077 77.05
9817317 6.54456 28.6219 9.61774 32.2659 14.5118 1.3077 77.05
9817329 6.78238 28.3106 10.0024 31.9152 14.1023 1.32928 77.0107
9817337 7.06425 28.0675 10.5951 31.4865 13.5646 1.35013 77.2134
9817362 7.06425 28.0675 10.5951 31.4865 13.5646 1.35013 77.2134
9817363 7.50466 27.6396 11.2398 31.0384 12.8947 1.38214 77.4224
9817377 7.89223 27.2117 11.8636 30.6 12.2654 1.42322 77.5675
9817395 8.34145 26.7157 12.581 29.9083 11.5097 1.43763 77.5465
9817398 8.34145 26.7157 12.581 29.9083 11.5097 1.43763 77.5465
9817409 8.75544 26.1224 13.1945 29.2848 10.8126 1.47396 77.3572
9817427 9.21347 25.4027 13.8911 28.5834 10.0147 1.52904 77.0907
9817438 9.71554 24.6247 14.6813 27.8722 9.13599 1.6022 76.8938
9817460 9.71554 24.6247 14.6813 27.8722 9.13599 1.6022 76.8938
9817461 10.2264 23.8175 15.4196 27.2585 8.2864 1.68806 76.722
9817468 10.7725 22.9811 16.2306 26.4888 7.34469 1.75861 76.4731
9817495 11.3715 22.1156 17.1575 25.5926 6.28929 1.82253 76.2371
9817498 11.9793 21.357 18.0041 24.8034 5.31136 1.86579 76.1437
9817509 11.9793 21.357 18.0041 24.8034 5.31136 1.86579 76.1437
9817528 12.587 20.5984 18.949 23.9656 4.27986 1.91772 76.1001
9817529 13.3358 19.7912 19.9531 23.0596 3.13961 1.94756 76.1396
9817562 14.058 18.9645 20.7997 22.1731 2.06589 1.96397 75.9953
9817563 14.058 18.9645 20.7997 22.1731 2.06589 1.96397 75.9953
9817569 14.7275 18.1962 21.7643 21.2768 0.981119 1.99779 75.9648
9817579 15.3969 17.3598 22.7192 20.4585 -0.0980347 2.05853 75.9343
9817599 16.0927 16.7053 23.5067 19.5719 -1.0946 2.03235 75.8766
9817609 16.771 16.0699 24.304 18.6367 -2.10091 1.99913 75.7815
9817625 16.771 16.0699 24.304 18.6367 -2.10091 1.99913 75.7815
9817629 17.4883 15.5173 24.8552 17.8378 -2.96847 1.91961 75.6987
9817639 17.4883 15.5173 24.8552 17.8378 -2.96847 1.91961 75.6987
9817659 18.2954 15.0937 25.4754 16.9714 -3.85887 1.79157 75.836
9817662 19.0328 14.5872 26.1152 16.2576 -4.70547 1.72768 75.9928
9817692 19.7005 14.1452 26.7255 15.4485 -5.53552 1.64333 76.0197
9817695 17.857 14.1452 27.3654 15.4485 -5.22237 2.16766 74.816
9817700 20.408 13.6479 27.3654 14.668 -6.39299 1.57266 76.0892
9817710 21.1852 13.1138 27.8379 13.916 -7.22962 1.47034 76.0529
9817730 21.7931 12.6533 28.4088 13.1736 -8.01506 1.40789 76.0288
9817751 22.3013 12.1192 29.088 12.5549 -8.78059 1.42429 76.0633
9817752 22.3013 12.1192 29.088 12.5549 -8.78059 1.42429 76.0633
9817760 22.8892 11.6219 29.7475 11.9552 -9.53228 1.41542 76.2138
9817781 23.4672 11.0417 30.348 11.5174 -10.2312 1.44482 76.3742
9817791 23.9654 10.5352 30.9189 11.0034 -10.9083 1.4567 76.4229
9817811 24.4836 10.0103 31.5785 10.5845 -11.5669 1.50067 76.6569
9817824 24.9619 9.59588 32.0214 10.1086 -12.1528 1.48112 76.6878
9817843 25.3705 9.21831 32.5333 9.75644 -12.6593 1.50256 76.8785
9817853 25.7292 8.76706 32.9664 9.29003 -13.2368 1.5166 76.7527
9817873 26.0879 8.45395 33.5078 8.98544 -13.6809 1.54826 77.0351
9817900 26.3271 8.06717 33.9212 8.71892 -14.1048 1.60563 77.0344
9817904 26.5961 7.74485 34 8.41433 -14.4736 1.57774 76.7553
9817930 26.7456 7.52384 34 8.25252 -14.6916 1.56486 76.522
9817935 26.8154 7.21993 34 8.09071 -14.9439 1.58725 76.126
9817964 26.9947 7.0818 34 7.92889 -15.1253 1.5497 76.0054
9817965 26.9947 7.0818 34 7.92889 -15.1253 1.5497 76.0054
9817974 27.0147 6.80553 34 7.81467 -15.335 1.58548 75.6348
9817999 27.0047 6.58451 34 7.73852 -15.4929 1.62277 75.3277
9818000 27.0047 6.58451 34 7.73852 -15.4929 1.62277 75.3277
9818004 26.8751 6.35428 34 7.67189 -15.6369 1.69072 74.9013
9818014 26.7755 6.18852 34 7.56719 -15.7718 1.73146 74.5312
9818032 26.7755 6.18852 34 7.56719 -15.7718 1.73146 74.5312
9818037 26.6958 6.09642 34 7.55767 -15.8177 1.76842 74.3499
9818061 26.5363 5.9675 34 7.54815 -15.8742 1.83202 74.052
9818064 26.4367 5.82936 34 7.55767 -15.9331 1.88793 73.8237
9818094 26.3072 5.82015 34 7.53863 -15.9329 1.91635 73.6659
9818095 26.1776 5.72806 34 7.57671 -15.947 1.97415 73.4824
9818105 26.1776 5.72806 34 7.57671 -15.947 1.97415 73.4824
9818126 26.2075 5.73727 34 7.59574 -15.9349 1.9685 73.5405
9818127 26.2075 5.73727 34 7.59574 -15.9349 1.9685 73.5405
9818135 25.9883 5.62676 34 7.60526 -15.9642 2.04661 73.2203
9818155 25.9883 5.60834 34 7.67189 -15.9373 2.06268 73.2685
9818156 25.9883 5.60834 34 7.67189 -15.9373 2.06268 73.2685
9818167 25.8488 5.5623 34 7.6243 -15.9725 2.09759 73.0354
9818185 25.789 5.45179 34 7.61478 -16.0325 2.13587 72.8556
9818186 25.789 5.45179 34 7.61478 -16.0325 2.13587 72.8556
9818198 25.7392 5.45179 34 7.66237 -15.9996 2.156 72.8533
9818220 25.7392 5.45179 34 7.66237 -15.9996 2.156 72.8533
9818221 25.5698 5.38732 34 7.70997 -15.9882 2.21962 72.667
9818226 25.51 5.461 34 7.8813 -15.8429 2.24639 72.8523
9818236 25.51 5.461 34 7.8813 -15.8429 2.24639 72.8523
9818254 25.3505 5.43337 34 8.02408 -15.7583 2.31572 72.808
9818258 25.2409 5.43337 34 8.243 -15.622 2.37983 72.9173
9818266 25.2409 5.43337 34 8.243 -15.622 2.37983 72.9173
9818287 25.1014 5.5623 34 8.47144 -15.4056 2.42176 73.1351
9818288 25.1014 5.5623 34 8.47144 -15.4056 2.42176 73.1351
9818296 24.8224 5.54388 34 8.76652 -15.2162 2.54337 73.1328
9818317 24.5434 5.61755 34 9.00448 -15.0076 2.63312 73.1654
9818318 24.5434 5.61755 34 9.00448 -15.0076 2.63312 73.1654
9818327 24.2544 5.68201 34 9.2234 -14.8131 2.72424 73.1598
9818349 23.8359 5.71885 34 9.55655 -14.5533 2.87271 73.1113
9818350 23.8359 5.71885 34 9.55655 -14.5533 2.87271 73.1113
9818358 23.5469 5.82936 34 9.94681 -14.242 2.98076 73.3231
9818385 23.5469 5.82936 34 9.94681 -14.242 2.98076 73.3231
9818386 23.1184 5.90303 34 10.2704 -13.9664 3.12088 73.2919
9818388 22.67 6.0688 34 10.7559 -13.5538 3.26903 73.4947
9818398 22.67 6.0688 34 10.7559 -13.5538 3.26903 73.4947
9818420 22.4009 6.23456 34 11.2699 -13.1575 3.37615 73.9054
9818421 22.0123 6.50163 34 11.8219 -12.6751 3.49253 74.3359
9818428 22.0123 6.50163 34 11.8219 -12.6751 3.49253 74.3359
9818438 21.7532 6.86078 34 12.6881 -12.0197 3.60032 75.3021
9818458 21.3746 7.32124 34 13.4401 -11.3656 3.69293 76.1359
9818480 20.9859 7.93824 33.1731 14.3158 -10.4383 3.64429 76.4131
9818482 20.9859 7.93824 33.1731 14.3158 -10.4383 3.64429 76.4131
9818488 20.4678 8.55525 31.9525 15.3057 -9.35987 3.58579 76.2812
9818509 20.4678 8.55525 30.5547 15.3057 -9.06793 3.37272 74.8834
9818510 19.9197 9.24594 30.5547 16.3527 -8.17495 3.49831 76.0731
9818518 19.2919 10.084 29.1569 17.6819 -6.78442 3.43693 76.2147
9818542 18.4848 10.8852 27.5721 18.851 -5.38331 3.37495 75.793
9818548 17.6676 11.7508 26.0069 20.0298 -3.94074 3.30361 75.4552
9818574 16.7798 12.6717 24.4123 21.5593 -2.30733 3.28548 75.4231
9818578 16.7798 12.6717 24.4123 21.5593 -2.30733 3.28548 75.4231
9818588 15.943 13.6663 22.8471 23.2642 -0.613984 3.26899 75.7206
9818606 14.9829 14.928 21.2721 24.9203 1.18038 3.20912 76.1033
9818619 14.0404 16.1528 19.6676 26.5278 2.93647 3.14227 76.3886
9818638 13.0715 17.3696 18.1714 28.1158 4.64054 3.09783 76.7282
9818639 13.0715 17.3696 18.1714 28.1158 4.64054 3.09783 76.7282
9818649 12.1731 18.5463 16.844 29.4212 6.15397 3.02902 76.9846
9818669 12.1731 18.5463 16.844 29.4212 6.15397 3.02902 76.9846
9818671 11.213 19.6064 15.5132 30.7266 7.65871 3.00167 77.0592
9818679 10.4114 20.754 14.307 31.9054 9.02746 2.91693 77.3779
9818699 10.4114 20.754 14.307 31.9054 9.02746 2.91693 77.3779
9818700 9.62746 21.8335 13.2777 32.8407 10.2376 2.83401 77.5793
9818710 8.88756 22.7963 12.3003 33.5032 11.3282 2.73326 77.4874
9818737 8.25337 23.4966 11.3853 33.9903 12.2684 2.65003 77.1255
9818740 7.6544 24.0704 10.6887 34 12.9975 2.54482 76.4135
9818750 7.6544 24.0704 10.6887 34 12.9975 2.54482 76.4135
9818774 7.12591 24.7122 10.1584 34 13.6282 2.43174 75.9966
9818775 7.12591 24.7122 10.1584 34 13.6282 2.43174 75.9966
9818780 6.61503 25.0915 9.80489 34 14.1275 2.40328 75.5115
9818790 6.23627 25.4319 9.30581 34 14.635 2.32833 74.974
9818806 6.23627 25.4319 9.30581 34 14.635 2.32833 74.974
9818810 5.93679 25.6264 8.96269 34 15.0038 2.2944 74.5259
9818821 5.93679 25.6264 8.96269 34 15.0038 2.2944 74.5259
9818834 5.66373 25.6459 8.81713 34 15.2324 2.32862 74.1267
9818841 5.46114 25.6459 8.74434 34 15.3824 2.36366 73.8514
9818863 5.46114 25.6459 8.74434 34 15.3824 2.36366 73.8514
9818864 5.21451 25.4611 8.66116 34 15.5398 2.45148 73.3368
9818872 5.07358 25.2763 8.68196 34 15.5825 2.53288 73.0318
9818892 5.07358 25.2763 8.68196 34 15.5825 2.53288 73.0318
9818893 4.95907 25.0818 8.76514 34 15.5748 2.62154 72.806
9818902 4.95907 25.0818 8.76514 34 15.5748 2.62154 72.806
9818925 4.82694 25.0818 8.69236 34 15.6893 2.6412 72.6011
9818926 4.73005 25.1693 8.59878 34 15.8075 2.62753 72.4982
9818941 4.72124 25.2471 8.5052 34 15.875 2.59477 72.4736
9818958 4.61554 25.5292 8.43242 34 16.011 2.53958 72.5771
9818963 4.61554 25.5292 8.43242 34 16.011 2.53958 72.5771
9818973 4.64197 25.7918 8.40122 34 16.0461 2.46465 72.835
9818991 4.59793 25.9571 8.33884 34 16.1263 2.42486 72.8939
9818992 4.59793 25.9571 8.33884 34 16.1263 2.42486 72.8939
9819003 4.60674 26.1224 8.32844 34 16.1473 2.38154 73.0576
9819021 4.60674 26.1224 8.32844 34 16.1473 2.38154 73.0576
9819022 4.58912 26.2002 8.28685 34 16.19 2.36004 73.0762
9819033 4.60674 26.2975 8.23486 34 16.2211 2.32379 73.1391
9819050 4.60674 26.2975 8.23486 34 16.2211 2.32379 73.1391
9819053 4.5715 26.385 8.18287 34 16.2808 2.30239 73.1394
9819063 4.5715 26.385 8.18287 34 16.2808 2.30239 73.1394
9819081 4.53627 26.3267 8.21407 34 16.2761 2.32997 73.077
9819082 4.55389 26.3364 8.21407 34 16.2673 2.32348 73.1043
9819110 4.62435 26.3753 8.18287 34 16.2498 2.2922 73.1825
9819113 4.66839 26.4336 8.24526 34 16.1969 2.27886 73.3473
9819141 4.74767 26.4531 8.19327 34 16.1839 2.24661 73.394
9819144 4.77409 26.5017 8.14128 34 16.2041 2.21995 73.4171
9819154 4.77409 26.5017 8.14128 34 16.2041 2.21995 73.4171
9819170 4.80052 26.6865 8.20367 34 16.1765 2.18141 73.6907
9819184 4.90622 26.7838 8.20367 34 16.1292 2.13422 73.8936
9819204 4.95026 26.8713 8.17248 34 16.1326 2.09833 73.994
9819205 4.95026 26.8713 8.17248 34 16.1326 2.09833 73.994
9819214 4.95907 26.9977 8.19327 34 16.1313 2.07077 74.1501
9819236 5.04715 26.9977 8.17248 34 16.094 2.04688 74.2173
9819237 5.04715 27.095 8.17248 34 16.1056 2.02457 74.3146
9819244 5.07358 27.1922 8.17248 34 16.1027 1.99629 74.4383
9819268 5.09119 27.2895 8.20367 34 16.0874 1.97555 74.5843
9819275 5.16166 27.2506 8.17248 34 16.0611 1.96292 74.5847
9819298 5.26736 27.3381 8.26606 34 15.9622 1.93544 74.8715
9819306 5.27617 27.3284 8.38043 34 15.8938 1.95557 74.985
9819331 5.39948 27.3089 8.46361 34 15.7791 1.94658 75.172
9819337 5.39948 27.3089 8.46361 34 15.7791 1.94658 75.172
9819346 5.4171 27.27 8.58838 34 15.6972 1.973 75.2755
9819362 5.51399 27.2797 8.81713 34 15.5231 1.98848 75.6109
9819366 5.51399 27.2797 8.81713 34 15.5231 1.98848 75.6109
9819377 5.56684 26.988 9.03547 34 15.3411 2.07976 75.5903
9819392 5.6285 26.7643 9.46177 34 15.0532 2.18886 75.8546
9819406 5.76943 26.6379 9.94006 34 14.7118 2.26585 76.3474
9819424 5.76943 26.6379 9.94006 34 14.7118 2.26585 76.3474
9819426 5.9544 26.4336 10.3352 34 14.3842 2.33576 76.7232
9819437 6.01606 26.0738 11.0006 34 13.9632 2.51213 77.0905
9819463 6.17461 25.8112 11.5829 34 13.5537 2.62936 77.5687
9819487 6.33316 25.4027 12.1963 33.8928 13.0954 2.76645 77.8251
9819489 6.33316 25.4027 12.1963 33.8928 13.0954 2.76645 77.8251
9819490 6.57979 24.9651 13.0177 33.2693 12.4104 2.84116 77.832
9819498 6.57979 24.9651 13.0177 33.2693 12.4104 2.84116 77.832
9819519 6.75596 24.4594 13.7664 32.451 11.7483 2.90614 77.4327
9819520 7.07306 23.9439 14.6502 31.6521 10.9523 2.96536 77.3193
9819528 7.07306 23.9439 14.6502 31.6521 10.9523 2.96536 77.3193
9819552 7.38135 23.4674 15.5859 30.9215 10.1548 3.03635 77.3562
9819552 7.66321 22.9325 16.6569 30.0057 9.26054 3.11945 77.2583
9819568 8.01554 22.2906 17.7087 28.9731 8.29331 3.19056 76.988
9819587 8.01554 22.2906 17.7087 28.9731 8.29331 3.19056 76.988
9819589 8.5 21.7363 18.8605 27.8527 7.2218 3.21189 76.9494
9819599 9.01088 21.0652 20.0023 26.596 6.08026 3.23228 76.6744
9819621 9.52176 20.3261 21.2721 25.3685 4.87023 3.2932 76.4885
9819629 10.2088 19.5675 22.8078 24.0241 3.45101 3.3395 76.6081
9819655 11.0984 18.663 24.3631 22.5725 1.88209 3.35881 76.697
9819659 11.0984 18.663 24.3631 22.5725 1.88209 3.35881 76.697
9819669 12.0585 17.6322 25.7904 20.9748 0.247854 3.34987 76.4559
9819689 13.0627 16.6777 27.2472 19.4063 -1.38295 3.32091 76.3939
9819691 13.0627 16.6777 27.2472 19.4063 -1.38295 3.32091 76.3939
9819699 14.0052 15.5358 28.4777 17.7307 -3.04177 3.30051 75.7493
9819724 15.0269 14.3017 29.7672 16.2671 -4.71895 3.32503 75.363
9819725 15.0269 14.3017 29.7672 16.2671 -4.71895 3.32503 75.363
9819729 16.0311 13.1322 31.2044 15.1249 -6.28488 3.4108 75.4925
9819760 17.0299 11.9718 32.5924 14.0112 -7.81666 3.49218 75.6053
9819761 18.2954 10.9865 33.7539 13.0498 -9.20445 3.45437 76.0856
9819770 18.2954 10.9865 33.7539 13.0498 -9.20445 3.45437 76.0856
9819792 19.551 10.0748 34 12.2312 -10.2973 3.28358 75.857
9819793 20.6172 9.36566 34 11.5459 -11.1566 3.09081 75.5288
9819824 21.5539 8.81311 34 10.8415 -11.9332 2.88687 75.2086
9819824 21.5539 8.81311 34 10.8415 -11.9332 2.88687 75.2086
9819830 22.2913 8.2974 34 10.2895 -12.5886 2.74461 74.8782
9819840 23.0287 7.87378 34 9.74692 -13.1977 2.58095 74.6494
9819856 23.0287 7.87378 34 9.74692 -13.1977 2.58095 74.6494
9819860 23.6366 7.51463 34 9.34714 -13.6831 2.45561 74.4983
9819870 24.1448 7.15547 34 8.95689 -14.151 2.35465 74.2571
9819888 24.1448 7.15547 34 8.95689 -14.151 2.35465 74.2571
9819890 24.643 6.84236 34 8.55711 -14.6009 2.24298 74.0425
9819900 24.643 6.84236 34 8.55711 -14.6009 2.24298 74.0425
9819920 25.0715 6.58451 34 8.17637 -15.0038 2.13735 73.8324
9819921 25.5 6.32665 34 7.8813 -15.362 2.04618 73.708
9819952 25.8089 6.09642 34 7.57671 -15.6963 1.97423 73.482
9819952 26.068 5.94908 34 7.42441 -15.8951 1.92139 73.4415
9819961 26.068 5.94908 34 7.42441 -15.8951 1.92139 73.4415
9819984 26.2673 5.81094 34 7.23404 -16.1031 1.87332 73.3123
9819985 26.2673 5.81094 34 7.23404 -16.1031 1.87332 73.3123
9819992 26.357 5.68201 34 7.01512 -16.3098 1.84304 73.0541
9820001 26.5463 5.61755 34 7.01512 -16.3686 1.81431 73.179
9820021 26.646 5.52546 34 6.98656 -16.4486 1.80742 73.158
9820033 26.8552 5.52546 34 9.30907 -15.2004 2.16576 75.6897
9820048 26.8552 5.54388 34 6.87234 -16.5272 1.73463 73.2714
9820051 26.9947 5.69122 34 6.8533 -16.4709 1.66592 73.5392
9820080 27.1841 5.73727 34 6.87234 -16.4562 1.6162 73.7937
9820081 27.2937 5.81094 34 6.84378 -16.4435 1.56985 73.9484
9820091 27.2937 5.81094 34 6.84378 -16.4435 1.56985 73.9484
9820117 27.2638 5.83857 34 6.83427 -16.4299 1.56863 73.9366
9820132 27.2937 5.83857 34 6.83427 -16.4334 1.56193 73.9665
9820133 27.2937 5.78332 34 6.84378 -16.459 1.57604 73.9208
9820167 27.3933 5.83857 34 6.91041 -16.4024 1.55347 74.1423
9820168 27.4033 5.9675 34 6.99608 -16.284 1.53804 74.3669
9820174 27.4033 5.9675 34 6.99608 -16.284 1.53804 74.3669
9820197 27.4332 5.99512 34 7.13886 -16.1932 1.55106 74.5672
9820198 27.473 6.09642 34 7.22452 -16.0949 1.53523 74.794
9820204 27.473 6.09642 34 7.22452 -16.0949 1.53523 74.794
9820214 27.5926 6.20693 34 7.31971 -15.9966 1.50165 75.1193
9820227 27.5926 6.20693 34 7.31971 -15.9966 1.50165 75.1193
9820234 27.6524 6.25298 34 7.45297 -15.9062 1.50234 75.3583
9820244 27.6923 6.3727 34 7.56719 -15.7844 1.48791 75.6321
9820258 27.6923 6.3727 34 7.56719 -15.7844 1.48791 75.6321
9820264 27.8617 6.54767 34 7.76708 -15.6042 1.44882 76.1764
9820287 27.9314 6.63976 34 7.8813 -15.5032 1.43425 76.4525
9820294 28.061 6.80553 34 8.00504 -15.3667 1.39295 76.8715
9820304 28.061 6.80553 34 8.00504 -15.3667 1.39295 76.8715
9820318 28.1008 6.8792 33.6555 8.16685 -15.2047 1.33635 76.8023
9820324 28.1008 7.0818 33.1534 8.38578 -14.9197 1.24279 76.7218
9820347 28.1008 7.0818 33.1534 8.38578 -14.9197 1.24279 76.7218
9820348 28.1307 7.30282 32.8483 8.71892 -14.5964 1.19486 77.0007
9820355 28.1307 7.30282 32.8483 8.71892 -14.5964 1.19486 77.0007
9820365 28.0211 7.47779 32.3364 9.04255 -14.2555 1.14729 76.8779
9820382 27.8318 7.84615 31.8541 9.39474 -13.794 1.08627 76.9267
9820385 27.8318 7.84615 31.8541 9.39474 -13.794 1.08627 76.9267
9820395 27.6524 8.23294 31.106 9.7374 -13.2897 0.969265 76.7287
9820416 27.4232 8.72102 30.3382 10.2419 -12.6422 0.867224 76.7243
9820425 27.0645 9.37486 29.531 10.7749 -11.8723 0.755723 76.7452
9820447 27.0645 9.37486 29.531 10.7749 -11.8723 0.755723 76.7452
9820448 26.5064 9.95504 28.6155 11.2699 -11.0997 0.672702 76.3469
9820455 25.9584 10.7194 27.8083 11.8505 -10.2169 0.585775 76.3366
9820479 25.9584 10.7194 27.8083 11.8505 -10.2169 0.585775 76.3366
9820479 25.3107 11.4101 26.7846 12.4502 -9.29327 0.496479 75.9555
9820485 24.6131 12.1928 25.8101 13.145 -8.27778 0.425504 75.7611
9820495 24.6131 12.1928 25.8101 13.145 -8.27778 0.425504 75.7611
9820510 23.8458 13.1414 24.7174 13.9446 -7.09766 0.332081 75.6492
9820515 23.8458 13.1414 24.7174 13.9446 -7.09766 0.332081 75.6492
9820526 22.9091 14.2096 23.4574 14.8203 -5.7485 0.230564 75.3965
9820541 21.8628 15.4252 22.1384 15.8863 -4.21231 0.146719 75.3128
9820546 21.8628 15.4252 22.1384 15.8863 -4.21231 0.146719 75.3128
9820558 20.6671 16.7053 20.8587 17.0974 -2.56312 0.116245 75.3285
9820571 19.2819 18.167 19.5495 18.4711 -0.726566 0.113604 75.4696
9820586 17.7673 19.5772 18.2994 19.9519 1.14505 0.17991 75.5957
9820606 17.7673 19.5772 18.2994 19.9519 1.14505 0.17991 75.5957
9820607 16.1632 21.1625 17.0197 21.6372 3.16415 0.262808 75.9826
9820616 14.6218 22.6894 15.7731 23.2252 5.08447 0.331648 76.3094
9820647 14.6218 22.6894 15.7731 23.2252 5.08447 0.331648 76.3094
9820649 13.2477 24.1287 14.515 24.6378 6.8614 0.348185 76.5292
9820650 11.9264 25.3541 13.4856 25.8069 8.40666 0.394126 76.573
9820658 11.9264 25.3541 13.4856 25.8069 8.40666 0.394126 76.573
9820683 10.7725 26.385 12.4147 26.8688 9.83326 0.417166 76.441
9820684 10.7725 26.385 12.4147 26.8688 9.83326 0.417166 76.441
9820688 9.76839 27.3284 11.5621 27.765 11.0446 0.43776 76.4239
9820698 8.84352 28.0481 10.8343 28.9633 12.1704 0.568396 76.6892
9820715 8.84352 28.0481 10.8343 28.9633 12.1704 0.568396 76.6892
9820717 8.13886 28.7483 10.252 29.7719 13.0441 0.611765 76.911
9820727 7.52228 29.3707 9.7841 30.4441 13.7798 0.648699 77.1212
9820776 7.52228 29.3707 9.7841 30.4441 13.7798 0.648699 77.1212
9820777 7.10829 29.9348 9.3682 30.9897 14.3564 0.642396 77.401
