4989967 9.38083 7.37649 34 17.9645 -6.56264 7.68471 68.7218
4989978 9.3544 7.2844 34 17.9255 -6.61587 7.71977 68.5643
4990005 9.31917 7.31203 34 17.9158 -6.59817 7.72126 68.547
4990016 9.31917 7.31203 34 17.9158 -6.59817 7.72126 68.547
4990027 9.29275 7.26598 34 17.9352 -6.60333 7.74736 68.494
4990034 9.30155 7.33044 34 17.9158 -6.58495 7.72099 68.5478
4990041 9.30155 7.33044 34 17.9158 -6.58495 7.72099 68.5478
4990049 9.20466 7.32124 34 17.9352 -6.55415 7.75827 68.4611
4990060 9.20466 7.33044 34 17.9547 -6.54093 7.75727 68.4898
4990069 9.20466 7.33044 34 17.9547 -6.54093 7.75727 68.4898
4990081 9.18705 7.34886 34 17.945 -6.53219 7.75597 68.4809
4990089 9.18705 7.34886 34 17.945 -6.53219 7.75597 68.4809
4990104 9.22228 7.35807 34 18.0327 -6.49714 7.75049 68.613
4990121 9.26632 7.3857 34 18.1788 -6.42947 7.74219 68.8308
4990129 9.17824 7.44095 34 18.3054 -6.32279 7.76636 68.9246
4990141 9.20466 7.51463 34 18.4126 -6.248 7.74461 69.1319
4990160 9.17824 7.62514 34 18.7244 -6.05109 7.74964 69.5277
4990169 9.17824 7.62514 34 18.7244 -6.05109 7.74964 69.5277
4990181 9.07254 7.72644 34 19.0166 -5.84736 7.78142 69.8156
4990191 9.04611 7.84615 34 19.3284 -5.65062 7.7832 70.2206
4990211 8.97565 7.91062 33.9311 19.6596 -5.44026 7.81201 70.477
4990221 8.94041 7.94745 33.5275 20.0201 -5.1467 7.80708 70.4354
4990232 8.94041 7.94745 33.5275 20.0201 -5.1467 7.80708 70.4354
4990241 8.85233 8.13164 33.0648 20.4097 -4.74598 7.76853 70.4586
4990251 8.85233 8.13164 33.0648 20.4097 -4.74598 7.76853 70.4586
4990261 8.76425 8.18689 32.4545 20.7605 -4.37228 7.75243 70.1661
4990270 8.68497 8.37107 32.0706 21.267 -3.94833 7.73115 70.3937
4990282 8.68497 8.37107 32.0706 21.267 -3.94833 7.73115 70.3937
4990292 8.62332 8.48158 31.4603 21.6957 -3.52485 7.69655 70.2609
4990301 8.6057 8.64735 30.8992 22.2315 -3.06394 7.64616 70.3838
4990311 8.6057 8.64735 30.8992 22.2315 -3.06394 7.64616 70.3838
4990321 8.50881 8.82232 30.1807 22.855 -2.49128 7.61109 70.3668
4990331 8.50881 8.82232 30.1807 22.855 -2.49128 7.61109 70.3668
4990341 8.36788 8.96966 29.6589 23.3421 -2.03126 7.60539 70.3386
4990351 8.32383 9.09859 28.8911 23.9754 -1.47286 7.56394 70.2889
4990361 8.32383 9.09859 28.8911 23.9754 -1.47286 7.56394 70.2889
4990371 8.27979 9.31961 28.1824 24.5307 -0.928682 7.49092 70.3125
4990383 8.19171 9.54984 27.5032 25.086 -0.37647 7.43223 70.3307
4990403 8.05078 9.75244 26.7551 25.69 0.226542 7.39701 70.2483
4990421 8.05078 9.96425 25.9873 26.1966 0.755987 7.30115 70.1988
4990431 7.98031 10.1668 25.2588 26.7908 1.32433 7.24445 70.1968
4990442 7.98031 10.1668 25.2588 26.7908 1.32433 7.24445 70.1968
4990453 7.90104 10.4707 24.5796 27.2487 1.86567 7.14882 70.2001
4990463 7.79534 10.6549 23.8906 27.7748 2.40453 7.10578 70.1156
4990473 7.79534 10.6549 23.8906 27.7748 2.40453 7.10578 70.1156
4990489 7.80414 10.7746 23.3295 28.2619 2.81563 7.05697 70.1702
4990495 7.80414 10.7746 23.3295 28.2619 2.81563 7.05697 70.1702
4990502 7.6456 10.9312 22.7487 28.8074 3.33094 7.05361 70.1329
4990512 7.6544 11.1338 22.1778 29.3725 3.79384 6.98666 70.3385
4990523 7.6544 11.1338 22.1778 29.3725 3.79384 6.98666 70.3385
4990533 7.63679 11.3917 21.5478 29.8888 4.29146 6.89877 70.465
4990542 7.49585 11.5022 20.9178 30.5805 4.84743 6.91531 70.4963
4990563 7.41658 11.714 20.2976 31.1943 5.37862 6.87345 70.6225
4990574 7.41658 11.714 20.2976 31.1943 5.37862 6.87345 70.6225
4990583 7.34611 11.9534 19.5889 31.7009 5.92133 6.79782 70.5893
4990596 7.23161 12.1468 18.9392 32.3536 6.48411 6.77384 70.6712
4990603 7.23161 12.1468 18.9392 32.3536 6.48411 6.77384 70.6712
4990613 7.08187 12.3862 18.2009 32.9089 7.08874 6.72485 70.5779
4990623 6.99378 12.5336 17.5709 33.4739 7.59605 6.69899 70.5722
4990643 6.94093 12.7546 16.9584 34 8.08704 6.63718 70.6539
4990661 6.94093 12.7546 16.9584 34 8.08704 6.63718 70.6539
4990664 6.84404 12.8927 16.2202 34 8.51542 6.53617 69.957
4990674 6.72073 13.0769 15.7107 34 8.86422 6.45528 69.5084
4990703 6.57979 13.2427 15.2012 34 9.22208 6.38449 69.0237
4990704 6.50933 13.4177 14.7853 34 9.50449 6.29982 68.7123
4990720 6.50933 13.4177 14.7853 34 9.50449 6.29982 68.7123
4990724 6.45648 13.5282 14.4734 34 9.71336 6.24224 68.458
4990735 6.45648 13.5282 14.4734 34 9.71336 6.24224 68.458
4990744 6.38601 13.565 14.0783 34 9.9592 6.20187 68.0293
4990754 6.36839 13.7216 13.7976 34 10.1475 6.1221 67.8875
4990775 6.34197 13.786 13.6 34 10.2779 6.08434 67.728
4990788 6.29793 13.8044 13.3713 34 10.4245 6.06212 67.4736
4990794 6.29793 13.8044 13.3713 34 10.4245 6.06212 67.4736
4990808 6.2715 13.8137 13.2049 34 10.528 6.04541 67.29
4990816 6.2715 13.8137 13.2049 34 10.528 6.04541 67.29
4990826 6.22746 13.8413 13.1217 34 10.6012 6.03947 67.1905
4990836 6.22746 13.9702 13.0489 34 10.6674 5.98943 67.2466
4990856 6.23627 13.9978 12.9969 34 10.6962 5.97109 67.231
4990866 6.17461 13.9426 12.9034 34 10.7671 5.99507 67.0206
4990886 6.21865 13.9794 12.9657 34 10.7182 5.97815 67.1638
4990896 6.21865 13.9794 12.9657 34 10.7182 5.97815 67.1638
4990906 6.21865 13.9242 12.9969 34 10.6899 5.9996 67.1398
4990917 6.24508 13.9057 12.9969 34 10.6719 5.9971 67.1478
4990926 6.24508 13.9057 12.9969 34 10.6719 5.9971 67.1478
4990936 6.28031 13.8781 13.0697 34 10.6087 6.00447 67.2281
4990946 6.33316 13.9334 13.0697 34 10.5925 5.97075 67.3363
4990966 6.43886 13.915 13.1529 34 10.489 5.95476 67.5067
4990991 6.44767 13.8597 13.2777 34 10.407 5.98586 67.585
4990998 6.5886 13.9057 13.4544 34 10.2514 5.95156 67.9488
4991007 6.5886 13.9057 13.4544 34 10.2514 5.95156 67.9488
4991018 6.61503 13.8965 13.5584 34 10.1818 5.96008 68.07
4991028 6.70311 13.915 13.6728 34 10.0815 5.94254 68.2908
4991038 6.70311 13.915 13.6728 34 10.0815 5.94254 68.2908
4991048 6.81762 13.961 13.8183 34 9.95854 5.91274 68.597
4991058 6.81762 13.961 13.8183 34 9.95854 5.91274 68.597
4991068 6.87927 13.9518 14.0471 34 9.80914 5.927 68.8782
4991079 6.96736 13.9794 14.3174 34 9.63507 5.92745 69.2642
4991088 6.96736 13.9794 14.3174 34 9.63507 5.92745 69.2642
4991099 7.04663 13.9794 14.4838 34 9.51268 5.92529 69.5098
4991109 7.1171 13.9426 14.7541 34 9.33603 5.95035 69.8138
4991119 7.1171 13.9426 14.7541 34 9.33603 5.95035 69.8138
4991130 7.25803 13.8873 15.0037 33.9221 9.11492 5.9469 70.0711
4991141 7.25803 13.8873 15.0037 33.9221 9.11492 5.9469 70.0711
4991151 7.3285 13.8321 15.3572 33.6493 8.83451 5.95278 70.167
4991158 7.45181 13.7952 15.7627 33.1914 8.46572 5.92021 70.2011
4991181 7.58394 13.7584 16.0434 32.792 8.16606 5.87645 70.1777
4991192 7.6456 13.6755 16.4697 32.3244 7.80307 5.87739 70.1152
4991212 7.78653 13.5466 16.948 31.8567 7.3672 5.87521 70.1379
4991222 7.78653 13.5466 16.948 31.8567 7.3672 5.87521 70.1379
4991232 7.90984 13.3992 17.4528 31.5158 6.95539 5.90362 70.2776
4991240 8.00674 13.3624 17.8269 31.1748 6.64466 5.89006 70.3708
4991260 8.0772 13.2519 18.1616 30.7266 6.31603 5.88725 70.2173
4991277 8.1829 13.1598 18.5061 30.4344 6.01325 5.88998 70.2832
4991286 8.1829 13.1598 18.5061 30.4344 6.01325 5.88998 70.2832
4991303 8.29741 13.0861 18.89 29.9375 5.63881 5.86317 70.2111
4991304 8.29741 13.0861 18.89 29.9375 5.63881 5.86317 70.2111
4991311 8.41192 12.9756 19.3428 29.5284 5.2482 5.86766 70.2587
4991323 8.5 12.8651 19.6086 29.09 4.94069 5.85184 70.0637
4991331 8.5 12.8651 19.6086 29.09 4.94069 5.85184 70.0637
4991341 8.59689 12.8283 19.9236 28.6613 4.63117 5.8191 70.0101
4991351 8.79067 12.8099 20.337 28.2327 4.24498 5.76508 70.1702
4991361 8.79067 12.8099 20.337 28.2327 4.24498 5.76508 70.1702
4991371 8.97565 12.7178 20.6323 27.7358 3.87003 5.71099 70.0615
4991393 9.09896 12.6533 21.1048 27.1513 3.42846 5.67871 70.0084
4991401 9.26632 12.552 21.41 26.6447 3.04854 5.63229 69.873
4991412 9.26632 12.552 21.41 26.6447 3.04854 5.63229 69.873
4991422 9.41606 12.4691 21.8037 26.1771 2.65739 5.60264 69.866
4991433 9.62746 12.331 22.1778 25.69 2.22543 5.56581 69.8262
4991443 9.62746 12.331 22.1778 25.69 2.22543 5.56581 69.8262
4991452 9.81244 12.2849 22.6404 25.1834 1.79326 5.51902 69.9212
4991464 9.9886 12.1284 23.0637 24.6086 1.31994 5.49267 69.7893
4991472 9.9886 12.1284 23.0637 24.6086 1.31994 5.49267 69.7893
4991484 10.1472 11.9995 23.5165 24.1994 0.907221 5.48992 69.8625
4991492 10.1472 11.9995 23.5165 24.1994 0.907221 5.48992 69.8625
4991505 10.3409 11.9718 23.9201 23.6831 0.49842 5.42589 69.916
4991512 10.6052 11.8521 24.3926 23.1765 0.011012 5.37907 70.0264
4991522 10.6052 11.8521 24.3926 23.1765 0.011012 5.37907 70.0264
4991532 10.7285 11.8061 24.806 22.6504 -0.385056 5.34109 69.991
4991542 10.7285 11.8061 24.806 22.6504 -0.385056 5.34109 69.991
4991553 10.9135 11.6311 25.1998 22.2607 -0.793302 5.33874 70.0051
4991563 11.0896 11.493 25.6427 21.7834 -1.23414 5.32295 70.0087
4991573 11.0896 11.493 25.6427 21.7834 -1.23414 5.32295 70.0087
4991583 11.2834 11.4101 26.0069 21.3547 -1.615 5.28188 70.0552
4991595 11.3627 11.2996 26.3416 21.0332 -1.91739 5.29275 70.0371
4991603 11.3627 11.2996 26.3416 21.0332 -1.91739 5.29275 70.0371
4991614 11.4684 11.1338 26.6566 20.4974 -2.32732 5.2795 69.7562
4991623 11.4684 11.1338 26.6566 20.4974 -2.32732 5.2795 69.7562
4991634 11.6181 10.9865 27.0405 20.0785 -2.72278 5.27392 69.7236
4991643 11.7503 10.8852 27.4146 19.6401 -3.09929 5.25597 69.6901
4991653 11.7503 10.8852 27.4146 19.6401 -3.09929 5.25597 69.6901
4991663 11.9176 10.7286 27.8477 19.153 -3.54779 5.24528 69.6469
4991676 12.0321 10.6549 28.2611 18.7925 -3.8879 5.24083 69.7408
4991683 12.0321 10.6549 28.2611 18.7925 -3.8879 5.24083 69.7408
4991693 12.1907 10.5813 28.6155 18.4905 -4.19817 5.22356 69.878
4991706 12.1907 10.5813 28.6155 18.4905 -4.19817 5.22356 69.878
4991714 12.2171 10.4063 28.8911 18.1009 -4.52526 5.2507 69.6154
4991726 12.3933 10.3787 29.3735 17.7989 -4.85717 5.23283 69.9443
4991735 12.3933 10.3787 29.3735 17.7989 -4.85717 5.23283 69.9443
4991747 12.4725 10.2037 29.6688 17.5358 -5.15228 5.26505 69.8808
4991757 12.5694 10.1853 30.0724 17.2338 -5.43196 5.25646 70.0609
4991764 12.5694 10.1853 30.0724 17.2338 -5.43196 5.25646 70.0609
4991774 12.6047 10.1576 30.4169 16.9334 -5.68035 5.26039 70.1126
4991798 12.6047 10.0287 30.6925 16.5336 -5.98877 5.28048 69.8595
4991804 12.7016 9.96425 30.9288 16.2671 -6.22624 5.26685 69.8617
4991817 12.7016 9.96425 30.9288 16.2671 -6.22624 5.26685 69.8617
4991828 12.7632 9.88136 31.2044 15.991 -6.47738 5.27295 69.84
4991838 12.8865 9.78006 31.5489 15.8102 -6.72796 5.28931 70.0257
4991847 12.8865 9.78006 31.5489 15.8102 -6.72796 5.28931 70.0257
4991856 12.8777 9.69718 31.8246 15.5913 -6.93443 5.32376 69.9907
4991866 12.8865 9.58667 32.1199 15.4009 -7.1502 5.3678 69.994
4991886 12.8865 9.53142 32.3167 15.2105 -7.31334 5.38478 69.9452
4991897 12.8865 9.53142 32.3167 15.2105 -7.31334 5.38478 69.9452
4991907 12.7896 9.47616 32.5924 15.0773 -7.44564 5.4487 69.9354
4991917 12.7632 9.39328 32.74 15.0487 -7.52776 5.49692 69.9452
4991938 12.7456 9.38407 32.9664 14.9726 -7.61945 5.52515 70.0686
4991949 12.7544 9.32882 33.0845 14.8869 -7.71655 5.54315 70.0547
4991958 12.7544 9.32882 33.0845 14.8869 -7.71655 5.54315 70.0547
4991968 12.728 9.21831 33.242 14.8964 -7.79602 5.60582 70.0847
4991978 12.728 9.21831 33.242 14.8964 -7.79602 5.60582 70.0847
4991989 12.6311 9.19068 33.3208 14.9821 -7.76443 5.66443 70.1246
4992000 12.5782 9.14464 33.2716 15.0011 -7.75194 5.68961 69.9956
4992009 12.5782 9.14464 33.2716 15.0011 -7.75194 5.68961 69.9956
4992018 12.5782 9.16306 33.2519 15.0677 -7.70733 5.6904 70.0609
4992028 12.587 9.11701 33.1042 15.1153 -7.67227 5.6881 69.9236
4992048 12.5606 9.2091 33.0648 15.2867 -7.53327 5.68625 70.1212
4992068 12.4549 9.22752 32.8975 15.3914 -7.40787 5.70372 69.9713
4992080 12.4637 9.22752 32.8188 15.458 -7.35942 5.6995 69.968
4992090 12.4637 9.22752 32.8188 15.458 -7.35942 5.6995 69.968
4992099 12.4197 9.29198 32.681 15.6198 -7.20902 5.69665 70.0124
4992109 12.3668 9.25515 32.553 15.7626 -7.11423 5.72516 69.9376
4992120 12.3668 9.25515 32.553 15.7626 -7.11423 5.72516 69.9376
4992129 12.3845 9.34724 32.366 15.9625 -6.93714 5.69441 70.0601
4992149 12.2611 9.35645 32.238 16.1529 -6.78126 5.73643 70.0084
4992161 12.2347 9.49458 32.0214 16.2956 -6.59061 5.69361 70.0464
4992171 12.2347 9.49458 32.0214 16.2956 -6.59061 5.69361 70.0464
4992181 12.1907 9.46696 31.8344 16.4289 -6.48204 5.70766 69.9209
4992191 12.0938 9.58667 31.5981 16.5812 -6.27116 5.68973 69.8598
4992201 12.0938 9.58667 31.5981 16.5812 -6.27116 5.68973 69.8598
4992211 12.0762 9.66956 31.4013 16.8477 -6.05766 5.6797 69.9947
4992221 12.0762 9.66956 31.4013 16.8477 -6.05766 5.6797 69.9947
4992231 12.0233 9.67877 31.1355 17.0585 -5.87358 5.68527 69.896
4992241 12.0233 9.79848 30.8894 17.2728 -5.65896 5.64566 69.984
4992253 12.0233 9.79848 30.8894 17.2728 -5.65896 5.64566 69.984
4992262 11.9528 9.90899 30.4169 17.5358 -5.3445 5.60575 69.8146
4992271 11.8471 10.0103 30.0527 17.9742 -4.97799 5.61702 69.8843
4992291 11.7855 10.13 29.6885 18.2665 -4.67919 5.59023 69.8705
4992302 11.7855 10.13 29.6885 18.2665 -4.67919 5.59023 69.8705
4992312 11.6974 10.2866 29.1963 18.7925 -4.22113 5.57464 69.9728
4992322 11.5212 10.48 28.6451 19.2212 -3.74464 5.55303 69.8674
4992332 11.5212 10.48 28.6451 19.2212 -3.74464 5.55303 69.8674
4992342 11.3715 10.6273 28.1036 19.757 -3.25326 5.55298 69.8595
4992352 11.301 10.8483 27.5721 20.2344 -2.78405 5.50142 69.9558
4992372 11.1865 11.0509 26.9716 20.8189 -2.24493 5.47347 70.028
4992397 11.0368 11.1522 26.4401 21.2963 -1.79776 5.48027 69.9254
4992403 10.9487 11.3824 26.0168 21.7639 -1.36181 5.44477 70.1118
4992412 10.9487 11.3824 26.0168 21.7639 -1.36181 5.44477 70.1118
4992424 10.7373 11.4745 25.564 22.2218 -0.930379 5.48031 69.9976
4992432 10.6492 11.6863 25.0915 22.592 -0.52214 5.43021 70.019
4992452 10.5788 11.7969 24.5796 23.0109 -0.125283 5.40581 69.9661
4992463 10.5788 11.7969 24.5796 23.0109 -0.125283 5.40581 69.9661
4992474 10.4026 11.981 24.0579 23.4298 0.340033 5.38935 69.8713
4992483 10.3057 12.1468 23.5953 23.9364 0.779548 5.37532 69.9841
4992494 10.3057 12.1468 23.5953 23.9364 0.779548 5.37532 69.9841
4992503 10.2264 12.2665 23.1129 24.404 1.18954 5.36152 70.0099
4992513 10.156 12.4231 22.5518 24.8911 1.64463 5.32631 70.022
4992523 10.156 12.4231 22.5518 24.8911 1.64463 5.32631 70.022
4992535 10.0503 12.6257 22.1285 25.388 2.07816 5.30839 70.1924
4992543 10.0503 12.6257 22.1285 25.388 2.07816 5.30839 70.1924
4992556 9.91813 12.7086 21.6659 25.7387 2.45005 5.30718 70.0313
4992581 9.76839 12.7822 21.1934 26.2842 2.89336 5.33935 70.0283
4992585 9.76839 12.7822 21.1934 26.2842 2.89336 5.33935 70.0283
4992594 9.46891 12.9756 20.2779 27.1513 3.71386 5.36354 69.8738
4992605 9.46891 12.9756 20.2779 27.1513 3.71386 5.36354 69.8738
4992615 9.40725 13.0585 19.835 27.5897 4.07994 5.35672 69.8904
4992626 9.23109 13.2151 19.4609 27.9696 4.46954 5.36325 69.8767
4992636 9.23109 13.2151 19.4609 27.9696 4.46954 5.36325 69.8767
4992647 9.12539 13.344 19.1361 28.408 4.81713 5.37212 70.0135
4992656 9.12539 13.344 19.1361 28.408 4.81713 5.37212 70.0135
4992666 9.03731 13.4545 18.634 28.8367 5.22416 5.3555 69.9625
4992676 8.86995 13.519 18.3486 29.2848 5.56439 5.40781 70.0223
4992696 8.80829 13.6847 17.8269 29.6453 5.96541 5.35533 69.9652
4992718 8.65855 13.786 17.5316 30.0057 6.28794 5.3784 69.9819
4992726 8.61451 13.915 17.1969 30.4734 6.61575 5.37198 70.1997
4992736 8.61451 13.915 17.1969 30.4734 6.61575 5.37198 70.1997
4992746 8.48238 14.0347 16.8752 30.8241 6.94323 5.37957 70.2164
4992756 8.35026 14.1268 16.4801 31.1456 7.28999 5.3811 70.1027
4992776 8.29741 14.1912 16.1058 31.4378 7.57716 5.36645 70.0323
4992788 8.1829 14.2557 15.9187 31.584 7.77013 5.37538 69.9412
4992799 8.1829 14.2557 15.9187 31.584 7.77013 5.37538 69.9412
4992807 8.17409 14.2833 15.7835 31.9054 7.92314 5.39547 70.1463
4992831 8.17409 14.2833 15.7835 31.9054 7.92314 5.39547 70.1463
4992832 8.04197 14.2741 15.5859 32.1295 8.13052 5.44027 70.0315
4992837 8.03316 14.2833 15.3364 32.4413 8.32988 5.44864 70.0941
4992857 7.90104 14.3662 15.2532 32.6556 8.50274 5.48084 70.176
4992867 7.90104 14.3662 15.2532 32.6556 8.50274 5.48084 70.176
4992877 7.90104 14.3938 15.0661 32.8797 8.65112 5.47778 70.2406
4992887 7.87461 14.3846 14.8789 33.1524 8.81467 5.49977 70.2906
4992898 7.87461 14.3846 14.8789 33.1524 8.81467 5.49977 70.2906
4992907 7.83057 14.4307 14.7229 33.2596 8.94626 5.49258 70.2438
4992918 7.7601 14.4215 14.5982 33.4447 9.08084 5.524 70.2244
4992930 7.7601 14.4215 14.5982 33.4447 9.08084 5.524 70.2244
4992938 7.73368 14.4399 14.4214 33.5421 9.20587 5.51562 70.1371
4992952 7.68083 14.4399 14.3278 33.6006 9.29055 5.52634 70.0491
4992958 7.68083 14.4399 14.3278 33.6006 9.29055 5.52634 70.0491
4992968 7.6544 14.4675 14.255 33.5908 9.34319 5.51482 69.9678
4992988 7.68083 14.4122 14.2343 33.6785 9.34768 5.53233 70.0058
4992999 7.68964 14.4675 14.2446 33.6298 9.33972 5.50837 70.0316
4993011 7.68964 14.4675 14.2446 33.6298 9.33972 5.50837 70.0316
4993019 7.69845 14.4583 14.2446 33.6688 9.34205 5.51376 70.0702
4993030 7.59275 14.4767 14.2654 33.7175 9.39868 5.54873 70.0524
4993049 7.67202 14.4583 14.3486 33.6883 9.30844 5.53818 70.1672
4993062 7.67202 14.4583 14.3486 33.6883 9.30844 5.53818 70.1672
4993069 7.6456 14.3662 14.3798 33.5616 9.25704 5.56006 69.9532
4993083 7.6456 14.3938 14.5358 33.5226 9.17827 5.56772 70.0978
4993089 7.6456 14.3938 14.5358 33.5226 9.17827 5.56772 70.0978
4993103 7.7601 14.4491 14.619 33.5129 9.09246 5.52793 70.341
4993109 7.69845 14.4122 14.6294 33.3668 9.07586 5.53843 70.1068
4993131 7.79534 14.403 14.7541 33.3083 8.95303 5.52173 70.2608
4993141 7.79534 14.403 14.7541 33.3083 8.95303 5.52173 70.2608
4993151 7.80414 14.3662 14.9413 33.0355 8.78735 5.51836 70.1472
4993161 7.8658 14.2925 15.0765 32.8115 8.6235 5.50984 70.0462
4993171 7.8658 14.2925 15.0765 32.8115 8.6235 5.50984 70.0462
4993181 7.89223 14.3386 15.3364 32.6653 8.46306 5.50406 70.2325
4993191 7.93627 14.2189 15.4716 32.4315 8.29401 5.51284 70.0582
4993219 7.98912 14.1083 15.7419 32.1587 8.04881 5.5294 69.9981
4993229 7.98912 14.1083 15.7419 32.1587 8.04881 5.5294 69.9981
4993232 8.02435 14.0807 16.0226 31.9152 7.8341 5.5322 70.0429
4993242 8.11244 13.9794 16.2618 31.6619 7.59371 5.53416 70.0155
4993253 8.11244 13.9794 16.2618 31.6619 7.59371 5.53416 70.0155
4993262 8.2886 13.9334 16.5217 31.3307 7.29715 5.4864 70.0743
4993272 8.35026 13.8137 16.9792 30.9702 6.93677 5.51653 70.1133
4993292 8.48238 13.7308 17.3544 30.6292 6.5969 5.50676 70.1968
4993302 8.48238 13.7308 17.3544 30.6292 6.5969 5.50676 70.1968
4993312 8.55285 13.519 17.7087 30.2395 6.2471 5.54337 70.0201
4993323 8.57927 13.4361 18.1419 29.9278 5.93662 5.57629 70.085
4993333 8.57927 13.4361 18.1419 29.9278 5.93662 5.57629 70.085
4993343 8.73782 13.2979 18.5258 29.6745 5.59145 5.58784 70.236
4993353 8.86114 13.1506 18.9294 29.2069 5.19151 5.5863 70.148
4993363 8.86114 13.1506 18.9294 29.2069 5.19151 5.5863 70.148
4993375 8.95803 13.0125 19.4019 28.749 4.77799 5.60037 70.1213
4993383 8.95803 13.0125 19.4019 28.749 4.77799 5.60037 70.1213
4993396 9.09896 12.8467 19.7858 28.2229 4.35459 5.58858 69.9543
4993403 9.16062 12.6994 20.3764 27.7163 3.88787 5.6251 69.9527
4993423 9.37202 12.5244 20.78 27.3169 3.46079 5.61493 69.9933
4993440 9.46891 12.4691 21.2623 26.8688 3.07078 5.60726 70.0691
4993447 9.46891 12.4691 21.2623 26.8688 3.07078 5.60726 70.0691
4993453 9.57461 12.2481 21.7742 26.4206 2.61362 5.64975 70.0175
4993463 9.57461 12.2481 21.7742 26.4206 2.61362 5.64975 70.0175
4993473 9.65389 12.0639 22.1876 25.9335 2.20363 5.6709 69.8389
4993483 9.83005 11.8982 22.8274 25.3003 1.62511 5.66871 69.8559
4993503 10.0238 11.6863 23.487 24.7547 1.04725 5.68924 69.9519
4993514 10.1648 11.5022 24.0481 24.2481 0.549388 5.70928 69.9631
4993524 10.1648 11.5022 24.0481 24.2481 0.549388 5.70928 69.9631
4993536 10.3057 11.2996 24.6977 23.761 0.0203967 5.74906 70.064
4993554 10.4554 11.0693 25.249 23.1765 -0.521295 5.76854 69.9503
4993564 10.5699 10.8575 25.9676 22.6504 -1.08129 5.82276 70.0455
4993574 10.5699 10.8575 25.9676 22.6504 -1.08129 5.82276 70.0455
4993584 10.7109 10.6918 26.568 22.0756 -1.61019 5.83351 70.0463
4993594 10.8518 10.4892 27.2571 21.5301 -2.1709 5.87058 70.1282
4993607 10.8518 10.4892 27.2571 21.5301 -2.1709 5.87058 70.1282
4993615 11.0808 10.2589 27.828 20.9845 -2.7317 5.87424 70.1523
4993631 11.0808 10.2589 27.828 20.9845 -2.7317 5.87424 70.1523
4993637 11.2041 10.0471 28.271 20.3415 -3.25149 5.87456 69.8638
4993646 11.3979 9.92741 28.8715 19.8544 -3.74281 5.86725 70.0512
4993666 11.4948 9.75244 29.4522 19.1822 -4.2974 5.87862 69.8817
4993681 11.6446 9.57747 29.9247 18.7536 -4.73468 5.89188 69.9003
4993686 11.6446 9.57747 29.9247 18.7536 -4.73468 5.89188 69.9003
4993696 11.7679 9.40249 30.5646 18.2178 -5.2579 5.92085 69.9527
4993708 11.7679 9.40249 30.5646 18.2178 -5.2579 5.92085 69.9527
4993716 11.8912 9.33803 30.9682 17.8378 -5.59843 5.90633 70.0352
4993730 12.085 9.27356 31.4406 17.3215 -6.03622 5.86209 70.1207
4993757 12.2171 9.17226 31.6769 16.8763 -6.37862 5.8256 69.9425
4993759 12.3404 9.04334 32.0805 16.4289 -6.77773 5.82152 69.8931
4993766 12.3404 9.04334 32.0805 16.4289 -6.77773 5.82152 69.8931
4993776 12.4637 8.98808 32.4742 16.1148 -7.07984 5.81172 70.0408
4993786 12.4637 8.98808 32.4742 16.1148 -7.07984 5.81172 70.0408
4993796 12.543 8.91441 32.7203 15.7721 -7.35413 5.79737 69.9499
4993806 12.6751 8.82232 32.8778 15.5151 -7.58885 5.77236 69.8904
4993816 12.6751 8.82232 32.8778 15.5151 -7.58885 5.77236 69.8904
4993826 12.728 8.91441 32.9959 15.2962 -7.69052 5.71601 69.9345
4993838 12.728 8.91441 32.9959 15.2962 -7.69052 5.71601 69.9345
4993845 12.7544 8.79469 33.3109 15.1725 -7.88855 5.76896 70.0325
4993862 12.8161 8.72102 33.5078 14.9821 -8.07574 5.77338 70.027
4993882 12.8425 8.74865 33.7638 14.8298 -8.20257 5.77101 70.1847
4993887 12.8601 8.64735 33.8917 14.6394 -8.37576 5.7876 70.0386
4993908 12.9922 8.67497 34 14.4871 -8.49204 5.73448 70.1543
4993917 12.9658 8.54605 34 14.3348 -8.62064 5.7604 69.8467
4993927 12.9658 8.54605 34 14.3348 -8.62064 5.7604 69.8467
4993938 13.001 8.62893 34 14.2587 -8.62566 5.71525 69.8886
4993948 13.001 8.62893 34 14.2587 -8.62566 5.71525 69.8886
4993958 12.9922 8.59209 34 14.192 -8.67346 5.71993 69.7764
4993968 12.9658 8.53684 34 14.1349 -8.72159 5.73662 69.6376
4993978 12.9658 8.53684 34 14.1349 -8.72159 5.73662 69.6376
4993988 12.9922 8.57367 34 14.1064 -8.72376 5.714 69.6723
4993998 12.9922 8.57367 34 14.1064 -8.72376 5.714 69.6723
4994008 13.001 8.51842 34 14.0778 -8.76643 5.72401 69.5973
4994018 13.0715 8.57367 34 13.9922 -8.7976 5.67519 69.6373
4994028 13.0715 8.57367 34 13.9922 -8.7976 5.67519 69.6373
4994038 13.1244 8.56446 34 13.9446 -8.83747 5.65585 69.6334
4994048 13.1155 8.57367 34 13.9255 -8.8402 5.65318 69.6147
4994058 13.1155 8.57367 34 13.9255 -8.8402 5.65318 69.6147
4994068 13.142 8.66576 34 13.9446 -8.79241 5.62064 69.7523
4994081 13.142 8.66576 33.9902 13.9446 -8.79012 5.61932 69.7425
4994088 13.1684 8.69339 33.9902 14.0398 -8.73688 5.61614 69.8917
4994098 13.2565 8.79469 33.8228 14.0683 -8.65581 5.5417 69.9423
4994109 13.2565 8.79469 33.8228 14.0683 -8.65581 5.5417 69.9423
4994118 13.3181 8.87757 33.6161 14.1635 -8.53629 5.4842 69.9753
4994132 13.3622 8.96966 33.37 14.2872 -8.38534 5.42772 69.9891
4994138 13.3622 8.96966 33.37 14.2872 -8.38534 5.42772 69.9891
4994155 13.4238 9.0065 33.2814 14.3539 -8.32965 5.396 70.0656
4994168 13.4326 9.05255 33.0156 14.3824 -8.23277 5.34739 69.8832
4994178 13.4503 9.18147 32.7597 14.5157 -8.05097 5.2878 69.9071
4994188 13.4503 9.18147 32.7597 14.5157 -8.05097 5.2878 69.9071
4994198 13.5207 9.30119 32.4939 14.5918 -7.91102 5.20626 69.9077
4994208 13.4943 9.39328 32.2478 14.7917 -7.707 5.18081 69.9271
4994220 13.4943 9.39328 32.2478 14.7917 -7.707 5.18081 69.9271
4994229 13.4767 9.60509 31.8836 14.9059 -7.45988 5.08959 69.8713
4994242 13.4767 9.60509 31.8836 14.9059 -7.45988 5.08959 69.8713
4994266 13.4591 9.64193 31.4899 15.1629 -7.21971 5.06463 69.7538
4994267 13.4062 9.85374 31.0961 15.3914 -6.90248 4.99535 69.7475
4994271 13.4062 9.85374 31.0961 15.3914 -6.90248 4.99535 69.7475
4994282 13.4326 9.97346 30.7811 15.5913 -6.68152 4.93697 69.7785
4994289 13.3269 10.13 30.3874 15.8578 -6.35796 4.90406 69.7021
4994299 13.3269 10.13 30.3874 15.8578 -6.35796 4.90406 69.7021
4994309 13.3622 10.2774 30.0428 16.1338 -6.08521 4.8421 69.8162
4994319 13.3622 10.2774 30.0428 16.1338 -6.08521 4.8421 69.8162
4994329 13.2212 10.4063 29.4325 16.3908 -5.70788 4.79385 69.4509
4994339 13.1948 10.6365 29.0191 16.7335 -5.3331 4.7255 69.5839
4994350 13.1948 10.6365 29.0191 16.7335 -5.3331 4.7255 69.5839
4994359 13.0715 10.8483 28.5072 17.0195 -4.93579 4.66695 69.4465
4994371 13.0098 11.0049 28.1135 17.6235 -4.47837 4.67134 69.7517
4994381 13.0098 11.0049 28.1135 17.6235 -4.47837 4.67134 69.7517
4994391 12.8513 11.1798 27.5819 18.1009 -3.99939 4.65868 69.7139
4994401 12.8513 11.1798 27.5819 18.1009 -3.99939 4.65868 69.7139
4994412 12.728 11.4377 27.0012 18.5782 -3.48168 4.60542 69.7451
4994421 12.6135 11.6035 26.4598 19.0653 -3.01269 4.58292 69.742
4994441 12.4197 11.8889 25.9085 19.6109 -2.44471 4.55636 69.828
4994451 12.2435 12.0915 25.2884 20.137 -1.90057 4.53486 69.7604
4994471 12.0585 12.331 24.7174 20.6728 -1.35147 4.51435 69.7797
4994481 12.0585 12.331 24.7174 20.6728 -1.35147 4.51435 69.7797
4994490 11.9088 12.5244 24.0185 21.1696 -0.801957 4.47168 69.6213
4994507 11.7415 12.7178 23.5067 21.7444 -0.281852 4.47391 69.7103
4994521 11.5565 12.9296 22.7684 22.3095 0.328535 4.44019 69.5639
4994532 11.3451 13.1782 22.1778 22.9524 0.935996 4.43773 69.6535
4994543 11.3451 13.1782 22.1778 22.9524 0.935996 4.43773 69.6535
4994552 11.2482 13.5098 21.4592 23.7026 1.61076 4.37727 69.9197
4994564 11.2482 13.5098 21.4592 23.7026 1.61076 4.37727 69.9197
4994572 11.0104 13.6387 20.6225 24.2481 2.249 4.36313 69.5196
4994586 10.8078 13.8873 19.9433 24.9788 2.91418 4.35818 69.6171
4994602 10.5964 14.1544 19.3526 25.5536 3.50251 4.3403 69.657
4994612 10.429 14.3109 18.762 26.3037 4.09123 4.36765 69.8057
4994632 10.2881 14.5135 18.3092 26.9175 4.58162 4.37503 70.0283
4994652 10.0943 14.6885 17.7481 27.5799 5.14401 4.39559 70.1109
4994663 9.85648 14.8727 17.3445 28.106 5.62047 4.42892 70.1797
4994673 9.85648 14.8727 17.3445 28.106 5.62047 4.42892 70.1797
4994686 9.6715 15.0845 16.7401 28.6321 6.16908 4.40967 70.1282
4994694 9.49534 15.1858 16.2514 29.1192 6.62307 4.43018 70.0517
4994716 9.32798 15.4345 15.7419 29.5673 7.11126 4.39838 70.0717
4994737 9.14301 15.6186 15.17 29.9181 7.59619 4.36504 69.8497
4994744 9.05492 15.766 14.7541 30.3077 7.965 4.34462 69.8828
4994765 8.84352 15.987 14.2758 30.6585 8.4305 4.32247 69.7648
4994774 8.68497 16.0054 13.9327 30.9702 8.75009 4.35657 69.5933
4994785 8.68497 16.0054 13.9327 30.9702 8.75009 4.35657 69.5933
4994794 8.57047 16.1436 13.6 31.2819 9.07202 4.34679 69.596
4994804 8.57047 16.1436 13.6 31.2819 9.07202 4.34679 69.596
4994816 8.38549 16.1896 13.3089 31.6521 9.40065 4.39755 69.5361
4994827 8.30622 16.2356 13.1217 32.0321 9.62751 4.43613 69.6957
4994835 8.30622 16.2356 13.1217 32.0321 9.62751 4.43613 69.6957
4994844 8.29741 16.2633 12.841 32.2562 9.82698 4.42229 69.6578
4994854 8.13886 16.3554 12.737 32.4997 10.0311 4.46197 69.7309
4994866 8.13886 16.3554 12.737 32.4997 10.0311 4.46197 69.7309
4994874 8.16529 16.3462 12.581 32.6458 10.1256 4.45568 69.7383
4994895 8.0772 16.3738 12.4771 32.714 10.2429 4.46715 69.6421
4994911 8.08601 16.4382 12.4355 32.8504 10.3019 4.46102 69.8102
4994914 8.08601 16.4382 12.4355 32.8504 10.3019 4.46102 69.8102
4994924 8.04197 16.5211 12.2691 32.9479 10.4464 4.43978 69.7801
4994936 8.03316 16.5119 12.2795 32.9089 10.4355 4.44047 69.7335
4994946 8.03316 16.5119 12.2795 32.9089 10.4355 4.44047 69.7335
4994958 8.05959 16.5119 12.2275 32.9771 10.4627 4.43556 69.7761
4994966 8.05959 16.5119 12.2275 32.9771 10.4627 4.43556 69.7761
4994976 7.98031 16.5672 12.1651 32.8407 10.518 4.41209 69.5533
4994986 8.0772 16.558 12.1755 32.8894 10.4715 4.39664 69.7001
4994996 8.0772 16.558 12.1755 32.8894 10.4715 4.39664 69.7001
4995008 8.10363 16.6408 12.2275 32.8017 10.4307 4.36083 69.7737
4995016 8.10363 16.5948 12.2691 32.6946 10.3775 4.36362 69.6621
4995027 8.10363 16.5948 12.2691 32.6946 10.3775 4.36362 69.6621
4995036 8.13886 16.5948 12.4147 32.5289 10.2509 4.35076 69.6773
4995047 8.13886 16.5948 12.4147 32.5289 10.2509 4.35076 69.6773
4995056 8.1829 16.5856 12.5083 32.5289 10.1795 4.35538 69.8057
4995066 8.27979 16.5027 12.6434 32.3146 9.99924 4.33941 69.7405
4995076 8.27979 16.5027 12.6434 32.3146 9.99924 4.33941 69.7405
4995087 8.32383 16.5856 12.8306 32.2075 9.87835 4.31651 69.9475
4995097 8.34145 16.4475 12.9657 32.0516 9.73833 4.34669 69.8062
4995129 8.43834 16.4382 13.1633 31.8275 9.54097 4.31837 69.8674
4995139 8.43834 16.4382 13.1633 31.8275 9.54097 4.31837 69.8674
4995144 8.42953 16.429 13.2569 31.5645 9.43855 4.29739 69.6799
4995149 8.64974 16.4475 13.4232 31.2332 9.17791 4.20608 69.7537
4995165 8.64974 16.4475 13.4232 31.2332 9.17791 4.20608 69.7537
4995169 8.72021 16.4198 13.6312 30.9702 8.97552 4.18575 69.7414
4995178 8.80829 16.3554 13.9431 30.6 8.68063 4.17021 69.7068
4995188 8.80829 16.3554 13.9431 30.6 8.68063 4.17021 69.7068
4995198 8.87876 16.3462 14.1303 30.3175 8.48776 4.13853 69.6727
4995209 8.87876 16.3462 14.1303 30.3175 8.48776 4.13853 69.6727
4995218 8.94041 16.3001 14.4214 29.9765 8.22634 4.12647 69.6384
4995228 8.98446 16.1896 14.7021 29.6063 7.95499 4.13076 69.4825
4995238 8.98446 16.1896 14.7021 29.6063 7.95499 4.13076 69.4825
4995248 9.16943 16.1528 15.0245 29.2458 7.61746 4.08409 69.5925
4995258 9.30155 16.0699 15.378 28.8659 7.27435 4.06644 69.6153
4995268 9.30155 16.0699 15.378 28.8659 7.27435 4.06644 69.6153
4995278 9.42487 15.9594 15.8771 28.5347 6.87436 4.08924 69.796
4995290 9.42487 15.9594 15.8771 28.5347 6.87436 4.08924 69.796
4995300 9.50414 15.8673 16.293 28.0768 6.50511 4.08618 69.7412
4995309 9.66269 15.7199 16.7713 27.6676 6.07034 4.09392 69.8215
4995319 9.66269 15.7199 16.7713 27.6676 6.07034 4.09392 69.8215
4995330 9.83886 15.5726 17.2067 27.2 5.63142 4.08102 69.8182
4995339 9.96218 15.4437 17.7087 26.7324 5.19175 4.08793 69.847
4995350 9.96218 15.4437 17.7087 26.7324 5.19175 4.08793 69.847
4995359 10.1119 15.2779 18.1911 26.2745 4.74172 4.09613 69.8554
4995369 10.1119 15.2779 18.1911 26.2745 4.74172 4.09613 69.8554
4995379 10.2617 14.9924 18.7522 25.8069 4.22036 4.14785 69.8131
4995389 10.3409 14.8727 19.2837 25.2321 3.75742 4.15223 69.7295
4995399 10.3409 14.8727 19.2837 25.2321 3.75742 4.15223 69.7295
4995414 10.5788 14.6148 19.7956 24.7742 3.23045 4.16613 69.7634
4995419 10.5788 14.6148 19.7956 24.7742 3.23045 4.16613 69.7634
4995430 10.6756 14.3478 20.4453 24.3066 2.69918 4.24114 69.7753
4995439 10.843 14.1728 21.0162 23.8 2.18868 4.25315 69.832
4995459 10.9487 13.9242 21.5871 23.3129 1.68447 4.30551 69.7729
4995472 11.0984 13.5834 22.2368 22.7673 1.08181 4.3744 69.686
4995481 11.0984 13.5834 22.2368 22.7673 1.08181 4.3744 69.686
4995497 11.2922 13.3532 22.8274 22.2705 0.539124 4.39881 69.7434
4995509 11.4596 12.9848 23.4574 21.7834 -0.0533864 4.4765 69.6852
4995524 11.5917 12.773 24.1859 21.3352 -0.59716 4.54092 69.8858
4995531 11.5917 12.773 24.1859 21.3352 -0.59716 4.54092 69.8858
4995546 11.7062 12.3954 24.7765 20.7605 -1.19431 4.61711 69.6386
4995551 11.8648 12.0455 25.3573 20.361 -1.729 4.69808 69.6286
4995561 11.8648 12.0455 25.3573 20.361 -1.729 4.69808 69.6286
4995571 11.9793 11.7416 26.1546 19.835 -2.35163 4.79168 69.7104
4995581 12.1202 11.4469 26.7944 19.4063 -2.88866 4.8662 69.7679
4995595 12.1202 11.4469 26.7944 19.4063 -2.88866 4.8662 69.7679
4995601 12.2964 11.2535 27.4638 18.9971 -3.39573 4.90875 70.0108
4995612 12.2964 11.2535 27.4638 18.9971 -3.39573 4.90875 70.0108
4995623 12.4197 11.0325 27.8772 18.6172 -3.80549 4.94139 69.9466
4995632 12.5254 10.968 28.2316 18.3347 -4.08733 4.93997 70.0597
4995645 12.5254 10.968 28.2316 18.3347 -4.08733 4.93997 70.0597
4995652 12.5606 10.8759 28.4186 18.0716 -4.30153 4.94525 69.9268
4995662 12.587 10.8575 28.714 17.7112 -4.55573 4.93359 69.8697
4995672 12.587 10.8575 28.714 17.7112 -4.55573 4.93359 69.8697
4995682 12.6487 10.7378 29.029 17.3799 -4.85702 4.94783 69.7954
4995694 12.6487 10.7378 29.029 17.3799 -4.85702 4.94783 69.7954
4995702 12.7192 10.6273 29.275 17.0195 -5.1505 4.94279 69.641
4995716 12.8689 10.572 29.5999 16.6669 -5.46206 4.91175 69.7077
4995726 12.8689 10.572 29.5999 16.6669 -5.46206 4.91175 69.7077
4995732 13.0098 10.4984 29.7968 16.4289 -5.69284 4.8866 69.7339
4995742 13.1684 10.4984 30.1019 16.0672 -5.98 4.83326 69.8359
4995752 13.1684 10.4247 30.1019 16.0672 -6.01272 4.8542 69.7622
4995784 13.3005 10.3234 30.3283 15.9149 -6.22272 4.85621 69.8671
4995785 13.4943 10.2405 30.5449 15.5246 -6.54473 4.79942 69.8043
4995793 13.6617 10.1668 30.7614 15.2867 -6.78681 4.76975 69.8766
4995813 13.9347 10.1024 30.9386 14.9726 -7.07608 4.69077 69.9483
4995826 14.1285 10.0103 31.0863 14.6489 -7.3545 4.63615 69.874
4995835 14.1285 10.0103 31.0863 14.6489 -7.3545 4.63615 69.874
4995845 14.3223 9.89057 31.2241 14.3348 -7.63954 4.58912 69.7718
4995865 14.4632 9.84453 31.3127 14.0778 -7.83862 4.5373 69.6982
4995877 14.657 9.73402 31.4603 13.8494 -8.08238 4.50183 69.7007
4995885 14.657 9.73402 31.4603 13.8494 -8.08238 4.50183 69.7007
4995898 14.8067 9.72481 31.6375 13.5733 -8.297 4.44765 69.7424
4995905 14.9829 9.6143 31.7753 13.3449 -8.5341 4.41562 69.7174
4995915 14.9829 9.6143 31.7753 13.3449 -8.5341 4.41562 69.7174
4995924 15.0974 9.58667 31.923 13.1545 -8.70077 4.38496 69.7616
4995944 15.2207 9.47616 32.0214 12.888 -8.93524 4.35576 69.6063
4995956 15.3264 9.55905 32.1199 12.6976 -9.03462 4.28935 69.703
4995976 15.4409 9.48537 32.1789 12.5358 -9.1895 4.26224 69.6411
4995986 15.4938 9.49458 32.1986 12.4502 -9.2435 4.2349 69.6371
4996003 15.4938 9.49458 32.1986 12.4502 -9.2435 4.2349 69.6371
4996009 15.6083 9.46696 32.2577 12.3264 -9.35717 4.20091 69.6593
4996016 15.6083 9.46696 32.2577 12.3264 -9.35717 4.20091 69.6593
4996026 15.5026 9.45775 32.4053 12.2598 -9.40402 4.24517 69.6255
4996036 15.5466 9.42091 32.4939 12.2598 -9.45187 4.25684 69.7213
4996046 15.5466 9.42091 32.4939 12.2598 -9.45187 4.25684 69.7213
4996056 15.6435 9.48537 32.5038 12.1932 -9.4767 4.20361 69.8258
4996068 15.6699 9.45775 32.4349 12.1265 -9.51387 4.18294 69.6891
4996086 15.758 9.49458 32.4644 12.0789 -9.54529 4.14581 69.796
4996097 15.758 9.49458 32.4644 12.0789 -9.54529 4.14581 69.796
4996107 15.8373 9.57747 32.2675 12.0218 -9.50644 4.06172 69.7041
4996117 15.9254 9.56826 32.0706 12.0409 -9.47735 4.01218 69.6052
4996137 16.0663 9.66035 31.8836 11.9171 -9.48275 3.89934 69.5274
4996151 16.172 9.82611 31.5096 11.9267 -9.33573 3.76717 69.4343
4996167 16.3922 9.94583 31.2438 11.9362 -9.26163 3.634 69.518
4996178 16.3922 9.94583 31.2438 11.9362 -9.26163 3.634 69.518
4996188 16.5067 10.0748 30.9091 11.9267 -9.15278 3.51229 69.4172
4996198 16.7446 10.2221 30.5252 11.9267 -9.04694 3.34605 69.4185
4996208 16.7446 10.2221 30.5252 11.9267 -9.04694 3.34605 69.4185
4996222 16.8326 10.4063 30.1216 12.0028 -8.84659 3.21902 69.3633
4996229 16.9472 10.5628 29.8066 12.0314 -8.70954 3.09915 69.3479
4996238 16.9472 10.5628 29.8066 12.0314 -8.70954 3.09915 69.3479
4996250 17.0996 10.7102 29.3833 12.2027 -8.49118 2.97774 69.3958
4996258 17.0996 10.7102 29.3833 12.2027 -8.49118 2.97774 69.3958
4996268 17.0897 10.9128 28.96 12.2503 -8.26678 2.86244 69.2128
4996278 17.1594 11.0601 28.5171 12.4026 -8.03228 2.75533 69.1392
4996292 17.1594 11.0601 28.5171 12.4026 -8.03228 2.75533 69.1392
4996312 17.1993 11.318 28.0347 12.612 -7.70057 2.63058 69.164
4996314 17.1893 11.539 27.5721 12.8214 -7.37865 2.53143 69.1218
4996318 17.1893 11.539 27.5721 12.8214 -7.37865 2.53143 69.1218
4996328 17.1495 11.7969 27.1193 13.0784 -7.012 2.44085 69.144
4996338 17.1495 11.7969 27.1193 13.0784 -7.012 2.44085 69.144
4996351 17.0598 12.0363 26.7354 13.3354 -6.65907 2.38004 69.1668
4996358 16.9736 12.3126 26.3318 13.7447 -6.21665 2.33346 69.3626
4996378 16.7622 12.6257 25.8987 13.9826 -5.79353 2.27232 69.2692
4996398 16.586 12.8467 25.3966 14.2777 -5.37508 2.223 69.1071
4996399 16.586 12.8467 25.3966 14.2777 -5.37508 2.223 69.1071
4996412 16.4098 13.1046 24.934 14.6394 -4.92123 2.18396 69.0878
4996419 16.4098 13.1046 24.934 14.6394 -4.92123 2.18396 69.0878
4996430 16.2689 13.3532 24.491 15.0582 -4.46301 2.15273 69.1714
4996440 16.0135 13.6479 24.0776 15.439 -3.97678 2.13692 69.1779
4996454 16.0135 13.6479 24.0776 15.439 -3.97678 2.13692 69.1779
4996461 15.7933 13.8781 23.6248 15.8197 -3.51592 2.12103 69.1159
4996471 15.529 14.0439 23.2901 16.3623 -3.03826 2.18406 69.2253
4996481 15.529 14.0439 23.2901 16.3623 -3.03826 2.18406 69.2253
4996491 15.2824 14.2833 22.857 16.8667 -2.52178 2.19904 69.2894
4996501 15.2824 14.2833 22.857 16.8667 -2.52178 2.19904 69.2894
4996520 15.0446 14.4399 22.4435 17.2825 -2.08267 2.21967 69.2105
4996521 14.886 14.6793 22.0006 17.8281 -1.57766 2.21849 69.394
4996531 14.886 14.6793 22.0006 17.8281 -1.57766 2.21849 69.394
4996541 14.613 14.8635 21.5675 18.3736 -1.06 2.26124 69.4175
4996563 14.3223 14.9372 21.1048 18.8997 -0.573967 2.32698 69.264
4996566 14.3223 14.9372 21.1048 18.8997 -0.573967 2.32698 69.264
4996571 14.0668 15.0661 20.839 19.4745 -0.131497 2.41494 69.4465
4996592 13.7674 15.2042 20.4551 20.0298 0.364089 2.48645 69.4565
4996602 13.4767 15.3332 19.9728 20.6533 0.913426 2.55262 69.4359
4996619 13.4767 15.3332 19.9728 20.6533 0.913426 2.55262 69.4359
4996623 13.1155 15.4805 19.52 21.2573 1.47834 2.63384 69.3733
4996632 12.8601 15.4621 19.1951 21.8516 1.89509 2.75149 69.3689
4996653 12.5078 15.5358 18.8801 22.5433 2.40802 2.88912 69.4669
4996666 12.5078 15.5358 18.8801 22.5433 2.40802 2.88912 69.4669
4996672 12.1995 15.6463 18.4864 23.235 2.94512 2.99185 69.5671
4996685 11.8648 15.7476 18.0926 24.0046 3.51269 3.11684 69.7096
4996702 11.5124 15.812 17.6891 24.7547 4.0725 3.25062 69.7682
4996712 11.0896 15.9041 17.2264 25.5926 4.71999 3.40021 69.8127
4996722 11.0896 15.9041 17.2264 25.5926 4.71999 3.40021 69.8127
4996733 10.7902 15.9133 16.8232 26.5181 5.28875 3.56297 70.0448
4996743 10.7902 15.9133 16.8232 26.5181 5.28875 3.56297 70.0448
4996753 10.3938 15.941 16.4073 27.3656 5.88575 3.73102 70.1077
4996766 10.1031 15.9502 15.9706 28.1255 6.41556 3.8581 70.1494
4996773 10.1031 15.9502 15.9706 28.1255 6.41556 3.8581 70.1494
4996783 9.76839 15.9041 15.6067 28.8367 6.90488 4.01569 70.1159
4996793 9.43368 15.7476 15.3468 29.6063 7.33357 4.22871 70.1343
4996803 9.43368 15.7476 15.3468 29.6063 7.33357 4.22871 70.1343
4996813 9.20466 15.6371 15.0453 30.3467 7.73626 4.38897 70.2337
4996823 9.20466 15.6371 15.0453 30.3467 7.73626 4.38897 70.2337
4996834 8.83471 15.416 14.7957 31.0384 8.14156 4.61941 70.0849
4996843 8.64093 15.2226 14.6398 31.8372 8.45145 4.82227 70.3406
4996857 8.64093 15.2226 14.6398 31.8372 8.45145 4.82227 70.3406
4996863 8.41192 15.02 14.4942 32.4607 8.72843 5.01293 70.3869
4996881 8.34145 14.6977 14.3486 32.9186 8.86344 5.1691 70.3064
4996883 8.34145 14.6977 14.3486 32.9186 8.86344 5.1691 70.3064
4996893 8.1829 14.5596 14.2862 33.1622 8.99427 5.27973 70.1909
4996917 7.94508 14.3202 14.2239 33.357 9.13016 5.43673 69.8461
4996927 7.90984 14.1268 14.2031 33.7272 9.1976 5.55127 69.9669
4996950 7.70725 13.9794 14.1303 34 9.36087 5.68135 69.8169
4996955 7.59275 13.8689 13.9639 34 9.47498 5.72604 69.4256
4996964 7.59275 13.8689 13.9639 34 9.47498 5.72604 69.4256
4996977 7.49585 13.7124 13.8911 34 9.52446 5.7923 69.0993
4996985 7.49585 13.7124 13.8911 34 9.52446 5.7923 69.0993
4996999 7.37254 13.5098 13.9015 34 9.53556 5.89221 68.7838
4997004 7.31088 13.4453 13.9431 34 9.53113 5.93608 68.6993
4997022 7.31088 13.4453 13.9431 34 9.53113 5.93608 68.6993
4997024 7.27565 13.3624 13.9119 34 9.54589 5.96803 68.55
4997034 7.2228 13.3624 14.0263 34 9.51492 5.99923 68.6115
4997046 7.2228 13.39 14.0263 34 9.52115 5.99078 68.6391
4997055 7.24922 13.3808 14.0575 34 9.49011 5.98961 68.6875
4997078 7.2228 13.39 14.0263 34 9.52115 5.99078 68.6391
4997086 7.30207 13.3072 14.1719 34 9.38965 6.01095 68.7811
4997096 7.30207 13.3072 14.1719 34 9.38965 6.01095 68.7811
4997106 7.30207 13.3256 14.1407 34 9.40943 6.00124 68.7683
4997118 7.34611 13.2887 14.2966 34 9.30126 6.01941 68.9315
4997133 7.34611 13.2887 14.2966 34 9.30126 6.01941 68.9315
4997136 7.36373 13.1966 14.4734 34 9.18373 6.06508 69.0338
4997146 7.36373 13.1966 14.4734 34 9.18373 6.06508 69.0338
4997156 7.37254 13.0953 14.5566 34 9.11497 6.10407 69.0245
4997166 7.35492 13.1046 14.7125 34 9.04885 6.1267 69.172
4997192 7.33731 13.0493 14.8893 34 8.95791 6.17156 69.2759
4997196 7.33731 13.0493 14.8893 34 8.95791 6.17156 69.2759
4997206 7.31969 12.948 15.0661 34 8.85653 6.23038 69.3337
4997216 7.31969 12.8835 15.3572 34 8.69987 6.28676 69.5604
4997236 7.38135 12.8191 15.6067 34 8.53458 6.31876 69.8071
4997247 7.41658 12.7362 15.8667 34 8.37373 6.3655 70.0194
4997258 7.41658 12.7362 15.8667 34 8.37373 6.3655 70.0194
4997267 7.42539 12.6073 16.189 34 8.18582 6.44168 70.2216
4997279 7.44301 12.4599 16.5633 33.961 7.95667 6.52193 70.4272
4997287 7.44301 12.4599 16.5633 33.961 7.95667 6.52193 70.4272
4997301 7.47824 12.4047 16.9688 33.6298 7.65712 6.53697 70.4815
4997308 7.47824 12.4047 16.9688 33.6298 7.65712 6.53697 70.4815
4997318 7.45181 12.2389 17.4036 33.3181 7.35011 6.61054 70.4124
4997338 7.42539 12.0915 17.7875 32.9186 7.04801 6.66217 70.2231
4997340 7.42539 12.0915 17.7875 32.9186 7.04801 6.66217 70.2231
4997350 7.55751 12.0363 18.2895 32.3926 6.61031 6.63562 70.2759
4997358 7.59275 11.8705 18.7128 31.9931 6.25564 6.67871 70.1692
4997374 7.59275 11.8705 18.7128 31.9931 6.25564 6.67871 70.1692
4997378 7.73368 11.7508 19.3428 31.4476 5.73531 6.68216 70.2748
4997391 7.73368 11.7508 19.3428 31.4476 5.73531 6.68216 70.2748
4997399 7.72487 11.6219 19.835 30.8436 5.32151 6.71153 70.0253
4997408 7.89223 11.4837 20.5043 30.4149 4.80192 6.73088 70.2952
4997424 7.89223 11.4837 20.5043 30.4149 4.80192 6.73088 70.2952
4997428 8.09482 11.2904 21.0851 29.6842 4.2031 6.71037 70.1545
4997438 8.22694 11.143 21.7053 29.0997 3.67315 6.71928 70.1749
4997448 8.22694 11.143 21.7053 29.0997 3.67315 6.71928 70.1749
4997460 8.45596 10.9036 22.601 28.3496 2.91428 6.73966 70.3102
4997472 8.45596 10.9036 22.601 28.3496 2.91428 6.73966 70.3102
4997478 8.57927 10.747 23.359 27.502 2.24783 6.73941 70.1873
4997488 8.84352 10.5168 24.1268 26.6739 1.50382 6.72177 70.1611
4997509 9.12539 10.351 24.8946 25.7874 0.754869 6.67181 70.1584
4997522 9.37202 10.351 25.6723 24.8619 0.060007 6.57821 70.2572
4997529 9.37202 10.1668 25.6723 24.8619 -0.00554472 6.63493 70.073
4997546 9.6715 9.98267 26.2924 24.141 -0.656421 6.58731 70.0876
4997549 9.6715 9.98267 26.2924 24.141 -0.656421 6.58731 70.0876
4997559 9.89171 9.84453 26.9323 23.3129 -1.30983 6.53936 69.9814
4997571 10.2176 9.7156 27.5426 22.5628 -1.95672 6.46189 70.0385
4997579 10.2176 9.7156 27.5426 22.5628 -1.95672 6.46189 70.0385
4997592 10.5259 9.60509 28.1036 21.8321 -2.56626 6.38065 70.0667
4997599 10.5259 9.60509 28.1036 21.8321 -2.56626 6.38065 70.0667
4997610 10.843 9.513 28.4482 21.0722 -3.11478 6.26057 69.8764
4997619 11.1249 9.43012 28.8911 20.439 -3.62986 6.17623 69.8851
4997631 11.1249 9.43012 28.8911 20.439 -3.62986 6.17623 69.8851
4997640 11.3715 9.28277 29.2554 19.7765 -4.14989 6.1083 69.6861
4997650 11.671 9.2091 29.6196 19.2407 -4.60306 6.01808 69.7403
4997660 11.671 9.2091 29.6196 19.2407 -4.60306 6.01808 69.7403
4997669 11.9264 9.23673 29.9739 18.6854 -5.00492 5.90702 69.8225
4997686 11.9264 9.23673 29.9739 18.6854 -5.00492 5.90702 69.8225
4997693 12.1907 9.1078 30.161 18.2178 -5.39132 5.8298 69.6772
4997702 12.4373 9.16306 30.3578 17.7794 -5.68299 5.70787 69.7376
4997721 12.6927 9.15385 30.6827 17.4092 -6.00972 5.62893 69.9384
4997734 12.9218 9.18147 30.9485 17.0097 -6.3084 5.53549 70.0614
4997741 12.9218 9.18147 30.9485 17.0097 -6.3084 5.53549 70.0614
4997755 13.0979 9.09859 31.165 16.5717 -6.64659 5.47812 69.9332
4997761 13.0979 9.09859 31.165 16.5717 -6.64659 5.47812 69.9332
4997771 13.2212 8.99729 31.4308 16.1433 -6.98906 5.44948 69.7927
4997781 13.371 9.04334 31.5686 15.8102 -7.19486 5.36539 69.7931
4997791 13.371 9.04334 31.5686 15.8102 -7.19486 5.36539 69.7931
4997801 13.556 8.99729 31.736 15.4295 -7.48192 5.29532 69.7187
4997810 13.7057 9.0065 31.9624 15.201 -7.67813 5.24887 69.8756
4997831 13.8731 9.03413 32.1199 14.944 -7.86567 5.17857 69.9711
4997843 13.8731 9.03413 32.1199 14.944 -7.86567 5.17857 69.9711
4997852 13.9699 8.92362 32.366 14.7536 -8.09085 5.19032 70.0132
4997866 14.1109 8.92362 32.612 14.4681 -8.31896 5.14421 70.1146
4997872 14.1109 8.92362 32.612 14.4681 -8.31896 5.14421 70.1146
4997882 14.1373 8.81311 32.9369 14.1635 -8.60004 5.17124 70.0508
4997892 14.1461 8.75785 33.1042 13.9826 -8.75466 5.18273 69.9908
4997902 14.1461 8.75785 33.1042 13.9826 -8.75466 5.18273 69.9908
4997913 14.243 8.74865 33.2322 13.7542 -8.9215 5.14334 69.978
4997922 14.243 8.74865 33.2322 13.7542 -8.9215 5.14334 69.978
4997936 14.243 8.71181 33.3011 13.6019 -9.02919 5.1422 69.8578
4997942 14.3223 8.57367 33.2224 13.4782 -9.15736 5.13055 69.5965
4997952 14.3223 8.57367 33.2224 13.4782 -9.15736 5.13055 69.5965
4997962 14.3663 8.63814 33.2027 13.3639 -9.18734 5.08016 69.5711
4997972 14.4632 8.64735 33.1239 13.2021 -9.2666 5.01511 69.4366
4997982 14.4632 8.64735 33.1239 13.2021 -9.2666 5.01511 69.4366
4997992 14.5601 8.68418 33.1239 13.3068 -9.21887 4.9917 69.675
4998004 14.5601 8.68418 33.1239 13.3068 -9.21887 4.9917 69.675
4998012 14.6658 8.83153 32.9959 13.2402 -9.17422 4.89123 69.7335
4998027 14.7451 8.82232 32.9861 13.3544 -9.13861 4.88638 69.9079
4998033 14.7451 8.82232 32.9861 13.3544 -9.13861 4.88638 69.9079
4998042 14.8332 8.87757 32.9467 13.2973 -9.15056 4.83169 69.9548
4998052 14.9389 8.94204 32.7794 13.3354 -9.08657 4.7647 69.9957
4998062 14.9389 8.94204 32.7794 13.3354 -9.08657 4.7647 69.9957
4998076 15.0269 8.95125 32.5924 13.3544 -9.05028 4.71261 69.925
4998082 15.0269 8.95125 32.5924 13.3544 -9.05028 4.71261 69.925
4998092 15.0798 9.08938 32.3167 13.3449 -8.93668 4.61669 69.8308
4998102 15.1591 9.16306 32.0116 13.3544 -8.84411 4.52958 69.6881
4998112 15.1591 9.16306 32.0116 13.3544 -8.84411 4.52958 69.6881
4998125 15.256 9.29198 31.7064 13.402 -8.71004 4.42755 69.6564
4998150 15.4057 9.33803 31.4603 13.3639 -8.68361 4.32969 69.568
4998153 15.4321 9.50379 31.1552 13.5258 -8.45979 4.25436 69.6169
4998175 15.4938 9.56826 30.9189 13.6495 -8.32788 4.20212 69.6305
4998183 15.5907 9.69718 30.5547 13.8208 -8.12026 4.10998 69.6634
4998200 15.5907 9.69718 30.5547 13.8208 -8.12026 4.10998 69.6634
4998203 15.5995 9.9182 30.1807 13.9826 -7.84981 4.01378 69.681
4998213 15.5642 10.0011 29.7475 14.2111 -7.58717 3.96841 69.524
4998225 15.5642 10.0011 29.7475 14.2111 -7.58717 3.96841 69.524
4998233 15.5642 10.1761 29.3439 14.5062 -7.26608 3.90351 69.5904
4998249 15.5642 10.1761 29.3439 14.5062 -7.26608 3.90351 69.5904
4998254 15.4762 10.3234 28.901 14.7632 -6.94269 3.85768 69.4637
4998264 15.4497 10.4892 28.4186 15.0963 -6.58096 3.79591 69.4539
4998275 15.4497 10.4892 28.4186 15.0963 -6.58096 3.79591 69.4539
4998284 15.3 10.7286 27.956 15.477 -6.13661 3.75843 69.4616
4998299 15.1415 10.7286 27.4343 15.477 -5.95004 3.7164 68.7814
4998305 15.1415 10.8852 27.4343 15.8863 -5.6975 3.74074 69.3472
4998315 14.9212 11.0785 27.0208 16.4574 -5.18368 3.77353 69.4781
4998324 14.9212 11.0785 27.0208 16.4574 -5.18368 3.77353 69.4781
4998348 14.701 11.1706 26.5483 17.0097 -4.70583 3.82107 69.4298
4998351 14.4368 11.3456 26.066 17.5553 -4.17913 3.85546 69.4037
4998370 14.2342 11.539 25.6427 18.1691 -3.6534 3.88847 69.585
4998376 13.9171 11.5758 25.1998 18.7925 -3.1476 3.99352 69.4853
4998386 13.9171 11.5758 25.1998 18.7925 -3.1476 3.99352 69.4853
4998396 13.5912 11.6495 24.9438 19.5232 -2.64042 4.1372 69.7077
4998406 13.5912 11.6495 24.9438 19.5232 -2.64042 4.1372 69.7077
4998419 13.2653 11.8797 24.5402 20.1954 -2.05005 4.20516 69.8807
4998426 12.913 11.9626 24.176 20.8871 -1.51535 4.3297 69.9387
4998446 12.587 12.0455 23.7528 21.5398 -0.984788 4.43189 69.9251
4998456 12.1907 12.156 23.2999 22.1049 -0.440755 4.52853 69.7515
4998468 12.1907 12.156 23.2999 22.1049 -0.440755 4.52853 69.7515
4998476 11.9088 12.2665 22.9259 22.6797 0.0399411 4.60661 69.7809
4998491 11.9088 12.2665 22.9259 22.6797 0.0399411 4.60661 69.7809
4998496 11.6181 12.3126 22.4731 23.235 0.52281 4.69078 69.6387
4998506 11.3098 12.4139 22.1187 23.8974 1.03339 4.79476 69.7398
4998526 11.0632 12.4783 21.7151 24.5209 1.51228 4.87861 69.7776
4998537 11.0632 12.4783 21.7151 24.5209 1.51228 4.87861 69.7776
4998546 10.8166 12.5888 21.2131 25.1347 2.04071 4.93361 69.7532
4998561 10.5964 12.8375 20.78 25.7971 2.59184 4.95849 70.011
4998576 10.4202 12.9204 20.3862 26.3427 3.01723 5.00682 70.0695
4998586 10.2 13.0493 19.9236 26.8006 3.475 5.03223 69.9734
4998597 10.2 13.0493 19.9236 26.8006 3.475 5.03223 69.9734
4998609 10.0238 13.1874 19.3822 27.463 4.01265 5.06033 70.0565
4998617 10.0238 13.1874 19.3822 27.463 4.01265 5.06033 70.0565
4998631 9.78601 13.2795 18.9195 28.0573 4.50845 5.12075 70.0424
4998637 9.61865 13.4729 18.3092 28.6711 5.07198 5.11376 70.0718
4998657 9.37202 13.7031 17.7284 29.3043 5.67232 5.12586 70.1079
4998667 9.20466 13.9057 17.0886 29.9473 6.25827 5.1162 70.1463
4998678 9.20466 13.9057 17.0886 29.9473 6.25827 5.1162 70.1463
4998688 8.98446 14.0531 16.5633 30.4734 6.77092 5.13722 70.0742
4998701 8.98446 14.0531 16.5633 30.4734 6.77092 5.13722 70.0742
4998707 8.78187 14.1544 16.0226 30.9799 7.267 5.16158 69.9388
4998717 8.58808 14.2281 15.5651 31.5255 7.72469 5.20861 69.9068
4998737 8.42073 14.3846 15.1388 32.0126 8.16135 5.22024 69.9568
4998750 8.23575 14.5504 14.7437 32.5484 8.60442 5.24542 70.0783
4998758 8.23575 14.5504 14.7437 32.5484 8.60442 5.24542 70.0783
4998772 8.16529 14.5872 14.3174 32.9673 8.94946 5.25412 70.0373
4998778 8.16529 14.5872 14.3174 32.9673 8.94946 5.25412 70.0373
4998788 7.93627 14.7622 14.0263 33.4155 9.34381 5.29154 70.1402
4998802 7.84819 14.928 13.6104 33.8052 9.7143 5.26546 70.1917
4998808 7.84819 14.928 13.6104 33.8052 9.7143 5.26546 70.1917
4998827 7.74249 15.1306 13.2257 34 10.0438 5.21108 70.0987
4998830 7.57513 15.2319 12.9034 34 10.3117 5.18497 69.7103
4998838 7.57513 15.2319 12.9034 34 10.3117 5.18497 69.7103
4998851 7.51347 15.416 12.6122 34 10.5298 5.10831 69.5417
4998860 7.51347 15.416 12.6122 34 10.5298 5.10831 69.5417
4998874 7.31969 15.4805 12.3523 34 10.7764 5.10873 69.1525
4998878 7.25803 15.6831 12.0924 34 10.9848 5.03043 69.0335
4998888 7.25803 15.6831 12.0924 34 10.9848 5.03043 69.0335
4998898 7.25803 15.8212 11.8844 34 11.1214 4.96025 68.9637
4998908 7.12591 15.8765 11.7076 34 11.2949 4.95675 68.71
4998928 7.1171 16.0515 11.5933 34 11.3948 4.89182 68.7618
4998946 7.1171 16.0515 11.5933 34 11.3948 4.89182 68.7618
4998949 7.09067 16.0975 11.5101 34 11.462 4.8739 68.6983
4998970 7.15233 16.1804 11.5413 34 11.4291 4.83678 68.874
4998973 7.15233 16.1804 11.5413 34 11.4291 4.83678 68.874
4998983 7.13472 16.2633 11.4997 34 11.4767 4.81185 68.8977
4998996 7.09067 16.3093 11.3957 34 11.5643 4.79588 68.7957
4999010 7.10829 16.2909 11.4373 34 11.5292 4.80227 68.8365
4999030 7.10829 16.3185 11.4685 34 11.5181 4.79895 68.8953
4999044 7.19637 16.3369 11.4269 34 11.4971 4.76222 68.9602
4999051 7.19637 16.3369 11.4269 34 11.4971 4.76222 68.9602
4999061 7.20518 16.383 11.5413 34 11.441 4.76348 69.1295
4999071 7.29326 16.3554 11.6245 34 11.3455 4.75852 69.2731
4999083 7.29326 16.3554 11.6245 34 11.3455 4.75852 69.2731
4999093 7.34611 16.4014 11.718 34 11.278 4.74419 69.4656
4999101 7.34611 16.4014 11.718 34 11.278 4.74419 69.4656
4999117 7.34611 16.3185 11.8012 34 11.2182 4.78003 69.4659
4999121 7.46062 16.4198 11.9364 34 11.1086 4.73867 69.8168
4999131 7.46062 16.4198 11.9364 34 11.1086 4.73867 69.8168
4999142 7.58394 16.3646 12.0508 33.7857 10.932 4.70473 69.785
4999151 7.61917 16.4198 12.1651 33.4252 10.7931 4.64273 69.6293
4999161 7.61917 16.4198 12.1651 33.4252 10.7931 4.64273 69.6293
4999171 7.71606 16.3462 12.4459 33.1719 10.5325 4.64026 69.68
4999182 7.71606 16.3462 12.4459 33.1719 10.5325 4.64026 69.68
4999193 7.8658 16.2817 12.685 32.8504 10.2541 4.60399 69.6829
4999202 7.99793 16.3093 12.9761 32.5289 9.97824 4.5546 69.8123
4999217 7.99793 16.3093 12.9761 32.5289 9.97824 4.5546 69.8123
4999222 8.13886 16.3185 13.2153 32.149 9.70808 4.49149 69.8217
4999232 8.29741 16.2449 13.548 31.7691 9.36471 4.46071 69.8593
4999244 8.29741 16.2449 13.548 31.7691 9.36471 4.46071 69.8593
4999252 8.35026 16.2264 13.9951 31.3989 9.03233 4.46271 69.9707
4999268 8.35026 16.2264 13.9951 31.3989 9.03233 4.46271 69.9707
4999272 8.50881 16.1067 14.2758 30.9799 8.69528 4.43106 69.8713
4999282 8.6057 16.0699 14.6502 30.6 8.37103 4.41352 69.9257
4999295 8.6057 16.0699 14.6502 30.6 8.37103 4.41352 69.9257
4999306 8.78187 16.0515 15.0141 30.1324 7.99799 4.35407 69.9798
4999318 8.91399 15.8857 15.3676 29.7135 7.62642 4.35342 69.8807
4999332 9.09896 15.8581 15.8043 29.1971 7.2014 4.29778 69.9585
4999352 9.32798 15.6647 16.1474 28.6808 6.75661 4.26138 69.8209
4999368 9.49534 15.6094 16.5321 28.106 6.34043 4.20115 69.7429
4999374 9.49534 15.6094 16.5321 28.106 6.34043 4.20115 69.7429
4999386 9.73316 15.4345 17.0197 27.4923 5.80294 4.16428 69.6796
4999393 9.96218 15.2595 17.5512 26.7811 5.22154 4.12141 69.554
4999404 9.96218 15.2595 17.5512 26.7811 5.22154 4.12141 69.554
4999418 10.2088 15.1858 18.0237 26.1479 4.70814 4.04873 69.5662
4999423 10.2088 15.1858 18.0237 26.1479 4.70814 4.04873 69.5662
4999433 10.4378 14.9556 18.5553 25.5244 4.13355 4.03457 69.4731
4999444 10.6933 14.8359 19.1164 24.8229 3.54446 3.97523 69.4684
4999453 10.6933 14.8359 19.1164 24.8229 3.54446 3.97523 69.4684
4999468 11.072 14.7438 19.7267 24.1702 2.91025 3.89049 69.7127
4999475 11.072 14.7438 19.7267 24.1702 2.91025 3.89049 69.7127
4999483 11.2922 14.5504 20.2878 23.5954 2.35415 3.88104 69.7258
4999493 11.4596 14.3938 20.8292 23.157 1.88363 3.89452 69.8396
4999503 11.4596 14.3938 20.8292 23.157 1.88363 3.89452 69.8396
4999517 11.6181 14.2189 21.469 22.5335 1.31201 3.90156 69.8395
4999523 11.7062 14.0991 21.912 22.1049 0.925851 3.9124 69.8222
4999533 11.7062 14.0991 21.912 22.1049 0.925851 3.9124 69.8222
4999544 11.9 13.9702 22.4337 21.5301 0.417632 3.88641 69.834
4999553 11.9 13.9702 22.4337 21.5301 0.417632 3.88641 69.834
4999566 11.9793 13.786 22.8176 21.0527 0.0150323 3.89995 69.6356
4999573 12.0938 13.5742 23.172 20.6241 -0.384182 3.91455 69.464
4999590 12.0938 13.5742 23.172 20.6241 -0.384182 3.91455 69.464
4999593 12.1642 13.4545 23.5657 20.2149 -0.742286 3.92551 69.3994
4999621 12.314 13.1966 24.0579 19.8252 -1.2069 3.97136 69.3938
4999624 12.314 13.1966 24.0579 19.8252 -1.2069 3.97136 69.3938
4999641 12.5518 12.9019 25.0816 19.1433 -2.005 4.04094 69.6787
4999654 12.6399 12.7638 25.4852 18.7438 -2.37585 4.05528 69.6328
4999668 12.6399 12.7638 25.4852 18.7438 -2.37585 4.05528 69.6328
4999690 12.7544 12.5152 25.9479 18.3931 -2.79914 4.1096 69.6106
4999691 12.8337 12.2481 26.4991 18.0229 -3.25477 4.18948 69.6038
4999698 12.8337 12.2481 26.4991 18.0229 -3.25477 4.18948 69.6038
4999707 13.0275 11.9902 26.9421 17.643 -3.71261 4.21694 69.6028
4999718 13.0275 11.9902 26.9421 17.643 -3.71261 4.21694 69.6028
4999739 13.1332 11.7969 27.3851 17.3215 -4.09263 4.25995 69.6366
4999741 13.2565 11.6311 27.9166 16.9905 -4.49587 4.30252 69.7947
4999756 13.371 11.3824 28.3891 16.6573 -4.91416 4.36097 69.7999
4999766 13.5295 11.1983 28.8321 16.3052 -5.31675 4.3819 69.865
4999789 13.7674 10.9957 29.2554 16.0386 -5.7055 4.39591 70.057
4999801 13.9523 10.8115 29.7082 15.5437 -6.1791 4.38931 70.0157
4999814 13.9523 10.8115 29.7082 15.5437 -6.1791 4.38931 70.0157
4999817 14.1021 10.6733 30.0232 15.182 -6.52678 4.37901 69.9806
4999828 14.1021 10.6733 30.0232 15.182 -6.52678 4.37901 69.9806
4999839 14.0845 10.4707 30.4169 14.7536 -6.91171 4.43495 69.7258
4999847 14.2782 10.2958 30.8205 14.3919 -7.31196 4.43605 69.7864
4999864 14.2782 10.2958 30.8205 14.3919 -7.31196 4.43605 69.7864
4999868 14.4016 10.1945 31.2142 13.916 -7.71062 4.41746 69.7263
4999877 14.472 10.0471 31.5292 13.5733 -8.03657 4.4347 69.6217
4999888 14.472 10.0471 31.5292 13.5733 -8.03657 4.4347 69.6217
4999897 14.5865 9.84453 31.9722 13.3163 -8.38998 4.48744 69.7196
4999914 14.5865 9.84453 31.9722 13.3163 -8.38998 4.48744 69.7196
4999917 14.5689 9.65114 32.2675 13.126 -8.64031 4.56236 69.6135
4999931 14.6218 9.56826 32.612 12.8975 -8.88384 4.58817 69.6996
4999939 14.6218 9.56826 32.612 12.8975 -8.88384 4.58817 69.6996
4999948 14.613 9.47616 32.868 12.8309 -9.01798 4.64473 69.788
4999964 14.6746 9.47616 33.1239 12.6786 -9.1646 4.64276 69.9533
4999968 14.6746 9.38407 33.1239 12.6786 -9.20963 4.66865 69.8612
4999982 14.7187 9.29198 33.3799 12.6025 -9.35953 4.70869 69.993
4999991 14.7187 9.29198 33.3799 12.6025 -9.35953 4.70869 69.993
5000002 14.6746 9.22752 33.5866 12.4978 -9.47894 4.75425 69.9865
5000014 14.6922 9.1078 33.8425 12.4787 -9.60772 4.81762 70.1213
5000027 14.6922 9.1078 33.8425 12.4787 -9.60772 4.81762 70.1213
5000030 14.613 9.08938 33.9803 12.4692 -9.63434 4.86384 70.1519
5000041 14.5865 8.95125 34 12.3645 -9.75318 4.89828 69.9023
5000049 14.5865 8.95125 34 12.3645 -9.75318 4.89828 69.9023
5000061 14.5337 8.94204 34 12.3835 -9.73676 4.91871 69.8593
5000069 14.5337 8.94204 34 12.3835 -9.73676 4.91871 69.8593
5000084 14.5073 8.87757 34 12.3359 -9.7868 4.93779 69.7208
5000090 14.4896 8.86836 34 12.4121 -9.74959 4.95644 69.7701
5000124 14.4104 8.88678 34 12.5263 -9.66626 4.99026 69.8235
5000140 14.4104 8.88678 34 12.5263 -9.66626 4.99026 69.8235
5000143 14.3575 8.88678 34 12.5644 -9.63574 5.01086 69.8087
5000151 14.3575 8.88678 34 12.5644 -9.63574 5.01086 69.8087
5000167 14.2782 8.88678 34 12.6691 -9.56637 5.04855 69.8341
5000171 14.199 8.78548 34 12.8214 -9.52359 5.12213 69.8058
5000202 14.1197 8.84995 33.8228 12.9642 -9.36413 5.12152 69.7566
5000204 14.0052 8.89599 33.6555 13.2307 -9.14707 5.1553 69.7873
5000211 14.0052 8.89599 33.6555 13.2307 -9.14707 5.1553 69.7873
5000221 13.9259 8.96966 33.4684 13.4591 -8.93886 5.16276 69.8231
5000231 13.9259 8.96966 33.4684 13.4591 -8.93886 5.16276 69.8231
5000245 13.8378 9.02492 33.2125 13.6971 -8.71704 5.16971 69.7723
5000269 13.8114 9.17226 32.9861 14.0207 -8.43133 5.14852 69.9905
5000270 13.8114 9.17226 32.9861 14.0207 -8.43133 5.14852 69.9905
5000272 13.7497 9.2091 32.6514 14.3253 -8.17422 5.15143 69.9356
5000282 13.6 9.27356 32.3266 14.6775 -7.86214 5.17988 69.8776
5000294 13.6 9.27356 32.3266 14.6775 -7.86214 5.17988 69.8776
5000302 13.3974 9.44854 31.9033 15.1058 -7.42478 5.18857 69.8551
5000318 13.3974 9.44854 31.9033 15.1058 -7.42478 5.18857 69.8551
5000322 13.2653 9.50379 31.5588 15.5437 -7.07606 5.22388 69.8715
5000332 13.0891 9.6143 31.165 15.9149 -6.70825 5.23975 69.7833
5000342 13.0891 9.6143 31.165 15.9149 -6.70825 5.23975 69.7833
5000353 12.8953 9.72481 30.7516 16.4099 -6.27396 5.27531 69.7816
5000368 12.7104 9.80769 30.2889 17 -5.79871 5.32272 69.807
5000382 12.5342 9.95504 29.7869 17.6235 -5.27277 5.34792 69.8996
5000396 12.5342 9.95504 29.7869 17.6235 -5.27277 5.34792 69.8996
5000403 12.2788 10.0563 29.2455 18.3249 -4.70027 5.41488 69.9055
5000422 12.0321 10.305 28.714 19.0361 -4.06815 5.43886 70.0872
5000425 12.0321 10.305 28.714 19.0361 -4.06815 5.43886 70.0872
5000433 11.8119 10.4707 28.0741 19.6791 -3.47544 5.45517 70.0359
5000447 11.4948 10.6273 27.3851 20.5266 -2.75793 5.52367 70.0338
5000471 11.213 10.8575 26.6468 21.306 -2.03368 5.54437 70.0233
5000483 10.8694 10.9865 25.9676 22.1244 -1.33177 5.6262 69.9478
5000495 10.6845 11.1983 25.2195 22.9914 -0.611411 5.63421 70.0936
5000503 10.6845 11.1983 25.2195 22.9914 -0.611411 5.63421 70.0936
5000519 10.4642 11.5206 24.3729 23.7903 0.168818 5.59781 70.148
5000523 10.2176 11.76 23.4968 24.6476 0.960168 5.5974 70.122
5000533 10.2176 11.76 23.4968 24.6476 0.960168 5.5974 70.122
5000547 9.92694 12.0363 22.7782 25.4172 1.69199 5.60847 70.1587
5000553 9.92694 12.0363 22.7782 25.4172 1.69199 5.60847 70.1587
5000563 9.78601 12.1744 22.0892 26.0212 2.25502 5.59789 70.0708
5000574 9.57461 12.3402 21.4789 26.5375 2.79713 5.5987 69.9312
5000598 9.53938 12.5336 20.8784 27.0344 3.26859 5.53823 69.9857
5000605 9.3456 12.5336 20.4158 27.0344 3.53625 5.5325 69.3293
5000615 9.3456 12.5981 20.4158 27.541 3.71159 5.58218 69.9004
5000625 9.27513 12.7914 19.9925 28.0281 4.12055 5.55465 70.0871
5000649 9.1342 12.8099 19.6283 28.4372 4.45819 5.59669 70.0096
5000655 9.01088 12.9296 19.2739 28.9244 4.83654 5.61554 70.1387
5000664 9.01088 12.9296 19.2739 28.9244 4.83654 5.61554 70.1387
5000676 8.90518 13.0401 18.9195 29.2264 5.15106 5.60711 70.0911
5000684 8.8171 13.0401 18.7226 29.4212 5.32905 5.63277 70.001
5000701 8.8171 13.0125 18.7226 29.4212 5.32128 5.64092 69.9734
5000706 8.79948 13.0493 18.575 29.616 5.45792 5.64156 70.0398
5000715 8.79948 13.0493 18.575 29.616 5.45792 5.64156 70.0398
5000727 8.74663 13.0677 18.2895 29.8888 5.68645 5.65002 69.9927
5000735 8.72902 13.1874 18.0139 30.1129 5.90971 5.61304 70.0432
5000752 8.72902 13.1874 18.0139 30.1129 5.90971 5.61304 70.0432
5000754 8.67617 13.344 17.6989 30.3857 6.18881 5.57689 70.1047
5000765 8.67617 13.344 17.6989 30.3857 6.18881 5.57689 70.1047
5000778 8.6057 13.4545 17.3937 30.6 6.44327 5.55291 70.0539
5000786 8.54404 13.6203 17.0689 30.7559 6.70218 5.49953 69.9891
5000803 8.54404 13.6203 17.0689 30.7559 6.70218 5.49953 69.9891
5000806 8.49119 13.7584 16.7089 31.1066 7.01667 5.47332 70.065
5000816 8.41192 13.9057 16.3034 31.4476 7.36351 5.44465 70.0686
5000836 8.35907 13.9886 16.0122 31.7203 7.61187 5.43339 70.0803
5000852 8.35907 13.9886 16.0122 31.7203 7.61187 5.43339 70.0803
5000856 8.22694 14.0807 15.7003 31.9542 7.89985 5.4344 69.9621
5000866 8.19171 14.1912 15.5028 32.0711 8.06492 5.40138 69.9567
5000888 8.15648 14.2925 15.3156 32.2075 8.22754 5.37516 69.972
5000900 8.09482 14.3294 15.118 32.4413 8.41547 5.38737 69.9835
5000916 8.05959 14.3478 14.9829 32.5484 8.52666 5.38842 69.9387
5000928 8.05959 14.3478 14.9829 32.5484 8.52666 5.38842 69.9387
5000937 8.03316 14.4491 14.7541 32.7433 8.71863 5.36195 69.9796
5000948 8.02435 14.4951 14.6606 32.8602 8.8058 5.35433 70.0402
5000957 8.02435 14.4951 14.6606 32.8602 8.8058 5.35433 70.0402
5000973 7.99793 14.532 14.5462 32.9576 8.90481 5.34897 70.0337
5000977 7.96269 14.4951 14.4838 32.9966 8.95262 5.36671 69.9382
5000998 7.98031 14.5043 14.515 33.1232 8.96008 5.3806 70.1228
5001022 7.93627 14.532 14.4318 33.1232 9.02811 5.37396 70.0232
5001027 7.98912 14.5228 14.4214 33.2011 9.02316 5.37055 70.1344
5001037 7.98912 14.5228 14.4214 33.2011 9.02316 5.37055 70.1344
5001047 7.93627 14.4675 14.463 33.2888 9.03601 5.41968 70.1556
5001057 7.90984 14.4399 14.5046 33.2888 9.02236 5.4411 70.1431
5001077 7.94508 14.4399 14.4526 33.1817 9.00605 5.40908 70.0192
5001088 7.94508 14.4399 14.4526 33.1817 9.00605 5.40908 70.0192
5001100 7.94508 14.3846 14.5254 33.2206 8.96701 5.44047 70.0757
5001108 7.95389 14.403 14.5982 33.1037 8.90492 5.42651 70.0588
5001118 7.95389 14.403 14.5982 33.1037 8.90492 5.42651 70.0588
5001128 7.98031 14.3478 14.6813 33.0355 8.82349 5.43696 70.045
5001138 8.04197 14.3478 14.7749 32.8797 8.71253 5.41047 70.0443
5001152 8.04197 14.3478 14.7749 32.8797 8.71253 5.41047 70.0443
5001158 8.10363 14.3478 14.9205 32.7433 8.58121 5.39377 70.1152
5001178 8.10363 14.3386 15.0765 32.5289 8.45405 5.38845 70.0476
5001188 8.14767 14.3386 15.274 32.3049 8.28578 5.372 70.0651
5001205 8.14767 14.3386 15.274 32.3049 8.28578 5.372 70.0651
5001209 8.23575 14.2557 15.4092 32.0905 8.10863 5.35959 69.9912
5001231 8.29741 14.2373 15.6379 31.847 7.90812 5.34498 70.0196
5001232 8.29741 14.2373 15.6379 31.847 7.90812 5.34498 70.0196
5001240 8.35907 14.2004 15.8979 31.5158 7.66697 5.32793 69.9731
5001260 8.43834 14.0899 16.2618 31.0871 7.32604 5.32805 69.8771
5001269 8.56166 13.9794 16.6153 30.7754 6.99891 5.33011 69.9317
5001283 8.56166 13.9794 16.6153 30.7754 6.99891 5.33011 69.9317
5001290 8.64974 13.8689 17.1083 30.337 6.59192 5.34417 69.9639
5001300 8.73782 13.6939 17.6891 29.957 6.14462 5.39707 70.0778
5001319 8.83471 13.5742 18.1911 29.4504 5.70976 5.40309 70.0504
5001340 8.9228 13.3348 18.8998 28.9146 5.14712 5.47084 70.072
5001351 9.1342 13.1046 19.52 28.2911 4.5473 5.47589 70.0498
5001370 9.27513 12.8651 20.2386 27.6092 3.91517 5.50969 69.988
5001385 9.38083 12.6625 20.9473 26.9564 3.32066 5.54571 69.9471
5001391 9.38083 12.6625 20.9473 26.9564 3.32066 5.54571 69.9471
5001401 9.62746 12.3402 21.8332 26.3037 2.56161 5.59934 70.1046
5001412 9.62746 12.3402 21.8332 26.3037 2.56161 5.59934 70.1046
5001421 9.72435 12.1008 22.6601 25.6413 1.90996 5.66325 70.1265
5001437 9.84767 11.8889 23.4082 24.9691 1.28438 5.69944 70.1139
5001451 10.1119 11.6495 24.0284 24.3845 0.674656 5.69684 70.1743
5001464 10.2352 11.5022 24.6288 23.8292 0.166437 5.70991 70.1955
5001471 10.2352 11.5022 24.6288 23.8292 0.166437 5.70991 70.1955
5001481 10.3585 11.2627 25.1309 23.2544 -0.347197 5.73461 70.0066
5001492 10.3585 11.2627 25.1309 23.2544 -0.347197 5.73461 70.0066
5001501 10.4995 11.1062 25.7116 22.5822 -0.902264 5.72712 69.8995
5001517 10.5083 10.968 26.2629 22.1049 -1.32376 5.77531 69.8441
5001531 10.5083 10.968 26.2629 22.1049 -1.32376 5.77531 69.8441
5001532 10.7021 10.8207 26.6566 21.6178 -1.76234 5.74915 69.7972
5001543 10.7197 10.6365 27.1783 21.2281 -2.16213 5.8162 69.7626
5001554 10.7197 10.6365 27.1783 21.2281 -2.16213 5.8162 69.7626
5001567 10.8342 10.4155 27.6902 20.741 -2.64346 5.85128 69.6809
5001582 10.9839 10.2221 28.2316 20.3221 -3.10759 5.88039 69.7597
5001593 11.0896 10.0655 28.7533 19.9421 -3.52012 5.91411 69.8506
5001602 11.0896 10.0655 28.7533 19.9421 -3.52012 5.91411 69.8506
5001619 11.301 9.97346 29.2061 19.5135 -3.93614 5.88159 69.9941
5001628 11.4244 9.82611 29.5704 19.2309 -4.26029 5.89939 70.0518
5001646 11.5917 9.7156 30.0822 18.7925 -4.68987 5.89199 70.1821
5001653 11.5917 9.7156 30.0822 18.7925 -4.68987 5.89199 70.1821
5001672 11.7679 9.58667 30.5449 18.286 -5.14356 5.87222 70.1854
5001673 11.9705 9.45775 30.9878 17.7696 -5.60333 5.84077 70.1857
5001683 11.9705 9.45775 30.9878 17.7696 -5.60333 5.84077 70.1857
5001698 12.1731 9.37486 31.421 17.1851 -6.07024 5.78545 70.154
5001703 12.3404 9.25515 31.795 16.7144 -6.47808 5.75863 70.105
5001713 12.3404 9.25515 31.795 16.7144 -6.47808 5.75863 70.105
5001723 12.5078 9.19989 32.1691 16.3718 -6.79914 5.72963 70.2485
5001749 12.6135 9.03413 32.5333 15.8863 -7.21675 5.73136 70.0672
5001753 12.7016 9.02492 32.8581 15.4866 -7.50958 5.69811 70.0712
5001776 12.8425 8.96045 33.1633 15.1629 -7.80074 5.67309 70.1292
5001785 12.8777 8.79469 33.5472 14.8679 -8.11927 5.72342 70.0875
5001801 12.8777 8.79469 33.5472 14.8679 -8.11927 5.72342 70.0875
5001805 12.9834 8.73944 33.8425 14.5538 -8.39027 5.70602 70.1191
5001833 12.9834 8.67497 34 14.3158 -8.57197 5.71441 69.9742
5001837 12.9834 8.59209 34 14.1445 -8.69438 5.71621 69.72
5001845 12.9834 8.59209 34 14.1445 -8.69438 5.71621 69.72
5001863 13.0891 8.48158 34 13.9826 -8.85108 5.69605 69.5533
5001864 13.1596 8.48158 34 13.8399 -8.93702 5.65594 69.481
5001887 13.2917 8.46316 34 13.659 -9.06502 5.59776 69.4139
5001911 13.3269 8.3987 34 13.5638 -9.15161 5.59353 69.2895
5001916 13.415 8.40791 34 13.4306 -9.23294 5.5465 69.2535
5001926 13.415 8.40791 34 13.4306 -9.23294 5.5465 69.2535
5001937 13.4326 8.43554 34 13.4115 -9.23271 5.53048 69.2797
5001946 13.4591 8.3987 34 13.4211 -9.25222 5.53487 69.2788
5001963 13.4591 8.3987 34 13.4211 -9.25222 5.53487 69.2788
5001966 13.5031 8.43554 34 13.4306 -9.23933 5.51223 69.3692
5001976 13.5031 8.43554 34 13.4306 -9.23933 5.51223 69.3692
5001991 13.4415 8.43554 34 13.4782 -9.20182 5.53698 69.3551
5001997 13.4855 8.46316 34 13.4496 -9.21231 5.51187 69.3983
5002007 13.4855 8.46316 34 13.4496 -9.21231 5.51187 69.3983
5002017 13.4326 8.43554 34 13.4115 -9.23271 5.53048 69.2797
5002027 13.4415 8.46316 34 13.5258 -9.16477 5.53529 69.4304
5002041 13.4415 8.46316 34 13.5258 -9.16477 5.53529 69.4304
5002048 13.4415 8.49079 34 13.6209 -9.10444 5.54008 69.5532
5002057 13.4415 8.49079 34 13.6209 -9.10444 5.54008 69.5532
5002068 13.3974 8.52763 34 13.6685 -9.05301 5.54868 69.5936
5002077 13.3093 8.52763 34 13.7732 -8.98161 5.5889 69.6102
5002092 13.3093 8.52763 34 13.7732 -8.98161 5.5889 69.6102
5002097 13.3005 8.59209 34 13.9065 -8.88333 5.59045 69.7991
5002107 13.2212 8.61051 34 14.0493 -8.78689 5.6276 69.881
5002118 13.2212 8.61051 34 14.0493 -8.78689 5.6276 69.881
5002127 13.1772 8.68418 33.8425 14.2111 -8.62635 5.61944 69.915
5002143 13.1772 8.68418 33.8425 14.2111 -8.62635 5.61944 69.915
5002147 13.0363 8.74865 33.7145 14.3729 -8.45444 5.64655 69.8724
5002157 13.0891 8.79469 33.557 14.5918 -8.30314 5.6256 70.0327
5002170 13.0891 8.79469 33.557 14.5918 -8.30314 5.6256 70.0327
5002178 12.9218 8.88678 33.242 14.8108 -8.03959 5.63493 69.8613
5002193 12.9041 8.92362 32.9664 15.0963 -7.81603 5.63059 69.8905
5002200 12.9041 8.92362 32.9664 15.0963 -7.81603 5.63059 69.8905
5002208 12.8425 9.08017 32.612 15.4104 -7.493 5.5972 69.9451
5002218 12.8425 9.08017 32.612 15.4104 -7.493 5.5972 69.9451
5002228 12.6751 9.19068 32.3266 15.7436 -7.17352 5.62035 69.936
5002252 12.6487 9.35645 31.8639 16.0482 -6.83238 5.55806 69.9172
5002254 12.6487 9.35645 31.8639 16.0482 -6.83238 5.55806 69.9172
5002258 12.5254 9.55905 31.4013 16.4479 -6.40596 5.52626 69.9336
5002270 12.4725 9.74323 30.8796 16.8763 -5.97836 5.47509 69.9716
5002296 12.2259 9.96425 30.2693 17.3799 -5.42351 5.46806 69.8393
5002299 12.1466 9.96425 29.6786 17.867 -5.02249 5.47719 69.6566
5002310 12.1466 10.1392 29.6786 17.867 -4.94726 5.42588 69.8315
5002324 12.0497 10.3879 29.0093 18.3931 -4.39505 5.36185 69.84
5002356 11.9264 10.6457 28.2415 18.9289 -3.79726 5.29051 69.7425
5002359 11.671 10.9404 27.5032 19.5037 -3.13496 5.25627 69.6183
5002361 11.671 10.9404 27.5032 19.5037 -3.13496 5.25627 69.6183
5002372 11.5389 11.2535 26.7551 20.0103 -2.52671 5.16973 69.5578
5002388 11.5389 11.2535 26.7551 20.0103 -2.52671 5.16973 69.5578
5002391 11.4244 11.5022 26.0857 20.6046 -1.94037 5.12027 69.6168
5002401 11.3363 11.76 25.5246 21.1599 -1.41191 5.07049 69.7808
5002421 11.1689 11.9442 24.8749 21.7054 -0.85883 5.05081 69.6935
5002436 11.0896 12.1284 24.2252 22.2218 -0.3462 5.00157 69.665
5002443 11.0896 12.1284 24.2252 22.2218 -0.3462 5.00157 69.665
5002452 10.9311 12.4139 23.6838 22.7771 0.206292 4.9672 69.8059
5002462 10.8166 12.552 23.2212 23.1375 0.592223 4.94573 69.7273
5002475 10.8166 12.552 23.2212 23.1375 0.592223 4.94573 69.7273
5002488 10.7637 12.6994 22.8373 23.5077 0.933295 4.91675 69.8081
5002492 10.7637 12.6994 22.8373 23.5077 0.933295 4.91675 69.8081
5002502 10.6845 12.8559 22.4534 23.8585 1.28003 4.88993 69.8522
5002515 10.5876 12.9756 21.9809 24.2287 1.66104 4.8686 69.7727
5002522 10.5876 12.9756 21.9809 24.2287 1.66104 4.8686 69.7727
5002532 10.4819 13.1782 21.5773 24.7547 2.09802 4.85882 69.9921
5002542 10.4819 13.1782 21.5773 24.7547 2.09802 4.85882 69.9921
5002552 10.3674 13.3348 21.0556 25.1931 2.53927 4.83481 69.9508
5002567 10.2088 13.5005 20.6717 25.7095 2.97098 4.85197 70.0905
5002572 10.2088 13.5005 20.6717 25.7095 2.97098 4.85197 70.0905
5002582 10.0943 13.6755 20.0614 26.2258 3.47775 4.82122 70.057
5002592 9.97098 13.8689 19.4019 26.8298 4.04082 4.79333 70.0715
5002617 9.84767 14.1452 18.8112 27.3656 4.57886 4.74222 70.1697
5002622 9.84767 14.1452 18.8112 27.3656 4.57886 4.74222 70.1697
5002632 9.60104 14.2741 18.2994 27.9696 5.11209 4.78882 70.1441
5002643 9.4601 14.5228 17.7383 28.5249 5.64064 4.75763 70.2461
5002665 9.4601 14.5228 17.7383 28.5249 5.64064 4.75763 70.2461
5002666 9.26632 14.6885 17.187 28.9633 6.1331 4.74904 70.1052
5002672 9.19586 14.7806 16.6361 29.4991 6.578 4.74074 70.1117
5002691 9.19586 14.7806 16.6361 29.4991 6.578 4.74074 70.1117
5002693 9.01088 14.9648 16.1578 29.957 7.04558 4.73798 70.0905
5002716 8.8171 15.02 15.7003 30.4441 7.48295 4.78139 69.9816
5002723 8.64093 15.0661 15.3052 30.863 7.86509 4.82171 69.8753
5002733 8.64093 15.0661 15.3052 30.863 7.86509 4.82171 69.8753
5002752 8.49119 15.1674 14.9725 31.165 8.19128 4.83099 69.7961
5002753 8.41192 15.195 14.6502 31.5255 8.47577 4.85122 69.7826
5002763 8.41192 15.195 14.6502 31.5255 8.47577 4.85122 69.7826
5002781 8.36788 15.3424 14.3902 31.8275 8.72747 4.828 69.928
5002806 8.26218 15.3792 14.0887 32.0613 8.98737 4.83769 69.7914
5002820 8.20933 15.4805 13.8703 32.4315 9.22694 4.84601 69.9917
5002821 8.20933 15.4805 13.8703 32.4315 9.22694 4.84601 69.9917
5002831 8.14767 15.5173 13.6312 32.5582 9.41124 4.83671 69.8544
5002835 8.13005 15.545 13.5064 32.6361 9.50499 4.82705 69.8175
5002855 8.10363 15.5265 13.3713 32.6751 9.58958 4.82576 69.6765
5002865 8.10363 15.5265 13.3713 32.6751 9.58958 4.82576 69.6765
5002881 8.06839 15.5542 13.3297 32.8407 9.67032 4.846 69.7929
5002885 8.0772 15.5081 13.2985 32.8797 9.67989 4.85773 69.7635
5002896 8.0772 15.5081 13.2985 32.8797 9.67989 4.85773 69.7635
5002912 7.98031 15.5542 13.2361 33.055 9.80758 4.8886 69.8256
5002916 8.01554 15.5542 13.1529 33.1622 9.85475 4.88204 69.8848
5002942 7.95389 15.545 13.1841 33.2401 9.88483 4.91798 69.9231
5002946 7.95389 15.545 13.1841 33.2401 9.88483 4.91798 69.9231
5002956 7.96269 15.5081 13.2049 33.2304 9.85999 4.92756 69.9061
5002971 7.92746 15.5634 13.1945 33.2596 9.90101 4.92457 69.9449
5002976 7.92746 15.5634 13.1945 33.2596 9.90101 4.92457 69.9449
5002986 7.90104 15.4989 13.2465 33.1135 9.84264 4.93693 69.7599
5002998 7.98031 15.4897 13.3609 33.1232 9.7463 4.93482 69.9541
5003006 7.98031 15.4897 13.3609 33.1232 9.7463 4.93482 69.9541
5003023 7.94508 15.4621 13.4336 33.094 9.71524 4.959 69.9348
5003026 7.94508 15.4621 13.4336 33.094 9.71524 4.959 69.9348
5003036 7.87461 15.3792 13.6208 33.0453 9.62854 5.02266 69.9199
5003050 7.9715 15.4068 13.7872 32.9673 9.48753 4.99969 70.1328
5003058 7.9715 15.4068 13.7872 32.9673 9.48753 4.99969 70.1328
5003066 8.02435 15.2963 13.9119 32.8309 9.34544 5.01449 70.0635
5003079 8.01554 15.1766 14.1303 32.6264 9.16998 5.05323 69.9488
5003087 8.01554 15.1766 14.1303 32.6264 9.16998 5.05323 69.9488
5003107 8.05078 15.2042 14.3798 32.3438 8.97326 5.03053 69.9787
5003110 8.05078 15.2042 14.3798 32.3438 8.97326 5.03053 69.9787
5003117 8.11244 15.0293 14.619 32.1295 8.73777 5.06655 69.8902
5003134 8.17409 14.9924 14.8581 31.886 8.52739 5.0588 69.9106
5003147 8.21813 14.8727 15.0972 31.5547 8.28474 5.06744 69.7428
5003159 8.34145 14.8082 15.5339 31.204 7.91873 5.06276 69.8876
5003167 8.34145 14.8082 15.5339 31.204 7.91873 5.06276 69.8876
5003185 8.42953 14.7254 15.8875 30.8046 7.59265 5.05473 69.8469
5003188 8.42953 14.7254 15.8875 30.8046 7.59265 5.05473 69.8469
5003197 8.46477 14.6056 16.3657 30.3175 7.20127 5.07776 69.7536
5003212 8.65855 14.4859 16.9064 29.7719 6.69296 5.05577 69.8228
5003218 8.65855 14.4859 16.9064 29.7719 6.69296 5.05577 69.8228
5003228 8.87876 14.3478 17.3544 29.3238 6.2365 5.0322 69.9047
5003238 9.03731 14.2557 17.9056 28.9438 5.79414 5.03756 70.1424
5003265 9.10777 14.1544 18.26 28.486 5.45386 5.03166 70.0081
5003268 9.10777 14.1544 18.26 28.486 5.45386 5.03166 70.0081
5003278 9.22228 13.9886 18.7226 28.1255 5.05617 5.06085 70.059
5003292 9.27513 13.8873 19.2444 27.7163 4.66471 5.09067 70.1231
5003298 9.27513 13.8873 19.2444 27.7163 4.66471 5.09067 70.1231
5003320 9.41606 13.6295 19.6873 27.2682 4.21218 5.12349 70.001
5003321 9.53057 13.5098 20.2779 26.7713 3.73543 5.1382 70.0896
5003329 9.53057 13.5098 20.2779 26.7713 3.73543 5.1382 70.0896
5003348 9.61865 13.1966 20.8489 26.2745 3.2184 5.21344 69.9387
5003349 9.78601 13.0309 21.4592 25.7777 2.69912 5.22883 70.0537
5003360 9.78601 13.0309 21.4592 25.7777 2.69912 5.22883 70.0537
5003376 9.83886 12.7638 22.1679 25.3003 2.16114 5.32294 70.0709
5003379 9.83886 12.7638 22.1679 25.3003 2.16114 5.32294 70.0709
5003391 9.95337 12.4323 22.8471 24.7547 1.56689 5.40443 69.9875
5003403 10.0767 12.1468 23.4771 24.1799 0.99203 5.45937 69.8806
5003411 10.0767 12.1468 23.4771 24.1799 0.99203 5.45937 69.8806
5003427 10.2088 11.8889 24.2056 23.6441 0.39984 5.52242 69.9474
5003431 10.2088 11.8889 24.2056 23.6441 0.39984 5.52242 69.9474
5003441 10.244 11.5114 24.9143 23.0986 -0.196508 5.64528 69.7683
5003460 10.3497 11.3272 25.5345 22.6309 -0.689431 5.68891 69.8423
5003461 10.3497 11.3272 25.5345 22.6309 -0.689431 5.68891 69.8423
5003475 10.5523 11.0601 26.2727 22.1438 -1.29271 5.74135 70.029
5003482 10.6668 10.8023 26.9519 21.6275 -1.85193 5.80533 70.0486
5003491 10.6668 10.8023 26.9519 21.6275 -1.85193 5.80533 70.0486
5003501 10.7725 10.5813 27.4933 21.1696 -2.32623 5.85056 70.0168
5003511 10.7725 10.5813 27.4933 21.1696 -2.32623 5.85056 70.0168
5003524 10.9047 10.3694 28.0347 20.8287 -2.75933 5.9004 70.1375
5003532 11.0104 10.2313 28.4777 20.4974 -3.11867 5.92453 70.2168
5003552 11.1601 10.1208 29.0191 20.0103 -3.57277 5.91986 70.3103
5003562 11.2834 9.99187 29.3538 19.6499 -3.91137 5.91821 70.2789
5003573 11.2834 9.99187 29.3538 19.6499 -3.91137 5.91821 70.2789
5003582 11.4155 9.89057 29.6196 19.2309 -4.24535 5.88919 70.1566
5003597 11.4155 9.76165 29.8755 18.9971 -4.47263 5.93052 70.0498
5003602 11.4155 9.76165 29.8755 18.9971 -4.47263 5.93052 70.0498
5003612 11.5036 9.70639 30.1216 18.7049 -4.71681 5.91473 70.0365
5003622 11.5036 9.70639 30.1216 18.7049 -4.71681 5.91473 70.0365
5003635 11.5741 9.63272 30.2889 18.4029 -4.94554 5.89818 69.8986
5003644 11.7591 9.54063 30.6039 18.0911 -5.26156 5.87087 69.9948
5003652 11.7591 9.54063 30.6039 18.0911 -5.26156 5.87087 69.9948
5003669 11.9 9.43012 30.8205 17.7599 -5.55371 5.84682 69.9105
5003686 12.0938 9.37486 31.0961 17.2825 -5.91738 5.77904 69.8473
5003695 12.2347 9.34724 31.4505 17.0097 -6.18493 5.75616 70.0422
5003712 12.4461 9.26436 31.6474 16.6478 -6.4928 5.69627 70.0056
5003723 12.5254 9.2091 31.9427 16.3718 -6.74071 5.69173 70.049
5003744 12.7104 9.11701 32.2577 16.0101 -7.07644 5.65811 70.0951
5003769 12.8865 9.03413 32.4152 15.6674 -7.35686 5.60587 70.0032
5003773 13.0539 8.95125 32.7302 15.4009 -7.63939 5.58754 70.1362
5003794 13.2389 8.9052 32.9074 15.0106 -7.93239 5.51809 70.062
5003803 13.371 8.81311 33.0452 14.7346 -8.17152 5.48762 69.9639
5003825 13.371 8.81311 33.0452 14.7346 -8.17152 5.48762 69.9639
5003827 13.5031 8.77627 33.2322 14.3919 -8.42844 5.43851 69.9035
5003833 13.5031 8.77627 33.2322 14.3919 -8.42844 5.43851 69.9035
5003857 13.6088 8.66576 33.3503 14.1254 -8.66231 5.41958 69.7503
5003858 13.6881 8.59209 33.5866 13.9065 -8.87735 5.42032 69.7732
5003893 13.7585 8.54605 33.5964 13.7732 -8.98312 5.39619 69.6742
5003894 13.8554 8.55525 33.6456 13.659 -9.06787 5.3562 69.7153
5003910 13.9259 8.54605 33.7342 13.5733 -9.15051 5.33873 69.7795
5003915 13.9259 8.54605 33.7342 13.5733 -9.15051 5.33873 69.7795
5003925 14.0668 8.52763 33.8228 13.5924 -9.20217 5.31799 70.0097
5003935 14.0933 8.58288 33.8523 13.5448 -9.21105 5.29181 70.0733
5003944 14.0933 8.58288 33.8523 13.5448 -9.21105 5.29181 70.0733
5003961 14.1197 8.54605 33.8031 13.5067 -9.24253 5.28272 69.9756
5003965 14.1549 8.61051 33.6752 13.5162 -9.18543 5.23737 69.9568
5003974 14.1549 8.61051 33.6752 13.5162 -9.18543 5.23737 69.9568
5003987 14.2518 8.68418 33.6752 13.5353 -9.16209 5.19081 70.1464
5004012 14.2342 8.65656 33.3405 13.5258 -9.10029 5.1555 69.757
5004014 14.2694 8.82232 33.2814 13.64 -8.95851 5.10539 70.0131
5004024 14.2694 8.82232 33.2814 13.64 -8.95851 5.10539 70.0131
5004035 14.3487 8.83153 33.055 13.6495 -8.91564 5.04923 69.8847
5004047 14.3751 8.88678 32.8581 13.7732 -8.78956 5.01539 69.8933
5004059 14.3751 8.88678 32.8581 13.7732 -8.78956 5.01539 69.8933
5004065 14.3839 8.98808 32.5924 13.7828 -8.67615 4.94711 69.7471
5004074 14.3839 8.98808 32.5924 13.7828 -8.67615 4.94711 69.7471
5004084 14.4016 9.12622 32.366 13.8684 -8.51926 4.88229 69.7621
5004105 14.4104 9.19068 32.1494 14.0207 -8.36605 4.85209 69.7711
5004106 14.4104 9.19068 32.1494 14.0207 -8.36605 4.85209 69.7711
5004117 14.4104 9.36566 31.8639 14.1254 -8.16423 4.77601 69.7654
5004128 14.4808 9.54063 31.4111 14.2016 -7.95219 4.651 69.6341
5004136 14.4808 9.54063 31.4111 14.2016 -7.95219 4.651 69.6341
5004153 14.5601 9.78006 30.8796 14.411 -7.62904 4.51318 69.6307
5004167 14.6658 9.98267 30.3086 14.4681 -7.39057 4.34891 69.4252
5004177 14.7363 10.3234 29.6786 14.6965 -6.98316 4.17273 69.4348
5004187 14.7363 10.3234 29.6786 14.6965 -6.98316 4.17273 69.4348
5004203 14.7979 10.6826 29.1372 14.925 -6.58863 4.00798 69.5427
5004207 14.9124 10.9865 28.4974 15.0487 -6.25483 3.81177 69.445
5004237 14.9477 11.4101 27.9166 15.182 -5.857 3.6154 69.4563
5004240 14.9477 11.4101 27.9166 15.182 -5.857 3.6154 69.4563
5004248 14.9829 11.6863 27.3654 15.3914 -5.49886 3.47582 69.426
5004272 14.9653 12.0363 26.7452 15.6198 -5.06526 3.32223 69.3666
5004274 14.9653 12.0363 26.7452 15.6198 -5.06526 3.32223 69.3666
5004278 14.9653 12.3494 26.194 15.9339 -4.63546 3.19974 69.4426
5004305 14.8332 12.6809 25.6132 16.21 -4.1664 3.09554 69.3373
5004306 14.8332 12.6809 25.6132 16.21 -4.1664 3.09554 69.3373
5004310 14.7187 12.9296 24.9734 16.5622 -3.68594 3.01096 69.1837
5004320 14.5777 13.2795 24.491 16.9714 -3.18011 2.94402 69.3197
5004329 14.5777 13.2795 24.491 16.9714 -3.18011 2.94402 69.3197
5004340 14.4456 13.4913 23.9792 17.341 -2.74067 2.89859 69.2571
5004360 14.2959 13.7768 23.3393 17.8476 -2.16966 2.84023 69.2596
5004376 14.058 14.0439 22.8865 18.3347 -1.64663 2.83872 69.3231
5004380 14.058 14.0439 22.8865 18.3347 -1.64663 2.83872 69.3231
5004390 13.9435 14.3202 22.3353 18.8413 -1.12232 2.78934 69.4402
5004402 13.6617 14.4399 21.9415 19.4063 -0.632477 2.861 69.4493
5004429 13.4415 14.7346 21.3607 19.9324 -0.0486746 2.83229 69.4691
5004431 13.4415 14.7346 21.3607 19.9324 -0.0486746 2.83229 69.4691
5004441 13.1948 14.8819 20.7997 20.4585 0.485286 2.85168 69.3348
5004456 12.9658 15.1213 20.2583 21.043 1.05935 2.85655 69.3884
5004461 12.9658 15.1213 20.2583 21.043 1.05935 2.85655 69.3884
5004472 12.7896 15.3884 19.6184 21.686 1.67896 2.83374 69.4824
5004481 12.4813 15.6094 19.1164 22.4264 2.31141 2.89774 69.6335
5004507 12.2083 15.8304 18.6045 23.0596 2.89703 2.93217 69.7029
5004511 12.2083 15.8304 18.6045 23.0596 2.89703 2.93217 69.7029
5004521 11.8912 15.9686 18.1517 23.6928 3.44976 3.00945 69.7043
5004535 11.671 16.162 17.6497 24.3261 3.99928 3.03891 69.8087
5004551 11.442 16.3093 17.1181 25.0665 4.58123 3.09569 69.9359
5004563 11.1161 16.4106 16.5321 25.9627 5.25738 3.20648 70.0215
5004573 11.1161 16.4106 16.5321 25.9627 5.25738 3.20648 70.0215
5004590 10.8078 16.5672 15.8979 26.8298 5.95247 3.28505 70.1026
5004593 10.8078 16.5672 15.8979 26.8298 5.95247 3.28505 70.1026
5004602 10.4819 16.6685 15.3364 27.6287 6.58873 3.38329 70.1154
5004617 10.0943 16.6961 14.8165 28.4372 7.21778 3.52564 70.0442
5004632 9.74197 16.7053 14.2758 29.2458 7.83681 3.66042 69.969
5004644 9.38964 16.6961 13.8495 30.0252 8.39121 3.81409 69.9605
5004653 9.38964 16.6961 13.8495 30.0252 8.39121 3.81409 69.9605
5004672 9.07254 16.604 13.3817 30.6974 8.90511 3.95721 69.7556
5004676 9.07254 16.604 13.3817 30.6974 8.90511 3.95721 69.7556
5004683 8.66736 16.4382 13.1425 31.3989 9.34256 4.18592 69.647
5004700 8.41192 16.2817 12.8826 32.2269 9.74675 4.38717 69.8031
5004711 8.41192 16.2817 12.8826 32.2269 9.74675 4.38717 69.8031
5004727 8.13005 16.1159 12.6954 32.9673 10.1052 4.5953 69.9087
5004730 7.93627 15.8765 12.6538 33.7077 10.3293 4.81988 70.1743
5004733 7.93627 15.8765 12.6538 33.7077 10.3293 4.81988 70.1743
5004753 7.69845 15.7291 12.6018 34 10.5059 4.96382 70.0294
5004754 7.69845 15.7291 12.6018 34 10.5059 4.96382 70.0294
5004765 7.5399 15.6002 12.4043 34 10.6608 5.01784 69.5444
5004779 7.38135 15.4713 12.2691 34 10.7856 5.08157 69.1217
5004785 7.38135 15.4713 12.2691 34 10.7856 5.08157 69.1217
5004795 7.27565 15.3424 12.1235 34 10.8898 5.12911 68.7416
5004810 7.16114 15.1121 11.926 34 11.0064 5.20227 68.1993
5004825 6.99378 14.9372 11.9468 34 11.048 5.30716 67.8777
5004840 6.99378 14.9372 11.9468 34 11.048 5.30716 67.8777
5004845 6.9057 14.6977 11.9676 34 11.0345 5.40857 67.571
5004855 6.81762 14.5412 11.9884 34 11.038 5.48566 67.3472
5004875 6.75596 14.4307 12.1443 34 10.9646 5.56008 67.331
5004886 6.73834 14.2465 12.2067 34 10.9022 5.6306 67.1916
5004897 6.73834 14.2465 12.2067 34 10.9022 5.6306 67.1916
5004921 6.78238 14.1544 12.3315 34 10.7928 5.66271 67.2683
5004923 6.78238 14.1544 12.3315 34 10.7928 5.66271 67.2683
5004926 6.72953 14.0255 12.4771 34 10.7162 5.7388 67.2321
5004936 6.77358 13.8965 12.633 34 10.5827 5.78642 67.3031
5004947 6.77358 13.8965 12.633 34 10.5827 5.78642 67.3031
5004957 6.76477 13.786 12.7058 34 10.5252 5.83326 67.2566
5004971 6.77358 13.6018 12.8306 34 10.4149 5.90465 67.206
5004977 6.77358 13.6018 12.8306 34 10.4149 5.90465 67.206
5004987 6.76477 13.4729 12.9554 34 10.3258 5.96438 67.193
5004999 6.76477 13.4729 12.9554 34 10.3258 5.96438 67.193
5005007 6.71192 13.2703 13.2257 34 10.1672 6.08041 67.2079
5005022 6.72953 13.123 13.548 34 9.95743 6.16364 67.4005
5005027 6.72953 13.123 13.548 34 9.95743 6.16364 67.4005
5005037 6.73834 12.948 13.6624 34 9.85441 6.23086 67.3487
5005047 6.79119 12.8651 14.0367 34 9.61592 6.28877 67.693
5005057 6.79119 12.8651 14.0367 34 9.61592 6.28877 67.693
5005074 6.82643 12.6901 14.3798 34 9.38338 6.37661 67.8964
5005077 6.82643 12.6901 14.3798 34 9.38338 6.37661 67.8964
5005087 6.85285 12.5981 14.7229 34 9.1759 6.4406 68.1738
5005112 6.83523 12.4507 15.2324 34 8.89654 6.55586 68.5184
5005114 6.83523 12.4507 15.2324 34 8.89654 6.55586 68.5184
5005136 7.02021 12.331 15.981 34 8.4123 6.62676 69.3322
5005138 7.02021 12.331 15.981 34 8.4123 6.62676 69.3322
5005148 7.10829 12.1744 16.3761 34 8.14326 6.69551 69.6589
5005168 7.21399 12.1652 16.8128 34 7.88493 6.71735 70.1921
5005178 7.36373 12.1468 17.0984 33.7857 7.62498 6.68522 70.3946
5005196 7.36373 12.1468 17.0984 33.7857 7.62498 6.68522 70.3946
5005199 7.49585 12.0731 17.4627 33.2011 7.23158 6.64109 70.2328
5005208 7.68083 11.9534 17.9548 32.5484 6.72471 6.60182 70.1375
5005224 7.68083 11.9534 17.9548 32.5484 6.72471 6.60182 70.1375
5005228 7.83938 11.8889 18.4076 31.9834 6.28404 6.55939 70.1194
5005253 7.94508 11.7876 18.9195 31.4281 5.833 6.55281 70.0803
5005260 8.13886 11.7324 19.4511 30.7656 5.31763 6.49443 70.0879
5005270 8.13886 11.7324 19.4511 30.7656 5.31763 6.49443 70.0879
5005280 8.31503 11.6219 19.9334 30.1226 4.82052 6.45475 69.993
5005289 8.49119 11.4561 20.5043 29.4699 4.26567 6.44156 69.9216
5005309 8.49119 11.4561 20.5043 29.4699 4.26567 6.44156 69.9216
5005311 8.67617 11.364 21.0359 28.8854 3.76541 6.40662 69.9615
5005319 8.67617 11.364 21.0359 28.8854 3.76541 6.40662 69.9615
5005337 8.79067 11.2627 21.6167 28.3203 3.27749 6.40451 69.9904
5005339 9.01969 11.1246 22.1679 27.7261 2.73531 6.37146 70.0383
5005349 9.01969 11.1246 22.1679 27.7261 2.73531 6.37146 70.0383
5005365 9.1342 10.8944 22.7684 27.2 2.21145 6.41595 69.9969
5005373 9.27513 10.8115 23.2113 26.596 1.76017 6.37839 69.894
5005382 9.27513 10.8115 23.2113 26.596 1.76017 6.37839 69.894
5005393 9.39845 10.6826 23.7429 26.0017 1.26849 6.37237 69.8256
5005401 9.39845 10.6826 23.7429 26.0017 1.26849 6.37237 69.8256
5005420 9.51295 10.526 24.1859 25.5049 0.836101 6.37858 69.7297
5005421 9.69793 10.4615 24.6584 25.0567 0.415736 6.34472 69.8746
5005431 9.69793 10.4615 24.6584 25.0567 0.415736 6.34472 69.8746
5005447 9.75959 10.2681 25.1013 24.4917 -0.0362977 6.36993 69.6208
5005451 9.8829 10.1945 25.5541 24.0046 -0.444448 6.35044 69.6361
5005461 9.8829 10.1945 25.5541 24.0046 -0.444448 6.35044 69.6361
5005475 10.0062 10.0103 26.1546 23.459 -0.966358 6.37593 69.6301
5005481 10.0062 10.0103 26.1546 23.459 -0.966358 6.37593 69.6301
5005491 10.1824 9.92741 26.8535 23.0791 -1.4382 6.38673 70.0424
5005501 10.3938 9.84453 27.7591 22.6699 -1.99472 6.40835 70.6673
5005528 10.4554 9.7156 28.458 22.0854 -2.51451 6.44261 70.7144
5005531 10.658 9.54984 29.1865 21.384 -3.1474 6.43471 70.7783
5005541 10.658 9.54984 29.1865 21.384 -3.1474 6.43471 70.7783
5005553 10.8254 9.32882 29.9543 20.663 -3.81078 6.45664 70.7715
5005561 10.8254 9.32882 29.9543 20.663 -3.81078 6.45664 70.7715
5005579 10.8782 9.08017 30.6532 19.9616 -4.42435 6.51587 70.5732
5005581 11.0544 8.9052 31.3127 19.3186 -5.00888 6.51749 70.5909
5005591 11.0544 8.9052 31.3127 19.3186 -5.00888 6.51749 70.5909
5005605 11.1425 8.71181 31.7852 18.7633 -5.48719 6.5397 70.4028
5005611 11.1425 8.71181 31.7852 18.7633 -5.48719 6.5397 70.4028
5005622 11.2041 8.57367 32.238 18.247 -5.91403 6.5555 70.2628
5005631 11.3098 8.40791 32.7105 17.7209 -6.37624 6.5675 70.1492
5005641 11.3098 8.40791 32.7105 17.7209 -6.37624 6.5675 70.1492
5005658 11.4684 8.34344 33.1042 17.2436 -6.76515 6.52853 70.1596
5005661 11.6358 8.18689 33.5964 16.762 -7.22532 6.5265 70.1811
5005688 11.7591 8.03955 34 16.3432 -7.61895 6.53204 70.1418
5005692 11.7591 8.03955 34 16.3432 -7.61895 6.53204 70.1418
5005702 11.7943 7.82774 34 15.9339 -7.91903 6.53687 69.556
5005715 11.9264 7.73564 34 15.6198 -8.14461 6.48606 69.2819
5005725 11.9264 7.73564 34 15.6198 -8.14461 6.48606 69.2819
5005744 12.0145 7.5883 34 15.2867 -8.39734 6.46337 68.8895
5005745 12.1114 7.46858 34 14.9821 -8.62749 6.43259 68.5621
5005762 12.1731 7.41333 34 14.7632 -8.77715 6.40314 68.3495
5005774 12.2435 7.1831 34 14.5633 -9.00765 6.42816 67.9899
5005783 12.2435 7.1831 34 14.5633 -9.00765 6.42816 67.9899
5005799 12.2964 7.14626 34 14.4205 -9.11011 6.40507 67.8631
5005803 12.2964 7.14626 34 14.4205 -9.11011 6.40507 67.8631
5005813 12.3316 7.10022 34 14.1254 -9.29063 6.37095 67.5572
5005827 12.3845 7.09101 34 14.0873 -9.32692 6.35228 67.5628
5005843 12.4197 7.15547 34 13.9922 -9.35069 6.3086 67.5673
5005854 12.3933 7.20152 34 14.0207 -9.30668 6.30609 67.6155
5005881 12.4813 7.19231 34 14.0873 -9.29801 6.28983 67.761
5005884 12.4813 7.19231 34 14.0873 -9.29801 6.28983 67.761
5005895 12.4285 7.2844 34 14.173 -9.19598 6.28852 67.8859
5005908 12.4021 7.43174 34 14.2777 -9.0633 6.26411 68.1115
5005914 12.4021 7.43174 34 14.2777 -9.0633 6.26411 68.1115
5005935 12.3228 7.42254 34 14.2492 -9.06364 6.28812 67.9945
5005936 12.3228 7.42254 34 14.2492 -9.06364 6.28812 67.9945
5005946 12.2876 7.59751 34 14.4205 -8.88272 6.26642 68.3056
5005963 12.2699 7.6896 34 14.5633 -8.76244 6.2615 68.5228
5005974 12.3316 7.82774 34 14.6965 -8.6439 6.21672 68.8559
5005991 12.358 8.00271 34 15.0773 -8.38088 6.20334 69.438
5005995 12.358 8.00271 34 15.0773 -8.38088 6.20334 69.438
5006005 12.3845 8.20531 34 15.3057 -8.1813 6.16262 69.8955
5006021 12.3756 8.31582 33.9114 15.6769 -7.93055 6.16753 70.2798
5006028 12.3756 8.31582 33.9114 15.6769 -7.93055 6.16753 70.2798
5006036 12.3845 8.51842 33.4881 15.9149 -7.62357 6.0806 70.3059
5006046 12.3845 8.51842 33.4881 15.9149 -7.62357 6.0806 70.3059
5006056 12.3668 8.58288 33.0648 16.1338 -7.38256 6.04054 70.1484
5006073 12.3316 8.75785 32.612 16.3432 -7.08211 5.96743 70.0447
5006076 12.3316 8.75785 32.612 16.3432 -7.08211 5.96743 70.0447
5006086 12.3492 8.95125 32.0903 16.6097 -6.74229 5.8713 70.0005
5006102 12.2083 9.07096 31.608 16.9619 -6.36492 5.86063 69.8492
5006106 12.2083 9.07096 31.608 16.9619 -6.36492 5.86063 69.8492
5006116 12.2347 9.19989 31.1355 17.2338 -6.06574 5.78794 69.8039
5006130 12.2347 9.19989 31.1355 17.2338 -6.06574 5.78794 69.8039
5006136 12.1114 9.43933 30.6138 17.5943 -5.62352 5.73204 69.7588
5006157 12.1202 9.60509 30.1216 17.945 -5.26269 5.66139 69.7919
5006167 12.129 9.80769 29.6885 18.3444 -4.88262 5.59447 69.9696
5006186 12.0674 10.0563 29.1963 18.6562 -4.48408 5.51518 69.9762
5006197 11.9881 10.2037 28.7632 19.0848 -4.09152 5.49464 70.0398
5006216 11.9881 10.2037 28.7632 19.0848 -4.09152 5.49464 70.0398
5006218 11.8383 10.3971 28.2316 19.3771 -3.68528 5.44927 69.8441
5006228 11.7591 10.5905 27.6804 19.8642 -3.21372 5.40711 69.8941
5006246 11.7591 10.5905 27.6804 19.8642 -3.21372 5.40711 69.8941
5006249 11.6974 10.8667 27.1587 20.2831 -2.75199 5.33046 70.0059
5006258 11.5653 11.0325 26.6763 20.6728 -2.33617 5.30788 69.9469
5006278 11.5124 11.3088 26.0857 20.9553 -1.90878 5.20019 69.8622
5006289 11.5124 11.3088 26.0857 20.9553 -1.90878 5.20019 69.8622
5006302 11.3275 11.5022 25.4754 21.4034 -1.39769 5.17495 69.7085
5006309 11.1161 11.6956 25.0324 21.8711 -0.925866 5.18364 69.7151
5006329 11.1161 11.6956 25.0324 21.8711 -0.925866 5.18364 69.7151
5006330 11.0456 11.8429 24.5895 22.4361 -0.484899 5.17859 69.9141
5006340 10.9047 11.9258 24.1268 22.8745 -0.0827655 5.19195 69.8318
5006357 10.9047 11.9258 24.1268 22.8745 -0.0827655 5.19195 69.8318
5006359 10.7461 12.1284 23.6838 23.3226 0.365284 5.17995 69.881
5006370 10.7461 12.1284 23.6838 23.3226 0.365284 5.17995 69.881
5006385 10.6668 12.2573 23.2606 23.7415 0.740585 5.165 69.9263
5006390 10.5347 12.3126 22.8865 24.102 1.07157 5.18528 69.8358
5006399 10.5347 12.3126 22.8865 24.102 1.07157 5.18528 69.8358
5006414 10.3585 12.4599 22.4829 24.4819 1.46898 5.1903 69.7833
5006419 10.2264 12.5244 22.0498 25.0275 1.8888 5.22565 69.8281
5006429 10.2264 12.5244 22.0498 25.0275 1.8888 5.22565 69.8281
5006443 10.0679 12.727 21.6265 25.5146 2.34042 5.22184 69.936
5006452 10.0679 12.727 21.6265 25.5146 2.34042 5.22184 69.936
5006468 9.96218 12.8743 21.2032 25.8361 2.69943 5.19554 69.8758
5006471 9.8829 13.0125 20.7504 26.255 3.088 5.17378 69.9008
5006494 9.75959 13.1966 20.2484 26.6739 3.52847 5.14452 69.8786
5006501 9.60984 13.2611 19.8153 26.9857 3.88308 5.15201 69.6719
5006511 9.60984 13.2611 19.8153 26.9857 3.88308 5.15201 69.6719
5006521 9.5658 13.4729 19.4511 27.4923 4.26835 5.12373 69.9821
5006551 9.33679 13.6479 18.8998 27.9794 4.79169 5.13023 69.8639
5006553 9.27513 13.8873 18.4765 28.3301 5.16862 5.06885 69.9691
5006562 9.27513 13.8873 18.4765 28.3301 5.16862 5.06885 69.9691
5006584 9.15181 14.0899 17.9647 28.7685 5.62413 5.03568 69.9749
5006586 8.96684 14.2741 17.6595 29.1095 5.98387 5.04101 70.0099
5006591 8.96684 14.2741 17.6595 29.1095 5.98387 5.04101 70.0099
5006617 8.87876 14.5135 17.1575 29.4699 6.40791 4.97755 70.0197
5006621 8.74663 14.6793 16.5425 30.0252 6.93469 4.9594 69.9937
5006646 8.61451 14.9372 16.0018 30.5805 7.4505 4.92572 70.134
5006659 8.61451 14.9372 16.0018 30.5805 7.4505 4.92572 70.134
5006663 8.29741 15.3239 14.9205 31.6132 8.45244 4.89893 70.155
5006673 8.29741 15.3239 14.9205 31.6132 8.45244 4.89893 70.155
5006682 8.13005 15.5265 14.515 32.0418 8.87414 4.89228 70.2134
5006702 8.13005 15.5265 14.515 32.0418 8.87414 4.89228 70.2134
5006703 7.93627 15.545 14.0991 32.3244 9.239 4.92289 69.9047
5006712 7.82176 15.6831 13.7144 32.7238 9.60452 4.91828 69.943
5006728 7.82176 15.6831 13.7144 32.7238 9.60452 4.91828 69.943
5006732 7.72487 15.7291 13.5272 33.1135 9.84045 4.96186 70.0947
5006756 7.5399 15.6463 13.3401 33.4447 10.0795 5.05894 69.9709
5006763 7.49585 15.6555 13.0177 33.7857 10.338 5.07158 69.9547
5006783 7.49585 15.6555 13.0177 33.7857 10.338 5.07158 69.9547
5006784 7.38135 15.6923 12.8618 34 10.5273 5.10216 69.9354
5006793 7.29326 15.6463 12.7578 34 10.6156 5.12608 69.6973
5006813 7.16114 15.6278 12.6122 34 10.7543 5.14903 69.4012
5006825 7.09948 15.5358 12.4771 34 10.8371 5.17459 69.1123
5006844 7.09067 15.4345 12.4667 34 10.8263 5.2053 68.9918
5006855 7.09067 15.4345 12.4667 34 10.8263 5.2053 68.9918
5006865 6.96736 15.2687 12.4355 34 10.8727 5.28591 68.6715
5006877 6.93212 15.2411 12.3211 34 10.9454 5.2883 68.4943
5006892 6.93212 15.2411 12.3211 34 10.9454 5.2883 68.4943
5006894 6.91451 15.0845 12.3003 34 10.9334 5.33709 68.2993
5006905 6.93212 15.0108 12.1963 34 10.9637 5.33907 68.1393
5006921 6.93212 15.0108 12.1963 34 10.9637 5.33907 68.1393
5006925 6.96736 14.928 12.2483 34 10.9006 5.36066 68.1436
5006934 6.96736 14.928 12.2483 34 10.9006 5.36066 68.1436
5006948 6.88808 14.8543 12.3211 34 10.8888 5.41673 68.0635
5006954 6.89689 14.7438 12.4875 34 10.7736 5.4706 68.1281
5006974 6.89689 14.7438 12.4875 34 10.7736 5.4706 68.1281
5006976 7.0114 14.6425 12.6122 34 10.6271 5.48406 68.2661
5006987 7.04663 14.6793 12.7058 34 10.5678 5.4755 68.4317
5007004 7.04663 14.6793 12.7058 34 10.5678 5.4755 68.4317
5007006 7.15233 14.6517 12.8722 34 10.4211 5.4753 68.6762
5007016 7.15233 14.6517 12.8722 34 10.4211 5.4753 68.6762
5007031 7.18756 14.5872 13.0385 34 10.3036 5.50702 68.8133
5007036 7.21399 14.7254 13.1321 34 10.2717 5.47102 69.0715
5007057 7.30207 14.6793 13.2465 34 10.1588 5.47434 69.2279
5007066 7.35492 14.7898 13.4128 34 10.0715 5.44903 69.5576
5007083 7.35492 14.7898 13.4128 34 10.0715 5.44903 69.5576
5007086 7.48705 14.8174 13.5584 34 9.93803 5.42217 69.8629
5007096 7.48705 14.8174 13.5584 34 9.93803 5.42217 69.8629
5007115 7.51347 14.7898 13.7144 34 9.84108 5.44386 70.0177
5007116 7.61917 14.8082 13.8287 33.6785 9.66575 5.37928 69.9347
5007126 7.61917 14.8082 13.8287 33.6785 9.66575 5.37928 69.9347
5007145 7.74249 14.8819 13.9743 33.4739 9.50407 5.31388 70.0726
5007147 7.78653 14.9464 14.1303 33.2206 9.36386 5.26898 70.0838
5007156 7.78653 14.9464 14.1303 33.2206 9.36386 5.26898 70.0838
5007175 7.84819 14.9187 14.3278 32.9381 9.16742 5.24732 70.0329
5007177 7.84819 14.9187 14.3278 32.9381 9.16742 5.24732 70.0329
5007187 7.8658 14.9372 14.5046 32.6848 9.0194 5.22623 69.9924
5007205 7.90984 14.9924 14.7229 32.4705 8.8558 5.19814 70.0957
5007207 7.90984 14.9924 14.7229 32.4705 8.8558 5.19814 70.0957
5007217 8.05078 14.974 14.8165 32.1393 8.66168 5.1295 69.9805
5007231 8.09482 14.9832 15.1076 31.808 8.42532 5.10853 69.9937
5007237 8.09482 14.9832 15.1076 31.808 8.42532 5.10853 69.9937
5007247 8.17409 14.8911 15.3884 31.545 8.16932 5.11471 69.9986
5007257 8.17409 14.8911 15.3884 31.545 8.16932 5.11471 69.9986
5007267 8.26218 14.8451 15.7315 31.1748 7.86497 5.09881 70.0135
5007285 8.37668 14.7346 16.1058 30.8436 7.52763 5.10375 70.0606
5007291 8.37668 14.7346 16.1058 30.8436 7.52763 5.10375 70.0606
5007299 8.41192 14.6333 16.5009 30.3662 7.18279 5.1111 69.9123
5007314 8.53523 14.4859 16.9896 30.0252 6.77734 5.13886 70.036
5007318 8.53523 14.4859 16.9896 30.0252 6.77734 5.13886 70.036
5007328 8.6057 14.3662 17.443 29.5673 6.38908 5.15239 69.9822
5007343 8.6057 14.3662 17.443 29.5673 6.38908 5.15239 69.9822
5007348 8.67617 14.1268 17.9844 29.2166 5.95783 5.22786 70.0039
5007359 8.91399 13.8689 18.5356 28.7295 5.40658 5.24259 70.048
5007372 8.91399 13.8689 18.5356 28.7295 5.40658 5.24259 70.048
5007378 8.98446 13.6755 19.1656 28.184 4.89555 5.28991 70.0095
5007388 9.00207 13.39 19.9236 27.7943 4.37123 5.41843 70.1099
5007399 9.00207 13.39 19.9236 27.7943 4.37123 5.41843 70.1099
5007411 9.07254 13.0769 20.5043 27.3851 3.88539 5.51264 70.0389
5007426 9.07254 13.0769 20.5043 27.3851 3.88539 5.51264 70.0389
5007428 9.16062 12.7546 21.2426 26.8785 3.29467 5.61263 70.0364
5007438 9.2487 12.4507 21.9317 26.4401 2.75093 5.7097 70.0712
5007458 9.39845 12.2021 22.6896 25.9725 2.16562 5.77724 70.2626
5007470 9.4601 11.8429 23.2901 25.5049 1.63969 5.8829 70.098
5007487 9.4601 11.8429 23.2901 25.5049 1.63969 5.8829 70.098
5007489 9.55699 11.5666 24.0677 25.1249 1.09037 5.98774 70.3163
5007500 9.55699 11.5666 24.0677 25.1249 1.09037 5.98774 70.3163
5007519 9.61865 11.2535 24.7076 24.5599 0.530076 6.07259 70.1396
5007520 9.75959 10.922 25.3671 24.063 -0.0505134 6.15059 70.1117
5007547 9.83886 10.701 26.1349 23.459 -0.646538 6.214 70.1338
5007549 9.83886 10.701 26.1349 23.459 -0.646538 6.214 70.1338
5007560 9.90933 10.3971 26.7452 22.9232 -1.19124 6.29413 69.9748
5007576 10.0767 10.1853 27.3358 22.3484 -1.74378 6.30963 69.9462
5007590 10.244 10.0379 27.9166 21.7542 -2.27603 6.30186 69.9527
5007604 10.4554 9.87216 28.6057 21.1501 -2.86759 6.29854 70.0834
5007631 10.6492 9.7156 29.1766 20.5169 -3.42333 6.27949 70.0583
5007632 10.7902 9.58667 29.7771 19.9129 -3.94897 6.2754 70.0668
5007660 10.9487 9.37486 30.3382 19.3284 -4.49479 6.28867 69.9901
5007662 10.9487 9.37486 30.3382 19.3284 -4.49479 6.28867 69.9901
5007672 11.1953 9.21831 30.8008 18.7633 -5.00677 6.24852 69.9778
5007687 11.2658 9.12622 31.2733 18.2762 -5.41047 6.25326 69.9415
5007692 11.2658 9.12622 31.2733 18.2762 -5.41047 6.25326 69.9415
5007702 11.486 8.95125 31.7852 17.9352 -5.83853 6.26086 70.1577
5007714 11.5829 8.85915 32.2577 17.4384 -6.25303 6.25637 70.1381
5007732 11.7591 8.8039 32.6317 16.9905 -6.62405 6.21055 70.1852
5007742 11.7591 8.8039 32.6317 16.9905 -6.62405 6.21055 70.1852
5007752 11.7591 8.71181 32.9763 16.6954 -6.88887 6.24459 70.1425
5007767 11.9 8.6013 33.2224 16.3242 -7.20824 6.21973 70.0478
5007783 11.9 8.6013 33.2224 16.3242 -7.20824 6.21973 70.0478
5007792 11.9617 8.49079 33.6063 16.1624 -7.44604 6.26226 70.2211
5007793 11.9617 8.3987 33.8425 15.9054 -7.66675 6.2876 70.1082
5007820 11.9705 8.40791 34 15.8007 -7.75227 6.28869 70.179
5007823 11.9705 8.40791 34 15.8007 -7.75227 6.28869 70.179
5007833 12.0321 8.35265 34 15.6198 -7.87793 6.26424 70.0046
5007850 12.0145 8.33424 34 15.4866 -7.94502 6.25854 69.8353
5007853 12.0145 8.33424 34 15.4866 -7.94502 6.25854 69.8353
5007863 11.9969 8.33424 34 15.3533 -8.00371 6.2472 69.6844
5007880 11.9793 8.28819 34 15.3343 -8.03027 6.26424 69.6017
5007883 11.9793 8.28819 34 15.3343 -8.03027 6.26424 69.6017
5007893 12.0233 8.30661 34 15.2676 -8.06389 6.23679 69.5976
5007908 12.0233 8.30661 34 15.2676 -8.06389 6.23679 69.5976
5007913 11.9528 8.18689 34 15.2676 -8.10372 6.29499 69.4074
5007923 11.9264 8.15926 34 15.1534 -8.16509 6.29725 69.2391
5007941 11.9264 8.15926 34 15.1534 -8.16509 6.29725 69.2391
5007944 11.9617 8.12243 34 15.0582 -8.237 6.28576 69.1423
5007970 11.9176 8.01192 34 15.0297 -8.29332 6.32986 68.9592
5007972 11.9176 8.01192 34 15.0297 -8.29332 6.32986 68.9592
5007976 11.9088 8.02113 34 14.9726 -8.31433 6.32255 68.9025
5008003 11.9088 8.02113 34 14.9726 -8.31433 6.32255 68.9025
5008004 11.8824 7.97508 34 14.9345 -8.34865 6.34021 68.792
5008006 11.8295 7.97508 34 14.925 -8.34047 6.35542 68.7296
5008015 11.8295 7.97508 34 14.925 -8.34047 6.35542 68.7296
5008032 11.8207 7.94745 34 14.9535 -8.33788 6.37033 68.7217
5008034 11.7415 7.93824 34 14.9821 -8.30925 6.40146 68.6618
5008047 11.7415 7.93824 34 14.9821 -8.30925 6.40146 68.6618
5008060 11.7503 7.95666 34 14.944 -8.32093 6.3882 68.6509
5008064 11.7503 7.95666 34 14.944 -8.32093 6.3882 68.6509
5008076 11.7679 7.93824 34 14.8679 -8.37117 6.37889 68.574
5008087 11.7855 7.90141 34 14.9059 -8.37483 6.38967 68.5928
5008094 11.7855 7.90141 34 14.9059 -8.37483 6.38967 68.5928
5008114 11.7415 7.92904 34 14.9821 -8.31372 6.40433 68.6526
5008116 11.7855 7.94745 34 15.0202 -8.29704 6.38965 68.7531
5008125 11.7855 7.94745 34 15.0202 -8.29704 6.38965 68.7531
5008142 11.8383 7.94745 34 15.0963 -8.27304 6.38276 68.8821
5008145 11.8383 7.94745 34 15.0963 -8.27304 6.38276 68.8821
5008156 11.8207 7.98429 34 15.1629 -8.21885 6.38512 68.9679
5008169 11.8736 8.03955 34 15.1725 -8.20055 6.35285 69.0856
5008181 11.8736 8.03955 34 15.1725 -8.20055 6.35285 69.0856
5008195 11.9088 8.13164 34 15.3438 -8.08303 6.33501 69.3842
5008196 11.9088 8.13164 34 15.3438 -8.08303 6.33501 69.3842
5008206 11.9352 8.16847 34 15.4009 -8.04474 6.32272 69.5046
5008223 11.9881 8.26977 34 15.5532 -7.93754 6.29457 69.811
5008226 11.9881 8.26977 34 15.5532 -7.93754 6.29457 69.811
5008236 12.0057 8.31582 33.9606 15.6103 -7.88361 6.27738 69.8924
5008250 12.0321 8.47237 33.5964 15.8483 -7.61549 6.20597 69.9492
5008257 12.0321 8.47237 33.5964 15.8483 -7.61549 6.20597 69.9492
5008266 12.085 8.55525 33.2814 16.0672 -7.40973 6.15278 69.9888
5008277 12.085 8.55525 33.2814 16.0672 -7.40973 6.15278 69.9888
5008286 11.9969 8.7026 32.9566 16.3147 -7.12305 6.12508 69.9707
5008305 11.9617 8.88678 32.6022 16.5336 -6.8385 6.06294 69.9842
5008316 11.9088 9.02492 32.238 16.8763 -6.51183 6.03454 70.048
5008337 11.8736 9.18147 31.7556 17.1169 -6.196 5.96707 69.9276
5008339 11.8736 9.18147 31.7556 17.1169 -6.196 5.96707 69.9276
5008347 11.7679 9.28277 31.3422 17.5456 -5.82003 5.97035 69.9384
5008369 11.7679 9.28277 31.3422 17.5456 -5.82003 5.97035 69.9384
5008371 11.6622 9.46696 30.7811 17.9645 -5.371 5.92842 69.8747
5008377 11.5477 9.7156 30.1807 18.3834 -4.87966 5.86463 69.8273
5008400 11.5477 9.7156 30.1807 18.3834 -4.87966 5.86463 69.8273
5008402 11.3627 9.89057 29.5704 19.0264 -4.30069 5.8719 69.85
5008408 11.2306 10.13 28.8222 19.6109 -3.69371 5.81841 69.7937
5008425 11.2306 10.13 28.8222 19.6109 -3.69371 5.81841 69.7937
5008428 11.028 10.4707 28.1332 20.2246 -3.0297 5.76734 69.8565
5008438 10.8342 10.6457 27.4638 20.7799 -2.46414 5.75784 69.7237
5008450 10.8342 10.6457 27.4638 20.7799 -2.46414 5.75784 69.7237
5008460 10.7109 11.0049 26.7452 21.384 -1.81376 5.67259 69.8449
5008479 10.7109 11.0049 26.7452 21.384 -1.81376 5.67259 69.8449
5008480 10.5788 11.318 26.0069 21.9977 -1.16951 5.60244 69.9014
5008488 10.4202 11.5758 25.2785 22.6115 -0.540677 5.55775 69.886
5008507 10.4202 11.5758 25.2785 22.6115 -0.540677 5.55775 69.886
5008508 10.2617 11.8982 24.5304 23.2642 0.132331 5.49675 69.9544
5008518 10.1119 12.156 23.7331 23.9169 0.796628 5.4454 69.9179
5008538 9.94456 12.4783 22.9653 24.5989 1.48862 5.38841 69.987
5008563 9.94456 12.4783 22.9653 24.5989 1.48862 5.38841 69.987
5008564 9.80363 12.773 22.0793 25.2516 2.19635 5.3115 69.9075
5008598 9.60984 13.1322 21.2426 25.914 2.93058 5.23929 69.8987
5008600 9.60984 13.1322 21.2426 25.914 2.93058 5.23929 69.8987
5008601 9.51295 13.4361 20.3764 26.6447 3.64136 5.1605 69.9701
5008602 9.31917 13.8505 19.5298 27.3266 4.40127 5.07385 70.0261
5008610 9.31917 13.8505 19.5298 27.3266 4.40127 5.07385 70.0261
5008633 9.12539 14.1912 18.6439 28.0573 5.16985 5.00971 70.0178
5008640 8.97565 14.4767 17.945 28.6126 5.77371 4.95042 70.0099
5008666 8.76425 14.7714 17.2559 29.1484 6.39821 4.90464 69.94
5008668 8.76425 14.7714 17.2559 29.1484 6.39821 4.90464 69.94
5008672 8.66736 15.02 16.5425 29.7817 6.99593 4.84994 70.0116
5008681 8.49119 15.2595 15.9291 30.2785 7.54655 4.81506 69.9582
5008694 8.49119 15.2595 15.9291 30.2785 7.54655 4.81506 69.9582
5008701 8.38549 15.4068 15.4092 30.6487 7.96736 4.78142 69.8502
5008722 8.25337 15.5358 14.8997 31.0287 8.39508 4.76334 69.7175
5008732 8.21813 15.6923 14.5358 31.467 8.72704 4.73996 69.9133
5008752 8.05078 15.8673 14.1199 31.8567 9.13995 4.73396 69.8947
5008762 7.9715 15.9502 13.8599 32.2269 9.40802 4.74911 70.0085
5008781 7.9715 15.9502 13.8599 32.2269 9.40802 4.74911 70.0085
5008782 7.88342 16.0791 13.496 32.5582 9.73261 4.7328 70.0167
5008814 7.88342 16.0791 13.496 32.5582 9.73261 4.7328 70.0167
5008816 7.6544 16.1067 13.1633 32.9284 10.0989 4.7952 69.8528
5008817 7.63679 16.1896 13.0073 33.357 10.2943 4.81644 70.1907
5008822 7.63679 16.1896 13.0073 33.357 10.2943 4.81644 70.1907
5008847 7.46943 16.1436 12.8202 33.7175 10.5385 4.90188 70.1506
5008848 7.30207 16.1436 12.6018 33.9805 10.7886 4.95589 70.028
5008853 7.30207 16.1436 12.6018 33.9805 10.7886 4.95589 70.028
5008863 7.28446 16.0607 12.4667 34 10.854 4.96797 69.8118
5008876 7.28446 16.0607 12.4667 34 10.854 4.96797 69.8118
5008883 7.09948 15.9962 12.3731 34 10.9847 5.02616 69.4688
5008893 7.06425 15.8949 12.2275 34 11.0582 5.04469 69.1867
5008904 7.06425 15.8949 12.2275 34 11.0582 5.04469 69.1867
5008913 6.97617 15.8581 12.1443 34 11.1403 5.06899 68.9786
5008931 6.83523 15.6647 12.1131 34 11.1919 5.16226 68.6131
5008933 6.83523 15.6647 12.1131 34 11.1919 5.16226 68.6131
5008943 6.81762 15.6186 12.0716 34 11.2139 5.17502 68.5078
5008963 6.76477 15.545 12.03 34 11.249 5.2064 68.3397
5008975 6.70311 15.4897 11.9676 34 11.3039 5.23209 68.1604
5009012 6.66788 15.3608 11.8116 34 11.3801 5.25859 67.8403
5009013 6.52694 15.3608 11.8012 34 11.4615 5.29928 67.6889
5009015 6.52694 15.3608 11.8012 34 11.4615 5.29928 67.6889
5009025 6.57098 15.3608 11.77 34 11.4546 5.2816 67.7018
5009038 6.57098 15.3608 11.77 34 11.4546 5.2816 67.7018
5009046 6.49171 15.195 11.8428 34 11.4248 5.36567 67.5295
5009056 6.51813 15.0845 11.9052 34 11.3547 5.39994 67.5078
5009066 6.51813 15.0845 11.9052 34 11.3547 5.39994 67.5078
5009077 6.51813 15.0293 11.9364 34 11.3267 5.42108 67.4838
5009091 6.57098 15.0108 12.03 34 11.2443 5.42394 67.6118
5009096 6.57098 15.0108 12.03 34 11.2443 5.42394 67.6118
5009106 6.62383 14.9464 12.0508 34 11.1917 5.43039 67.621
5009116 6.62383 14.9464 12.2587 34 11.0808 5.45973 67.8289
5009126 6.62383 14.8543 12.2587 34 11.0618 5.48755 67.7368
5009142 6.67668 14.8635 12.3627 34 10.9804 5.48339 67.9029
5009146 6.67668 14.8635 12.3627 34 10.9804 5.48339 67.9029
5009156 6.68549 14.8359 12.5291 34 10.8821 5.51232 68.0504
5009169 6.77358 14.7714 12.7786 34 10.6915 5.53988 68.3236
5009177 6.77358 14.7714 12.7786 34 10.6915 5.53988 68.3236
5009186 6.82643 14.6425 13.0489 34 10.4962 5.60001 68.5178
5009204 6.82643 14.6425 13.0489 34 10.4962 5.60001 68.5178
5009224 6.87047 14.5135 13.4128 34 10.2585 5.67515 68.7969
5009226 6.93212 14.4491 13.7144 34 10.0595 5.71668 69.0956
5009227 6.93212 14.4491 13.7144 34 10.0595 5.71668 69.0956
5009237 7.02902 14.3478 14.1407 34 9.77383 5.77492 69.5175
5009256 7.10829 14.2925 14.4526 34 9.56705 5.80898 69.8534
5009257 7.10829 14.2925 14.4526 34 9.56705 5.80898 69.8534
5009267 7.15233 14.1912 14.8061 34 9.34886 5.87228 70.1497
5009285 7.15233 14.1912 14.8061 34 9.34886 5.87228 70.1497
5009287 7.27565 13.9978 15.2012 33.7662 9.00016 5.91406 70.2409
5009297 7.40777 13.961 15.6483 33.2401 8.59165 5.87548 70.2572
5009313 7.40777 13.961 15.6483 33.2401 8.59165 5.87548 70.2572
5009317 7.50466 13.8044 16.137 32.7725 8.16567 5.89596 70.2186
5009327 7.61917 13.6018 16.5633 32.3146 7.75118 5.91811 70.0989
5009347 7.78653 13.5098 17.0787 31.8665 7.30015 5.9044 70.2415
5009369 7.78653 13.5098 17.0787 31.8665 7.30015 5.9044 70.2415
5009370 7.98912 13.4269 17.4725 31.3112 6.86486 5.84782 70.1997
5009378 8.20052 13.3532 17.8662 30.7851 6.43527 5.78967 70.2051
5009397 8.20052 13.3532 17.8662 30.7851 6.43527 5.78967 70.2051
5009399 8.46477 13.2427 18.1616 30.1713 5.99216 5.70217 70.0404
5009409 8.68497 13.123 18.6144 29.5479 5.49216 5.64975 69.9702
5009428 8.94922 13.0217 19.0672 28.9828 4.99426 5.58671 70.0209
5009440 9.1342 12.9019 19.4708 28.4372 4.55157 5.5484 69.9442
5009460 9.1342 12.9019 19.4708 28.4372 4.55157 5.5484 69.9442
5009461 9.33679 12.6349 19.9925 27.8819 4.00437 5.56282 69.8461
5009488 9.53057 12.4691 20.6126 27.2487 3.42632 5.55281 69.861
5009492 9.73316 12.2757 21.154 26.8493 2.94157 5.56926 70.0122
5009517 9.8829 12.0823 21.7446 26.3427 2.42585 5.59339 70.0526
5009521 9.97098 11.8337 22.2762 25.8946 1.95821 5.65186 69.9754
5009531 9.97098 11.8337 22.2762 25.8946 1.95821 5.65186 69.9754
5009546 10.0943 11.7232 22.8471 25.5049 1.52724 5.67223 70.1695
5009561 10.1207 11.4285 23.4476 24.9983 1.02095 5.76397 69.9951
5009574 10.1736 11.2443 24.0973 24.5989 0.560626 5.83583 70.114
5009581 10.1736 11.2443 24.0973 24.5989 0.560626 5.83583 70.114
5009591 10.2352 11.0141 24.7371 24.2384 0.0997245 5.92231 70.2248
5009604 10.2881 10.7654 25.1998 23.7903 -0.332704 5.98267 70.0435
5009632 10.2881 10.7654 25.1998 23.7903 -0.332704 5.98267 70.0435
5009633 10.244 10.5628 25.7904 23.498 -0.703898 6.09489 70.0953
5009634 10.244 10.5628 25.7904 23.498 -0.703898 6.09489 70.0953
5009641 10.2176 10.3418 26.2629 23.0888 -1.09062 6.17761 69.9111
5009659 10.2352 10.2037 26.8141 22.6115 -1.51515 6.22348 69.8645
5009662 10.2352 10.2037 26.8141 22.6115 -1.51515 6.22348 69.8645
5009672 10.3409 10.0471 27.3555 22.1926 -1.95063 6.25428 69.9361
5009689 10.3938 9.85374 28.0052 21.7834 -2.41371 6.32696 70.0361
5009696 10.3938 9.85374 28.0052 21.7834 -2.41371 6.32696 70.0361
5009702 10.4202 9.75244 28.5761 21.2768 -2.84436 6.35774 70.0256
5009722 10.4202 9.75244 28.5761 21.2768 -2.84436 6.35774 70.0256
5009723 10.4907 9.52221 29.1077 20.9553 -3.25392 6.43234 70.0759
5009732 10.5699 9.31961 29.6983 20.4974 -3.72804 6.48628 70.0853
5009753 10.5699 9.31961 29.6983 20.4974 -3.72804 6.48628 70.0853
5009755 10.8518 9.22752 30.2102 19.9713 -4.2211 6.42652 70.2609
5009762 10.9751 9.06176 30.7713 19.3771 -4.74016 6.43543 70.1852
5009784 11.257 8.85915 31.4406 18.7438 -5.36789 6.41566 70.3006
5009793 11.257 8.85915 31.4406 18.7438 -5.36789 6.41566 70.3006
5009815 11.3891 8.69339 31.982 18.1496 -5.88493 6.41946 70.2141
5009817 11.5565 8.59209 32.4349 17.6917 -6.29937 6.3987 70.2751
5009823 11.5565 8.59209 32.4349 17.6917 -6.29937 6.3987 70.2751
5009846 11.715 8.49079 32.868 17.1364 -6.74967 6.36629 70.2102
5009847 11.8383 8.30661 33.3503 16.762 -7.1594 6.39807 70.2573
5009862 11.8383 8.30661 33.3503 16.762 -7.1594 6.39807 70.2573
5009863 11.8471 8.15005 33.7933 16.2861 -7.56467 6.43914 70.0766
5009878 11.8471 8.15005 33.7933 16.2861 -7.56467 6.43914 70.0766
5009883 11.9264 7.92904 34 15.8483 -7.94403 6.45435 69.7037
5009893 12.129 7.87378 34 15.5246 -8.17325 6.36911 69.5274
5009907 12.129 7.87378 34 15.5246 -8.17325 6.36911 69.5274
5009915 12.1731 7.76327 34 15.1915 -8.39687 6.34806 69.1278
5009934 12.2435 7.68039 34 14.8964 -8.59728 6.31481 68.8203
5009936 12.2435 7.68039 34 14.8964 -8.59728 6.31481 68.8203
5009944 12.2788 7.59751 34 14.7251 -8.73021 6.30793 68.6013
5009962 12.2788 7.59751 34 14.7251 -8.73021 6.30793 68.6013
5009965 12.358 7.53304 34 14.5157 -8.8841 6.27671 68.4068
5009975 12.4549 7.487 34 14.3919 -8.99115 6.24508 68.3339
5009992 12.4549 7.487 34 14.3919 -8.99115 6.24508 68.3339
5009994 12.4725 7.49621 34 14.2777 -9.04758 6.22208 68.2465
5010006 12.499 7.43174 34 14.2111 -9.11927 6.22534 68.1418
5010019 12.499 7.43174 34 14.2111 -9.11927 6.22534 68.1418
5010036 12.5518 7.42254 34 14.0969 -9.19347 6.19701 68.0712
5010045 12.5518 7.42254 34 14.0969 -9.19347 6.19701 68.0712
5010046 12.5518 7.45016 34 14.0017 -9.22744 6.17607 68.0037
5010056 12.5782 7.47779 34 13.9446 -9.2484 6.15183 68.0006
5010076 12.6135 7.5883 34 13.9065 -9.22013 6.10162 68.1083
5010086 12.6487 7.60672 34 13.9446 -9.19993 6.08999 68.2
5010107 12.6487 7.60672 34 13.9446 -9.19993 6.08999 68.2
5010108 12.6311 7.62514 34 13.9731 -9.17231 6.09347 68.2293
5010138 12.6663 7.64355 34 14.0112 -9.15222 6.08187 68.3211
5010140 12.7104 7.80932 34 14.192 -8.9901 6.04097 68.7117
5010146 12.7104 7.80932 34 14.192 -8.9901 6.04097 68.7117
5010171 12.6751 7.83694 34 14.3443 -8.89308 6.06311 68.8564
5010172 12.6399 7.93824 34 14.4395 -8.78837 6.05527 69.0177
5010176 12.6399 7.93824 34 14.4395 -8.78837 6.05527 69.0177
5010186 12.6399 8.00271 34 14.6489 -8.65483 6.06272 69.2915
5010199 12.6399 8.00271 34 14.6489 -8.65483 6.06272 69.2915
5010206 12.587 8.10401 34 14.8298 -8.50581 6.07129 69.5208
5010216 12.6135 8.25135 34 15.0106 -8.35468 6.04199 69.8755
5010230 12.6135 8.25135 34 15.0106 -8.35468 6.04199 69.8755
5010237 12.6663 8.36186 33.8523 15.2296 -8.17544 6.00207 70.1101
5010253 12.6663 8.36186 33.8523 15.2296 -8.17544 6.00207 70.1101
5010256 12.543 8.49079 33.5177 15.4199 -7.91393 5.98183 69.9714
5010267 12.5342 8.58288 33.0452 15.7436 -7.60056 5.93763 69.9058
5010280 12.5342 8.58288 33.0452 15.7436 -7.60056 5.93763 69.9058
5010287 12.4637 8.73023 32.6022 15.972 -7.29692 5.88669 69.7682
5010306 12.4725 8.96045 32.2577 16.3337 -6.93903 5.81763 70.0244
5010307 12.4725 8.96045 32.2577 16.3337 -6.93903 5.81763 70.0244
5010317 12.3845 9.08017 31.8738 16.6478 -6.61925 5.79906 69.9862
5010332 12.3845 9.08017 31.8738 16.6478 -6.61925 5.79906 69.9862
5010337 12.2435 9.19068 31.4308 16.9619 -6.27327 5.79114 69.8269
5010347 12.2347 9.31961 30.978 17.2923 -5.94376 5.73922 69.8246
5010358 12.2347 9.31961 30.978 17.2923 -5.94376 5.73922 69.8246
5010367 12.1466 9.44854 30.5843 17.7014 -5.5741 5.72915 69.8809
5010385 12.0585 9.63272 30.1413 18.1496 -5.15044 5.70137 69.9821
5010397 11.9528 9.7156 29.7771 18.5587 -4.80527 5.71409 70.0043
5010417 11.7767 9.78006 29.275 18.9874 -4.3986 5.73747 69.8192
5010436 11.7238 9.89057 28.7336 19.494 -3.96356 5.71573 69.842
5010438 11.7238 9.89057 28.7336 19.494 -3.96356 5.71573 69.842
5010448 11.5917 9.97346 28.2218 20.0395 -3.50887 5.73482 69.8265
5010466 11.486 10.1484 27.641 20.5461 -3.01928 5.7044 69.8216
5010468 11.486 10.1484 27.641 20.5461 -3.01928 5.7044 69.8216
5010495 11.4155 10.3879 27.1291 21.1794 -2.48796 5.6706 70.1119
5010497 11.4155 10.3879 27.1291 21.1794 -2.48796 5.6706 70.1119
5010501 11.1777 10.5352 26.6074 21.6178 -2.01326 5.68622 69.9381
5010508 11.0896 10.7286 26.0266 22.0562 -1.54916 5.63609 69.901
5010528 10.9663 10.922 25.3868 22.6309 -1.00141 5.60669 69.9061
5010538 10.7549 11.1798 24.7765 23.1862 -0.416794 5.5856 69.8975
5010558 10.6404 11.3824 24.1563 23.7513 0.120467 5.55225 69.9305
5010570 10.6404 11.3824 24.1563 23.7513 0.120467 5.55225 69.9305
5010586 10.4731 11.6219 23.5657 24.1994 0.637895 5.51178 69.8601
5010589 10.3585 11.9166 23.044 24.6183 1.1197 5.44498 69.9375
5010615 10.1912 12.156 22.4042 25.047 1.65034 5.39496 69.7984
5010620 10.0855 12.4231 21.7151 25.612 2.23185 5.33078 69.8357
5010630 10.0855 12.4231 21.7151 25.612 2.23185 5.33078 69.8357
5010642 9.94456 12.8191 21.0457 26.1576 2.85362 5.23955 69.967
5010649 9.94456 12.8191 21.0457 26.1576 2.85362 5.23955 69.967
5010670 9.86528 13.0953 20.3862 26.6155 3.38015 5.15443 69.9623
5010671 9.71554 13.4729 19.7759 27.1415 3.9665 5.0771 70.1059
5010702 9.52176 13.7676 19.0573 27.6968 4.59906 5.02505 70.0435
5010703 9.38083 14.0715 18.2895 28.4178 5.28043 4.97186 70.1596
5010711 9.38083 14.0715 18.2895 28.4178 5.28043 4.97186 70.1596
5010735 9.1342 14.3938 17.5414 29.0315 5.97344 4.93108 70.1009
5010736 9.1342 14.3938 17.5414 29.0315 5.97344 4.93108 70.1009
5010741 8.86114 14.5412 16.8544 29.5381 6.57774 4.94096 69.7949
5010751 8.72021 14.8082 16.293 30.1811 7.13408 4.91674 70.0025
5010768 8.72021 14.8082 16.293 30.1811 7.13408 4.91674 70.0025
5010772 8.52642 14.9924 15.7211 30.7559 7.6793 4.91989 69.9958
5010781 8.31503 15.1674 15.1492 31.3209 8.22845 4.92929 69.9526
5010797 8.31503 15.1674 15.1492 31.3209 8.22845 4.92929 69.9526
5010801 8.17409 15.3424 14.567 31.847 8.74022 4.91149 69.9304
5010811 8.17409 15.3424 14.567 31.847 8.74022 4.91149 69.9304
5010826 7.93627 15.4437 14.1823 32.3438 9.17981 4.96656 69.906
5010831 7.76891 15.6094 13.8183 32.792 9.57803 4.97909 69.9887
5010841 7.76891 15.6094 13.8183 32.792 9.57803 4.97909 69.9887
5010858 7.59275 15.7476 13.392 33.1427 9.98406 4.97912 69.875
5010862 7.59275 15.7476 13.1113 33.1427 10.1252 4.9387 69.5943
5010871 7.46943 15.9041 13.1113 33.4934 10.2949 4.97965 69.9783
5010888 7.36373 15.9686 12.737 33.8928 10.6346 4.99503 69.9622
5010891 7.36373 15.9686 12.737 33.8928 10.6346 4.99503 69.9622
5010901 7.2228 16.0607 12.4667 34 10.8857 4.98562 69.7501
5010916 7.1171 16.2264 12.1443 34 11.1404 4.92189 69.4879
5010921 7.1171 16.2264 12.1443 34 11.1404 4.92189 69.4879
5010931 7.06425 16.4014 11.8532 34 11.3548 4.84447 69.3189
5010945 7.06425 16.4014 11.8532 34 11.3548 4.84447 69.3189
5010951 6.95855 16.5488 11.5725 34 11.5872 4.79124 69.0798
5010970 6.87927 16.7421 11.3541 34 11.7827 4.72618 68.9755
5010972 6.87927 16.7421 11.3541 34 11.7827 4.72618 68.9755
5010981 6.87047 16.8434 11.2086 34 11.8845 4.67801 68.9225
5011002 6.8 16.9171 11.0214 34 12.0368 4.64899 68.7385
5011011 6.78238 17.0973 11.011 34 12.0858 4.60107 68.8906
5011030 6.78238 17.0973 11.011 34 12.0858 4.60107 68.8906
5011033 6.80881 17.1264 10.907 34 12.133 4.56953 68.8423
5011042 6.80881 17.2431 10.8239 34 12.1997 4.52378 68.8758
5011062 6.80881 17.2431 10.8239 34 12.1997 4.52378 68.8758
5011063 6.87047 17.4279 10.6887 34 12.2736 4.43351 68.9871
5011073 6.88808 17.5641 10.6055 34 12.3341 4.3775 69.0577
5011091 6.88808 17.5641 10.6055 34 12.3341 4.3775 69.0577
5011093 6.96736 17.6419 10.6679 34 12.272 4.34313 69.2771
5011103 7.0114 17.778 10.6783 34 12.2677 4.29455 69.4677
5011123 7.15233 17.8558 10.6471 34 12.2232 4.22917 69.6553
5011148 7.13472 17.9434 10.7199 33.9708 12.2044 4.21663 69.7687
5011153 7.19637 18.0503 10.8031 33.8928 12.1327 4.1711 69.9426
5011176 7.23161 18.0698 10.8446 33.7467 12.0686 4.1399 69.8928
5011183 7.30207 18.1087 10.8862 33.5519 11.9802 4.08611 69.8489
5011193 7.30207 18.1087 10.8862 33.5519 11.9802 4.08611 69.8489
5011204 7.38135 18.1768 11.0214 33.396 11.8506 4.04269 69.9755
5011213 7.38135 18.1768 11.0214 33.396 11.8506 4.04269 69.9755
5011235 7.4342 18.2059 11.0526 33.1914 11.7733 3.99315 69.8842
5011237 7.50466 18.2157 11.167 32.9673 11.6354 3.95406 69.8546
5011243 7.50466 18.2157 11.167 32.9673 11.6354 3.95406 69.8546
5011266 7.55751 18.2643 11.3021 32.8212 11.5183 3.92483 69.9452
5011267 7.5399 18.2643 11.3957 32.8212 11.4786 3.94439 70.0211
5011277 7.5399 18.2059 11.3957 32.6946 11.4428 3.94017 69.8361
5011297 7.6544 18.1573 11.6037 32.5679 11.241 3.93519 69.9833
5011305 7.68964 18.0212 11.7284 32.4315 11.1043 3.9607 69.8708
5011315 7.72487 17.992 11.9052 32.2659 10.956 3.96082 69.888
5011330 7.72487 17.992 11.9052 32.2659 10.956 3.96082 69.888
