9154264 5.39067 17.3598 12.4147 24.5599 10.0939 3.57238 59.7251
9154275 5.45233 16.954 12.8514 24.2968 9.63281 3.71305 59.5545
9154297 5.57565 16.6961 13.3817 24.0825 9.13241 3.8149 59.7359
9154303 5.57565 16.6961 13.3817 24.0825 9.13241 3.8149 59.7359
9154314 5.69896 16.2541 13.7768 23.761 8.63132 3.92954 59.4908
9154325 5.9456 15.9225 14.4526 23.5077 7.95277 4.03459 59.8285
9154343 6.20104 15.5818 14.9205 23.0499 7.32602 4.06359 59.7532
9154353 6.35959 15.2226 15.4508 22.6115 6.71636 4.14456 59.6445
9154375 6.60622 14.8082 16.1474 22.1731 5.95451 4.24526 59.7349
9154385 6.60622 14.8082 16.1474 22.1731 5.95451 4.24526 59.7349
9154395 6.80881 14.4951 16.7193 21.7152 5.30741 4.30139 59.7384
9154405 7.1171 14.136 17.2756 21.2378 4.59332 4.33195 59.7665
9154416 7.1171 14.136 17.2756 21.2378 4.59332 4.33195 59.7665
9154426 7.46062 13.8137 17.9155 20.6436 3.79434 4.33322 59.8333
9154436 7.7513 13.4821 18.5848 20.0493 3.00467 4.3598 59.8675
9154446 7.7513 13.4821 18.5848 20.0493 3.00467 4.3598 59.8675
9154456 8.12124 13.0677 19.2247 19.2504 2.08343 4.34587 59.6641
9154466 8.49119 13.0677 19.9039 18.6659 1.38808 4.24362 60.1287
9154476 8.49119 12.5981 19.9039 18.6659 1.2022 4.39511 59.659
9154486 8.88756 12.2481 20.6815 17.8183 0.208494 4.36758 59.6355
9154496 8.88756 12.2481 20.6815 17.8183 0.208494 4.36758 59.6355
9154516 9.17824 11.7692 21.3804 17.2241 -0.657141 4.44747 59.552
9154527 9.52176 11.3548 22.04 16.5431 -1.54045 4.46685 59.4596
9154537 9.8829 10.8852 22.7881 15.991 -2.43285 4.537 59.5472
9154545 9.8829 10.8852 22.7881 15.991 -2.43285 4.537 59.5472
9154555 10.0679 10.4431 23.4771 15.5056 -3.19205 4.65723 59.4937
9154565 10.3057 10.13 23.9988 15.1344 -3.79399 4.7082 59.5689
9154586 10.5259 9.75244 24.4812 14.8393 -4.36894 4.79258 59.5988
9154597 10.658 9.50379 24.8454 14.4871 -4.83765 4.83341 59.4943
9154606 10.658 9.50379 24.8454 14.4871 -4.83765 4.83341 59.4943
9154616 10.7902 9.39328 25.1801 14.1635 -5.21337 4.82809 59.527
9154637 10.9399 9.1078 25.5049 13.8684 -5.66659 4.87848 59.421
9154646 11.1777 8.95125 25.8987 13.5543 -6.11378 4.8649 59.5819
9154657 11.1777 8.95125 25.8987 13.5543 -6.11378 4.8649 59.5819
9154667 11.3891 8.78548 26.1841 13.2307 -6.52678 4.84319 59.5894
9154677 11.6886 8.63814 26.4302 12.9451 -6.9242 4.78592 59.7021
9154687 11.6886 8.63814 26.4302 12.9451 -6.9242 4.78592 59.7021
9154698 11.9528 8.38028 26.7157 12.631 -7.39665 4.7789 59.6798
9154707 11.9528 8.38028 26.7157 12.631 -7.39665 4.7789 59.6798
9154718 12.3492 8.31582 26.9716 12.2312 -7.83967 4.64468 59.8679
9154726 12.7544 8.15926 27.198 11.8124 -8.33585 4.52993 59.9241
9154747 13.142 8.01192 27.1882 11.327 -8.79486 4.3644 59.6691
9154759 13.4943 7.78169 27.2374 10.8415 -9.31198 4.24639 59.3549
9154767 13.4943 7.78169 27.2374 10.8415 -9.31198 4.24639 59.3549
9154780 13.8554 7.57909 27.3851 10.5465 -9.73407 4.16829 59.3661
9154802 14.1549 7.32124 27.3752 10.2133 -10.1565 4.09188 59.0647
9154809 14.428 7.24756 27.6016 9.9944 -10.4551 4.02904 59.2716
9154818 14.428 7.24756 27.6016 9.9944 -10.4551 4.02904 59.2716
9154828 14.701 7.0818 27.8083 9.89922 -10.7279 4.01528 59.4904
9154840 14.9301 6.99892 27.8772 9.78499 -10.9175 3.9603 59.5912
9154860 15.1943 6.84236 28.0544 9.55655 -11.2535 3.91658 59.6476
9154870 15.3352 6.65818 28.1824 9.42329 -11.5086 3.92933 59.5991
9154890 15.4497 6.53846 28.2611 9.34714 -11.6724 3.93146 59.5965
9154900 15.4497 6.53846 28.2611 9.34714 -11.6724 3.93146 59.5965
9154910 15.6171 6.41874 28.271 9.19485 -11.8797 3.88981 59.5017
9154920 15.7668 6.33586 28.399 9.10918 -12.0451 3.8765 59.6108
9154930 15.7668 6.33586 28.399 9.10918 -12.0451 3.8765 59.6108
9154940 15.8902 6.31744 28.4777 9.03303 -12.1476 3.84383 59.7183
9154950 15.8902 6.31744 28.4777 9.03303 -12.1476 3.84383 59.7183
9154960 15.8637 6.23456 28.4482 8.99496 -12.211 3.86576 59.5414
9154970 15.943 6.16089 28.586 8.97592 -12.3153 3.88615 59.6658
9154980 15.943 6.16089 28.586 8.97592 -12.3153 3.88615 59.6658
9154991 16.0135 6.07801 28.6746 8.85218 -12.4785 3.88353 59.6182
9155001 16.0751 6.00433 28.6549 8.87122 -12.5217 3.88721 59.6056
9155021 16.1368 5.93066 28.586 8.79507 -12.6147 3.86392 59.4485
9155031 16.1544 5.83857 28.6943 8.77604 -12.7112 3.90426 59.4633
9155041 16.1544 5.83857 28.6943 8.77604 -12.7112 3.90426 59.4633
9155052 16.1808 5.79252 28.7238 8.85218 -12.7037 3.93018 59.5493
9155062 16.1808 5.79252 28.7238 8.85218 -12.7037 3.93018 59.5493
9155072 16.128 5.72806 28.8518 8.87122 -12.748 3.99476 59.579
9155082 16.0575 5.69122 29.0782 8.85218 -12.8153 4.06716 59.6791
9155091 16.0575 5.69122 29.0782 8.85218 -12.8153 4.06716 59.6791
9155106 15.9959 5.62676 29.0585 8.89026 -12.8154 4.1109 59.5714
9155121 15.9078 5.55309 29.1372 9.06159 -12.7516 4.20836 59.6597
9155132 15.7756 5.47021 29.2849 9.16629 -12.741 4.32316 59.697
9155143 15.7756 5.47021 29.2849 9.16629 -12.741 4.32316 59.697
9155153 15.6523 5.47021 29.4424 9.23292 -12.706 4.40303 59.7978
9155163 15.5114 5.48862 29.4227 9.34714 -12.5893 4.45956 59.7699
9155172 15.5114 5.48862 29.4227 9.34714 -12.5893 4.45956 59.7699
9155182 15.4674 5.47941 29.2849 9.4804 -12.4734 4.47611 59.7121
9155194 15.4674 5.47941 29.2849 9.4804 -12.4734 4.47611 59.7121
9155202 15.3 5.54388 29.1569 9.58511 -12.3049 4.50563 59.5859
9155214 15.1591 5.53467 29.088 9.83259 -12.1111 4.58619 59.6143
9155235 14.8772 5.63597 28.96 10.0325 -11.8345 4.65821 59.5057
9155242 14.6834 5.69122 28.9305 10.3656 -11.5455 4.75647 59.6708
9155254 14.6834 5.69122 28.9305 10.3656 -11.5455 4.75647 59.6708
9155262 14.4808 5.84778 28.7927 10.6892 -11.1755 4.8035 59.8106
9155275 14.4808 5.84778 28.7927 10.6892 -11.1755 4.8035 59.8106
9155282 14.2694 5.9675 28.7238 10.9938 -10.8548 4.87387 59.9546
9155292 14.1813 6.0688 28.4186 11.2128 -10.5702 4.8549 59.8816
9155302 14.1813 6.0688 28.4186 11.2128 -10.5702 4.8549 59.8816
9155317 13.9788 6.22535 28.0347 11.4317 -10.2046 4.84217 59.6705
9155324 13.829 6.41874 27.6804 11.8315 -9.73031 4.83539 59.7596
9155344 13.6793 6.58451 27.2965 12.0694 -9.35851 4.80519 59.6297
9155354 13.6793 6.58451 27.2965 12.0694 -9.35851 4.80519 59.6297
9155365 13.4326 6.75027 26.7944 12.4597 -8.84008 4.81296 59.437
9155374 13.3093 7.07259 26.2432 12.9071 -8.21945 4.72896 59.5322
9155384 13.3093 7.07259 26.2432 12.9071 -8.21945 4.72896 59.5322
9155394 13.0715 7.36728 25.6526 13.2688 -7.61793 4.67045 59.3601
9155404 12.8425 7.67118 25.0816 13.7447 -6.95495 4.62908 59.34
9155414 12.8425 7.67118 25.0816 13.7447 -6.95495 4.62908 59.34
9155424 12.6223 8.03955 24.5501 14.2111 -6.27776 4.56877 59.423
9155444 12.3052 8.36186 23.8906 14.7346 -5.52319 4.54312 59.2922
9155454 12.1378 8.8039 23.2606 15.2105 -4.7902 4.42565 59.4128
9155473 11.856 9.34724 22.4337 15.8197 -3.83587 4.30151 59.4566
9155483 11.5124 9.80769 21.7151 16.3337 -2.98395 4.22663 59.3689
9155503 11.2746 10.2681 21.0851 16.8667 -2.19551 4.13712 59.4946
9155514 11.2746 10.2681 21.0851 16.8667 -2.19551 4.13712 59.4946
9155525 10.9927 10.572 20.4059 17.2533 -1.50839 4.07632 59.224
9155535 10.6668 10.9496 19.707 17.8865 -0.649253 4.04756 59.21
9155547 10.6668 10.9496 19.707 17.8865 -0.649253 4.04756 59.21
9155555 10.4026 11.3548 18.9687 18.588 0.240862 3.99549 59.3141
9155568 10.1207 11.7324 18.1911 19.2991 1.14576 3.95253 59.3433
9155574 10.1207 11.7324 18.1911 19.2991 1.14576 3.95253 59.3433
9155588 9.83005 12.1928 17.443 20.0298 2.07983 3.89521 59.4957
9155606 9.52176 12.5704 16.7505 20.4487 2.84481 3.82189 59.2914
9155615 9.22228 12.948 16.137 20.965 3.60782 3.77877 59.2723
9155635 8.89637 13.2335 15.7835 21.345 4.17604 3.79658 59.2583
9155645 8.7114 13.4637 15.222 21.9003 4.81917 3.78108 59.2974
9155655 8.7114 13.4637 15.222 21.9003 4.81917 3.78108 59.2974
9155669 8.42953 13.7676 14.7957 22.4848 5.47565 3.80396 59.4777
9155675 8.42953 13.7676 14.7957 22.4848 5.47565 3.80396 59.4777
9155685 8.15648 14.0347 14.2654 23.0499 6.16009 3.8124 59.5064
9155696 7.88342 14.4122 13.6832 23.4785 6.86381 3.75043 59.4574
9155705 7.88342 14.4122 13.6832 23.4785 6.86381 3.75043 59.4574
9155717 7.68083 14.7346 13.2153 23.9559 7.46574 3.71454 59.5866
9155739 7.36373 14.9095 12.789 24.4235 8.06088 3.76709 59.4858
9155745 7.04663 15.1766 12.3939 24.9593 8.68439 3.80938 59.5764
9155766 6.75596 15.37 12.0924 25.3003 9.16603 3.84754 59.5186
9155776 6.54456 15.4621 11.8532 25.5633 9.5197 3.88987 59.4232
9155788 6.54456 15.4621 11.8532 25.5633 9.5197 3.88987 59.4232
9155801 6.32435 15.545 11.6037 25.8751 9.89587 3.94523 59.3481
9155805 6.32435 15.545 11.6037 25.8751 9.89587 3.94523 59.3481
9155815 6.06891 15.6463 11.4061 26.2063 10.2724 4.01935 59.3276
9155825 5.93679 15.812 11.2606 26.6252 10.5811 4.05896 59.6346
9155846 5.80466 15.9133 11.0526 26.859 10.865 4.07355 59.6296
9155858 5.74301 16.0423 10.8239 27.0149 11.1072 4.03868 59.624
9155866 5.74301 16.0423 10.8239 27.0149 11.1072 4.03868 59.624
9155881 5.63731 16.1988 10.6263 27.0831 11.3436 3.99861 59.5455
9155887 5.63731 16.1988 10.6263 27.0831 11.3436 3.99861 59.5455
9155896 5.54922 16.1896 10.5223 27.2779 11.5034 4.04644 59.5391
9155907 5.45233 16.3277 10.4495 27.5117 11.6911 4.06282 59.7414
9155928 5.30259 16.3554 10.3664 27.6871 11.8794 4.11869 59.7114
9155937 5.18808 16.2633 10.252 27.9404 12.0564 4.21026 59.6437
9155953 5.18808 16.2633 10.252 27.9404 12.0564 4.21026 59.6437
9155957 5.08238 16.2449 10.2104 28.2521 12.2112 4.29889 59.7898
9155967 5.08238 16.2449 10.2104 28.2521 12.2112 4.29889 59.7898
9155979 4.94145 16.208 10.1584 28.4957 12.3755 4.39053 59.8036
9155988 4.82694 16.3001 10.1376 28.8172 12.5465 4.45087 60.0819
9156003 4.82694 16.3001 10.1376 28.8172 12.5465 4.45087 60.0819
9156008 4.62435 16.3922 9.99205 28.9731 12.8159 4.48851 59.9817
9156018 4.50104 16.5027 9.90887 29.1095 12.9962 4.50199 60.0221
9156028 4.50104 16.5027 9.90887 29.1095 12.9962 4.50199 60.0221
9156038 4.43938 16.5764 9.74251 29.1679 13.1672 4.47917 59.9262
9156048 4.26321 16.5395 9.65933 29.2751 13.3468 4.55285 59.7372
9156070 4.08705 16.5948 9.62813 29.4504 13.5249 4.61762 59.7604
9156082 4.08705 16.5948 9.62813 29.4504 13.5249 4.61762 59.7604
9156092 3.99016 16.7237 9.52416 29.5673 13.7014 4.60936 59.8054
9156103 3.89326 16.7882 9.53456 29.7524 13.8043 4.65383 59.9684
9156111 3.89326 16.7882 9.53456 29.7524 13.8043 4.65383 59.9684
9156124 3.76995 16.9263 9.44098 29.7914 13.9778 4.63954 59.9287
9156131 3.7171 17.0486 9.3474 29.8791 14.1115 4.61579 59.9922
9156141 3.7171 17.0486 9.3474 29.8791 14.1115 4.61579 59.9922
9156151 3.67306 17.0681 9.19144 29.957 14.2598 4.61031 59.8896
9156164 3.53212 17.1751 9.21223 29.8596 14.3404 4.60813 59.779
9156182 3.59378 17.2431 9.17064 29.7135 14.3133 4.53287 59.721
9156192 3.59378 17.2431 9.17064 29.7135 14.3133 4.53287 59.721
9156206 3.53212 17.3598 9.08746 29.6063 14.4106 4.48139 59.5857
9156212 3.52332 17.5933 9.06667 29.5673 14.4646 4.39764 59.7506
9156224 3.52332 17.5933 9.06667 29.5673 14.4646 4.39764 59.7506
9156234 3.56736 17.8364 8.98349 29.4407 14.5109 4.26735 59.8279
9156244 3.58497 18.0601 8.9419 29.1289 14.5113 4.12599 59.7159
9156254 3.58497 18.0601 8.9419 29.1289 14.5113 4.12599 59.7159
9156263 3.54974 18.2838 8.9315 28.8562 14.5329 4.01389 59.6212
9156273 3.54974 18.2838 8.9315 28.8562 14.5329 4.01389 59.6212
9156284 3.58497 18.4199 8.95229 28.7977 14.5094 3.95243 59.7549
9156294 3.64663 18.6339 8.96269 28.6029 14.4652 3.83109 59.8461
9156305 3.64663 18.6339 8.96269 28.6029 14.4652 3.83109 59.8461
9156315 3.67306 18.7895 8.9419 28.3788 14.4494 3.72801 59.7832
9156328 3.74352 18.9743 9.01468 28.0865 14.336 3.60674 59.819
9156335 3.74352 18.9743 9.01468 28.0865 14.336 3.60674 59.819
9156348 3.81399 19.1882 8.9419 27.9112 14.3444 3.47109 59.8553
9156355 3.77876 19.2855 9.01468 27.7748 14.3127 3.4397 59.8537
9156376 3.94611 19.3827 9.07706 27.4923 14.1289 3.31575 59.8982
9156389 3.94611 19.3827 9.07706 27.4923 14.1289 3.31575 59.8982
9156396 3.90207 19.4216 9.18104 27.2682 14.056 3.29385 59.7729
9156412 4.05181 19.4119 9.28502 27.0344 13.8457 3.22558 59.7831
9156419 4.05181 19.4119 9.28502 27.0344 13.8457 3.22558 59.7831
9156431 4.1399 19.3633 9.49297 26.7129 13.5839 3.19115 59.709
9156444 4.17513 19.2368 9.65933 26.3817 13.3652 3.18631 59.453
9156447 4.17513 19.2368 9.65933 26.3817 13.3652 3.18631 59.453
9156457 4.3601 19.2855 9.90887 26.1186 13.044 3.11244 59.6731
9156477 4.49223 19.1882 10.1584 25.7192 12.7005 3.07192 59.558
9156487 4.69482 19.1201 10.5431 25.4269 12.2561 3.0497 59.785
9156499 4.69482 19.1201 10.5431 25.4269 12.2561 3.0497 59.785
9156507 4.87979 19.0132 10.855 24.9009 11.8104 2.9832 59.6489
9156517 5.15285 18.8089 11.3645 24.4235 11.1779 2.96894 59.7498
9156529 5.15285 18.8089 11.3645 24.4235 11.1779 2.96894 59.7498
9156539 5.45233 18.488 11.8636 23.7903 10.4718 2.94833 59.5942
9156549 5.45233 18.488 11.8636 23.7903 10.4718 2.94833 59.5942
9156558 5.76943 18.1476 12.5083 23.1181 9.65178 2.94977 59.5433
9156568 6.15699 17.9239 12.9969 22.4264 8.90539 2.85922 59.5042
9156578 6.15699 17.9239 12.9969 22.4264 8.90539 2.85922 59.5042
9156589 6.66788 17.5252 13.6728 21.5885 7.89389 2.79246 59.4544
9156598 7.21399 17.1362 14.1823 20.8189 6.97491 2.69186 59.3513
9156607 7.21399 17.1362 14.1823 20.8189 6.97491 2.69186 59.3513
9156618 7.70725 16.7514 14.8269 20.098 6.02658 2.64374 59.3835
9156633 7.70725 16.7514 14.8269 20.098 6.02658 2.64374 59.3835
9156638 8.14767 16.3001 15.3988 19.4063 5.13054 2.62198 59.2529
9156649 8.56166 15.8765 16.0538 18.6854 4.20194 2.61107 59.1774
9156669 8.98446 15.4621 16.7089 18.1496 3.33797 2.63348 59.305
9156684 9.31917 14.9924 17.2855 17.5358 2.50436 2.66595 59.1329
9156689 9.31917 14.9924 17.2855 17.5358 2.50436 2.66595 59.1329
9156698 9.72435 14.6148 17.9155 16.9429 1.6546 2.66544 59.1975
9156711 9.72435 14.6148 17.9155 16.9429 1.6546 2.66544 59.1975
9156719 10.015 14.136 18.5651 16.4574 0.85057 2.75586 59.1736
9156732 10.4026 13.8137 19.2148 15.9815 0.0748008 2.77217 59.4126
9156738 10.4026 13.8137 19.2148 15.9815 0.0748008 2.77217 59.4126
9156754 10.7461 13.344 19.9039 15.4485 -0.781223 2.84198 59.4425
9156760 11.072 12.9756 20.4551 14.944 -1.51712 2.86428 59.4468
9156780 11.442 12.5244 21.0162 14.4586 -2.3028 2.90416 59.4411
9156790 11.442 12.5244 21.0162 14.4586 -2.3028 2.90416 59.4411
9156800 11.7238 12.0639 21.6167 13.9065 -3.10655 2.96794 59.3109
9156810 12.1026 11.6495 22.1285 13.4306 -3.85722 2.98603 59.3112
9156821 12.1026 11.6495 22.1285 13.4306 -3.85722 2.98603 59.3112
9156831 12.4549 11.2351 22.6798 12.8975 -4.64087 3.00856 59.2674
9156841 12.7192 10.7839 23.3098 12.4787 -5.38288 3.10807 59.2915
9156851 12.7192 10.7839 23.3098 12.4787 -5.38288 3.10807 59.2915
9156864 12.957 10.4063 23.8413 12.1932 -5.97618 3.19993 59.3978
9156871 12.957 10.4063 23.8413 12.1932 -5.97618 3.19993 59.3978
9156881 13.1155 9.90899 24.304 11.8981 -6.59013 3.33741 59.2266
9156891 13.3181 9.59588 24.8552 11.603 -7.14747 3.42186 59.3723
9156901 13.3181 9.59588 24.8552 11.603 -7.14747 3.42186 59.3723
9156911 13.4679 9.17226 25.377 11.346 -7.71798 3.55848 59.3631
9156922 13.6176 8.82232 25.9085 11.0795 -8.2555 3.67203 59.428
9156931 13.6176 8.82232 25.9085 11.0795 -8.2555 3.67203 59.428
9156941 13.8114 8.48158 26.4499 10.9082 -8.74735 3.78831 59.6511
9156961 14.0228 8.21452 26.7255 10.6988 -9.14954 3.81828 59.6616
9156971 14.1813 7.98429 26.9815 10.4989 -9.50594 3.8514 59.646
9156982 14.1813 7.98429 26.9815 10.4989 -9.50594 3.8514 59.646
9156992 14.2782 7.82774 27.2177 10.2514 -9.8266 3.86818 59.5751
9157002 14.472 7.63434 27.3752 10.0515 -10.1462 3.86013 59.5331
9157013 14.472 7.63434 27.3752 10.0515 -10.1462 3.86013 59.5331
9157023 14.701 7.487 27.4343 9.89922 -10.395 3.8168 59.5215
9157033 14.701 7.487 27.4343 9.89922 -10.395 3.8168 59.5215
9157042 14.7539 7.31203 27.4343 9.71836 -10.6207 3.82145 59.2186
9157055 14.9653 7.20152 27.513 9.58511 -10.8376 3.77913 59.2649
9157079 15.1591 7.17389 27.513 9.46137 -10.9754 3.70311 59.3074
9157083 15.3 7.07259 27.5918 9.43281 -11.1059 3.70018 59.3972
9157092 15.3 7.07259 27.5918 9.43281 -11.1059 3.70018 59.3972
9157102 15.5466 7.05417 27.5918 9.32811 -11.2382 3.6086 59.5207
9157113 15.5466 7.05417 27.5918 9.32811 -11.2382 3.6086 59.5207
9157123 15.6964 6.91603 27.6804 9.15677 -11.482 3.58911 59.4496
9157135 15.943 6.90683 27.7591 9.07111 -11.6137 3.51384 59.6801
9157143 15.943 6.90683 27.7591 9.07111 -11.6137 3.51384 59.6801
9157158 16.1192 6.83315 27.5918 8.95689 -11.7313 3.42759 59.501
9157165 16.3218 6.78711 27.513 8.90929 -11.8167 3.35457 59.5312
9157173 16.3218 6.78711 27.513 8.90929 -11.8167 3.35457 59.5312
9157187 16.4891 6.78711 27.5327 8.87122 -11.8815 3.29952 59.6802
9157194 16.4891 6.78711 27.5327 8.87122 -11.8815 3.29952 59.6802
9157208 16.5772 6.75027 27.3457 8.67133 -12.0067 3.20743 59.3445
9157215 16.7622 6.74106 27.1783 8.66181 -12.0222 3.11835 59.3434
9157234 16.8767 6.78711 27.1193 8.52856 -12.0888 3.03078 59.3116
9157245 16.9648 6.78711 26.9913 8.47144 -12.1159 2.96655 59.2146
9157259 16.9648 6.78711 26.9913 8.47144 -12.1159 2.96655 59.2146
9157265 17.0996 6.78711 26.9716 8.51904 -12.1111 2.93139 59.3774
9157287 17.1196 6.75948 26.883 8.44289 -12.1612 2.90014 59.205
9157295 17.2392 6.86078 26.8141 8.52856 -12.0553 2.83704 59.4426
9157306 17.2392 6.86078 26.8141 8.52856 -12.0553 2.83704 59.4426
9157316 17.3089 6.8792 26.6468 8.51904 -12.0285 2.7743 59.3539
9157326 17.3189 6.88841 26.5483 8.53807 -11.9915 2.75218 59.2937
9157336 17.3189 6.88841 26.5483 8.53807 -11.9915 2.75218 59.2937
9157346 17.2691 6.96208 26.3712 8.63326 -11.8362 2.72808 59.2356
9157355 17.2691 6.96208 26.3712 8.63326 -11.8362 2.72808 59.2356
9157366 17.2292 6.9805 26.1841 8.74748 -11.7031 2.7194 59.1413
9157376 17.1395 7.10943 26.0463 8.98544 -11.4249 2.72842 59.2807
9157386 17.1395 7.10943 26.0463 8.98544 -11.4249 2.72842 59.2807
9157396 16.9736 7.15547 25.8002 9.06159 -11.2546 2.7291 58.9909
9157406 16.815 7.27519 25.6329 9.41377 -10.8895 2.77909 59.1369
9157416 16.815 7.27519 25.6329 9.41377 -10.8895 2.77909 59.1369
9157428 16.6477 7.47779 25.2588 9.70885 -10.458 2.75215 59.0931
9157436 16.6477 7.47779 25.2588 9.70885 -10.458 2.75215 59.0931
9157450 16.2953 7.59751 24.9734 10.1562 -9.96019 2.85571 59.0224
9157456 15.987 7.85536 24.6288 10.6417 -9.3545 2.8999 59.1129
9157466 15.987 7.85536 24.6288 10.6417 -9.3545 2.8999 59.1129
9157476 15.758 8.22373 24.3729 11.1937 -8.69607 2.91818 59.5484
9157486 15.2912 8.37107 24.0382 11.9076 -7.98999 3.09108 59.6081
9157496 15.2912 8.37107 24.0382 11.9076 -7.98999 3.09108 59.6081
9157506 14.8772 8.63814 23.5657 12.5644 -7.2262 3.17244 59.6455
9157516 14.8772 8.63814 23.5657 12.5644 -7.2262 3.17244 59.6455
9157526 14.3839 8.95125 22.9849 13.2402 -6.37061 3.24628 59.5603
9157536 13.9876 9.38407 22.5026 13.8494 -5.54919 3.2601 59.7236
9157546 13.9876 9.38407 22.5026 13.8494 -5.54919 3.2601 59.7236
9157556 13.6088 9.66956 21.8923 14.2301 -4.88269 3.24341 59.4008
9157565 13.6088 9.66956 21.8923 14.2301 -4.88269 3.24341 59.4008
9157576 13.186 9.94583 21.3312 14.7536 -4.14484 3.28109 59.2167
9157586 12.8777 10.2497 20.6323 15.2486 -3.39431 3.24195 59.0084
9157596 12.8777 10.2497 20.6323 15.2486 -3.39431 3.24195 59.0084
9157606 12.587 10.5905 20.1992 15.734 -2.73289 3.2369 59.1107
9157617 12.3756 11.0049 19.5298 16.248 -1.96614 3.14343 59.1584
9157641 12.1554 11.5114 18.89 16.6383 -1.22297 3.00569 59.1951
9157656 11.9 11.8245 18.2994 17.1364 -0.523363 2.96938 59.1602
9157667 11.6269 12.2481 17.7776 17.5845 0.180647 2.90876 59.2372
9157678 11.6269 12.2481 17.7776 17.5845 0.180647 2.90876 59.2372
9157692 11.3451 12.6349 17.2166 17.9255 0.845179 2.83196 59.122
9157702 11.1161 12.994 16.6777 18.3054 1.48314 2.75996 59.0932
9157721 10.7813 13.3348 16.2514 18.8315 2.16793 2.77879 59.199
9157739 10.5435 13.5098 15.8563 19.2309 2.68044 2.79858 59.1405
9157746 10.2352 13.8413 15.43 19.6693 3.31445 2.79408 59.1758
9157756 10.2352 13.8413 15.43 19.6693 3.31445 2.79408 59.1758
9157768 9.96218 14.0255 15.0869 20.059 3.81994 2.83044 59.1335
9157777 9.62746 14.2096 14.7853 20.663 4.41082 2.9378 59.2855
9157790 9.62746 14.2096 14.7853 20.663 4.41082 2.9378 59.2855
9157797 9.41606 14.3754 14.5254 21.2086 4.88974 3.00943 59.5254
9157811 9.41606 14.3754 14.5254 21.2086 4.88974 3.00943 59.5254
9157817 9.08135 14.4491 14.359 21.5691 5.28847 3.12764 59.4585
9157827 8.91399 14.4399 14.2758 21.988 5.55121 3.24819 59.6177
9157847 8.63212 14.4307 14.1407 22.4458 5.91109 3.40081 59.6493
9157857 8.37668 14.4215 13.8911 22.9427 6.32896 3.53058 59.632
9157867 8.37668 14.4215 13.8911 22.9427 6.32896 3.53058 59.632
9157877 8.15648 14.403 13.7768 23.3519 6.62681 3.66131 59.6881
9157889 8.15648 14.403 13.7768 23.3519 6.62681 3.66131 59.6881
9157898 7.91865 14.3938 13.5272 23.7318 6.99989 3.76351 59.5715
9157908 7.81295 14.3202 13.2777 24.0241 7.25735 3.82822 59.4349
9157921 7.81295 14.3202 13.2777 24.0241 7.25735 3.82822 59.4349
9157928 7.67202 14.3294 13.1113 24.3163 7.51415 3.89362 59.429
9157939 7.61917 14.2741 12.9554 24.5696 7.6867 3.94619 59.4183
9157948 7.61917 14.2741 12.9554 24.5696 7.6867 3.94619 59.4183
9157958 7.58394 14.4307 12.7682 24.9301 7.95834 3.93977 59.7129
9157968 7.58394 14.4307 12.7682 24.9301 7.95834 3.93977 59.7129
9157981 7.46943 14.5596 12.4667 25.1054 8.2754 3.91178 59.6011
9157988 7.42539 14.7069 12.2067 25.1736 8.50594 3.84323 59.5127
9158009 7.26684 14.8635 11.9988 25.3003 8.79117 3.82859 59.4294
9158019 7.18756 15.0016 11.8636 25.5049 9.00611 3.82301 59.5577
9158030 7.18756 15.0016 11.8636 25.5049 9.00611 3.82301 59.5577
9158039 7.06425 15.1306 11.7492 25.5633 9.19231 3.81073 59.5074
9158051 7.06425 15.1306 11.7492 25.5633 9.19231 3.81073 59.5074
9158058 6.93212 15.1858 11.4893 25.6607 9.45921 3.80444 59.268
9158072 6.85285 15.2503 11.3853 25.8458 9.631 3.82444 59.3343
9158081 6.85285 15.2503 11.3853 25.8458 9.631 3.82444 59.3343
9158088 6.75596 15.3147 11.3541 26.0797 9.78258 3.87276 59.5045
9158099 6.60622 15.2687 11.2606 26.3427 9.98039 3.96658 59.4781
9158108 6.60622 15.2687 11.2606 26.3427 9.98039 3.96658 59.4781
9158120 6.45648 15.3792 11.2813 26.5181 10.128 4.01535 59.6351
9158130 6.45648 15.3792 11.2813 26.5181 10.128 4.01535 59.6351
9158140 6.30674 15.4897 11.1254 26.5668 10.3483 4.00809 59.4886
9158150 6.22746 15.4529 11.1878 26.6739 10.3757 4.07646 59.542
9158160 6.22746 15.4529 11.1878 26.6739 10.3757 4.07646 59.542
9158170 6.21865 15.5358 11.2502 26.8103 10.3976 4.08913 59.8149
9158180 6.21865 15.5358 11.2502 26.8103 10.3976 4.08913 59.8149
9158191 6.19223 15.545 11.2294 26.9954 10.4728 4.12451 59.962
9158202 6.07772 15.6371 11.1462 27.2195 10.666 4.15715 60.0804
9158220 5.97202 15.6923 11.011 27.3364 10.8502 4.16995 60.0117
9158230 5.85751 15.7107 10.8446 27.4241 11.0436 4.1865 59.837
9158240 5.85751 15.7107 10.8446 27.4241 11.0436 4.1865 59.837
9158250 5.6285 15.9225 10.6575 27.5702 11.3781 4.1846 59.7787
9158271 5.40829 16.0791 10.4287 27.7163 11.7211 4.19009 59.6325
9158281 5.27617 16.383 10.3456 27.8625 11.953 4.1464 59.8672
9158301 5.03834 16.6132 10.096 28.0281 12.3407 4.13359 59.7757
9158311 4.75648 16.9171 9.89847 28.0086 12.7016 4.08693 59.5807
9158321 4.75648 16.9171 9.89847 28.0086 12.7016 4.08693 59.5807
9158332 4.64197 17.1945 9.73211 28.106 12.9563 4.02223 59.6746
9158341 4.64197 17.1945 9.73211 28.106 12.9563 4.02223 59.6746
9158358 4.43938 17.5154 9.52416 28.184 13.298 3.96057 59.6629
9158361 4.3513 17.7975 9.44098 28.1255 13.4516 3.87281 59.7153
9158375 4.3513 17.7975 9.44098 28.1255 13.4516 3.87281 59.7153
9158382 4.22798 18.0892 9.31621 28.0768 13.6584 3.78723 59.7102
9158397 4.21036 18.3616 9.19144 27.9891 13.7856 3.66729 59.7525
9158402 4.21036 18.3616 9.19144 27.9891 13.7856 3.66729 59.7525
9158412 4.15751 18.6047 9.10826 27.6968 13.8649 3.53623 59.5673
9158422 4.12228 18.6047 9.01468 27.502 13.9128 3.49144 59.2437
9158432 4.12228 18.6922 9.01468 27.502 13.9291 3.46416 59.3312
9158442 4.1487 18.8284 9.14985 27.3559 13.8215 3.41157 59.4828
9158452 4.1487 18.8284 9.14985 27.3559 13.8215 3.41157 59.4828
9158463 4.15751 18.8381 9.25382 27.2097 13.7222 3.39761 59.4592
9158472 4.23679 18.9354 9.47217 27.0539 13.5181 3.35535 59.6982
9158483 4.23679 18.9354 9.47217 27.0539 13.5181 3.35535 59.6982
9158492 4.34249 18.984 9.72171 26.9077 13.2712 3.32819 59.9559
9158505 4.34249 18.984 9.72171 26.9077 13.2712 3.32819 59.9559
9158512 4.39534 18.984 9.7841 26.6057 13.1382 3.26519 59.7691
9158526 4.47461 19.0618 10.0336 26.3524 12.8942 3.21658 59.9225
9158544 4.54508 19.0812 10.2416 26.0017 12.6509 3.16112 59.8696
9158554 4.6772 19.0812 10.3664 25.7095 12.429 3.08788 59.8343
9158564 4.6772 19.0812 10.3664 25.7095 12.429 3.08788 59.8343
9158574 4.81813 19.1104 10.5431 25.2711 12.1438 2.9842 59.7427
9158583 4.91503 19.0034 10.7823 24.8716 11.825 2.95492 59.5724
9158605 5.06477 18.9062 11.115 24.5014 11.4235 2.93153 59.5874
9158625 5.24093 18.7603 11.3021 24.1799 11.0944 2.89514 59.4833
9158635 5.43471 18.595 11.718 23.9559 10.6351 2.92551 59.7036
9158645 5.43471 18.595 11.718 23.9559 10.6351 2.92551 59.7036
9158655 5.64611 18.488 12.0924 23.5467 10.1618 2.88715 59.7732
9158665 5.81347 18.274 12.4355 23.1181 9.70101 2.88376 59.641
9158686 6.10415 18.0017 12.9138 22.6699 9.06931 2.88438 59.6895
9158696 6.10415 18.0017 12.9138 22.6699 9.06931 2.88438 59.6895
9158706 6.30674 17.7489 13.3297 22.1341 8.50419 2.87507 59.5194
9158717 6.54456 17.3598 13.9431 21.7444 7.81002 2.96595 59.5919
9158740 6.73834 16.9632 14.619 21.267 7.07904 3.06721 59.5875
9158747 6.92332 16.6132 15.1804 20.8092 6.43358 3.13805 59.5261
9158763 6.92332 16.6132 15.1804 20.8092 6.43358 3.13805 59.5261
9158767 7.15233 16.1896 15.7835 20.3415 5.7155 3.22442 59.467
9158788 7.44301 15.8212 16.3138 19.8155 5.00052 3.24909 59.3935
9158797 7.73368 15.4713 16.9064 19.3673 4.28663 3.29583 59.4787
9158811 7.73368 15.4713 16.9064 19.3673 4.28663 3.29583 59.4787
9158817 8.09482 15.02 17.5906 18.7438 3.3972 3.33551 59.4493
9158828 8.47358 14.5872 18.319 18.1009 2.47788 3.36894 59.4807
9158839 8.47358 14.5872 18.319 18.1009 2.47788 3.36894 59.4807
9158849 8.87876 14.0991 19.1262 17.4774 1.49858 3.43035 59.5815
9158858 9.2399 13.6387 19.8842 16.8001 0.551814 3.47676 59.5629
9158869 9.2399 13.6387 19.8842 16.8001 0.551814 3.47676 59.5629
9158881 9.59223 13.1598 20.5142 16.3147 -0.26516 3.54396 59.5809
9158888 9.59223 13.1598 20.5142 16.3147 -0.26516 3.54396 59.5809
9158905 9.87409 12.6257 21.1836 15.8197 -1.09753 3.65616 59.503
9158910 10.2617 12.2113 21.7742 15.2772 -1.9099 3.67373 59.5243
9158920 10.2617 12.2113 21.7742 15.2772 -1.9099 3.67373 59.5243
9158930 10.5964 11.8245 22.3156 14.7251 -2.675 3.68805 59.4615
9158939 10.843 11.2996 23.0145 14.2206 -3.51029 3.81267 59.3777
9158960 11.1073 10.8944 23.6543 13.8494 -4.20879 3.90774 59.5053
9158970 11.1073 10.8944 23.6543 13.8494 -4.20879 3.90774 59.5053
9158980 11.3715 10.4247 24.2843 13.3544 -4.99567 3.99829 59.4349
9159004 11.6534 10.0748 24.9241 12.9832 -5.66758 4.06953 59.6355
9159005 11.6534 10.0748 24.9241 12.9832 -5.66758 4.06953 59.6355
9159011 11.944 9.54984 25.5443 12.5644 -6.44859 4.1814 59.6026
9159021 12.2259 9.2091 26.0365 12.2122 -7.05431 4.2257 59.6837
9159031 12.2259 9.2091 26.0365 12.2122 -7.05431 4.2257 59.6837
9159042 12.4902 8.85915 26.6173 11.8219 -7.70479 4.28759 59.7885
9159051 12.4902 8.85915 26.6173 11.8219 -7.70479 4.28759 59.7885
9159061 12.6663 8.46316 27.139 11.4602 -8.32175 4.38727 59.7287
9159071 12.8601 8.06717 27.6705 11.0985 -8.94733 4.48314 59.6963
9159092 13.0451 7.67118 28.0544 10.813 -9.4889 4.5695 59.5837
9159101 13.2829 7.32124 28.4777 10.5655 -10.0063 4.63702 59.6474
9159112 13.2829 7.32124 28.4777 10.5655 -10.0063 4.63702 59.6474
9159122 13.5472 7.0818 28.8321 10.299 -10.4578 4.64411 59.76
9159138 13.5472 7.0818 28.8321 10.299 -10.4578 4.64411 59.76
9159142 13.6529 6.86078 29.1175 10.1848 -10.7517 4.71162 59.8159
9159152 13.7938 6.60293 29.3735 9.93729 -11.149 4.75168 59.7075
9159166 13.7938 6.60293 29.3735 9.93729 -11.149 4.75168 59.7075
9159173 13.9083 6.40953 29.6393 9.81355 -11.4289 4.8021 59.7706
9159182 13.9611 6.20693 29.8755 9.60414 -11.7463 4.85641 59.6477
9159193 13.9611 6.20693 29.8755 9.60414 -11.7463 4.85641 59.6477
9159202 14.1021 6.09642 30.0133 9.47088 -11.9583 4.84706 59.6827
9159212 14.1021 6.09642 30.0133 9.47088 -11.9583 4.84706 59.6827
9159223 14.1637 5.8662 30.1708 9.46137 -12.1547 4.92832 59.6621
9159233 14.2518 5.70043 30.4366 9.34714 -12.4049 4.97979 59.736
9159258 14.2518 5.70043 30.4366 9.34714 -12.4049 4.97979 59.736
9159261 14.3839 5.63597 30.5055 9.31859 -12.5054 4.96395 59.844
9159263 14.5249 5.55309 30.535 9.16629 -12.6886 4.92395 59.7793
9159273 14.5249 5.55309 30.535 9.16629 -12.6886 4.92395 59.7793
9159284 14.5337 5.53467 30.4268 9.08063 -12.7338 4.89437 59.5757
9159293 14.6658 5.53467 30.4661 9.08063 -12.7691 4.85703 59.7472
9159305 14.6658 5.42416 30.4661 9.08063 -12.839 4.89383 59.6367
9159315 14.8067 5.39653 30.4661 9.1187 -12.8611 4.86256 59.7881
9159325 14.8067 5.39653 30.4661 9.1187 -12.8611 4.86256 59.7881
9159335 14.8772 5.33207 30.4169 9.03303 -12.9607 4.83764 59.6592
9159345 14.8684 5.3597 30.5153 9.08063 -12.931 4.85621 59.8241
9159355 14.8684 5.3597 30.5153 9.08063 -12.931 4.85621 59.8241
9159366 14.9124 5.26761 30.4858 9.13774 -12.9561 4.87684 59.8036
9159375 14.8772 5.23077 30.4268 9.1187 -12.9726 4.8876 59.6534
9159385 14.8772 5.23077 30.4268 9.1187 -12.9726 4.8876 59.6534
9159395 14.8596 5.32286 30.4464 9.25196 -12.8301 4.8887 59.8808
9159406 14.8596 5.32286 30.4464 9.25196 -12.8301 4.8887 59.8808
9159416 14.8244 5.30444 30.3382 9.26148 -12.8065 4.88984 59.7284
9159426 14.7891 5.30444 30.4464 9.41377 -12.7254 4.94547 59.9538
9159436 14.7891 5.30444 30.4464 9.41377 -12.7254 4.94547 59.9538
9159446 14.6922 5.30444 30.4169 9.49944 -12.6455 4.98715 59.913
9159456 14.6658 5.33207 30.1511 9.6327 -12.4838 4.96455 59.7817
9159468 14.6658 5.33207 30.1511 9.6327 -12.4838 4.96455 59.7817
9159476 14.5865 5.31365 30.1019 9.70885 -12.4206 5.00174 59.7109
9159496 14.4192 5.3597 30.033 9.97536 -12.1753 5.07537 59.7872
9159506 14.4016 5.40574 30.0133 10.2133 -11.9915 5.10195 60.0339
9159526 14.3135 5.51625 29.7771 10.3656 -11.759 5.08058 59.9724
9159536 14.1902 5.54388 29.5999 10.5845 -11.5414 5.11956 59.9185
9159556 14.2078 5.61755 29.2357 10.7559 -11.3137 5.05699 59.8169
9159568 14.2078 5.61755 29.2357 10.7559 -11.3137 5.05699 59.8169
9159577 14.058 5.68201 28.9108 10.9367 -11.0552 5.06167 59.5876
9159592 13.9347 5.80173 28.773 11.2984 -10.7041 5.10008 59.8079
9159601 13.9347 5.80173 28.773 11.2984 -10.7041 5.10008 59.8079
9159617 13.8026 5.90303 28.5171 11.603 -10.3691 5.11849 59.8257
9159620 13.5119 5.90303 28.3104 9.55655 -11.5057 4.83189 57.2819
9159641 13.5119 6.07801 28.3104 11.9933 -9.91383 5.18763 59.8936
9159644 13.2917 6.28061 28.0249 12.3455 -9.46343 5.20448 59.9427
9159647 13.2917 6.28061 28.0249 12.3455 -9.46343 5.20448 59.9427
9159657 12.9922 6.46479 27.6312 12.7072 -8.96869 5.23819 59.7953
9159667 12.772 6.78711 27.1291 13.0974 -8.37015 5.18538 59.7857
9159677 12.772 6.78711 27.1291 13.0974 -8.37015 5.18538 59.7857
9159689 12.4902 7.0818 26.4007 13.5543 -7.66658 5.13626 59.527
9159700 12.1731 7.44095 25.7018 14.0302 -6.91018 5.08493 59.346
9159710 12.1731 7.44095 25.7018 14.0302 -6.91018 5.08493 59.346
9159719 11.9528 7.8922 24.9537 14.6013 -6.06606 4.97726 59.4001
9159738 11.6798 8.30661 24.2646 14.944 -5.36101 4.87091 59.195
9159748 11.5212 8.78548 23.6051 15.3438 -4.63967 4.71909 59.2556
9159758 11.5212 8.78548 23.6051 15.3438 -4.63967 4.71909 59.2556
9159769 11.2658 9.21831 22.8471 15.715 -3.88662 4.59251 59.0462
9159780 11.0016 9.513 22.1975 16.2385 -3.15836 4.56012 58.9505
9159790 11.0016 9.513 22.1975 16.2385 -3.15836 4.56012 58.9505
9159805 10.6756 9.97346 21.5871 16.8382 -2.3069 4.51368 59.0744
9159810 10.6756 9.97346 21.5871 16.8382 -2.3069 4.51368 59.0744
9159822 10.3762 10.2681 20.967 17.5553 -1.4872 4.53245 59.1666
9159830 10.0415 10.7102 20.3567 18.247 -0.606923 4.51149 59.3553
9159844 10.0415 10.7102 20.3567 18.247 -0.606923 4.51149 59.3553
9159850 9.71554 11.2167 19.5987 18.851 0.317192 4.42496 59.382
9159860 9.38964 11.5482 19.0278 19.4355 1.08007 4.42554 59.4012
9159870 9.38964 11.5482 19.0278 19.4355 1.08007 4.42554 59.4012
9159882 9.11658 12.0455 18.3781 20.0493 1.92991 4.34607 59.5895
9159890 9.11658 12.0455 18.3781 20.0493 1.92991 4.34607 59.5895
9159900 8.76425 12.5612 17.7186 20.5266 2.77192 4.26043 59.5707
9159912 8.37668 13.0769 17 21.1209 3.70173 4.19659 59.5745
9159920 8.37668 13.0769 17 21.1209 3.70173 4.19659 59.5745
9159934 8.11244 13.6111 16.3346 21.6567 4.5302 4.08638 59.7148
9159940 7.79534 14.0899 15.5235 22.1438 5.42162 3.97517 59.5527
9159950 7.79534 14.0899 15.5235 22.1438 5.42162 3.97517 59.5527
9159961 7.47824 14.6148 14.7125 22.7771 6.37817 3.87609 59.5827
9159971 7.47824 14.6148 14.7125 22.7771 6.37817 3.87609 59.5827
9159982 7.17876 15.1121 14.0679 23.1862 7.15918 3.76939 59.545
9159992 6.91451 15.5081 13.5272 23.6344 7.84636 3.71045 59.5842
9160004 6.91451 15.5081 13.5272 23.6344 7.84636 3.71045 59.5842
9160011 6.53575 15.812 12.8722 24.2189 8.67405 3.72062 59.4389
9160026 6.17461 16.1067 12.3627 24.9398 9.44436 3.78152 59.5838
9160041 5.88394 16.4014 11.8636 25.7484 10.185 3.83824 59.8974
9160051 5.88394 16.4014 11.8636 25.7484 10.185 3.83824 59.8974
9160062 5.5228 16.6501 11.4061 26.3817 10.8833 3.90629 59.9606
9160072 5.29378 16.9263 10.8966 26.7811 11.485 3.871 59.8978
9160094 5.00311 17.0486 10.5639 27.0928 11.9641 3.9203 59.7085
9160103 4.82694 17.0097 10.3352 27.4143 12.2772 4.00583 59.5862
9160122 4.62435 17.0097 10.2 27.6774 12.545 4.09416 59.5114
9160132 4.62435 17.0097 10.2 27.6774 12.545 4.09416 59.5114
9160143 4.43057 16.8527 10.1168 28.1158 12.7786 4.27181 59.5158
9160152 4.28083 16.7421 10.2 28.3593 12.848 4.41482 59.5823
9160165 4.28083 16.7421 10.2 28.3593 12.848 4.41482 59.5823
9160172 4.26321 16.5488 10.1168 28.4957 12.9006 4.49324 59.4245
9160188 4.21036 16.4014 10.2104 28.9146 12.9297 4.6487 59.7368
9160193 4.21036 16.4014 10.2104 28.9146 12.9297 4.6487 59.7368
9160203 4.1399 16.2817 10.2728 29.2946 12.9872 4.78732 59.9889
9160215 4.1399 16.2817 10.2728 29.2946 12.9872 4.78732 59.9889
9160232 4.12228 16.2264 10.3144 29.4894 13 4.85143 60.1525
9160234 4.02539 16.1343 10.2936 29.5479 13.0678 4.92033 60.0012
9160244 4.02539 16.1343 10.2936 29.5479 13.0678 4.92033 60.0012
9160257 4.06062 16.1343 10.2312 29.6648 13.1082 4.91779 60.0909
9160268 3.91969 16.1804 10.2416 29.8011 13.227 4.97383 60.1428
9160285 3.9285 16.1712 10.1272 29.9375 13.3189 4.97763 60.1644
9160293 3.9285 16.1712 10.1272 29.9375 13.3189 4.97763 60.1644
9160305 3.81399 16.2449 10.0024 29.8304 13.4655 4.95243 59.8917
9160315 3.81399 16.2909 9.91927 29.7914 13.5203 4.91656 59.8156
9160325 3.81399 16.2909 9.91927 29.7914 13.5203 4.91656 59.8156
9160335 3.78756 16.3093 9.82569 29.7914 13.6013 4.90343 59.714
9160349 3.74352 16.2725 9.83609 29.8791 13.6327 4.94696 59.7312
9160355 3.74352 16.2725 9.83609 29.8791 13.6327 4.94696 59.7312
9160365 3.73471 16.3185 9.89847 29.8401 13.5995 4.93847 59.7918
9160375 3.73471 16.3185 9.89847 29.8401 13.5995 4.93847 59.7918
9160385 3.7171 16.2449 10.0336 29.9862 13.5376 5.016 59.9818
9160395 3.72591 16.1528 10.0752 30.035 13.4969 5.05882 59.9889
9160406 3.72591 16.1528 10.0752 30.035 13.4969 5.05882 59.9889
9160430 3.73471 16.0975 10.096 30.1519 13.4898 5.09711 60.0801
9160432 3.72591 16.1159 10.1792 30.0155 13.4195 5.08512 60.0365
9160440 3.72591 16.1159 10.1792 30.0155 13.4195 5.08512 60.0365
9160445 3.84922 16.0791 10.2104 29.9181 13.2947 5.04526 60.0568
9160455 3.84922 16.0791 10.2104 29.9181 13.2947 5.04526 60.0568
9160465 3.84041 16.0699 10.356 29.6745 13.158 5.03501 59.9408
9160475 3.86684 16.0054 10.4287 29.4699 13.0414 5.02579 59.7709
9160487 3.86684 16.0054 10.4287 29.4699 13.0414 5.02579 59.7709
9160495 3.98135 15.8857 10.6263 29.4309 12.8116 5.05393 59.9243
9160509 3.98135 15.8857 10.6263 29.4309 12.8116 5.05393 59.9243
9160515 4.05181 15.7568 10.7511 29.3822 12.6523 5.08611 59.9419
9160525 4.12228 15.6555 11.0526 29.2264 12.3662 5.12046 60.0567
9160536 4.12228 15.6555 11.0526 29.2264 12.3662 5.12046 60.0567
9160546 4.16632 15.5081 11.1878 29.0315 12.1822 5.14532 59.8937
9160557 4.22798 15.4437 11.3541 28.9244 12.0041 5.156 59.9501
9160566 4.22798 15.4437 11.3541 28.9244 12.0041 5.156 59.9501
9160578 4.3513 15.3424 11.6972 28.7685 11.6616 5.17926 60.1594
9160586 4.3513 15.3424 11.6972 28.7685 11.6616 5.17926 60.1594
9160596 4.40415 15.1306 11.874 28.486 11.411 5.21547 59.8947
9160606 4.50104 14.9556 12.1547 28.2132 11.0795 5.24316 59.8245
9160615 4.50104 14.9556 12.1547 28.2132 11.0795 5.24316 59.8245
9160626 4.58031 14.8451 12.581 27.9014 10.6769 5.27237 59.9079
9160637 4.65078 14.6517 12.7994 27.6189 10.3902 5.30364 59.7208
9160650 4.65078 14.6517 12.7994 27.6189 10.3902 5.30364 59.7208
9160656 4.80052 14.4767 13.1841 27.3169 9.95722 5.32563 59.7782
9160673 4.80052 14.4767 13.1841 27.3169 9.95722 5.32563 59.7782
9160676 4.8886 14.3294 13.6104 27.0928 9.56389 5.37838 59.9212
9160686 5.12642 14.1636 13.9743 26.8006 9.09992 5.36541 60.0649
9160706 5.32902 14.0439 14.3486 26.4401 8.64602 5.33958 60.1616
9160723 5.54922 13.961 14.7021 25.8653 8.14569 5.25751 60.0777
9160727 5.54922 13.961 14.7021 25.8653 8.14569 5.25751 60.0777
9160736 5.80466 13.8965 15.118 25.31 7.6019 5.17058 60.1293
9160757 6.0513 13.7768 15.4196 24.706 7.09379 5.07829 59.9537
9160772 6.34197 13.6755 15.7627 23.9656 6.50107 4.94867 59.7458
9160777 6.34197 13.6755 15.7627 23.9656 6.50107 4.94867 59.7458
9160787 6.62383 13.5926 16.1162 23.0499 5.85292 4.78666 59.3825
9160798 7.06425 13.4545 16.5425 22.1926 5.07997 4.61143 59.2538
9160807 7.06425 13.4545 16.5425 22.1926 5.07997 4.61143 59.2538
9160823 7.47824 13.2979 16.948 21.4327 4.35468 4.46385 59.1569
9160829 7.82176 13.1046 17.5316 20.7312 3.58278 4.3935 59.1891
9160839 7.82176 13.1046 17.5316 20.7312 3.58278 4.3935 59.1891
9160849 8.27979 12.948 18.0926 20.0883 2.80422 4.28046 59.4087
9160858 8.27979 12.948 18.0926 20.0883 2.80422 4.28046 59.4087
9160871 8.66736 12.8006 18.6734 19.3771 2.0317 4.17916 59.5185
9160878 9.06373 12.6257 19.1065 18.7633 1.35106 4.07505 59.5593
9160897 9.06373 12.6257 19.1065 18.7633 1.35106 4.07505 59.5593
9160921 9.41606 12.4231 19.7365 18.1106 0.578472 4.02303 59.6863
9160923 9.6715 12.0363 20.3961 17.4384 -0.24893 4.06266 59.5423
9160924 9.6715 12.0363 20.3961 17.4384 -0.24893 4.06266 59.5423
9160932 10.015 11.6956 21.2918 16.6478 -1.24203 4.08106 59.6502
9160945 10.015 11.6956 21.2918 16.6478 -1.24203 4.08106 59.6502
9160951 10.3057 11.2075 22.1384 16.0482 -2.17273 4.18931 59.6997
9160961 10.4995 10.701 22.8865 15.4675 -3.02978 4.32047 59.5545
9160972 10.4995 10.701 22.8865 15.4675 -3.02978 4.32047 59.5545
9160981 10.7285 10.2866 23.4181 14.9535 -3.74936 4.38395 59.3867
9160999 10.8959 9.99187 24.0481 14.7346 -4.28078 4.49845 59.6704
9161002 10.8959 9.99187 24.0481 14.7346 -4.28078 4.49845 59.6704
9161012 11.072 9.54984 24.6781 14.3634 -4.95986 4.63088 59.6633
9161024 11.1777 9.22752 25.3868 14.0683 -5.54152 4.77358 59.8603
9161050 11.2658 8.86836 25.8888 13.7066 -6.10236 4.88734 59.7296
9161054 11.2658 8.86836 25.8888 13.7066 -6.10236 4.88734 59.7296
9161065 11.442 8.59209 26.4598 13.4211 -6.62965 4.96874 59.9149
9161076 11.5036 8.23294 27.0307 13.0974 -7.18452 5.10941 59.8647
9161093 11.5917 7.92904 27.4933 12.7643 -7.69164 5.20344 59.7784
9161102 11.7326 7.56988 27.8576 12.4692 -8.19694 5.28873 59.6293
9161114 11.7326 7.56988 27.8576 12.4692 -8.19694 5.28873 59.6293
9161126 11.8295 7.33965 28.1922 12.3455 -8.51521 5.36835 59.7069
9161133 11.8295 7.33965 28.1922 12.3455 -8.51521 5.36835 59.7069
9161143 11.9088 7.0818 28.6057 12.1932 -8.88096 5.47126 59.7895
9161155 11.9969 6.90683 29.1766 12.0599 -9.23124 5.57018 60.1402
9161164 11.9969 6.90683 29.1766 12.0599 -9.23124 5.57018 60.1402
9161177 12.0233 6.62134 29.4916 11.8029 -9.63087 5.66821 59.9392
9161183 12.1466 6.35428 29.8657 11.5745 -10.0447 5.74045 59.941
9161201 12.1466 6.35428 29.8657 11.5745 -10.0447 5.74045 59.941
9161203 12.2347 6.19772 30.1118 11.2889 -10.3872 5.75807 59.8331
9161213 12.2347 6.19772 30.1118 11.2889 -10.3872 5.75807 59.8331
9161225 12.3933 6.0688 30.3677 11.1557 -10.6428 5.76672 59.9854
9161239 12.4902 5.89382 30.5744 10.9272 -10.9557 5.79045 59.8856
9161254 12.4902 5.89382 30.5744 10.9272 -10.9557 5.79045 59.8856
9161255 12.6663 5.74648 30.7417 10.7844 -11.2102 5.78423 59.939
9161267 12.7632 5.67281 30.9189 10.5845 -11.4385 5.77269 59.9395
9161274 12.7632 5.67281 30.9189 10.5845 -11.4385 5.77269 59.9395
9161284 12.9041 5.461 30.9682 10.556 -11.6278 5.80045 59.8893
9161295 12.9041 5.461 30.9682 10.556 -11.6278 5.80045 59.8893
9161309 13.001 5.39653 30.978 10.3371 -11.8256 5.75695 59.7126
9161315 13.0803 5.33207 30.978 10.28 -11.9181 5.74295 59.6703
9161325 13.0803 5.33207 30.978 10.28 -11.9181 5.74295 59.6703
9161333 13.2917 5.29523 31.0666 10.061 -12.1419 5.66211 59.7146
9161345 13.3886 5.29523 31.0666 10.061 -12.1628 5.62863 59.8115
9161355 13.3886 5.27681 31.0666 10.0896 -12.1565 5.63946 59.8216
9161366 13.5207 5.26761 31.0863 10.042 -12.2242 5.59276 59.9166
9161386 13.5824 5.2584 31.0764 9.97536 -12.2824 5.56271 59.8926
9161398 13.6352 5.32286 31.1355 9.9944 -12.2543 5.53483 60.088
9161406 13.6352 5.32286 31.1355 9.9944 -12.2543 5.53483 60.088
9161420 13.6 5.22156 31.0764 10.0039 -12.2913 5.57381 59.9019
9161426 13.5207 5.26761 30.9977 9.96585 -12.2527 5.56682 59.7519
9161436 13.5207 5.26761 30.9977 9.96585 -12.2527 5.56682 59.7519
9161445 13.5383 5.3597 30.9583 10.0325 -12.1494 5.53344 59.8888
9161466 13.5295 5.35049 30.8894 10.061 -12.1207 5.53324 59.8305
9161477 13.5383 5.45179 30.6728 10.1467 -11.9599 5.47472 59.8097
9161487 13.5383 5.45179 30.6728 10.1467 -11.9599 5.47472 59.8097
9161496 13.5119 5.57151 30.5055 10.28 -11.7615 5.43739 59.8689
9161518 13.4062 5.62676 30.22 10.3751 -11.5819 5.42417 59.6282
9161526 13.2653 5.79252 30.0625 10.537 -11.3139 5.41636 59.6573
9161548 13.2653 5.79252 30.0625 10.537 -11.3139 5.41636 59.6573
9161554 13.1596 5.92145 29.9149 10.8606 -10.9814 5.43661 59.8565
9161563 13.0275 6.07801 29.7475 11.1176 -10.6633 5.44258 59.9706
9161571 13.0275 6.07801 29.7475 11.1176 -10.6633 5.44258 59.9706
9161577 12.8953 6.28061 29.4818 11.346 -10.3121 5.41262 60.0037
9161591 12.728 6.28061 29.0683 11.5269 -10.0618 5.43253 59.6038
9161597 12.728 6.51083 29.0683 11.5269 -9.92688 5.35391 59.834
9161611 12.6135 6.73185 28.6254 11.8886 -9.44649 5.3046 59.8593
9161617 12.6135 6.73185 28.6254 11.8886 -9.44649 5.3046 59.8593
9161627 12.4197 6.99892 28.0741 12.1932 -8.92243 5.2396 59.6859
9161637 12.3316 7.36728 27.4343 12.5073 -8.33802 5.09118 59.6404
9161660 12.3316 7.36728 27.4343 12.5073 -8.33802 5.09118 59.6404
9161661 12.2435 7.77248 26.7649 12.7833 -7.74485 4.91878 59.5642
9161670 12.2435 7.77248 26.7649 12.7833 -7.74485 4.91878 59.5642
9161677 12.0674 8.26977 26.066 13.1641 -7.0087 4.75755 59.5672
9161687 12.0145 8.73944 25.4754 13.383 -6.44476 4.55554 59.6123
9161698 12.0145 8.73944 25.4754 13.383 -6.44476 4.55554 59.6123
9161709 11.8031 9.05255 24.7863 13.659 -5.85061 4.44926 59.301
9161720 11.6534 9.34724 24.2449 14.1064 -5.2419 4.38504 59.3519
9161729 11.6534 9.34724 24.2449 14.1064 -5.2419 4.38504 59.3519
9161744 11.486 9.64193 23.6346 14.5918 -4.58554 4.32112 59.3544
9161749 11.486 9.64193 23.6346 14.5918 -4.58554 4.32112 59.3544
9161758 11.2834 9.89057 23.0834 15.0963 -3.95086 4.29772 59.3537
9161769 11.1161 10.2221 22.601 15.6293 -3.3011 4.25364 59.5686
9161792 10.8606 10.48 22.1285 16.0196 -2.72724 4.238 59.4887
9161800 10.6933 10.7839 21.6954 16.3623 -2.20147 4.17753 59.5348
9161810 10.6933 10.7839 21.6954 16.3623 -2.20147 4.17753 59.5348
9161821 10.5347 10.8483 21.3017 16.7049 -1.80298 4.1986 59.3896
9161830 10.3497 11.0417 20.9473 17.1169 -1.31965 4.20635 59.4557
9161848 10.3497 11.0417 20.9473 17.1169 -1.31965 4.20635 59.4557
9161850 10.1648 11.1798 20.5437 17.5456 -0.834154 4.22604 59.4339
9161860 10.1648 11.1798 20.5437 17.5456 -0.834154 4.22604 59.4339
9161876 9.90052 11.3088 20.2189 17.945 -0.364487 4.28339 59.3732
9161882 9.78601 11.3548 19.9826 18.3931 -0.00869334 4.34373 59.5166
9161907 9.64508 11.4745 19.6676 18.8218 0.412527 4.37093 59.609
9161911 9.37202 11.6127 19.2936 19.3966 0.98184 4.45048 59.6748
9161938 9.21347 11.6771 18.8703 19.8642 1.44971 4.48901 59.6251
9161941 9.21347 11.6771 18.8703 19.8642 1.44971 4.48901 59.6251
9161952 9.01969 11.7969 18.4667 20.3026 1.93546 4.51938 59.5858
9161962 8.79948 11.9258 18.0139 20.9066 2.52281 4.57582 59.6458
9161971 8.79948 11.9258 18.0139 20.9066 2.52281 4.57582 59.6458
9161984 8.70259 12.0547 17.6694 21.306 2.92502 4.5749 59.7327
9161991 8.50881 12.1652 17.2953 21.7249 3.38644 4.61004 59.6943
9162011 8.36788 12.2573 16.9584 22.0075 3.74992 4.61663 59.591
9162021 8.36788 12.2573 16.9584 22.0075 3.74992 4.61663 59.591
9162031 8.21813 12.4047 16.6049 22.2997 4.14992 4.60674 59.5274
9162042 8.17409 12.5612 16.2514 22.6797 4.53162 4.57437 59.6663
9162055 8.17409 12.5612 16.2514 22.6797 4.53162 4.57437 59.6663
9162062 8.01554 12.6165 15.8251 23.2252 5.02706 4.62908 59.6823
9162073 7.87461 12.7914 15.43 23.7805 5.53947 4.64567 59.8765
9162082 7.87461 12.7914 15.43 23.7805 5.53947 4.64567 59.8765
9162092 7.67202 13.0033 15.0141 24.2287 6.06905 4.64822 59.918
9162102 7.67202 13.0033 15.0141 24.2287 6.06905 4.64822 59.918
9162113 7.47824 13.1414 14.5462 24.6086 6.57705 4.65128 59.7744
9162122 7.31088 13.3348 14.2135 24.9885 7.01739 4.65089 59.8477
9162137 7.31088 13.3348 14.2135 24.9885 7.01739 4.65089 59.8477
9162144 7.08187 13.4637 13.8183 25.4172 7.51939 4.6896 59.7811
9162154 6.81762 13.5374 13.5064 26.0017 8.02458 4.79923 59.8631
9162163 6.81762 13.5374 13.5064 26.0017 8.02458 4.79923 59.8631
9162183 6.60622 13.6571 13.1633 26.596 8.53161 4.87216 60.0226
9162189 6.60622 13.6571 13.1633 26.596 8.53161 4.87216 60.0226
9162205 6.26269 13.786 12.8098 27.2292 9.12947 4.99027 60.0877
9162209 5.90155 13.8137 12.4459 27.765 9.69163 5.13024 59.9261
9162215 5.90155 13.8137 12.4459 27.765 9.69163 5.13024 59.9261
9162228 5.58446 13.9057 12.1547 28.0963 10.1533 5.21269 59.7412
9162235 5.28497 14.0347 11.8948 28.408 10.5929 5.27901 59.6225
9162245 5.28497 14.0347 11.8948 28.408 10.5929 5.27901 59.6225
9162255 5.13523 14.2189 11.7908 28.71 10.8608 5.29951 59.8549
9162276 4.83575 14.2465 11.5517 28.9731 11.2538 5.39598 59.607
9162285 4.70363 14.3478 11.4581 29.3628 11.5032 5.45397 59.8723
9162300 4.70363 14.3478 11.4581 29.3628 11.5032 5.45397 59.8723
9162306 4.51865 14.4859 11.3333 29.616 11.7799 5.49042 59.9539
9162322 4.41295 14.5964 11.167 29.8596 12.0245 5.501 60.0359
9162326 4.41295 14.5964 11.167 29.8596 12.0245 5.501 60.0359
9162336 4.20155 14.7806 11.0006 29.8011 12.2857 5.47461 59.7839
9162346 4.20155 14.7806 11.0006 29.8011 12.2857 5.47461 59.7839
9162356 4.18394 14.8727 10.9382 29.8304 12.3614 5.44385 59.8252
9162368 4.07824 15.0937 10.9382 29.8401 12.4759 5.40608 59.9503
9162376 4.07824 15.0937 10.9382 29.8401 12.4759 5.40608 59.9503
9162389 4.09585 15.2595 10.7927 29.8109 12.5844 5.3157 59.9589
9162396 4.12228 15.5173 10.7199 29.7232 12.6486 5.19371 60.0827
9162416 4.07824 15.7476 10.5327 29.4797 12.7913 5.06029 59.8382
9162426 4.07824 15.7476 10.5327 29.4797 12.7913 5.06029 59.8382
9162438 4.11347 15.941 10.4911 29.4115 12.8208 4.9656 59.957
9162446 4.08705 16.0515 10.4807 29.2361 12.8308 4.90641 59.8553
9162466 4.12228 16.208 10.3144 29.1095 12.92 4.79302 59.7541
9162476 4.11347 16.3462 10.3144 28.9536 12.922 4.72353 59.7276
9162492 4.11347 16.3462 10.3144 28.9536 12.922 4.72353 59.7276
9162496 4.16632 16.4843 10.252 28.8367 12.9323 4.62963 59.7393
9162506 4.16632 16.4843 10.252 28.8367 12.9323 4.62963 59.7393
9162519 4.21917 16.5672 10.2 28.6711 12.915 4.54714 59.6574
9162527 4.28083 16.6777 10.1584 28.486 12.8871 4.45092 59.6029
9162546 4.28083 16.6777 10.1584 28.486 12.8871 4.45092 59.6029
9162548 4.30725 16.825 10.1792 28.3496 12.8594 4.37383 59.6611
9162559 4.37772 16.7606 10.2416 28.1937 12.73 4.3552 59.5736
9162573 4.37772 16.7606 10.2416 28.1937 12.73 4.3552 59.5736
9162577 4.39534 16.7974 10.4183 28.0281 12.5806 4.33952 59.6392
9162587 4.39534 16.7974 10.4807 28.0281 12.5413 4.35066 59.7015
9162599 4.4658 16.8158 10.4807 27.8917 12.4723 4.29748 59.654
9162608 4.50104 16.7698 10.6679 27.804 12.3048 4.31879 59.7427
9162620 4.50104 16.7698 10.6679 27.804 12.3048 4.31879 59.7427
9162629 4.64197 16.6961 10.6991 27.5897 12.1358 4.26419 59.6268
9162646 4.77409 16.5764 11.0006 27.3364 11.7856 4.26887 59.6875
9162649 4.77409 16.5764 11.0006 27.3364 11.7856 4.26887 59.6875
9162659 4.87979 16.5395 11.1878 27.1903 11.565 4.25404 59.7974
9162682 4.96788 16.4567 11.3541 26.937 11.3336 4.23672 59.7156
9162691 5.18808 16.4659 11.5413 26.6447 11.0216 4.14406 59.8399
9162710 5.44352 16.3554 11.7076 26.2745 10.655 4.06063 59.781
9162729 5.7342 16.3646 11.9572 25.7289 10.2041 3.91086 59.7849
9162731 5.7342 16.3646 11.9572 25.7289 10.2041 3.91086 59.7849
9162740 6.03368 16.2356 12.0716 25.2321 9.80415 3.78552 59.573
9162757 6.32435 16.162 12.2795 24.6963 9.35654 3.65513 59.4621
9162771 6.6943 16.0146 12.5498 24.2579 8.83297 3.55332 59.5167
9162785 6.6943 16.0146 12.5498 24.2579 8.83297 3.55332 59.5167
9162791 6.85285 15.7936 12.893 23.7513 8.34831 3.54131 59.2907
9162801 7.09067 15.5726 13.3193 23.4006 7.81503 3.55065 59.3831
9162812 7.09067 15.5726 13.3193 23.4006 7.81503 3.55065 59.3831
9162822 7.24041 15.3608 13.7456 23.0011 7.31953 3.57523 59.3479
9162841 7.42539 14.974 14.359 22.6309 6.65967 3.68515 59.3894
9162842 7.42539 14.974 14.359 22.6309 6.65967 3.68515 59.3894
9162859 7.6456 14.7438 14.9621 22.29 6.047 3.73801 59.6414
9162862 7.6456 14.7438 14.9621 22.29 6.047 3.73801 59.6414
9162874 7.83938 14.3386 15.3988 21.949 5.48058 3.82267 59.5257
9162885 8.01554 14.0531 16.1058 21.6762 4.84871 3.93815 59.8507
9162909 8.19171 13.6847 16.6153 21.2281 4.23051 4.01046 59.7198
9162912 8.27979 13.3256 17.2362 20.965 3.66789 4.1624 59.8067
9162922 8.27979 13.3256 17.2362 20.965 3.66789 4.1624 59.8067
9162935 8.48238 13.0769 17.7284 20.5461 3.09701 4.19042 59.8339
9162942 8.48238 13.0769 17.7284 20.5461 3.09701 4.19042 59.8339
9162953 8.62332 12.6717 18.1812 20.137 2.51795 4.2834 59.6132
9162963 8.73782 12.4599 18.6636 19.6499 1.97794 4.31407 59.5112
9162974 8.73782 12.4599 18.6636 19.6499 1.97794 4.31407 59.5112
9162988 8.94041 12.2113 19.0869 19.3868 1.49719 4.35771 59.6254
9162993 9.03731 12.0179 19.5003 18.9874 1.03609 4.39158 59.5429
9163004 9.03731 12.0179 19.5003 18.9874 1.03609 4.39158 59.5429
9163014 9.12539 11.7232 20.0417 18.6562 0.508958 4.49631 59.5464
9163023 9.12539 11.7232 20.0417 18.6562 0.508958 4.49631 59.5464
9163039 9.26632 11.4193 20.652 18.286 -0.0893399 4.5919 59.6236
9163043 9.42487 11.1246 21.2525 17.8183 -0.727269 4.65983 59.6203
9163053 9.42487 11.1246 21.2525 17.8183 -0.727269 4.65983 59.6203
9163063 9.58342 10.8667 21.7742 17.4384 -1.27905 4.71712 59.6627
9163074 9.74197 10.6826 22.286 17.0974 -1.7757 4.75495 59.808
9163089 9.74197 10.6826 22.286 17.0974 -1.7757 4.75495 59.808
9163095 9.91813 10.4339 22.6995 16.7525 -2.27041 4.79063 59.804
9163105 10.0503 10.2037 23.1129 16.3147 -2.78345 4.81899 59.6815
9163115 10.0503 10.2037 23.1129 16.3147 -2.78345 4.81899 59.6815
9163125 10.1736 9.96425 23.6346 15.9339 -3.31205 4.88157 59.7064
9163136 10.1736 9.96425 23.6346 15.9339 -3.31205 4.88157 59.7064
9163146 10.2352 9.73402 24.117 15.5817 -3.78613 4.95981 59.668
9163159 10.3409 9.49458 24.6682 15.2867 -4.27656 5.04748 59.7904
9163166 10.3409 9.49458 24.6682 15.2867 -4.27656 5.04748 59.7904
9163176 10.5083 9.27356 25.0718 14.9726 -4.7362 5.08034 59.8262
9163187 10.5435 9.02492 25.5049 14.6394 -5.18486 5.16872 59.7128
9163197 10.5435 9.02492 25.5049 14.6394 -5.18486 5.16872 59.7128
9163207 10.6756 8.87757 25.8396 14.3539 -5.55839 5.18194 59.7467
9163217 10.6756 8.87757 25.8396 14.3539 -5.55839 5.18194 59.7467
9163229 10.7197 8.58288 26.2727 14.1064 -5.99143 5.29724 59.6817
9163237 10.8782 8.5 26.6369 13.8303 -6.34335 5.28587 59.8455
9163253 10.8782 8.5 26.6369 13.8303 -6.34335 5.28587 59.8455
9163257 11.028 8.28819 27.0307 13.5353 -6.77798 5.3229 59.8821
9163267 11.257 8.10401 27.3949 13.126 -7.27345 5.3004 59.8819
9163281 11.257 8.10401 27.3949 13.126 -7.27345 5.3004 59.8819
9163297 11.4948 7.93824 27.7099 12.7833 -7.71079 5.27152 59.9263
9163298 11.4948 7.93824 27.7099 12.7833 -7.71079 5.27152 59.9263
9163309 11.8912 7.77248 27.7591 12.3931 -8.14365 5.13789 59.8158
9163319 12.2347 7.61593 27.7493 11.9838 -8.5528 5.00533 59.5837
9163331 12.2347 7.61593 27.7493 11.9838 -8.5528 5.00533 59.5837
9163339 12.6135 7.5883 27.6607 11.5745 -8.87975 4.80342 59.4369
9163354 12.9658 7.40412 27.6213 11.2604 -9.24981 4.68639 59.2516
9163359 12.9658 7.40412 27.6213 11.2604 -9.24981 4.68639 59.2516
9163369 13.3005 7.33965 27.5819 11.0129 -9.50871 4.54663 59.235
9163379 13.3005 7.33965 27.5819 11.0129 -9.50871 4.54663 59.235
9163390 13.6088 7.15547 27.6312 10.8606 -9.79812 4.48751 59.256
9163402 13.7938 7.04496 27.7394 10.7368 -10.0107 4.4603 59.315
9163410 13.7938 7.04496 27.7394 10.7368 -10.0107 4.4603 59.315
9163424 13.8819 6.91603 27.8182 10.7368 -10.1289 4.48768 59.3529
9163430 13.9964 6.89762 27.9757 10.7368 -10.2076 4.48404 59.6065
9163440 13.9964 6.89762 27.9757 10.7368 -10.2076 4.48404 59.6065
9163451 13.9876 6.86078 28.143 10.794 -10.2349 4.53839 59.7853
9163460 13.9699 6.75948 28.2907 10.8701 -10.2817 4.61629 59.8902
9163479 13.9699 6.75948 28.2907 10.8701 -10.2817 4.61629 59.8902
9163481 14.1285 6.72264 28.4876 10.9082 -10.3679 4.61715 60.2469
9163501 14.1813 6.5753 28.6352 10.7749 -10.5816 4.65044 60.1668
9163511 14.3135 6.50163 28.7533 10.6512 -10.7581 4.6304 60.2196
9163532 14.3927 6.50163 28.6844 10.4703 -10.8683 4.56136 60.0491
9163542 14.4192 6.43716 28.6844 10.3466 -10.9872 4.55221 59.8873
9163552 14.4192 6.43716 28.6844 10.3466 -10.9872 4.55221 59.8873
9163570 14.5073 6.29903 28.5663 10.2514 -11.121 4.53125 59.624
9163572 14.5073 6.29903 28.5663 10.2514 -11.121 4.53125 59.624
9163582 14.4456 6.22535 28.5663 10.2228 -11.1687 4.57068 59.4601
9163592 14.4544 6.17931 28.6549 10.1943 -11.2367 4.59346 59.4829
9163614 14.3663 6.14247 28.773 10.28 -11.214 4.67015 59.5618
9163624 14.3839 6.03196 28.901 10.3847 -11.2511 4.74102 59.7015
9163643 14.2254 6.03196 28.9994 10.556 -11.1334 4.83962 59.8128
9163663 14.1021 6.00433 28.9305 10.6797 -11.0306 4.8991 59.7167
9163665 14.1021 6.00433 28.9305 10.6797 -11.0306 4.8991 59.7167
9163675 14.0404 6.01354 28.8419 10.8511 -10.8866 4.93055 59.7469
9163690 14.0404 6.01354 28.8419 10.8511 -10.8866 4.93055 59.7469
9163693 13.9435 6.08722 28.6746 10.9843 -10.6997 4.93256 59.6896
9163705 13.8819 6.13326 28.4482 11.2413 -10.4496 4.94293 59.7046
9163715 13.8819 6.13326 28.4482 11.2413 -10.4496 4.94293 59.7046
9163725 13.7674 6.26219 28.2119 11.4983 -10.1351 4.94161 59.7398
9163736 13.7674 6.26219 28.2119 11.4983 -10.1351 4.94161 59.7398
9163745 13.6705 6.32665 27.8576 11.7268 -9.8498 4.9312 59.5814
9163764 13.5207 6.50163 27.3851 12.1265 -9.35501 4.91045 59.534
9163765 13.5207 6.50163 27.3851 12.1265 -9.35501 4.91045 59.534
9163775 13.3622 6.63976 26.8535 12.7072 -8.75917 4.92559 59.5626
9163794 13.1155 6.86999 26.381 13.2212 -8.14153 4.93809 59.5877
9163797 13.1155 6.86999 26.381 13.2212 -8.14153 4.93809 59.5877
9163805 12.9306 7.10943 25.8396 13.7923 -7.48614 4.92491 59.6719
9163824 12.9306 7.10943 25.8396 13.7923 -7.48614 4.92491 59.6719
9163825 12.6839 7.36728 25.1506 14.2872 -6.79957 4.88827 59.489
9163835 12.3756 7.73564 24.6091 14.7917 -6.07331 4.86192 59.5122
9163855 12.1819 8.04875 24.0087 15.3343 -5.37467 4.81229 59.5736
9163866 11.9 8.43554 23.5067 15.7816 -4.6917 4.76808 59.6238
9163879 11.9 8.43554 23.5067 15.7816 -4.6917 4.76808 59.6238
9163886 11.6446 8.73944 22.916 16.2004 -4.04228 4.72244 59.5005
9163907 11.6446 8.73944 22.916 16.2004 -4.04228 4.72244 59.5005
9163911 11.4155 9.1078 22.3057 16.7144 -3.31649 4.65966 59.5435
9163916 11.1513 9.47616 21.597 17.3312 -2.49384 4.60932 59.5557
9163935 11.1513 9.47616 21.597 17.3312 -2.49384 4.60932 59.5557
9163936 10.8606 9.78927 20.9473 17.8281 -1.76296 4.5752 59.4253
9163946 10.5964 10.1668 20.2878 18.3834 -0.981724 4.51959 59.4344
9163967 10.3409 10.4892 19.579 19.0946 -0.141272 4.49808 59.5037
9163989 10.0238 10.6733 18.9195 19.796 0.642115 4.54911 59.4127
9163997 9.75959 10.968 18.3387 20.4487 1.39394 4.55174 59.5151
9164014 9.75959 10.968 18.3387 20.4487 1.39394 4.55174 59.5151
9164017 9.52176 11.1614 17.6891 21.1989 2.16106 4.58395 59.5711
9164027 9.29275 11.4009 17.1181 21.8711 2.87397 4.5982 59.6828
9164039 9.29275 11.4009 17.1181 21.8711 2.87397 4.5982 59.6828
9164047 8.96684 11.7324 16.5217 22.4848 3.65486 4.59938 59.7058
9164070 8.70259 12.0915 15.8355 23.1375 4.47195 4.56242 59.7672
9164077 8.38549 12.6441 15.0349 23.8 5.43885 4.4614 59.8644
9164092 8.38549 12.6441 15.0349 23.8 5.43885 4.4614 59.8644
9164097 8.00674 13.0769 14.2862 24.3748 6.34313 4.41312 59.7447
9164118 7.58394 13.519 13.6104 24.8521 7.2092 4.37157 59.5654
9164119 7.58394 13.519 13.6104 24.8521 7.2092 4.37157 59.5654
9164127 7.26684 13.9334 13.1009 25.047 7.84044 4.28347 59.3481
9164151 7.26684 13.9334 13.1009 25.047 7.84044 4.28347 59.3481
9164153 6.96736 14.1544 12.7682 25.2418 8.31223 4.28406 59.1318
9164159 6.72953 14.357 12.581 25.5341 8.69085 4.31456 59.2017
9164180 6.72953 14.357 12.581 25.5341 8.69085 4.31456 59.2017
9164182 6.52694 14.4215 12.4355 26.0797 9.05542 4.4313 59.4635
9164190 6.35959 14.5596 12.3939 26.5278 9.33055 4.5126 59.8409
9164210 6.15699 14.5596 12.1963 26.898 9.65721 4.60896 59.8109
9164220 6.0513 14.6425 11.978 27.1513 9.93116 4.62251 59.823
9164240 5.92798 14.6241 11.9156 27.3169 10.0768 4.68695 59.7845
9164258 5.92798 14.6241 11.9156 27.3169 10.0768 4.68695 59.7845
9164261 5.81347 14.6885 11.77 27.3754 10.2605 4.68841 59.6474
9164271 5.86632 14.7254 11.6557 27.5507 10.349 4.66939 59.798
9164284 5.86632 14.7254 11.6557 27.5507 10.349 4.66939 59.798
9164292 5.78705 14.7714 11.4061 27.6774 10.5863 4.65906 59.6419
9164309 5.79586 15.0108 11.2398 27.6676 10.7357 4.54684 59.7141
9164316 5.79586 15.0108 11.2398 27.6676 10.7357 4.54684 59.7141
9164323 5.72539 15.1582 11.0006 27.4825 10.913 4.44683 59.3667
9164334 5.72539 15.1582 11.0006 27.4825 10.913 4.44683 59.3667
9164341 5.70777 15.4068 10.8239 27.4338 11.078 4.33108 59.3723
9164351 5.56684 15.6278 10.6679 27.6481 11.3598 4.31553 59.5107
9164362 5.56684 15.6278 10.6679 27.6481 11.3598 4.31553 59.5107
9164372 5.39067 15.9133 10.5847 27.7845 11.6143 4.28967 59.6732
9164385 5.30259 16.0146 10.5223 27.8819 11.7511 4.29169 59.7215
9164395 5.30259 16.0146 10.5223 27.8819 11.7511 4.29169 59.7215
9164402 5.16166 16.2172 10.356 28.0963 12.0321 4.28039 59.8311
9164413 5.16166 16.2172 10.356 28.0963 12.0321 4.28039 59.8311
9164422 4.97668 16.3185 10.304 28.2424 12.2324 4.32421 59.8416
9164436 4.80052 16.4567 10.2416 28.3788 12.4393 4.34968 59.8776
9164442 4.80052 16.4567 10.2416 28.3788 12.4393 4.34968 59.8776
9164452 4.72124 16.6593 10.0648 28.5444 12.6762 4.30792 59.9898
9164462 4.53627 16.7421 9.90887 28.5736 12.9142 4.31823 59.7609
9164485 4.39534 17.0973 9.7633 28.5347 13.1598 4.21606 59.7906
9164495 4.39534 17.0973 9.7633 28.5347 13.1598 4.21606 59.7906
9164514 4.29845 17.2723 9.55535 28.5054 13.3838 4.14798 59.6316
9164526 4.28083 17.6516 9.45138 28.4567 13.526 4.00456 59.8405
9164529 4.28083 17.6516 9.45138 28.4567 13.526 4.00456 59.8405
9164542 4.22798 17.9725 9.27462 28.1937 13.6854 3.83813 59.6688
9164545 4.16632 18.2449 9.18104 28.0086 13.8027 3.71936 59.6008
9164555 4.16632 18.2449 9.18104 28.0086 13.8027 3.71936 59.6008
9164568 4.10466 18.4199 9.11865 27.7553 13.869 3.62367 59.3985
9164575 4.10466 18.4199 9.09786 27.7553 13.8826 3.61969 59.3777
9164585 4.10466 18.6436 9.09786 27.5117 13.8789 3.50283 59.3579
9164597 4.15751 18.77 9.23303 27.2877 13.7376 3.42983 59.4482
9164621 4.22798 19.0132 9.3578 27.0246 13.607 3.30607 59.6236
9164625 4.33368 19.0715 9.53456 26.8201 13.3967 3.25037 59.7598
9164635 4.33368 19.0715 9.53456 26.8201 13.3967 3.25037 59.7598
9164646 4.37772 19.159 9.60734 26.557 13.2874 3.1727 59.7011
9164655 4.52746 19.0618 9.83609 26.2842 12.9722 3.14801 59.7096
9164667 4.52746 19.0618 9.83609 26.2842 12.9722 3.14801 59.7096
9164676 4.65078 19.1007 10.044 25.9433 12.7008 3.07234 59.7388
9164690 4.65078 19.1007 10.044 25.9433 12.7008 3.07234 59.7388
9164696 4.86218 19.0229 10.3248 25.4659 12.2754 2.99257 59.6757
9164713 5.04715 18.9159 10.5847 25.0762 11.8913 2.94291 59.624
9164717 5.04715 18.9159 10.5847 25.0762 11.8913 2.94291 59.624
9164726 5.26736 18.8186 10.9486 24.667 11.4192 2.89682 59.7017
9164744 5.46114 18.6436 11.3021 24.2968 10.9613 2.88782 59.7037
9164748 5.46114 18.6436 11.3021 24.2968 10.9613 2.88782 59.7037
9164761 5.64611 18.4977 11.6557 23.8682 10.5016 2.86085 59.6677
9164776 5.64611 18.4977 11.6557 23.8682 10.5016 2.86085 59.6677
9164777 5.88394 18.2449 12.1235 23.3616 9.89658 2.85748 59.6139
9164787 6.19223 17.9336 12.6018 22.894 9.2389 2.86053 59.6217
9164800 6.19223 17.9336 12.6018 22.894 9.2389 2.86053 59.6217
9164810 6.41244 17.6613 13.1217 22.4264 8.61829 2.88677 59.6218
9164816 6.62383 17.4085 13.5168 22.0464 8.10221 2.9023 59.5955
9164827 6.62383 17.4085 13.5168 22.0464 8.10221 2.9023 59.5955
9164837 6.89689 17.1653 13.9535 21.6178 7.51787 2.89495 59.6335
9164852 6.89689 17.1653 13.9535 21.6178 7.51787 2.89495 59.6335
9164857 7.08187 16.8342 14.4214 21.1794 6.93515 2.94488 59.5169
9164867 7.29326 16.558 14.9621 20.7312 6.31202 2.98317 59.5445
9164878 7.29326 16.558 14.9621 20.7312 6.31202 2.98317 59.5445
9164887 7.55751 16.2449 15.378 20.3805 5.74617 3.01107 59.5609
9164901 7.74249 15.9686 15.7211 20.0883 5.28946 3.04894 59.5204
9164909 7.74249 15.9686 15.7211 20.0883 5.28946 3.04894 59.5204
9164917 7.8658 15.7844 16.1058 19.757 4.8602 3.07814 59.513
9164929 7.8658 15.7844 16.1058 19.757 4.8602 3.07814 59.513
9164939 8.02435 15.5265 16.5737 19.3771 4.32995 3.12593 59.5017
9164953 8.15648 15.2042 17.1969 19.0166 3.7212 3.23616 59.5742
9164959 8.15648 15.2042 17.1969 19.0166 3.7212 3.23616 59.5742
9164969 8.2886 14.9556 17.7087 18.6172 3.1792 3.29404 59.5701
9164979 8.44715 14.6609 18.2698 18.2957 2.61405 3.38278 59.6736
9164989 8.44715 14.6609 18.2698 18.2957 2.61405 3.38278 59.6736
9165004 8.57047 14.403 18.8014 17.9742 2.09434 3.46502 59.7491
9165020 8.74663 14.0715 19.4609 17.3994 1.36707 3.52947 59.6785
9165030 9.04611 13.7492 20.1401 16.981 0.644195 3.58645 59.9164
9165040 9.04611 13.7492 20.1401 16.981 0.644195 3.58645 59.9164
9165050 9.31917 13.3532 20.5929 16.4194 -0.0584498 3.60392 59.6847
9165060 9.50414 12.9848 21.0162 15.8578 -0.706561 3.63485 59.363
9165074 9.50414 12.9848 21.0162 15.8578 -0.706561 3.63485 59.363
9165081 9.70674 12.6165 21.5478 15.5056 -1.31889 3.72121 59.3766
9165112 9.70674 12.6165 21.5478 15.5056 -1.31889 3.72121 59.3766
9165114 9.81244 12.2021 22.1089 15.1629 -1.92131 3.86024 59.2863
9165115 9.93575 11.7784 22.8373 14.8298 -2.59544 4.02978 59.3813
9165137 10.0679 11.3824 23.4968 14.5062 -3.22778 4.17622 59.4533
9165141 10.2528 10.968 24.3237 14.2206 -3.92699 4.34787 59.7652
9165151 10.2528 10.968 24.3237 14.2206 -3.92699 4.34787 59.7652
9165167 10.4819 10.5536 24.9045 13.8303 -4.60193 4.44183 59.7703
9165171 10.4819 10.5536 24.9045 13.8303 -4.60193 4.44183 59.7703
9165182 10.7197 10.1668 25.5837 13.4211 -5.30773 4.53777 59.8913
9165192 11.0984 9.70639 26.0365 12.8975 -6.08105 4.55211 59.7389
9165202 11.0984 9.70639 26.0365 12.8975 -6.08105 4.55211 59.7389
9165214 11.3627 9.34724 26.568 12.4882 -6.73259 4.60453 59.7662
9165225 11.6446 8.94204 26.9618 12.1741 -7.32143 4.65888 59.7225
9165238 11.6446 8.94204 26.9618 12.1741 -7.32143 4.65888 59.7225
9165242 11.8912 8.65656 27.4244 11.7553 -7.9125 4.67926 59.7275
9165253 11.8912 8.65656 27.4244 11.7553 -7.9125 4.67926 59.7275
9165264 12.1026 8.30661 27.9068 11.4412 -8.47661 4.75394 59.7572
9165272 12.3228 8.03034 28.4876 11.1557 -9.0107 4.82281 59.9963
9165293 12.5518 7.72644 28.8911 10.8225 -9.54046 4.85951 59.9919
9165302 12.7808 7.35807 29.0683 10.4894 -10.0515 4.87937 59.6966
9165325 13.0451 7.10943 29.1274 10.2038 -10.4476 4.83562 59.4857
9165356 13.2212 6.75027 29.3144 10.0515 -10.8422 4.90274 59.3374
9165356 13.4062 6.5753 29.5507 9.95633 -11.1052 4.92334 59.4885
9165364 13.4062 6.5753 29.5507 9.95633 -11.1052 4.92334 59.4885
9165384 13.5383 6.40953 29.8952 9.88018 -11.3623 4.97984 59.7233
9165385 13.6529 6.19772 30.2003 9.82307 -11.6212 5.05382 59.874
9165398 13.6529 6.19772 30.2003 9.82307 -11.6212 5.05382 59.874
9165410 13.7321 6.13326 30.2102 9.70885 -11.7506 5.03149 59.7844
9165423 13.8995 5.99512 30.2102 9.62318 -11.9255 5.00739 59.728
9165435 14.0492 5.99512 30.1905 9.54703 -12.0009 4.94126 59.7819
9165459 14.243 5.94908 30.22 9.50896 -12.1013 4.89066 59.9211
9165464 14.3223 5.87541 30.1314 9.42329 -12.1983 4.85931 59.7524
9165489 14.3839 5.90303 29.9838 9.33763 -12.216 4.78987 59.6084
9165505 14.4456 5.83857 29.8361 9.33763 -12.2379 4.76545 59.4579
9165517 14.5073 5.82015 29.9739 9.40425 -12.2504 4.78618 59.7056
9165525 14.5073 5.82015 29.9739 9.40425 -12.2504 4.78618 59.7056
9165550 14.472 5.80173 29.9444 9.3757 -12.2659 4.79404 59.5939
9165551 14.5161 5.78332 29.9444 9.41377 -12.2631 4.79205 59.6576
9165556 14.5161 5.78332 29.9444 9.41377 -12.2631 4.79205 59.6576
9165576 14.5601 5.73727 29.8755 9.39474 -12.2985 4.77765 59.5676
9165577 14.5953 5.74648 29.8164 9.41377 -12.2757 4.75602 59.572
9165586 14.5953 5.74648 29.8164 9.41377 -12.2757 4.75602 59.572
9165602 14.6922 5.82015 29.6589 9.528 -12.1455 4.69215 59.6993
9165617 14.6658 5.78332 29.5507 9.53751 -12.1334 4.69598 59.5373
9165631 14.7891 5.82015 29.5802 9.64222 -12.0784 4.66638 59.8317
9165647 14.7979 5.94908 29.4719 9.72788 -11.9243 4.61729 59.9468
9165659 14.8684 5.91224 29.1569 9.80403 -11.8465 4.56474 59.7416
9165684 14.7627 5.98592 28.9404 9.87066 -11.6885 4.54899 59.5596
9165688 14.7627 5.98592 28.9404 9.87066 -11.6885 4.54899 59.5596
9165699 14.7539 6.05959 28.7632 10.0134 -11.5137 4.52168 59.5901
9165711 14.7187 6.11484 28.8715 10.2228 -11.3689 4.5707 59.9278
9165719 14.7187 6.11484 28.8715 10.2228 -11.3689 4.5707 59.9278
9165737 14.5953 6.21614 28.7041 10.3466 -11.1659 4.5703 59.8622
9165770 14.5601 6.2714 28.3301 10.5941 -10.888 4.54165 59.7556
9165773 14.5601 6.2714 28.3301 10.5941 -10.888 4.54165 59.7556
9165775 14.3135 6.45558 27.8576 10.832 -10.4625 4.52092 59.4586
9165779 14.1373 6.62134 27.3752 11.2032 -9.98023 4.50472 59.3371
9165788 13.9964 6.73185 27.1587 11.6316 -9.57333 4.55204 59.5185
9165808 13.9964 6.73185 27.1587 11.6316 -9.57333 4.55204 59.5185
9165811 13.9523 6.97129 26.8732 12.0599 -9.10271 4.51315 59.8567
9165819 13.7057 7.13705 26.6566 12.4787 -8.64755 4.57482 59.9781
9165842 13.7057 7.13705 26.6566 12.4787 -8.64755 4.57482 59.9781
9165845 13.5648 7.33044 26.2334 12.7643 -8.22444 4.5337 59.8928
9165859 13.3534 7.487 25.8199 13.0308 -7.81335 4.52589 59.6911
9165881 13.2653 7.66197 25.3277 13.1545 -7.4805 4.43237 59.4095
9165882 13.2653 7.66197 25.3277 13.1545 -7.4805 4.43237 59.4095
9165889 13.186 7.82774 24.8848 13.4401 -7.07927 4.37602 59.3386
9165910 13.186 7.82774 24.8848 13.4401 -7.07927 4.37602 59.3386
9165913 13.0803 8.05796 24.5698 13.6209 -6.72992 4.31133 59.329
9165918 12.9394 8.16847 24.1859 13.8589 -6.3809 4.29489 59.1526
9165941 12.9394 8.16847 24.1859 13.8589 -6.3809 4.29489 59.1526
9165943 12.8513 8.38028 23.8217 14.2301 -5.93023 4.25588 59.2834
9165948 12.7632 8.63814 23.3787 14.4871 -5.49066 4.16701 59.2672
9165973 12.728 8.85915 22.9849 14.7727 -5.08937 4.08726 59.3448
9165980 12.6223 9.14464 22.5321 15.0297 -4.62681 3.9934 59.3287
9166003 12.5166 9.36566 22.1581 15.3152 -4.20928 3.94009 59.3555
9166010 12.5166 9.36566 22.1581 15.3152 -4.20928 3.94009 59.3555
9166039 12.4021 9.49458 21.6757 15.5627 -3.81352 3.89154 59.1351
9166040 12.2964 9.73402 21.2426 15.9815 -3.30078 3.84623 59.2545
9166041 12.2964 9.73402 21.2426 15.9815 -3.30078 3.84623 59.2545
9166060 12.2876 10.0103 20.6717 16.3147 -2.79766 3.71646 59.2842
9166062 12.1554 10.2405 20.2189 16.7811 -2.25298 3.68813 59.3959
9166074 12.1554 10.2405 20.2189 16.7811 -2.25298 3.68813 59.3959
9166087 12.085 10.48 19.5987 17.1266 -1.71912 3.58248 59.2903
9166092 11.9617 10.7102 19.0081 17.5066 -1.16284 3.50828 59.1865
9166116 11.9 10.9957 18.4076 18.0132 -0.5474 3.42025 59.3165
9166142 11.7326 11.1983 17.6694 18.6269 0.178629 3.38495 59.2272
9166143 11.4948 11.4469 16.9896 19.5622 1.0609 3.43148 59.4935
9166154 11.4948 11.4469 16.9896 19.5622 1.0609 3.43148 59.4935
9166172 11.1073 11.714 16.293 20.4974 2.01772 3.51504 59.6116
9166175 10.6052 12.0363 15.5028 21.384 3.07095 3.58953 59.5282
9166200 10.1119 12.4599 14.8789 22.1049 4.01892 3.62987 59.5556
9166216 9.62746 12.7914 14.2654 22.6894 4.87923 3.67231 59.3737
9166229 9.16062 13.1598 13.6624 23.3811 5.77703 3.7202 59.3639
9166246 8.70259 13.4913 13.1425 24.063 6.6117 3.79085 59.3995
9166256 8.24456 13.8781 12.6746 24.6963 7.41896 3.8445 59.4936
9166266 8.24456 13.8781 12.6746 24.6963 7.41896 3.8445 59.4936
9166282 7.73368 14.1912 12.0924 25.3295 8.29645 3.91689 59.3468
9166288 7.24041 14.5412 11.6349 25.6315 9.017 3.93362 59.048
9166308 6.87047 14.8267 11.3125 26.0017 9.59365 3.96969 59.0114
9166317 6.87047 14.8267 11.3125 26.0017 9.59365 3.96969 59.0114
9166334 6.50052 15.1029 11.0734 26.4693 10.1437 4.04235 59.1462
9166337 6.18342 15.3332 10.8758 26.9175 10.6185 4.11653 59.3099
9166366 5.91036 15.5265 10.8031 27.3461 10.9754 4.20709 59.5861
9166369 5.68135 15.6555 10.6783 27.7456 11.3124 4.28886 59.7607
9166379 5.68135 15.6555 10.6783 27.7456 11.3124 4.28886 59.7607
9166398 5.46114 15.7568 10.6159 28.0378 11.5737 4.3683 59.8716
9166400 5.46114 15.7568 10.6159 28.0378 11.5737 4.3683 59.8716
9166409 5.28497 15.6831 10.5847 28.2424 11.73 4.48005 59.7952
9166429 5.24093 15.7015 10.5015 28.4957 11.8681 4.51824 59.9397
9166431 5.24093 15.7015 10.5015 28.4957 11.8681 4.51824 59.9397
9166439 5.06477 15.6094 10.4703 28.71 12.0226 4.63779 59.8546
9166455 4.93264 15.5542 10.5327 28.9633 12.1085 4.75367 59.9829
9166460 4.93264 15.5542 10.5327 28.9633 12.1085 4.75367 59.9829
9166470 4.82694 15.4897 10.5327 29.0997 12.1894 4.83305 59.9491
9166480 4.82694 15.4897 10.5327 29.0997 12.1894 4.83305 59.9491
9166492 4.66839 15.3976 10.5015 29.1387 12.2962 4.91763 59.7062
9166506 4.62435 15.2042 10.5639 29.1777 12.2518 5.01417 59.5701
9166510 4.62435 15.2042 10.5639 29.1777 12.2518 5.01417 59.5701
9166521 4.68601 15.2226 10.6263 29.1679 12.1762 4.99613 59.7029
9166532 4.86218 15.149 10.6887 29.1971 12.0187 4.97722 59.897
9166541 4.86218 15.149 10.6887 29.1971 12.0187 4.97722 59.897
9166558 5.17047 15.1858 10.7511 29.1484 11.7884 4.86507 60.2558
9166561 5.3114 15.1858 10.7199 28.9536 11.6785 4.78047 60.1707
9166571 5.3114 15.1858 10.7199 28.9536 11.6785 4.78047 60.1707
9166584 5.32902 15.2503 10.5951 28.749 11.7129 4.6972 59.9234
9166593 5.32902 15.2503 10.5951 28.749 11.7129 4.6972 59.9234
9166610 5.27617 15.3884 10.4703 28.6029 11.8203 4.62236 59.7378
9166612 5.24093 15.6278 10.2832 28.4567 11.9783 4.49712 59.6087
9166622 5.24093 15.6278 10.2832 28.4567 11.9783 4.49712 59.6087
9166636 5.23212 15.7844 10.148 28.2327 12.0532 4.38509 59.3972
9166642 5.19689 16.1159 10.0024 28.0963 12.2084 4.23804 59.4115
9166652 5.19689 16.1159 10.0024 28.0963 12.2084 4.23804 59.4115
9166662 5.13523 16.383 9.90887 27.9307 12.3276 4.12448 59.3577
9166687 5.13523 16.383 9.90887 27.9307 12.3276 4.12448 59.3577
9166688 5.02953 16.6685 9.7841 27.8138 12.5087 4.02216 59.2959
9166694 4.92383 16.8711 9.7737 27.843 12.6307 3.99462 59.4116
9166702 4.92383 16.8711 9.7737 27.843 12.6307 3.99462 59.4116
9166716 4.89741 17.1556 9.63853 27.8527 12.794 3.8891 59.5443
9166724 4.81813 17.3112 9.64893 27.7553 12.8497 3.84864 59.5336
9166734 4.81813 17.3112 9.64893 27.7553 12.8497 3.84864 59.5336
9166747 4.74767 17.389 9.69052 27.7261 12.8779 3.84863 59.5533
9166774 4.58912 17.5543 9.72171 27.804 13.0082 3.86689 59.6692
9166775 4.60674 17.5738 9.80489 27.8722 12.9617 3.88336 59.8576
9166784 4.60674 17.5738 9.80489 27.8722 12.9617 3.88336 59.8576
9166802 4.53627 17.603 9.84648 27.8722 12.9859 3.90411 59.8579
9166806 4.51865 17.6516 9.95046 27.8917 12.9449 3.91716 60.0124
9166815 4.51865 17.6516 9.95046 27.8917 12.9449 3.91716 60.0124
9166829 4.47461 17.5835 10.0128 27.8235 12.9058 3.9515 59.8945
9166835 4.47461 17.5835 10.0128 27.8235 12.9058 3.9515 59.8945
9166845 4.42176 17.5933 10.1272 27.765 12.8571 3.97546 59.9073
9166855 4.47461 17.5641 10.304 27.4728 12.6465 3.94666 59.8154
9166865 4.47461 17.5641 10.304 27.4728 12.6465 3.94666 59.8154
9166882 4.48342 17.496 10.3976 27.2487 12.5213 3.9413 59.6257
9166886 4.47461 17.3598 10.7511 27.1805 12.2623 4.04004 59.766
9166896 4.47461 17.3598 10.7511 27.1805 12.2623 4.04004 59.766
9166908 4.54508 17.1167 11.0734 27.0246 11.9323 4.12558 59.7598
9166917 4.63316 16.9908 11.3437 26.898 11.6561 4.16376 59.8657
9166934 4.63316 16.9908 11.3437 26.898 11.6561 4.16376 59.8657
9166937 4.74767 16.7698 11.7596 26.6544 11.2282 4.22899 59.9315
9166947 4.74767 16.7698 11.7596 26.6544 11.2282 4.22899 59.9315
9166959 4.87979 16.3922 12.0612 26.2842 10.7919 4.29575 59.6174
9166971 5.07358 16.0975 12.5498 25.992 10.2432 4.36356 59.7129
9166985 5.07358 16.0975 12.5498 25.992 10.2432 4.36356 59.7129
9166987 5.32902 15.7384 13.1009 25.5926 9.58026 4.42416 59.7608
9166997 5.61088 15.4252 13.7352 24.9788 8.81086 4.43795 59.7501
9167009 5.61088 15.4252 13.7352 24.9788 8.81086 4.43795 59.7501
9167017 6.01606 15.0845 14.3798 24.4138 7.97339 4.43107 59.8941
9167035 6.01606 15.0845 14.3798 24.4138 7.97339 4.43107 59.8941
9167038 6.39482 14.6977 14.9413 23.7026 7.14146 4.40719 59.7364
9167049 6.72953 14.3017 15.7107 23.1668 6.27131 4.46835 59.9087
9167059 6.72953 14.3017 15.7107 23.1668 6.27131 4.46835 59.9087
9167069 7.05544 13.8781 16.3657 22.5335 5.42781 4.50398 59.8328
9167083 7.37254 13.4269 17.0984 21.9587 4.55866 4.57538 59.8566
9167089 7.37254 13.4269 17.0984 21.9587 4.55866 4.57538 59.8566
9167106 7.6456 13.0585 17.8466 21.2963 3.70221 4.62147 59.8469
9167109 7.6456 13.0585 17.8466 21.2963 3.70221 4.62147 59.8469
9167119 7.90984 12.6809 18.4076 20.663 2.94431 4.64619 59.6615
9167136 8.12124 12.3678 19.0376 20.0201 2.19533 4.67749 59.5468
9167140 8.12124 12.3678 19.0376 20.0201 2.19533 4.67749 59.5468
9167149 8.37668 11.9995 19.8153 19.4063 1.34812 4.74316 59.5977
9167166 8.72021 11.6035 20.4945 18.8315 0.511438 4.77849 59.6497
9167180 9.11658 11.3272 21.2525 18.1203 -0.385138 4.74677 59.8166
9167197 9.11658 11.3272 21.2525 18.1203 -0.385138 4.74677 59.8166
9167200 9.42487 10.9404 21.9514 17.341 -1.29692 4.75892 59.6576
9167210 9.75078 10.572 22.6601 16.7335 -2.13733 4.79033 59.7164
9167236 9.95337 10.2497 23.2507 16.1148 -2.87046 4.8253 59.5686
9167241 10.1472 9.89057 23.9102 15.5817 -3.60537 4.90199 59.5297
9167251 10.1472 9.89057 23.9102 15.5817 -3.60537 4.90199 59.5297
9167261 10.385 9.59588 24.5599 14.963 -4.36357 4.92627 59.5038
9167277 10.385 9.59588 24.5599 14.963 -4.36357 4.92627 59.5038
9167281 10.7109 9.19989 25.3573 14.4966 -5.17514 5.00541 59.7647
9167292 11.0192 8.9052 25.8593 13.9255 -5.88173 4.9893 59.7092
9167304 11.0192 8.9052 25.8593 13.9255 -5.88173 4.9893 59.7092
9167315 11.3187 8.69339 26.381 13.4115 -6.51904 4.96128 59.8046
9167328 11.6446 8.36186 26.9027 12.9832 -7.18047 4.97881 59.8923
9167332 11.6446 8.36186 26.9027 12.9832 -7.18047 4.97881 59.8923
9167342 11.8207 7.9935 27.3654 12.5739 -7.78979 5.05202 59.7535
9167355 11.9705 7.67118 27.828 12.2598 -8.31562 5.1347 59.7295
9167381 12.0674 7.44095 28.271 12.0504 -8.71098 5.21808 59.8297
9167382 12.0674 7.44095 28.271 12.0504 -8.71098 5.21808 59.8297
9167394 12.1731 7.10022 28.6549 11.7744 -9.19282 5.31535 59.7025
9167408 12.2964 6.92524 29.0191 11.5935 -9.52495 5.36257 59.8342
9167424 12.4549 6.62134 29.3439 11.3555 -9.96306 5.42609 59.7758
9167436 12.499 6.38191 29.6294 11.2032 -10.2754 5.51428 59.7135
9167444 12.499 6.38191 29.6294 11.2032 -10.2754 5.51428 59.7135
9167461 12.5078 6.19772 29.8066 11.0795 -10.5036 5.58315 59.5916
9167465 12.5078 6.19772 29.8066 11.0795 -10.5036 5.58315 59.5916
9167475 12.4725 5.99512 30.1118 11.1081 -10.6727 5.71782 59.6875
9167487 12.4813 5.84778 30.4563 11.1747 -10.8052 5.82934 59.9601
9167495 12.4813 5.84778 30.4563 11.1747 -10.8052 5.82934 59.9601
9167514 12.3845 5.72806 30.5744 11.2128 -10.859 5.92858 59.8997
9167517 12.4285 5.6636 30.7614 11.2032 -10.9576 5.9625 60.0568
9167526 12.4285 5.6636 30.7614 11.2032 -10.9576 5.9625 60.0568
9167542 12.4021 5.60834 30.8599 11.2889 -10.9562 6.01862 60.1592
9167547 12.4021 5.60834 30.8599 11.2889 -10.9562 6.01862 60.1592
9167556 12.4109 5.51625 30.9386 11.2318 -11.0659 6.05098 60.0976
9167569 12.4021 5.54388 31.0961 11.2223 -11.0895 6.06638 60.2644
9167576 12.4021 5.54388 31.0961 11.2223 -11.0895 6.06638 60.2644
9167597 12.3845 5.49783 31.1552 11.1747 -11.1552 6.09036 60.2122
9167600 12.4285 5.40574 31.0863 11.1652 -11.2106 6.0956 60.0857
9167606 12.4285 5.40574 31.0863 11.1652 -11.2106 6.0956 60.0857
9167625 12.3316 5.48862 31.0469 11.2032 -11.1064 6.10032 60.0704
9167637 12.2964 5.36891 31.0764 11.2128 -11.1714 6.16065 59.9545
9167651 12.314 5.21235 31.1158 11.2699 -11.2446 6.22396 59.912
9167657 12.314 5.21235 31.1158 11.2699 -11.2446 6.22396 59.912
9167667 12.2083 5.28602 31.0961 11.346 -11.1253 6.24357 59.9365
9167680 12.2259 5.26761 31.1552 11.3365 -11.1598 6.25109 59.9852
9167689 12.2259 5.26761 31.1552 11.3365 -11.1598 6.25109 59.9852
9167707 12.2171 5.3597 31.1257 11.4222 -11.0441 6.22982 60.1246
9167709 12.129 5.37811 31.0272 11.5649 -10.9041 6.2609 60.0993
9167734 12.1114 5.32286 30.9977 11.603 -10.9033 6.28795 60.035
9167739 12.1114 5.32286 30.9977 11.603 -10.9033 6.28795 60.035
9167750 12.0585 5.34128 30.9091 11.6316 -10.8419 6.29145 59.9405
9167763 12.0057 5.34128 31.0469 11.7839 -10.7712 6.35213 60.1778
9167770 12.0057 5.34128 31.0469 11.7839 -10.7712 6.35213 60.1778
9167792 11.9705 5.3597 30.8796 11.9457 -10.6161 6.35731 60.1554
9167794 11.8471 5.34128 30.6925 12.0409 -10.496 6.39458 59.9218
9167800 11.8471 5.34128 30.6925 12.0409 -10.496 6.39458 59.9218
9167810 11.8736 5.461 30.5055 12.1075 -10.3468 6.32514 59.9476
9167830 11.8648 5.47941 30.3382 12.2503 -10.2086 6.31816 59.9326
9167840 11.8471 5.58072 30.1511 12.4026 -10.0093 6.28339 59.9816
9167850 11.8471 5.58072 30.1511 12.4026 -10.0093 6.28339 59.9816
9167864 11.8295 5.60834 29.905 12.631 -9.79393 6.27727 59.9739
9167870 11.7943 5.75569 29.5605 12.8309 -9.49603 6.21643 59.9414
9167880 11.7943 5.75569 29.5605 12.8309 -9.49603 6.21643 59.9414
9167894 11.7062 5.90303 29.2554 13.0213 -9.19969 6.1786 59.8859
9167900 11.7062 5.90303 29.2554 13.0213 -9.19969 6.1786 59.8859
9167910 11.6798 5.9675 28.8518 13.3354 -8.86975 6.15194 59.8344
9167921 11.5477 6.14247 28.458 13.6114 -8.4722 6.11935 59.7596
9167931 11.5477 6.14247 28.458 13.6114 -8.4722 6.11935 59.7596
9167948 11.5389 6.38191 27.956 13.8779 -8.04749 6.00283 59.7547
9167959 11.2306 6.48321 27.4835 14.411 -7.47375 6.0849 59.6082
9167976 11.1337 6.75948 26.8929 14.9535 -6.82694 6.01442 59.7396
9167982 11.1337 6.75948 26.8929 14.9535 -6.82694 6.01442 59.7396
9168004 10.9399 7.01733 26.1644 15.4961 -6.11853 5.96382 59.6178
9168005 10.6756 7.43174 25.249 16.2195 -5.15033 5.88185 59.5759
9168022 10.429 7.82774 23.9792 17.3117 -3.89129 5.80228 59.5477
9168032 10.1207 8.43554 22.9554 18.51 -2.55348 5.72522 60.0217
9168042 10.1207 8.43554 22.9554 18.51 -2.55348 5.72522 60.0217
9168058 9.82124 9.0065 21.8923 19.4355 -1.3596 5.61047 60.1556
9168063 9.82124 9.0065 21.8923 19.4355 -1.3596 5.61047 60.1556
9168074 9.50414 9.44854 20.8095 20.1467 -0.299786 5.50925 59.9089
9168086 9.2487 9.86295 19.8645 20.702 0.608155 5.39264 59.6782
9168093 9.2487 9.86295 19.8645 20.702 0.608155 5.39264 59.6782
9168112 8.99326 10.2589 18.949 21.1989 1.47958 5.27668 59.4001
9168115 8.79067 10.7286 18.1025 21.8321 2.38316 5.15071 59.4539
9168123 8.79067 10.7286 18.1025 21.8321 2.38316 5.15071 59.4539
9168139 8.6057 11.143 17.2166 22.4166 3.25746 5.02286 59.3819
9168143 8.6057 11.143 17.2166 22.4166 3.25746 5.02286 59.3819
9168154 8.40311 11.5022 16.5113 22.855 3.98284 4.92505 59.2716
9168167 8.25337 11.981 15.9291 23.1765 4.62383 4.77026 59.34
9168174 8.25337 11.981 15.9291 23.1765 4.62383 4.77026 59.34
9168184 8.05078 12.3494 15.3572 23.3908 5.21245 4.65302 59.1482
9168193 7.93627 12.6809 15.1076 23.7903 5.64028 4.60741 59.5151
9168204 7.93627 12.6809 15.1076 23.7903 5.64028 4.60741 59.5151
9168221 7.82176 12.9388 14.6398 24.3943 6.21777 4.58406 59.7946
9168225 7.66321 13.2243 14.1511 24.8034 6.77343 4.52868 59.842
9168259 7.46062 13.5098 13.6416 25.3003 7.38907 4.49946 59.9122
9168261 7.46062 13.5098 13.6416 25.3003 7.38907 4.49946 59.9122
9168265 7.23161 13.7308 13.1633 25.5536 7.9129 4.46248 59.6793
9168290 7.02021 13.8597 12.7578 25.953 8.40512 4.48834 59.5907
9168292 7.02021 13.8597 12.7578 25.953 8.40512 4.48834 59.5907
9168296 6.83523 14.0439 12.4563 26.4986 8.87913 4.53147 59.8339
9168306 6.59741 14.1268 12.1651 27.0734 9.35481 4.63146 59.9627
9168318 6.59741 14.1268 12.1651 27.0734 9.35481 4.63146 59.9627
9168326 6.29793 14.2557 11.8636 27.6092 9.87204 4.72771 60.0264
9168343 6.29793 14.2557 11.8636 27.6092 9.87204 4.72771 60.0264
9168346 5.91917 14.2465 11.4477 27.9307 10.4168 4.83996 59.544
9168356 5.60207 14.3294 11.2502 28.1937 10.8087 4.92943 59.3753
9168376 5.36425 14.2925 11.115 28.6126 11.1249 5.06972 59.3844
9168393 5.10881 14.2649 11.1254 29.1095 11.3827 5.24953 59.6085
9168397 5.10881 14.2649 11.1254 29.1095 11.3827 5.24953 59.6085
9168407 4.91503 14.3754 10.9486 29.5186 11.7267 5.31567 59.7577
9168421 4.91503 14.3754 10.9486 29.5186 11.7267 5.31567 59.7577
9168427 4.65959 14.4399 10.7823 29.8109 12.0655 5.4011 59.6926
9168437 4.51865 14.6977 10.7511 29.8791 12.2426 5.36717 59.8465
9168461 4.39534 14.9003 10.5535 30.0642 12.5246 5.33822 59.9134
9168467 4.2544 15.1582 10.3976 30.0739 12.7664 5.27491 59.8841
9168494 4.2544 15.1582 10.3976 30.0739 12.7664 5.27491 59.8841
9168497 4.1487 15.3239 10.2936 30.1032 12.9385 5.24243 59.8694
9168498 4.1487 15.3239 10.2936 30.1032 12.9385 5.24243 59.8694
9168509 4.0342 15.5358 10.1376 30.1129 13.1547 5.18566 59.8205
9168528 3.97254 15.8489 10.044 30.0057 13.2944 5.06797 59.8712
9168531 3.97254 15.8489 10.044 30.0057 13.2944 5.06797 59.8712
9168539 3.88446 16.0699 9.87768 29.9668 13.493 4.98926 59.7988
9168563 3.86684 16.3093 9.7841 29.8596 13.59 4.88154 59.8199
9168566 3.86684 16.3093 9.7841 29.8596 13.59 4.88154 59.8199
9168570 3.8228 16.6593 9.63853 29.7524 13.7584 4.73725 59.873
9168596 3.8228 16.6593 9.49297 29.7524 13.8529 4.71224 59.7275
9168596 3.78756 16.9171 9.49297 29.6258 13.9002 4.6171 59.8234
9168605 3.81399 17.2431 9.3682 29.5186 14.0046 4.46159 59.9439
9168610 3.81399 17.2431 9.3682 29.5186 14.0046 4.46159 59.9439
9168626 3.84922 17.4765 9.27462 29.1971 14.0264 4.30101 59.7975
9168631 3.84041 17.6808 9.12905 28.9731 14.1238 4.17142 59.6233
9168641 3.84041 17.6808 9.12905 28.9731 14.1238 4.17142 59.6233
9168655 3.93731 17.9434 9.11865 28.6321 14.0528 3.99204 59.6314
9168661 3.86684 18.0114 9.17064 28.4275 14.0398 3.96456 59.4764
9168683 3.86684 18.0114 9.17064 28.4275 14.0398 3.96456 59.4764
9168684 3.97254 18.1962 9.16024 28.2229 13.9737 3.83222 59.5519
9168691 3.97254 18.1962 9.16024 28.2229 13.9737 3.83222 59.5519
9168701 4.08705 18.2935 9.27462 27.9599 13.7934 3.73748 59.615
9168717 4.19275 18.4394 9.31621 27.7553 13.6867 3.62777 59.7036
9168739 4.31606 18.4977 9.31621 27.5117 13.5715 3.52459 59.6417
9168751 4.36891 18.4783 9.47217 27.3072 13.3935 3.50486 59.6265
9168771 4.50984 18.5561 9.68012 26.9954 13.1238 3.41713 59.7414
9168781 4.65078 18.4685 9.7633 26.6155 12.8869 3.34283 59.4981
9168801 4.77409 18.4394 9.97125 26.3232 12.6106 3.29729 59.5079
9168803 4.77409 18.4394 9.97125 26.3232 12.6106 3.29729 59.5079
9168813 4.94145 18.4199 10.1896 25.9627 12.2878 3.22388 59.5137
9168830 4.94145 18.4199 10.1896 25.9627 12.2878 3.22388 59.5137
9168832 5.09119 18.3324 10.5327 25.6218 11.8879 3.20527 59.5781
9168842 5.33782 18.2351 10.8654 25.2321 11.4227 3.14844 59.6705
9168857 5.33782 18.2351 10.8654 25.2321 11.4227 3.14844 59.6705
9168862 5.54041 18.0406 11.1046 24.9593 11.0466 3.1393 59.6449
9168872 5.71658 17.8169 11.5725 24.5501 10.5094 3.16542 59.6561
9168884 5.71658 17.8169 11.5725 24.5501 10.5094 3.16542 59.6561
9168892 5.96321 17.5933 11.9572 24.0046 9.94546 3.12643 59.5182
9168910 5.96321 17.5933 11.9572 24.0046 9.94546 3.12643 59.5182
9168912 6.07772 17.2431 12.4563 23.537 9.3764 3.20473 59.3141
9168923 6.32435 17.0681 13.1529 23.1375 8.68271 3.24164 59.6829
9168939 6.32435 17.0681 13.1529 23.1375 8.68271 3.24164 59.6829
9168942 6.46528 16.7882 13.6832 22.8258 8.14287 3.32705 59.7624
9168952 6.61503 16.5211 14.3382 22.3679 7.49294 3.40144 59.8423
9168966 6.61503 16.5211 14.3382 22.3679 7.49294 3.40144 59.8423
9168972 6.76477 16.2172 14.9933 21.8905 6.82766 3.48325 59.8658
9168982 6.76477 16.2172 14.9933 21.8905 6.82766 3.48325 59.8658
9168993 6.93212 15.8673 15.5651 21.384 6.17337 3.55231 59.7485
9169002 7.21399 15.5542 16.189 20.7117 5.3893 3.55275 59.6689
9169021 7.21399 15.5542 16.189 20.7117 5.3893 3.55275 59.6689
9169022 7.57513 15.2134 16.8752 20.0201 4.51677 3.54536 59.6838
9169031 7.57513 15.2134 16.8752 20.0201 4.51677 3.54536 59.6838
9169051 7.85699 14.7898 17.6103 19.192 3.58058 3.57166 59.4491
9169053 8.21813 14.3478 18.4175 18.4613 2.59631 3.61165 59.4447
9169062 8.21813 14.3478 18.4175 18.4613 2.59631 3.61165 59.4447
9169082 8.47358 13.8321 19.2444 17.7404 1.62528 3.7137 59.2904
9169083 8.8171 13.3716 20.15 17.1169 0.639743 3.80406 59.4556
9169093 8.8171 13.3716 20.15 17.1169 0.639743 3.80406 59.4556
9169110 9.18705 12.9664 21.0261 16.6002 -0.270355 3.88246 59.7797
9169113 9.18705 12.9664 21.0261 16.6002 -0.270355 3.88246 59.7797
9169122 9.53057 12.5152 21.7053 15.9815 -1.14642 3.92777 59.7325
9169140 9.8829 11.981 22.5124 15.3723 -2.10966 4.02205 59.7487
9169142 9.8829 11.981 22.5124 15.3723 -2.10966 4.02205 59.7487
9169152 10.1119 11.4653 23.231 14.9059 -2.91877 4.15974 59.7142
9169171 10.2793 11.0049 23.9201 14.5157 -3.63313 4.30802 59.7199
9169173 10.2793 11.0049 23.9201 14.5157 -3.63313 4.30802 59.7199
9169182 10.3409 10.4615 24.6781 14.1254 -4.37541 4.53 59.6059
9169199 10.3409 10.4615 24.6781 14.1254 -4.37541 4.53 59.6059
9169202 10.4202 10.0379 25.1702 13.7161 -4.98631 4.65795 59.3445
9169212 10.614 9.68797 25.7609 13.4591 -5.55583 4.76749 59.5219
9169227 10.614 9.68797 25.7609 13.4591 -5.55583 4.76749 59.5219
9169232 10.887 9.30119 26.2235 13.1545 -6.15064 4.83238 59.5663
9169244 11.1513 9.06176 26.7058 12.9071 -6.6394 4.86407 59.826
9169255 11.1513 9.06176 26.7058 12.9071 -6.6394 4.86407 59.826
9169262 11.4067 8.73023 27.2079 12.7167 -7.14588 4.94183 60.0615
9169279 11.4067 8.73023 27.2079 12.7167 -7.14588 4.94183 60.0615
9169284 11.5829 8.44475 27.7493 12.4026 -7.67905 5.01604 60.1795
9169294 11.7679 8.17768 28.2513 12.117 -8.17576 5.07912 60.3139
9169305 11.7679 8.17768 28.2513 12.117 -8.17576 5.07912 60.3139
9169314 11.8824 7.86457 28.6057 11.8219 -8.64216 5.15517 60.1746
9169331 12.0233 7.56988 28.96 11.4507 -9.15054 5.20405 60.004
9169345 12.1202 7.22914 29.3636 11.1747 -9.63471 5.30718 59.8877
9169365 12.1202 7.22914 29.3636 11.1747 -9.63471 5.30718 59.8877
9169367 12.1642 6.86078 29.7771 10.9653 -10.0871 5.45046 59.7674
9169375 12.2083 6.50163 30.2299 10.8606 -10.4832 5.61381 59.8004
9169397 12.2083 6.50163 30.2299 10.8606 -10.4832 5.61381 59.8004
9169399 12.2347 6.09642 30.6827 10.6988 -10.9366 5.79032 59.7126
9169405 12.1731 5.88462 31.106 10.6988 -11.1487 5.95041 59.8624
9169424 12.1731 5.88462 31.106 10.6988 -11.1487 5.95041 59.8624
9169425 12.1819 5.69122 31.5489 10.6797 -11.3806 6.07858 60.1018
9169440 12.1819 5.69122 31.5489 10.6797 -11.3806 6.07858 60.1018
9169450 12.1202 5.43337 31.8541 10.6607 -11.6035 6.2332 60.0684
9169455 12.0497 5.20314 32.2774 10.6131 -11.8512 6.39412 60.1433
9169465 12.0497 5.20314 32.2774 10.6131 -11.8512 6.39412 60.1433
9169478 11.9969 5.00975 32.4939 10.5941 -12.0173 6.51007 60.0946
9169485 11.9793 4.84399 32.6022 10.5274 -12.1804 6.58176 59.9529
9169495 11.9793 4.84399 32.6022 10.5274 -12.1804 6.58176 59.9529
9169507 12.1466 4.86241 32.7105 10.5084 -12.2395 6.52767 60.2279
9169515 12.1466 4.86241 32.7105 10.5084 -12.2395 6.52767 60.2279
9169535 12.3228 4.76111 32.6022 10.4798 -12.3342 6.48161 60.1659
9169537 12.5342 4.76111 32.6908 10.4132 -12.4383 6.40952 60.3993
9169545 12.5342 4.76111 32.6908 10.4132 -12.4383 6.40952 60.3993
9169564 12.6311 4.77031 32.5924 10.3847 -12.45 6.35383 60.3784
9169575 12.6663 4.7519 32.4152 10.1943 -12.5506 6.29491 60.0277
9169594 12.8337 4.67822 32.3561 10.1277 -12.6609 6.24342 59.9957
9169596 12.8337 4.67822 32.3561 10.1277 -12.6609 6.24342 59.9957
9169606 12.8601 4.70585 32.3266 10.042 -12.6967 6.20743 59.9345
9169623 12.9394 4.72427 32.2478 10.0134 -12.7032 6.15711 59.9249
9169626 12.9394 4.72427 32.2478 10.0134 -12.7032 6.15711 59.9249
9169639 12.9306 4.77952 32.2183 9.96585 -12.6905 6.12932 59.8942
9169651 13.0187 4.78873 32.0706 9.9944 -12.6545 6.07734 59.8724
9169657 13.0187 4.78873 32.0706 9.9944 -12.6545 6.07734 59.8724
9169667 12.9218 4.79794 31.9624 10.0515 -12.5703 6.10063 59.7336
9169679 12.9218 4.79794 31.9624 10.0515 -12.5703 6.10063 59.7336
9169687 12.9306 4.90845 31.7753 10.0896 -12.4397 6.03626 59.7039
9169707 12.8865 4.97291 31.6178 10.1467 -12.3209 6.01396 59.624
9169719 12.8953 5.09263 31.3127 10.2228 -12.1349 5.93402 59.5235
9169735 12.8689 5.30444 31.0666 10.3275 -11.8788 5.84735 59.5675
9169739 12.8689 5.30444 31.0666 10.3275 -11.8788 5.84735 59.5675
9169750 12.8249 5.44258 30.7614 10.5274 -11.5925 5.79823 59.5563
9169764 12.8337 5.62676 30.4957 10.7844 -11.2646 5.72969 59.7405
9169770 12.8337 5.62676 30.4957 10.7844 -11.2646 5.72969 59.7405
9169780 12.8249 5.87541 30.2693 10.9653 -10.9508 5.63969 59.9348
9169791 12.8249 5.87541 30.2693 10.9653 -10.9508 5.63969 59.9348
9169800 12.8073 6.13326 29.8853 11.3175 -10.4924 5.55231 60.1433
9169817 12.7896 6.48321 29.5211 11.6601 -9.99412 5.43597 60.4541
9169820 12.7896 6.48321 29.5211 11.6601 -9.99412 5.43597 60.4541
9169830 12.7104 6.7779 28.8911 11.8219 -9.55197 5.28846 60.2014
9169850 12.6135 7.0818 28.2907 12.0028 -9.09318 5.15052 59.9887
9169851 12.6135 7.0818 28.2907 12.0028 -9.09318 5.15052 59.9887
9169860 12.5518 7.40412 27.7493 12.1265 -8.67869 4.99397 59.8317
9169883 12.5518 7.40412 27.7493 12.1265 -8.67869 4.99397 59.8317
9169884 12.4902 7.53304 27.1094 12.2027 -8.36932 4.87625 59.3353
9169890 12.3845 7.76327 26.5385 12.4787 -7.89359 4.78396 59.165
9169900 12.3845 7.76327 26.5385 12.4787 -7.89359 4.78396 59.165
9169912 12.2435 8.13164 25.879 12.7548 -7.30234 4.64131 59.0089
9169921 12.1907 8.41712 25.3868 13.2021 -6.73949 4.55628 59.1967
9169942 12.0674 8.76706 24.8257 13.7447 -6.05226 4.47841 59.4048
9169951 12.0674 8.76706 24.8257 13.7447 -6.05226 4.47841 59.4048
9169972 11.9088 9.18147 24.2351 14.2206 -5.34957 4.37446 59.546
9169973 11.7679 9.50379 23.5756 14.6775 -4.68804 4.27924 59.5247
9169982 11.7679 9.50379 23.5756 14.6775 -4.68804 4.27924 59.5247
9170004 11.5124 9.86295 22.9849 15.2105 -3.95492 4.23532 59.5709
9170005 11.3715 10.2037 22.4239 15.715 -3.29766 4.16075 59.7141
9170012 11.3715 10.2037 22.4239 15.715 -3.29766 4.16075 59.7141
9170035 11.213 10.5076 21.8431 16.0767 -2.71282 4.07424 59.6403
9170036 11.213 10.5076 21.8431 16.0767 -2.71282 4.07424 59.6403
9170063 11.0456 10.8299 21.2426 16.4099 -2.1202 3.97552 59.528
9170064 10.9223 11.097 20.5831 16.6764 -1.57394 3.85641 59.2787
9170065 10.9223 11.097 20.5831 16.6764 -1.57394 3.85641 59.2787
9170072 10.7813 11.318 20.2386 16.9619 -1.15515 3.81987 59.2998
9170093 10.7285 11.4837 19.8251 17.2728 -0.757502 3.7647 59.3102
9170094 10.7285 11.4837 19.8251 17.2728 -0.757502 3.7647 59.3102
9170105 10.5788 11.6587 19.4019 17.6722 -0.273843 3.7522 59.3115
9170130 10.429 11.8061 19.0672 18.1593 0.197268 3.78179 59.4616
9170134 10.2969 11.9902 18.762 18.588 0.636896 3.78862 59.6371
9170154 10.2969 11.9902 18.762 18.588 0.636896 3.78862 59.6371
9170155 10.1472 12.1468 18.4372 18.8802 1.02443 3.78035 59.6114
9170166 10.0503 12.2757 18.0434 19.1238 1.38916 3.74191 59.4932
9170182 10.0503 12.2757 18.0434 19.1238 1.38916 3.74191 59.4932
9170184 9.9886 12.4323 17.6202 19.4648 1.80162 3.69645 59.5058
9170210 9.76839 12.5704 17.1969 19.9129 2.32051 3.72699 59.4486
9170214 9.63627 12.8099 16.8024 20.4877 2.87046 3.72738 59.7363
9170224 9.63627 12.8099 16.8024 20.4877 2.87046 3.72738 59.7363
9170238 9.39845 13.0769 16.2722 21.0625 3.53986 3.72662 59.81
9170243 9.16943 13.2335 15.7107 21.6178 4.17331 3.74817 59.7314
9170254 9.16943 13.2335 15.7107 21.6178 4.17331 3.74817 59.7314
9170265 8.93161 13.4085 15.1908 22.0951 4.77189 3.75991 59.626
9170275 8.93161 13.4085 15.1908 22.0951 4.77189 3.75991 59.626
9170293 8.67617 13.6203 14.5982 22.6797 5.46612 3.77212 59.5742
9170295 8.5 13.8413 14.1303 23.1473 6.02086 3.75794 59.6188
9170305 8.5 13.8413 14.1303 23.1473 6.02086 3.75794 59.6188
9170321 8.27098 14.0347 13.6 23.5662 6.61232 3.74813 59.4718
9170325 8.03316 14.2189 13.2673 23.9851 7.10179 3.78133 59.5044
9170335 8.03316 14.2189 13.2673 23.9851 7.10179 3.78133 59.5044
9170349 7.76891 14.3938 12.893 24.4332 7.63385 3.82344 59.4889
9170355 7.76891 14.3938 12.893 24.4332 7.63385 3.82344 59.4889
9170365 7.52228 14.578 12.4563 24.8034 8.17171 3.83072 59.36
9170376 7.33731 14.7438 12.082 25.0762 8.60946 3.81768 59.2393
9170385 7.33731 14.7438 12.082 25.0762 8.60946 3.81768 59.2393
9170403 7.07306 15.0016 11.718 25.3393 9.11088 3.80064 59.132
9170405 7.07306 15.0016 11.718 25.3393 9.11088 3.80064 59.132
9170415 6.89689 15.2503 11.4789 25.5828 9.48223 3.77846 59.2089
9170440 6.77358 15.5358 11.2606 25.7484 9.79885 3.71714 59.3183
9170445 6.50933 15.7476 11.115 26.0115 10.1606 3.75599 59.3833
9170474 6.33316 15.9686 10.959 26.1186 10.4392 3.73259 59.3794
9170476 6.33316 15.9686 10.959 26.1186 10.4392 3.73259 59.3794
9170478 6.22746 16.0883 10.7823 26.2648 10.6731 3.72235 59.3628
9170487 6.10415 16.1804 10.6783 26.4986 10.888 3.75681 59.4614
9170509 6.10415 16.1804 10.6783 26.4986 10.888 3.75681 59.4614
9170510 5.97202 16.3001 10.6575 26.6934 11.0545 3.79353 59.623
9170516 5.97202 16.3001 10.6575 26.6934 11.0545 3.79353 59.623
9170526 5.8487 16.3462 10.5535 26.8785 11.246 3.83313 59.6269
9170536 5.85751 16.4475 10.5015 27.0052 11.3245 3.8124 59.8117
9170547 5.85751 16.4475 10.5015 27.0052 11.3245 3.8124 59.8117
9170563 5.82228 16.6224 10.3456 26.9954 11.4785 3.73742 59.7857
9170567 5.7342 16.7145 10.2624 27.0441 11.6149 3.72966 59.7552
9170577 5.7342 16.7145 10.2624 27.0441 11.6149 3.72966 59.7552
9170589 5.69896 16.8158 10.1584 27.0441 11.723 3.68932 59.7173
9170598 5.69896 16.8158 10.1584 27.0441 11.723 3.68932 59.7173
9170607 5.61088 16.9908 9.99205 27.0344 11.9165 3.62868 59.6281
9170618 5.54041 17.1848 9.89847 26.9759 12.0478 3.56106 59.5996
9170627 5.54041 17.1848 9.89847 26.9759 12.0478 3.56106 59.5996
9170645 5.53161 17.4376 9.63853 26.9759 12.2699 3.43514 59.5837
9170647 5.53161 17.4376 9.63853 26.9759 12.2699 3.43514 59.5837
9170657 5.33782 17.6127 9.55535 26.8785 12.4604 3.40578 59.3844
9170673 5.33782 17.8169 9.44098 26.7324 12.5449 3.29151 59.3281
9170677 5.33782 17.8169 9.44098 26.7324 12.5449 3.29151 59.3281
9170690 5.33782 18.0503 9.3682 26.6057 12.6133 3.18025 59.3621
9170702 5.37306 18.3324 9.25382 26.4791 12.6958 3.03528 59.4383
9170706 5.37306 18.3324 9.25382 26.4791 12.6958 3.03528 59.4383
9170717 5.37306 18.5172 9.23303 26.2745 12.7048 2.93378 59.3977
9170737 5.42591 18.663 9.21223 26.2453 12.7086 2.86378 59.5465
9170747 5.45233 18.8089 9.29541 26.0991 12.6393 2.79938 59.6558
9170762 5.45233 18.8089 9.29541 26.0991 12.6393 2.79938 59.6558
9170767 5.44352 18.8186 9.25382 26.0504 12.6631 2.78061 59.5664
9170779 5.56684 18.8867 9.32661 25.9725 12.5374 2.72261 59.7527
9170792 5.56684 18.8867 9.32661 25.9725 12.5374 2.72261 59.7527
9170799 5.56684 18.7992 9.42018 25.8069 12.4255 2.7338 59.5931
9170820 5.56684 18.6339 9.57615 25.5731 12.2426 2.76711 59.3499
9170822 5.56684 18.6339 9.57615 25.5731 12.2426 2.76711 59.3499
9170830 5.59326 18.5269 9.73211 25.5536 12.1011 2.8193 59.4058
9170851 5.70777 18.4102 9.87768 25.4074 11.8816 2.81985 59.4031
9170861 5.77824 18.3032 10.1064 25.31 11.6511 2.85767 59.4979
9170874 5.77824 18.3032 10.1064 25.31 11.6511 2.85767 59.4979
9170881 5.81347 18.2254 10.252 25.008 11.4538 2.83845 59.2989
9170891 5.9456 18.0601 10.5743 24.8424 11.0996 2.88049 59.4224
9170903 5.9456 18.0601 10.5743 24.8424 11.0996 2.88049 59.4224
9170911 6.0601 17.992 10.8343 24.6865 10.8204 2.88773 59.5729
9170942 6.09534 17.778 11.219 24.5112 10.4754 2.98391 59.6035
9170944 6.22746 17.5446 11.6453 24.2287 10.0177 3.04341 59.646
9170951 6.22746 17.5446 11.6453 24.2287 10.0177 3.04341 59.646
9170975 6.36839 17.2431 12.0196 23.9851 9.57804 3.11823 59.6162
9170976 6.51813 17.0195 12.4771 23.6149 9.07233 3.15809 59.6295
9170981 6.51813 17.0195 12.4771 23.6149 9.07233 3.15809 59.6295
9171009 6.84404 16.7329 12.9865 23.1862 8.4053 3.16214 59.7498
9171009 6.84404 16.7329 12.9865 23.1862 8.4053 3.16214 59.7498
9171012 6.93212 16.3185 13.4232 22.6894 7.85526 3.24999 59.3633
9171022 7.16995 16.0054 13.9639 22.4361 7.26292 3.32973 59.5754
9171042 7.3285 15.6463 14.5774 21.9977 6.60711 3.42578 59.5498
9171052 7.47824 15.2871 15.17 21.6178 5.98482 3.53191 59.5531
9171082 7.57513 14.8819 15.9083 21.267 5.30986 3.70225 59.6323
9171095 7.76891 14.4583 16.7089 20.8579 4.53156 3.8481 59.7939
9171102 7.88342 14.0899 17.3937 20.5851 3.9189 4.00457 59.9522
9171123 7.88342 14.0899 17.3937 20.5851 3.9189 4.00457 59.9522
9171124 8.06839 13.8321 17.9351 20.0883 3.30285 4.03586 59.9239
9171132 8.23575 13.4637 18.3781 19.6596 2.7242 4.10254 59.7372
9171159 8.47358 13.3164 18.9294 19.1335 2.10807 4.07824 59.8528
9171184 8.72902 13.0033 19.4019 18.6367 1.46771 4.0922 59.7708
9171185 8.94041 12.6994 19.9433 17.984 0.755301 4.10146 59.567
9171215 9.16943 12.4507 20.5831 17.3605 0.0246137 4.11075 59.5637
9171216 9.44249 12.1192 21.4001 16.724 -0.837496 4.16241 59.6857
9171223 9.44249 12.1192 21.4001 16.724 -0.837496 4.16241 59.6857
9171245 9.75078 11.8245 22.1285 16.229 -1.59589 4.20027 59.9328
9171246 9.75078 11.8245 22.1285 16.229 -1.59589 4.20027 59.9328
9171253 9.90933 11.4837 22.9456 15.5722 -2.41981 4.28755 59.9109
9171272 10.1824 11.0417 23.861 15.0297 -3.31533 4.40822 60.1148
9171275 10.1824 11.0417 23.861 15.0297 -3.31533 4.40822 60.1148
9171286 10.3497 10.7562 24.7174 14.449 -4.09055 4.49472 60.2724
9171298 10.429 10.3142 25.4262 13.897 -4.84631 4.63985 60.0664
9171315 10.5435 9.86295 26.0266 13.4306 -5.54453 4.77353 59.8637
9171330 10.5435 9.86295 26.0266 13.4306 -5.54453 4.77353 59.8637
9171335 10.5611 9.35645 26.4499 12.9642 -6.18997 4.92903 59.3317
9171345 10.6404 8.88678 27.1587 12.6691 -6.84155 5.1303 59.3549
9171361 10.6404 8.88678 27.1587 12.6691 -6.84155 5.1303 59.3549
9171366 10.7902 8.45395 27.7099 12.3359 -7.4676 5.26272 59.29
9171376 10.9135 8.12243 28.271 12.1551 -7.94917 5.39593 59.462
9171388 10.9135 8.12243 28.271 12.1551 -7.94917 5.39593 59.462
9171397 10.9927 7.7909 28.7632 12.1075 -8.32191 5.55375 59.6543
9171416 11.1777 7.56067 29.2652 11.8886 -8.76311 5.61393 59.8922
9171417 11.1777 7.56067 29.2652 11.8886 -8.76311 5.61393 59.8922
9171430 11.3627 7.34886 29.7279 11.8124 -9.099 5.68333 60.2518
9171447 11.3627 7.34886 29.7279 11.8124 -9.099 5.68333 60.2518
9171448 11.442 7.05417 30.0035 11.7363 -9.40261 5.78815 60.2359
9171457 11.486 6.85157 30.2889 11.5935 -9.68526 5.86471 60.22
9171478 11.486 6.85157 30.2889 11.5935 -9.68526 5.86471 60.22
9171479 11.5036 6.64897 30.4268 11.4983 -9.89681 5.93544 60.0777
9171487 11.4244 6.64897 30.5252 11.3936 -9.96254 5.96215 59.9921
9171510 11.4244 6.40953 30.5252 11.3936 -10.1026 6.04615 59.7527
9171511 11.4684 6.26219 30.7221 11.4698 -10.2042 6.12323 59.9224
9171517 11.4684 6.26219 30.7221 11.4698 -10.2042 6.12323 59.9224
9171527 11.3363 6.20693 30.8402 11.4888 -10.2221 6.20967 59.8722
9171547 11.3627 6.11484 30.9878 11.5174 -10.3023 6.25871 59.9827
9171548 11.3627 6.11484 30.9878 11.5174 -10.3023 6.25871 59.9827
9171557 11.301 6.0688 31.1552 11.5649 -10.3272 6.32809 60.09
9171577 11.2394 6.0688 31.3422 11.6601 -10.302 6.39047 60.3105
9171578 11.2394 6.02275 31.3422 11.6601 -10.3289 6.40681 60.2645
9171587 11.1777 5.98592 31.4702 11.6887 -10.3499 6.46406 60.3225
9171605 11.1777 5.98592 31.4702 11.6887 -10.3499 6.46406 60.3225
9171609 11.1777 5.94908 31.5096 11.6697 -10.3922 6.48005 60.306
9171619 11.1689 5.93066 31.4406 11.6411 -10.401 6.47597 60.1813
9171633 11.1689 5.93066 31.4406 11.6411 -10.401 6.47597 60.1813
9171641 11.2394 5.92145 31.4899 11.5649 -10.4802 6.45031 60.2156
9171649 11.1513 5.84778 31.421 11.603 -10.4633 6.50373 60.0231
9171669 11.1249 5.87541 31.4308 11.5364 -10.4823 6.49525 59.9675
9171685 11.1249 5.87541 31.4308 11.5364 -10.4823 6.49525 59.9675
9171696 11.0016 5.78332 31.48 11.6411 -10.4569 6.5944 59.906
9171700 11.0544 5.82936 31.5292 11.6792 -10.4319 6.57106 60.0922
9171712 11.0544 5.82936 31.5292 11.6792 -10.4319 6.57106 60.0922
9171721 11.0192 5.83857 31.3914 11.7268 -10.3563 6.56775 59.9759
9171739 11.0016 5.82015 31.3619 11.8219 -10.2996 6.58992 60.0056
9171741 11.0016 5.82015 31.3619 11.8219 -10.2996 6.58992 60.0056
9171753 10.9751 5.85699 31.3816 11.9362 -10.2093 6.60491 60.1499
9171767 10.9751 5.85699 31.3816 11.9362 -10.2093 6.60491 60.1499
9171771 10.9663 5.85699 31.3521 12.0218 -10.1498 6.6159 60.1972
9171799 10.9223 5.88462 31.2635 11.9742 -10.1287 6.60279 60.0446
9171801 10.887 5.93987 31.0764 12.0789 -9.97989 6.58406 59.9823
9171811 10.799 5.93987 30.8796 12.1361 -9.87483 6.59619 59.7545
9171822 10.799 5.93987 30.8796 12.1361 -9.87483 6.59619 59.7545
9171831 10.8518 6.09642 30.7516 12.3169 -9.65983 6.52824 60.0167
9171849 10.8518 6.09642 30.7516 12.3169 -9.65983 6.52824 60.0167
9171852 10.7725 6.07801 30.5941 12.4787 -9.51628 6.56395 59.9234
9171862 10.7549 6.20693 30.348 12.7167 -9.23729 6.52282 60.0265
9171876 10.7549 6.20693 30.348 12.7167 -9.23729 6.52282 60.0265
9171885 10.658 6.26219 30.1905 12.8975 -9.03576 6.54105 60.0083
9171892 10.5611 6.2714 29.8657 13.1831 -8.75579 6.56705 59.8813
9171903 10.5611 6.2714 29.8657 13.1831 -8.75579 6.56705 59.8813
9171912 10.614 6.41874 29.6688 13.383 -8.52177 6.49561 60.0845
9171932 10.614 6.41874 29.6688 13.383 -8.52177 6.49561 60.0845
9171933 10.4819 6.50163 29.2652 13.6305 -8.1894 6.49112 59.8791
9171942 10.4554 6.66739 28.8911 13.9255 -7.82191 6.42994 59.9395
9171958 10.4554 6.66739 28.8911 13.9255 -7.82191 6.42994 59.9395
9171962 10.3762 6.85157 28.5269 14.2492 -7.41718 6.38668 60.0038
9171972 10.244 6.98971 27.9757 14.6585 -6.92005 6.36411 59.8679
9171986 10.244 6.98971 27.9757 14.6585 -6.92005 6.36411 59.8679
9171992 10.1031 7.14626 27.4343 15.1344 -6.37632 6.34908 59.818
9172014 9.93575 7.33044 26.9716 15.6484 -5.81459 6.3505 59.8862
9172023 9.81244 7.54225 26.3712 16.2195 -5.18049 6.31474 59.9453
9172040 9.81244 7.54225 26.3712 16.2195 -5.18049 6.31474 59.9453
9172043 9.60104 7.80932 25.7904 16.8191 -4.48308 6.29771 60.0199
9172053 9.44249 8.00271 25.062 17.4384 -3.77982 6.26948 59.9455
9172074 9.2487 8.20531 24.4517 17.9547 -3.14913 6.25264 59.8604
9172084 9.2487 8.20531 24.4517 17.9547 -3.14913 6.25264 59.8604
9172105 9.0285 8.42633 23.8906 18.3249 -2.58412 6.22437 59.6703
9172106 9.00207 8.63814 23.2999 18.6562 -2.10068 6.12015 59.5963
9172146 8.94922 8.81311 22.6896 18.9582 -1.62749 6.03066 59.4101
9172148 8.87876 9.05255 22.1187 19.3868 -1.07597 5.9494 59.4368
9172150 8.87876 9.05255 22.1187 19.3868 -1.07597 5.9494 59.4368
9172156 8.98446 9.38407 21.5379 19.8057 -0.557919 5.77147 59.7122
9172189 8.85233 9.74323 20.7012 20.3221 0.214592 5.64278 59.6188
9172190 8.85233 9.74323 20.7012 20.3221 0.214592 5.64278 59.6188
9172191 8.78187 10.2221 19.7464 20.7897 1.0428 5.42461 59.54
9172196 8.78187 10.2221 19.7464 20.7897 1.0428 5.42461 59.54
9172206 8.7114 10.8483 18.7423 21.3352 1.98275 5.16066 59.6373
9172219 8.55285 11.5114 17.7776 22.0367 3.01342 4.94754 59.8785
9172247 8.46477 12.0547 16.844 22.3874 3.82141 4.69749 59.7509
9172248 8.25337 12.4967 15.9914 22.8745 4.66588 4.55812 59.6161
9172257 8.25337 12.4967 15.9914 22.8745 4.66588 4.55812 59.6161
9172275 8.08601 13.0125 15.222 23.2447 5.43486 4.37376 59.5652
9172280 8.08601 13.0125 15.222 23.2447 5.43486 4.37376 59.5652
9172287 7.93627 13.3256 14.5358 23.6734 6.10671 4.27451 59.471
9172301 7.70725 13.4821 13.9327 24.2092 6.76343 4.2859 59.3313
9172309 7.70725 13.4821 13.9327 24.2092 6.76343 4.2859 59.3313
9172317 7.46062 13.8229 13.3609 24.745 7.47035 4.24884 59.3893
9172329 7.17876 14.1728 12.8514 25.2613 8.15784 4.22804 59.4643
9172339 7.17876 14.1728 12.8514 25.2613 8.15784 4.22804 59.4643
9172356 6.98497 14.4122 12.4355 25.7679 8.70784 4.2297 59.6006
9172368 6.76477 14.6425 12.1028 26.2258 9.20752 4.24904 59.7358
9172389 6.57098 14.9095 11.8116 26.635 9.66253 4.24668 59.9271
9172390 6.57098 14.9095 11.8116 26.635 9.66253 4.24668 59.9271
9172400 6.35959 15.1121 11.4165 26.859 10.1239 4.21873 59.7473
9172422 6.13057 15.2963 11.1254 27.161 10.551 4.23512 59.7133
9172439 5.91917 15.4068 10.855 27.4241 10.9289 4.26636 59.6051
9172456 5.80466 15.5358 10.6471 27.6189 11.1997 4.25934 59.6064
9172461 5.66373 15.6923 10.4287 27.9404 11.5279 4.27285 59.7252
9172489 5.4171 15.7476 10.2208 28.1255 11.8613 4.33071 59.511
9172492 5.22332 15.9133 10.1584 28.408 12.1181 4.37912 59.7031
9172518 5.22332 15.9133 10.1584 28.408 12.1181 4.37912 59.7031
9172520 5.02073 15.9778 9.98165 28.5736 12.4044 4.42208 59.5538
9172521 4.7829 16.1436 9.83609 28.9049 12.7496 4.47845 59.6674
9172532 4.7829 16.1436 9.83609 28.9049 12.7496 4.47845 59.6674
9172546 4.58031 16.3554 9.74251 29.1874 13.0375 4.50866 59.8656
9172577 4.37772 16.4567 9.58654 29.353 13.3191 4.54341 59.7739
9172578 4.29845 16.6224 9.48257 29.314 13.4615 4.49008 59.7175
9172582 4.29845 16.6224 9.48257 29.314 13.4615 4.49008 59.7175
9172592 4.17513 16.779 9.27462 29.2556 13.6947 4.43212 59.4843
9172608 4.09585 16.954 9.20183 29.2946 13.8341 4.39489 59.5462
9172614 4.09585 16.954 9.20183 29.2946 13.8341 4.39489 59.5462
9172624 4.08705 17.1848 9.19144 29.2458 13.8807 4.31227 59.7091
9172637 4.08705 17.1848 9.19144 29.2458 13.8807 4.31227 59.7091
9172644 3.99896 17.4085 9.09786 29.2069 14.0334 4.24469 59.7122
9172654 4.10466 17.6711 9.04587 29.1582 14.0375 4.10847 59.9798
9172664 4.10466 17.6711 9.04587 29.1582 14.0375 4.10847 59.9798
9172674 4.10466 17.9628 8.9107 28.9341 14.138 3.95011 59.9123
9172691 4.01658 18.2254 8.79633 28.6905 14.2741 3.82852 59.7289
9172696 4.01658 18.2254 8.79633 28.6905 14.2741 3.82852 59.7289
9172705 4.0342 18.4491 8.64037 28.4178 14.3565 3.67178 59.5414
9172717 4.01658 18.4783 8.66116 28.3106 14.3405 3.65169 59.4666
9172735 4.043 18.7117 8.66116 28.2327 14.3508 3.55562 59.6485
9172755 4.06062 18.7895 8.57798 28.184 14.3993 3.5006 59.612
9172779 4.11347 18.9743 8.62997 28.0963 14.3474 3.42023 59.814
9172780 4.11347 18.9743 8.62997 28.0963 14.3474 3.42023 59.814
9172786 4.21036 19.0618 8.65076 27.9989 14.2684 3.34873 59.9218
9172813 4.22798 19.159 8.61957 27.8625 14.2703 3.28091 59.8691
9172814 4.22798 19.159 8.61957 27.8625 14.2703 3.28091 59.8691
9172816 4.27202 19.2174 8.64037 27.6871 14.2067 3.21934 59.8169
9172826 4.27202 19.2174 8.64037 27.6871 14.2067 3.21934 59.8169
9172841 4.2544 19.2174 8.69236 27.5799 14.1648 3.21383 59.7441
9172846 4.26321 19.1882 8.80673 27.4338 14.0522 3.21378 59.692
9172890 4.28964 19.1493 8.82752 27.2974 13.989 3.19472 59.5639
9172892 4.33368 19.0521 8.95229 27.161 13.8351 3.20869 59.4991
9172893 4.33368 19.0521 8.95229 27.161 13.8351 3.20869 59.4991
9172897 4.3513 18.9548 9.20183 27.0149 13.6152 3.25353 59.5228
9172924 4.3513 18.9548 9.20183 27.0149 13.6152 3.25353 59.5228
9172925 4.42176 18.7992 9.39939 26.9077 13.3911 3.29748 59.5281
9172927 4.50984 18.6825 9.73211 26.9564 13.1081 3.38077 59.8809
9172937 4.50984 18.6825 9.73211 26.9564 13.1081 3.38077 59.8809
9172956 4.64197 18.5852 10.0752 26.7226 12.7408 3.39125 60.0251
9172957 4.77409 18.4296 10.3248 26.557 12.4355 3.41465 60.0855
9172967 4.77409 18.4296 10.3248 26.557 12.4355 3.41465 60.0855
9172986 4.86218 18.2254 10.6887 26.1868 12.033 3.4491 59.9631
9172987 4.86218 18.2254 10.6887 26.1868 12.033 3.4491 59.9631
9172997 4.87979 17.9336 10.9902 25.9043 11.7103 3.53749 59.7079
9173014 5.10881 17.7197 11.3957 25.5146 11.1861 3.53585 59.7388
9173017 5.10881 17.7197 11.3957 25.5146 11.1861 3.53585 59.7388
9173027 5.26736 17.4085 11.8324 25.1054 10.6578 3.58861 59.6137
9173044 5.39067 17.0875 12.4459 24.7158 10.0464 3.69302 59.6398
9173047 5.39067 17.0875 12.4459 24.7158 10.0464 3.69302 59.6398
9173074 5.68135 16.7329 13.1009 24.2579 9.28869 3.75031 59.7731
9173074 5.68135 16.7329 13.1009 24.2579 9.28869 3.75031 59.7731
9173080 5.99845 16.383 13.7768 23.5759 8.44732 3.75947 59.7341
9173089 6.35959 16.0238 14.3902 23.0109 7.64618 3.76795 59.7845
9173102 6.35959 16.0238 14.3902 23.0109 7.64618 3.76795 59.7845
9173109 6.68549 15.5634 15.0557 22.29 6.7591 3.79987 59.5945
9173130 7.00259 15.0293 16.0746 21.5398 5.65495 3.91875 59.6463
9173131 7.00259 15.0293 16.0746 21.5398 5.65495 3.91875 59.6463
9173139 7.24922 14.5135 17.0689 20.9748 4.66931 4.0834 59.8065
9173160 7.57513 13.9702 17.9647 20.3318 3.66057 4.19886 59.8418
9173170 7.90104 13.4269 18.7423 19.6499 2.69313 4.28607 59.7201
9173188 7.90104 13.4269 18.7423 19.6499 2.69313 4.28607 59.7201
9173190 8.13005 12.994 19.4806 19.0653 1.86388 4.37955 59.67
9173200 8.35907 12.4875 20.1598 18.6562 1.09986 4.51775 59.6626
9173215 8.35907 12.4875 20.1598 18.6562 1.09986 4.51775 59.6626
9173220 8.62332 11.9902 20.9276 18.1885 0.262791 4.64658 59.7297
9173231 8.62332 11.9902 20.9276 18.1885 0.262791 4.64658 59.7297
9173243 8.79948 11.5666 21.7742 17.8378 -0.487345 4.81323 59.9781
9173250 8.88756 11.1614 22.5223 17.4092 -1.18341 4.97224 59.9805
9173260 8.88756 11.1614 22.5223 17.4092 -1.18341 4.97224 59.9805
9173272 8.98446 10.7286 23.2507 17.0195 -1.87015 5.14072 59.9833
9173280 9.11658 10.7286 23.9398 19.1043 -1.2814 5.53327 62.8893
9173299 9.11658 10.3326 23.9398 16.6193 -2.54319 5.27674 60.0082
9173301 9.22228 10.0748 24.3926 16.2861 -3.02372 5.34758 59.9757
9173310 9.22228 10.0748 24.3926 16.2861 -3.02372 5.34758 59.9757
9173327 9.43368 9.76165 24.9635 15.8387 -3.66548 5.40195 59.9976
9173331 9.58342 9.50379 25.7018 15.4675 -4.27916 5.49702 60.2565
9173340 9.58342 9.50379 25.7018 15.4675 -4.27916 5.49702 60.2565
9173356 9.69793 9.24594 26.1841 14.9726 -4.85168 5.54392 60.1006
9173360 9.69793 9.24594 26.1841 14.9726 -4.85168 5.54392 60.1006
9173370 9.82124 8.94204 26.6665 14.5823 -5.40032 5.62025 60.0121
9173387 9.95337 8.62893 27.1882 14.2396 -5.94607 5.71042 60.0101
9173390 9.95337 8.62893 27.1882 14.2396 -5.94607 5.71042 60.0101
9173400 10.0679 8.38028 27.7197 13.8018 -6.5056 5.77126 59.9697
9173418 10.2088 8.08559 28.1824 13.4877 -7.01162 5.84738 59.9645
9173420 10.2088 8.08559 28.1824 13.4877 -7.01162 5.84738 59.9645
9173432 10.385 7.87378 28.6647 13.0594 -7.55073 5.86801 59.9828
9173449 10.385 7.87378 28.6647 13.0594 -7.55073 5.86801 59.9828
9173451 10.4995 7.61593 29.029 12.6691 -8.0431 5.91405 59.8135
9173460 10.5611 7.39491 29.4719 12.3645 -8.47667 5.99081 59.7925
9173481 10.5611 7.39491 29.4719 12.3645 -8.47667 5.99081 59.7925
9173482 10.7373 7.21993 29.7672 12.0694 -8.87012 5.99043 59.7939
9173491 10.7902 6.94366 30.0133 11.9362 -9.18332 6.08604 59.6833
9173510 10.7902 6.94366 30.0133 11.9362 -9.18332 6.08604 59.6833
9173511 10.9135 6.80553 30.22 11.7839 -9.43696 6.0994 59.7229
9173524 10.9135 6.80553 30.22 11.7839 -9.43696 6.0994 59.7229
9173540 11.0192 6.65818 30.2889 11.6697 -9.63357 6.10737 59.6359
9173542 11.0984 6.5753 30.476 11.6125 -9.78317 6.12797 59.7623
9173568 11.2306 6.51083 30.6925 11.5649 -9.93657 6.12913 59.9989
9173572 11.3098 6.36349 30.8599 11.4888 -10.1285 6.16657 60.022
9173596 11.4155 6.39112 31.0371 11.4127 -10.2267 6.13455 60.2564
9173612 11.5124 6.24377 31.0764 11.3651 -10.3742 6.15105 60.1977
9173625 11.5829 6.21614 31.1946 11.3365 -10.4528 6.14917 60.3301
9173633 11.5829 6.21614 31.1946 11.3365 -10.4528 6.14917 60.3301
9173654 11.6358 6.18852 31.2536 11.1842 -10.5857 6.12663 60.2621
9173655 11.7062 6.0688 31.3914 11.1842 -10.706 6.16413 60.3507
9173664 11.7062 6.0688 31.3914 11.1842 -10.706 6.16413 60.3507
9173681 11.7855 6.05038 31.5686 11.0985 -10.828 6.15621 60.503
9173684 11.856 5.94908 31.4308 10.9082 -10.9859 6.1188 60.144
9173693 11.856 5.94908 31.4308 10.9082 -10.9859 6.1188 60.144
9173712 11.9617 5.90303 31.3028 10.8415 -11.0483 6.069 60.0091
9173725 12.0321 5.83857 31.1946 10.6797 -11.176 6.02651 59.745
9173744 12.0585 5.89382 31.1552 10.6702 -11.1453 5.99044 59.7778
9173745 12.0585 5.89382 31.1552 10.6702 -11.1453 5.99044 59.7778
9173755 12.1554 5.93987 31.0961 10.5655 -11.1896 5.91554 59.7569
9173776 12.1907 5.8662 30.9091 10.6131 -11.1702 5.90778 59.5791
9173785 12.2611 5.90303 30.8796 10.6512 -11.1343 5.8715 59.6949
9173806 12.3404 5.95829 30.7417 10.6892 -11.0643 5.80924 59.7297
9173816 12.3492 6.03196 30.6236 10.7273 -10.9713 5.76819 59.7321
9173836 12.3492 6.03196 30.6236 10.7273 -10.9713 5.76819 59.7321
9173837 12.358 6.05959 30.3874 10.8701 -10.8151 5.74105 59.6751
9173847 12.3492 6.07801 30.2889 11.0319 -10.6816 5.74754 59.7481
9173867 12.3492 6.07801 30.2889 11.0319 -10.6816 5.74754 59.7481
9173869 12.2964 6.23456 30.033 11.308 -10.35 5.71471 59.8719
9173876 12.2964 6.23456 30.033 11.308 -10.35 5.71471 59.8719
9173899 12.2083 6.28982 29.7574 11.5459 -10.0875 5.72023 59.8014
9173900 12.1026 6.48321 29.3932 11.9267 -9.63428 5.69246 59.9056
9173906 12.1026 6.48321 29.3932 11.9267 -9.63428 5.69246 59.9056
9173931 12.0674 6.65818 28.9896 12.2312 -9.24473 5.62885 59.9464
9173933 11.9528 6.81473 28.4482 12.5834 -8.78058 5.5847 59.7992
9173936 11.9528 6.81473 28.4482 12.5834 -8.78058 5.5847 59.7992
9173947 11.8648 6.96208 27.8772 13.0879 -8.23355 5.55383 59.792
9173963 11.8648 6.96208 27.8772 13.0879 -8.23355 5.55383 59.792
9173968 11.6269 7.21993 27.2472 13.6781 -7.51863 5.54064 59.7722
9173977 11.5036 7.46858 26.5976 14.4015 -6.76623 5.50935 59.9712
9173995 11.5036 7.46858 26.5976 14.4015 -6.76623 5.50935 59.9712
9173997 11.3451 7.75406 25.9873 14.9345 -6.09945 5.45375 60.0209
9174007 11.1953 8.02113 25.3277 15.3438 -5.49282 5.3738 59.888
9174026 11.1953 8.02113 25.3277 15.3438 -5.49282 5.3738 59.888
9174027 11.072 8.27898 24.6781 15.715 -4.91935 5.28305 59.7441
9174055 10.9223 8.58288 24.0185 16.1529 -4.27516 5.19456 59.6765
9174059 10.799 8.86836 23.4181 16.5431 -3.69184 5.10507 59.6285
9174069 10.799 8.86836 23.4181 16.5431 -3.69184 5.10507 59.6285
9174084 10.6845 9.07096 22.729 16.8477 -3.15798 5.0111 59.3321
9174088 10.4466 9.43012 22.1384 17.3117 -2.46227 4.94886 59.3269
9174099 10.4466 9.43012 22.1384 17.3117 -2.46227 4.94886 59.3269
9174112 10.3409 9.75244 21.3607 17.7599 -1.76873 4.81996 59.214
9174119 10.3409 9.75244 21.3607 17.7599 -1.76873 4.81996 59.214
9174129 10.156 10.0748 20.7307 18.3054 -1.0573 4.75952 59.2669
9174141 9.99741 10.4523 20.1992 18.8023 -0.396113 4.68075 59.4512
9174156 9.99741 10.4523 20.1992 18.8023 -0.396113 4.68075 59.4512
9174166 9.84767 10.7746 19.5889 19.2991 0.267699 4.604 59.5103
9174168 9.69793 11.1614 18.9294 19.8739 1.00904 4.51135 59.6626
9174179 9.69793 11.1614 18.9294 19.8739 1.00904 4.51135 59.6626
9174194 9.49534 11.6219 18.2501 20.4195 1.79633 4.40375 59.7868
9174198 9.49534 11.6219 18.2501 20.4195 1.79633 4.40375 59.7868
9174208 9.33679 12.0271 17.502 20.9553 2.56748 4.28614 59.8212
9174220 9.14301 12.4691 16.7713 21.5983 3.39818 4.19063 59.9817
9174228 9.14301 12.4691 16.7713 21.5983 3.39818 4.19063 59.9817
9174250 8.86995 12.8099 16.0226 22.0659 4.17578 4.11808 59.7683
9174251 8.66736 13.0585 15.3052 22.5238 4.87355 4.05587 59.5548
9174258 8.66736 13.0585 15.3052 22.5238 4.87355 4.05587 59.5548
9174282 8.40311 13.3348 14.567 23.1375 5.6787 4.0291 59.4424
9174283 8.40311 13.3348 14.567 23.1375 5.6787 4.0291 59.4424
9174290 8.09482 13.5005 14.1407 23.5564 6.24932 4.07348 59.2925
9174308 7.84819 13.6479 13.7456 24.0825 6.8002 4.12952 59.3242
9174310 7.84819 13.6479 13.7456 24.0825 6.8002 4.12952 59.3242
9174321 7.69845 13.786 13.5272 24.6281 7.20511 4.19288 59.6398
9174336 7.69845 13.786 13.5272 24.6281 7.20511 4.19288 59.6398
9174351 7.46943 13.8965 13.1633 25.1249 7.70639 4.25509 59.6542
9174365 7.29326 13.9334 12.8514 25.6023 8.12287 4.32983 59.6803
9174366 7.29326 13.9334 12.8514 25.6023 8.12287 4.32983 59.6803
9174374 7.08187 13.9886 12.5498 26.1089 8.56608 4.41699 59.7292
9174391 6.86166 13.9978 12.3315 26.5765 8.94348 4.52968 59.7675
9174392 6.86166 13.9978 12.3315 26.5765 8.94348 4.52968 59.7675
9174400 6.65907 14.0715 11.9988 26.8785 9.34951 4.56652 59.6079
9174420 6.50933 14.0531 11.8428 27.3266 9.6379 4.67264 59.7319
9174421 6.50933 14.0531 11.8428 27.3266 9.6379 4.67264 59.7319
9174431 6.35078 14.136 11.6972 27.7456 9.9423 4.74458 59.9296
9174450 6.35078 14.136 11.6972 27.7456 9.9423 4.74458 59.9296
9174451 6.23627 14.2281 11.4269 27.8819 10.2248 4.72901 59.7732
9174461 6.13938 14.3754 11.1982 28.1255 10.513 4.71492 59.8384
9174479 6.13938 14.3754 11.1982 28.1255 10.513 4.71492 59.8384
9174481 6.02487 14.5228 11.0006 28.2814 10.7717 4.69693 59.8296
9174491 6.02487 14.5228 11.0006 28.2814 10.7717 4.69693 59.8296
9174509 5.74301 14.6793 10.6783 28.5542 11.2364 4.72975 59.6548
9174511 5.54922 14.8174 10.4599 28.8659 11.5903 4.76421 59.6925
9174521 5.54922 14.8174 10.4599 28.8659 11.5903 4.76421 59.6925
9174548 5.22332 14.9464 10.2416 28.9925 11.9832 4.81395 59.4038
9174550 5.00311 15.0569 10.1376 29.1387 12.2416 4.85781 59.3363
9174551 5.00311 15.0569 10.1376 29.1387 12.2416 4.85781 59.3363
9174562 4.79171 15.2226 10.0752 29.4212 12.509 4.91056 59.5108
9174585 4.79171 15.2226 10.0752 29.4212 12.509 4.91056 59.5108
9174586 4.58031 15.3516 9.91927 29.7524 12.8367 4.96777 59.6036
9174592 4.32487 15.5818 9.85688 30.0739 13.1498 5.01963 59.8375
9174613 4.32487 15.5818 9.85688 30.0739 13.1498 5.01963 59.8375
9174614 4.10466 15.7752 9.7841 30.4539 13.4487 5.07956 60.1178
9174622 4.02539 15.9594 9.69052 30.5415 13.6112 5.0436 60.2168
9174644 4.02539 15.9594 9.69052 30.5415 13.6112 5.0436 60.2168
9174645 3.91088 16.2449 9.39939 30.4052 13.9008 4.91546 59.9603
9174674 3.80518 16.4475 9.27462 30.2493 14.0594 4.83583 59.7765
9174675 3.76114 16.6961 9.23303 30.0252 14.1199 4.72265 59.7155
9174685 3.76114 16.6961 9.23303 30.0252 14.1199 4.72265 59.7155
9174705 3.76114 16.8527 9.06667 29.8693 14.2293 4.61518 59.5498
9174706 3.72591 17.0973 9.02508 29.7719 14.3065 4.52209 59.6202
9174714 3.72591 17.0973 9.02508 29.7719 14.3065 4.52209 59.6202
9174724 3.76995 17.1945 8.97309 29.5673 14.2924 4.43055 59.5049
9174738 3.77876 17.389 9.00428 29.4602 14.2818 4.35084 59.6322
9174744 3.77876 17.389 9.00428 29.4602 14.2818 4.35084 59.6322
9174754 3.81399 17.5057 8.97309 29.3335 14.2773 4.27334 59.6263
9174770 3.81399 17.5057 8.97309 29.3335 14.2773 4.27334 59.6263
9174775 3.79637 17.5446 9.10826 29.314 14.2035 4.28724 59.7633
9174785 3.89326 17.4376 9.25382 29.314 14.0256 4.31652 59.8988
9174800 3.89326 17.4376 9.25382 29.314 14.0256 4.31652 59.8988
9174805 3.91969 17.4474 9.3682 29.3238 13.9376 4.32697 60.059
9174815 3.90207 17.4182 9.56575 29.2653 13.8051 4.36669 60.1513
9174830 3.90207 17.4182 9.56575 29.2653 13.8051 4.36669 60.1513
9174835 3.98135 17.282 9.58654 29.1777 13.6986 4.37319 60.0276
9174861 3.99896 17.2042 9.73211 29.1289 13.5697 4.40974 60.0642
9174865 4.13109 17.107 9.87768 28.8367 13.3168 4.37254 59.9524
9174876 4.13109 17.107 9.87768 28.8367 13.3168 4.37254 59.9524
9174891 4.15751 16.9632 10.0232 28.5152 13.1152 4.37932 59.6591
9174896 4.21917 16.8711 10.2208 28.2619 12.8804 4.37928 59.5729
9174907 4.21917 16.8711 10.2208 28.2619 12.8804 4.37928 59.5729
9174920 4.37772 16.6777 10.5119 28.0183 12.5057 4.3991 59.5857
9174927 4.37772 16.6777 10.5119 28.0183 12.5057 4.3991 59.5857
9174937 4.47461 16.5027 10.8031 27.9014 12.2007 4.45542 59.6818
9174954 4.60674 16.3369 11.1462 27.7066 11.8279 4.49251 59.7964
9174986 4.60674 16.3369 11.1462 27.7066 11.8279 4.49251 59.7964
9174987 4.65078 16.1159 11.5933 27.5507 11.4431 4.60117 59.9107
9174988 4.86218 15.8673 11.9676 27.3072 10.9762 4.636 60.0042
9175014 4.97668 15.6002 12.4147 27.0734 10.5229 4.72267 60.0649
