6530724 7.23161 16.0146 11.6141 25.008 9.26073 3.35132 59.8683
6530732 7.23161 16.0146 11.6141 25.008 9.26073 3.35132 59.8683
6530744 7.19637 16.2356 11.2398 25.086 9.57427 3.23649 59.7577
6530752 7.14352 16.5856 10.9486 25.1736 9.88577 3.10598 59.8514
6530766 7.14352 16.5856 10.9486 25.1736 9.88577 3.10598 59.8514
6530775 7.05544 16.8527 10.5431 25.1054 10.2254 2.95697 59.5567
6530787 6.98497 17.2334 10.3144 25.1347 10.5035 2.82331 59.6674
6530792 6.98497 17.2334 10.3144 25.1347 10.5035 2.82331 59.6674
6530802 6.92332 17.4376 10.0648 25.0665 10.7224 2.71557 59.4923
6530822 6.80881 17.7878 9.88807 25.0665 10.9811 2.60901 59.5511
6530832 6.81762 18.0406 9.70092 25.0762 11.1504 2.49489 59.6354
6530842 6.81762 18.0406 9.70092 25.0762 11.1504 2.49489 59.6354
6530852 6.85285 18.3324 9.43058 24.9788 11.3382 2.32173 59.5946
6530863 6.80881 18.7408 9.22263 24.9009 11.5673 2.1552 59.6731
6530874 6.80881 18.7408 9.22263 24.9009 11.5673 2.1552 59.6731
6530883 6.8 18.9451 9.08746 24.7937 11.6775 2.04677 59.6262
6530902 6.8 19.1299 8.95229 24.6281 11.7651 1.92837 59.5102
6530915 6.80881 19.2952 8.96269 24.5599 11.7748 1.86626 59.6266
6530922 6.80881 19.2952 8.96269 24.5599 11.7748 1.86626 59.6266
6530934 6.85285 19.4216 8.85872 24.5112 11.829 1.78443 59.6444
6530944 6.73834 19.4508 8.83792 24.5014 11.917 1.80171 59.5285
6530954 6.73834 19.4508 8.83792 24.5014 11.917 1.80171 59.5285
6530964 6.77358 19.4314 8.9315 24.5794 11.8502 1.83518 59.7158
6530979 6.77358 19.4314 8.9315 24.5794 11.8502 1.83518 59.7158
6530984 6.74715 19.2368 8.9315 24.6183 11.8322 1.90627 59.5338
6530993 6.78238 19.2077 9.13945 24.7255 11.6997 1.9735 59.855
6531005 6.78238 19.2077 9.13945 24.7255 11.6997 1.9735 59.855
6531015 6.73834 18.9354 9.28502 24.745 11.5809 2.09944 59.7037
6531024 6.79119 18.7214 9.46177 24.7937 11.4033 2.1942 59.7681
6531037 6.79119 18.7214 9.46177 24.7937 11.4033 2.1942 59.7681
6531045 6.79119 18.4491 9.73211 24.8132 11.1812 2.3346 59.7856
6531065 6.80881 18.0892 9.96086 24.8132 10.9485 2.48256 59.6721
6531075 6.79119 17.8169 10.2728 24.8132 10.7071 2.63288 59.6941
6531085 6.79119 17.8169 10.2728 24.8132 10.7071 2.63288 59.6941
6531096 6.87927 17.5933 10.5535 24.7645 10.4218 2.72087 59.7905
6531106 6.97617 17.3404 10.7927 24.667 10.1372 2.79622 59.7763
6531116 6.97617 17.3404 10.7927 24.667 10.1372 2.79622 59.7763
6531126 7.02902 17.2237 11.115 24.5112 9.84941 2.84912 59.8789
6531137 7.02902 17.2237 11.115 24.5112 9.84941 2.84912 59.8789
6531146 7.05544 17.0584 11.3749 24.3163 9.5913 2.9038 59.805
6531155 7.2228 16.9079 11.6557 24.1215 9.24376 2.91609 59.9079
6531166 7.2228 16.9079 11.6557 24.1215 9.24376 2.91609 59.9079
6531176 7.23161 16.7145 11.9364 23.8877 8.96525 2.98091 59.7702
6531186 7.31088 16.5119 12.2483 23.6636 8.62829 3.0357 59.7347
6531196 7.31088 16.5119 12.2483 23.6636 8.62829 3.0357 59.7347
6531206 7.39896 16.2449 12.5083 23.537 8.32422 3.1165 59.689
6531216 7.39896 16.2449 12.9034 23.537 8.10508 3.19465 60.0841
6531226 7.45181 16.0238 12.9034 23.3908 7.97203 3.21698 59.7698
6531237 7.5399 15.8028 13.3089 23.1083 7.55622 3.28175 59.7599
6531257 7.68964 15.591 13.8391 22.8745 7.05764 3.35857 59.9943
6531267 7.85699 15.416 14.1927 22.4946 6.61311 3.35577 59.9602
6531277 7.85699 15.416 14.1927 22.4946 6.61311 3.35577 59.9602
6531287 7.9715 15.195 14.619 22.251 6.18605 3.42378 60.0365
6531297 7.98912 15.0108 14.9517 21.8516 5.81976 3.46218 59.8032
6531307 7.98912 15.0108 14.9517 21.8516 5.81976 3.46218 59.8032
6531317 8.20933 14.799 15.4404 21.4424 5.2561 3.47491 59.8911
6531340 8.33264 14.5135 15.9187 20.9845 4.70581 3.52899 59.7494
6531347 8.43834 14.2004 16.5529 20.4585 4.05181 3.61422 59.6501
6531359 8.43834 14.2004 16.5529 20.4585 4.05181 3.61422 59.6501
6531367 8.64974 13.9518 17.128 19.9324 3.39684 3.63519 59.6619
6531379 8.64974 13.9518 17.128 19.9324 3.39684 3.63519 59.6619
6531395 8.86995 13.6663 17.7383 19.4842 2.73697 3.68639 59.7588
6531401 9.07254 13.3716 18.4076 19.0166 2.04951 3.75326 59.8684
6531409 9.07254 13.3716 18.4076 19.0166 2.04951 3.75326 59.8684
6531422 9.26632 13.1322 18.9884 18.4711 1.39852 3.77418 59.858
6531429 9.58342 12.8651 19.6479 17.8378 0.613827 3.76343 59.9343
6531442 9.58342 12.8651 19.6479 17.8378 0.613827 3.76343 59.9343
6531449 9.90052 12.6073 20.2484 17.0974 -0.185555 3.71859 59.8536
6531458 10.0943 12.3034 20.8784 16.486 -0.913347 3.75658 59.7621
6531468 10.0943 12.3034 20.8784 16.486 -0.913347 3.75658 59.7621
6531479 10.4466 12.0363 21.6659 15.8959 -1.74053 3.7669 60.0447
6531489 10.4466 12.0363 21.6659 15.8959 -1.74053 3.7669 60.0447
6531499 10.614 11.7508 22.1975 15.3914 -2.36402 3.80895 59.9536
6531509 10.8342 11.4193 22.7782 14.8583 -3.06178 3.85283 59.8901
6531519 10.8342 11.4193 22.7782 14.8583 -3.06178 3.85283 59.8901
6531529 11.0544 11.1706 23.4279 14.411 -3.70468 3.8993 60.0639
6531540 11.0544 11.1706 24.0579 14.411 -3.92572 4.01453 60.6939
6531551 11.1337 10.8667 24.0579 13.9446 -4.32491 4.00032 60.0029
6531560 11.3451 10.5905 24.8159 13.4972 -5.00977 4.07749 60.2486
6531570 11.3451 10.5905 24.8159 13.4972 -5.00977 4.07749 60.2486
6531581 11.5036 10.2037 25.377 13.145 -5.61682 4.18766 60.2293
6531592 11.6093 9.95504 25.8298 12.6881 -6.15653 4.23258 60.0823
6531602 11.6093 9.95504 25.8298 12.6881 -6.15653 4.23258 60.0823
6531610 11.7062 9.65114 26.2826 12.4216 -6.62489 4.33226 60.0615
6531622 11.9 9.65114 26.7649 12.098 -6.99994 4.29828 60.414
6531630 11.9 9.44854 26.7649 12.098 -7.10762 4.36321 60.2114
6531642 12.1026 9.26436 27.2768 11.8124 -7.56854 4.39714 60.4562
6531650 12.1026 9.26436 27.2768 11.8124 -7.56854 4.39714 60.4562
6531663 12.2435 9.0065 27.5918 11.4602 -8.02981 4.42821 60.302
6531670 12.3668 8.75785 27.8182 11.0985 -8.46442 4.44494 60.0414
6531684 12.3668 8.75785 27.8182 11.0985 -8.46442 4.44494 60.0414
6531692 12.4549 8.45395 28.0544 10.7273 -8.93276 4.49137 59.6906
6531704 12.4549 8.45395 28.0544 10.7273 -8.93276 4.49137 59.6906
6531711 12.543 8.2974 28.4088 10.6036 -9.21044 4.55417 59.8528
6531726 12.6399 8.11322 28.714 10.3561 -9.56341 4.59277 59.8232
6531731 12.6399 8.11322 28.714 10.3561 -9.56341 4.59277 59.8232
6531741 12.7808 7.91983 28.8813 10.1943 -9.8484 4.61093 59.7762
6531751 12.7984 7.83694 29.1077 10.1277 -9.99718 4.66003 59.8708
6531771 12.8953 7.74485 29.3243 10.0991 -10.1458 4.69082 60.0636
6531788 12.8953 7.74485 29.3243 10.0991 -10.1458 4.69082 60.0636
6531791 12.8601 7.60672 29.5704 10.0515 -10.3065 4.78169 60.0887
6531808 12.8953 7.56067 29.7869 9.98488 -10.434 4.81068 60.2278
6531811 12.8953 7.56067 29.7869 9.98488 -10.434 4.81068 60.2278
6531821 12.8953 7.42254 29.8853 9.95633 -10.556 4.868 60.1596
6531831 12.8249 7.36728 30.0921 9.87066 -10.672 4.92992 60.1549
6531842 12.8249 7.36728 30.0921 9.87066 -10.672 4.92992 60.1549
6531852 12.8689 7.30282 30.2102 9.91825 -10.7205 4.96434 60.3002
6531861 12.8689 7.30282 30.2102 9.91825 -10.7205 4.96434 60.3002
6531873 12.7544 7.10022 30.3578 9.80403 -10.917 5.07542 60.0165
6531882 12.7544 7.09101 30.5843 9.88018 -10.93 5.12827 60.3098
6531902 12.728 7.02654 30.7319 9.87066 -11.0023 5.18118 60.3571
6531912 12.6047 6.94366 30.8008 9.82307 -11.0677 5.25381 60.1722
6531923 12.6047 6.94366 30.8008 9.82307 -11.0677 5.25381 60.1722
6531934 12.6223 6.86999 30.7811 9.90873 -11.06 5.28336 60.1821
6531943 12.5254 6.86999 30.7811 9.90873 -11.0376 5.31607 60.0852
6531953 12.5254 6.86999 30.7811 9.89922 -11.0433 5.31453 60.0757
6531964 12.4637 6.85157 30.7713 9.93729 -11.0148 5.34619 60.0239
6531984 12.4197 6.8792 30.663 9.92777 -10.9684 5.33278 59.8897
6531997 12.3756 6.97129 30.6827 10.0991 -10.8051 5.34724 60.1287
6532005 12.3756 6.97129 30.6827 10.0991 -10.8051 5.34724 60.1287
6532016 12.3845 6.98971 30.5744 10.1372 -10.748 5.32674 60.0857
6532033 12.358 7.05417 30.4464 10.2514 -10.6051 5.31167 60.11
6532043 12.3228 7.10943 30.3283 10.4418 -10.4232 5.31654 60.2023
6532053 12.3228 7.10943 30.3283 10.4418 -10.4232 5.31654 60.2023
6532065 12.2259 7.10943 30.1118 10.5845 -10.2628 5.33743 60.0316
6532075 12.2171 7.22914 29.9247 10.7844 -10.0275 5.302 60.1554
6532086 12.2171 7.22914 29.9247 10.7844 -10.0275 5.302 60.1554
6532095 12.1202 7.34886 29.7771 11.0319 -9.75334 5.31037 60.2781
6532105 12.1202 7.34886 29.7771 11.0319 -9.75334 5.31037 60.2781
6532117 11.9969 7.43174 29.4719 11.2128 -9.4922 5.304 60.1133
6532126 11.9881 7.62514 29.2849 11.4698 -9.18455 5.25315 60.3679
6532139 11.9881 7.62514 29.2849 11.4698 -9.18455 5.25315 60.3679
6532145 11.8471 7.73564 28.901 11.7172 -8.84339 5.2413 60.201
6532155 11.7767 7.81853 28.586 11.9742 -8.54865 5.22771 60.1554
6532165 11.7767 7.81853 28.586 11.9742 -8.54865 5.22771 60.1554
6532175 11.6446 8.03955 28.2808 12.2408 -8.15749 5.19157 60.2057
6532187 11.6446 8.03955 28.2808 12.2408 -8.15749 5.19157 60.2057
6532195 11.5829 8.15005 27.9658 12.5263 -7.8341 5.1704 60.2251
6532208 11.4948 8.30661 27.6016 12.8404 -7.44869 5.1393 60.2435
6532215 11.4948 8.30661 27.6016 12.8404 -7.44869 5.1393 60.2435
6532229 11.4155 8.38949 27.2965 13.1069 -7.14832 5.13177 60.2084
6532235 11.3275 8.5 26.8338 13.3735 -6.78266 5.09201 60.0347
6532245 11.3275 8.5 26.8338 13.3735 -6.78266 5.09201 60.0347
6532255 11.2482 8.76706 26.4499 13.6209 -6.37007 5.00671 60.0861
6532275 11.1249 8.78548 25.9577 13.9446 -5.99896 5.01364 59.8126
6532286 11.028 9.01571 25.3966 14.3824 -5.44379 4.94846 59.8228
6532296 11.028 9.01571 25.3966 14.3824 -5.44379 4.94846 59.8228
6532307 10.9047 9.27356 24.8946 14.9059 -4.84329 4.90732 59.9788
6532315 10.7902 9.48537 24.3827 15.2486 -4.35631 4.84648 59.9069
6532336 10.6756 9.8169 23.9102 15.696 -3.77421 4.77056 60.0988
6532346 10.6756 9.8169 23.9102 15.696 -3.77421 4.77056 60.0988
6532356 10.4995 10.0195 23.3098 16.1433 -3.18749 4.73574 59.9721
6532366 10.4202 10.1945 22.6995 16.6097 -2.63479 4.67957 59.9239
6532376 10.4202 10.1945 22.6995 16.6097 -2.63479 4.67957 59.9239
6532389 10.2793 10.48 22.0892 16.9429 -2.06786 4.58415 59.7913
6532398 10.1119 10.701 21.469 17.3702 -1.47093 4.53286 59.6521
6532437 9.97098 11.0049 20.8784 17.9255 -0.802533 4.47343 59.7798
6532439 9.97098 11.0049 20.8784 17.9255 -0.802533 4.47343 59.7798
6532447 9.73316 11.4745 19.9531 18.6367 0.177667 4.36024 59.7975
6532467 9.62746 11.585 19.5692 19.0166 0.587395 4.35797 59.7983
6532478 9.51295 11.8429 19.1558 19.4453 1.09223 4.31439 59.9569
6532490 9.51295 11.8429 19.1558 19.4453 1.09223 4.31439 59.9569
6532499 9.39845 11.8705 18.8801 19.7668 1.40143 4.35058 59.9159
6532520 9.26632 12.0087 18.575 20.137 1.79386 4.36019 59.9869
6532529 9.12539 12.0547 18.319 20.4585 2.11346 4.40246 59.9576
6532548 9.07254 12.0915 18.0041 20.7799 2.41663 4.40879 59.9481
6532558 8.9228 12.1928 17.7087 21.1696 2.80484 4.44112 59.994
6532571 8.9228 12.1928 17.7087 21.1696 2.80484 4.44112 59.994
6532580 8.83471 12.331 17.3544 21.5203 3.19045 4.42428 60.0404
6532590 8.58808 12.3586 16.9688 22.0659 3.69599 4.5234 59.9814
6532611 8.52642 12.5796 16.5321 22.5628 4.18758 4.48219 60.2009
6532634 8.32383 12.6441 16.1162 23.0109 4.6655 4.53261 60.095
6532640 8.14767 12.8006 15.6899 23.4688 5.17071 4.54448 60.107
6532650 8.14767 12.8006 15.6899 23.4688 5.17071 4.54448 60.107
6532660 7.96269 12.9848 15.2324 23.9266 5.70502 4.54481 60.1066
6532670 7.77772 13.1782 14.8581 24.3163 6.17771 4.54475 60.1304
6532680 7.77772 13.1782 14.8581 24.3163 6.17771 4.54475 60.1304
6532690 7.55751 13.2979 14.4526 24.7255 6.66849 4.5781 60.0336
6532701 7.55751 13.2979 14.4526 24.7255 6.66849 4.5781 60.0336
6532711 7.41658 13.4361 14.1407 25.0373 7.04477 4.57898 60.0306
6532723 7.2228 13.565 13.7664 25.3003 7.4665 4.58082 59.8545
6532730 7.2228 13.565 13.7664 25.3003 7.4665 4.58082 59.8545
6532740 7.15233 13.8229 13.3609 25.5438 7.87139 4.49137 59.8799
6532751 6.94974 13.8229 13.1009 25.8361 8.20986 4.56319 59.7096
6532761 6.94974 14.007 13.1009 25.8361 8.26149 4.50303 59.8938
6532771 6.86166 14.2741 12.789 26.0309 8.61236 4.42431 59.9557
6532791 6.80881 14.4215 12.4043 26.1479 8.93081 4.34623 59.7824
6532801 6.72073 14.6609 12.1963 26.3037 9.20463 4.28807 59.8817
6532815 6.72073 14.6609 12.1963 26.3037 9.20463 4.28807 59.8817
6532822 6.70311 14.8543 11.9468 26.3719 9.42626 4.199 59.8761
6532832 6.57979 15.0293 11.77 26.4791 9.67225 4.16988 59.8582
6532842 6.57979 15.0293 11.77 26.4791 9.67225 4.16988 59.8582
6532853 6.59741 15.1674 11.5205 26.6934 9.89639 4.11374 59.9787
6532862 6.59741 15.1674 11.5205 26.6934 9.89639 4.11374 59.9787
6532872 6.50933 15.4068 11.2709 26.7713 10.1728 4.03433 59.9585
6532882 6.47409 15.6647 10.959 26.7811 10.443 3.90822 59.8789
6532892 6.47409 15.6647 10.959 26.7811 10.443 3.90822 59.8789
6532902 6.45648 15.9686 10.7511 26.7324 10.6385 3.77035 59.9085
6532913 6.45648 15.9686 10.7511 26.7324 10.6385 3.77035 59.9085
6532923 6.43886 16.2264 10.5431 26.7519 10.839 3.65985 59.9603
6532934 6.35959 16.4659 10.3352 26.7032 11.056 3.5613 59.8638
6532955 6.38601 16.7237 10.0856 26.5278 11.21 3.39157 59.7232
6532962 6.35078 16.8803 10.0024 26.5375 11.3201 3.33998 59.771
6532976 6.35078 16.8803 10.0024 26.5375 11.3201 3.33998 59.771
6532982 6.34197 17.1264 9.82569 26.4693 11.4736 3.21935 59.7634
6532992 6.34197 17.1264 9.73211 26.4693 11.5308 3.20087 59.6698
6533002 6.2715 17.3015 9.73211 26.4304 11.6046 3.16131 59.7355
6533012 6.32435 17.5057 9.60734 26.3427 11.6748 3.04114 59.7801
6533033 6.28912 17.6808 9.43058 26.1186 11.7944 2.91822 59.5191
6533045 6.29793 17.8656 9.47217 25.9043 11.7567 2.82491 59.54
6533056 6.29793 17.8656 9.47217 25.9043 11.7567 2.82491 59.54
6533067 6.36839 17.9434 9.39939 25.8069 11.7538 2.74568 59.518
6533078 6.40363 18.0406 9.49297 25.6413 11.6591 2.6914 59.5785
6533085 6.40363 18.0406 9.49297 25.6413 11.6591 2.6914 59.5785
6533095 6.52694 18.2254 9.49297 25.4854 11.5899 2.56803 59.7307
6533105 6.52694 18.2254 9.49297 25.4854 11.5899 2.56803 59.7307
6533119 6.55337 18.3421 9.52416 25.4269 11.5677 2.52035 59.8466
6533125 6.63264 18.4685 9.52416 25.1444 11.4841 2.40106 59.7698
6533146 6.68549 18.4783 9.56575 24.9885 11.3934 2.35872 59.718
6533156 6.8 18.5561 9.61774 24.7645 11.2586 2.26642 59.7383
6533166 6.8 18.5561 9.61774 24.7645 11.2586 2.26642 59.7383
6533177 6.86166 18.595 9.7633 24.5501 11.0926 2.22272 59.7701
6533187 6.9057 18.5366 9.83609 24.2287 10.9329 2.17346 59.507
6533197 6.9057 18.5366 9.83609 24.2287 10.9329 2.17346 59.507
6533207 7.07306 18.4005 10.0856 24.0046 10.5964 2.16995 59.5637
6533223 7.07306 18.4005 10.0856 24.0046 10.5964 2.16995 59.5637
6533230 7.14352 18.3518 10.2624 23.7805 10.3826 2.15346 59.5383
6533237 7.24922 18.1865 10.5535 23.5467 10.0487 2.18301 59.5359
6533247 7.24922 18.1865 10.5535 23.5467 10.0487 2.18301 59.5359
6533257 7.36373 18.0601 10.8654 23.2739 9.69761 2.19487 59.5632
6533268 7.53109 17.885 11.1982 23.0109 9.29416 2.21206 59.6252
6533287 7.68964 17.603 11.6141 22.7771 8.82835 2.28668 59.6838
6533297 7.68964 17.603 11.6141 22.7771 8.82835 2.28668 59.6838
6533308 7.83938 17.4571 12.0508 22.4653 8.37294 2.31213 59.8126
6533317 7.95389 17.2431 12.3835 22.2413 8.0017 2.36395 59.8218
6533330 7.95389 17.2431 12.3835 22.2413 8.0017 2.36395 59.8218
6533338 8.06839 17 12.7474 21.91 7.57387 2.40826 59.7258
6533350 8.25337 16.6869 13.1945 21.4716 7.00875 2.44752 59.6064
6533360 8.25337 16.6869 13.1945 21.4716 7.00875 2.44752 59.6064
6533371 8.41192 16.5027 13.652 21.1112 6.51414 2.47543 59.6778
6533392 8.52642 16.2172 14.1615 20.7605 5.98745 2.55883 59.6656
6533400 8.72902 15.987 14.5462 20.3513 5.47825 2.56187 59.6135
6533413 8.72902 15.987 14.5462 20.3513 5.47825 2.56187 59.6135
6533421 8.84352 15.7752 14.9725 20.0103 5.02064 2.60834 59.6015
6533448 9.09896 15.545 15.5443 19.494 4.35458 2.61243 59.6823
6533450 9.09896 15.545 15.5443 19.494 4.35458 2.61243 59.6823
6533451 9.26632 15.2319 16.1474 19.192 3.7644 2.71766 59.8375
6533461 9.48653 14.928 16.6777 18.6756 3.11179 2.74533 59.7678
6533471 9.48653 14.928 16.6777 18.6756 3.11179 2.74533 59.7678
6533481 9.71554 14.7069 17.2264 18.0814 2.44699 2.73361 59.7303
6533491 9.71554 14.7069 17.2264 18.0814 2.44699 2.73361 59.7303
6533502 9.96218 14.3478 17.8269 17.4481 1.68116 2.76036 59.585
6533511 10.1472 14.0623 18.4076 16.8287 0.982481 2.78242 59.4458
6533521 10.1472 14.0623 18.4076 16.8287 0.982481 2.78242 59.4458
6533531 10.4466 13.6847 19.1164 16.2861 0.171256 2.83985 59.5339
6533543 10.7637 13.6847 19.7661 15.7436 -0.459287 2.76723 59.9581
6533552 10.7637 13.2243 19.7661 15.7436 -0.656314 2.90473 59.4976
6533563 11.0456 12.8835 20.5536 15.2391 -1.45531 2.97969 59.7218
6533572 11.0456 12.8835 20.5536 15.2391 -1.45531 2.97969 59.7218
6533585 11.3539 12.4139 21.2721 14.5823 -2.36064 3.04082 59.6222
6533592 11.7503 12.0823 22.0104 14.1254 -3.14871 3.07743 59.9684
6533602 11.7503 12.0823 22.0104 14.1254 -3.14871 3.07743 59.9684
6533612 12.0321 11.76 22.6503 13.5829 -3.88982 3.10894 60.0253
6533632 12.358 11.3732 23.2113 13.0118 -4.6637 3.12533 59.9544
6533645 12.6575 11.0049 23.7626 12.5263 -5.37474 3.1592 59.9513
6533652 12.6575 11.0049 23.7626 12.5263 -5.37474 3.1592 59.9513
6533662 12.8337 10.6181 24.1859 12.1837 -5.94178 3.23909 59.8213
6533674 13.0451 10.3879 24.6879 11.7553 -6.50918 3.2593 59.8762
6533682 13.0451 10.3879 24.6879 11.7553 -6.50918 3.2593 59.8762
6533700 13.3181 10.0103 25.1604 11.3555 -7.14883 3.30545 59.8444
6533709 13.4943 9.75244 25.6329 11.0319 -7.65413 3.35947 59.9115
6533716 13.4943 9.75244 25.6329 11.0319 -7.65413 3.35947 59.9115
6533723 13.644 9.46696 26.0759 10.6702 -8.17895 3.41691 59.8571
6533744 13.7321 9.25515 26.4401 10.4989 -8.51804 3.49221 59.9262
6533758 13.8995 8.96966 26.9126 10.28 -8.97512 3.57717 60.0617
6533763 13.8995 8.96966 26.9126 10.28 -8.97512 3.57717 60.0617
6533774 13.9611 8.76706 27.3851 10.1277 -9.31737 3.68135 60.2409
6533784 14.0404 8.76706 27.7296 10.1277 -9.42693 3.72121 60.6647
6533794 14.0404 8.52763 27.7296 9.91825 -9.68354 3.75644 60.2159
6533804 14.1461 8.28819 28.0151 9.66125 -10.0697 3.80349 60.1106
6533813 14.1461 8.28819 28.0151 9.66125 -10.0697 3.80349 60.1106
6533824 14.1461 8.11322 28.1824 9.51848 -10.2972 3.86295 59.9602
6533834 14.2342 7.91062 28.3399 9.30907 -10.6008 3.88941 59.7938
6533847 14.2342 7.91062 28.3399 9.30907 -10.6008 3.88941 59.7938
6533857 14.2606 7.77248 28.4383 9.21389 -10.7701 3.92537 59.6853
6533866 14.2606 7.77248 28.4383 9.21389 -10.7701 3.92537 59.6853
6533874 14.2959 7.62514 28.5368 9.03303 -10.9994 3.94569 59.4908
6533884 14.3839 7.56988 28.6647 9.00448 -11.1007 3.95369 59.623
6533894 14.3839 7.56988 28.6647 9.00448 -11.1007 3.95369 59.623
6533903 14.4984 7.63434 28.7632 8.95689 -11.14 3.9064 59.8528
6533914 14.6218 7.56988 28.7829 8.89978 -11.2465 3.88088 59.8743
6533924 14.6218 7.56988 28.7829 8.89978 -11.2465 3.88088 59.8743
6533934 14.701 7.45937 28.8321 8.81411 -11.3949 3.88396 59.8066
6533953 14.7627 7.44095 28.8518 8.68085 -11.5058 3.84916 59.7363
6533965 14.886 7.41333 28.7829 8.63326 -11.5641 3.7972 59.7155
6533974 14.886 7.41333 28.7829 8.63326 -11.5641 3.7972 59.7155
6533984 15.0005 7.37649 28.6943 8.63326 -11.5925 3.75613 59.7045
6533997 15.0622 7.37649 28.6549 8.63326 -11.5975 3.72935 59.7268
6534004 15.0622 7.41333 28.6549 8.55711 -11.6216 3.70341 59.6875
6534014 15.2207 7.44095 28.5269 8.53807 -11.6232 3.61731 59.7267
6534023 15.2207 7.44095 28.5269 8.53807 -11.6232 3.61731 59.7267
6534036 15.3176 7.39491 28.3694 8.53807 -11.6379 3.57136 59.62
6534044 15.4409 7.49621 28.2611 8.44289 -11.6375 3.46243 59.6412
6534057 15.4409 7.49621 28.2611 8.44289 -11.6375 3.46243 59.6412
6534064 15.5995 7.65276 28.0643 8.43337 -11.5388 3.32521 59.7499
6534075 15.5995 7.65276 28.0643 8.43337 -11.5388 3.32521 59.7499
6534083 15.6435 7.65276 27.8871 8.40482 -11.5262 3.27136 59.5882
6534096 15.7052 7.73564 27.7197 8.45241 -11.4224 3.20349 59.613
6534121 15.7756 7.80932 27.7001 8.43337 -11.4006 3.15191 59.7184
6534125 15.7933 7.85536 27.5524 8.5 -11.3023 3.11647 59.701
6534135 15.7933 7.85536 27.5524 8.5 -11.3023 3.11647 59.701
6534148 15.7933 7.91983 27.3752 8.59518 -11.1645 3.08058 59.6835
6534155 15.7933 7.91983 27.3752 8.59518 -11.1645 3.08058 59.6835
6534171 15.6964 8.00271 27.2079 8.6523 -11.0181 3.06277 59.5592
6534175 15.6523 8.15926 27.0701 8.79507 -10.7949 3.02971 59.6767
6534186 15.6523 8.15926 27.0701 8.79507 -10.7949 3.02971 59.6767
6534196 15.6171 8.1961 27.0307 8.91881 -10.6809 3.04612 59.7627
6534206 15.4674 8.28819 26.6763 9.08063 -10.4074 3.02493 59.5125
6534221 15.4674 8.28819 26.6763 9.08063 -10.4074 3.02493 59.5125
6534226 15.3176 8.46316 26.5976 9.30907 -10.1122 3.04734 59.6874
6534246 15.1591 8.6013 26.2826 9.57559 -9.75567 3.0438 59.6185
6534256 14.9565 8.73944 26.0562 9.96585 -9.33864 3.09608 59.7179
6534267 14.9565 8.73944 26.0562 9.96585 -9.33864 3.09608 59.7179
6534276 14.842 8.93283 25.7412 10.299 -8.9239 3.07583 59.815
6534286 14.6394 9.08938 25.4754 10.6892 -8.48847 3.1145 59.8934
6534297 14.6394 9.08938 25.4754 10.6892 -8.48847 3.1145 59.8934
6534307 14.428 9.15385 25.1506 10.9938 -8.1333 3.15504 59.7262
6534317 14.428 9.15385 27.1783 10.9938 -8.68714 3.54399 61.754
6534327 14.243 9.38407 24.6584 11.4793 -7.54543 3.13995 59.7647
6534349 14.0052 9.54984 24.1957 12.0028 -6.96539 3.17391 59.7535
6534351 14.0052 9.54984 24.1957 12.0028 -6.96539 3.17391 59.7535
6534357 13.7585 9.78006 23.7134 12.4502 -6.38239 3.17198 59.7022
6534373 13.4767 10.0103 23.1523 13.0118 -5.70272 3.18781 59.651
6534387 13.2741 10.2681 22.601 13.6781 -4.98523 3.19372 59.8213
6534407 12.9834 10.5076 22.04 14.2206 -4.3075 3.20566 59.7516
6534421 12.6663 10.6826 21.5084 14.8869 -3.60088 3.27557 59.7442
6534427 12.6663 10.6826 21.5084 14.8869 -3.60088 3.27557 59.7442
6534437 12.4637 10.968 20.7997 15.6579 -2.77071 3.26246 59.8893
6534448 12.1026 11.2719 20.0417 16.3337 -1.89901 3.26382 59.7499
6534467 12.1026 11.2719 20.0417 16.3337 -1.89901 3.26382 59.7499
6534469 11.8471 11.6219 19.5397 16.8858 -1.20176 3.24481 59.8945
6534480 11.8471 11.6219 19.5397 16.8858 -1.20176 3.24481 59.8945
6534490 11.5829 11.8521 18.9195 17.341 -0.548336 3.22272 59.6955
6534498 11.3187 12.1192 18.5356 17.6722 -0.0263557 3.21146 59.6456
6534519 11.1601 12.2757 18.1714 18.1398 0.453603 3.23247 59.7471
6534529 10.9311 12.4783 17.7481 18.6075 1.00668 3.24926 59.765
6534538 10.9311 12.4783 17.7481 18.6075 1.00668 3.24926 59.765
6534549 10.7109 12.6717 17.3445 18.9971 1.51255 3.25472 59.7243
6534561 10.7109 12.6717 17.3445 18.9971 1.51255 3.25472 59.7243
6534569 10.4026 12.7638 16.9792 19.494 2.04395 3.3468 59.6396
6534585 10.2088 12.9296 16.6881 19.9908 2.51747 3.39547 59.8173
6534600 9.96218 13.0309 16.3969 20.3123 2.92454 3.44615 59.7023
6534610 9.73316 13.123 16.137 20.702 3.33143 3.51357 59.6951
6534620 9.73316 13.123 16.137 20.702 3.33143 3.51357 59.6951
6534631 9.58342 13.2795 15.7211 21.0235 3.77406 3.49326 59.6075
6534640 9.44249 13.2795 15.5235 21.0235 3.93839 3.49888 59.2691
6534654 9.44249 13.344 15.5235 21.267 4.04728 3.52588 59.5771
6534667 9.31036 13.4913 15.2844 21.6372 4.40942 3.54634 59.7234
6534670 9.31036 13.4913 15.2844 21.6372 4.40942 3.54634 59.7234
6534680 9.17824 13.6295 14.9101 21.9393 4.811 3.53059 59.6571
6534691 9.01969 13.7124 14.5982 22.3484 5.21247 3.57277 59.6786
6534701 9.01969 13.7124 14.5982 22.3484 5.21247 3.57277 59.6786
6534711 8.82591 13.8229 14.3486 22.6894 5.58655 3.61619 59.6868
6534721 8.82591 13.8229 14.2031 22.6894 5.66133 3.58836 59.5412
6534731 8.66736 13.9242 14.2031 23.0596 5.89488 3.67672 59.8542
6534742 8.51762 14.0439 13.9119 23.4201 6.27547 3.69919 59.8935
6534751 8.51762 14.0439 13.9119 23.4201 6.27547 3.69919 59.8935
6534763 8.35907 14.1452 13.5896 23.7318 6.65614 3.71508 59.8257
6534771 8.19171 14.2833 13.3609 23.9948 6.98872 3.73069 59.8307
6534784 8.19171 14.2833 13.3609 23.9948 6.98872 3.73069 59.8307
6534794 8.05078 14.3662 13.1737 24.3748 7.30275 3.78506 59.9655
6534811 7.85699 14.4675 12.9034 24.5989 7.64959 3.80542 59.8267
6534821 7.71606 14.6148 12.6642 24.9496 8.00076 3.82425 59.9447
6534841 7.57513 14.7069 12.3731 25.3003 8.36413 3.85069 59.9554
6534851 7.39896 14.8543 12.1339 25.6023 8.71972 3.87143 59.9895
6534873 7.23161 15.02 11.8012 25.9433 9.13829 3.87346 59.9961
6534892 7.09067 15.0661 11.5725 26.1673 9.42052 3.90249 59.8966
6534902 6.9057 15.2226 11.3749 26.3232 9.72196 3.90374 59.8265
6534912 6.9057 15.2226 11.3749 26.3232 9.72196 3.90374 59.8265
6534922 6.78238 15.3424 11.219 26.4986 9.95934 3.90847 59.8423
6534933 6.61503 15.4989 11.0838 26.7032 10.2266 3.92473 59.9009
6534942 6.61503 15.4989 11.0838 26.7032 10.2266 3.92473 59.9009
6534955 6.50933 15.5726 10.8966 26.859 10.4557 3.92907 59.8376
6534962 6.50933 15.5726 10.8966 26.859 10.4557 3.92907 59.8376
6534972 6.39482 15.6094 10.7719 26.9564 10.6304 3.94862 59.7326
6534987 6.3772 15.7107 10.7199 27.0734 10.7242 3.93412 59.8812
6534992 6.3772 15.7107 10.7199 27.0734 10.7242 3.93412 59.8812
6535002 6.31554 15.7476 10.6991 27.0734 10.7822 3.93813 59.8355
6535012 6.3772 15.6831 10.7407 27.1513 10.7237 3.96107 59.9523
6535022 6.3772 15.6831 10.7407 27.1513 10.7237 3.96107 59.9523
6535032 6.34197 15.6647 10.7615 27.2292 10.7465 3.99619 59.9973
6535052 6.28031 15.6647 10.7303 27.1513 10.7834 3.9957 59.8266
6535065 6.28031 15.5634 10.855 27.2682 10.7127 4.07213 59.9669
6535073 6.28031 15.5634 10.855 27.2682 10.7127 4.07213 59.9669
6535089 6.31554 15.4897 10.8654 27.1123 10.6305 4.0578 59.783
6535093 6.3772 15.4345 10.9694 27.1221 10.5211 4.07654 59.9031
6535124 6.36839 15.3884 11.1046 27.0734 10.4233 4.10975 59.9347
6535138 6.41244 15.3147 11.2398 26.9564 10.271 4.12252 59.9234
6535144 6.44767 15.1582 11.4477 26.8395 10.0606 4.17779 59.8931
6535153 6.44767 15.1582 11.4477 26.8395 10.0606 4.17779 59.8931
6535165 6.47409 15.1398 11.5101 26.7811 9.98942 4.17594 59.905
6535175 6.50052 14.9464 11.718 26.7616 9.79925 4.26341 59.9265
6535188 6.50052 14.9464 11.718 26.7616 9.79925 4.26341 59.9265
6535194 6.54456 14.9464 11.9676 26.6252 9.59471 4.26951 60.0837
6535203 6.54456 14.9464 11.9676 26.6252 9.59471 4.26951 60.0837
6535215 6.56218 14.8174 12.1235 26.5278 9.4366 4.3157 60.031
6535224 6.64145 14.6793 12.3003 26.4499 9.23384 4.35221 60.0709
6535238 6.64145 14.6793 12.3003 26.4499 9.23384 4.35221 60.0709
6535243 6.68549 14.5504 12.4563 26.2648 9.03706 4.37443 59.9569
6535253 6.74715 14.5504 12.6642 26.0991 8.84026 4.36203 60.0609
6535264 6.74715 14.4307 12.6642 26.0991 8.80798 4.4007 59.9412
6535273 6.8 14.2649 12.9865 25.8946 8.49636 4.45806 59.946
6535285 6.8 14.2649 12.9865 25.8946 8.49636 4.45806 59.946
6535294 6.9057 14.182 13.2569 25.5438 8.16655 4.4365 59.8884
6535304 7.0114 14.0623 13.6312 25.2418 7.78255 4.45379 59.9467
6535314 7.0114 14.0623 13.6312 25.2418 7.78255 4.45379 59.9467
6535325 7.17876 13.9334 13.9327 25.008 7.42259 4.45323 60.0529
6535335 7.20518 13.9334 14.2239 24.6865 7.15703 4.43934 60.0489
6535345 7.20518 13.8689 14.2239 24.6865 7.13785 4.46023 59.9845
6535359 7.38135 13.7216 14.5982 24.3066 6.68608 4.44989 60.0077
6535365 7.38135 13.7216 14.5982 24.3066 6.68608 4.44989 60.0077
6535375 7.53109 13.5558 14.9101 23.9072 6.26909 4.43969 59.9041
6535384 7.68083 13.4545 15.3468 23.3324 5.7508 4.39956 59.8145
6535395 7.68083 13.4545 15.3468 23.3324 5.7508 4.39956 59.8145
6535405 7.90104 13.3348 15.7523 22.933 5.26293 4.3681 59.9211
6535415 7.90104 13.3348 15.7523 22.933 5.26293 4.3681 59.9211
6535426 8.09482 13.1874 16.2826 22.2705 4.6296 4.32959 59.8353
6535435 8.33264 13.0677 16.7713 21.8223 4.07798 4.29875 59.994
6535445 8.33264 13.0677 16.7713 21.8223 4.07798 4.29875 59.994
6535455 8.57047 12.9112 17.3052 21.1599 3.4178 4.24963 59.9467
6535466 8.80829 12.7546 17.7973 20.5461 2.79399 4.2017 59.9064
6535491 9.09896 12.6349 18.388 19.9519 2.12232 4.1464 60.0737
6535496 9.09896 12.6349 18.388 19.9519 2.12232 4.1464 60.0737
6535505 9.30155 12.4415 18.9392 19.3673 1.48547 4.13745 60.0496
6535515 9.53938 12.2665 19.3822 18.7633 0.879171 4.08821 59.9514
6535526 9.53938 12.2665 19.3822 18.7633 0.879171 4.08821 59.9514
6535535 9.74197 12.1008 19.7365 18.247 0.36324 4.04692 59.8263
6535545 9.97098 11.9626 20.0811 17.7891 -0.125542 3.99722 59.8038
6535556 9.97098 11.9626 20.0811 17.7891 -0.125542 3.99722 59.8038
6535565 10.1824 11.7416 20.652 17.3799 -0.714205 4.02995 59.9559
6535575 10.1824 11.7416 20.652 17.3799 -0.714205 4.02995 59.9559
6535586 10.3674 11.585 21.0359 16.9524 -1.19526 4.01294 59.9407
6535595 10.5347 11.4745 21.3804 16.4955 -1.64693 3.97428 59.8852
6535625 10.7285 11.318 21.6561 16.1529 -2.05233 3.95013 59.8554
6535631 10.8694 11.2443 21.9612 15.7721 -2.42878 3.91487 59.8471
6535636 10.8694 11.2443 21.9612 15.7721 -2.42878 3.91487 59.8471
6535648 11.0104 11.143 22.2368 15.4675 -2.77184 3.89699 59.8577
6535656 11.0104 11.143 22.2368 15.4675 -2.77184 3.89699 59.8577
6535671 11.1689 11.0049 22.5518 15.0677 -3.19773 3.87479 59.7934
6535676 11.3891 10.8483 23.0145 14.5823 -3.74909 3.85048 59.8342
6535686 11.3891 10.8483 23.0145 14.5823 -3.74909 3.85048 59.8342
6535696 11.5917 10.7654 23.3984 14.1349 -4.21173 3.80098 59.8905
6535706 11.5917 10.7654 23.3984 14.1349 -4.21173 3.80098 59.8905
6535719 11.7855 10.5352 23.9102 13.659 -4.8011 3.81914 59.89
6535726 11.9088 10.351 24.3335 13.2783 -5.2667 3.84622 59.8716
6535746 12.1026 10.2497 24.6584 12.9071 -5.67619 3.8085 59.9177
6535759 12.2699 10.0748 25.1309 12.5168 -6.17131 3.82623 59.9924
6535781 12.4902 9.89978 25.3376 12.1741 -6.57487 3.78665 59.9016
6535787 12.6575 9.74323 25.5738 11.9267 -6.91199 3.78116 59.9012
6535799 12.6575 9.74323 25.5738 11.9267 -6.91199 3.78116 59.9012
6535809 12.8249 9.63272 25.8298 11.6601 -7.24041 3.76137 59.9475
6535819 12.8249 9.63272 25.8298 11.6601 -7.24041 3.76137 59.9475
6535831 12.9746 9.48537 26.0266 11.3841 -7.57122 3.74576 59.8707
6535839 13.0627 9.4117 26.194 11.1081 -7.83624 3.72077 59.7764
6535852 13.0627 9.4117 26.194 11.1081 -7.83624 3.72077 59.7764
6535858 13.1772 9.31961 26.3219 11.0034 -8.01383 3.71815 59.8221
6535868 13.2389 9.19989 26.4893 10.7749 -8.27151 3.7248 59.703
6535880 13.2389 9.19989 26.4893 10.7749 -8.27151 3.7248 59.703
6535904 13.3269 9.09859 26.6271 10.7559 -8.40164 3.75133 59.8085
6535906 13.3798 9.06176 26.7846 10.6226 -8.5549 3.75087 59.8488
6535910 13.3798 9.06176 26.7846 10.6226 -8.5549 3.75087 59.8488
6535923 13.3798 8.96045 27.0208 10.5179 -8.73523 3.80731 59.879
6535941 13.4679 8.94204 27.1488 10.3466 -8.90074 3.77733 59.9053
6535951 13.6088 8.8039 27.2276 10.2895 -9.0702 3.78051 59.9297
6535961 13.6088 8.8039 27.2276 10.2895 -9.0702 3.78051 59.9297
6535972 13.644 8.75785 27.1488 10.1562 -9.16091 3.74407 59.7069
6535981 13.644 8.72102 27.2276 10.0801 -9.24649 3.75613 59.6727
6535999 13.644 8.72102 27.2276 10.0801 -9.24649 3.75613 59.6727
6536001 13.6793 8.7026 27.2177 10.1562 -9.2201 3.76333 59.7558
6536011 13.6793 8.7026 27.2177 10.1562 -9.2201 3.76333 59.7558
6536022 13.6264 8.66576 27.1685 10.0705 -9.26346 3.76614 59.5312
6536032 13.7145 8.65656 26.9913 10.1562 -9.19589 3.724 59.5186
6536044 13.7145 8.65656 26.9913 10.1562 -9.19589 3.724 59.5186
6536052 13.7674 8.76706 26.9126 10.2324 -9.08208 3.67225 59.6794
6536068 13.7585 8.87757 26.7058 10.318 -8.9125 3.61744 59.66
6536072 13.7585 8.87757 26.7058 10.318 -8.9125 3.61744 59.66
6536082 13.7497 8.98808 26.509 10.4608 -8.71322 3.57541 59.7076
6536092 13.7497 8.98808 26.509 10.4608 -8.71322 3.57541 59.7076
6536102 13.7497 9.08938 26.2826 10.6226 -8.50303 3.53157 59.7443
6536114 13.7321 9.2091 25.9676 10.794 -8.2478 3.47228 59.7028
6536122 13.7321 9.2091 25.9676 10.794 -8.2478 3.47228 59.7028
6536136 13.7497 9.4117 25.6526 10.9843 -7.946 3.38023 59.7983
6536144 13.6969 9.6143 25.3179 11.1842 -7.6138 3.30802 59.8133
6536152 13.6969 9.6143 25.3179 11.1842 -7.6138 3.30802 59.8133
6536162 13.6529 9.80769 24.8454 11.3555 -7.2639 3.20317 59.6615
6536173 13.6529 9.80769 24.8454 11.3555 -7.2639 3.20317 59.6615
6536183 13.556 10.0471 24.2843 11.6316 -6.78841 3.10308 59.519
6536193 13.5295 10.3418 23.7528 11.9362 -6.29794 2.9762 59.5603
6536203 13.5295 10.3418 23.7528 11.9362 -6.29794 2.9762 59.5603
6536213 13.415 10.6181 23.231 12.2693 -5.7777 2.88927 59.5335
6536227 13.2917 10.8299 22.7979 12.6501 -5.29199 2.85205 59.5696
6536235 13.2917 10.8299 22.7979 12.6501 -5.29199 2.85205 59.5696
6536246 13.2389 11.1798 22.2959 13.0879 -4.71009 2.75032 59.8025
6536255 13.2389 11.1798 22.2959 13.0879 -4.71009 2.75032 59.8025
6536264 13.0891 11.3824 21.971 13.3639 -4.31131 2.72464 59.8066
6536275 12.9834 11.5666 21.5281 13.6971 -3.86773 2.67882 59.7752
6536284 12.9834 11.5666 21.5281 13.6971 -3.86773 2.67882 59.7752
6536293 12.8337 11.7324 21.0851 14.0398 -3.41201 2.65337 59.6909
6536304 12.6399 11.9626 20.5831 14.411 -2.87323 2.61547 59.5966
6536323 12.4549 12.2205 20.1204 14.8679 -2.29915 2.59276 59.6637
6536336 12.4549 12.2205 20.1204 14.8679 -2.29915 2.59276 59.6637
6536345 12.2259 12.3954 19.6676 15.2486 -1.78437 2.59371 59.5376
6536358 12.0409 12.5981 19.2247 15.696 -1.24731 2.58942 59.5596
6536365 12.0409 12.5981 19.2247 15.696 -1.24731 2.58942 59.5596
6536375 11.8824 12.7638 18.8506 16.0767 -0.794175 2.58868 59.5735
6536385 11.6974 12.8927 18.4864 16.3908 -0.378463 2.5948 59.4674
6536396 11.6974 12.8927 18.4864 16.3908 -0.378463 2.5948 59.4674
6536405 11.5212 13.1322 18.1911 16.8382 0.10809 2.60775 59.6827
6536416 11.5212 13.1322 18.1911 16.8382 0.10809 2.60775 59.6827
6536426 11.3098 13.2151 17.8367 17.2046 0.534317 2.64825 59.5662
6536436 11.1953 13.4269 17.5512 17.4968 0.912154 2.62088 59.6703
6536450 11.1953 13.4269 17.5512 17.4968 0.912154 2.62088 59.6703
6536456 10.9839 13.5466 17.1969 17.8476 1.34844 2.64723 59.575
6536466 10.8166 13.6295 16.9896 18.286 1.72017 2.72 59.7216
6536476 10.8166 13.6295 16.9896 18.286 1.72017 2.72 59.7216
6536486 10.7109 13.7124 16.6153 18.6562 2.11172 2.72593 59.6947
6536496 10.7109 13.7124 16.6153 18.6562 2.11172 2.72593 59.6947
6536510 10.5259 13.8321 16.3034 18.9679 2.50326 2.74529 59.6292
6536520 10.4114 13.9518 16.0746 19.2309 2.80579 2.75078 59.6688
6536526 10.4114 13.9518 16.0746 19.2309 2.80579 2.75078 59.6688
6536536 10.2617 14.0347 15.7835 19.5232 3.15115 2.77092 59.603
6536546 10.1031 14.0991 15.6067 19.757 3.41903 2.81071 59.566
6536557 10.1031 14.0991 15.6067 19.757 3.41903 2.81071 59.566
6536569 9.9886 14.1636 15.43 20.0688 3.6939 2.85323 59.6509
6536584 9.9886 14.1636 15.43 20.0688 3.6939 2.85323 59.6509
6536587 9.75078 14.2465 15.2116 20.439 4.07519 2.93053 59.6478
6536597 9.65389 14.3662 14.9829 20.7799 4.39481 2.94634 59.7829
6536610 9.65389 14.3662 14.9829 20.7799 4.39481 2.94634 59.7829
6536617 9.49534 14.4399 14.6709 21.1112 4.7661 2.97575 59.7173
6536626 9.33679 14.5872 14.3486 21.4327 5.16473 2.97895 59.7053
6536646 9.2399 14.7714 14.0055 21.7249 5.54509 2.94245 59.7417
6536658 9.2399 14.7714 14.0055 21.7249 5.54509 2.94245 59.7417
6536670 9.10777 14.9095 13.7768 21.9198 5.83817 2.9338 59.7138
6536686 8.94922 15.0477 13.496 22.2802 6.22464 2.95602 59.7731
6536691 8.94922 15.0477 13.496 22.2802 6.22464 2.95602 59.7731
6536697 8.82591 15.1582 13.2049 22.7186 6.61269 2.98946 59.9076
6536712 8.69378 15.2319 12.9346 22.933 6.91403 2.9958 59.7931
6536717 8.69378 15.2319 12.9346 22.933 6.91403 2.9958 59.7931
6536727 8.55285 15.3055 12.633 23.3032 7.28444 3.02983 59.7946
6536749 8.40311 15.3884 12.3523 23.459 7.58858 3.02498 59.6028
6536760 8.25337 15.4621 12.2067 23.8779 7.89293 3.10264 59.8001
6536785 8.05959 15.5265 11.874 24.141 8.2775 3.12801 59.6011
6536788 7.87461 15.5634 11.6972 24.4527 8.57734 3.19997 59.588
6536810 7.79534 15.7107 11.4789 24.8229 8.88654 3.20921 59.8079
6536833 7.61917 15.8212 11.3853 25.0275 9.12409 3.25106 59.8532
6536839 7.52228 15.8857 11.1774 25.2321 9.3694 3.26029 59.8174
6536856 7.52228 15.8857 11.1774 25.2321 9.3694 3.26029 59.8174
6536860 7.46062 15.9778 11.0526 25.4562 9.55872 3.27047 59.9472
6536870 7.28446 15.987 10.9174 25.5633 9.76886 3.31602 59.7522
6536880 7.28446 15.987 10.9174 25.5633 9.76886 3.31602 59.7522
6536890 7.18756 16.0883 10.8239 25.7971 9.96464 3.34203 59.8969
6536907 7.18756 16.0883 10.8239 25.7971 9.96464 3.34203 59.8969
6536911 7.16114 16.0975 10.7719 25.8848 10.0347 3.35424 59.9153
6536921 7.02902 16.162 10.6159 25.9725 10.2416 3.36171 59.7794
6536931 7.02902 16.162 10.6159 25.9725 10.2416 3.36171 59.7794
6536941 6.94974 16.1436 10.5327 26.0309 10.3475 3.38696 59.657
6536953 6.93212 16.1804 10.5951 26.0894 10.3444 3.40452 59.797
6536971 6.86166 16.1804 10.5223 26.216 10.4601 3.43666 59.7804
6536982 6.86166 16.1804 10.5223 26.216 10.4601 3.43666 59.7804
6536991 6.85285 16.1436 10.5223 26.3135 10.4801 3.46955 59.8322
6537003 6.83523 16.2541 10.5535 26.3817 10.5153 3.46006 60.0245
6537011 6.83523 16.2541 10.5535 26.3817 10.5153 3.46006 60.0245
6537029 6.70311 16.1988 10.4183 26.4011 10.6656 3.49562 59.7214
6537032 6.70311 16.0607 10.4807 26.3232 10.5762 3.53551 59.5677
6537042 6.70311 16.0607 10.4807 26.3232 10.5762 3.53551 59.5677
6537054 6.71192 16.0238 10.5015 26.2842 10.5401 3.54074 59.5215
6537079 6.78238 15.9225 10.6783 26.2842 10.3683 3.58427 59.6674
6537082 6.84404 15.9041 10.8031 26.2355 10.2416 3.58535 59.7867
6537092 6.84404 15.9041 10.8031 26.2355 10.2416 3.58535 59.7867
6537104 6.92332 15.7844 11.0006 26.1186 10.0202 3.6133 59.827
6537112 6.95855 15.7015 11.2709 26.0115 9.79418 3.65909 59.9425
6537135 6.95855 15.7015 11.2709 26.0115 9.79418 3.65909 59.9425
6537137 7.02902 15.5726 11.4997 25.8361 9.54328 3.6874 59.9374
6537144 7.10829 15.3976 11.7492 25.6023 9.24797 3.72024 59.8574
6537154 7.10829 15.3976 11.7492 25.6023 9.24797 3.72024 59.8574
6537164 7.24922 15.2871 12.0404 25.3003 8.89232 3.70868 59.877
6537179 7.24922 15.2871 12.0404 25.3003 8.89232 3.70868 59.877
6537184 7.35492 15.0753 12.3419 24.9983 8.52293 3.74181 59.7704
6537194 7.45181 14.8819 12.7266 24.6768 8.11065 3.784 59.7371
6537204 7.45181 14.8819 12.7266 24.6768 8.11065 3.784 59.7371
6537214 7.59275 14.6517 13.2673 24.3358 7.57236 3.84945 59.8475
6537234 7.7601 14.3478 13.7456 24.0143 7.03903 3.92164 59.8678
6537244 7.78653 14.1176 14.3486 23.6636 6.52828 4.03266 59.9163
6537265 7.95389 13.8965 14.8477 23.3129 6.00216 4.0768 60.011
6537277 8.12124 13.6939 15.4612 22.8063 5.37503 4.10741 60.0826
6537286 8.12124 13.6939 15.4612 22.8063 5.37503 4.10741 60.0826
6537301 8.22694 13.3992 15.9706 22.4264 4.84314 4.19109 60.0232
6537306 8.34145 13.1414 16.5321 22.1146 4.3167 4.28172 60.1296
6537317 8.34145 13.1414 16.5321 22.1146 4.3167 4.28172 60.1296
6537330 8.49119 12.9112 17.2264 21.6372 3.66327 4.34606 60.266
6537336 8.49119 12.9112 17.2264 21.6372 3.66327 4.34606 60.266
6537350 8.64974 12.6533 17.6891 21.1209 3.09227 4.3685 60.113
6537356 8.79948 12.3678 18.388 20.6143 2.40766 4.44618 60.1696
6537377 8.97565 12.1652 18.7522 20.1467 1.90878 4.43656 60.0397
6537386 9.11658 11.9166 19.3034 19.6791 1.32285 4.48616 60.0157
6537401 9.11658 11.9166 19.3034 19.6791 1.32285 4.48616 60.0157
6537406 9.25751 11.6679 19.8448 19.114 0.701201 4.51706 59.8843
6537425 9.25751 11.6679 19.8448 19.114 0.701201 4.51706 59.8843
6537427 9.3544 11.4193 20.4945 18.549 0.049895 4.58141 59.8172
6537436 9.5658 11.1706 21.0753 18.0034 -0.613138 4.59974 59.8152
6537449 9.5658 11.1706 21.0753 18.0034 -0.613138 4.59974 59.8152
6537457 9.75959 10.968 21.7545 17.4384 -1.29657 4.62244 59.9205
6537473 10.0062 10.701 22.4337 16.8858 -2.02125 4.651 60.0267
6537477 10.0062 10.701 22.4337 16.8858 -2.02125 4.651 60.0267
6537487 10.2088 10.4984 23.0735 16.2576 -2.71761 4.65301 60.0383
6537507 10.4466 10.2497 23.6838 15.6484 -3.42852 4.65675 60.0286
6537522 10.6316 10.0103 24.3729 15.1344 -4.09808 4.70465 60.1492
6537547 10.6316 10.0103 24.3729 15.1344 -4.09808 4.70465 60.1492
6537549 10.799 9.8169 24.8159 14.5062 -4.70978 4.68138 59.9379
6537561 11.0192 9.54984 25.2982 14.0207 -5.32112 4.69625 59.8879
6537572 11.1513 9.33803 25.8888 13.5448 -5.90646 4.74216 59.9229
6537579 11.1513 9.33803 25.8888 13.5448 -5.90646 4.74216 59.9229
6537596 11.2922 9.2091 26.3219 13.1545 -6.35674 4.74554 59.9778
6537599 11.5477 9.01571 26.7354 12.7833 -6.85896 4.73236 60.0821
6537608 11.5477 9.01571 26.7354 12.7833 -6.85896 4.73236 60.0821
6537620 11.671 8.84074 27.0898 12.3835 -7.30868 4.74158 59.985
6537631 11.7767 8.65656 27.3949 12.1265 -7.66766 4.77566 59.9547
6537644 11.7767 8.65656 27.3949 12.1265 -7.66766 4.77566 59.9547
6537648 11.9 8.54605 27.6213 11.8886 -7.95863 4.76946 59.9559
6537658 11.9 8.54605 27.6213 11.8886 -7.95863 4.76946 59.9559
6537668 12.0233 8.38028 27.9363 11.7458 -8.25219 4.81275 60.0857
6537679 12.129 8.28819 28.2316 11.5745 -8.50915 4.82925 60.2233
6537692 12.129 8.28819 28.2316 11.5745 -8.50915 4.82925 60.2233
6537699 12.2347 8.23294 28.5171 11.3555 -8.76832 4.82389 60.3403
6537709 12.3845 8.04875 28.901 11.1271 -9.14204 4.86134 60.4613
6537718 12.3845 8.04875 28.901 11.1271 -9.14204 4.86134 60.4613
6537728 12.5166 7.8922 29.1766 10.813 -9.51516 4.86292 60.3984
6537741 12.5166 7.8922 29.1766 10.813 -9.51516 4.86292 60.3984
6537749 12.6839 7.68039 29.3341 10.556 -9.86719 4.86083 60.2544
6537759 12.8249 7.54225 29.3932 10.3371 -10.1247 4.83293 60.0974
6537769 12.8249 7.54225 29.3932 10.3371 -10.1247 4.83293 60.0974
6537779 13.001 7.50542 29.5113 10.0325 -10.3973 4.75535 60.0502
6537790 13.001 7.50542 29.5113 10.0325 -10.3973 4.75535 60.0502
6537798 13.0363 7.36728 29.6097 9.8421 -10.6242 4.77358 59.8554
6537811 13.2036 7.29361 29.6294 9.67077 -10.8151 4.71666 59.7974
6537818 13.2036 7.29361 29.6294 9.67077 -10.8151 4.71666 59.7974
6537828 13.3886 7.21993 29.7475 9.58511 -10.9821 4.68562 59.9412
6537839 13.5295 7.17389 29.8066 9.42329 -11.1536 4.63677 59.9333
6537852 13.5295 7.17389 29.8066 9.42329 -11.1536 4.63677 59.9333
6537858 13.6 7.1831 29.7672 9.271 -11.2473 4.57741 59.8213
6537872 13.6 7.1831 29.7672 9.271 -11.2473 4.57741 59.8213
6537880 13.6969 7.15547 29.6589 9.18533 -11.3135 4.52084 59.6966
6537892 13.8114 7.11863 29.5605 9.14726 -11.3628 4.47143 59.6378
6537901 13.8114 7.11863 29.5605 9.14726 -11.3628 4.47143 59.6378
6537916 14.0052 7.12784 29.4129 9.08063 -11.4083 4.3673 59.6265
6537921 14.1021 7.19231 29.3538 9.06159 -11.3892 4.30106 59.7098
6537931 14.1021 7.19231 29.3538 9.06159 -11.3892 4.30106 59.7098
6537941 14.2959 7.22914 29.1766 9.014 -11.3996 4.18624 59.7156
6537952 14.3311 7.2844 29.0979 9.04255 -11.3386 4.14811 59.7559
6537971 14.428 7.43174 28.96 9.06159 -11.2283 4.04848 59.8814
6537981 14.428 7.43174 28.96 9.06159 -11.2283 4.04848 59.8814
6537991 14.4896 7.39491 28.8025 9.07111 -11.2228 4.01345 59.7582
6538001 14.5249 7.50542 28.7435 9.17581 -11.0873 3.97559 59.9496
6538011 14.5249 7.50542 28.7435 9.17581 -11.0873 3.97559 59.9496
6538021 14.5689 7.64355 28.5072 9.18533 -10.9537 3.87616 59.905
6538031 14.5777 7.66197 28.3793 9.24244 -10.8804 3.85441 59.8614
6538042 14.5777 7.66197 28.3793 9.24244 -10.8804 3.85441 59.8614
6538051 14.5865 7.77248 28.3104 9.28051 -10.7773 3.81115 59.9499
6538062 14.5865 7.77248 28.3104 9.28051 -10.7773 3.81115 59.9499
6538071 14.4808 7.87378 28.1332 9.35666 -10.604 3.79364 59.8445
6538081 14.4984 7.91062 27.9461 9.42329 -10.5016 3.75395 59.7785
6538102 14.472 7.98429 27.7788 9.57559 -10.3205 3.73631 59.8107
6538115 14.3663 8.06717 27.6016 9.70885 -10.1232 3.73518 59.744
6538136 14.2518 8.1961 27.454 9.90873 -9.86487 3.7405 59.8106
6538163 14.2518 8.1961 27.454 9.90873 -9.86487 3.7405 59.8106
6538165 14.2078 8.25135 27.2866 10.023 -9.71248 3.72698 59.7687
6538191 13.9523 8.52763 26.7649 10.4798 -9.08743 3.70821 59.7247
6538195 13.8114 8.69339 26.4893 10.8796 -8.65475 3.72387 59.8737
6538215 13.7233 8.86836 26.1546 11.1176 -8.30717 3.67847 59.8639
6538226 13.5472 9.11701 25.7904 11.4793 -7.81747 3.65541 59.9338
6538236 13.5472 9.11701 25.7904 11.4793 -7.81747 3.65541 59.9338
6538249 13.4326 9.32882 25.4163 11.7934 -7.3897 3.6138 59.9712
6538256 13.4326 9.32882 25.4163 11.7934 -7.3897 3.6138 59.9712
6538266 13.2829 9.43933 25.0324 12.0885 -7.01314 3.6091 59.8431
6538277 13.1067 9.66035 24.6387 12.4121 -6.55029 3.5818 59.8179
6538286 13.1067 9.66035 24.6387 12.4121 -6.55029 3.5818 59.8179
6538296 12.9834 9.80769 24.2056 12.7833 -6.10487 3.5625 59.78
6538306 12.8601 10.0195 23.7035 13.1165 -5.62302 3.50263 59.6996
6538317 12.8601 10.0195 23.7035 13.1165 -5.62302 3.50263 59.6996
6538331 12.6399 10.3234 23.1917 13.4782 -5.04333 3.44771 59.6331
6538349 12.4373 10.572 22.6503 13.9922 -4.41033 3.42816 59.6518
6538358 12.2788 10.8483 22.1876 14.449 -3.83552 3.39075 59.7637
6538367 12.2788 10.8483 22.1876 14.449 -3.83552 3.39075 59.7637
6538382 12.0409 11.0233 21.5871 14.9059 -3.2317 3.38217 59.5573
6538387 11.8824 11.2811 21.1442 15.4199 -2.64764 3.36542 59.7276
6538397 11.8824 11.2811 21.1442 15.4199 -2.64764 3.36542 59.7276
6538407 11.6358 11.5298 20.6815 15.9625 -2.01682 3.38035 59.8096
6538417 11.6358 11.5298 20.6815 15.9625 -2.01682 3.38035 59.8096
6538429 11.4067 11.6219 20.1893 16.467 -1.46906 3.42491 59.6849
6538437 11.1249 11.8982 19.6283 16.9905 -0.781536 3.41934 59.6418
6538454 11.1249 11.8982 19.6283 16.9905 -0.781536 3.41934 59.6418
6538458 10.9399 12.2205 19.1065 17.4871 -0.14177 3.37214 59.754
6538468 10.7021 12.3126 18.5553 18.1301 0.496349 3.43486 59.7
6538481 10.7021 12.3126 18.5553 18.1301 0.496349 3.43486 59.7
6538488 10.4995 12.4507 18.073 18.5977 1.03821 3.45193 59.6209
6538499 10.4995 12.4507 18.073 18.5977 1.03821 3.45193 59.6209
6538509 10.3674 12.6994 17.6005 19.1043 1.60437 3.42255 59.7715
6538520 10.1912 12.8559 17.1772 19.5914 2.12274 3.44094 59.8157
6538530 10.1912 12.8559 17.1772 19.5914 2.12274 3.44094 59.8157
6538540 9.93575 13.0861 16.6569 20.1175 2.76396 3.44984 59.7962
6538550 9.70674 13.2427 16.2202 20.6241 3.31968 3.48569 59.7937
6538569 9.70674 13.2427 16.2202 20.6241 3.31968 3.48569 59.7937
6538570 9.53057 13.4545 15.7523 21.1209 3.88106 3.48026 59.8583
6538580 9.53057 13.4545 15.7523 21.1209 3.88106 3.48026 59.8583
6538591 9.28394 13.5098 15.1908 21.5885 4.45819 3.52148 59.5731
6538602 9.07254 13.6847 14.9309 22.0464 4.90826 3.57081 59.7346
6538610 9.07254 13.6847 14.9309 22.0464 4.90826 3.57081 59.7346
6538626 8.8171 13.7768 14.4318 22.5628 5.49211 3.62502 59.5885
6538631 8.65855 13.8597 14.1303 23.0596 5.91648 3.68584 59.7081
6538641 8.65855 13.8597 14.1303 23.0596 5.91648 3.68584 59.7081
6538651 8.41192 14.0899 13.756 23.4785 6.44523 3.69942 59.7363
6538661 8.41192 14.0899 13.756 23.4785 6.44523 3.69942 59.7363
6538671 8.19171 14.2833 13.3505 23.9461 6.9796 3.71955 59.7716
6538681 7.99793 14.4122 13.0489 24.4722 7.44085 3.78207 59.9313
6538693 7.99793 14.4122 13.0489 24.4722 7.44085 3.78207 59.9313
6538701 7.81295 14.6241 12.6538 24.8327 7.92258 3.76718 59.9235
6538713 7.6456 14.7714 12.3315 25.2126 8.34162 3.78423 59.9611
6538722 7.6456 14.7714 12.3315 25.2126 8.34162 3.78423 59.9611
6538739 7.47824 14.9187 12.0092 25.4756 8.72844 3.7794 59.8818
6538742 7.47824 14.9187 12.0092 25.4756 8.72844 3.7794 59.8818
6538752 7.30207 15.02 11.7076 25.7679 9.10497 3.80118 59.7977
6538763 7.17876 15.2134 11.4061 25.992 9.45828 3.76463 59.7903
6538772 7.17876 15.2134 11.4061 25.992 9.45828 3.76463 59.7903
6538789 7.08187 15.2963 11.1982 26.0894 9.6813 3.74823 59.6657
6538793 7.00259 15.4805 11.0214 26.255 9.91955 3.71321 59.7595
6538821 6.96736 15.6371 10.8031 26.4693 10.1609 3.67454 59.8768
6538828 6.83523 15.7568 10.6055 26.5083 10.3944 3.64834 59.7058
6538843 6.75596 15.8489 10.5119 26.635 10.5503 3.65062 59.7517
6538868 6.66788 15.8857 10.4287 26.7616 10.6917 3.67488 59.7439
6538889 6.65907 15.9962 10.3144 26.9272 10.8311 3.65286 59.8969
6538894 6.62383 15.8949 10.2624 26.8688 10.8456 3.67454 59.6499
6538905 6.57979 15.9041 10.3352 26.9467 10.849 3.71399 59.7658
6538915 6.57979 15.9041 10.3352 26.9467 10.849 3.71399 59.7658
6538925 6.56218 15.8397 10.4287 27.0149 10.8043 3.77016 59.8455
6538945 6.4829 15.7199 10.4391 27.1318 10.8449 3.85657 59.7738
6538955 6.52694 15.591 10.5015 27.0928 10.7412 3.88774 59.7123
6538977 6.44767 15.416 10.7199 27.1221 10.6232 4.01425 59.7056
6538986 6.45648 15.3055 10.8654 27.0052 10.4761 4.05196 59.6326
6538996 6.45648 15.3055 10.8654 27.0052 10.4761 4.05196 59.6326
6539007 6.52694 15.1213 11.1462 26.9564 10.211 4.13073 59.7509
6539026 6.56218 14.8911 11.4373 26.8201 9.92775 4.22137 59.7107
6539037 6.5886 14.6609 11.8012 26.7032 9.61202 4.33149 59.7539
6539047 6.5886 14.6609 11.8012 26.7032 9.61202 4.33149 59.7539
6539057 6.67668 14.4215 12.1755 26.4888 9.22738 4.40901 59.7625
6539067 6.81762 14.3017 12.6018 26.2842 8.81859 4.44128 60.0054
6539077 6.81762 14.3017 12.6018 26.2842 8.81859 4.44128 60.0054
6539089 6.92332 14.1728 13.0697 26.0602 8.40166 4.49152 60.226
6539097 6.92332 14.1728 13.0697 26.0602 8.40166 4.49152 60.226
6539110 7.03782 13.9426 13.4336 25.69 7.96997 4.52795 60.104
6539117 7.24922 13.8873 13.9327 25.3198 7.4621 4.49981 60.389
6539127 7.24922 13.8873 13.9327 25.3198 7.4621 4.49981 60.389
6539137 7.31969 13.6203 14.3278 24.8327 6.99055 4.54752 60.1004
6539147 7.56632 13.5005 14.7853 24.3066 6.42279 4.49437 60.1588
6539157 7.56632 13.5005 14.7853 24.3066 6.42279 4.49437 60.1588
6539181 7.72487 13.2979 15.222 23.7903 5.88877 4.49474 60.0351
6539187 7.92746 13.0309 15.6899 23.2934 5.2997 4.51063 59.9417
6539202 8.11244 12.8559 16.3346 22.7966 4.66122 4.53318 60.0995
6539208 8.11244 12.8559 16.3346 22.7966 4.66122 4.53318 60.0995
6539219 8.27098 12.6533 16.9168 22.212 4.02873 4.54711 60.0531
6539231 8.43834 12.4691 17.5611 21.5593 3.34387 4.55112 60.0279
6539237 8.43834 12.4691 17.5611 21.5593 3.34387 4.55112 60.0279
6539251 8.61451 12.3402 18.1616 21.0235 2.73847 4.547 60.1398
6539257 8.61451 12.3402 18.1616 21.0235 2.73847 4.547 60.1398
6539278 8.85233 12.0087 18.5651 20.4487 2.10435 4.5477 59.8749
6539281 9.06373 11.9258 19.0573 19.9908 1.58049 4.51183 60.0377
6539288 9.06373 11.9258 19.0573 19.9908 1.58049 4.51183 60.0377
6539299 9.2487 11.7416 19.4708 19.4842 1.04528 4.49527 59.9453
6539308 9.50414 11.6403 19.7759 18.8705 0.514603 4.3908 59.7908
6539320 9.50414 11.6403 19.7759 18.8705 0.514603 4.3908 59.7908
6539329 9.70674 11.539 20.2976 18.208 -0.10767 4.33293 59.7514
6539338 9.70674 11.539 20.2976 18.208 -0.10767 4.33293 59.7514
6539350 9.95337 11.2904 20.8587 17.6527 -0.781943 4.33462 59.7552
6539361 10.1736 11.097 21.3607 17.1266 -1.38505 4.32165 59.7579
6539370 10.1736 11.097 21.3607 17.1266 -1.38505 4.32165 59.7579
6539383 10.3938 10.9404 21.912 16.6478 -1.96912 4.31402 59.894
6539390 10.5083 10.7562 22.3746 16.2195 -2.46715 4.34263 59.8586
6539400 10.5083 10.7562 22.3746 16.2195 -2.46715 4.34263 59.8586
6539411 10.7373 10.5536 22.8373 15.8387 -2.99424 4.34867 59.967
6539421 10.8782 10.4063 23.2212 15.4295 -3.44693 4.34623 59.9352
6539431 10.8782 10.4063 23.2212 15.4295 -3.44693 4.34623 59.9352
6539441 11.0456 10.3879 23.6445 15.0582 -3.84293 4.30753 60.1362
6539451 11.0456 10.3879 23.6445 15.0582 -3.84293 4.30753 60.1362
6539467 11.1865 10.1945 24.0087 14.7251 -4.27335 4.32991 60.1148
6539478 11.3098 10.0655 24.3138 14.3253 -4.67921 4.31489 60.0145
6539481 11.3098 10.0655 24.3138 14.3253 -4.67921 4.31489 60.0145
6539492 11.4772 9.89978 24.6288 13.9065 -5.1324 4.29587 59.9123
6539502 11.6005 9.79848 25.0029 13.5638 -5.52028 4.29438 59.9657
6539522 11.7679 9.65114 25.377 13.2307 -5.94028 4.29525 60.0266
6539552 11.856 9.54984 25.7805 12.8309 -6.35474 4.30018 60.0172
6539557 11.9528 9.4117 26.1251 12.5929 -6.68799 4.3324 60.0826
6539585 12.0409 9.33803 26.5385 12.2884 -7.03963 4.34706 60.2058
6539592 12.2083 9.18147 26.8929 12.1265 -7.3636 4.37756 60.4092
6539593 12.2083 9.18147 26.8929 12.1265 -7.3636 4.37756 60.4092
6539607 12.2171 9.08017 27.1587 11.9552 -7.58982 4.42384 60.4111
6539613 12.2171 9.08017 27.1587 11.9552 -7.58982 4.42384 60.4111
6539631 12.3052 8.88678 27.3063 11.6221 -7.94351 4.42523 60.1203
6539633 12.358 8.8039 27.4933 11.4031 -8.17718 4.42932 60.0584
6539644 12.358 8.8039 27.4933 11.4031 -8.17718 4.42932 60.0584
6539655 12.3756 8.61972 27.6607 11.1557 -8.46864 4.46927 59.8117
6539665 12.4813 8.54605 27.9461 11.0034 -8.70256 4.48225 59.9769
6539685 12.587 8.46316 28.0643 10.9653 -8.83112 4.48887 60.0798
6539701 12.587 8.46316 28.0643 10.9653 -8.83112 4.48887 60.0798
6539705 12.6487 8.40791 28.1135 10.8415 -8.9619 4.47374 60.0117
6539715 12.7104 8.33424 28.1726 10.7273 -9.10065 4.46796 59.9445
6539725 12.7104 8.33424 28.1726 10.7273 -9.10065 4.46796 59.9445
6539736 12.8513 8.2974 28.2611 10.6512 -9.22556 4.4364 60.061
6539748 12.9041 8.26977 28.271 10.5179 -9.33389 4.40648 59.9628
6539755 12.9041 8.26977 28.271 10.5179 -9.33389 4.40648 59.9628
6539765 12.9658 8.26056 28.3694 10.4798 -9.40266 4.40018 60.0756
6539775 12.9658 8.26056 28.3694 10.4798 -9.40266 4.40018 60.0756
6539786 13.0275 8.15926 28.3891 10.3656 -9.54752 4.39629 59.9415
6539795 12.9922 8.15005 28.4383 10.3942 -9.53998 4.42442 59.9748
6539806 12.9922 8.15005 28.4383 10.3942 -9.53998 4.42442 59.9748
6539818 13.0627 8.10401 28.4285 10.3371 -9.61507 4.40469 59.9323
6539826 12.9482 8.15926 28.3793 10.4132 -9.49708 4.42865 59.8999
6539841 12.9482 8.15926 28.3793 10.4132 -9.49708 4.42865 59.8999
6539846 13.001 8.15005 28.4482 10.5084 -9.47914 4.4434 60.1077
6539866 12.913 8.0948 28.399 10.5845 -9.43161 4.49459 59.9913
6539876 12.8601 8.14085 28.3891 10.6512 -9.35074 4.50674 60.0412
6539887 12.8601 8.14085 28.3891 10.6512 -9.35074 4.50674 60.0412
6539896 12.7984 8.12243 28.4186 10.7654 -9.28762 4.55782 60.1049
6539911 12.7192 8.16847 28.3497 10.9272 -9.13046 4.58475 60.1646
6539926 12.6839 8.15005 28.3399 10.9748 -9.10202 4.60876 60.1487
6539940 12.6839 8.15005 28.3399 10.9748 -9.10202 4.60876 60.1487
6539947 12.543 8.15005 28.2907 11.051 -9.00841 4.65945 60.0347
6539957 12.4549 8.20531 28.3005 11.2318 -8.85422 4.70293 60.1926
6539969 12.4549 8.20531 28.3005 11.2318 -8.85422 4.70293 60.1926
6539980 12.358 8.16847 28.1627 11.2794 -8.78496 4.73137 59.9686
6539993 12.2435 8.22373 28.0938 11.4983 -8.58121 4.77649 60.0594
6539997 12.2435 8.22373 28.0938 11.4983 -8.58121 4.77649 60.0594
6540009 12.1114 8.27898 27.8969 11.7172 -8.33774 4.80558 60.0046
6540019 12.0145 8.27898 27.641 11.9742 -8.0966 4.8378 59.9087
6540029 12.0145 8.27898 27.641 11.9742 -8.0966 4.8378 59.9087
6540039 11.9264 8.42633 27.4343 12.2217 -7.7958 4.82511 60.0088
6540059 11.7855 8.53684 27.0799 12.4978 -7.44191 4.82187 59.9
6540071 11.7062 8.7026 26.6173 12.8499 -7.00236 4.77446 59.876
6540078 11.7062 8.7026 26.6173 12.8499 -7.00236 4.77446 59.876
6540093 11.5829 8.88678 26.2432 13.2116 -6.56145 4.75227 59.9245
6540120 11.5036 9.05255 25.8298 13.6019 -6.11746 4.71983 59.9878
6540129 11.5036 9.05255 25.8298 13.6019 -6.11746 4.71983 59.9878
6540132 11.3539 9.21831 25.3966 14.0302 -5.62591 4.71374 59.9991
6540140 11.2658 9.34724 25.0029 14.449 -5.19122 4.70463 60.065
6540161 11.1337 9.54984 24.6584 14.7822 -4.76515 4.67959 60.1241
6540165 11.1337 9.54984 24.6584 14.7822 -4.76515 4.67959 60.1241
6540169 11.0456 9.62351 24.2351 15.1534 -4.37237 4.67536 60.0576
6540193 10.9487 9.76165 23.9201 15.4104 -4.03756 4.65187 60.0409
6540200 10.8342 9.88136 23.5953 15.6389 -3.71529 4.63352 59.9497
6540210 10.8342 9.88136 23.5953 15.6389 -3.71529 4.63352 59.9497
6540226 10.7549 9.92741 23.231 15.9244 -3.39841 4.6308 59.8378
6540230 10.5964 10.13 22.9456 16.1624 -3.02901 4.60811 59.8343
6540240 10.5964 10.13 22.9456 16.1624 -3.02901 4.60811 59.8343
6540259 10.4907 10.2313 22.6601 16.486 -2.68652 4.61618 59.8681
6540270 10.4202 10.351 22.2368 16.8477 -2.27977 4.58936 59.8558
6540284 10.2705 10.5628 21.8628 17.341 -1.76117 4.58977 60.037
6540290 10.2705 10.5628 21.8628 17.341 -1.76117 4.58977 60.037
6540300 10.0855 10.7562 21.3214 17.6625 -1.2487 4.54875 59.8256
6540310 9.93575 10.9128 20.9079 18.1885 -0.726649 4.56617 59.945
6540320 9.93575 10.9128 20.9079 18.1885 -0.726649 4.56617 59.945
6540333 9.78601 11.1062 20.3468 18.6464 -0.158744 4.53393 59.8854
6540340 9.78601 11.1062 20.3468 18.6464 -0.158744 4.53393 59.8854
6540358 9.61865 11.3088 19.6972 19.2212 0.507206 4.50932 59.8458
6540361 9.41606 11.5206 19.205 19.7668 1.11266 4.51567 59.9084
6540371 9.41606 11.5206 19.205 19.7668 1.11266 4.51567 59.9084
6540383 9.23109 11.8521 18.6734 20.3415 1.78423 4.47562 60.0982
6540391 9.10777 12.0547 18.1812 20.8189 2.32063 4.44736 60.1626
6540409 9.10777 12.0547 18.1812 20.8189 2.32063 4.44736 60.1626
6540411 9.01969 12.2297 17.7087 21.0722 2.73756 4.38068 60.0303
6540421 9.01969 12.2297 17.7087 21.0722 2.73756 4.38068 60.0303
6540433 8.85233 12.3586 17.4134 21.4034 3.122 4.39944 60.0278
6540442 8.72902 12.552 17.1575 21.7054 3.47954 4.38496 60.144
6540462 8.64974 12.6441 16.896 21.949 3.76102 4.37767 60.1389
6540472 8.65855 12.8191 16.5217 22.0562 4.03584 4.27111 60.0555
6540484 8.65855 12.8191 16.5217 22.0562 4.03584 4.27111 60.0555
6540492 8.58808 12.9664 16.1578 22.3679 4.40596 4.23714 60.0802
6540506 8.58808 12.9664 16.1578 22.3679 4.40596 4.23714 60.0802
6540513 8.44715 13.0217 15.7523 22.5433 4.75429 4.22327 59.7644
6540522 8.35026 13.2151 15.3988 22.7284 5.10717 4.16179 59.6925
6540542 8.35026 13.2151 15.3988 22.7284 5.10717 4.16179 59.6925
6540543 8.2886 13.3716 15.0972 23.0206 5.43945 4.12969 59.7781
6540555 8.21813 13.6203 14.6917 23.2252 5.83027 4.0361 59.7554
6540572 8.15648 13.8413 14.3174 23.4395 6.19487 3.95598 59.7547
6540582 8.15648 13.8413 14.3174 23.4395 6.19487 3.95598 59.7547
6540592 8.05078 14.0347 13.9223 23.761 6.61825 3.91456 59.7688
6540616 7.98912 14.2557 13.5896 24.0143 6.97228 3.84949 59.8487
6540618 7.98912 14.2557 13.5896 24.0143 6.97228 3.84949 59.8487
6540622 7.89223 14.532 13.1009 24.3748 7.47647 3.76917 59.8999
6540632 7.77772 14.7346 12.7682 24.6865 7.86898 3.73767 59.967
6540642 7.77772 14.7346 12.7682 24.6865 7.86898 3.73767 59.967
6540652 7.68964 14.8174 12.4979 24.8229 8.12868 3.71408 59.8279
6540667 7.68964 14.8174 12.4979 24.8229 8.12868 3.71408 59.8279
6540674 7.67202 14.9372 12.0716 24.9203 8.4369 3.61975 59.6011
6540684 7.60155 15.1121 11.8532 25.008 8.67202 3.56212 59.5749
6540693 7.60155 15.1121 11.8532 25.008 8.67202 3.56212 59.5749
6540705 7.5399 15.2503 11.6141 25.2126 8.93578 3.53168 59.6168
6540715 7.46062 15.4529 11.4581 25.3685 9.1658 3.49341 59.7401
6540723 7.46062 15.4529 11.4581 25.3685 9.1658 3.49341 59.7401
6540736 7.4342 15.591 11.2502 25.6315 9.40551 3.4695 59.9069
6540749 7.4342 15.591 11.2502 25.6315 9.40551 3.4695 59.9069
6540754 7.36373 15.6463 11.0318 25.7582 9.61911 3.45652 59.8
6540766 7.30207 15.7752 10.8343 25.8751 9.83245 3.42018 59.7866
6540773 7.30207 15.7752 10.8343 25.8751 9.83245 3.42018 59.7866
6540783 7.21399 15.9686 10.7095 26.0017 10.0373 3.38816 59.8938
6540793 7.20518 16.0054 10.5847 26.0407 10.1345 3.36289 59.836
6540806 7.20518 16.0054 10.5847 26.0407 10.1345 3.36289 59.836
6540814 7.10829 16.0883 10.4391 26.0797 10.3074 3.34642 59.7154
6540833 7.07306 16.162 10.3248 26.0407 10.4046 3.30461 59.6005
6540845 7.03782 16.2172 10.2104 26.1089 10.5238 3.28939 59.5743
6540855 7.03782 16.2172 10.2104 26.1089 10.5238 3.28939 59.5743
6540865 7.07306 16.3277 10.1896 26.0699 10.5325 3.23298 59.6603
6540880 7.0114 16.383 10.1168 26.0797 10.6285 3.2225 59.5909
6540895 7.02021 16.4382 10.096 26.1089 10.656 3.20459 59.6634
6540905 7.02021 16.4382 10.096 26.1089 10.656 3.20459 59.6634
6540915 7.04663 16.4567 9.98165 26.0894 10.7084 3.16439 59.5743
6540927 7.0114 16.5303 10.0336 26.0602 10.709 3.1572 59.6355
6540951 7.06425 16.4751 10.1376 25.992 10.5856 3.16503 59.6689
6540956 7.09948 16.5027 10.1584 25.9335 10.5447 3.13843 59.6941
6540976 7.18756 16.4843 10.1896 25.9238 10.467 3.12155 59.7852
6540987 7.18756 16.4843 10.1896 25.9238 10.467 3.12155 59.7852
6540998 7.16114 16.4106 10.3248 25.7679 10.3465 3.14784 59.6644
6541007 7.30207 16.3646 10.4183 25.7095 10.1822 3.126 59.7944
6541022 7.30207 16.3646 10.4183 25.7095 10.1822 3.126 59.7944
6541027 7.28446 16.3369 10.5639 25.6023 10.0735 3.14734 59.7876
6541039 7.39016 16.2817 10.7095 25.3587 9.85134 3.11258 59.7401
6541049 7.39016 16.2817 10.7095 25.3587 9.85134 3.11258 59.7401
6541059 7.44301 16.2172 10.8862 25.0567 9.62394 3.09113 59.6032
6541076 7.51347 16.1251 11.0734 24.8034 9.38483 3.08447 59.5154
6541079 7.51347 16.1251 11.0734 24.8034 9.38483 3.08447 59.5154
6541090 7.69845 16.0699 11.4165 24.5209 8.99236 3.05727 59.7058
6541106 7.69845 16.0699 11.4165 24.5209 8.99236 3.05727 59.7058
6541108 7.7601 15.8212 11.7804 24.2871 8.62037 3.13992 59.6489
6541120 7.95389 15.7752 12.1131 24.0825 8.25647 3.12056 59.9247
6541140 8.10363 15.6647 12.4355 23.8195 7.89072 3.12045 60.0233
6541155 8.15648 15.4989 12.7474 23.5564 7.56826 3.16426 59.9592
6541160 8.15648 15.4989 12.7474 23.5564 7.56826 3.16426 59.9592
6541170 8.32383 15.4529 12.9346 23.2155 7.26301 3.09711 59.9267
6541196 8.36788 15.3055 13.0385 22.8842 7.04045 3.08309 59.5962
6541204 8.54404 15.2595 13.3193 22.6309 6.70549 3.04919 59.7537
6541220 8.62332 15.1582 13.5896 22.2607 6.37495 3.03584 59.6318
6541232 8.73782 15.0385 13.8287 21.988 6.06609 3.03067 59.593
6541240 8.73782 15.0385 13.8287 21.988 6.06609 3.03067 59.593
6541251 8.84352 15.0108 14.1303 21.6957 5.75262 3.00894 59.6803
6541261 8.84352 15.0108 14.1303 21.6957 5.75262 3.00894 59.6803
6541272 8.97565 14.9464 14.3902 21.4521 5.45168 2.99183 59.7644
6541281 9.09896 14.8082 14.6606 21.1501 5.10687 2.98993 59.7179
6541296 9.09896 14.8082 14.6606 21.1501 5.10687 2.98993 59.7179
6541301 9.17824 14.7622 14.8997 20.9066 4.84999 2.97904 59.7467
6541311 9.26632 14.6517 15.2116 20.5461 4.49088 2.97602 59.6758
6541331 9.42487 14.5872 15.4716 20.3221 4.18558 2.95495 59.8057
6541351 9.49534 14.4215 15.7731 19.9811 3.82687 2.97566 59.671
6541361 9.60104 14.3017 15.981 19.8155 3.57422 2.98841 59.6993
6541371 9.60104 14.3017 15.981 19.8155 3.57422 2.98841 59.6993
6541389 9.73316 14.136 16.3138 19.4842 3.17314 2.99886 59.6671
6541392 9.83005 13.9518 16.6777 19.2991 2.82102 3.06106 59.7587
6541401 9.83005 13.9518 16.6777 19.2991 2.82102 3.06106 59.7587
6541412 9.87409 13.7952 17.0197 19.0458 2.48904 3.11281 59.7349
6541422 9.87409 13.7952 17.0197 19.0458 2.48904 3.11281 59.7349
6541435 10.0062 13.6479 17.3937 18.7244 2.07968 3.12787 59.7722
6541442 10.0767 13.5005 17.7481 18.3834 1.69955 3.15388 59.7087
6541452 10.0767 13.5005 17.7481 18.3834 1.69955 3.15388 59.7087
6541462 10.2617 13.2611 18.2009 17.9158 1.13779 3.16752 59.6394
6541472 10.4819 13.0585 18.7325 17.4092 0.525001 3.16711 59.682
6541489 10.4819 13.0585 18.7325 17.4092 0.525001 3.16711 59.682
6541492 10.6845 12.8375 19.2837 16.9334 -0.0825807 3.18765 59.739
6541504 10.6845 12.8375 19.2837 16.9334 -0.0825807 3.18765 59.739
6541518 10.887 12.5704 19.9039 16.5146 -0.712284 3.24696 59.8759
6541523 11.0984 12.4047 20.4256 15.972 -1.31358 3.22897 59.9007
6541549 11.2746 12.0915 20.9178 15.5151 -1.91714 3.27766 59.7991
6541552 11.4332 11.8429 21.3607 15.1344 -2.43287 3.31742 59.7712
6541562 11.4332 11.8429 21.3607 15.1344 -2.43287 3.31742 59.7712
6541573 11.6093 11.714 21.8234 14.7917 -2.88923 3.32636 59.9384
6541595 11.7062 11.3732 22.3057 14.3824 -3.4535 3.4154 59.7676
6541604 11.8912 11.143 22.8176 14.0302 -3.98097 3.46021 59.882
6541618 11.8912 11.143 22.8176 14.0302 -3.98097 3.46021 59.882
6541643 12.0321 10.9404 23.2606 13.659 -4.46355 3.49304 59.8921
6541644 12.1907 10.701 23.7429 13.3354 -4.95966 3.54844 59.9699
6541645 12.1907 10.701 23.7429 13.3354 -4.95966 3.54844 59.9699
6541655 12.3228 10.4984 24.176 12.9642 -5.43529 3.58206 59.9614
6541676 12.3228 10.4984 24.176 12.9642 -5.43529 3.58206 59.9614
6541679 12.4461 10.2958 24.5993 12.6786 -5.861 3.63281 60.0198
6541685 12.5782 10.1392 24.9931 12.3835 -6.26041 3.65905 60.094
6541710 12.7192 9.87216 25.2785 12.0504 -6.70689 3.6893 59.9202
6541716 12.7984 9.76165 25.5246 11.7744 -7.01107 3.69339 59.8591
6541725 12.7984 9.76165 25.5246 11.7744 -7.01107 3.69339 59.8591
6541744 12.913 9.65114 25.7313 11.5649 -7.27869 3.69164 59.8604
6541746 13.0187 9.50379 25.9577 11.3555 -7.56949 3.70786 59.8357
6541756 13.0187 9.50379 25.9577 11.3555 -7.56949 3.70786 59.8357
6541768 13.1067 9.35645 26.2235 11.2794 -7.79374 3.76206 59.9661
6541786 13.0891 9.2091 26.3515 11.07 -8.02143 3.79856 59.7197
6541796 13.1067 9.08938 26.5188 10.9558 -8.20352 3.8407 59.6707
6541807 13.1067 9.08938 26.5188 10.9558 -8.20352 3.8407 59.6707
6541818 13.2124 9.07096 26.6862 10.9272 -8.30613 3.8391 59.8968
6541827 13.1772 8.96045 26.824 10.8701 -8.42806 3.90004 59.8317
6541847 13.1684 8.93283 26.9618 10.8225 -8.50575 3.92826 59.8855
6541857 13.1684 8.93283 26.9618 10.8225 -8.50575 3.92826 59.8855
6541867 13.142 8.88678 27.0208 10.7178 -8.59927 3.94276 59.7674
6541878 13.1948 8.84074 27.1488 10.832 -8.61051 3.98523 60.0164
6541889 13.1948 8.84074 27.1488 10.832 -8.61051 3.98523 60.0164
6541898 13.142 8.81311 27.1193 10.794 -8.62484 3.99832 59.8683
6541912 13.142 8.77627 27.2079 10.7749 -8.68042 4.02277 59.901
6541928 13.0891 8.8039 27.2079 10.832 -8.61841 4.04124 59.9329
6541939 13.0891 8.8039 27.2079 10.832 -8.61841 4.04124 59.9329
6541948 13.0715 8.74865 27.0996 10.794 -8.63642 4.03762 59.7137
6541958 13.1067 8.83153 27.0012 10.8987 -8.51369 4.00119 59.8381
6541979 13.1244 8.83153 26.9421 10.8987 -8.50226 3.98472 59.7966
6541988 13.0715 8.85915 26.9027 11.0605 -8.37089 4.01524 59.8938
6542002 13.0715 8.85915 26.9027 11.0605 -8.37089 4.01524 59.8938
6542008 13.0803 8.94204 26.824 11.1461 -8.25775 3.98744 59.9925
6542026 13.0803 8.94204 26.824 11.1461 -8.25775 3.98744 59.9925
6542036 12.9922 8.96045 26.6862 11.2508 -8.12623 4.00344 59.8897
6542038 13.0275 9.08017 26.6566 11.3936 -7.98329 3.97519 60.1579
6542048 13.0275 9.08017 26.6566 11.3936 -7.98329 3.97519 60.1579
6542058 12.9482 9.13543 26.3712 11.5078 -7.78655 3.95131 59.9626
6542070 12.8601 9.12622 26.3121 11.603 -7.69721 3.98875 59.9014
6542080 12.8601 9.12622 26.3121 11.603 -7.69721 3.98875 59.9014
6542090 12.8337 9.23673 26.1644 11.7553 -7.50376 3.96299 59.9902
6542100 12.8337 9.23673 26.1644 11.7553 -7.50376 3.96299 59.9902
6542112 12.7016 9.28277 26.0168 11.8124 -7.36587 3.97357 59.8136
6542120 12.6751 9.32882 25.8002 12.0694 -7.13048 3.9748 59.8736
6542134 12.6751 9.32882 25.8002 12.0694 -7.13048 3.9748 59.8736
6542141 12.5782 9.38407 25.4557 12.2693 -6.86098 3.96132 59.6873
6542151 12.4549 9.54984 25.1309 12.5929 -6.46383 3.94762 59.7286
6542161 12.4549 9.54984 25.1309 12.5929 -6.46383 3.94762 59.7286
6542171 12.3228 9.69718 24.8454 12.9642 -6.06174 3.95864 59.8295
6542181 12.3228 9.69718 24.8454 12.9642 -6.06174 3.95864 59.8295
6542191 12.2083 9.78927 24.5206 13.2878 -5.7067 3.96552 59.8059
6542201 12.1378 9.95504 24.2351 13.6305 -5.33179 3.94591 59.9584
6542211 12.1378 9.95504 24.2351 13.6305 -5.33179 3.94591 59.9584
6542223 12.0057 10.1116 23.9201 13.9541 -4.94242 3.93978 59.9915
6542231 11.8736 10.2221 23.4968 14.2492 -4.55332 3.92293 59.8417
6542242 11.8736 10.2221 23.4968 14.2492 -4.55332 3.92293 59.8417
6542252 11.7326 10.3787 23.172 14.668 -4.11083 3.93536 59.9512
6542262 11.7326 10.3787 23.172 14.668 -4.11083 3.93536 59.9512
6542272 11.6269 10.5076 22.7192 14.9726 -3.70488 3.9006 59.8263
6542282 11.5653 10.6733 22.4042 15.2962 -3.33669 3.86937 59.939
6542302 11.4155 10.7654 22.0006 15.6293 -2.93481 3.87445 59.8109
6542312 11.2218 10.8944 21.6462 15.9149 -2.53812 3.88213 59.6772
6542323 11.2218 10.8944 21.6462 15.9149 -2.53812 3.88213 59.6772
6542335 11.1777 10.9957 21.282 16.229 -2.1928 3.85468 59.6844
6542345 10.9751 11.0878 20.9572 16.6573 -1.75409 3.90892 59.6774
6542363 10.887 11.2075 20.6028 17.0195 -1.36598 3.90034 59.7168
6542373 10.887 11.2075 20.6028 17.0195 -1.36598 3.90034 59.7168
6542383 10.6933 11.2811 20.1893 17.4968 -0.881912 3.95029 59.6606
6542393 10.5699 11.5022 19.894 17.9255 -0.432578 3.94398 59.8916
6542403 10.5699 11.5022 19.894 17.9255 -0.432578 3.94398 59.8916
6542413 10.4731 11.585 19.6086 18.3054 -0.0796765 3.96582 59.9721
6542423 10.3057 11.6771 19.2936 18.6269 0.29414 3.99085 59.9033
6542456 10.156 11.7692 19.0278 18.9679 0.648099 4.02293 59.9209
6542457 10.156 11.7692 19.0278 18.9679 0.648099 4.02293 59.9209
6542466 9.99741 11.8889 18.7719 19.3284 1.02025 4.05437 59.9866
6542475 9.94456 11.9718 18.388 19.6304 1.36385 4.02987 59.9347
6542495 9.90052 12.0915 18.0041 19.9129 1.71087 3.98727 59.909
6542505 9.74197 12.2665 17.6497 20.1954 2.11779 3.96884 59.8536
6542516 9.74197 12.2665 17.6497 20.1954 2.11779 3.96884 59.8536
6542526 9.63627 12.3402 17.2855 20.5948 2.51154 3.98547 59.8568
6542536 9.63627 12.3402 17.2855 20.5948 2.51154 3.98547 59.8568
6542547 9.50414 12.5336 17.0098 20.965 2.90965 3.98345 60.0126
6542558 9.3544 12.6994 16.4801 21.4034 3.44872 3.96159 59.9373
6542566 9.3544 12.6994 16.4801 21.4034 3.44872 3.96159 59.9373
6542577 9.18705 12.9112 16.0122 21.7736 3.95995 3.92951 59.8841
6542587 9.15181 13.0033 15.5963 22.2023 4.36061 3.91391 59.9537
6542597 9.15181 13.0033 15.5963 22.2023 4.36061 3.91391 59.9537
6542607 8.98446 13.2335 15.2116 22.4946 4.81107 3.87697 59.9241
6542617 8.98446 13.2335 15.2116 22.4946 4.81107 3.87697 59.9241
6542627 8.82591 13.2979 14.8373 22.7673 5.19102 3.88779 59.7285
6542637 8.69378 13.3992 14.5358 23.1181 5.56001 3.90668 59.7469
6542663 8.57047 13.519 14.255 23.4395 5.91002 3.91539 59.784
6542667 8.40311 13.6847 13.9743 23.7513 6.29398 3.92164 59.8134
6542677 8.40311 13.6847 13.9743 23.7513 6.29398 3.92164 59.8134
6542687 8.2886 13.8781 13.7144 24.1312 6.66795 3.91892 60.0123
6542697 8.2886 13.8781 13.7144 24.1312 6.66795 3.91892 60.0123
6542707 8.14767 14.0623 13.392 24.2189 6.9965 3.86177 59.8209
6542717 8.09482 14.1268 13.1217 24.4819 7.26791 3.85675 59.8252
6542727 8.09482 14.1268 13.1217 24.4819 7.26791 3.85675 59.8252
6542737 7.9715 14.2925 12.8618 24.745 7.60147 3.84396 59.8708
6542747 7.8658 14.5043 12.5706 24.9593 7.94122 3.79628 59.9001
6542760 7.8658 14.5043 12.5706 24.9593 7.94122 3.79628 59.9001
6542767 7.78653 14.7161 12.2899 25.0762 8.23297 3.72401 59.8688
6542788 7.66321 14.8727 11.978 25.3295 8.58951 3.70256 59.8434
6542799 7.61036 15.1121 11.6972 25.4562 8.87698 3.6152 59.8759
6542809 7.61036 15.1121 11.6972 25.4562 8.87698 3.6152 59.8759
6542819 7.56632 15.2963 11.3853 25.651 9.18033 3.5494 59.899
6542831 7.39016 15.4529 11.1462 25.7387 9.48268 3.52645 59.7279
6542838 7.39016 15.4529 11.1462 25.7387 9.48268 3.52645 59.7279
6542849 7.39896 15.6278 10.8446 25.8653 9.73 3.43586 59.7368
6542858 7.39896 15.6278 10.8446 25.8653 9.73 3.43586 59.7368
6542870 7.30207 15.8304 10.6055 26.0407 10.0218 3.39093 59.7787
6542885 7.18756 16.033 10.408 26.1284 10.2774 3.34247 59.7569
6542899 7.09067 16.2264 10.2 26.1284 10.5055 3.27215 59.6455
6542918 7.02021 16.4014 10.0752 26.2453 10.6923 3.23864 59.7421
6542930 6.96736 16.5119 9.89847 26.2842 10.8655 3.19385 59.662
6542950 6.84404 16.7053 9.7841 26.2258 11.0407 3.13819 59.5592
6542961 6.82643 16.825 9.69052 26.2453 11.1405 3.09236 59.5872
6542974 6.82643 16.825 9.69052 26.2453 11.1405 3.09236 59.5872
6542981 6.83523 16.9908 9.65933 26.2063 11.1835 3.02545 59.6917
6542999 6.82643 17.0584 9.58654 26.0894 11.2217 2.96953 59.5607
6543001 6.82643 17.0584 9.58654 26.0894 11.2217 2.96953 59.5607
6543012 6.84404 17.1751 9.59694 26.0212 11.2158 2.9174 59.6372
6543023 6.80881 17.1945 9.53456 26.0115 11.2775 2.90751 59.5493
6543032 6.80881 17.1945 9.53456 26.0115 11.2775 2.90751 59.5493
6543046 6.85285 17.2237 9.63853 25.9433 11.1785 2.89279 59.6583
6543052 6.85285 17.2237 9.63853 25.9433 11.1785 2.89279 59.6583
6543062 6.82643 17.214 9.63853 25.7387 11.1447 2.86199 59.4176
6543074 6.94974 17.1945 9.86728 25.5633 10.8858 2.84172 59.5749
6543084 6.94974 17.1945 9.86728 25.5633 10.8858 2.84172 59.5749
6543094 7.00259 17.0486 10.0336 25.4172 10.6843 2.87375 59.502
6543104 7.04663 16.8987 10.3456 25.3393 10.4166 2.95307 59.6302
6543114 7.04663 16.8987 10.3456 25.3393 10.4166 2.95307 59.6302
6543124 7.16995 16.8434 10.6055 25.3003 10.1671 2.97711 59.9192
6543143 7.24041 16.6408 10.8135 25.2126 9.93183 3.0409 59.9073
6543164 7.34611 16.5488 11.0318 25.1834 9.71311 3.07444 60.1101
6543165 7.34611 16.5488 11.0318 25.1834 9.71311 3.07444 60.1101
6543176 7.38135 16.3462 11.1566 25.0178 9.52642 3.11681 59.9018
6543189 7.34611 16.1896 11.4061 25.0567 9.37276 3.23186 59.9986
6543195 7.34611 16.1896 11.4061 25.0567 9.37276 3.23186 59.9986
6543205 7.4342 15.9962 11.4893 24.8911 9.18054 3.24774 59.8108
6543215 7.4342 15.9962 11.4893 24.8911 9.18054 3.24774 59.8108
6543225 7.46062 15.8489 11.718 24.706 8.94649 3.29327 59.7335
6543240 7.49585 15.6923 11.9572 24.5696 8.71176 3.35058 59.715
6543245 7.49585 15.6923 11.9572 24.5696 8.71176 3.35058 59.715
6543255 7.58394 15.5173 12.1755 24.3943 8.443 3.38569 59.6711
6543273 7.68964 15.3884 12.4355 24.1117 8.12367 3.38846 59.6253
6543275 7.68964 15.3884 12.4355 24.1117 8.12367 3.38846 59.6253
6543297 7.77772 15.2595 12.789 23.8682 7.77333 3.42243 59.6944
6543299 7.77772 15.2595 12.789 23.8682 7.77333 3.42243 59.6944
6543305 7.90984 15.0753 13.0697 23.6149 7.42027 3.44383 59.6698
6543327 8.0772 14.928 13.5896 23.2837 6.90767 3.47407 59.8784
6543329 8.0772 14.928 13.5896 23.2837 6.90767 3.47407 59.8784
6543336 8.25337 14.6977 13.9847 22.8842 6.41252 3.48993 59.82
6543354 8.32383 14.5596 14.463 22.5433 5.976 3.53721 59.8897
6543357 8.32383 14.5596 14.463 22.5433 5.976 3.53721 59.8897
6543367 8.54404 14.3478 14.9517 22.1049 5.40337 3.54423 59.9484
6543380 8.66736 14.1176 15.4924 21.5983 4.82506 3.58387 59.8755
6543387 8.66736 14.1176 15.4924 21.5983 4.82506 3.58387 59.8755
6543405 8.84352 13.9334 16.0018 21.1891 4.28443 3.60545 59.9678
6543407 8.84352 13.9334 16.0018 21.1891 4.28443 3.60545 59.9678
6543417 8.97565 13.7584 16.5217 20.6436 3.71648 3.61387 59.8993
6543431 9.26632 13.5466 17.0394 19.9519 3.0068 3.55619 59.8041
6543437 9.26632 13.5466 17.0394 19.9519 3.0068 3.55619 59.8041
6543449 9.44249 13.2887 17.6103 19.3576 2.34238 3.57711 59.6991
6543459 9.66269 13.0401 18.2009 18.7146 1.63166 3.57594 59.6183
6543469 9.66269 13.0401 18.2009 18.7146 1.63166 3.57594 59.6183
6543483 9.96218 12.8743 18.7522 18.0327 0.919405 3.50923 59.6213
6543490 9.96218 12.8743 18.7522 18.0327 0.919405 3.50923 59.6213
6543498 10.2088 12.6349 19.3133 17.5943 0.295848 3.5306 59.7512
6543517 10.3674 12.552 19.9236 17.1266 -0.255242 3.53451 59.9696
6543519 10.3674 12.552 19.9236 17.1266 -0.255242 3.53451 59.9696
6543528 10.5435 12.2941 20.3468 16.6573 -0.810002 3.55099 59.8419
6543549 10.7197 12.0639 20.8686 16.1814 -1.39675 3.57651 59.8336
6543559 10.9311 11.8705 21.282 15.7816 -1.90466 3.57353 59.8652
6543572 10.9311 11.8705 21.282 15.7816 -1.90466 3.57353 59.8652
6543580 11.0192 11.6311 21.8431 15.3438 -2.45975 3.64404 59.8371
6543598 11.1777 11.4837 22.2762 14.963 -2.92448 3.65048 59.9007
6543610 11.3451 11.2719 22.7389 14.5728 -3.43709 3.67803 59.9287
6543624 11.4067 11.1062 22.9849 14.2111 -3.79944 3.68867 59.7089
6543630 11.4067 11.1062 22.9849 14.2111 -3.79944 3.68867 59.7089
6543640 11.5477 10.922 23.4476 13.9826 -4.21146 3.7464 59.8999
6543650 11.5477 10.922 23.4476 13.9826 -4.21146 3.7464 59.8999
6543660 11.6534 10.7378 23.8315 13.6971 -4.61032 3.78942 59.9198
6543675 11.7415 10.5997 24.2252 13.4115 -4.98329 3.82532 59.9779
6543680 11.7415 10.5997 24.2252 13.4115 -4.98329 3.82532 59.9779
6543690 11.8295 10.4247 24.6091 13.1831 -5.34207 3.88149 60.0465
6543702 11.856 10.2405 24.8552 13.0213 -5.60644 3.94678 59.973
6543711 11.856 10.2405 24.8552 13.0213 -5.60644 3.94678 59.973
6543729 11.8824 10.1024 25.1309 12.9071 -5.83272 4.01177 60.0227
6543731 11.8824 10.1024 25.1309 12.9071 -5.83272 4.01177 60.0227
6543741 11.8736 10.0287 25.3671 12.7357 -6.03126 4.04979 60.0051
6543756 11.9264 9.86295 25.7116 12.5263 -6.35078 4.11027 60.0273
6543761 11.9264 9.86295 25.7116 12.5263 -6.35078 4.11027 60.0273
6543771 11.9352 9.77086 25.9873 12.374 -6.56663 4.15913 60.0674
6543782 11.9528 9.77086 26.2629 12.2027 -6.7463 4.17231 60.1893
6543791 11.9528 9.62351 26.2629 12.2027 -6.8242 4.21935 60.0419
6543804 12.0497 9.40249 26.4598 12.0314 -7.12158 4.26375 59.9433
6543826 12.0674 9.38407 26.696 11.9076 -7.27319 4.28412 60.0551
6543831 12.1026 9.27356 26.8535 11.8029 -7.4458 4.31772 60.0326
6543841 12.1026 9.27356 26.8535 11.8029 -7.4458 4.31772 60.0326
6543851 12.129 9.17226 27.0208 11.7077 -7.60866 4.35466 60.0299
6543877 12.1642 9.08017 27.1685 11.584 -7.77898 4.37724 59.9969
6543882 12.1202 9.01571 27.3752 11.5364 -7.8868 4.44041 60.0475
6543892 12.1202 9.01571 27.3752 11.5364 -7.8868 4.44041 60.0475
6543912 12.1554 8.97887 27.513 11.4412 -8.00834 4.44842 60.0885
6543915 12.2083 8.92362 27.5229 11.3936 -8.08262 4.44256 60.0484
6543922 12.2083 8.92362 27.5229 11.3936 -8.08262 4.44256 60.0484
6543942 12.2435 8.89599 27.6016 11.327 -8.16663 4.44223 60.0681
6543947 12.2083 8.84995 27.7001 11.2984 -8.22554 4.48083 60.0567
6543952 12.2083 8.84995 27.7001 11.2984 -8.22554 4.48083 60.0567
6543969 12.2611 8.86836 27.7394 11.327 -8.22532 4.46963 60.1959
6543974 12.2611 8.86836 27.7394 11.327 -8.22532 4.46963 60.1959
6543986 12.2435 8.81311 27.7296 11.2413 -8.29564 4.47651 60.0275
6543996 12.2788 8.84074 27.7099 11.2128 -8.30048 4.44767 60.0422
6544004 12.2788 8.84074 27.7099 11.2128 -8.30048 4.44767 60.0422
6544014 12.3316 8.79469 27.6804 11.2223 -8.32723 4.44195 60.029
6544025 12.3492 8.83153 27.5819 11.2508 -8.26847 4.41201 60.0135
6544034 12.3492 8.83153 27.5819 11.2508 -8.26847 4.41201 60.0135
6544048 12.3492 8.87757 27.5327 11.2984 -8.20288 4.39684 60.0579
6544055 12.3492 8.87757 27.5327 11.2984 -8.20288 4.39684 60.0579
6544065 12.2611 8.84074 27.4933 11.2889 -8.19283 4.42865 59.8841
6544077 12.3316 8.84995 27.4441 11.346 -8.16208 4.40423 59.9717
6544085 12.3316 8.84995 27.4441 11.346 -8.16208 4.40423 59.9717
6544105 12.3933 8.95125 27.3555 11.4317 -8.05143 4.35112 60.1317
6544107 12.3228 9.02492 27.2965 11.4507 -7.96391 4.343 60.0949
6544115 12.3228 9.02492 27.2965 11.4507 -7.96391 4.343 60.0949
6544136 12.3756 9.0065 27.139 11.4412 -7.94954 4.30221 59.9623
6544137 12.3756 9.0065 27.139 11.4412 -7.94954 4.30221 59.9623
6544145 12.4461 9.08938 27.0602 11.5174 -7.86002 4.25251 60.1131
6544164 12.3316 9.14464 26.9618 11.6125 -7.71692 4.27092 60.0506
6544175 12.3668 9.14464 26.9027 11.7077 -7.65827 4.26607 60.1219
6544191 12.2876 9.17226 26.7058 11.7458 -7.54252 4.25423 59.9115
6544196 12.2876 9.17226 26.7058 11.7458 -7.54252 4.25423 59.9115
6544206 12.2876 9.2091 26.6665 11.841 -7.45947 4.25241 60.0041
6544226 12.2259 9.23673 26.4105 11.9552 -7.2894 4.2379 59.8284
6544244 12.2435 9.3104 26.3515 12.0694 -7.176 4.21852 59.9748
6544246 12.2435 9.3104 26.3515 12.0694 -7.176 4.21852 59.9748
6544256 12.1642 9.32882 26.0365 12.2312 -6.96137 4.21045 59.7608
6544269 12.0674 9.43933 25.8888 12.3835 -6.74706 4.20691 59.779
6544300 12.0674 9.59588 25.5345 12.7548 -6.35969 4.15979 59.9525
6544301 12.0674 9.59588 25.5345 12.7548 -6.35969 4.15979 59.9525
6544306 11.9617 9.67877 25.0915 13.0974 -5.9657 4.14892 59.8293
6544321 11.7943 9.80769 24.6781 13.4401 -5.53606 4.14839 59.7201
6544336 11.7062 10.0471 24.2548 13.9826 -4.97211 4.12165 59.9908
6544347 11.5917 10.1392 23.8807 14.2587 -4.62438 4.111 59.8703
6544357 11.5917 10.1392 23.8807 14.2587 -4.62438 4.111 59.8703
6544373 11.5565 10.2589 23.4378 14.5442 -4.26066 4.05534 59.7974
6544387 11.3803 10.4247 23.0637 14.8583 -3.83451 4.04767 59.7271
6544401 11.3363 10.5905 22.6109 15.2486 -3.39045 3.99743 59.7862
6544409 11.3363 10.5905 22.6109 15.2486 -3.39045 3.99743 59.7862
6544427 11.213 10.8023 22.227 15.5627 -2.95751 3.95648 59.8049
6544429 11.1337 10.9128 21.9021 15.8673 -2.61458 3.94284 59.8159
6544455 11.0808 11.1154 21.4395 16.1624 -2.19178 3.86442 59.7981
6544458 11.0808 11.1154 21.4395 16.1624 -2.19178 3.86442 59.7981
6544468 10.9487 11.2811 21.0064 16.4194 -1.78297 3.82091 59.6556
6544481 10.8518 11.4561 20.6028 16.8287 -1.32651 3.79737 59.7394
6544509 10.6845 11.5298 20.15 17.2046 -0.881353 3.81248 59.5688
6544510 10.614 11.7324 19.7365 17.7209 -0.375067 3.79016 59.8038
6544535 10.4731 11.9718 19.2837 18.2957 0.212723 3.7821 60.0243
6544541 10.2176 12.1008 18.7325 18.8413 0.831461 3.82071 59.8921
6544550 10.2176 12.1008 18.7325 18.8413 0.831461 3.82071 59.8921
6544562 10.1295 12.377 18.2403 19.3479 1.39574 3.76445 60.0947
6544569 10.1295 12.377 18.2403 19.3479 1.39574 3.76445 60.0947
6544589 9.92694 12.4967 17.7678 19.8934 1.95366 3.804 60.0849
6544591 9.75078 12.7178 17.1969 20.3513 2.54987 3.76886 60.0167
6544601 9.75078 12.7178 17.1969 20.3513 2.54987 3.76886 60.0167
6544617 9.60104 12.948 16.5425 20.8871 3.20596 3.72147 59.9786
6544621 9.31036 13.1506 15.8459 21.384 3.92787 3.71134 59.6908
6544645 9.11658 13.3992 15.1284 22.0367 4.6878 3.6819 59.6809
6544652 9.11658 13.3992 15.1284 22.0367 4.6878 3.6819 59.6809
6544661 8.76425 13.6571 14.4734 22.7771 5.5288 3.72767 59.6718
6544671 8.56166 13.9334 14.0263 23.3421 6.13377 3.72683 59.8634
6544681 8.56166 13.9334 14.0263 23.3421 6.13377 3.72683 59.8634
6544697 8.34145 14.1083 13.5064 23.8097 6.72214 3.73115 59.766
6544702 8.11244 14.2925 13.1321 24.2871 7.24418 3.76459 59.8242
6544724 7.93627 14.4122 12.841 24.7742 7.67515 3.81898 59.9637
6544732 7.93627 14.4122 12.841 24.7742 7.67515 3.81898 59.9637
6544751 7.68083 14.5135 12.4979 25.1931 8.15224 3.88157 59.8854
6544752 7.48705 14.6333 12.1755 25.5731 8.57864 3.91563 59.8689
6544777 7.36373 14.6425 11.926 25.8361 8.86291 3.95424 59.7683
6544782 7.15233 14.6609 11.7804 26.1966 9.16734 4.05512 59.7902
6544792 7.15233 14.6609 11.7804 26.1966 9.16734 4.05512 59.7902
6544802 7.04663 14.753 11.5621 26.557 9.4717 4.08541 59.9187
6544814 7.04663 14.753 11.5621 26.557 9.4717 4.08541 59.9187
6544828 6.87047 14.7806 11.4061 26.8688 9.75069 4.16109 59.926
6544833 6.77358 14.7714 11.1982 27.1805 10.0045 4.21379 59.9237
6544844 6.77358 14.7714 11.1982 27.1805 10.0045 4.21379 59.9237
6544855 6.65026 14.7898 11.0838 27.5215 10.2328 4.28806 60.0454
6544865 6.49171 14.8543 10.9902 27.7748 10.4586 4.34671 60.111
6544881 6.49171 14.8543 10.9902 27.7748 10.4586 4.34671 60.111
6544884 6.42124 14.9187 10.7303 28.0183 10.7281 4.34574 60.0886
6544894 6.42124 14.9187 10.7303 28.0183 10.7281 4.34574 60.0886
6544907 6.2715 14.928 10.6055 28.2034 10.9378 4.40176 60.0084
6544914 6.18342 15.0293 10.4599 28.2424 11.1109 4.37862 59.915
6544925 6.18342 15.0293 10.4599 28.2424 11.1109 4.37862 59.915
6544935 6.11295 15.2411 10.3352 28.2814 11.2865 4.31775 59.9706
6544945 6.12176 15.3608 10.1896 28.2424 11.3878 4.24341 59.9146
6544961 6.12176 15.3608 10.1896 28.2424 11.3878 4.24341 59.9146
6544967 6.03368 15.5265 10.0232 28.1547 11.5606 4.17264 59.7382
6544975 6.03368 15.5265 10.0232 28.1547 11.5606 4.17264 59.7382
6544988 6.00725 15.5634 9.96086 28.145 11.6211 4.15621 59.6765
6544996 6.00725 15.6463 9.99205 28.0865 11.6075 4.12468 59.7321
6545006 6.00725 15.6463 9.99205 28.0865 11.6075 4.12468 59.7321
6545016 5.96321 15.7015 9.90887 27.9891 11.6762 4.08811 59.5627
6545026 6.00725 15.7752 10.0024 28.0476 11.6212 4.07828 59.8325
6545046 6.00725 15.7199 10.1272 28.0378 11.5304 4.11686 59.8922
6545066 6.03368 15.7936 10.2 27.9404 11.4646 4.08047 59.9677
6545080 6.08653 15.7384 10.2832 27.8917 11.3585 4.08751 59.9998
6545087 6.08653 15.7384 10.2832 27.8917 11.3585 4.08751 59.9998
6545096 6.13057 15.7291 10.356 27.7845 11.2613 4.07018 60.0002
6545139 6.19223 15.6463 10.5327 27.5605 11.0467 4.06831 59.9317
6545139 6.24508 15.591 10.6575 27.3169 10.8699 4.04736 59.8105
6545147 6.24508 15.591 10.6575 27.3169 10.8699 4.04736 59.8105
6545158 6.28031 15.5173 10.7823 27.2585 10.7428 4.07174 59.8384
6545187 6.3772 15.4713 10.9694 26.9662 10.4923 4.0363 59.7841
6545189 6.49171 15.4252 11.2398 26.7421 10.1988 4.02302 59.8988
6545215 6.57979 15.3608 11.4893 26.4401 9.90973 4.00589 59.87
6545218 6.71192 15.2595 11.7804 26.1868 9.57394 4.00306 59.9386
6545243 6.84404 15.2134 12.1235 25.7387 9.1725 3.95648 59.9197
6545259 7.02021 14.9832 12.3939 25.3685 8.75819 3.95518 59.7658
6545272 7.27565 14.9095 12.8722 24.9009 8.19845 3.89968 59.9582
6545280 7.27565 14.9095 12.8722 24.9009 8.19845 3.89968 59.9582
6545290 7.42539 14.7622 13.2985 24.3943 7.6956 3.88404 59.8803
6545301 7.68083 14.5964 13.756 23.8877 7.11242 3.84667 59.9209
6545330 7.68083 14.5964 13.756 23.8877 7.11242 3.84667 59.9209
6545331 7.90104 14.3754 14.3278 23.4006 6.47744 3.86268 60.0048
6545340 8.05959 14.1452 14.8685 22.8842 5.87972 3.88975 59.9575
6545357 8.21813 13.9518 15.4404 22.4556 5.3062 3.9272 60.0659
6545371 8.41192 13.74 15.9187 21.9198 4.72126 3.92227 59.9903
6545383 8.54404 13.565 16.3865 21.4716 4.21316 3.93943 59.9672
6545391 8.54404 13.565 16.3865 21.4716 4.21316 3.93943 59.9672
6545410 8.67617 13.3992 16.8544 20.9456 3.68023 3.93933 59.8754
6545412 8.67617 13.3992 16.8544 20.9456 3.68023 3.93933 59.8754
6545421 8.9228 13.1414 17.3248 20.4585 3.07122 3.93979 59.8475
6545438 9.23109 13.1046 17.7875 19.8057 2.45779 3.81892 59.9289
6545441 9.23109 13.1046 17.7875 19.8057 2.45779 3.81892 59.9289
6545452 9.53057 12.8559 18.2797 19.1433 1.75095 3.77109 59.8094
6545466 9.87409 12.6994 18.8211 18.5003 1.04536 3.69346 59.8948
6545472 9.87409 12.6994 18.8211 18.5003 1.04536 3.69346 59.8948
6545482 10.1824 12.5152 19.4215 17.7307 0.268131 3.62273 59.8498
6545493 10.5523 12.2389 20.0811 16.9334 -0.610785 3.56736 59.8057
6545504 10.5523 12.2389 20.0811 16.9334 -0.610785 3.56736 59.8057
6545519 10.9575 12.0363 20.7504 16.1814 -1.45607 3.48883 59.9257
6545524 10.9575 12.0363 20.7504 16.1814 -1.45607 3.48883 59.9257
6545534 11.2482 11.7969 21.2918 15.458 -2.2097 3.43795 59.7949
6545545 11.5212 11.5482 21.7151 14.7632 -2.90733 3.37766 59.5477
6545570 11.8824 11.4285 22.1975 14.2492 -3.51512 3.29726 59.7575
6545575 12.1554 11.2627 22.7881 13.6876 -4.17122 3.27015 59.8938
6545586 12.1554 11.2627 22.7881 13.6876 -4.17122 3.27015 59.8938
6545597 12.499 11.0509 23.2507 13.0594 -4.8611 3.19751 59.86
6545606 12.8425 10.8299 23.7134 12.5263 -5.50792 3.14644 59.9121
6545626 13.0363 10.6457 24.0776 12.0885 -6.00674 3.12894 59.848
6545651 13.2212 10.4892 24.4123 11.6982 -6.45516 3.1093 59.8209
6545656 13.4238 10.3234 24.8454 11.3746 -6.90846 3.11989 59.9672
6545666 13.4238 10.3234 24.8454 11.3746 -6.90846 3.11989 59.9672
6545676 13.5824 10.2221 25.0423 11.0795 -7.22682 3.08311 59.9263
6545687 13.6793 10.084 25.3179 10.7464 -7.59134 3.08412 59.8275
6545702 13.6793 10.084 25.3179 10.7464 -7.59134 3.08412 59.8275
6545707 13.8995 9.96425 25.436 10.4418 -7.92141 3.01651 59.7415
6545717 13.8995 9.96425 25.436 10.4418 -7.92141 3.01651 59.7415
6545728 13.9876 9.82611 25.5246 10.2133 -8.17473 3.00351 59.5516
6545737 14.1021 9.68797 25.623 9.98488 -8.43979 2.98442 59.398
6545753 14.1021 9.68797 25.623 9.98488 -8.43979 2.98442 59.398
6545757 14.2254 9.66956 25.8199 9.81355 -8.63546 2.95788 59.5284
6545767 14.2342 9.54984 25.9577 9.82307 -8.73797 3.0211 59.5648
6545779 14.2342 9.54984 25.9577 9.82307 -8.73797 3.0211 59.5648
6545787 14.2694 9.49458 26.1349 9.76596 -8.8594 3.05126 59.6649
6545804 14.2694 9.49458 26.1349 9.76596 -8.8594 3.05126 59.6649
6545809 14.2959 9.40249 26.3416 9.74692 -8.98528 3.10859 59.7869
6545819 14.3223 9.34724 26.5287 9.78499 -9.052 3.16192 59.9832
6545832 14.3223 9.34724 26.5287 9.78499 -9.052 3.16192 59.9832
6545846 14.3663 9.30119 26.696 9.69933 -9.1828 3.17863 60.0628
6545866 14.3663 9.30119 26.8535 9.6327 -9.26208 3.19648 60.1537
6545867 14.3663 9.30119 26.8535 9.6327 -9.26208 3.19648 60.1537
6545869 14.4368 9.23673 26.7944 9.62318 -9.30725 3.18119 60.0911
6545887 14.4368 9.23673 26.7944 9.62318 -9.30725 3.18119 60.0911
6545890 14.3663 9.13543 26.8043 9.56607 -9.38213 3.22402 59.8721
6545900 14.3575 9.13543 26.883 9.48992 -9.44411 3.22722 59.8659
6545915 14.3575 9.13543 26.883 9.48992 -9.44411 3.22722 59.8659
6545921 14.4016 9.05255 26.8732 9.44233 -9.5282 3.22775 59.7696
6545931 14.2959 9.02492 26.9421 9.53751 -9.47967 3.30069 59.8004
6545943 14.2959 9.02492 26.9421 9.53751 -9.47967 3.30069 59.8004
6545951 14.1902 8.99729 27.0012 9.47088 -9.52201 3.3401 59.6595
6545971 14.199 8.94204 27.1488 9.57559 -9.53395 3.40349 59.8654
6545972 14.199 8.94204 27.1488 9.57559 -9.53395 3.40349 59.8654
6545981 14.1813 8.89599 27.1488 9.60414 -9.53949 3.4286 59.8303
6546001 14.0404 8.91441 27.1291 9.57559 -9.50374 3.45709 59.6595
6546011 14.0845 8.98808 27.0208 9.68029 -9.38412 3.42005 59.7737
6546027 14.0845 8.98808 27.0208 9.68029 -9.38412 3.42005 59.7737
6546031 14.0845 8.94204 26.9913 9.68029 -9.40291 3.42853 59.6981
6546041 14.0404 9.0065 26.9323 9.75644 -9.29501 3.42554 59.7356
6546056 14.0404 9.0065 26.9323 9.75644 -9.29501 3.42554 59.7356
6546061 14.0316 9.1078 26.7748 9.8421 -9.144 3.38311 59.7563
6546082 14.0316 9.1078 26.7748 9.8421 -9.144 3.38311 59.7563
6546084 13.9964 9.14464 26.4794 9.94681 -8.97488 3.34544 59.5673
6546092 13.9876 9.25515 26.2826 10.1657 -8.73216 3.31849 59.691
6546110 13.9876 9.25515 26.2826 10.1657 -8.73216 3.31849 59.691
6546112 13.8819 9.38407 26.0955 10.299 -8.5041 3.30083 59.6605
6546122 13.8026 9.38407 25.9184 10.299 -8.43288 3.29035 59.404
6546146 13.8026 9.43012 25.9184 10.5084 -8.28973 3.31734 59.6595
6546147 13.6705 9.54984 25.7609 10.8511 -7.95158 3.35729 59.8322
6546152 13.6705 9.54984 25.7609 10.8511 -7.95158 3.35729 59.8322
6546168 13.6352 9.66035 25.5443 11.0985 -7.68315 3.34024 59.9384
6546173 13.4943 9.8169 25.3376 11.3365 -7.36784 3.34154 59.9853
6546183 13.4943 9.8169 25.3376 11.3365 -7.36784 3.34154 59.9853
6546197 13.4326 9.96425 25.0423 11.5745 -7.05515 3.30421 60.0136
6546203 13.2741 10.0655 24.7568 11.7839 -6.75576 3.30686 59.8803
6546214 13.2741 10.0655 24.7568 11.7839 -6.75576 3.30686 59.8803
6546226 13.2212 10.1576 24.3631 12.1265 -6.38905 3.28488 59.8685
6546254 13.0275 10.2405 24.0677 12.3074 -6.09764 3.29639 59.6431
6546256 12.8953 10.4431 23.7331 12.7072 -5.63667 3.28757 59.7787
6546264 12.8953 10.4431 23.7331 12.7072 -5.63667 3.28757 59.7787
6546285 12.7984 10.5997 23.3984 13.0974 -5.21744 3.28022 59.8939
6546287 12.6047 10.6641 23.1326 13.4401 -4.85994 3.33478 59.8415
6546295 12.6047 10.6641 23.1326 13.4401 -4.85994 3.33478 59.8415
6546315 12.4813 10.8207 22.8373 13.7923 -4.46579 3.33568 59.9316
6546325 12.314 11.0417 22.3648 14.1445 -3.96418 3.29581 59.865
6546343 12.0762 11.1338 22.0203 14.6299 -3.48008 3.3679 59.8601
6546348 12.0762 11.1338 22.0203 14.6299 -3.48008 3.3679 59.8601
6546356 11.9617 11.3272 21.6265 15.0582 -3.00247 3.35045 59.9736
6546373 11.7943 11.4745 21.2525 15.4199 -2.56597 3.35417 59.9412
6546376 11.7943 11.4745 21.2525 15.4199 -2.56597 3.35417 59.9412
6546386 11.6358 11.6403 20.8686 15.7436 -2.1375 3.34024 59.8882
6546401 11.6358 11.6403 20.8686 15.7436 -2.1375 3.34024 59.8882
6546406 11.4508 11.714 20.5536 15.991 -1.8001 3.36124 59.7094
6546416 11.213 11.9074 20.209 16.3908 -1.30768 3.38568 59.7202
6546428 11.213 11.9074 20.209 16.3908 -1.30768 3.38568 59.7202
6546436 11.0544 11.9718 19.7759 16.8191 -0.85512 3.41375 59.6213
6546456 10.887 12.1284 19.4019 17.2241 -0.392532 3.42308 59.6414
6546457 10.887 12.1284 19.4019 17.2241 -0.392532 3.42308 59.6414
6546466 10.6756 12.3218 18.9983 17.6819 0.138164 3.43917 59.6776
6546483 10.6756 12.3218 18.9983 17.6819 0.138164 3.43917 59.6776
6546487 10.4026 12.4875 18.6045 18.2567 0.726831 3.50731 59.7514
6546498 10.2176 12.6533 18.2108 18.6854 1.21735 3.51997 59.7671
6546513 10.2176 12.6533 18.2108 18.6854 1.21735 3.51997 59.7671
6546521 9.99741 12.8559 17.7678 19.2115 1.79758 3.54137 59.8326
6546527 9.79482 13.1138 17.2166 19.7375 2.43888 3.51943 59.8627
6546547 9.58342 13.4085 16.7089 20.3026 3.09097 3.5047 60.0033
6546568 9.36321 13.6571 16.0642 20.8676 3.79356 3.48066 59.9522
6546579 9.16062 13.9702 15.4612 21.4327 4.49027 3.43933 60.0247
6546596 9.16062 13.9702 15.4612 21.4327 4.49027 3.43933 60.0247
6546599 8.93161 14.2373 14.8373 21.7249 5.1034 3.36341 59.7311
6546609 8.73782 14.3754 14.5566 21.9587 5.46707 3.37139 59.6285
6546622 8.73782 14.3754 14.5566 21.9587 5.46707 3.37139 59.6285
6546628 8.67617 14.5228 14.2239 22.1146 5.76837 3.31041 59.5374
6546650 8.54404 14.5504 14.0159 22.3387 6.0258 3.34577 59.449
6546658 8.48238 14.6609 13.8391 22.6797 6.29337 3.36282 59.6621
6546677 8.48238 14.6609 13.8391 22.6797 6.29337 3.36282 59.6621
6546680 8.30622 14.7438 13.6104 23.1765 6.68637 3.44359 59.8369
6546690 8.12124 14.8359 13.3193 23.6149 7.10047 3.50061 59.8913
6546710 7.96269 14.9187 13.0697 23.9461 7.44293 3.53966 59.8973
6546720 7.82176 15.0016 12.7682 24.3456 7.82371 3.57634 59.9371
6546732 7.82176 15.0016 12.7682 24.3456 7.82371 3.57634 59.9371
6546741 7.6456 15.149 12.5394 24.745 8.20125 3.6177 60.079
6546758 7.6456 15.149 12.5394 24.745 8.20125 3.6177 60.079
6546762 7.5399 15.1858 12.2483 25.0762 8.52362 3.64665 60.0502
6546771 7.3285 15.2319 11.9988 25.2808 8.85085 3.68965 59.8399
6546784 7.3285 15.2319 11.9988 25.2808 8.85085 3.68965 59.8399
6546791 7.26684 15.3792 11.7804 25.6802 9.15545 3.69708 60.1067
6546801 7.13472 15.37 11.5309 25.9335 9.43732 3.74185 59.9691
6546812 7.13472 15.37 11.5309 25.9335 9.43732 3.74185 59.9691
6546821 6.98497 15.4529 11.3229 26.1381 9.71766 3.76214 59.8989
6546839 6.98497 15.4529 11.3229 26.1381 9.71766 3.76214 59.8989
6546841 6.84404 15.5265 11.1462 26.2745 9.95581 3.77566 59.7913
6546852 6.8 15.5542 11.0006 26.4401 10.1153 3.78458 59.7949
6546866 6.8 15.5542 11.0006 26.4401 10.1153 3.78458 59.7949
6546872 6.71192 15.5542 10.9486 26.557 10.2267 3.82444 59.7717
6546882 6.63264 15.5265 10.8343 26.6057 10.3464 3.84589 59.5992
6546894 6.63264 15.5265 10.8343 26.6057 10.3464 3.84589 59.5992
6546903 6.62383 15.591 10.8758 26.6447 10.3523 3.84337 59.7354
6546921 6.62383 15.591 10.8758 26.6447 10.3523 3.84337 59.7354
6546924 6.55337 15.5542 10.8654 26.8493 10.4412 3.91339 59.8223
6546934 6.56218 15.5081 10.9694 26.8298 10.3585 3.9408 59.8695
6546954 6.51813 15.4437 11.0006 26.8395 10.3527 3.98274 59.8019
6546963 6.56218 15.4437 11.1358 26.859 10.2519 3.9972 60.0006
6546984 6.65026 15.4621 11.1878 26.8103 10.1623 3.96414 60.1104
6546993 6.65026 15.4621 11.1878 26.8103 10.1623 3.96414 60.1104
6547004 6.60622 15.3055 11.3229 26.6739 10.0362 4.02741 59.9086
6547015 6.68549 15.2503 11.4581 26.4693 9.84579 4.00706 59.8632
6547029 6.68549 15.2503 11.4581 26.4693 9.84579 4.00706 59.8632
6547035 6.66788 15.149 11.6141 26.3524 9.70984 4.05205 59.7834
6547045 6.75596 15.0937 11.7492 26.216 9.5313 4.04136 59.815
6547055 6.75596 15.0937 11.7492 26.216 9.5313 4.04136 59.815
6547065 6.9057 15.0293 11.9052 26.0407 9.29306 4.0107 59.8808
6547076 6.9057 15.0293 11.9052 26.0407 9.29306 4.0107 59.8808
6547085 6.89689 14.9095 12.1131 25.9043 9.11166 4.06469 59.8239
6547102 7.03782 14.8543 12.3107 25.7192 8.85524 4.0397 59.922
6547105 7.03782 14.8543 12.3107 25.7192 8.85524 4.0397 59.922
6547114 7.1171 14.7069 12.6954 25.4854 8.4909 4.08886 60.0048
6547136 7.21399 14.5688 12.9346 25.2711 8.2063 4.1065 59.9884
6547148 7.30207 14.4583 13.2361 24.9983 7.88336 4.11886 59.9947
6547167 7.30207 14.4583 13.2361 24.9983 7.88336 4.11886 59.9947
6547168 7.39896 14.3662 13.496 24.6768 7.56949 4.10616 59.938
6547178 7.51347 14.2373 13.808 24.3845 7.21531 4.11433 59.9432
6547196 7.51347 14.2373 13.808 24.3845 7.21531 4.11433 59.9432
6547198 7.62798 14.0531 14.1615 23.9948 6.79278 4.13 59.8374
6547206 7.88342 14.0347 14.4942 23.6636 6.37555 4.0548 60.0759
6547226 7.98031 13.8781 14.8997 23.2642 5.94041 4.07485 60.0223
6547236 8.20933 13.6571 15.2844 22.7089 5.37601 4.04116 59.8597
6547257 8.35026 13.6203 15.6795 22.3777 4.98442 4.01981 60.0277
6547267 8.35026 13.6203 15.6795 22.3777 4.98442 4.01981 60.0277
6547280 8.52642 13.4729 16.0746 22.0172 4.53023 4.01702 60.0912
6547289 8.64093 13.3072 16.5217 21.4521 4.00382 4.01166 59.9219
6547297 8.64093 13.3072 16.5217 21.4521 4.00382 4.01166 59.9219
6547308 8.85233 13.1598 17.0689 20.8968 3.39101 3.98987 59.9779
6547317 9.03731 12.8191 17.6005 20.2928 2.70886 4.02603 59.7497
6547338 9.03731 12.8191 17.6005 20.2928 2.70886 4.02603 59.7497
6547339 9.22228 12.773 18.1714 19.8252 2.16886 4.00087 59.9919
6547366 9.38964 12.4783 18.6734 19.4648 1.61651 4.06714 60.0061
6547368 9.60104 12.377 19.0967 19.0361 1.12933 4.03123 60.1109
6547377 9.60104 12.377 19.0967 19.0361 1.12933 4.03123 60.1109
6547393 9.75078 12.2205 19.4215 18.5977 0.685886 4.01263 59.9905
6547397 9.86528 11.9902 19.8153 18.1983 0.212112 4.04834 59.8691
6547408 9.86528 11.9902 19.8153 18.1983 0.212112 4.04834 59.8691
6547422 10.0591 11.8337 20.3272 17.7599 -0.33038 4.04993 59.9798
6547428 10.0591 11.8337 20.3272 17.7599 -0.33038 4.04993 59.9798
6547438 10.1736 11.6311 20.6618 17.3312 -0.783095 4.06079 59.7977
6547455 10.2528 11.4561 21.095 16.9334 -1.23805 4.09778 59.7373
6547459 10.2528 11.4561 21.095 16.9334 -1.23805 4.09778 59.7373
6547468 10.4819 11.3272 21.5379 16.5907 -1.7109 4.08414 59.9377
6547487 10.4819 11.3272 21.5379 16.5907 -1.7109 4.08414 59.9377
6547488 10.5611 11.2075 21.9415 16.229 -2.11305 4.10464 59.9391
6547498 10.6492 11.0049 22.3353 15.9434 -2.51789 4.16081 59.9328
6547519 10.8342 10.922 22.7585 15.4866 -2.99335 4.12214 60.0013
6547528 10.9223 10.8115 23.172 15.1915 -3.36591 4.1507 60.0972
6547540 10.9223 10.8115 23.172 15.1915 -3.36591 4.1507 60.0972
6547550 11.072 10.6273 23.5263 14.8108 -3.81448 4.15692 60.0364
6547567 11.0456 10.4707 23.861 14.5157 -4.1408 4.22262 59.8931
6547570 11.0456 10.4707 23.861 14.5157 -4.1408 4.22262 59.8931
6547580 11.1865 10.2866 24.3237 14.2872 -4.55047 4.27846 60.084
6547593 11.1865 10.2866 24.3237 14.2872 -4.55047 4.27846 60.084
6547600 11.1953 10.1576 24.7765 14.0017 -4.91114 4.3468 60.1311
6547610 11.3098 9.98267 25.1604 13.6971 -5.31608 4.38029 60.15
6547621 11.3098 9.98267 25.1604 13.6971 -5.31608 4.38029 60.15
6547630 11.4244 9.85374 25.5148 13.4211 -5.67324 4.39875 60.2139
6547650 11.4244 9.66035 25.9282 13.1069 -6.06508 4.47866 60.1198
6547660 11.4948 9.513 26.3318 12.8214 -6.43782 4.5242 60.161
6547680 11.4948 9.513 26.3318 12.8214 -6.43782 4.5242 60.161
6547682 11.5389 9.32882 26.7255 12.6215 -6.77329 4.60337 60.2147
6547694 11.6005 9.15385 26.9913 12.4311 -7.06537 4.65331 60.1768
6547711 11.6181 9.0065 27.1587 12.2122 -7.31642 4.68691 59.9955
6547721 11.5653 8.92362 27.4933 12.1265 -7.48995 4.77409 60.1088
6547742 11.5477 8.81311 27.6804 12.0885 -7.61957 4.84156 60.1296
6547752 11.5477 8.81311 27.6804 12.0885 -7.61957 4.84156 60.1296
6547766 11.5124 8.59209 27.9757 12.0028 -7.8613 4.96163 60.083
6547774 11.486 8.54605 28.2218 12.0218 -7.93848 5.02978 60.2757
6547795 11.3979 8.41712 28.3596 12.0123 -8.02835 5.12325 60.1869
6547802 11.3275 8.34344 28.5269 11.9742 -8.11701 5.19267 60.1721
6547825 11.3275 8.34344 28.5269 11.9742 -8.11701 5.19267 60.1721
6547827 11.2746 8.26056 28.6746 12.0885 -8.12634 5.28072 60.2982
6547856 11.1865 8.20531 28.7435 12.0599 -8.16709 5.33553 60.1952
6547857 11.1601 8.14085 28.8025 12.1741 -8.14882 5.39397 60.2776
6547863 11.1601 8.14085 28.8025 12.1741 -8.14882 5.39397 60.2776
6547873 11.0632 8.14085 28.7829 12.2503 -8.07431 5.43578 60.2372
6547887 11.0016 8.15926 28.9108 12.3169 -8.04631 5.48123 60.3886
6547894 11.0016 8.15926 28.9108 12.3169 -8.04631 5.48123 60.3886
6547912 10.9047 8.08559 28.9994 12.3931 -8.04263 5.56506 60.3827
6547915 10.9047 8.08559 28.9994 12.3931 -8.04263 5.56506 60.3827
6547925 10.8078 8.05796 28.9699 12.4597 -7.9857 5.61333 60.2953
6547938 10.7902 8.04875 29.029 12.5168 -7.97121 5.64055 60.3847
6547945 10.7902 8.04875 29.029 12.5168 -7.97121 5.64055 60.3847
6547955 10.7637 7.9935 28.9797 12.4787 -8.00092 5.65498 60.2157
6547965 10.8078 8.03034 28.9896 12.5263 -7.96994 5.63619 60.354
6547977 10.8078 8.03034 28.9896 12.5263 -7.96994 5.63619 60.354
6547991 10.8254 8.03955 28.9108 12.5358 -7.94244 5.61626 60.3116
6547995 10.8254 8.03955 28.9108 12.5358 -7.94244 5.61626 60.3116
6548005 10.7725 8.03034 28.9108 12.5549 -7.92211 5.64046 60.2686
6548017 10.7813 7.9935 28.8124 12.5358 -7.92724 5.63179 60.1231
6548025 10.7813 7.9935 28.8124 12.5358 -7.92724 5.63179 60.1231
6548035 10.843 8.03955 28.6549 12.6025 -7.83834 5.58069 60.1399
6548045 10.843 8.03034 28.5761 12.7548 -7.73785 5.59534 60.2042
6548070 10.8782 8.15926 28.4186 12.8024 -7.60692 5.52208 60.2585
6548077 10.8782 8.15926 28.4186 12.8024 -7.60692 5.52208 60.2585
6548085 10.8606 8.15926 28.2513 12.9546 -7.47105 5.52572 60.2258
6548100 10.8606 8.26977 28.0938 13.126 -7.27366 5.4903 60.3502
6548105 10.8606 8.26977 28.0938 13.126 -7.27366 5.4903 60.3502
6548117 10.8342 8.26977 27.9068 13.2783 -7.12938 5.49381 60.289
6548132 10.6933 8.34344 27.6607 13.4972 -6.8583 5.51241 60.1946
6548136 10.6933 8.34344 27.6607 13.4972 -6.8583 5.51241 60.1946
6548146 10.6756 8.42633 27.2965 13.7161 -6.58312 5.46721 60.1146
6548164 10.6756 8.42633 27.2965 13.7161 -6.58312 5.46721 60.1146
6548166 10.5347 8.5 26.9618 14.0302 -6.23317 5.48688 60.0267
6548176 10.4466 8.61972 26.5779 14.2682 -5.89886 5.45289 59.9124
6548195 10.4466 8.61972 26.5779 14.2682 -5.89886 5.45289 59.9124
6548197 10.3762 8.73023 26.2038 14.6489 -5.50409 5.4403 59.9591
6548207 10.2705 8.88678 25.9184 14.944 -5.1475 5.4245 60.0196
6548228 10.244 8.98808 25.623 15.2486 -4.83764 5.40054 60.1038
6548256 10.1207 9.1078 25.249 15.5817 -4.44568 5.39522 60.0593
6548258 10.0591 9.24594 24.9438 15.8578 -4.11734 5.36462 60.1066
6548269 10.0591 9.24594 24.9438 15.8578 -4.11734 5.36462 60.1066
6548285 9.99741 9.43933 24.5304 16.2671 -3.66129 5.31942 60.2342
6548289 9.93575 9.54063 24.2056 16.5241 -3.35374 5.29513 60.206
6548299 9.93575 9.54063 24.2056 16.5241 -3.35374 5.29513 60.206
6548316 9.86528 9.68797 23.7823 16.762 -2.99411 5.23924 60.0976
6548329 9.76839 9.69718 23.487 16.9619 -2.75237 5.25332 59.9145
6548346 9.70674 9.9182 23.172 17.2533 -2.37602 5.19574 60.0502
6548349 9.70674 9.9182 23.172 17.2533 -2.37602 5.19574 60.0502
6548359 9.60104 10.0011 22.7782 17.565 -2.0073 5.19001 59.9454
6548377 9.54819 10.1024 22.5617 17.7404 -1.77935 5.16696 59.9526
6548405 9.50414 10.2866 22.1876 18.1301 -1.36216 5.12249 60.1084
6548406 9.50414 10.2866 22.1876 18.1301 -1.36216 5.12249 60.1084
6548415 9.40725 10.3602 21.8431 18.3736 -1.0488 5.11365 59.9842
6548435 9.36321 10.5813 21.597 18.7146 -0.690526 5.07014 60.2561
6548436 9.36321 10.5813 21.597 18.7146 -0.690526 5.07014 60.2561
6548440 9.2487 10.7102 21.1737 18.9192 -0.330146 5.02917 60.0518
6548450 9.19586 10.7562 20.8882 19.1335 -0.0810131 5.01961 59.9739
6548464 9.19586 10.7562 20.8882 19.1335 -0.0810131 5.01961 59.9739
6548470 9.19586 10.9128 20.6126 19.3966 0.208285 4.96539 60.1178
6548480 9.19586 10.9128 20.6126 19.3966 0.208285 4.96539 60.1178
6548495 9.05492 11.0693 20.2681 19.5817 0.553566 4.93351 59.974
6548500 9.01088 11.2167 19.9925 19.7473 0.817364 4.8807 59.9673
6548510 9.01088 11.2167 19.9925 19.7473 0.817364 4.8807 59.9673
6548525 9.00207 11.3364 19.6873 20.0006 1.10267 4.83523 60.0264
6548530 8.9228 11.4009 19.4609 20.1175 1.30823 4.82155 59.9021
6548553 8.95803 11.539 19.3034 20.2149 1.45482 4.7541 60.0154
6548560 8.95803 11.539 19.3034 20.2149 1.45482 4.7541 60.0154
6548579 8.87876 11.5758 19.1361 20.3708 1.63929 4.76612 59.9614
6548581 8.89637 11.714 18.9392 20.6143 1.86687 4.7229 60.1639
6548605 8.75544 11.8429 18.7128 20.7897 2.1482 4.7181 60.1008
6548611 8.64093 11.9442 18.3683 21.0722 2.50193 4.71182 60.0256
6548634 8.59689 12.11 18.0139 21.3937 2.86656 4.66628 60.1145
6548642 8.59689 12.11 18.0139 21.3937 2.86656 4.66628 60.1145
6548666 8.48238 12.1928 17.5611 21.8029 3.31127 4.66913 60.0392
6548668 8.37668 12.4875 17.187 22.2413 3.80026 4.6185 60.2925
6548671 8.37668 12.4875 17.187 22.2413 3.80026 4.6185 60.2925
6548681 8.11244 12.5888 16.7193 22.5043 4.28096 4.63638 59.9248
6548700 8.05959 12.7086 16.3657 22.9817 4.68468 4.63589 60.1156
6548702 8.05959 12.7086 16.3657 22.9817 4.68468 4.63589 60.1156
6548711 7.93627 12.948 15.8459 23.2447 5.17323 4.55349 59.9748
6548726 7.93627 12.948 15.8459 23.2447 5.17323 4.55349 59.9748
6548731 7.81295 13.0861 15.4196 23.7026 5.64641 4.55415 60.0212
6548743 7.69845 13.3164 15.0453 24.102 6.09797 4.5209 60.1621
6548754 7.69845 13.3164 15.0453 24.102 6.09797 4.5209 60.1621
6548762 7.56632 13.4453 14.5774 24.4722 6.56572 4.5049 60.0612
6548788 7.40777 13.6295 14.1927 24.8229 7.01548 4.49063 60.0528
6548789 7.40777 13.6295 14.1927 24.8229 7.01548 4.49063 60.0528
6548794 7.33731 13.8137 13.8807 25.0567 7.34432 4.44008 60.0884
6548802 7.33731 13.8137 13.8807 25.0567 7.34432 4.44008 60.0884
6548824 7.14352 13.9242 13.5584 25.4269 7.76362 4.47546 60.053
6548825 7.06425 14.1544 13.1321 25.8361 8.22195 4.42362 60.1869
6548850 6.92332 14.3662 12.6642 26.1576 8.70728 4.37496 60.1113
6548854 6.80881 14.6056 12.2379 26.3719 9.13415 4.29711 60.0243
6548862 6.80881 14.6056 12.2379 26.3719 9.13415 4.29711 60.0243
6548875 6.72073 14.9187 11.8636 26.4888 9.51096 4.1788 59.9919
6548882 6.72073 14.9187 11.8636 26.4888 9.51096 4.1788 59.9919
6548892 6.5886 15.1398 11.4997 26.5375 9.8673 4.09321 59.7656
6548904 6.50052 15.3516 11.2917 26.6057 10.111 4.02816 59.7496
6548914 6.50052 15.3516 11.2917 26.6057 10.111 4.02816 59.7496
6548927 6.41244 15.5542 11.0734 26.6252 10.3467 3.95507 59.6652
6548934 6.38601 15.7568 10.8446 26.7129 10.569 3.87303 59.7003
6548944 6.38601 15.7568 10.8446 26.7129 10.569 3.87303 59.7003
6548956 6.36839 15.9502 10.7511 26.6739 10.6725 3.79282 59.7436
6548979 6.38601 16.0975 10.6367 26.6739 10.7656 3.71954 59.7941
6548983 6.39482 16.1804 10.5639 26.6934 10.8282 3.6808 59.8325
6549008 6.3772 16.3001 10.5327 26.6057 10.865 3.62642 59.8158
6549013 6.47409 16.383 10.5015 26.4986 10.8199 3.54419 59.8572
6549023 6.47409 16.383 10.5015 26.4986 10.8199 3.54419 59.8572
6549037 6.39482 16.4935 10.4599 26.4693 10.9115 3.52094 59.8176
6549068 6.4829 16.429 10.5015 26.3037 10.7793 3.48978 59.7172
6549069 6.50052 16.5303 10.4599 26.2842 10.8131 3.44123 59.775
6549074 6.50052 16.5303 10.4599 26.2842 10.8131 3.44123 59.775
6549084 6.53575 16.558 10.4391 26.0894 10.7646 3.37999 59.6223
6549098 6.64145 16.6316 10.5431 25.9238 10.6172 3.31281 59.74
6549105 6.64145 16.6316 10.5431 25.9238 10.6172 3.31281 59.74
6549114 6.73834 16.7237 10.6055 25.8166 10.5188 3.24628 59.8842
6549128 6.73834 16.7237 10.6055 25.8166 10.5188 3.24628 59.8842
6549135 6.8 16.6777 10.6783 25.5828 10.3711 3.20983 59.7388
6549145 6.87047 16.6501 10.8135 25.388 10.1948 3.18499 59.7219
6549157 6.87047 16.6501 10.8135 25.388 10.1948 3.18499 59.7219
6549167 7.0114 16.6132 11.0006 25.1444 9.93214 3.14216 59.7696
6549175 7.04663 16.5856 11.0838 24.9106 9.7967 3.10989 59.6266
6549187 7.04663 16.5856 11.0838 24.9106 9.7967 3.10989 59.6266
6549196 7.2228 16.5119 11.2709 24.6086 9.48882 3.05586 59.6143
6549218 7.2228 16.5119 11.2709 24.6086 9.48882 3.05586 59.6143
6549219 7.25803 16.3922 11.4789 24.3456 9.24798 3.07044 59.4747
6549226 7.39016 16.3277 11.7908 24.141 8.92198 3.07141 59.6497
6549254 7.39016 16.3277 11.7908 24.141 8.92198 3.07141 59.6497
6549256 7.46943 16.1896 12.1131 23.8487 8.57742 3.09527 59.6209
6549257 7.60155 15.987 12.4875 23.5857 8.16422 3.13884 59.6617
6549267 7.60155 15.987 12.4875 23.5857 8.16422 3.13884 59.6617
6549290 7.80414 15.8489 12.9138 23.3616 7.71444 3.15936 59.9284
6549292 7.90104 15.591 13.3297 23.0011 7.25536 3.2192 59.8229
6549297 7.90104 15.591 13.3297 23.0011 7.25536 3.2192 59.8229
6549324 8.05959 15.4897 13.6832 22.8258 6.89861 3.23678 60.0583
6549325 8.05959 15.4897 13.6832 22.8258 6.89861 3.23678 60.0583
6549327 8.16529 15.2319 14.0471 22.4069 6.44364 3.27233 59.8511
6549337 8.25337 15.0661 14.5358 22.0464 5.97787 3.32113 59.9017
6549359 8.40311 14.8727 14.9413 21.647 5.50217 3.33567 59.8641
6549368 8.52642 14.6333 15.43 21.1014 4.93303 3.36023 59.6911
6549383 8.52642 14.6333 15.43 21.1014 4.93303 3.36023 59.6911
6549388 8.79067 14.4399 16.0954 20.5461 4.21729 3.35991 59.8721
6549399 8.79067 14.4399 16.0954 20.5461 4.21729 3.35991 59.8721
6549409 8.86114 14.1083 16.6881 20.0298 3.59747 3.4551 59.6874
6549419 9.09896 13.8137 17.4134 19.494 2.83987 3.50923 59.82
6549433 9.09896 13.8137 17.4134 19.494 2.83987 3.50923 59.82
6549438 9.33679 13.6203 18.0434 19.0166 2.18965 3.52475 60.0171
6549449 9.48653 13.3256 18.5848 18.5003 1.56706 3.57438 59.8972
6549459 9.48653 13.3256 18.5848 18.5003 1.56706 3.57438 59.8972
6549469 9.68031 13.0309 19.2444 18.0716 0.907022 3.64955 60.0272
6549485 9.68031 13.0309 19.2444 18.0716 0.907022 3.64955 60.0272
6549489 9.72435 12.7454 19.7858 17.6722 0.378579 3.75157 59.9277
6549499 9.86528 12.4875 20.3665 17.1948 -0.229257 3.80758 59.9142
6549515 9.86528 12.4875 20.3665 17.1948 -0.229257 3.80758 59.9142
6549520 10.0415 12.1928 21.0654 16.7716 -0.891639 3.89604 60.0713
6549545 10.1736 11.9534 21.469 16.3432 -1.39556 3.92529 59.9392
6549550 10.2793 11.6311 22.0104 16.0672 -1.91347 4.04262 59.988
6549575 10.3497 11.4101 22.4829 15.6484 -2.41029 4.10031 59.8911
6549581 10.5083 11.2535 23.0046 15.2962 -2.89831 4.13044 60.0626
6549592 10.5083 11.2535 23.0046 15.2962 -2.89831 4.13044 60.0626
6549606 10.5876 11.0785 23.4181 14.963 -3.31574 4.17546 60.0472
6549616 10.5788 10.8759 23.8118 14.6775 -3.68558 4.26263 59.944
6549633 10.5788 10.8759 23.8118 14.6775 -3.68558 4.26263 59.944
6549633 10.6756 10.7378 24.2056 14.4966 -4.01175 4.31387 60.1157
6549642 10.6756 10.7378 24.2056 14.4966 -4.01175 4.31387 60.1157
6549662 10.6845 10.5628 24.5304 14.3539 -4.28151 4.3996 60.1316
6549663 10.6845 10.351 24.9241 14.2492 -4.57093 4.51873 60.2088
6549672 10.6845 10.351 24.9241 14.2492 -4.57093 4.51873 60.2088
6549694 10.6933 10.2037 25.3868 13.916 -4.96695 4.5862 60.1998
6549695 10.6933 9.98267 25.879 13.659 -5.36859 4.69876 60.2139
6549726 10.8342 9.79848 26.3712 13.4591 -5.76706 4.76265 60.463
6549727 10.8342 9.79848 26.3712 13.4591 -5.76706 4.76265 60.463
6549732 10.8166 9.57747 26.7452 13.126 -6.16373 4.84786 60.2653
6549757 10.7725 9.31961 27.198 12.9546 -6.51355 4.99475 60.2448
6549762 10.799 9.19068 27.5918 12.7928 -6.79397 5.06713 60.3743
6549772 10.7461 8.94204 28.0347 12.6405 -7.12281 5.21519 60.3634
6549784 10.7461 8.94204 28.0347 12.6405 -7.12281 5.21519 60.3634
6549794 10.7725 8.72102 28.4679 12.4121 -7.49803 5.31352 60.3735
6549813 10.7725 8.46316 28.8616 12.2788 -7.82269 5.44207 60.3761
6549825 10.7285 8.31582 29.1963 12.098 -8.08396 5.53128 60.3386
6549839 10.7285 8.31582 29.1963 12.098 -8.08396 5.53128 60.3386
6549843 10.799 8.14085 29.4227 11.8981 -8.3731 5.57105 60.2606
6549854 10.799 8.02113 29.6294 11.841 -8.52799 5.63529 60.2905
6549874 10.8606 7.91062 29.8657 11.6887 -8.75539 5.66504 60.3256
6549893 10.8606 7.91062 29.8657 11.6887 -8.75539 5.66504 60.3256
6549896 10.8782 7.80011 29.9641 11.5935 -8.90196 5.69741 60.236
6549903 10.9399 7.69881 30.1019 11.5554 -9.03358 5.7264 60.296
6549920 10.9399 7.69881 30.1019 11.5554 -9.03358 5.7264 60.296
6549925 10.9663 7.59751 30.2299 11.3936 -9.22332 5.74697 60.1873
6549935 10.8782 7.53304 30.4169 11.5554 -9.194 5.85284 60.3836
6549948 10.8782 7.53304 30.4169 11.5554 -9.194 5.85284 60.3836
6549955 10.799 7.45937 30.6827 11.5554 -9.28436 5.94575 60.4965
6549975 10.799 7.45937 30.6827 11.5554 -9.28436 5.94575 60.4965
6549976 10.6933 7.34886 30.8303 11.6411 -9.30934 6.0555 60.5136
6549985 10.614 7.21993 31.0666 11.7363 -9.36905 6.17668 60.6368
6550005 10.5171 7.11863 31.2733 11.7744 -9.43315 6.28144 60.6834
6550015 10.4026 7.01733 31.4013 11.7934 -9.48333 6.37835 60.6146
6550032 10.4026 7.01733 31.4013 11.7934 -9.48333 6.37835 60.6146
6550035 10.3321 6.91603 31.5588 11.8505 -9.53072 6.4694 60.6574
6550045 10.3321 6.91603 31.5588 11.8505 -9.53072 6.4694 60.6574
6550057 10.2 6.80553 31.7556 11.8791 -9.5939 6.58701 60.6402
6550066 10.1031 6.6766 31.9033 11.8791 -9.68046 6.68801 60.5621
6550084 10.1031 6.6766 31.9033 11.8791 -9.68046 6.68801 60.5621
6550087 9.92694 6.61213 31.8541 12.0123 -9.5838 6.78597 60.4055
6550096 9.83886 6.64897 31.8935 12.0599 -9.52307 6.81626 60.4412
6550107 9.83886 6.64897 31.8935 12.0599 -9.52307 6.81626 60.4412
6550130 9.76839 6.63055 31.9624 12.2027 -9.45178 6.87688 60.564
6550136 9.69793 6.63055 31.923 12.2884 -9.37482 6.90856 60.5398
6550158 9.59223 6.62134 31.8836 12.4121 -9.2723 6.96145 60.5093
6550160 9.59223 6.62134 31.8836 12.4121 -9.2723 6.96145 60.5093
6550166 9.53938 6.65818 31.7556 12.612 -9.09139 6.9768 60.5652
6550188 9.45129 6.69502 31.6474 12.7643 -8.93333 7.00123 60.558
6550189 9.45129 6.69502 31.6474 12.7643 -8.93333 7.00123 60.558
6550196 9.3456 6.75948 31.3914 13.0308 -8.65178 7.01761 60.5273
6550206 9.3456 6.75948 31.3914 13.0308 -8.65178 7.01761 60.5273
6550218 9.27513 6.88841 31.1257 13.2116 -8.38861 6.98513 60.5008
6550230 9.28394 6.9805 30.8796 13.4972 -8.11569 6.95377 60.6412
6550244 9.28394 6.9805 30.8796 13.4972 -8.11569 6.95377 60.6412
6550246 9.28394 7.12784 30.5252 13.6876 -7.83252 6.87864 60.6245
6550256 9.28394 7.21993 30.1118 13.8589 -7.57214 6.81281 60.4745
6550272 9.28394 7.21993 30.1118 13.8589 -7.57214 6.81281 60.4745
6550276 9.27513 7.33965 29.8164 14.0969 -7.29209 6.76509 60.5281
6550286 9.27513 7.33965 29.8164 14.0969 -7.29209 6.76509 60.5281
6550299 9.23109 7.40412 29.3046 14.2016 -7.03758 6.70195 60.1413
6550306 9.27513 7.57909 28.9207 14.5252 -6.67143 6.61483 60.3001
6550326 9.27513 7.57909 28.9207 14.5252 -6.67143 6.61483 60.3001
6550330 9.19586 7.6896 28.4974 14.7346 -6.34967 6.57377 60.1175
6550339 9.19586 7.6896 28.4974 14.7346 -6.34967 6.57377 60.1175
6550354 9.1342 7.78169 28.0151 15.1534 -5.91425 6.55393 60.0844
6550361 9.06373 7.9935 27.7001 15.5056 -5.50284 6.50859 60.2629
6550382 9.0285 8.03955 27.3162 15.8578 -5.16555 6.50026 60.242
6550387 8.94041 8.23294 26.8929 16.2385 -4.71017 6.45672 60.3048
6550397 8.94041 8.23294 26.8929 16.2385 -4.71017 6.45672 60.3048
6550410 8.86114 8.34344 26.3515 16.6478 -4.24447 6.42684 60.2039
6550419 8.80829 8.55525 25.8691 17.039 -3.76761 6.35736 60.2717
6550439 8.80829 8.55525 25.8691 17.039 -3.76761 6.35736 60.2717
6550440 8.72021 8.84074 25.3179 17.4774 -3.19768 6.27135 60.3562
6550449 8.72021 8.84074 25.3179 17.4774 -3.19768 6.27135 60.3562
6550469 8.57047 8.93283 24.7273 17.906 -2.68509 6.26823 60.1366
6550470 8.42953 9.22752 24.0677 18.4418 -2.00606 6.19593 60.1666
6550498 8.32383 9.43933 23.5559 18.89 -1.4742 6.14925 60.209
6550500 8.20052 9.70639 22.916 19.3284 -0.865233 6.06907 60.1513
6550511 8.20052 9.70639 22.916 19.3284 -0.865233 6.06907 60.1513
6550529 8.10363 9.97346 22.4435 19.7765 -0.330535 6.006 60.2971
6550541 7.93627 10.1576 21.8135 20.2928 0.290969 5.98314 60.2003
6550559 7.84819 10.3879 21.2328 20.8287 0.885427 5.92696 60.2975
6550561 7.84819 10.3879 21.2328 20.8287 0.885427 5.92696 60.2975
6550571 7.67202 10.701 20.6225 21.3158 1.54293 5.86091 60.3112
6550589 7.50466 10.9312 19.9433 21.8711 2.22171 5.82034 60.2502
6550601 7.45181 11.1706 19.3329 22.3971 2.80975 5.74316 60.3525
6550618 7.45181 11.1706 19.3329 22.3971 2.80975 5.74316 60.3525
6550622 7.25803 11.3824 18.703 22.9037 3.4546 5.718 60.2472
6550634 7.16995 11.6219 18.1123 23.3421 4.01756 5.64249 60.2463
6550651 7.16995 11.6219 18.1123 23.3421 4.01756 5.64249 60.2463
6550652 6.99378 11.8153 17.6103 23.8585 4.59109 5.63881 60.2778
6550662 6.92332 12.0915 17.0492 24.2676 5.13272 5.54484 60.3317
6550673 6.92332 12.0915 17.0492 24.2676 5.13272 5.54484 60.3317
6550682 6.84404 12.2297 16.5217 24.7158 5.62901 5.51235 60.3112
6550702 6.73834 12.4507 15.9394 25.0957 6.17219 5.4412 60.2242
6550704 6.73834 12.4507 15.9394 25.0957 6.17219 5.4412 60.2242
6550714 6.65907 12.7178 15.5859 25.3782 6.56726 5.36633 60.341
6550733 6.66788 12.8099 15.0557 25.5926 6.93497 5.28153 60.1259
6550743 6.63264 13.0861 14.5774 25.992 7.40946 5.18773 60.2881
6550756 6.63264 13.0861 14.5774 25.992 7.40946 5.18773 60.2881
6550763 6.57979 13.3348 14.1095 26.2453 7.83598 5.08721 60.2693
6550774 6.46528 13.5742 13.5584 26.5181 8.34578 4.99958 60.116
6550784 6.46528 13.5742 13.5584 26.5181 8.34578 4.99958 60.116
6550794 6.38601 13.7676 13.2257 26.8103 8.70841 4.95494 60.1896
6550809 6.38601 13.7676 13.2257 26.8103 8.70841 4.95494 60.1896
6550814 6.35959 14.007 12.7786 26.9272 9.07075 4.82897 60.0724
6550824 6.2715 14.1452 12.4459 27.1805 9.41338 4.79898 60.0431
6550835 6.2715 14.1452 12.4459 27.1805 9.41338 4.79898 60.0431
6550860 6.15699 14.3294 12.1963 27.4046 9.72778 4.7717 60.0873
6550861 6.09534 14.4307 11.8636 27.5312 10.0144 4.72344 59.9208
6550875 6.03368 14.6425 11.6972 27.6287 10.2247 4.66228 60.0021
6550885 6.03368 14.6425 11.6972 27.6287 10.2247 4.66228 60.0021
6550895 5.99845 14.753 11.4269 27.7261 10.4557 4.60773 59.9044
6550912 5.97202 14.8635 11.3645 27.804 10.5539 4.58295 60.004
6550915 5.97202 14.8635 11.3645 27.804 10.5539 4.58295 60.004
6550925 5.91036 14.9095 11.2294 27.8138 10.6842 4.56623 59.863
6550938 5.92798 14.9464 11.1774 27.9209 10.739 4.55806 59.9726
6550945 5.92798 14.9464 11.1774 27.9209 10.739 4.55806 59.9726
6550954 5.96321 15.1213 11.063 27.9112 10.8254 4.46803 60.0587
6550970 5.96321 15.1213 11.063 27.9112 10.8254 4.46803 60.0587
6550979 5.9456 15.149 10.9382 27.804 10.8918 4.42395 59.8368
6550988 5.98964 15.3516 10.8758 27.7553 10.939 4.32448 59.9724
6550996 5.98964 15.3516 10.8758 27.7553 10.939 4.32448 59.9724
6551014 5.98964 15.3792 10.8654 27.6676 10.9311 4.29808 59.9019
6551016 6.02487 15.4345 10.8758 27.5605 10.8915 4.25164 59.8956
6551026 6.02487 15.4345 10.8758 27.5605 10.8915 4.25164 59.8956
6551039 6.07772 15.5173 10.8966 27.3948 10.8279 4.18201 59.8865
6551046 6.07772 15.5173 10.8966 27.3948 10.8279 4.18201 59.8865
6551065 6.09534 15.5818 10.8446 27.2779 10.8361 4.12513 59.7997
6551066 6.14819 15.5818 11.0006 27.1026 10.6695 4.10471 59.8332
6551076 6.14819 15.5818 11.0006 27.1026 10.6695 4.10471 59.8332
6551091 6.24508 15.6831 10.9694 26.9759 10.6243 4.01275 59.8735
6551098 6.34197 15.6555 11.063 26.8006 10.4622 3.97574 59.861
6551124 6.38601 15.6647 11.2086 26.5668 10.2952 3.94259 59.826
6551126 6.38601 15.6647 11.2086 26.5668 10.2952 3.94259 59.826
6551136 6.53575 15.6463 11.3229 26.3037 10.0702 3.87351 59.8087
6551156 6.60622 15.6002 11.5205 26.0407 9.83568 3.85361 59.7676
6551157 6.60622 15.6002 11.5205 26.0407 9.83568 3.85361 59.7676
6551166 6.72953 15.5726 11.718 25.7971 9.58007 3.81488 59.8173
6551184 6.72953 15.5726 11.718 25.7971 9.58007 3.81488 59.8173
6551186 6.87927 15.5173 11.9884 25.4756 9.24035 3.77562 59.8606
6551196 7.04663 15.4713 12.2171 25.1542 8.91717 3.72021 59.8892
6551217 7.16995 15.4621 12.3731 24.8132 8.66467 3.64961 59.8183
6551227 7.25803 15.37 12.6538 24.4917 8.34392 3.64312 59.7735
6551247 7.45181 15.2779 12.945 24.1312 7.94753 3.59826 59.8059
6551266 7.45181 15.2779 12.945 24.1312 7.94753 3.59826 59.8059
6551267 7.59275 15.1858 13.2985 23.7903 7.55206 3.58548 59.8673
6551277 7.74249 15.0845 13.7248 23.3324 7.07601 3.56442 59.8841
6551294 7.74249 15.0845 13.7248 23.3324 7.07601 3.56442 59.8841
6551297 7.88342 14.8911 14.0679 22.9135 6.63252 3.56622 59.7559
6551307 8.06839 14.799 14.463 22.5043 6.17197 3.53471 59.8347
6551322 8.06839 14.799 14.463 22.5043 6.17197 3.53471 59.8347
6551327 8.31503 14.6701 14.9621 22.0075 5.58774 3.49874 59.9547
6551351 8.45596 14.4307 15.3884 21.608 5.0909 3.53434 59.883
6551360 8.7114 14.3017 15.8771 21.1989 4.53998 3.51049 60.0891
6551367 8.7114 14.3017 15.8771 21.1989 4.53998 3.51049 60.0891
6551378 8.86995 14.0899 16.345 20.7799 4.01722 3.53626 60.0848
6551387 9.00207 13.9242 16.8128 20.3123 3.50598 3.5467 60.0514
6551409 9.16062 13.7492 17.2953 19.8447 2.97168 3.5546 60.0498
6551434 9.32798 13.4453 17.6891 19.2894 2.39225 3.56605 59.7517
6551439 9.46891 13.2151 18.3781 18.8315 1.75292 3.63787 59.8936
6551448 9.46891 13.2151 18.3781 18.8315 1.75292 3.63787 59.8936
6551461 9.62746 12.9296 18.8408 18.4126 1.20128 3.68573 59.8104
6551468 9.7772 12.727 19.3625 17.9645 0.648394 3.71615 59.8311
6551489 9.7772 12.727 19.3625 17.9645 0.648394 3.71615 59.8311
6551490 9.96218 12.4783 19.9433 17.4774 0.0209928 3.75371 59.8611
6551500 9.96218 12.4783 19.9433 17.4774 0.0209928 3.75371 59.8611
6551517 10.0855 12.2205 20.5043 17.0097 -0.56821 3.81347 59.8201
6551520 10.2969 11.9258 21.2131 16.5717 -1.25506 3.89004 60.0074
6551544 10.4731 11.6863 21.8628 16.0006 -1.93631 3.92449 60.0227
6551550 10.6052 11.3917 22.5321 15.5342 -2.58541 4.01314 60.0631
6551561 10.6052 11.3917 22.5321 15.5342 -2.58541 4.01314 60.0631
6551578 10.7813 11.143 23.1917 15.0106 -3.2512 4.06091 60.1267
6551581 10.9751 10.9128 23.802 14.5062 -3.88653 4.09169 60.196
6551591 10.9751 10.9128 23.802 14.5062 -3.88653 4.09169 60.196
6551611 11.0104 10.5352 24.3926 14.0778 -4.4946 4.23008 60.016
6551613 11.0104 10.5352 24.3926 14.0778 -4.4946 4.23008 60.016
6551628 11.0896 10.3787 24.8552 13.7732 -4.90583 4.28314 60.0968
6551638 11.2306 10.0655 25.4655 13.402 -5.4969 4.38091 60.1637
6551641 11.2306 10.0655 25.4655 13.402 -5.4969 4.38091 60.1637
6551651 11.3451 9.9182 25.9676 12.9927 -5.97844 4.40783 60.2236
6551675 11.3627 9.59588 26.509 12.6501 -6.49798 4.54121 60.1176
6551677 11.3627 9.59588 26.509 12.6501 -6.49798 4.54121 60.1176
