5827435 9.61865 9.76165 25.1899 19.4355 -2.19176 5.9163 64.0058
5827443 9.55699 9.92741 24.7765 19.6986 -1.84004 5.8609 63.9595
5827453 9.4601 10.0748 24.3434 20.0785 -1.42683 5.83684 63.9567
5827463 9.4601 10.0748 24.3434 20.0785 -1.42683 5.83684 63.9567
5827473 9.48653 10.2958 24.0382 20.3318 -1.12902 5.74906 64.1523
5827483 9.48653 10.2958 24.0382 20.3318 -1.12902 5.74906 64.1523
5827493 9.37202 10.3787 23.8709 20.5656 -0.89528 5.76887 64.1872
5827503 9.37202 10.526 23.6149 20.6436 -0.708193 5.69555 64.1565
5827513 9.37202 10.526 23.6149 20.6436 -0.708193 5.69555 64.1565
5827523 9.3456 10.6457 23.359 20.8189 -0.483088 5.65378 64.1692
5827534 9.25751 10.7562 23.0046 21.004 -0.195988 5.62184 64.0224
5827543 9.25751 10.7562 23.0046 21.004 -0.195988 5.62184 64.0224
5827553 9.22228 10.922 22.6699 21.2281 0.100657 5.56361 64.0423
5827563 9.22228 10.922 22.6699 21.2281 0.100657 5.56361 64.0423
5827573 9.16943 11.0233 22.2959 21.4911 0.409934 5.53166 63.9797
5827583 9.09016 11.1983 21.9514 21.7542 0.746518 5.4889 63.9939
5827593 9.09016 11.1983 21.9514 21.7542 0.746518 5.4889 63.9939
5827605 9.08135 11.3364 21.597 21.949 1.01896 5.42375 63.9637
5827613 9.01088 11.5022 21.095 22.2997 1.44585 5.37063 63.9077
5827624 9.01088 11.5022 21.095 22.2997 1.44585 5.37063 63.9077
5827633 8.94922 11.76 20.7209 22.6407 1.84585 5.30328 64.0708
5827645 8.94922 11.76 20.7209 22.6407 1.84585 5.30328 64.0708
5827655 8.82591 11.8705 20.337 23.0206 2.23571 5.30673 64.0541
5827664 8.75544 12.0823 20.0318 23.235 2.54663 5.24823 64.1046
5827684 8.74663 12.2297 19.835 23.5077 2.78138 5.21612 64.319
5827694 8.64093 12.377 19.52 23.7513 3.09827 5.19215 64.2892
5827704 8.64093 12.377 19.52 23.7513 3.09827 5.19215 64.2892
5827714 8.6057 12.4783 19.205 24.0338 3.38195 5.16646 64.3228
5827725 8.6057 12.4783 19.205 24.0338 3.38195 5.16646 64.3228
5827738 8.47358 12.5244 18.8801 24.1994 3.65576 5.16912 64.0775
5827746 8.41192 12.6349 18.6439 24.4722 3.91631 5.15936 64.1629
5827754 8.41192 12.6349 18.6439 24.4722 3.91631 5.15936 64.1629
5827766 8.36788 12.7086 18.4765 24.5112 4.04879 5.13031 64.0642
5827786 8.32383 12.773 18.2797 24.6768 4.23331 5.11908 64.0533
5827788 8.32383 12.773 18.2797 24.6768 4.23331 5.11908 64.0533
5827795 8.34145 12.8006 18.1222 24.8229 4.35342 5.10312 64.0872
5827808 8.34145 12.8006 18.1222 24.8229 4.35342 5.10312 64.0872
5827816 8.26218 12.9112 17.8564 25.0275 4.6131 5.08387 64.0572
5827828 8.15648 13.0217 17.5808 25.31 4.91441 5.08343 64.069
5827836 8.15648 13.0217 17.5808 25.31 4.91441 5.08343 64.069
5827846 8.10363 13.1322 17.3544 25.5536 5.15551 5.06803 64.1438
5827856 8.02435 13.1966 17.0689 25.7387 5.40464 5.0571 64.0286
5827866 8.02435 13.1966 17.0689 25.7387 5.40464 5.0571 64.0286
5827875 7.99793 13.2703 16.9584 25.953 5.55744 5.05842 64.1797
5827885 7.99793 13.2703 16.9584 25.953 5.55744 5.05842 64.1797
5827896 7.98031 13.3992 16.8024 25.992 5.69096 5.0055 64.174
5827906 7.9715 13.4361 16.7089 26.1673 5.80358 5.0095 64.2838
5827916 7.9715 13.4361 16.7089 26.1673 5.80358 5.0095 64.2838
5827926 7.96269 13.5466 16.6049 26.255 5.91666 4.97535 64.3692
5827936 7.96269 13.5466 16.6049 26.255 5.91666 4.97535 64.3692
5827946 7.88342 13.565 16.5217 26.294 6.01185 4.98737 64.2641
5827957 7.8658 13.6111 16.4385 26.3427 6.0885 4.97316 64.2581
5827966 7.8658 13.6111 16.4385 26.3427 6.0885 4.97316 64.2581
5827976 7.8658 13.6847 16.241 26.3914 6.22025 4.92698 64.1829
5827986 7.83938 13.6479 16.1578 26.4401 6.27712 4.94123 64.0852
5827998 7.83938 13.6479 16.1578 26.4401 6.27712 4.94123 64.0852
5828007 7.79534 13.74 16.0434 26.5765 6.42104 4.92975 64.1552
5828026 7.70725 13.6295 15.8563 26.7421 6.57232 4.98826 63.9351
5828036 7.67202 13.74 15.7523 26.8883 6.71477 4.97136 64.0525
5828047 7.67202 13.74 15.7523 26.8883 6.71477 4.97136 64.0525
5828057 7.61036 13.8044 15.5963 26.9759 6.86611 4.95978 63.9871
5828066 7.59275 13.8229 15.5132 27.0636 6.94636 4.96024 63.9924
5828079 7.59275 13.8229 15.5132 27.0636 6.94636 4.96024 63.9924
5828087 7.62798 13.8597 15.5651 27.1708 6.94346 4.96272 64.2236
5828097 7.62798 13.8597 15.5651 27.1708 6.94346 4.96272 64.2236
5828107 7.5399 13.8137 15.6483 27.1318 6.92197 5.01139 64.1337
5828117 7.58394 13.786 15.7627 27.1805 6.84926 5.03161 64.3132
5828138 7.6544 13.786 15.7731 27.1026 6.78723 4.99919 64.3161
5828147 7.59275 13.6847 15.8459 27.161 6.76959 5.07031 64.2844
5828157 7.59275 13.6847 15.8459 27.161 6.76959 5.07031 64.2844
5828168 7.66321 13.6847 15.8667 27.0344 6.68852 5.03193 64.249
5828177 7.66321 13.6847 15.8667 27.0344 6.68852 5.03193 64.249
5828187 7.68083 13.6479 15.9914 26.7908 6.53806 5.01947 64.111
5828198 7.7601 13.6018 16.1474 26.6544 6.36994 5.01215 64.1638
5828218 7.80414 13.4913 16.2618 26.4304 6.19487 5.01581 63.9876
5828228 7.85699 13.4177 16.5425 26.3232 5.97961 5.04933 64.1404
5828238 7.85699 13.4177 16.5425 26.3232 5.97961 5.04933 64.1404
5828248 7.95389 13.4361 16.7505 26.0212 5.74835 4.99871 64.1616
5828258 7.95389 13.4361 16.7505 26.0212 5.74835 4.99871 64.1616
5828270 8.01554 13.3532 17 25.7971 5.50713 5.0093 64.1659
5828278 8.09482 13.3532 17.2658 25.5926 5.28142 4.99414 64.3063
5828288 8.09482 13.3532 17.2658 25.5926 5.28142 4.99414 64.3063
5828298 8.23575 13.3256 17.4528 25.1639 4.98648 4.92117 64.178
5828309 8.36788 13.1874 17.6989 24.7645 4.64127 4.8989 64.0187
5828319 8.36788 13.1874 17.6989 24.7645 4.64127 4.8989 64.0187
5828329 8.51762 13.1322 18.0533 24.3261 4.25094 4.85628 64.0291
5828340 8.51762 13.1322 18.0533 24.3261 4.25094 4.85628 64.0291
5828349 8.6057 13.0401 18.388 23.8974 3.8885 4.84261 63.9312
5828361 8.8171 13.0033 18.7226 23.4493 3.48198 4.77048 63.9923
5828369 8.8171 13.0033 18.7226 23.4493 3.48198 4.77048 63.9923
5828382 8.95803 12.8651 18.9884 23.0109 3.1061 4.74194 63.8224
5828389 9.09016 12.8006 19.2148 22.7186 2.82584 4.71043 63.8243
5828403 9.09016 12.8006 19.2148 22.7186 2.82584 4.71043 63.8243
5828414 9.23109 12.7638 19.5298 22.3971 2.50308 4.67729 63.9219
5828425 9.23109 12.7638 19.5298 22.3971 2.50308 4.67729 63.9219
5828433 9.25751 12.6349 19.8645 22.0075 2.16434 4.70001 63.7644
5828439 9.44249 12.506 20.4354 21.6665 1.67622 4.71976 64.0504
5828451 9.44249 12.506 20.4354 21.6665 1.67622 4.71976 64.0504
5828461 9.59223 12.3678 20.8686 21.2963 1.24886 4.72627 64.1249
5828470 9.68031 12.2113 21.154 20.8968 0.888994 4.72909 63.9425
5828483 9.68031 12.2113 21.154 20.8968 0.888994 4.72909 63.9425
5828492 9.92694 12.1284 21.6068 20.5364 0.440431 4.69354 64.1986
5828501 10.0503 12.1284 21.9809 19.9713 0.0267357 4.62498 64.1309
5828510 10.0503 11.981 21.9809 19.9713 -0.0307754 4.67017 63.9835
5828520 10.2176 11.8337 22.3451 19.6109 -0.436726 4.66463 64.0073
5828541 10.3585 11.6495 22.6601 19.1238 -0.879954 4.65008 63.792
5828551 10.4907 11.5206 23.1031 18.7438 -1.3034 4.65931 63.8582
5828570 10.6316 11.3548 23.5067 18.3152 -1.75066 4.6629 63.8083
5828580 10.6316 11.3548 23.5067 18.3152 -1.75066 4.6629 63.8083
5828592 10.7109 11.0601 24.0776 17.7989 -2.32904 4.73831 63.6475
5828602 10.8959 10.9404 24.8159 17.3994 -2.87732 4.77249 64.0516
5828615 10.8959 10.9404 24.8159 17.3994 -2.87732 4.77249 64.0516
5828622 11.0192 10.6457 25.4459 16.8667 -3.49833 4.84101 63.9775
5828632 11.1073 10.5352 25.8888 16.4574 -3.90827 4.85331 63.9887
5828642 11.1073 10.5352 25.8888 16.4574 -3.90827 4.85331 63.9887
5828652 11.2041 10.3142 26.4007 16.1433 -4.35018 4.9231 64.0624
5828673 11.213 10.13 26.6566 15.8959 -4.63402 4.97912 63.8955
5828682 11.2482 9.97346 27.0012 15.6389 -4.94703 5.0308 63.8617
5828694 11.2482 9.97346 27.0012 15.6389 -4.94703 5.0308 63.8617
5828702 11.301 9.84453 27.3162 15.3628 -5.25262 5.06077 63.8245
5828714 11.3539 9.74323 27.6607 15.1153 -5.54067 5.09109 63.8731
5828723 11.3539 9.74323 27.6607 15.1153 -5.54067 5.09109 63.8731
5828734 11.3891 9.54063 28.0544 14.9059 -5.86827 5.17231 63.8901
5828743 11.3891 9.54063 28.0544 14.9059 -5.86827 5.17231 63.8901
5828756 11.4155 9.47616 28.3497 14.8108 -6.04131 5.21499 64.0522
5828763 11.3891 9.37486 28.5958 14.6965 -6.21077 5.27544 64.0563
5828773 11.3891 9.37486 28.5958 14.6965 -6.21077 5.27544 64.0563
5828783 11.4244 9.23673 28.9502 14.5442 -6.46616 5.3386 64.1555
5828797 11.4332 9.1078 29.1865 14.4395 -6.65151 5.39647 64.1669
5828803 11.4332 9.1078 29.1865 14.4395 -6.65151 5.39647 64.1669
5828818 11.3979 9.09859 29.4325 14.4205 -6.72553 5.44445 64.3496
5828823 11.3979 9.09859 29.4325 14.4205 -6.72553 5.44445 64.3496
5828833 11.4244 8.99729 29.5999 14.3348 -6.87271 5.48036 64.3564
5828843 11.4244 8.86836 29.7672 14.1635 -7.06896 5.52088 64.2234
5828853 11.4244 8.86836 29.7672 14.1635 -7.06896 5.52088 64.2234
5828865 11.4596 8.8039 29.9936 14.1064 -7.20242 5.55514 64.3635
5828874 11.4684 8.71181 30.1511 13.9731 -7.3613 5.58532 64.3045
5828884 11.4684 8.71181 30.1511 13.9731 -7.3613 5.58532 64.3045
5828897 11.4772 8.68418 30.2299 13.8779 -7.44717 5.58894 64.2692
5828904 11.4772 8.68418 30.2299 13.8779 -7.44717 5.58894 64.2692
5828914 11.4332 8.55525 30.3382 13.8875 -7.52507 5.66166 64.214
5828925 11.3803 8.56446 30.6039 13.8113 -7.61671 5.70318 64.36
5828934 11.3803 8.56446 30.6039 13.8113 -7.61671 5.70318 64.36
5828945 11.3627 8.41712 30.7614 13.7066 -7.78252 5.76398 64.2479
5828954 11.3187 8.38949 30.8599 13.6685 -7.83063 5.79583 64.2365
5828974 11.3363 8.32503 30.9386 13.64 -7.90392 5.81818 64.2399
5828984 11.3363 8.32503 30.9386 13.64 -7.90392 5.81818 64.2399
5828994 11.2394 8.27898 31.1552 13.6114 -7.97393 5.89133 64.285
5829005 11.257 8.22373 31.1749 13.4782 -8.08076 5.88746 64.1338
5829016 11.257 8.22373 31.1749 13.4782 -8.08076 5.88746 64.1338
5829026 11.2482 8.17768 31.3028 13.4591 -8.14571 5.92077 64.1878
5829035 11.2746 8.10401 31.293 13.402 -8.21773 5.92671 64.0736
5829045 11.2746 8.10401 31.293 13.402 -8.21773 5.92671 64.0736
5829064 11.2306 8.0948 31.2241 13.5067 -8.13861 5.94918 64.0562
5829067 11.2306 8.0948 31.2241 13.5067 -8.13861 5.94918 64.0562
5829076 11.2041 8.14085 31.2438 13.6209 -8.05413 5.96165 64.2097
5829085 11.1953 8.18689 31.2536 13.7066 -7.98674 5.96294 64.3425
5829105 11.2394 8.10401 31.2831 13.7542 -8.02427 5.98641 64.3807
5829117 11.1249 8.10401 31.1552 13.897 -7.88688 6.02587 64.281
5829125 11.1249 8.10401 31.1552 13.897 -7.88688 6.02587 64.281
5829138 11.0544 8.16847 31.0075 13.9636 -7.76157 6.01651 64.194
5829145 11.0544 8.16847 31.0075 13.9636 -7.76157 6.01651 64.194
5829158 11.0368 8.15005 30.9189 14.1445 -7.65025 6.0412 64.2502
5829166 10.9487 8.26977 30.8107 14.3253 -7.44482 6.04096 64.3544
5829185 10.9575 8.26056 30.6039 14.5252 -7.29468 6.04013 64.3472
5829196 10.843 8.24215 30.3283 14.706 -7.10514 6.07051 64.1195
5829207 10.843 8.24215 30.3283 14.706 -7.10514 6.07051 64.1195
5829217 10.7725 8.42633 29.9739 15.0773 -6.70929 6.03556 64.2501
5829231 10.7725 8.42633 29.9739 15.0773 -6.70929 6.03556 64.2501
5829237 10.6668 8.45395 29.7082 15.3723 -6.44407 6.06523 64.2013
5829247 10.5876 8.56446 29.4325 15.6198 -6.16618 6.05107 64.2044
5829267 10.5788 8.71181 29.0585 15.7626 -5.91267 5.97329 64.1116
5829277 10.4907 8.75785 28.6746 16.1433 -5.56612 5.98661 64.0664
5829287 10.4907 8.75785 28.6746 16.1433 -5.56612 5.98661 64.0664
5829297 10.4554 8.97887 28.3301 16.4194 -5.21442 5.91624 64.1837
5829317 10.3674 9.07096 27.9166 16.7144 -4.87697 5.89816 64.0694
5829328 10.3321 9.21831 27.641 17.0487 -4.5556 5.86999 64.2401
5829337 10.3321 9.21831 27.641 17.0487 -4.5556 5.86999 64.2401
5829348 10.2793 9.31961 27.2079 17.341 -4.21939 5.83418 64.1477
5829357 10.1472 9.31961 26.9421 17.341 -4.08968 5.83915 63.7498
5829370 10.1472 9.39328 26.9421 17.6138 -3.93245 5.85418 64.0963
5829377 10.156 9.56826 26.5582 17.906 -3.59873 5.78142 64.1884
5829397 10.0326 9.64193 26.0857 18.208 -3.23144 5.77297 63.9683
5829413 9.92694 9.78006 25.7116 18.549 -2.85672 5.75767 63.9676
5829417 9.92694 9.78006 25.7116 18.549 -2.85672 5.75767 63.9676
5829433 9.85648 9.92741 25.3277 18.8705 -2.49535 5.72371 63.9821
5829438 9.75078 9.95504 25.0127 19.1628 -2.20946 5.74574 63.8813
5829448 9.75078 9.95504 25.0127 19.1628 -2.20946 5.74574 63.8813
5829458 9.65389 10.1576 24.5304 19.5524 -1.75063 5.69799 63.8944
5829469 9.65389 10.1576 24.5304 19.5524 -1.75063 5.69799 63.8944
5829479 9.57461 10.305 24.0185 19.9908 -1.29026 5.66524 63.889
5829489 9.41606 10.5076 23.4673 20.6046 -0.691916 5.66014 63.9955
5829499 9.41606 10.5076 23.4673 20.6046 -0.691916 5.66014 63.9955
5829509 9.2399 10.7102 22.9554 21.0527 -0.169018 5.64229 63.9582
5829519 9.11658 10.9036 22.5617 21.5009 0.283298 5.62766 64.0827
5829533 9.11658 10.9036 22.5617 21.5009 0.283298 5.62766 64.0827
5829539 9.04611 11.0417 22.1679 21.9198 0.680733 5.60959 64.1755
5829549 9.04611 11.0417 22.1679 21.9198 0.680733 5.60959 64.1755
5829559 8.89637 11.2996 21.6265 22.3971 1.23553 5.56553 64.2196
5829569 8.73782 11.5574 21.1147 22.8453 1.77037 5.52438 64.2552
5829579 8.73782 11.5574 21.1147 22.8453 1.77037 5.52438 64.2552
5829589 8.62332 11.8337 20.5536 23.3519 2.33392 5.46477 64.3624
5829603 8.62332 11.8337 20.5536 23.3519 2.33392 5.46477 64.3624
5829609 8.49119 11.9534 20.0318 23.7221 2.78528 5.44623 64.1985
5829624 8.38549 12.11 19.6676 24.0143 3.14408 5.41931 64.1774
5829629 8.38549 12.11 19.6676 24.0143 3.14408 5.41931 64.1774
5829639 8.27979 12.3402 19.1558 24.365 3.61302 5.3556 64.1408
5829650 8.16529 12.4415 18.7226 24.7547 4.02139 5.35326 64.0842
5829659 8.16529 12.4415 18.7226 24.7547 4.02139 5.35326 64.0842
5829673 7.98031 12.6625 18.26 25.1347 4.51176 5.32934 64.0375
5829679 7.98031 12.6625 18.26 25.1347 4.51176 5.32934 64.0375
5829689 7.82176 12.8191 17.8662 25.5049 4.93499 5.32641 64.0119
5829704 7.76891 13.0585 17.4233 25.8751 5.35721 5.2563 64.1258
5829710 7.76891 13.0585 17.4233 25.8751 5.35721 5.2563 64.1258
5829721 7.66321 13.1598 17.1181 26.1576 5.6694 5.25425 64.0987
5829731 7.57513 13.3164 16.8232 26.557 6.01937 5.24852 64.2718
5829743 7.57513 13.3164 16.8232 26.557 6.01937 5.24852 64.2718
5829751 7.49585 13.4453 16.4905 26.7713 6.3199 5.21488 64.203
5829761 7.49585 13.4453 16.4905 26.7713 6.3199 5.21488 64.203
5829771 7.49585 13.6018 16.1474 27.0344 6.60902 5.15346 64.2795
5829781 7.46943 13.74 15.9498 27.1513 6.79204 5.1061 64.3105
5829801 7.46943 13.786 15.8459 27.1903 6.86753 5.0817 64.2916
5829811 7.47824 13.915 15.6483 27.1415 6.98391 5.00054 64.1831
5829832 7.53109 14.0899 15.4716 27.1221 7.08925 4.89903 64.2146
5829843 7.56632 14.1452 15.3156 27.0831 7.15423 4.84023 64.1102
5829862 7.52228 14.2557 15.1284 27.239 7.34423 4.81472 64.1454
5829872 7.52228 14.2557 15.1284 27.239 7.34423 4.81472 64.1454
5829882 7.46062 14.3386 14.9205 27.3072 7.52209 4.78592 64.0268
5829893 7.45181 14.4215 14.8373 27.4533 7.6311 4.77309 64.1639
5829915 7.44301 14.4583 14.7021 27.4338 7.70917 4.73974 64.0372
5829922 7.39016 14.4583 14.6294 27.4338 7.77346 4.74438 63.9116
5829932 7.39016 14.3294 14.6294 27.4825 7.75182 4.79208 63.8314
5829943 7.39016 14.4399 14.6398 27.6092 7.81034 4.77978 64.0789
5829953 7.39016 14.4399 14.6398 27.6092 7.81034 4.77978 64.0789
5829963 7.33731 14.4122 14.6709 27.6968 7.83752 4.82356 64.1173
5829973 7.31969 14.4307 14.6294 27.7845 7.8962 4.83062 64.1642
5829983 7.31969 14.4307 14.6294 27.7845 7.8962 4.83062 64.1642
5829993 7.29326 14.357 14.6502 27.8332 7.89243 4.87259 64.1336
5830003 7.29326 14.357 14.6502 27.8332 7.89243 4.87259 64.1336
5830013 7.21399 14.2925 14.6813 27.9696 7.93626 4.94357 64.1575
5830025 7.24922 14.2741 14.7749 28.067 7.89129 4.9682 64.3653
5830033 7.24922 14.2741 14.7749 28.067 7.89129 4.9682 64.3653
5830047 7.17876 14.0991 14.8581 28.106 7.84856 5.06356 64.242
5830053 7.12591 14.0623 14.9309 28.184 7.84934 5.11484 64.303
5830068 7.12591 14.0623 14.9309 28.184 7.84934 5.11484 64.303
5830073 7.1171 13.915 15.0349 28.1742 7.75874 5.17823 64.2411
5830083 7.1171 13.915 15.0349 28.1742 7.75874 5.17823 64.2411
5830093 7.04663 13.786 15.2116 28.3106 7.70663 5.28854 64.3549
5830108 7.02902 13.6111 15.378 28.486 7.63132 5.40057 64.504
5830123 6.99378 13.3808 15.6275 28.5736 7.48468 5.53456 64.5758
5830133 6.94093 13.1874 15.8251 28.5639 7.35667 5.64049 64.5173
5830143 6.94093 13.1874 15.8251 28.5639 7.35667 5.64049 64.5173
5830155 6.91451 12.9112 16.2098 28.447 7.06931 5.77625 64.4824
5830163 6.91451 12.9112 16.2098 28.447 7.06931 5.77625 64.4824
5830176 6.98497 12.6257 16.6257 28.2521 6.69389 5.87714 64.4885
5830184 7.1171 12.4875 16.9376 28.1255 6.40131 5.90522 64.6678
5830196 7.1171 12.4875 16.9376 28.1255 6.40131 5.90522 64.6678
5830204 7.10829 12.4139 17.0197 27.9696 6.29947 5.92154 64.5115
5830218 7.13472 12.2941 17.187 27.7358 6.10249 5.94249 64.3517
5830234 7.21399 12.2481 17.4922 27.3656 5.7943 5.92252 64.3199
5830245 7.21399 12.2481 17.4922 27.3656 5.7943 5.92252 64.3199
5830255 7.28446 12.0547 17.9253 26.9272 5.36369 5.96184 64.1917
5830267 7.44301 11.9442 18.447 26.5278 4.88719 5.96336 64.362
5830275 7.44301 11.9442 18.447 26.5278 4.88719 5.96336 64.362
5830286 7.60155 11.76 18.9687 26.1089 4.38344 5.98612 64.4392
5830295 7.70725 11.6311 19.4215 25.651 3.94083 5.99298 64.4109
5830307 7.70725 11.6311 19.4215 25.651 3.94083 5.99298 64.4109
5830317 7.81295 11.5298 19.835 25.2029 3.52775 5.98669 64.3806
5830327 7.90984 11.3824 20.3173 24.7352 3.06572 6.00521 64.3448
5830338 7.90984 11.3824 20.3173 24.7352 3.06572 6.00521 64.3448
5830349 8.03316 11.1614 20.7701 24.2968 2.58903 6.03916 64.2616
5830357 8.03316 11.1614 20.7701 24.2968 2.58903 6.03916 64.2616
5830369 8.15648 10.922 21.2525 23.761 2.05723 6.0698 64.092
5830378 8.20052 10.701 21.725 23.3226 1.60211 6.13287 63.9491
5830389 8.20052 10.701 21.725 23.3226 1.60211 6.13287 63.9491
5830398 8.35907 10.5536 22.2565 22.9037 1.1088 6.14477 64.0729
5830409 8.45596 10.3694 22.8176 22.4556 0.605112 6.18917 64.0986
5830431 8.58808 10.2405 23.2803 22.0367 0.15935 6.19412 64.1455
5830438 8.58808 10.2405 23.2803 22.0367 0.15935 6.19412 64.1455
5830452 8.66736 10.0932 23.5657 21.7931 -0.13521 6.22237 64.1194
5830459 8.75544 10.0195 24.0973 21.5009 -0.517437 6.25025 64.3731
5830486 8.78187 9.88136 24.5107 21.0625 -0.914103 6.28381 64.2364
5830489 8.97565 9.76165 25.121 20.6825 -1.4148 6.2905 64.5408
5830509 9.16943 9.59588 25.6624 20.137 -1.97438 6.28069 64.5647
5830521 9.26632 9.43012 26.0266 19.5232 -2.46692 6.26964 64.2463
5830530 9.26632 9.43012 26.0266 19.5232 -2.46692 6.26964 64.2463
5830540 9.38964 9.22752 26.4302 18.89 -3.01169 6.26466 63.9374
5830551 9.38964 9.22752 26.4302 18.89 -3.01169 6.26466 63.9374
5830561 9.53938 9.07096 26.9126 18.3152 -3.55031 6.25428 63.8381
5830570 9.58342 8.84995 27.3949 17.7794 -4.06752 6.30606 63.6076
5830583 9.58342 8.84995 27.3949 17.7794 -4.06752 6.30606 63.6076
5830590 9.70674 8.75785 27.8182 17.5261 -4.40416 6.31879 63.8088
5830610 9.69793 8.61051 28.2218 17.2533 -4.72532 6.38879 63.7835
5830621 9.71554 8.56446 28.4777 17.1169 -4.89705 6.41443 63.8746
5830632 9.71554 8.56446 28.4777 17.1169 -4.89705 6.41443 63.8746
5830642 9.7772 8.54605 28.7632 16.981 -5.078 6.42001 64.0674
5830652 9.83886 8.49079 29.1274 17.0097 -5.22196 6.47019 64.4668
5830672 9.83005 8.38949 29.2652 16.9048 -5.35838 6.51126 64.3896
5830684 9.82124 8.27898 29.4621 16.9429 -5.44973 6.58197 64.5052
5830692 9.82124 8.27898 29.4621 16.9429 -5.44973 6.58197 64.5052
5830702 9.85648 8.1961 29.6393 16.7525 -5.64328 6.5962 64.4444
5830723 9.89171 8.10401 29.8263 16.6193 -5.81721 6.62227 64.4413
5830734 9.90052 8.05796 29.9739 16.5622 -5.91304 6.64652 64.4946
5830743 9.90052 8.05796 29.9739 16.5622 -5.91304 6.64652 64.4946
5830757 9.92694 8.06717 30.0822 16.4574 -5.99862 6.63503 64.5338
5830763 9.97979 7.92904 30.1905 16.2766 -6.19978 6.65426 64.3759
5830773 9.97979 7.92904 30.1905 16.2766 -6.19978 6.65426 64.3759
5830783 9.95337 8.02113 30.2988 16.1148 -6.25747 6.62524 64.3881
5830793 9.95337 8.02113 30.2988 16.1148 -6.25747 6.62524 64.3881
5830804 10.0679 7.97508 30.3677 15.8863 -6.44437 6.58143 64.297
5830813 10.1736 7.95666 30.3874 15.7436 -6.55945 6.53599 64.2612
5830823 10.1736 7.95666 30.3874 15.7436 -6.55945 6.53599 64.2612
5830833 10.2 7.93824 30.6039 15.5246 -6.74573 6.533 64.2668
5830845 10.2 7.93824 30.6039 15.5246 -6.74573 6.533 64.2668
5830853 10.3321 7.8922 30.7221 15.2772 -6.96194 6.48708 64.2235
5830869 10.4466 7.8922 30.8599 15.1249 -7.10838 6.44691 64.3236
5830873 10.4466 7.8922 30.8599 15.1249 -7.10838 6.44691 64.3236
5830883 10.5699 7.84615 31.0075 14.9155 -7.31121 6.41295 64.3391
5830893 10.6316 7.88299 31.2241 14.6489 -7.5029 6.37353 64.3876
5830904 10.6316 7.88299 31.2241 14.6489 -7.5029 6.37353 64.3876
5830913 10.7725 7.82774 31.3127 14.43 -7.70382 6.3276 64.343
5830923 10.7725 7.82774 31.3127 14.43 -7.70382 6.3276 64.343
5830934 10.8606 7.80932 31.3127 14.2492 -7.829 6.28005 64.2318
5830943 11.0016 7.83694 31.1847 14.0588 -7.91585 6.18075 64.082
5830969 11.1425 7.98429 31.1257 13.8875 -7.94996 6.05388 64.1399
5830978 11.2482 7.94745 31.1355 13.8779 -8.00443 6.03134 64.2091
5830987 11.2482 7.94745 31.1355 13.8779 -8.00443 6.03134 64.2091
5830994 11.3979 7.95666 30.9583 13.6971 -8.08565 5.92895 64.01
5831005 11.3979 7.95666 30.9583 13.6971 -8.08565 5.92895 64.01
5831014 11.5124 8.10401 30.85 13.6781 -8.02111 5.82551 64.1445
5831024 11.6181 8.15005 30.6925 13.6971 -7.9739 5.75645 64.1578
5831034 11.6181 8.15005 30.6925 13.6971 -7.9739 5.75645 64.1578
5831044 11.6446 8.21452 30.5252 13.6209 -7.94244 5.69182 64.0052
5831054 11.7326 8.27898 30.3578 13.6685 -7.86368 5.62512 64.038
5831074 11.8119 8.41712 30.3185 13.7256 -7.77449 5.55794 64.2731
5831094 11.8119 8.48158 30.1019 13.8779 -7.60592 5.52788 64.2733
5831104 11.7503 8.55525 29.9543 13.9446 -7.47796 5.51208 64.2043
5831124 11.7591 8.62893 29.7082 14.0302 -7.33242 5.46196 64.1264
5831134 11.6886 8.74865 29.4129 14.2301 -7.07031 5.43203 64.0802
5831144 11.6886 8.74865 29.4129 14.2301 -7.07031 5.43203 64.0802
5831154 11.6534 8.8039 29.029 14.4681 -6.80577 5.4038 63.9543
5831176 11.5477 8.88678 28.8124 14.6775 -6.56862 5.41001 63.9243
5831184 11.4596 9.04334 28.6057 15.0297 -6.2335 5.40997 64.1383
5831206 11.3539 9.18147 28.2119 15.3057 -5.88522 5.38201 64.053
5831219 11.3715 9.29198 27.9757 15.4866 -5.67972 5.33298 64.1257
5831225 11.3715 9.29198 27.9757 15.4866 -5.67972 5.33298 64.1257
5831235 11.2482 9.34724 27.7197 15.8007 -5.38869 5.36334 64.1158
5831255 11.1337 9.43012 27.3358 16.1243 -5.04307 5.36433 64.0239
5831267 11.0368 9.57747 27.0996 16.505 -4.6925 5.37 64.2189
5831287 10.9487 9.62351 26.8043 16.8096 -4.40899 5.38474 64.1861
5831297 10.7549 9.67877 26.5188 17.1169 -4.08856 5.43209 64.0694
5831317 10.614 9.84453 26.1546 17.5066 -3.67183 5.42797 64.1197
5831330 10.614 9.84453 26.1546 17.5066 -3.67183 5.42797 64.1197
5831337 10.4554 9.89057 25.7904 17.8378 -3.32846 5.45896 63.9742
5831351 10.3938 10.0287 25.3573 18.247 -2.91884 5.43095 64.0268
5831357 10.3938 10.0287 25.3573 18.247 -2.91884 5.43095 64.0268
5831367 10.1207 10.0655 25.0521 18.6172 -2.54093 5.51628 63.8556
5831377 10.0767 10.2497 24.5599 19.0069 -2.10508 5.45607 63.8932
5831387 10.0767 10.2497 24.5599 19.0069 -2.10508 5.45607 63.8932
5831397 9.92694 10.3879 24.176 19.4355 -1.67364 5.46646 63.9264
5831407 9.92694 10.3879 24.176 19.4355 -1.67364 5.46646 63.9264
5831419 9.78601 10.4523 23.7429 19.8057 -1.28195 5.4816 63.787
5831428 9.63627 10.6273 23.3984 20.2149 -0.858074 5.48314 63.8768
5831440 9.63627 10.6273 23.3984 20.2149 -0.858074 5.48314 63.8768
5831448 9.55699 10.7378 23.0735 20.5656 -0.518934 5.47698 63.934
5831463 9.44249 10.8944 22.5912 20.965 -0.0681892 5.45115 63.8931
5831468 9.44249 10.8944 22.5912 20.965 -0.0681892 5.45115 63.8931
5831496 9.36321 11.097 22.1187 21.3645 0.382966 5.40079 63.9434
5831497 9.36321 11.097 22.1187 21.3645 0.382966 5.40079 63.9434
5831498 9.21347 11.2904 21.597 21.8711 0.918743 5.3846 63.9719
5831508 9.0285 11.4653 21.0851 22.3777 1.45777 5.387 63.9566
5831529 8.95803 11.6311 20.7603 22.7284 1.81075 5.36056 64.0778
5831541 8.86114 11.8245 20.524 23.0791 2.14594 5.34716 64.2887
5831549 8.86114 11.8245 20.524 23.0791 2.14594 5.34716 64.2887
5831559 8.74663 11.8982 20.0811 23.4103 2.52618 5.3433 64.1362
5831570 8.74663 11.8982 19.6972 23.4103 2.69193 5.28515 63.7523
5831581 8.64093 12.0823 19.6972 23.7221 2.91005 5.30755 64.1425
5831592 8.5 12.3034 19.2345 24.1507 3.39607 5.27707 64.1886
5831606 8.5 12.3034 19.2345 24.1507 3.39607 5.27707 64.1886
5831615 8.42073 12.4415 18.6439 24.5696 3.88076 5.23239 64.0757
5831623 8.2886 12.6165 18.1714 24.9496 4.33654 5.20473 64.026
5831631 8.2886 12.6165 18.1714 24.9496 4.33654 5.20473 64.026
5831641 8.17409 12.7454 17.817 25.2711 4.69685 5.19515 64.0076
5831650 10.3497 12.7454 17.6005 25.2711 3.8149 4.49691 65.9667
5831660 8.09482 12.8743 17.6005 25.5438 4.96108 5.18811 64.1134
5831670 8.0772 13.0677 17.3052 25.7971 5.24633 5.12646 64.2472
5831683 8.0772 13.0677 17.3052 25.7971 5.24633 5.12646 64.2472
5831691 8.02435 13.1506 17.0098 25.992 5.4959 5.10158 64.1768
5831705 7.98031 13.2519 16.6985 26.1868 5.75503 5.06564 64.1175
5831722 7.87461 13.4361 16.3969 26.4206 6.07577 5.03059 64.1283
5831732 7.87461 13.4361 16.137 26.4206 6.20225 4.99002 63.8683
5831743 7.80414 13.5374 16.137 26.635 6.32908 5.01387 64.1135
5831752 7.79534 13.6111 15.8563 26.7713 6.53199 4.97108 64.034
5831774 7.69845 13.7124 15.7523 26.937 6.70771 4.97935 64.1001
5831782 7.71606 13.74 15.6587 26.9857 6.76706 4.95824 64.1004
5831797 7.71606 13.74 15.6587 26.9857 6.76706 4.95824 64.1004
5831803 7.74249 13.8229 15.5339 27.0734 6.86421 4.91844 64.1726
5831813 7.74249 13.9057 15.3884 27.1805 6.99011 4.8867 64.2171
5831823 7.74249 13.9057 15.3884 27.1805 6.99011 4.8867 64.2171
5831833 7.73368 13.9426 15.17 27.2682 7.13842 4.8574 64.1145
5831853 7.67202 13.961 15.0765 27.3754 7.25128 4.87295 64.0848
5831865 7.61036 14.1544 14.8581 27.4533 7.46737 4.8099 64.0761
5831873 7.61036 14.1544 14.8581 27.4533 7.46737 4.8099 64.0761
5831888 7.6544 14.2189 14.7853 27.4436 7.4969 4.76325 64.1021
5831893 7.60155 14.2189 14.6502 27.4923 7.60575 4.76574 63.9628
5831903 7.60155 14.2096 14.6502 27.4923 7.60324 4.76859 63.9536
5831913 7.66321 14.2649 14.6294 27.5605 7.61596 4.7401 64.1179
5831924 7.66321 14.2649 14.6294 27.5605 7.61596 4.7401 64.1179
5831934 7.56632 14.2833 14.515 27.5605 7.72876 4.74598 63.9251
5831947 7.50466 14.3294 14.4526 27.6871 7.83885 4.7611 63.9737
5831956 7.50466 14.3294 14.4526 27.6871 7.83885 4.7611 63.9737
5831964 7.50466 14.4215 14.3694 27.7358 7.91924 4.72717 64.0313
5831974 7.51347 14.3938 14.3278 27.6871 7.91573 4.71846 63.9222
5831996 7.50466 14.4767 14.3486 27.7261 7.94206 4.70525 64.0561
5832006 7.50466 14.4767 14.3486 27.7261 7.94206 4.70525 64.0561
5832016 7.56632 14.5043 14.3174 27.6774 7.92078 4.66495 64.0655
5832026 7.5399 14.5135 14.4006 27.7748 7.92005 4.69928 64.2288
5832049 7.51347 14.578 14.2758 27.7943 8.01997 4.6707 64.1616
5832057 7.49585 14.5504 14.1927 27.7845 8.06205 4.66961 64.0234
5832066 7.49585 14.5504 14.1927 27.7845 8.06205 4.66961 64.0234
5832075 7.46943 14.6609 14.2239 27.8527 8.10673 4.65984 64.2069
5832085 7.46943 14.6609 14.2239 27.8527 8.10673 4.65984 64.2069
5832100 7.45181 14.6056 14.2031 27.7261 8.07858 4.6584 63.9866
5832107 7.46943 14.6425 14.2239 27.6384 8.04527 4.63086 63.9742
5832118 7.46943 14.6425 14.2239 27.6384 8.04527 4.63086 63.9742
5832127 7.45181 14.6333 14.2135 27.6287 8.05473 4.63583 63.9272
5832138 7.55751 14.6333 14.2862 27.5117 7.93157 4.59625 63.9888
5832163 7.61036 14.7438 14.3486 27.3656 7.86285 4.53268 64.0684
5832168 7.59275 14.7438 14.463 27.239 7.7793 4.53605 64.0385
5832180 7.59275 14.7254 14.463 27.239 7.77435 4.54167 64.0201
5832188 7.66321 14.7346 14.6398 27.1026 7.61387 4.52398 64.1401
5832198 7.66321 14.7346 14.6398 27.1026 7.61387 4.52398 64.1401
5832208 7.74249 14.6885 14.8373 26.7226 7.35704 4.48398 63.9909
5832219 7.82176 14.5504 15.1804 26.4011 7.01653 4.50547 63.9537
5832228 7.82176 14.5504 15.1804 26.4011 7.01653 4.50547 63.9537
5832238 8.01554 14.4675 15.5028 26.0602 6.63952 4.46864 64.046
5832248 8.01554 14.4675 15.5028 26.0602 6.63952 4.46864 64.046
5832259 8.02435 14.4122 15.9291 25.7484 6.3197 4.50156 64.1141
5832270 8.14767 14.2465 16.2826 25.3782 5.93025 4.51175 64.0549
5832289 8.21813 14.0163 16.6777 25.047 5.5377 4.57096 63.9591
5832299 8.35026 13.915 17.2362 24.5989 5.04182 4.57952 64.1003
5832311 8.35026 13.915 17.2362 24.5989 5.04182 4.57952 64.1003
5832319 8.50881 13.7031 17.6792 24.1799 4.56332 4.5997 64.0711
5832334 8.50881 13.7031 17.6792 24.1799 4.56332 4.5997 64.0711
5832339 8.63212 13.5005 18.0926 23.7513 4.11364 4.62152 63.9766
5832349 8.61451 13.2611 18.5651 23.4006 3.71312 4.72032 63.8413
5832359 8.61451 13.2611 18.5651 23.4006 3.71312 4.72032 63.8413
5832371 8.69378 13.1138 18.8998 23.0986 3.37692 4.74662 63.8059
5832379 8.79948 12.8467 19.4314 22.8063 2.90454 4.83491 63.8839
5832389 8.79948 12.8467 19.4314 22.8063 2.90454 4.83491 63.8839
5832403 8.9228 12.6257 19.9925 22.5628 2.44649 4.91549 64.1037
5832409 8.9228 12.6257 19.9925 22.5628 2.44649 4.91549 64.1037
5832419 8.94922 12.3678 20.4847 22.2607 2.0272 5.01737 64.0624
5832429 9.04611 12.156 21.1245 21.949 1.53029 5.10412 64.2756
5832439 9.04611 12.156 21.1245 21.949 1.53029 5.10412 64.2756
5832451 9.19586 11.7692 21.6954 21.5788 0.956091 5.20923 64.2393
5832459 9.2399 11.539 22.4042 21.0819 0.380021 5.30006 64.265
5832473 9.2399 11.539 22.4042 21.0819 0.380021 5.30006 64.265
5832479 9.31917 11.2627 23.0243 20.7215 -0.139627 5.40138 64.3277
5832489 9.31917 11.2627 23.0243 20.7215 -0.139627 5.40138 64.3277
5832499 9.40725 10.8483 23.674 20.3123 -0.747415 5.54095 64.2419
5832520 9.57461 10.6089 24.304 19.9226 -1.29913 5.59923 64.4101
5832530 9.60984 10.3879 24.747 19.494 -1.74154 5.6609 64.2387
5832543 9.62746 10.0287 25.2588 19.0848 -2.25499 5.78614 63.9998
5832560 9.79482 9.77086 25.9774 18.5393 -2.91114 5.84038 64.0823
5832570 9.79482 9.77086 25.9774 18.5393 -2.91114 5.84038 64.0823
5832582 9.83886 9.513 26.696 17.984 -3.52868 5.93332 64.0318
5832590 9.89171 9.26436 27.2965 17.4968 -4.07626 6.01349 63.9494
5832601 9.89171 9.26436 27.2965 17.4968 -4.07626 6.01349 63.9494
5832614 9.99741 9.08938 27.8083 17.0292 -4.57069 6.04248 63.9244
5832622 10.1383 8.95125 28.1627 16.7335 -4.92935 6.04977 63.9858
5832637 10.1383 8.95125 28.1627 16.7335 -4.92935 6.04977 63.9858
5832643 10.1648 8.77627 28.4974 16.4765 -5.24502 6.10957 63.9149
5832653 10.2088 8.73023 28.8222 16.229 -5.49764 6.12098 63.9903
5832663 10.2088 8.73023 28.8222 16.229 -5.49764 6.12098 63.9903
5832673 10.3057 8.56446 29.2455 16.0006 -5.84337 6.17064 64.1162
5832684 10.3057 8.56446 29.2455 16.0006 -5.84337 6.17064 64.1162
5832693 10.3762 8.46316 29.5605 15.715 -6.14464 6.18488 64.1148
5832707 10.3938 8.37107 29.7968 15.6008 -6.31939 6.22624 64.1624
5832719 10.3938 8.37107 29.7968 15.6008 -6.31939 6.22624 64.1624
5832723 10.4642 8.36186 30.1019 15.3914 -6.53493 6.21908 64.3194
5832733 10.4554 8.25135 30.2988 15.2581 -6.70859 6.26717 64.2637
5832743 10.4554 8.25135 30.2988 15.2581 -6.70859 6.26717 64.2637
5832754 10.4907 8.22373 30.4661 15.2391 -6.78908 6.28476 64.4196
5832764 10.4907 8.22373 30.4661 15.2391 -6.78908 6.28476 64.4196
5832777 10.429 8.17768 30.6236 15.201 -6.85767 6.3365 64.4313
5832785 10.4466 8.06717 30.7516 15.0773 -7.0147 6.36787 64.3427
5832794 10.4466 8.06717 30.7516 15.0773 -7.0147 6.36787 64.3427
5832804 10.4642 8.03955 30.7614 15.0392 -7.05509 6.36741 64.3044
5832814 10.4642 8.03955 30.8402 14.9821 -7.10552 6.37031 64.3261
5832824 10.4642 8.03955 30.8402 14.9821 -7.10552 6.37031 64.3261
5832836 10.4731 8.02113 30.9682 15.0297 -7.12895 6.39699 64.492
5832845 10.4731 8.02113 30.9682 15.0297 -7.12895 6.39699 64.492
5832856 10.4907 7.92904 31.106 14.7632 -7.35137 6.40455 64.2888
5832868 10.4907 7.88299 31.2831 14.7346 -7.43742 6.4397 64.3914
5832893 10.4819 7.80932 31.5194 14.6585 -7.57476 6.48839 64.469
5832902 10.5259 7.84615 31.5981 14.5252 -7.65663 6.45425 64.4954
5832912 10.5259 7.84615 31.5981 14.5252 -7.65663 6.45425 64.4954
5832917 10.5259 7.73564 31.5981 14.449 -7.75142 6.48099 64.3087
5832928 10.5259 7.73564 31.6375 14.449 -7.76197 6.48621 64.3481
5832937 10.5347 7.80011 31.6375 14.4205 -7.74606 6.45798 64.3928
5832947 10.5964 7.77248 31.6769 14.2777 -7.85991 6.4329 64.3235
5832967 10.5964 7.73564 31.7655 14.192 -7.94615 6.44557 64.2896
5832978 10.6052 7.72644 31.7753 14.1635 -7.97045 6.44321 64.2704
5832989 10.6052 7.72644 31.7753 14.1635 -7.97045 6.44321 64.2704
5833003 10.6668 7.66197 31.8246 14.1825 -8.02308 6.45323 64.3359
5833008 10.6316 7.66197 31.8541 14.1349 -8.04603 6.46258 64.2826
5833018 10.6316 7.66197 31.8541 14.1349 -8.04603 6.46258 64.2826
5833028 10.6668 7.6896 31.8049 14.2396 -7.97444 6.44899 64.4009
5833050 10.6228 7.67118 31.8049 14.1349 -8.02597 6.45591 64.2338
5833058 10.6228 7.67118 31.8541 14.2111 -7.99988 6.47255 64.3591
5833073 10.6228 7.67118 31.8541 14.2111 -7.99988 6.47255 64.3591
5833078 10.6228 7.75406 31.7163 14.2968 -7.87711 6.43801 64.3899
5833088 10.5876 7.6896 31.6474 14.3634 -7.84827 6.47095 64.2879
5833101 10.5876 7.6896 31.6474 14.3634 -7.84827 6.47095 64.2879
5833108 10.5347 7.78169 31.5292 14.4681 -7.70216 6.45607 64.3137
5833120 10.5347 7.78169 31.5292 14.4681 -7.70216 6.45607 64.3137
5833128 10.5347 7.77248 31.3816 14.5823 -7.60899 6.4547 64.2711
5833142 10.4995 7.84615 31.3422 14.8108 -7.43613 6.46696 64.4986
5833149 10.4995 7.84615 31.3422 14.8108 -7.43613 6.46696 64.4986
5833164 10.4995 7.87378 31.1453 14.9916 -7.2777 6.45565 64.5102
5833169 10.4466 8.02113 30.85 15.0868 -7.06035 6.39762 64.4046
5833179 10.4466 8.02113 30.85 15.0868 -7.06035 6.39762 64.4046
5833190 10.3585 7.98429 30.535 15.3438 -6.83784 6.43147 64.2217
5833201 10.3585 7.98429 30.535 15.3438 -6.83784 6.43147 64.2217
5833211 10.2528 8.05796 30.3086 15.5627 -6.59872 6.44117 64.1822
5833220 10.2352 8.17768 30.0133 15.8387 -6.31453 6.40453 64.265
5833233 10.2352 8.17768 30.0133 15.8387 -6.31453 6.40453 64.265
5833240 10.1031 8.26977 29.8066 16.0482 -6.06895 6.41824 64.2276
5833256 10.0326 8.26977 29.4818 16.3147 -5.82302 6.43397 64.0988
5833261 10.0326 8.26977 29.4818 16.3147 -5.82302 6.43397 64.0988
5833271 9.90052 8.38949 29.2258 16.5431 -5.53932 6.43445 64.0589
5833281 9.90052 8.38949 29.2258 16.5431 -5.53932 6.43445 64.0589
5833291 9.78601 8.3987 28.9502 16.8572 -5.26638 6.47487 63.9921
5833301 9.7772 8.54605 28.7927 17.1656 -5.00075 6.4486 64.2816
5833323 9.71554 8.66576 28.5663 17.4871 -4.70592 6.44189 64.4347
5833330 9.60984 8.68418 28.271 17.7794 -4.43601 6.47057 64.3444
5833347 9.60984 8.68418 28.271 17.7794 -4.43601 6.47057 64.3444
5833352 9.58342 8.85915 28.0249 18.0521 -4.14487 6.42467 64.5196
5833362 9.58342 8.85915 28.0249 18.0521 -4.14487 6.42467 64.5196
5833372 9.42487 8.88678 27.6705 18.2372 -3.88176 6.44574 64.2194
5833382 9.39845 9.07096 27.2177 18.6075 -3.47531 6.38213 64.2946
5833392 9.39845 9.07096 27.2177 18.6075 -3.47531 6.38213 64.2946
5833402 9.2487 9.24594 26.696 19.0458 -2.97842 6.36255 64.2365
5833414 9.06373 9.29198 26.1644 19.5135 -2.50756 6.40028 64.0336
5833422 9.06373 9.29198 26.1644 19.5135 -2.50756 6.40028 64.0336
5833432 8.9228 9.56826 25.6132 19.9226 -1.96992 6.33596 64.0269
5833452 8.85233 9.66035 25.1702 20.3708 -1.55785 6.32946 64.0537
5833462 8.66736 9.74323 24.6682 20.7702 -1.10501 6.34963 63.849
5833472 8.66736 9.74323 24.6682 20.7702 -1.10501 6.34963 63.849
5833485 8.53523 9.93662 24.1367 21.3547 -0.539583 6.33634 63.9632
5833492 8.34145 10.0011 23.5854 21.9295 0.00146329 6.38274 63.8575
5833508 8.34145 10.0011 23.5854 21.9295 0.00146329 6.38274 63.8575
5833520 8.24456 10.2405 22.9948 22.553 0.606787 6.33957 64.0329
5833541 8.24456 10.2405 22.9948 22.553 0.606787 6.33957 64.0329
5833542 8.04197 10.4155 22.4632 23.1765 1.20395 6.36118 64.0972
5833543 7.83938 10.5168 21.9415 23.761 1.75501 6.40343 64.0587
5833559 7.83938 10.5168 21.9415 23.761 1.75501 6.40343 64.0587
5833564 7.73368 10.7562 21.5182 24.2968 2.25533 6.37396 64.305
5833578 7.61036 10.8944 21.0457 24.8521 2.75238 6.38014 64.4026
5833584 7.61036 10.8944 21.0457 24.8521 2.75238 6.38014 64.4026
5833594 7.46943 11.1062 20.6126 25.31 3.23038 6.35995 64.4983
5833604 7.46943 11.1062 20.6126 25.31 3.23038 6.35995 64.4983
5833614 7.33731 11.2259 20.0909 25.7484 3.70564 6.35289 64.4025
5833624 7.24922 11.3917 19.5397 26.2355 4.20637 6.31853 64.4161
5833634 7.24922 11.3917 19.5397 26.2355 4.20637 6.31853 64.4161
5833646 7.16114 11.5666 19.1065 26.6252 4.62467 6.28394 64.4595
5833654 7.02902 11.7048 18.7423 26.9564 5.00131 6.27749 64.4326
5833670 7.02902 11.7048 18.7423 26.9564 5.00131 6.27749 64.4326
5833674 6.97617 11.8705 18.5455 27.2585 5.26189 6.25452 64.6506
5833684 6.97617 11.8705 18.5455 27.2585 5.26189 6.25452 64.6506
5833694 6.86166 11.8797 18.2305 27.502 5.54086 6.27954 64.4739
5833704 6.87047 12.0639 17.817 27.804 5.87884 6.20087 64.5554
5833718 6.87047 12.0639 17.817 27.804 5.87884 6.20087 64.5554
5833727 6.74715 12.2665 17.3544 28.0768 6.30066 6.14886 64.4448
5833743 6.71192 12.4047 16.9896 28.184 6.56675 6.07955 64.2901
5833745 6.71192 12.4047 16.9896 28.184 6.56675 6.07955 64.2901
5833755 6.72953 12.5981 16.6569 28.3398 6.82147 5.98587 64.3243
5833767 6.72953 12.5981 16.6569 28.3398 6.82147 5.98587 64.3243
5833775 6.68549 12.7178 16.3969 28.4567 7.03895 5.94109 64.2569
5833789 6.65907 12.9572 16.1474 28.5347 7.26512 5.84754 64.2983
5833806 6.6943 13.123 15.8563 28.6613 7.47407 5.75901 64.3349
5833816 6.68549 13.2795 15.5547 28.8659 7.72889 5.69746 64.3857
5833833 6.68549 13.2795 15.5547 28.8659 7.72889 5.69746 64.3857
5833837 6.56218 13.4729 15.3156 29.0607 8.01716 5.66854 64.4114
5833847 6.56218 13.4729 15.3156 29.0607 8.01716 5.66854 64.4114
5833857 6.53575 13.5282 14.9933 29.1777 8.24194 5.62942 64.2348
5833867 6.49171 13.6111 14.8477 29.3043 8.39468 5.61419 64.2548
5833877 6.49171 13.6111 14.8477 29.3043 8.39468 5.61419 64.2548
5833887 6.47409 13.6939 14.7437 29.2361 8.46178 5.56803 64.1479
5833900 6.50052 13.7768 14.6502 29.3433 8.54565 5.53504 64.2708
5833917 6.50052 13.8873 14.5254 29.3822 8.649 5.48712 64.2955
5833927 6.50052 13.8873 14.5254 29.3822 8.649 5.48712 64.2955
5833938 6.4829 13.915 14.359 29.4602 8.77228 5.47082 64.217
5833948 6.45648 14.0531 14.2239 29.5771 8.9215 5.43256 64.3105
5833958 6.45648 14.0531 14.2239 29.5771 8.9215 5.43256 64.3105
5833968 6.40363 14.1176 14.0887 29.5868 9.03943 5.41017 64.1967
5833978 6.39482 14.1083 14.0575 29.6355 9.07046 5.41851 64.1962
5833990 6.39482 14.1083 14.0575 29.6355 9.07046 5.41851 64.1962
5833999 6.41244 14.1083 14.0367 29.7135 9.09147 5.42144 64.2709
5834012 6.3772 14.1083 13.9327 29.8499 9.19907 5.43746 64.2681
5834019 6.3772 14.0899 13.9327 29.8499 9.19454 5.44332 64.2497
5834029 6.29793 14.0991 14.0263 29.9668 9.2179 5.49681 64.3901
5834041 6.29793 14.0991 14.0263 29.9668 9.2179 5.49681 64.3901
5834049 6.29793 14.0255 14.0991 30.0739 9.18748 5.54673 64.4964
5834059 6.26269 13.9702 14.1823 30.1908 9.1772 5.60479 64.606
5834069 6.26269 13.9702 14.1823 30.1908 9.1772 5.60479 64.606
5834081 6.24508 13.9057 14.2031 30.1616 9.15253 5.62977 64.5155
5834091 6.20104 13.7584 14.307 30.0057 9.04593 5.68364 64.2722
5834102 6.20104 13.7584 14.307 30.0057 9.04593 5.68364 64.2722
5834111 6.24508 13.7031 14.567 29.8499 8.8328 5.7023 64.3651
5834127 6.24508 13.7031 14.567 29.8499 8.8328 5.7023 64.3651
5834131 6.23627 13.565 14.7541 29.655 8.65499 5.74857 64.2104
5834141 6.36839 13.4729 14.9725 29.5673 8.42614 5.75444 64.3811
5834162 6.36839 13.2887 15.17 29.3628 8.22289 5.81298 64.1899
5834176 6.39482 13.0769 15.5651 29.1971 7.90629 5.90587 64.234
5834180 6.39482 13.0769 15.5651 29.1971 7.90629 5.90587 64.234
5834191 6.47409 12.9572 15.9394 28.9341 7.57243 5.93476 64.3048
5834202 6.47409 12.9572 15.9394 28.9341 7.57243 5.93476 64.3048
5834212 6.50933 12.7546 16.4073 28.6905 7.197 6.0208 64.3618
5834227 6.70311 12.5888 17.0295 28.2716 6.62913 6.03994 64.5931
5834243 6.82643 12.4231 17.3052 28.0086 6.31167 6.05551 64.5633
5834252 6.86166 12.1744 17.7087 27.7358 5.94746 6.14335 64.4807
5834263 6.86166 12.1744 17.7087 27.7358 5.94746 6.14335 64.4807
5834276 6.96736 12.0547 18.1419 27.3072 5.52676 6.14856 64.4711
5834283 6.96736 12.0547 18.1419 27.3072 5.52676 6.14856 64.4711
5834293 6.99378 11.8061 18.5553 26.9662 5.1395 6.2316 64.3213
5834303 7.14352 11.5666 19.2247 26.4401 4.51983 6.28069 64.3749
5834327 7.25803 11.4101 19.7169 25.8556 4.00479 6.28209 64.2405
5834333 7.36373 11.1522 20.2779 25.4464 3.48573 6.35311 64.2403
5834352 7.36373 11.1522 20.2779 25.4464 3.48573 6.35311 64.2403
5834356 7.52228 10.9772 20.8095 24.9788 2.9649 6.36717 64.2878
5834364 7.52228 10.9772 20.8095 24.9788 2.9649 6.36717 64.2878
5834377 7.60155 10.7654 21.3903 24.5404 2.45499 6.43033 64.2977
5834384 7.74249 10.6089 22.0498 24.0143 1.87491 6.45328 64.4155
5834406 7.83938 10.3787 22.5715 23.498 1.34776 6.49849 64.2875
5834415 7.96269 10.2313 23.2113 23.0304 0.80997 6.52923 64.4357
5834437 8.03316 10.0103 23.6346 22.5628 0.35229 6.57384 64.2408
5834451 8.13005 9.89057 24.1465 22.1633 -0.0865251 6.59622 64.3304
5834457 8.13005 9.89057 24.1465 22.1633 -0.0865251 6.59622 64.3304
5834468 8.27979 9.7156 24.6584 21.6372 -0.616461 6.60284 64.291
5834477 8.35907 9.55905 25.2785 21.0527 -1.17737 6.63348 64.2494
5834487 8.35907 9.55905 25.2785 21.0527 -1.17737 6.63348 64.2494
5834501 8.56166 9.21831 26.0069 20.5754 -1.85471 6.71255 64.3623
5834508 8.56166 9.21831 26.0069 20.5754 -1.85471 6.71255 64.3623
5834518 8.68497 9.08938 26.6074 19.8837 -2.4583 6.70268 64.2654
5834530 8.74663 8.96966 27.0701 19.3479 -2.92324 6.71286 64.1342
5834538 8.74663 8.96966 27.0701 19.3479 -2.92324 6.71286 64.1342
5834551 8.9228 8.8039 27.7001 18.7438 -3.53554 6.7127 64.1706
5834561 8.9228 8.8039 27.7001 18.7438 -3.53554 6.7127 64.1706
5834568 9.04611 8.61972 28.2808 18.208 -4.09136 6.73911 64.1547
5834578 9.16943 8.42633 28.901 17.7501 -4.62822 6.78368 64.2469
5834588 9.16943 8.42633 28.901 17.7501 -4.62822 6.78368 64.2469
5834598 9.30155 8.24215 29.275 17.263 -5.09951 6.78688 64.0818
5834609 9.36321 8.14085 29.7771 17.0487 -5.42156 6.83704 64.3298
5834621 9.36321 8.14085 29.7771 17.0487 -5.42156 6.83704 64.3298
5834629 9.46891 7.97508 30.2003 16.7811 -5.78696 6.87712 64.4254
5834643 9.39845 7.97508 30.5744 16.7811 -5.87708 6.94788 64.729
5834649 9.39845 7.85536 30.5744 16.6478 -5.99823 6.97199 64.476
5834659 9.41606 7.77248 30.978 16.3623 -6.29925 7.00889 64.5288
5834679 9.32798 7.64355 31.1847 16.2195 -6.46581 7.09103 64.3757
5834690 9.37202 7.54225 31.4899 16.1243 -6.66192 7.13636 64.5284
5834699 9.37202 7.54225 31.4899 16.1243 -6.66192 7.13636 64.5284
5834713 9.37202 7.43174 31.8541 16.0767 -6.84242 7.21262 64.7346
5834719 9.37202 7.43174 31.8541 16.0767 -6.84242 7.21262 64.7346
5834729 9.33679 7.31203 32.1986 15.8102 -7.11949 7.27524 64.6576
5834739 9.33679 7.17389 32.4447 15.6674 -7.32721 7.33521 64.6228
5834759 9.29275 7.06338 32.7597 15.4866 -7.54713 7.40455 64.6024
5834769 9.28394 6.96208 33.0648 15.2867 -7.77895 7.45512 64.5975
5834789 9.2399 6.89762 33.3109 15.2105 -7.90404 7.51264 64.659
5834799 9.2399 6.89762 33.3109 15.2105 -7.90404 7.51264 64.659
5834809 9.16943 6.84236 33.5275 15.0773 -8.03869 7.56609 64.6166
5834828 9.16062 6.79632 33.7441 14.9059 -8.2044 7.59045 64.6069
5834840 9.1342 6.7779 33.8425 14.7822 -8.29628 7.60325 64.5368
5834851 9.16062 6.68581 33.9508 14.6299 -8.4575 7.62123 64.4271
5834861 9.16062 6.68581 33.9508 14.6299 -8.4575 7.62123 64.4271
5834874 9.2399 6.66739 33.9409 14.5252 -8.53934 7.58671 64.3734
5834883 9.2399 6.66739 33.9409 14.5252 -8.53934 7.58671 64.3734
5834892 9.26632 6.71343 34 14.4395 -8.58181 7.55825 64.4193
5834902 9.38083 6.65818 34 14.4871 -8.61493 7.54302 64.5261
5834912 9.38083 6.65818 34 14.4871 -8.61493 7.54302 64.5261
5834922 9.3544 6.71343 34 14.4871 -8.57945 7.53295 64.555
5834932 9.39845 6.70423 34 14.4681 -8.60534 7.51859 64.5708
5834943 9.39845 6.70423 34 14.4681 -8.60534 7.51859 64.5708
5834952 9.42487 6.75027 34 14.3348 -8.65749 7.47784 64.51
5834968 9.42487 6.75027 34 14.3348 -8.65749 7.47784 64.51
5834975 9.33679 6.63976 34 14.2111 -8.7579 7.53288 64.1876
5834982 9.39845 6.70423 34 14.2492 -8.71967 7.49314 64.3518
5834993 9.39845 6.70423 34 14.2492 -8.71967 7.49314 64.3518
5835002 9.33679 6.66739 34 14.2587 -8.71838 7.52873 64.2629
5835015 9.38964 6.75948 33.9212 14.3253 -8.62872 7.47661 64.3957
5835036 9.46891 6.82394 33.8228 14.3443 -8.58029 7.41723 64.46
5835043 9.39845 6.84236 33.6259 14.5157 -8.41314 7.43234 64.3824
5835053 9.39845 6.84236 33.6259 14.5157 -8.41314 7.43234 64.3824
5835063 9.46891 6.92524 33.498 14.687 -8.26685 7.38416 64.5791
5835083 9.46891 7.02654 33.2125 14.8488 -8.05727 7.33444 64.5568
5835094 9.45129 7.1831 32.8778 14.9821 -7.81617 7.26239 64.4943
5835132 9.42487 7.45937 32.051 15.4295 -7.21942 7.13035 64.3647
5835137 9.42487 7.45937 32.051 15.4295 -7.21942 7.13035 64.3647
5835146 9.41606 7.5883 31.608 15.7245 -6.88222 7.07094 64.3369
5835178 9.3544 7.69881 31.165 16.0196 -6.5386 7.0359 64.2378
5835190 9.30155 7.91062 30.6138 16.3242 -6.11087 6.95068 64.1501
5835192 9.30155 7.91062 30.6138 16.3242 -6.11087 6.95068 64.1501
5835194 9.31917 8.17768 30.1511 16.6764 -5.68068 6.8397 64.3244
5835204 9.30155 8.38949 29.5999 17.0097 -5.24964 6.7461 64.3007
5835225 9.28394 8.57367 29.1963 17.2923 -4.90095 6.67428 64.3462
5835235 9.28394 8.57367 29.1963 17.2923 -4.90095 6.67428 64.3462
5835245 9.18705 8.77627 28.6844 17.5845 -4.4801 6.61014 64.2323
5835257 9.12539 8.92362 28.084 17.9255 -4.04327 6.54725 64.0585
5835267 9.12539 8.92362 28.084 17.9255 -4.04327 6.54725 64.0585
5835277 9.07254 9.18147 27.454 18.3542 -3.50865 6.45173 64.0621
5835287 8.98446 9.40249 26.9815 18.7341 -3.05344 6.3949 64.1025
5835307 8.94922 9.62351 26.509 19.0458 -2.64662 6.31135 64.1276
5835320 8.94922 9.62351 26.509 19.0458 -2.64662 6.31135 64.1276
5835327 8.86114 9.85374 26.0562 19.2797 -2.25756 6.23434 64.0507
5835341 8.76425 9.99187 25.4655 19.7181 -1.76724 6.19978 63.9397
5835347 8.76425 9.99187 25.4655 19.7181 -1.76724 6.19978 63.9397
5835357 8.67617 10.2405 24.8356 20.1662 -1.21444 6.12149 63.9184
5835372 8.55285 10.4615 24.3434 20.6728 -0.687914 6.09126 64.0305
5835377 8.55285 10.4615 24.3434 20.6728 -0.687914 6.09126 64.0305
5835387 8.38549 10.6549 23.8413 21.1404 -0.168498 6.07789 64.0222
5835401 8.38549 10.6549 23.8413 21.1404 -0.168498 6.07789 64.0222
5835408 8.31503 10.7931 23.4082 21.5691 0.249225 6.05501 64.0854
5835423 8.20052 10.9865 23.0735 22.0367 0.680074 6.04768 64.2972
5835438 8.09482 11.0785 22.542 22.4069 1.11062 6.02961 64.1222
5835449 7.94508 11.1338 22.227 22.9524 1.52283 6.09272 64.2583
5835460 7.94508 11.1338 22.227 22.9524 1.52283 6.09272 64.2583
5835475 7.90104 11.2627 21.8234 23.3129 1.88616 6.0589 64.3
5835492 7.76891 11.3824 21.3509 23.6928 2.31929 6.05008 64.1951
5835498 7.68083 11.4837 21.1147 24.1507 2.65365 6.07655 64.4299
5835519 7.55751 11.5758 20.6914 24.5112 3.04578 6.07807 64.3359
5835529 7.44301 11.6679 20.4256 24.7742 3.33286 6.08503 64.3107
5835539 7.44301 11.6679 20.4256 24.7742 3.33286 6.08503 64.3107
5835549 7.42539 11.8061 20.0712 25.1444 3.6673 6.04779 64.4471
5835569 7.33731 11.8889 19.7858 25.4172 3.95127 6.04773 64.4292
5835579 7.21399 11.981 19.4904 25.69 4.25884 6.05481 64.3755
5835591 7.21399 11.981 19.4904 25.69 4.25884 6.05481 64.3755
5835600 7.2228 12.11 19.1754 25.9433 4.52084 6.00125 64.4515
5835612 7.13472 12.156 18.949 26.1673 4.75087 6.01463 64.4071
5835621 7.13472 12.156 18.949 26.1673 4.75087 6.01463 64.4071
5835634 7.09948 12.2757 18.6636 26.4109 5.01304 5.98124 64.4497
5835641 7.0114 12.4323 18.319 26.6155 5.32685 5.93932 64.3782
5835650 7.0114 12.4323 18.319 26.6155 5.32685 5.93932 64.3782
5835661 6.98497 12.5796 17.9647 26.7811 5.60216 5.87335 64.3104
5835683 6.93212 12.727 17.6792 26.898 5.84313 5.8187 64.2363
5835692 6.92332 12.8559 17.4528 26.9954 6.02359 5.76132 64.2274
5835702 6.92332 12.8559 17.4528 26.9954 6.02359 5.76132 64.2274
5835714 6.95855 12.9388 17.2855 27.0539 6.12915 5.70749 64.2367
5835724 6.94093 13.0953 17.1181 27.161 6.29605 5.65406 64.3154
5835732 6.94093 13.0953 17.1181 27.161 6.29605 5.65406 64.3154
5835746 7.00259 13.2611 17 27.1903 6.38005 5.56829 64.4539
5835752 7.00259 13.2611 17 27.1903 6.38005 5.56829 64.4539
5835769 6.96736 13.2979 16.9064 27.1708 6.44789 5.5512 64.3425
5835773 6.97617 13.4085 16.792 27.2585 6.55648 5.50924 64.4351
5835793 7.00259 13.5005 16.6049 27.2682 6.66444 5.44532 64.3762
5835803 6.98497 13.5834 16.4697 27.239 6.75501 5.40013 64.2771
5835816 6.98497 13.5834 16.4697 27.239 6.75501 5.40013 64.2771
5835823 6.99378 13.6663 16.3657 27.0831 6.78138 5.33204 64.1089
5835844 7.05544 13.6479 16.3242 27.0052 6.744 5.30026 64.0326
5835858 7.02902 13.7492 16.3138 26.9954 6.78832 5.2735 64.0874
5835874 7.08187 13.7584 16.2618 26.9857 6.78774 5.2445 64.0877
5835885 7.09948 13.7768 16.2826 26.9467 6.76285 5.23035 64.1056
5835894 7.09948 13.7768 16.2826 26.9467 6.76285 5.23035 64.1056
5835911 7.09067 13.8597 16.2098 26.9954 6.84066 5.20333 64.1556
5835917 7.09067 13.8597 16.2098 26.9954 6.84066 5.20333 64.1556
5835925 7.09067 13.9057 16.2618 27.0149 6.83342 5.19975 64.2731
5835936 7.1171 13.915 16.293 27.0441 6.81577 5.19777 64.3691
5835945 7.1171 13.915 16.293 27.0441 6.81577 5.19777 64.3691
5835960 7.07306 13.9242 16.2202 27.1513 6.90639 5.21393 64.3687
5835965 7.09067 13.915 16.2202 27.1221 6.88685 5.20685 64.3479
5835975 7.09067 13.915 16.2202 27.1221 6.88685 5.20685 64.3479
5835986 7.06425 13.9057 16.1786 27.239 6.95083 5.22948 64.3876
5836007 7.05544 13.8137 16.1266 27.1903 6.94149 5.24595 64.186
5836015 7.09948 13.7676 16.1994 27.1805 6.86773 5.25616 64.247
5836036 7.09067 13.74 16.3034 27.0539 6.77691 5.26421 64.1879
5836046 7.12591 13.7216 16.3865 26.9954 6.69651 5.26265 64.2294
5836055 7.12591 13.7216 16.3865 26.9954 6.69651 5.26265 64.2294
5836067 7.15233 13.8321 16.5425 26.9272 6.61883 5.23287 64.4541
5836079 7.13472 13.7216 16.5217 26.9564 6.61449 5.27444 64.3344
5836087 7.13472 13.7216 16.5217 26.9564 6.61449 5.27444 64.3344
5836102 7.15233 13.7492 16.7505 26.8395 6.46827 5.27709 64.4915
5836113 7.15233 13.7492 16.7505 26.8395 6.46827 5.27709 64.4915
5836117 7.21399 13.5742 16.9272 26.6837 6.25656 5.31592 64.3991
5836129 7.25803 13.4729 17.0886 26.4109 6.04744 5.31723 64.2304
5836137 7.25803 13.4729 17.0886 26.4109 6.04744 5.31723 64.2304
5836151 7.3285 13.3992 17.315 26.1284 5.7986 5.30978 64.1711
5836157 7.3285 13.3992 17.315 26.1284 5.7986 5.30978 64.1711
5836174 7.36373 13.2611 17.5414 25.8946 5.56133 5.34128 64.0608
5836178 7.45181 13.1782 18.0631 25.5731 5.14903 5.36973 64.2662
5836202 7.45181 13.1782 18.0631 25.5731 5.14903 5.36973 64.2662
5836204 7.57513 12.8743 18.4372 25.2516 4.72168 5.43498 64.1382
5836208 7.69845 12.7362 18.949 24.8229 4.24864 5.45209 64.2066
5836223 7.69845 12.7362 18.949 24.8229 4.24864 5.45209 64.2066
5836228 7.7513 12.5336 19.4806 24.443 3.79415 5.52233 64.2085
5836239 7.7513 12.5336 17.502 24.443 4.70965 5.22099 62.2299
5836248 7.84819 12.3034 20.022 23.9461 3.26706 5.57159 64.1197
5836258 8.03316 12.1192 20.6815 23.5272 2.69251 5.60659 64.3611
5836272 8.03316 12.1192 20.6815 23.5272 2.69251 5.60659 64.3611
5836278 8.12124 11.7969 21.3607 22.9817 2.06057 5.70124 64.2605
5836288 8.30622 11.539 22.04 22.3387 1.37469 5.72998 64.2239
5836298 8.30622 11.539 22.04 22.3387 1.37469 5.72998 64.2239
5836308 8.50881 11.2627 22.8176 21.7054 0.638375 5.77456 64.2946
5836320 8.50881 11.2627 22.8176 21.7054 0.638375 5.77456 64.2946
5836328 8.64974 10.9865 23.5165 21.1112 -0.026691 5.83333 64.2639
5836344 8.80829 10.7102 24.2154 20.4585 -0.72246 5.87813 64.1923
5836349 8.80829 10.7102 24.2154 20.4585 -0.72246 5.87813 64.1923
5836359 8.89637 10.4431 24.9438 19.8934 -1.36486 5.95958 64.1767
5836369 9.11658 10.0932 25.7215 19.3771 -2.08675 6.0386 64.3083
5836379 9.11658 10.0932 25.7215 19.3771 -2.08675 6.0386 64.3083
5836394 9.25751 9.84453 26.4499 18.7828 -2.75127 6.09251 64.3348
5836409 9.41606 9.54984 27.1094 18.1691 -3.427 6.14355 64.2444
5836419 9.54819 9.38407 27.8182 17.7014 -3.98781 6.18772 64.4519
5836429 9.54819 9.38407 27.8182 17.7014 -3.98781 6.18772 64.4519
5836443 9.5658 9.02492 28.4482 17.1072 -4.6308 6.30544 64.1461
5836449 9.61865 8.78548 29.1865 16.7335 -5.16375 6.41653 64.3241
5836459 9.61865 8.78548 29.1865 16.7335 -5.16375 6.41653 64.3241
5836469 9.66269 8.52763 29.8361 16.3147 -5.69485 6.51849 64.3411
5836479 9.66269 8.52763 29.8361 16.3147 -5.69485 6.51849 64.3411
5836492 9.69793 8.30661 30.3283 15.972 -6.12225 6.60038 64.3049
5836499 9.7772 8.14085 30.7221 15.6198 -6.51207 6.63489 64.2599
5836516 9.7772 8.14085 30.7221 15.6198 -6.51207 6.63489 64.2599
5836520 9.73316 8.03034 30.9682 15.3628 -6.75103 6.68563 64.0945
5836530 9.74197 7.91062 31.2536 15.2391 -6.95526 6.74409 64.1453
5836543 9.74197 7.91062 31.2536 15.2391 -6.95526 6.74409 64.1453
5836550 9.72435 7.81853 31.5489 15.182 -7.1074 6.8118 64.2738
5836571 9.6715 7.69881 31.8639 15.1629 -7.24942 6.90788 64.3972
5836581 9.70674 7.63434 32.1592 15.1058 -7.40092 6.94763 64.6061
5836601 9.70674 7.57909 32.297 14.944 -7.54751 6.96343 64.5269
5836614 9.69793 7.51463 32.5235 14.8203 -7.70122 7.00114 64.5563
5836638 9.73316 7.47779 32.6219 14.7346 -7.79908 7.00327 64.5674
5836642 9.73316 7.47779 32.6219 14.7346 -7.79908 7.00327 64.5674
5836653 9.75959 7.39491 32.6908 14.5823 -7.94425 7.0122 64.4276
5836664 9.86528 7.45937 32.7695 14.5538 -7.97462 6.96046 64.6479
5836672 9.86528 7.45937 32.7695 14.5538 -7.97462 6.96046 64.6479
5836688 9.81244 7.34886 32.9369 14.4205 -8.12941 7.02031 64.5187
5836692 9.78601 7.2844 33.0944 14.3634 -8.2261 7.06374 64.5282
5836702 9.78601 7.2844 33.0944 14.3634 -8.2261 7.06374 64.5282
5836719 9.80363 7.17389 33.2519 14.2301 -8.39732 7.09852 64.4595
5836728 9.73316 7.13705 33.2814 14.1445 -8.45038 7.1285 64.2961
5836745 9.73316 7.13705 33.2814 14.1445 -8.45038 7.1285 64.2961
5836749 9.76839 7.12784 33.3109 14.0493 -8.52141 7.1115 64.2565
5836753 9.76839 7.12784 33.3109 14.0493 -8.52141 7.1115 64.2565
5836763 9.79482 7.21073 33.2027 13.9922 -8.48694 7.05353 64.2004
5836773 9.89171 7.29361 33.183 13.897 -8.51319 6.97763 64.2653
5836788 9.89171 7.29361 33.183 13.897 -8.51319 6.97763 64.2653
5836793 9.94456 7.2844 33.1928 13.8684 -8.54896 6.96038 64.2902
5836804 9.97098 7.2844 33.0944 13.897 -8.5156 6.9426 64.2467
5836814 9.97098 7.25677 33.0944 13.897 -8.53002 6.95204 64.2191
5836824 10.0415 7.33965 32.8975 13.8779 -8.4642 6.87249 64.1566
5836837 10.0415 7.33965 32.8975 13.8779 -8.4642 6.87249 64.1566
5836844 10.1295 7.36728 32.7105 13.9351 -8.39449 6.81657 64.1423
5836861 10.2352 7.55146 32.6022 14.0207 -8.25391 6.71551 64.4096
5836864 10.2352 7.55146 32.6022 14.0207 -8.25391 6.71551 64.4096
5836874 10.4114 7.66197 32.5136 13.9636 -8.24912 6.60037 64.5506
5836885 10.4114 7.66197 32.5136 13.9636 -8.24912 6.60037 64.5506
5836894 10.429 7.72644 32.4053 14.0398 -8.15324 6.56874 64.6005
5836909 10.4995 7.83694 32.2675 14.0207 -8.08876 6.48788 64.6247
5836914 10.4995 7.83694 32.2675 14.0207 -8.08876 6.48788 64.6247
5836924 10.6052 7.83694 32.0411 13.8779 -8.13045 6.40377 64.3612
5836935 10.6492 7.92904 31.8147 13.9351 -8.00578 6.33585 64.328
5836945 10.6492 7.92904 31.8147 13.9351 -8.00578 6.33585 64.328
5836958 10.7549 8.08559 31.6178 13.8113 -7.96482 6.20557 64.2697
5836965 10.8342 8.15005 31.3717 13.7542 -7.91672 6.11643 64.1102
5836983 10.8342 8.15005 31.3717 13.7542 -7.91672 6.11643 64.1102
5836987 11.0104 8.26056 31.165 13.7637 -7.84705 5.99485 64.1997
5836998 11.0104 8.26056 31.165 13.7637 -7.84705 5.99485 64.1997
5837008 11.0808 8.32503 30.9288 13.7637 -7.76965 5.91746 64.0984
5837017 11.2658 8.44475 30.7713 13.659 -7.76936 5.78097 64.1408
5837029 11.2658 8.44475 30.7713 13.659 -7.76936 5.78097 64.1408
5837037 11.3627 8.5 30.5941 13.64 -7.72926 5.70342 64.0968
5837047 11.442 8.59209 30.3578 13.5924 -7.66412 5.60673 63.9843
5837059 11.442 8.59209 30.3578 13.5924 -7.66412 5.60673 63.9843
5837067 11.5301 8.73023 29.9543 13.7352 -7.43511 5.49552 63.9497
5837077 11.5301 8.73023 29.9543 13.7352 -7.43511 5.49552 63.9497
5837087 11.6005 8.88678 29.6196 13.7923 -7.25402 5.38142 63.8991
5837097 11.7326 8.97887 29.5014 13.9255 -7.14457 5.31244 64.1385
5837119 11.7591 9.15385 29.216 14.0493 -6.92289 5.22428 64.1782
5837127 11.7238 9.25515 28.9896 14.1254 -6.76072 5.18052 64.094
5837137 11.7238 9.25515 28.9896 14.1254 -6.76072 5.18052 64.094
5837147 11.7503 9.36566 28.6647 14.3158 -6.52671 5.11681 64.0964
5837157 11.7503 9.36566 28.6647 14.3158 -6.52671 5.11681 64.0964
5837168 11.6446 9.43933 28.3497 14.4395 -6.3076 5.0973 63.8732
5837178 11.6181 9.57747 28.1233 14.5823 -6.09601 5.04921 63.9012
5837189 11.6181 9.57747 28.1233 14.5823 -6.09601 5.04921 63.9012
5837198 11.5301 9.75244 27.8772 14.8012 -5.80574 5.01774 63.961
5837208 11.4244 9.82611 27.6213 15.0297 -5.55147 5.02348 63.9014
5837230 11.4244 9.82611 27.6213 15.0297 -5.55147 5.02348 63.9014
5837231 11.3187 9.97346 27.2669 15.3343 -5.19533 5.00266 63.8933
5837238 11.3187 9.97346 27.2669 15.3343 -5.19533 5.00266 63.8933
5837252 11.1777 10.0011 26.8043 15.696 -4.82299 5.0224 63.6791
5837259 11.072 10.2589 26.3909 16.0672 -4.36468 4.96804 63.789
5837279 10.8959 10.4339 26.0266 16.4574 -3.92984 4.97251 63.8138
5837289 10.7637 10.5628 25.564 16.9905 -3.43388 4.98455 63.881
5837299 10.7637 10.5628 25.564 16.9905 -3.43388 4.98455 63.881
5837311 10.5699 10.8575 25.062 17.5748 -2.80952 4.96594 64.0642
5837319 10.5699 10.8575 25.062 17.5748 -2.80952 4.96594 64.0642
5837329 10.3409 11.0141 24.4418 18.1691 -2.18851 4.9845 63.9659
5837340 10.1031 11.3824 23.674 18.8023 -1.40411 4.92264 63.9619
5837377 9.89171 11.6956 22.9751 19.3771 -0.701512 4.87139 63.9394
5837389 9.61865 11.9718 22.3156 19.9032 -0.02321 4.8492 63.8092
5837394 9.52176 12.2849 21.6856 20.3708 0.566986 4.75619 63.8631
5837401 9.38964 12.6441 21.3214 20.5948 0.988245 4.6636 63.9499
5837416 9.38964 12.6441 21.3214 20.5948 0.988245 4.6636 63.9499
5837422 9.2399 12.8835 20.7603 20.9456 1.49967 4.60191 63.8293
5837432 9.2399 12.8835 20.7603 20.9456 1.49967 4.60191 63.8293
5837443 9.15181 13.1414 20.209 21.2865 1.98588 4.51546 63.7888
5837452 8.98446 13.3716 19.7562 21.7152 2.48565 4.49227 63.8275
5837472 8.98446 13.3716 19.7562 21.7152 2.48565 4.49227 63.8275
5837474 8.86114 13.5834 19.3231 22.1633 2.95729 4.46775 63.931
5837482 8.86114 13.5834 19.3231 22.1633 2.95729 4.46775 63.931
5837501 8.75544 13.7031 18.949 22.6407 3.3722 4.48048 64.0483
5837503 8.6057 13.9794 18.5651 23.0011 3.82288 4.43822 64.1514
5837512 8.6057 13.9794 18.5651 23.0011 3.82288 4.43822 64.1514
5837528 8.35907 13.961 18.1123 23.5077 4.29986 4.52768 63.9401
5837532 8.25337 14.2096 17.5808 24.1117 4.866 4.49599 64.1555
5837555 8.06839 14.3386 17.1477 24.6281 5.35604 4.52663 64.1827
5837572 7.90984 14.4951 16.5841 25.1736 5.91263 4.5243 64.1627
5837582 7.7601 14.7161 16.241 25.6997 6.37052 4.53245 64.4169
5837605 7.67202 14.8082 15.7835 25.914 6.72615 4.49157 64.1778
5837613 7.51347 14.8911 15.5132 26.1771 7.03706 4.51339 64.0948
5837630 7.51347 14.8911 15.5132 26.1771 7.03706 4.51339 64.0948
5837634 7.47824 14.9924 15.2844 26.3622 7.2492 4.48614 64.1172
5837644 7.38135 15.0293 15.0765 26.596 7.47758 4.50865 64.083
5837655 7.38135 15.0293 15.0765 26.596 7.47758 4.50865 64.083
5837664 7.34611 15.1582 14.8165 26.8493 7.73134 4.47907 64.1701
5837680 7.34611 15.1582 14.8165 26.8493 7.73134 4.47907 64.1701
5837684 7.16995 15.0937 14.7125 26.898 7.87064 4.54335 63.8742
5837694 7.2228 15.0661 14.6086 26.8688 7.88172 4.51378 63.7662
5837705 7.2228 15.0661 14.6086 26.8688 7.88172 4.51378 63.7662
5837714 7.20518 15.1398 14.6709 26.9175 7.89146 4.51489 63.9334
5837730 7.20518 15.1398 14.6917 26.9175 7.88077 4.5183 63.9542
5837734 7.23161 15.1306 14.6917 26.9857 7.88297 4.52422 64.0396
5837744 7.24922 15.1029 14.8269 27.0441 7.81296 4.55884 64.2232
5837754 7.24922 15.1029 14.8269 27.0441 7.81296 4.55884 64.2232
5837764 7.15233 15.0661 14.7229 27.0734 7.91388 4.58751 64.0147
5837779 7.21399 15.1582 14.7853 27.0831 7.87741 4.55232 64.2406
5837785 7.21399 15.1582 14.7853 27.0831 7.87741 4.55232 64.2406
5837794 7.16114 15.0753 14.7749 26.9662 7.85644 4.57301 63.9776
5837814 7.26684 15.0477 14.8789 26.9467 7.73644 4.56292 64.1401
5837831 7.26684 15.0661 14.9517 26.8785 7.68591 4.55805 64.1631
5837844 7.29326 15.1306 14.8997 26.7811 7.69005 4.50599 64.1046
5837855 7.31088 15.1213 14.9621 26.859 7.66786 4.52635 64.2533
5837864 7.31088 15.1213 14.9621 26.859 7.66786 4.52635 64.2533
5837881 7.39896 15.1398 14.9621 26.859 7.6281 4.49404 64.3598
5837895 7.29326 15.1213 15.0141 26.7811 7.62933 4.52748 64.2098
5837907 7.34611 15.0753 14.9621 26.7713 7.61379 4.51533 64.1548
5837916 7.34611 15.0753 14.9621 26.7713 7.61379 4.51533 64.1548
5837930 7.29326 15.0845 14.8685 26.7226 7.6777 4.50532 63.9689
5837936 7.31088 15.0477 14.9205 26.7519 7.64012 4.52449 64.0309
5837946 7.31088 15.0477 14.9205 26.7519 7.64012 4.52449 64.0309
5837956 7.26684 15.1213 14.9309 26.8006 7.69038 4.52512 64.1196
5837966 7.26684 15.1213 14.9309 26.8006 7.69038 4.52512 64.1196
5837980 7.2228 15.0385 14.8269 26.8785 7.76469 4.5596 63.9667
5837986 7.23161 15.0937 14.7229 27.0441 7.87274 4.55009 64.0924
5837996 7.23161 15.0937 14.7229 27.0441 7.87274 4.55009 64.0924
5838007 7.1171 15.1029 14.6709 27.2682 8.02032 4.6102 64.1592
5838016 7.10829 15.0477 14.7125 27.3656 8.01461 4.65225 64.2341
5838037 7.03782 15.0845 14.7333 27.3266 8.0396 4.65961 64.1823
5838053 7.00259 14.9832 14.7333 27.3948 8.04899 4.71248 64.114
5838068 6.96736 15.0016 14.7333 27.541 8.11054 4.74104 64.2433
5838078 6.96736 15.0016 14.7333 27.541 8.11054 4.74104 64.2433
5838089 6.9057 14.9648 14.6813 27.541 8.15954 4.76305 64.0928
5838100 6.92332 14.9187 14.8581 27.3559 7.99815 4.77049 64.056
5838122 6.93212 14.8451 14.9829 27.1708 7.86039 4.7809 63.9308
5838129 7.04663 14.7069 15.3156 26.8688 7.51255 4.79312 63.9379
5838145 7.04663 14.7069 15.3156 26.8688 7.51255 4.79312 63.9379
5838149 7.18756 14.578 15.7835 26.557 7.08356 4.81427 64.1061
5838170 7.25803 14.4859 16.1786 26.3622 6.77123 4.85267 64.2847
5838179 7.4342 14.2833 16.5737 26.0115 6.33212 4.86783 64.3027
5838194 7.4342 14.2833 16.5737 26.0115 6.33212 4.86783 64.3027
5838200 7.49585 14.0439 17.187 25.5633 5.80351 4.94881 64.2901
5838217 7.68083 13.7676 17.9155 24.9398 5.09735 4.99353 64.3037
5838221 7.68083 13.7676 17.9155 24.9398 5.09735 4.99353 64.3037
5838231 7.84819 13.3992 18.762 24.1994 4.27841 5.07267 64.2089
5838251 8.05959 13.0861 19.4904 23.4103 3.49216 5.09514 64.0465
5838252 8.05959 13.0861 19.4904 23.4103 3.49216 5.09514 64.0465
5838264 8.27098 12.8559 20.1598 22.7479 2.80043 5.10212 64.0346
5838271 8.27098 12.8559 20.1598 22.7479 2.80043 5.10212 64.0346
5838281 8.37668 12.4599 20.9375 22.0269 2.02689 5.20238 63.801
5838291 8.62332 12.1928 21.9021 21.384 1.19003 5.25799 64.1023
5838301 8.62332 12.1928 21.9021 21.384 1.19003 5.25799 64.1023
5838312 8.89637 11.8613 22.7487 20.7117 0.36127 5.30288 64.2181
5838335 9.01969 11.5574 23.3492 20.1077 -0.274733 5.3596 64.034
5838342 9.15181 11.3548 24.0284 19.6401 -0.851287 5.41375 64.1751
5838362 9.31036 11.0417 24.5501 19.1822 -1.41864 5.47253 64.0844
5838372 9.45129 10.8759 25.0423 18.7925 -1.88003 5.49567 64.1621
5838383 9.45129 10.8759 25.0423 18.7925 -1.88003 5.49567 64.1621
5838393 9.65389 10.6181 25.5935 18.2178 -2.50125 5.50985 64.0833
5838407 9.75959 10.351 26.2727 17.6235 -3.14724 5.57416 64.0068
5838413 9.75959 10.351 26.2727 17.6235 -3.14724 5.57416 64.0068
5838432 10.0679 10.2037 26.8141 17.0195 -3.76679 5.5133 64.1052
5838444 10.1295 9.86295 27.2866 16.5526 -4.30843 5.60382 63.8317
5838456 10.2793 9.74323 27.6016 16.2385 -4.6581 5.59427 63.8626
5838464 10.2793 9.74323 27.6016 16.2385 -4.6581 5.59427 63.8626
5838481 10.4731 9.60509 28.0544 15.8292 -5.11757 5.58275 63.9618
5838484 10.5964 9.47616 28.458 15.4485 -5.52124 5.58792 63.979
5838494 10.5964 9.47616 28.458 15.4485 -5.52124 5.58792 63.979
5838505 10.7285 9.35645 28.7435 15.201 -5.82331 5.58951 64.0294
5838514 10.7285 9.35645 28.7435 15.201 -5.82331 5.58951 64.0294
5838529 10.887 9.27356 29.0683 14.8964 -6.15411 5.56819 64.1254
5838535 10.9927 9.1078 29.2947 14.6775 -6.43885 5.58857 64.0728
5838544 10.9927 9.1078 29.2947 14.6775 -6.43885 5.58857 64.0728
5838554 11.1425 9.02492 29.5802 14.4015 -6.74067 5.56849 64.1491
5838564 11.2041 8.93283 29.8066 14.2682 -6.93398 5.59192 64.2118
5838577 11.2041 8.93283 29.8066 14.2682 -6.93398 5.59192 64.2118
5838584 11.257 8.92362 30.1118 14.0873 -7.12872 5.59613 64.3797
5838594 11.257 8.92362 30.1118 14.0873 -7.12872 5.59613 64.3797
5838604 11.2746 8.74865 30.2003 13.7732 -7.40391 5.61363 63.9968
5838615 11.3275 8.7026 30.3578 13.6209 -7.56215 5.61221 64.0089
5838627 11.3275 8.7026 30.3578 13.6209 -7.56215 5.61221 64.0089
5838635 11.4244 8.72102 30.4563 13.5067 -7.66394 5.57282 64.1084
5838676 11.5212 8.63814 30.5449 13.3735 -7.8243 5.56175 64.0777
5838678 11.5301 8.61051 30.8107 13.2497 -7.97515 5.58866 64.2009
5838687 11.5477 8.51842 30.8107 13.1545 -8.07627 5.59862 64.0313
5838700 11.6093 8.52763 30.7811 13.1355 -8.08984 5.5687 64.0536
5838724 11.6534 8.61051 30.7319 13.1736 -8.0261 5.52638 64.1694
5838727 11.6269 8.62893 30.6827 13.1641 -8.00149 5.52026 64.1026
5838737 11.6269 8.62893 30.6827 13.1641 -8.00149 5.52026 64.1026
5838750 11.6358 8.69339 30.6728 13.2783 -7.90948 5.51226 64.2803
5838758 11.6358 8.69339 30.6728 13.2783 -7.90948 5.51226 64.2803
5838776 11.6269 8.69339 30.6335 13.2688 -7.90153 5.50785 64.2226
5838778 11.5653 8.72102 30.6532 13.2592 -7.88107 5.52023 64.1987
5838788 11.5653 8.72102 30.6532 13.2592 -7.88107 5.52023 64.1987
5838800 11.5741 8.73023 30.7024 13.2307 -7.90644 5.51752 64.2374
5838808 11.6093 8.66576 30.6925 13.2402 -7.94136 5.52681 64.2078
5838828 11.6798 8.71181 30.7024 13.1831 -7.96834 5.48264 64.2771
5838838 11.6798 8.71181 30.7024 13.1831 -7.96834 5.48264 64.2771
5838852 11.6798 8.66576 30.6827 13.1831 -7.98676 5.49441 64.2113
5838858 11.7326 8.76706 30.7614 13.0594 -8.03308 5.43864 64.3205
5838868 11.7326 8.76706 30.7614 13.0594 -8.03308 5.43864 64.3205
5838879 11.8295 8.72102 30.7221 12.9642 -8.1209 5.40244 64.2368
5838888 11.9264 8.67497 30.5941 12.8785 -8.1808 5.35425 64.074
5838901 11.9264 8.67497 30.5941 12.8785 -8.1808 5.35425 64.074
5838908 12.0409 8.7026 30.7319 12.7452 -8.30145 5.30988 64.2207
5838926 12.0409 8.7026 30.7319 12.7452 -8.30145 5.30988 64.2207
5838928 12.1995 8.62893 30.7319 12.5358 -8.48983 5.25133 64.0961
5838938 12.4461 8.62893 30.6728 12.355 -8.63263 5.13693 64.1029
5838958 12.5694 8.64735 30.476 12.2312 -8.66921 5.04281 63.924
5838968 12.7192 8.67497 30.3382 12.2027 -8.67274 4.9613 63.935
5838979 12.7192 8.67497 30.3382 12.2027 -8.67274 4.9613 63.935
5838988 12.8865 8.69339 30.161 12.2122 -8.65552 4.87699 63.9531
5839004 12.8865 8.69339 30.161 12.2122 -8.65552 4.87699 63.9531
5839009 12.957 8.73023 29.9247 12.1837 -8.60868 4.80154 63.7956
5839019 12.9658 8.87757 29.8657 12.2503 -8.48337 4.75441 63.9593
5839029 12.9658 8.87757 29.8657 12.2503 -8.48337 4.75441 63.9593
5839039 13.0363 8.83153 29.7279 12.3835 -8.42034 4.74613 63.9792
5839050 13.001 8.91441 29.5507 12.4787 -8.2722 4.71827 63.9448
5839060 13.001 8.91441 29.5507 12.4787 -8.2722 4.71827 63.9448
5839075 13.0275 8.96966 29.2947 12.6215 -8.10903 4.67487 63.9134
5839079 13.0275 8.96966 29.2947 12.6215 -8.10903 4.67487 63.9134
5839089 12.9306 9.06176 29.1471 12.7548 -7.92761 4.67402 63.8942
5839100 12.8777 9.09859 28.8222 13.0118 -7.67494 4.66798 63.8103
5839111 12.8777 9.09859 28.8222 13.0118 -7.67494 4.66798 63.8103
5839123 12.7896 9.26436 28.586 13.2688 -7.37087 4.64743 63.9087
5839130 12.6047 9.26436 28.3005 13.6209 -7.06214 4.71523 63.7905
5839150 12.4285 9.43933 27.9166 14.0207 -6.61587 4.71816 63.8052
5839161 12.4285 9.43933 27.9166 14.0207 -6.61587 4.71816 63.8052
5839172 12.2788 9.58667 27.5032 14.5157 -6.13593 4.73202 63.8843
5839180 12.0762 9.72481 27.0996 15.0106 -5.64858 4.76659 63.9112
5839201 12.0762 9.72481 27.0996 15.0106 -5.64858 4.76659 63.9112
5839203 11.944 9.89978 26.6173 15.5342 -5.12826 4.75994 63.9952
5839211 11.7326 10.0103 26.2137 16.0291 -4.65217 4.80572 63.9857
5839232 11.4508 10.2313 25.5541 16.6764 -3.94963 4.82262 63.9126
5839242 11.4508 10.2313 25.5541 16.6764 -3.94963 4.82262 63.9126
5839262 11.1337 10.3602 24.7666 17.4774 -3.16245 4.8833 63.7379
5839288 10.799 10.701 24.0382 18.3834 -2.24995 4.90953 63.9215
5839289 10.799 10.701 24.0382 18.3834 -2.24995 4.90953 63.9215
5839292 10.3057 11.1891 22.7881 19.8934 -0.783509 4.952 64.1762
5839314 10.3057 11.1891 22.7881 19.8934 -0.783509 4.952 64.1762
5839315 10.015 11.2996 22.3057 20.4585 -0.219549 5.02107 64.0788
5839341 9.74197 11.4653 21.7545 21.1501 0.436354 5.07644 64.1119
5839343 9.43368 11.6771 21.1442 21.8418 1.14714 5.11925 64.0968
5839368 9.1342 11.8705 20.4158 22.6504 1.93965 5.16493 64.0709
5839373 8.8171 12.0915 19.8251 23.3324 2.64636 5.20919 64.0662
5839383 8.8171 12.0915 19.8251 23.3324 2.64636 5.20919 64.0662
5839397 8.57927 12.2297 19.2247 23.8292 3.23153 5.22485 63.8629
5839403 8.57927 12.2297 19.2247 23.8292 3.23153 5.22485 63.8629
5839425 8.35026 12.3678 18.7325 24.2774 3.75128 5.24694 63.7279
5839425 8.17409 12.5336 18.388 24.8814 4.24094 5.28979 63.977
5839444 8.02435 12.6809 18.0041 25.5049 4.73314 5.32678 64.2142
5839455 7.85699 12.8927 17.5611 26.0407 5.25059 5.32669 64.3515
5839478 7.69845 13.0861 17.1575 26.6057 5.7461 5.33992 64.5478
5839486 7.69845 13.0861 17.1575 26.6057 5.7461 5.33992 64.5478
5839494 7.51347 13.123 16.8024 26.9857 6.12838 5.39041 64.4246
5839504 7.38135 13.2519 16.4593 27.3656 6.50687 5.39692 64.4582
5839516 7.38135 13.2519 16.4593 27.3656 6.50687 5.39692 64.4582
5839529 7.25803 13.3532 16.1058 27.6676 6.85605 5.39621 64.3847
5839535 7.16995 13.4269 15.8147 27.9307 7.13875 5.39658 64.3422
5839546 7.16995 13.4269 15.8147 27.9307 7.13875 5.39658 64.3422
5839556 7.06425 13.4729 15.5132 28.145 7.41507 5.40249 64.1953
5839566 7.06425 13.4729 15.5132 28.145 7.41507 5.40249 64.1953
5839581 6.93212 13.519 15.1492 28.3691 7.74068 5.40896 63.9694
5839586 6.76477 13.5834 15.0349 28.6905 7.98861 5.47274 64.0736
5839608 6.73834 13.6387 14.7853 28.8854 8.19717 5.45539 64.0477
5839616 6.68549 13.6571 14.6917 29.1484 8.34659 5.49156 64.1828
5839633 6.68549 13.6571 14.6917 29.1484 8.34659 5.49156 64.1828
5839635 6.67668 13.7768 14.4942 29.3433 8.5351 5.45581 64.291
5839646 6.67668 13.7768 14.3486 29.3433 8.61121 5.43415 64.1454
5839661 6.59741 13.8137 14.3486 29.5576 8.71664 5.47952 64.3173
5839666 6.52694 13.8781 14.2758 29.7232 8.8498 5.49514 64.4041
5839689 6.51813 13.8781 14.1511 29.7719 8.93233 5.48671 64.3192
5839697 6.47409 13.9057 14.1303 29.7719 8.97346 5.48887 64.282
5839717 6.46528 13.8781 14.1303 29.8011 8.97851 5.5048 64.2748
5839727 6.45648 13.9057 14.0679 29.8304 9.03033 5.4939 64.2605
5839748 6.39482 13.8321 14.1407 29.9278 9.03034 5.5622 64.2954
5839758 6.39482 13.8321 14.1407 29.9278 9.03034 5.5622 64.2954
5839770 6.35959 13.8137 14.1511 29.996 9.05584 5.59088 64.3203
5839779 6.36839 13.7952 14.1407 29.9083 9.03034 5.57959 64.2126
5839796 6.36839 13.7952 14.1407 29.9083 9.03034 5.57959 64.2126
5839801 6.3772 13.7124 14.1823 29.8499 8.9684 5.60089 64.1217
5839810 6.35078 13.6387 14.2758 29.8986 8.92661 5.65387 64.1639
5839821 6.35078 13.6387 14.2758 29.8986 8.92661 5.65387 64.1639
5839831 6.44767 13.6018 14.4006 29.8791 8.79563 5.64989 64.3292
5839847 6.42124 13.565 14.5462 29.8401 8.714 5.68566 64.3725
5839860 6.41244 13.4729 14.5878 29.7817 8.65865 5.7157 64.2548
5839873 6.41244 13.4729 14.5878 29.7817 8.65865 5.7157 64.2548
5839881 6.41244 13.3532 14.7333 29.8011 8.55697 5.7781 64.3001
5839890 6.4829 13.2703 15.0037 29.733 8.34112 5.81101 64.4898
5839902 6.4829 13.2703 15.0037 29.733 8.34112 5.81101 64.4898
5839912 6.50052 13.169 15.0245 29.7524 8.3001 5.84378 64.4464
5839923 6.44767 13.1138 15.1596 29.733 8.2382 5.89517 64.454
5839932 6.44767 13.1138 15.1596 29.733 8.2382 5.89517 64.454
5839945 6.51813 13.0309 15.274 29.5966 8.08578 5.89609 64.4196
5839952 6.51813 13.0309 15.274 29.5966 8.08578 5.89609 64.4196
5839962 6.45648 13.0401 15.3572 29.4602 8.04126 5.90559 64.3139
5839972 6.50933 12.9664 15.3884 29.5089 7.99155 5.92365 64.373
5840009 6.4829 12.9848 15.326 29.5479 8.05225 5.92294 64.3416
5840012 6.50052 12.994 15.4196 29.5479 7.99766 5.92742 64.462
5840023 6.50933 13.0033 15.3988 29.5868 8.01649 5.92413 64.4982
5840036 6.50933 13.0033 15.3988 29.5868 8.01649 5.92413 64.4982
5840043 6.41244 12.9848 15.2636 29.733 8.16916 5.96314 64.3938
5840054 6.44767 13.0125 15.2116 29.9668 8.24583 5.96817 64.6385
5840074 6.34197 13.0769 14.9413 30.1421 8.50194 5.96828 64.5023
5840087 6.2715 13.0585 14.7645 30.3175 8.67072 5.99701 64.412
5840095 6.2715 13.0585 14.7645 30.3175 8.67072 5.99701 64.412
5840105 6.13057 13.1322 14.6294 30.337 8.83915 6.00279 64.2291
5840124 6.13938 13.0953 14.5358 30.3564 8.87951 6.00157 64.1269
5840143 6.08653 13.169 14.5774 30.3272 8.89662 5.99649 64.1601
5840156 6.01606 13.1138 14.5774 30.4344 8.94689 6.05269 64.1416
5840173 6.03368 13.169 14.6294 30.4344 8.92393 6.03605 64.2664
5840176 6.03368 13.169 14.6294 30.4344 8.92393 6.03605 64.2664
5840186 6.0601 13.1322 14.6398 30.3954 8.88551 6.03548 64.2274
5840200 6.04249 13.0769 14.7853 30.2688 8.77227 6.06201 64.1735
5840206 6.04249 13.0769 14.7853 30.2688 8.77227 6.06201 64.1735
5840225 6.17461 13.0309 15.0141 30.1032 8.5294 6.04259 64.3227
5840227 6.17461 13.0309 15.0141 30.1032 8.5294 6.04259 64.3227
5840237 6.20984 12.9848 15.2532 29.7232 8.2767 6.02649 64.1711
5840249 6.35078 12.8099 15.6067 29.392 7.8883 6.04076 64.1593
5840257 6.35078 12.8099 15.6067 29.392 7.8883 6.04076 64.1593
5840267 6.57098 12.727 16.1058 28.8756 7.36077 5.9934 64.2794
5840277 6.73834 12.5612 16.6049 28.2327 6.80208 5.97267 64.1371
5840287 6.73834 12.5612 16.6049 28.2327 6.80208 5.97267 64.1371
5840298 7.0114 12.3494 17.3937 27.5312 6.01824 5.96497 64.2858
5840307 7.0114 12.3494 17.3937 27.5312 6.01824 5.96497 64.2858
5840323 7.23161 12.0639 18.26 26.635 5.14379 5.98206 64.1905
5840328 7.62798 11.7969 19.2148 25.8264 4.18066 5.96043 64.466
5840337 7.62798 11.7969 19.2148 25.8264 4.18066 5.96043 64.466
5840349 7.88342 11.5574 20.0023 25.1639 3.41897 5.97273 64.6071
5840357 8.02435 11.2996 20.6422 24.5404 2.78013 6.01304 64.5065
5840373 8.02435 11.2996 20.6422 24.5404 2.78013 6.01304 64.5065
5840377 8.23575 11.1154 21.0851 23.8974 2.21188 5.9762 64.3337
5840399 8.34145 10.8852 21.5576 23.2934 1.66965 5.99845 64.0776
5840407 8.53523 10.6918 22.1384 22.6894 1.05673 5.99505 64.0548
5840426 8.53523 10.6918 22.1384 22.6894 1.05673 5.99505 64.0548
5840429 8.76425 10.572 22.5223 22.0659 0.528517 5.92541 63.9245
5840437 8.76425 10.572 22.5223 22.0659 0.528517 5.92541 63.9245
5840452 8.84352 10.3234 23.1424 21.4229 -0.094004 5.97777 63.7323
5840457 9.11658 10.1853 23.7626 20.7507 -0.761259 5.92605 63.8152
5840468 9.11658 10.1853 23.7626 20.7507 -0.761259 5.92605 63.8152
5840478 9.29275 9.97346 24.3335 20.3318 -1.29866 5.9593 63.9315
5840489 9.47772 9.82611 24.8749 19.796 -1.8486 5.94776 63.9747
5840505 9.47772 9.82611 24.8749 19.796 -1.8486 5.94776 63.9747
5840508 9.60984 9.68797 25.3376 19.416 -2.28075 5.96141 64.0514
5840518 9.60984 9.68797 25.3376 19.416 -2.28075 5.96141 64.0514
5840530 9.75078 9.6143 25.879 18.8997 -2.77336 5.94297 64.1438
5840539 10.0238 9.48537 26.4991 18.4321 -3.33855 5.91756 64.4404
5840556 10.0238 9.48537 26.4991 18.4321 -3.33855 5.91756 64.4404
5840558 10.2352 9.24594 27.0012 17.6722 -4.02086 5.8902 64.1545
5840568 10.5611 9.06176 27.7493 16.9429 -4.78339 5.84683 64.3151
5840581 10.5611 9.06176 27.7493 16.9429 -4.78339 5.84683 64.3151
5840592 10.8166 8.82232 28.4777 16.1338 -5.57901 5.83015 64.2504
5840608 10.9927 8.52763 29.2554 15.4675 -6.32477 5.88447 64.2433
5840609 10.9927 8.52763 29.2554 15.4675 -6.32477 5.88447 64.2433
5840619 11.2482 8.37107 29.846 14.8298 -6.9575 5.84567 64.295
5840634 11.2482 8.37107 29.846 14.8298 -6.9575 5.84567 64.295
5840639 11.4332 8.17768 30.0724 14.3063 -7.43153 5.80591 63.9895
5840660 11.6005 8.04875 30.3874 13.8875 -7.84199 5.77847 63.9241
5840661 11.6005 8.04875 30.3874 13.8875 -7.84199 5.77847 63.9241
5840669 11.6622 7.95666 30.6728 13.5353 -8.1639 5.77874 63.827
5840687 11.6622 7.95666 30.6728 13.5353 -8.1639 5.77874 63.827
5840689 11.8119 7.77248 31.0567 13.2307 -8.55835 5.80139 63.8718
5840702 11.856 7.67118 31.3717 13.0879 -8.77861 5.84476 63.9868
5840715 11.856 7.67118 31.3717 13.0879 -8.77861 5.84476 63.9868
5840719 11.8912 7.56067 31.5981 12.9737 -8.96347 5.88531 64.0237
5840730 11.8207 7.487 31.608 13.0784 -8.93181 5.94867 63.9941
5840742 11.8207 7.487 31.608 13.0784 -8.93181 5.94867 63.9941
5840752 11.715 7.49621 31.7261 13.2307 -8.84952 6.01832 64.168
5840760 11.6622 7.56067 31.795 13.2973 -8.78455 6.03345 64.3152
5840781 11.6798 7.487 31.9624 13.4211 -8.80481 6.09215 64.5502
5840802 11.5477 7.34886 32.1691 13.383 -8.91599 6.2039 64.4486
5840812 11.4772 7.29361 32.4053 13.4782 -8.93628 6.29023 64.6543
5840825 11.4772 7.29361 32.4053 13.4782 -8.93628 6.29023 64.6543
5840832 11.3451 7.2844 32.5235 13.5258 -8.91266 6.35907 64.6787
5840842 11.2218 7.19231 32.681 13.5924 -8.93451 6.46013 64.6874
5840862 11.0984 7.10022 32.8089 13.5733 -8.99406 6.54612 64.5809
5840882 11.0192 7.01733 32.9074 13.5924 -9.03245 6.61564 64.5362
5840892 10.8782 6.95287 32.9763 13.6019 -9.04362 6.69478 64.4093
5840904 10.8782 6.95287 32.9763 13.6019 -9.04362 6.69478 64.4093
5840913 10.8694 6.95287 32.9467 13.5829 -9.04419 6.69148 64.3519
5840930 10.8694 6.95287 32.8089 13.5924 -9.0049 6.67488 64.2236
5840933 10.8694 6.95287 32.8089 13.5924 -9.0049 6.67488 64.2236
5840944 10.887 7.07259 32.6613 13.6876 -8.85892 6.6218 64.3085
5840957 10.887 7.07259 32.6613 13.6876 -8.85892 6.6218 64.3085
5840963 10.7813 7.04496 32.4939 13.8494 -8.71944 6.666 64.1696
5840973 10.7813 7.10943 32.5136 13.9351 -8.64574 6.65794 64.3394
5840984 10.7813 7.10943 32.5136 13.9351 -8.64574 6.65794 64.3394
5840994 10.7461 7.21993 32.4447 14.0017 -8.52677 6.63234 64.4124
5841011 10.7637 7.25677 32.4841 14.0873 -8.47772 6.6303 64.5919
5841015 10.7637 7.25677 32.4841 14.0873 -8.47772 6.6303 64.5919
5841024 10.7549 7.27519 32.4349 14.1159 -8.43852 6.6244 64.5809
5841036 10.7549 7.27519 32.4349 14.1159 -8.43852 6.6244 64.5809
5841044 10.8078 7.22914 32.366 14.0683 -8.48297 6.60699 64.4712
5841061 10.8254 7.33044 32.2085 14.0778 -8.38953 6.54784 64.4421
5841066 10.8254 7.33044 32.2085 14.0778 -8.38953 6.54784 64.4421
5841074 10.9399 7.39491 32.051 13.9541 -8.4092 6.45096 64.3399
5841088 11.0192 7.34886 32.0017 13.8018 -8.52023 6.413 64.1716
5841104 11.1953 7.42254 32.0017 13.7256 -8.56664 6.3197 64.3453
5841124 11.1953 7.43174 32.0608 13.5258 -8.68143 6.29761 64.2136
5841139 11.3539 7.39491 32.11 13.4211 -8.80833 6.24977 64.2799
5841144 11.3539 7.39491 32.11 13.4211 -8.80833 6.24977 64.2799
5841154 11.4772 7.45937 31.9328 13.3068 -8.82096 6.14786 64.1762
5841167 11.5389 7.46858 31.6572 13.3735 -8.72685 6.09556 64.0381
5841176 11.5389 7.46858 31.6572 13.3735 -8.72685 6.09556 64.0381
5841189 11.5741 7.57909 31.5292 13.5258 -8.5653 6.05105 64.2082
5841207 11.5565 7.53304 31.4013 13.5448 -8.54209 6.05676 64.0356
5841216 11.6358 7.67118 31.2044 13.659 -8.38002 5.9739 64.1703
5841227 11.6358 7.67118 31.2044 13.659 -8.38002 5.9739 64.1703
5841240 11.7238 7.77248 30.9288 13.7447 -8.23419 5.88528 64.1698
5841246 11.6358 7.87378 30.6138 13.916 -7.98718 5.86052 64.0393
5841256 11.6358 7.87378 30.6138 13.916 -7.98718 5.86052 64.0393
5841268 11.6093 7.9935 30.1413 14.2396 -7.62595 5.80884 63.9837
5841277 11.6093 7.9935 30.1413 14.2396 -7.62595 5.80884 63.9837
5841295 11.5653 8.05796 29.8263 14.4776 -7.37402 5.79112 63.9271
5841297 11.5301 8.21452 29.4424 14.7346 -7.049 5.73338 63.9216
5841309 11.5301 8.21452 29.4424 14.7346 -7.049 5.73338 63.9216
5841325 11.5389 8.2974 29.088 14.9916 -6.78152 5.68952 63.9159
5841327 11.486 8.3987 28.6844 15.22 -6.48687 5.64824 63.7892
5841337 11.486 8.3987 28.6844 15.22 -6.48687 5.64824 63.7892
5841356 11.4244 8.59209 28.2021 15.6389 -6.02729 5.59634 63.8574
5841358 11.4244 8.59209 28.2021 15.6389 -6.02729 5.59634 63.8574
5841367 11.3187 8.73944 27.6508 16.0577 -5.55635 5.56336 63.7666
5841388 11.1425 9.02492 26.8732 16.6669 -4.83613 5.50312 63.7075
5841390 11.1425 9.02492 26.8732 16.6669 -4.83613 5.50312 63.7075
5841397 10.9663 9.32882 25.9184 17.565 -3.91621 5.45362 63.7785
5841419 10.6845 9.72481 24.9832 18.3639 -2.97184 5.3966 63.7564
5841420 10.6845 9.72481 24.9832 18.3639 -2.97184 5.3966 63.7564
5841428 10.4642 10.13 24.0284 19.3186 -1.97212 5.33757 63.9413
5841444 10.4642 10.13 24.0284 19.3186 -1.97212 5.33757 63.9413
5841448 10.1648 10.4707 23.2409 20.1759 -1.07684 5.335 64.0523
5841458 10.015 10.7746 22.5518 20.9163 -0.340764 5.29394 64.2578
5841470 10.015 10.7746 22.5518 20.9163 -0.340764 5.29394 64.2578
5841478 9.76839 11.0141 21.9415 21.4521 0.294626 5.28495 64.1761
5841496 9.54819 11.1798 21.4198 22.0172 0.868484 5.30872 64.165
5841498 9.54819 11.1798 21.4198 22.0172 0.868484 5.30872 64.165
5841509 9.37202 11.4285 20.8587 22.6017 1.47814 5.28935 64.2609
5841528 9.37202 11.4285 20.8587 22.6017 1.47814 5.28935 64.2609
5841530 9.07254 11.5298 20.15 23.2155 2.15841 5.33779 63.9678
5841539 8.90518 11.8153 19.6086 23.8779 2.79544 5.31859 64.207
5841549 8.90518 11.8153 19.6086 23.8779 2.79544 5.31859 64.207
5841559 8.68497 11.9626 18.949 24.2968 3.37493 5.30531 63.8935
5841572 8.49119 12.1744 18.3683 24.8619 3.98182 5.29719 63.8958
5841579 8.49119 12.1744 18.3683 24.8619 3.98182 5.29719 63.8958
5841597 8.31503 12.377 17.8662 25.4756 4.55673 5.30574 64.0339
5841599 8.31503 12.377 17.8662 25.4756 4.55673 5.30574 64.0339
5841609 8.09482 12.552 17.315 26.0699 5.15842 5.3266 64.0317
5841627 7.88342 12.7178 16.9376 26.7226 5.68746 5.38248 64.2614
5841631 7.88342 12.7178 16.9376 26.7226 5.68746 5.38248 64.2614
5841641 7.73368 12.8375 16.5113 27.2195 6.14755 5.40255 64.302
5841656 7.56632 13.0309 16.1162 27.6871 6.61309 5.40511 64.4005
5841661 7.56632 13.0309 16.1162 27.6871 6.61309 5.40511 64.4005
5841670 7.4342 13.123 15.7627 27.9989 6.96723 5.41158 64.3187
5841681 7.4342 13.123 15.7627 27.9989 6.96723 5.41158 64.3187
5841693 7.26684 13.1782 15.378 28.2911 7.34023 5.43344 64.1142
5841706 7.17876 13.2611 15.1492 28.4567 7.56874 5.42567 64.0458
5841710 7.17876 13.2611 15.1492 28.4567 7.56874 5.42567 64.0458
5841731 7.12591 13.3348 15.0661 28.6029 7.69757 5.42844 64.1296
5841733 7.02021 13.2979 15.0037 28.7782 7.8207 5.49073 64.1
5841756 7.02902 13.3716 14.7957 28.8951 7.97377 5.45085 64.0915
5841762 7.02902 13.3716 14.7957 28.8951 7.97377 5.45085 64.0915
5841772 6.99378 13.4637 14.7021 29.1095 8.12102 5.4507 64.2691
5841782 6.92332 13.4913 14.463 29.3433 8.34941 5.46355 64.2209
5841792 6.92332 13.4913 14.463 29.3433 8.34941 5.46355 64.2209
5841805 6.86166 13.5466 14.411 29.4991 8.463 5.48099 64.3184
5841812 6.86166 13.5558 14.2031 29.7037 8.62615 5.47756 64.3242
5841822 6.86166 13.5558 14.2031 29.7037 8.62615 5.47756 64.3242
5841831 6.83523 13.6939 14.0783 29.9862 8.81149 5.4654 64.5937
5841841 6.83523 13.6939 14.0783 29.9862 8.81149 5.4654 64.5937
5841852 6.6943 13.6018 13.9015 30.1129 8.98722 5.53213 64.3106
5841873 6.60622 13.6939 13.7456 30.337 9.19468 5.54086 64.3827
5841874 6.60622 13.6939 13.7456 30.337 9.19468 5.54086 64.3827
5841883 6.57979 13.7031 13.6728 30.4734 9.28304 5.55569 64.4291
5841897 6.45648 13.7492 13.4648 30.5123 9.48081 5.55557 64.1828
5841904 6.45648 13.7492 13.4648 30.5123 9.48081 5.55557 64.1828
5841919 6.43886 13.8229 13.3089 30.6195 9.61777 5.53044 64.1901
5841927 6.36839 13.8781 13.1841 30.7461 9.76668 5.53558 64.1767
5841934 6.36839 13.8781 13.1841 30.7461 9.76668 5.53558 64.1767
5841944 6.34197 13.9057 13.0905 30.7754 9.84527 5.5257 64.1136
5841954 6.34197 13.9057 13.0905 30.7754 9.84527 5.5257 64.1136
5841964 6.28031 13.9518 12.9242 30.902 10.0102 5.52483 64.0583
5841974 6.19223 14.1083 12.893 31.0092 10.1368 5.51415 64.2027
5841986 6.19223 14.1083 12.893 31.0092 10.1368 5.51415 64.2027
5841995 6.14819 14.1728 12.8306 31.0871 10.2279 5.50993 64.2387
5842009 6.14819 14.2096 12.7162 31.0871 10.2992 5.48124 64.1611
5842025 6.11295 14.3109 12.737 31.1748 10.3503 5.47625 64.3357
5842035 6.11295 14.3109 12.737 31.1748 10.3503 5.47625 64.3357
5842045 6.04249 14.2925 12.633 31.2722 10.4643 5.50361 64.2402
5842057 5.99845 14.2649 12.6434 31.4086 10.5074 5.54813 64.3154
5842065 5.99845 14.2649 12.6434 31.4086 10.5074 5.54813 64.3154
5842075 5.9456 14.2557 12.5394 31.4865 10.6097 5.56416 64.2273
5842085 5.90155 14.2741 12.5498 31.5937 10.6564 5.58959 64.3192
5842096 5.90155 14.2741 12.5498 31.5937 10.6564 5.58959 64.3192
5842105 5.74301 14.2189 12.6122 31.7398 10.73 5.68855 64.3139
5842122 5.74301 14.2189 12.6122 31.7398 10.73 5.68855 64.3139
5842132 5.72539 14.1912 12.5291 31.7203 10.7756 5.68824 64.166
5842142 5.70777 14.1452 12.6018 31.6911 10.7282 5.7151 64.1459
5842147 5.70777 14.1452 12.6018 31.6911 10.7282 5.7151 64.1459
5842157 5.7342 14.0163 12.6954 31.584 10.6086 5.74629 64.0298
5842167 5.71658 13.9242 12.9138 31.5255 10.4632 5.8049 64.08
5842177 5.71658 13.9242 12.9138 31.5255 10.4632 5.8049 64.08
5842187 5.78705 13.7768 13.2153 31.6911 10.2627 5.89633 64.4703
5842197 5.78705 13.7768 13.2153 31.6911 10.2627 5.89633 64.4703
5842209 5.72539 13.6111 13.4856 31.6814 10.1085 6.00679 64.5034
5842217 5.75181 13.4821 13.7664 31.7593 9.93029 6.08984 64.7596
5842227 5.75181 13.4821 13.7664 31.7593 9.93029 6.08984 64.7596
5842237 5.83109 13.2519 14.0991 31.467 9.58589 6.14467 64.6491
5842247 5.80466 13.2519 14.4734 31.467 9.40078 6.20426 64.997
5842257 5.80466 12.9664 14.4734 31.3307 9.29887 6.27943 64.5751
5842268 5.85751 12.7638 14.8789 31.165 8.96634 6.36105 64.6653
5842288 5.8487 12.5981 15.2116 31.0384 8.72382 6.44621 64.6968
5842300 5.91036 12.4599 15.5339 30.6487 8.39013 6.46269 64.5529
5842309 5.91036 12.4599 15.5339 30.6487 8.39013 6.46269 64.5529
5842323 5.96321 12.3862 15.7939 30.3175 8.12378 6.46018 64.4608
5842334 6.07772 12.2941 16.1162 29.8401 7.74946 6.43212 64.3282
5842339 6.07772 12.2941 16.1162 29.8401 7.74946 6.43212 64.3282
5842349 6.21865 12.2021 16.3554 29.3628 7.40223 6.38398 64.1388
5842360 6.42124 12.1652 16.7089 28.9244 6.99142 6.3174 64.2197
5842370 6.42124 12.1652 16.7089 28.9244 6.99142 6.3174 64.2197
5842380 6.55337 12.1376 17.0492 28.4957 6.62819 6.27078 64.2359
5842390 6.55337 12.1376 17.0492 28.4957 6.62819 6.27078 64.2359
5842400 6.68549 11.9995 17.443 28.0086 6.18977 6.26007 64.1365
5842410 6.88808 11.9166 17.9745 27.3364 5.6111 6.20121 64.1156
5842420 6.88808 11.9166 17.9745 27.3364 5.6111 6.20121 64.1156
5842433 7.17876 11.76 18.5947 26.7324 4.9478 6.15917 64.2658
5842440 7.17876 11.76 18.5947 26.7324 4.9478 6.15917 64.2658
5842455 7.38135 11.5298 19.3133 26.0894 4.2466 6.17865 64.3138
5842460 7.57513 11.3364 20.2287 25.31 3.43 6.19715 64.4503
5842487 7.82176 11.0693 20.9867 24.6573 2.68001 6.21822 64.5351
5842500 8.01554 10.8391 21.7939 23.9559 1.92927 6.24456 64.6044
5842504 8.01554 10.8391 21.7939 23.9559 1.92927 6.24456 64.6044
5842510 8.20052 10.5813 22.5124 23.2544 1.20945 6.27088 64.5487
5842522 8.20052 10.5813 22.5124 23.2544 1.20945 6.27088 64.5487
5842530 8.27979 10.2405 23.2507 22.6212 0.516835 6.37149 64.3922
5842548 8.50881 10.0287 24.117 21.8418 -0.292741 6.37741 64.4963
5842550 8.50881 10.0287 24.117 21.8418 -0.292741 6.37741 64.4963
5842560 8.65855 9.66956 24.8159 21.1599 -1.02831 6.4493 64.3039
5842570 8.73782 9.38407 25.5049 20.5461 -1.68004 6.52826 64.1729
5842592 8.85233 9.13543 26.3023 20.0006 -2.34038 6.60635 64.2906
5842602 8.85233 9.13543 26.3023 20.0006 -2.34038 6.60635 64.2906
5842612 8.95803 8.83153 27.1291 19.5427 -2.9913 6.72083 64.4614
5842622 8.97565 8.63814 27.8083 19.0166 -3.54183 6.79975 64.4387
5842649 8.98446 8.41712 28.3005 18.5782 -4.00186 6.87858 64.2803
5842655 9.00207 8.15926 28.7632 18.1691 -4.46103 6.96737 64.0936
5842662 9.00207 8.15926 28.7632 18.1691 -4.46103 6.96737 64.0936
5842672 9.06373 8.00271 29.2455 17.867 -4.84562 7.02242 64.179
5842682 9.06373 8.00271 29.2455 17.867 -4.84562 7.02242 64.179
5842692 9.07254 7.76327 29.5999 17.6625 -5.16656 7.1203 64.0982
5842703 9.12539 7.73564 29.9838 17.5261 -5.37799 7.14193 64.3709
5842713 9.12539 7.73564 29.9838 17.5261 -5.37799 7.14193 64.3709
5842728 9.09016 7.65276 30.4366 17.4481 -5.58037 7.22798 64.6276
5842733 9.05492 7.51463 30.7713 17.2436 -5.83269 7.3033 64.5844
5842743 9.05492 7.51463 30.7713 17.2436 -5.83269 7.3033 64.5844
5842766 9.09016 7.39491 30.9977 17.0292 -6.07008 7.33395 64.512
5842767 9.09016 7.39491 30.9977 17.0292 -6.07008 7.33395 64.512
5842773 9.04611 7.29361 31.1453 16.9239 -6.20023 7.38938 64.4089
5842792 8.9228 7.24756 31.3127 16.8572 -6.26773 7.46023 64.3403
5842793 8.9228 7.24756 31.3127 16.8572 -6.26773 7.46023 64.3403
5842803 8.97565 7.21993 31.48 16.7144 -6.41454 7.45431 64.3901
5842818 9.04611 7.10943 31.5883 16.6669 -6.54322 7.47538 64.4107
5842824 9.04611 7.10943 31.5883 16.6669 -6.54322 7.47538 64.4107
5842834 8.98446 7.11863 31.6966 16.5717 -6.59872 7.49522 64.3713
5842847 8.98446 7.11863 31.6966 16.5717 -6.59872 7.49522 64.3713
5842854 8.95803 7.05417 31.7753 16.5717 -6.64533 7.53617 64.3592
5842871 8.98446 7.0818 31.795 16.5431 -6.65893 7.51623 64.4044
5842884 8.90518 7.07259 31.8541 16.6288 -6.61563 7.56394 64.4606
5842896 8.93161 7.0818 32.0903 16.5526 -6.72305 7.56992 64.6564
5842906 8.93161 7.0818 32.0903 16.5526 -6.72305 7.56992 64.6564
5842922 9.00207 7.06338 32.0903 16.4765 -6.78939 7.54299 64.6323
5842926 8.97565 7.06338 32.1199 16.4765 -6.79026 7.55561 64.6354
5842935 8.97565 7.03575 32.1199 16.3813 -6.85078 7.55429 64.5126
5842952 9.07254 7.12784 32.0017 16.2956 -6.84163 7.46468 64.4977
5842965 9.04611 7.12784 31.7753 16.1814 -6.82676 7.43391 64.1307
5842982 9.1342 7.27519 31.6671 16.1814 -6.74807 7.33897 64.2579
5842985 9.1342 7.27519 31.6671 16.1814 -6.74807 7.33897 64.2579
5842997 9.20466 7.33044 31.5391 16.1433 -6.72323 7.27542 64.2175
5843011 9.28394 7.39491 31.4899 16.0767 -6.73285 7.21166 64.2454
5843018 9.28394 7.39491 31.4899 16.0767 -6.73285 7.21166 64.2454
5843027 9.37202 7.42254 31.4899 16.0672 -6.74892 7.17057 64.3516
5843038 9.37202 7.42254 31.4899 16.0672 -6.74892 7.17057 64.3516
5843049 9.40725 7.50542 31.4702 16.0862 -6.70313 7.12987 64.4691
5843064 9.49534 7.56988 31.4013 16.1433 -6.64891 7.07618 64.6098
5843078 9.50414 7.65276 31.2438 16.1243 -6.5753 7.02313 64.525
5843090 9.54819 7.70802 31.0272 16.1243 -6.49886 6.96236 64.4077
5843108 9.60984 7.83694 30.8992 16.2195 -6.37053 6.89345 64.5655
5843118 9.60984 7.83694 30.8992 16.2195 -6.37053 6.89345 64.5655
5843128 9.53938 7.83694 30.7221 16.1719 -6.32198 6.8891 64.2703
5843148 9.52176 7.93824 30.6827 16.2766 -6.20529 6.86889 64.4193
5843149 9.52176 7.93824 30.6827 16.2766 -6.20529 6.86889 64.4193
5843159 9.46891 7.95666 30.535 16.3432 -6.10541 6.87036 64.3038
5843170 9.48653 7.96587 30.4268 16.4479 -6.0237 6.86078 64.3271
5843179 9.48653 7.96587 30.4268 16.4479 -6.0237 6.86078 64.3271
5843193 9.48653 8.03955 30.3578 16.486 -5.94953 6.83187 64.3699
5843199 9.50414 8.03955 30.2496 16.5336 -5.89978 6.81818 64.3269
5843210 9.50414 8.03955 30.2496 16.5336 -5.89978 6.81818 64.3269
5843220 9.50414 8.10401 30.1118 16.5907 -5.80044 6.78604 64.3106
5843229 9.50414 8.10401 30.1118 16.5907 -5.80044 6.78604 64.3106
5843243 9.52176 8.15005 29.9346 16.5812 -5.73518 6.74054 64.1876
5843249 9.53057 8.22373 29.7869 16.6478 -5.62633 6.70218 64.189
5843270 9.53057 8.22373 29.7869 16.6478 -5.62633 6.70218 64.189
5843271 9.60984 8.2974 29.6393 16.7144 -5.53885 6.64007 64.2609
5843279 9.60984 8.2974 29.6393 16.7144 -5.53885 6.64007 64.2609
5843296 9.55699 8.30661 29.5408 16.8477 -5.42531 6.6593 64.2521
5843300 9.53057 8.33424 29.4325 17.0877 -5.2579 6.67595 64.385
5843328 9.51295 8.38028 29.2455 17.1169 -5.15958 6.64592 64.2557
5843331 9.53938 8.50921 29.0585 17.263 -4.9812 6.58837 64.3701
5843340 9.53938 8.50921 29.0585 17.263 -4.9812 6.58837 64.3701
5843360 9.47772 8.63814 28.7435 17.4871 -4.69954 6.55391 64.3465
5843362 9.47772 8.63814 28.7435 17.4871 -4.69954 6.55391 64.3465
5843374 9.40725 8.68418 28.4777 17.6527 -4.49538 6.54894 64.2219
5843390 9.41606 8.82232 28.1529 17.9158 -4.2106 6.49157 64.307
5843392 9.41606 8.82232 28.1529 17.9158 -4.2106 6.49157 64.307
5843401 9.43368 8.9052 27.8772 18.0716 -4.01868 6.44213 64.2878
5843420 9.39845 9.04334 27.5327 18.208 -3.77042 6.38 64.1825
5843422 9.39845 9.04334 27.5327 18.208 -3.77042 6.38 64.1825
5843430 9.32798 9.08938 27.2374 18.4516 -3.51932 6.38118 64.1063
5843448 9.32798 9.08938 27.2374 18.4516 -3.51932 6.38118 64.1063
5843451 9.25751 9.2091 26.9224 18.7925 -3.1856 6.36826 64.1816
5843461 9.2399 9.29198 26.3712 19.1433 -2.80102 6.31946 64.0463
5843473 9.2399 9.29198 26.3712 19.1433 -2.80102 6.31946 64.0463
5843482 9.10777 9.513 25.938 19.4648 -2.36946 6.27472 64.0236
5843500 9.0285 9.65114 25.5541 19.7862 -2.00923 6.24666 64.02
5843512 8.99326 9.79848 25.2195 20.1272 -1.671 6.21038 64.1384
5843526 8.99326 9.79848 25.2195 20.1272 -1.671 6.21038 64.1384
5843533 8.97565 9.89057 24.8749 20.3805 -1.39558 6.17324 64.1217
5843552 8.84352 10.0011 24.6781 20.5948 -1.14074 6.18278 64.1175
5843553 8.84352 10.0011 24.6781 20.5948 -1.14074 6.18278 64.1175
5843563 8.80829 10.084 24.4024 20.9066 -0.864534 6.17202 64.2013
5843580 8.73782 10.2589 24.0973 21.2768 -0.504646 6.14657 64.3708
5843583 8.73782 10.2589 24.0973 21.2768 -0.504646 6.14657 64.3708
5843593 8.54404 10.3602 23.6149 21.7152 -0.0325203 6.17095 64.2344
5843606 8.54404 10.3602 23.6149 21.7152 -0.0325203 6.17095 64.2344
5843613 8.44715 10.4707 23.1326 22.1049 0.388068 6.15371 64.1554
5843623 8.35907 10.5444 22.8274 22.3777 0.676808 6.154 64.1086
5843643 8.2886 10.7102 22.5124 22.592 0.975424 6.10866 64.1032
5843661 8.30622 10.7931 22.1975 22.8063 1.20731 6.0616 64.103
5843664 8.30622 10.7931 22.1975 22.8063 1.20731 6.0616 64.103
5843677 8.21813 10.9128 21.8234 23.1375 1.56369 6.04523 64.0919
5843689 8.21813 10.9128 21.8234 23.1375 1.56369 6.04523 64.0919
5843694 8.14767 11.0233 21.5379 23.459 1.86881 6.03713 64.1679
5843706 7.94508 11.2351 21.1048 23.8585 2.35553 6.0294 64.1434
5843718 7.94508 11.2351 21.1048 23.8585 2.35553 6.0294 64.1434
5843725 7.84819 11.4009 20.6323 24.3748 2.83831 6.01297 64.2561
5843735 7.81295 11.5298 20.1008 24.8619 3.29598 5.97615 64.3054
5843762 7.6544 11.7508 19.7956 25.2808 3.71487 5.97175 64.4816
5843782 7.52228 11.7508 19.3723 25.2808 3.96434 5.95531 63.9262
5843785 7.52228 11.8061 19.3723 25.6218 4.09392 5.98525 64.3224
5843799 7.42539 11.9902 18.8998 25.8653 4.49136 5.92456 64.1808
5843806 7.31969 12.0731 18.5356 26.0504 4.79387 5.90661 63.9789
5843815 7.26684 12.2205 18.2501 26.3037 5.07768 5.8712 64.0412
5843825 7.26684 12.2205 18.2501 26.3037 5.07768 5.8712 64.0412
5843837 7.21399 12.331 18.0434 26.5862 5.32134 5.86323 64.1747
5843848 7.12591 12.3586 17.8072 26.8103 5.55202 5.88116 64.102
5843873 7.1171 12.4875 17.6202 27.0149 5.74613 5.84461 64.2397
5843877 7.1171 12.4875 17.6202 27.0149 5.74613 5.84461 64.2397
5843887 7.07306 12.6073 17.4528 27.2 5.93838 5.82262 64.3331
5843903 7.00259 12.6625 17.2461 27.3948 6.14588 5.82585 64.306
5843908 7.00259 12.6625 17.2461 27.3948 6.14588 5.82585 64.306
5843918 6.99378 12.7822 17.0591 27.502 6.30717 5.77856 64.3371
5843936 7.09067 12.9019 16.9584 27.5702 6.36343 5.70416 64.5212
5843948 7.10829 13.0493 16.8752 27.541 6.42937 5.63509 64.5738
5843968 7.10829 13.0493 16.8752 27.541 6.42937 5.63509 64.5738
5843969 7.07306 13.1598 16.5945 27.463 6.59324 5.55869 64.2904
5843983 7.12591 13.3716 16.4177 27.4143 6.70077 5.44101 64.3296
5843996 7.12591 13.3716 16.4177 27.4143 6.70077 5.44101 64.3296
5843999 7.14352 13.5282 16.3138 27.3364 6.7657 5.35863 64.3218
5844009 7.18756 13.7308 16.0642 27.2585 6.90269 5.23132 64.241
5844030 7.19637 13.8689 15.9187 27.2097 6.99587 5.15544 64.1937
5844045 7.19637 13.8689 15.9187 27.2097 6.99587 5.15544 64.1937
5844049 7.25803 13.9794 15.7419 27.0734 7.04609 5.05314 64.0527
5844059 7.3285 14.1176 15.6587 27.0344 7.0802 4.96897 64.1391
5844079 7.31088 14.2189 15.4716 26.9857 7.19759 4.90588 63.987
5844096 7.36373 14.403 15.2636 26.9467 7.31606 4.79317 63.9771
5844099 7.36373 14.403 15.2636 26.9467 7.31606 4.79317 63.9771
5844109 7.36373 14.6241 15.1076 27.0052 7.47179 4.7094 64.1006
5844119 7.36373 14.6241 15.1076 27.0052 7.47179 4.7094 64.1006
5844129 7.31088 14.7161 14.8997 26.9954 7.62685 4.66226 63.9221
5844143 7.35492 14.8543 14.7437 27.0441 7.73463 4.58896 63.9971
5844151 7.35492 14.8543 14.7437 27.0441 7.73463 4.58896 63.9971
5844166 7.33731 15.0016 14.6502 27.0928 7.84426 4.54201 64.0819
5844171 7.3285 15.1121 14.4942 27.1708 7.97911 4.49828 64.1056
5844181 7.3285 15.1121 14.4942 27.1708 7.97911 4.49828 64.1056
5844192 7.31969 15.2226 14.4006 27.2779 8.08938 4.46962 64.2209
5844201 7.31969 15.2226 14.4006 27.2779 8.08938 4.46962 64.2209
5844212 7.21399 15.2134 14.2135 27.502 8.2971 4.51056 64.1429
5844222 7.15233 15.3239 14.0887 27.7066 8.47557 4.50876 64.2716
5844242 7.1171 15.3147 14.0263 27.7066 8.52412 4.51207 64.1647
5844252 7.08187 15.2503 14.0263 27.6481 8.51094 4.53289 64.0066
5844263 7.08187 15.2503 14.0263 27.6481 8.51094 4.53289 64.0066
5844273 7.18756 15.2319 14.2031 27.541 8.33115 4.51767 64.1635
5844283 7.09067 15.1674 14.2031 27.6092 8.38252 4.57798 64.0703
5844294 7.09067 15.1674 14.2031 27.6092 8.38252 4.57798 64.0703
5844306 7.07306 15.1766 14.2654 27.7261 8.39188 4.60963 64.2412
5844323 7.00259 15.0845 14.307 27.7358 8.38559 4.66765 64.1299
5844333 7.03782 15.0293 14.307 27.7066 8.34533 4.66909 64.0807
5844344 7.03782 15.0293 14.307 27.7066 8.34533 4.66909 64.0807
5844358 7.07306 15.02 14.411 27.9112 8.32378 4.71062 64.4153
5844364 7.04663 14.9372 14.4006 27.8917 8.31631 4.73936 64.2761
5844388 7.02902 14.928 14.4422 27.9014 8.30403 4.75579 64.3006
5844403 7.02902 14.928 14.4422 27.9014 8.30403 4.75579 64.3006
5844404 6.97617 14.8359 14.3486 28.0086 8.38395 4.80258 64.1693
5844423 6.97617 14.8267 14.411 27.9307 8.32891 4.80295 64.1445
5844425 6.97617 14.8267 14.411 27.9307 8.32891 4.80295 64.1445
5844434 6.97617 14.799 14.3798 27.8332 8.31257 4.791 63.9882
5844451 7.05544 14.7622 14.4838 27.9014 8.22564 4.8053 64.2029
5844456 7.05544 14.7622 14.4838 27.9014 8.22564 4.8053 64.2029
5844466 7.04663 14.8267 14.4422 27.7748 8.23549 4.76134 64.0903
5844478 7.04663 14.8267 14.4422 27.7748 8.23549 4.76134 64.0903
5844486 7.06425 14.7438 14.5254 27.5215 8.09477 4.75426 63.8549
5844504 7.07306 14.7622 14.6502 27.4241 8.0047 4.75023 63.9095
5844507 7.07306 14.7622 14.6502 27.4241 8.0047 4.75023 63.9095
5844515 7.16114 14.7714 14.7437 27.1805 7.84844 4.69606 63.8568
5844530 7.17876 14.7898 14.9309 26.8688 7.66406 4.6648 63.7682
5844535 7.17876 14.7898 14.9309 26.8688 7.66406 4.6648 63.7682
5844546 7.35492 14.6885 15.326 26.4986 7.24391 4.64578 63.868
5844557 7.35492 14.6885 15.326 26.4986 7.24391 4.64578 63.868
5844566 7.46943 14.6333 15.7003 26.1284 6.87921 4.62824 63.9314
5844582 7.66321 14.4859 16.241 25.7874 6.3765 4.64631 64.1775
5844589 7.66321 14.4859 16.241 25.7874 6.3765 4.64631 64.1775
5844595 7.8658 14.357 16.6985 25.4074 5.90722 4.63629 64.3287
5844610 7.98912 14.2004 17.0886 24.9106 5.46565 4.62923 64.1888
5844615 7.98912 14.2004 17.0886 24.9106 5.46565 4.62923 64.1888
5844625 8.20933 13.9978 17.6595 24.141 4.79238 4.59164 64.0077
5844636 8.20933 13.9978 17.6595 24.141 4.79238 4.59164 64.0077
5844645 8.38549 13.7031 18.3584 23.5175 4.09473 4.64021 63.9645
5844664 8.70259 13.3716 19.3625 22.5238 3.06061 4.64632 63.9605
5844667 8.70259 13.3716 19.3625 22.5238 3.06061 4.64632 63.9605
5844677 9.08135 13.1046 20.3468 21.6178 2.06317 4.62476 64.1505
5844690 9.3456 12.6441 21.4395 20.7799 1.02748 4.7259 64.2091
5844697 9.3456 12.6441 21.4395 20.7799 1.02748 4.7259 64.2091
5844716 9.64508 12.2849 22.4042 20.0201 0.099352 4.77689 64.3542
5844719 9.64508 12.2849 22.4042 20.0201 0.099352 4.77689 64.3542
5844727 9.81244 11.9074 23.3393 19.0946 -0.837764 4.84323 64.1537
5844740 10.0062 11.5298 24.2056 18.4808 -1.6354 4.93995 64.2224
5844757 10.2 11.2627 24.7962 17.945 -2.25394 4.9713 64.2039
5844768 10.2 10.8667 25.3277 17.5163 -2.79478 5.11119 63.9108
5844778 10.2 10.8667 25.3277 17.5163 -2.79478 5.11119 63.9108
5844793 10.2793 10.5997 25.879 17.1948 -3.2695 5.20576 63.9528
5844804 10.2793 10.5997 25.879 17.1948 -3.2695 5.20576 63.9528
5844812 10.2793 10.2497 26.2137 16.9334 -3.65516 5.32807 63.676
5844818 10.385 9.92741 27.0208 16.5907 -4.25807 5.46724 63.9239
5844833 10.385 9.92741 27.0208 16.5907 -4.25807 5.46724 63.9239
5844838 10.4819 9.7156 27.6213 16.248 -4.73706 5.54231 64.0668
5844848 10.4554 9.39328 28.143 16.0101 -5.15419 5.69618 64.0018
5844858 10.4554 9.39328 28.143 16.0101 -5.15419 5.69618 64.0018
5844868 10.5611 9.21831 28.5958 15.7912 -5.51204 5.75243 64.1664
5844882 10.5611 9.21831 28.5958 15.7912 -5.51204 5.75243 64.1664
5844888 10.5259 9.0065 28.96 15.6008 -5.80353 5.8575 64.0932
5844898 10.5523 8.81311 29.531 15.3533 -6.19337 5.95773 64.2497
5844918 10.6668 8.68418 30.0035 15.1915 -6.50491 6.00594 64.546
5844942 10.6668 8.68418 30.0035 15.1915 -6.50491 6.00594 64.546
5844943 10.6404 8.43554 30.4464 14.8964 -6.89042 6.11628 64.4188
5844948 10.6492 8.26056 30.8107 14.6585 -7.1999 6.18821 64.3789
5844958 10.6492 8.26056 30.8107 14.6585 -7.1999 6.18821 64.3789
5844972 10.6845 7.9935 31.2635 14.449 -7.57308 6.2978 64.3905
5844978 10.6845 7.8922 31.736 14.2111 -7.87196 6.36287 64.5237
5845002 10.7021 7.6896 32.1297 14.0207 -8.18127 6.45131 64.5421
5845009 10.7021 7.6896 32.1297 14.0207 -8.18127 6.45131 64.5421
5845032 10.7109 7.46858 32.4447 13.8113 -8.48744 6.53597 64.4355
5845033 10.7021 7.42254 32.6908 13.659 -8.65123 6.56661 64.4744
5845042 10.7021 7.42254 32.6908 13.659 -8.65123 6.56661 64.4744
5845059 10.7461 7.21993 32.9172 13.4591 -8.93045 6.62323 64.3424
5845064 10.8078 7.1831 33.0845 13.2402 -9.12259 6.60817 64.3156
5845076 10.8078 7.1831 33.0845 13.2402 -9.12259 6.60817 64.3156
5845085 10.843 7.09101 33.2716 13.0689 -9.31735 6.62933 64.2745
5845089 10.843 7.09101 33.2716 13.0689 -9.31735 6.62933 64.2745
5845104 10.8254 7.01733 33.37 12.9832 -9.42227 6.66175 64.1959
5845122 10.8166 7.07259 33.3306 13.0308 -9.35549 6.64716 64.2506
5845137 10.7813 7.09101 33.3208 13.0689 -9.31431 6.65649 64.262
5845142 10.8518 7.11863 33.3995 13.1545 -9.29034 6.64483 64.5245
5845152 10.8518 7.11863 33.3995 13.1545 -9.29034 6.64483 64.5245
5845164 10.8694 7.10022 33.3011 13.1355 -9.29057 6.62986 64.4062
5845172 10.887 7.13705 33.4488 13.1069 -9.32637 6.62706 64.5798
5845192 10.8782 7.15547 33.2519 13.126 -9.25636 6.60071 64.4116
5845214 10.8254 7.13705 33.1633 13.2116 -9.18594 6.62426 64.3374
5845223 10.8694 7.24756 32.9959 13.2592 -9.07169 6.55676 64.3722
5845238 10.8694 7.24756 32.9959 13.2592 -9.07169 6.55676 64.3722
5845244 10.8254 7.33044 32.7794 13.2878 -8.94794 6.51901 64.223
5845254 10.8606 7.36728 32.6219 13.4782 -8.79752 6.49923 64.3279
5845271 10.8606 7.36728 32.6219 13.4782 -8.79752 6.49923 64.3279
5845274 10.8254 7.45016 32.5825 13.6019 -8.67043 6.49446 64.46
5845284 10.7902 7.46858 32.3561 13.5924 -8.59923 6.46884 64.2072
5845301 10.7902 7.46858 32.3561 13.5924 -8.59923 6.46884 64.2072
5845307 10.8342 7.57909 32.1888 13.7637 -8.42068 6.41782 64.3658
5845316 10.8342 7.57909 32.1888 13.7637 -8.42068 6.41782 64.3658
5845326 10.7109 7.64355 31.9624 13.9541 -8.19796 6.43262 64.2709
5845337 10.7109 7.74485 31.7064 14.1445 -7.98052 6.39012 64.3066
5845344 10.7109 7.74485 31.7064 14.1445 -7.98052 6.39012 64.3066
5845355 10.658 7.81853 31.4702 14.3919 -7.73941 6.3847 64.3387
5845366 10.5876 7.92904 31.165 14.5252 -7.51414 6.3483 64.2068
5845379 10.5876 7.92904 31.165 14.5252 -7.51414 6.3483 64.2068
5845386 10.5347 7.9935 30.9485 14.7822 -7.27817 6.34989 64.2589
5845396 10.5347 7.9935 30.9485 14.7822 -7.27817 6.34989 64.2589
5845408 10.4731 8.06717 30.6039 15.0106 -7.01396 6.33024 64.1548
5845416 10.4202 8.17768 30.2003 15.3057 -6.68335 6.29637 64.104
5845432 10.4202 8.17768 30.2003 15.3057 -6.68335 6.29637 64.104
5845436 10.3585 8.36186 29.7475 15.6389 -6.28068 6.23943 64.1068
5845447 10.2528 8.52763 29.3341 16.0386 -5.85344 6.21768 64.1532
5845467 10.1295 8.74865 28.7632 16.4479 -5.3426 6.16318 64.0893
5845484 10.1295 8.74865 28.7632 16.4479 -5.3426 6.16318 64.0893
5845487 9.97098 8.87757 28.1726 16.9905 -4.79424 6.16634 64.0116
5845497 9.83886 9.03413 27.5032 17.5845 -4.1914 6.14785 63.9607
5845512 9.83886 9.03413 27.5032 17.5845 -4.1914 6.14785 63.9607
5845517 9.57461 9.3104 26.7944 18.2762 -3.43302 6.14151 63.9557
5845527 9.47772 9.54984 26.2038 18.9484 -2.79811 6.10582 64.1798
5845537 9.47772 9.54984 26.2038 18.9484 -2.79811 6.10582 64.1798
5845548 9.31917 9.78927 25.5246 19.5914 -2.12657 6.07422 64.2245
5845562 9.31917 9.78927 25.5246 19.5914 -2.12657 6.07422 64.2245
5845567 9.10777 10.0195 24.8946 20.1759 -1.48251 6.06172 64.1978
5845577 8.96684 10.2405 24.3237 20.8189 -0.86678 6.04551 64.35
5845589 8.96684 10.2405 24.3237 20.8189 -0.86678 6.04551 64.35
5845597 8.74663 10.4615 23.7823 21.4716 -0.231045 6.06071 64.4621
5845619 8.53523 10.5628 23.0243 22.0464 0.408962 6.07133 64.1688
5845620 8.53523 10.5628 23.0243 22.0464 0.408962 6.07133 64.1688
5845628 8.27098 10.8115 22.3845 22.6699 1.10153 6.07418 64.1369
5845648 8.27098 10.8115 22.3845 22.6699 1.10153 6.07418 64.1369
5845650 8.01554 10.9588 21.6462 23.235 1.77433 6.08564 63.8555
5845658 7.84819 11.1246 21.0162 23.8585 2.39581 6.08526 63.8474
5845674 7.84819 11.1246 21.0162 23.8585 2.39581 6.08526 63.8474
5845679 7.67202 11.3824 20.4158 24.443 3.02663 6.05609 63.9132
5845689 7.53109 11.585 19.8743 25.1152 3.62479 6.05408 64.1057
5845704 7.53109 11.585 19.8743 25.1152 3.62479 6.05408 64.1057
5845709 7.34611 11.8889 19.3822 25.8458 4.26854 6.04834 64.4631
5845726 7.16995 12.1652 18.7226 26.4693 4.93667 6.01068 64.5272
5845731 7.16995 12.1652 18.7226 26.4693 4.93667 6.01068 64.5272
5845740 6.95855 12.3862 18.1616 27.1221 5.56574 6.0203 64.6284
5845757 6.95855 12.3862 18.1616 27.1221 5.56574 6.0203 64.6284
5845760 6.83523 12.6349 17.6202 27.5994 6.09793 5.97069 64.6897
5845770 6.68549 12.7914 17.0886 27.9696 6.58052 5.94589 64.5352
5845787 6.68549 12.7914 17.0886 27.9696 6.58052 5.94589 64.5352
5845792 6.60622 13.0585 16.5009 28.3203 7.0836 5.85163 64.486
5845802 6.4829 13.2335 16.0642 28.4762 7.45546 5.79489 64.2568
5845831 6.43005 13.4269 15.6275 28.6126 7.79361 5.70616 64.097
5845842 6.36839 13.6663 15.17 28.7003 8.1481 5.59478 63.905
5845852 6.36839 13.9426 14.7645 28.8367 8.46722 5.46615 63.9122
5845872 6.31554 14.2373 14.411 28.9438 8.78399 5.35195 63.9077
5845882 6.31554 14.4122 14.2239 28.9828 8.93714 5.27389 63.9344
5845903 6.31554 14.5964 14.0575 28.9146 9.05468 5.17973 63.8841
5845918 6.31554 14.5964 14.0575 28.9146 9.05468 5.17973 63.8841
5845923 6.30674 14.7254 13.9743 29.0218 9.16241 5.14555 64.0282
5845933 6.40363 14.9832 13.9015 29.2458 9.26791 5.05791 64.5342
5845953 6.3772 15.1029 13.7352 29.314 9.4161 5.01379 64.5293
5845963 6.32435 15.1674 13.5584 29.3822 9.57083 4.99335 64.4324
5845983 6.31554 15.2687 13.3817 29.2458 9.66231 4.91575 64.2117
5846007 6.28912 15.2595 13.2465 29.1582 9.72665 4.89171 63.9532
5846014 6.3772 15.4437 13.1737 29.0802 9.74369 4.78341 64.0748
5846035 6.28031 15.5265 13.0593 28.9731 9.85286 4.7523 63.8392
5846044 6.33316 15.5634 13.0489 28.9633 9.83613 4.72135 63.9088
5846064 6.33316 15.5634 13.0489 28.9633 9.83613 4.72135 63.9088
5846065 6.40363 15.6647 13.1633 28.8269 9.72731 4.66493 64.0585
5846076 6.45648 15.7291 13.1321 28.7295 9.70771 4.60816 64.0472
5846096 6.49171 15.8673 13.1425 28.5639 9.67643 4.52992 64.0654
5846106 6.49171 15.8673 13.1425 28.5639 9.67643 4.52992 64.0654
5846127 6.51813 15.9502 13.1425 28.5639 9.68194 4.49666 64.1747
5846128 6.47409 16.0515 13.1425 28.4762 9.709 4.4649 64.1443
5846158 6.52694 16.1528 13.1113 28.447 9.71446 4.40828 64.238
5846160 6.52694 16.1343 13.0697 28.4372 9.73025 4.40538 64.1683
5846167 6.52694 16.1343 13.0697 28.4372 9.73025 4.40538 64.1683
5846186 6.56218 16.208 13.0697 28.4178 9.72408 4.36927 64.2577
5846187 6.56218 16.208 13.0697 28.4178 9.72408 4.36927 64.2577
5846197 6.53575 16.2264 12.9346 28.447 9.8229 4.35413 64.1437
5846212 6.51813 16.3369 12.7786 28.4957 9.95484 4.30829 64.1294
5846217 6.51813 16.3369 12.7786 28.4957 9.95484 4.30829 64.1294
5846227 6.50933 16.4106 12.7266 28.5347 10.0144 4.28661 64.1812
5846239 6.3772 16.3922 12.5914 28.5639 10.1633 4.31428 63.9247
5846248 6.3772 16.3922 12.5914 28.5639 10.1633 4.31428 63.9247
5846266 6.35078 16.5027 12.581 28.6613 10.2316 4.30345 64.0958
5846268 6.35078 16.5027 12.581 28.6613 10.2316 4.30345 64.0958
5846280 6.29793 16.4475 12.5187 28.6029 10.2689 4.31588 63.8669
5846292 6.34197 16.383 12.5498 28.6711 10.2283 4.33866 63.9459
5846298 6.34197 16.383 12.5498 28.6711 10.2283 4.33866 63.9459
5846318 6.39482 16.3554 12.6538 28.6321 10.1266 4.34186 64.0361
5846320 6.32435 16.3277 12.685 28.7685 10.1734 4.39932 64.1056
5846329 6.32435 16.3277 12.685 28.7685 10.1734 4.39932 64.1056
5846346 6.40363 16.2725 12.8098 28.71 10.0353 4.40301 64.1959
5846349 6.40363 16.2725 12.8098 28.71 10.0353 4.40301 64.1959
5846359 6.3772 16.0515 13.0489 28.4762 9.81237 4.47897 63.9538
5846372 6.40363 15.8765 13.2985 28.3009 9.57869 4.53649 63.8794
5846379 6.40363 15.8765 13.2985 28.3009 9.57869 4.53649 63.8794
5846396 6.53575 15.7291 13.6728 28.0865 9.21805 4.56728 64.0242
5846399 6.63264 15.5265 14.1199 27.9112 8.83514 4.64367 64.1902
5846423 6.71192 15.1766 14.6813 27.3559 8.2671 4.72784 63.9257
5846430 6.71192 15.1766 14.6813 27.3559 8.2671 4.72784 63.9257
5846451 6.94974 14.799 15.3884 26.8395 7.54198 4.80155 63.9767
5846452 7.12591 14.4307 16.3346 26.1868 6.69381 4.90765 64.0779
5846479 7.33731 13.9978 17.3248 25.4367 5.76175 5.01423 64.0967
5846481 7.63679 13.5834 18.575 24.7158 4.68425 5.13181 64.511
5846492 7.63679 13.5834 18.575 24.7158 4.68425 5.13181 64.511
5846517 7.95389 13.0493 19.8153 23.7903 3.50974 5.24752 64.6087
5846518 8.22694 12.5428 21.0654 23.0011 2.41052 5.38977 64.8363
5846522 8.22694 12.5428 21.0654 23.0011 2.41052 5.38977 64.8363
5846533 8.45596 12.0823 22.04 22.2315 1.47275 5.49296 64.8098
5846542 8.45596 12.0823 22.04 22.2315 1.47275 5.49296 64.8098
5846552 8.66736 11.6495 22.7192 21.4814 0.675926 5.55284 64.5174
5846569 8.73782 11.2719 23.2803 20.8968 0.0586987 5.64773 64.1869
5846572 8.73782 11.2719 23.2803 20.8968 0.0586987 5.64773 64.1869
5846582 8.90518 10.968 23.8217 20.2441 -0.592233 5.67554 63.939
5846596 8.90518 10.968 23.8217 20.2441 -0.592233 5.67554 63.939
5846603 9.08135 10.701 24.3926 19.6499 -1.22331 5.70158 63.8248
5846612 9.17824 10.3787 25.1309 19.0946 -1.89547 5.80142 63.7823
5846624 9.17824 10.3787 25.1309 19.0946 -1.89547 5.80142 63.7823
5846634 9.29275 10.1392 25.8396 18.5295 -2.53273 5.86287 63.8011
5846652 9.48653 9.83532 26.5976 17.8865 -3.27644 5.91534 63.806
5846663 9.69793 9.56826 27.4737 17.2923 -4.02574 5.9735 64.0321
5846693 9.8829 9.26436 28.2218 16.8001 -4.69081 6.04838 64.1691
5846696 10.1031 9.03413 28.9896 16.2671 -5.35434 6.08429 64.3939
5846734 10.2617 8.8039 29.6393 15.696 -5.97859 6.11864 64.4008
5846736 10.4378 8.50921 30.2693 15.1915 -6.60106 6.17481 64.4078
5846738 10.4378 8.50921 30.2693 15.1915 -6.60106 6.17481 64.4078
5846743 10.6052 8.26977 30.8402 14.7536 -7.14375 6.2167 64.4688
5846763 10.7285 8.04875 31.2635 14.2587 -7.65347 6.23915 64.2994
5846773 10.8518 7.82774 31.7163 13.8494 -8.12939 6.27738 64.2452
5846794 10.9135 7.63434 32.1789 13.4591 -8.56845 6.33089 64.1859
5846804 10.9927 7.49621 32.553 13.145 -8.92101 6.35854 64.187
5846815 10.9927 7.49621 32.553 13.145 -8.92101 6.35854 64.187
5846824 11.0984 7.32124 33.0353 12.9166 -9.28048 6.41561 64.3716
5846841 11.1161 7.14626 33.3109 12.7738 -9.52139 6.48571 64.3471
5846846 11.1161 7.14626 33.3109 12.7738 -9.52139 6.48571 64.3471
5846856 11.213 6.99892 33.6161 12.5358 -9.82474 6.51144 64.3638
5846867 11.213 6.99892 33.6161 12.5358 -9.82474 6.51144 64.3638
5846876 11.1777 6.85157 33.8622 12.4502 -10.0006 6.59365 64.3416
5846892 11.2218 6.76869 34 12.374 -10.1294 6.61473 64.3645
5846907 11.1513 6.72264 34 12.3169 -10.1696 6.6465 64.1908
5846919 11.2041 6.72264 34 12.1551 -10.2706 6.60755 64.0819
5846928 11.2041 6.72264 34 12.1551 -10.2706 6.60755 64.0819
5846942 11.1865 6.55688 34 12.117 -10.3791 6.6646 63.8604
5846948 11.1865 6.53846 34 12.0123 -10.4475 6.65717 63.7373
5846969 11.1865 6.51083 34 12.0789 -10.4258 6.67526 63.7763
5846985 11.1865 6.51083 34 12.0789 -10.4258 6.67526 63.7763
5846998 11.1777 6.474 34 12.0314 -10.4707 6.68458 63.6831
5846999 11.1073 6.50163 34 12.1361 -10.381 6.71281 63.7449
5847024 11.0104 6.44637 34 12.1361 -10.3895 6.76476 63.5928
5847030 11.0016 6.41874 34 12.1932 -10.3711 6.78462 63.6135
5847050 10.9311 6.40953 34 12.3359 -10.2807 6.8303 63.6766
5847059 10.9311 6.40953 34 12.3359 -10.2807 6.8303 63.6766
5847076 10.8518 6.34507 34 12.3835 -10.2717 6.88577 63.5804
5847079 10.7549 6.33586 34 12.4978 -10.191 6.93686 63.5885
5847089 10.7549 6.33586 34 12.4978 -10.191 6.93686 63.5885
5847105 10.7549 6.33586 34 12.6025 -10.1332 6.95011 63.6932
5847109 10.5347 6.29903 34 12.6976 -10.0494 7.05098 63.5314
5847121 10.5347 6.29903 34 12.6976 -10.0494 7.05098 63.5314
5847133 10.4731 6.22535 34 12.9356 -9.9444 7.1276 63.634
5847140 10.4731 6.22535 34 12.9356 -9.9444 7.1276 63.634
5847162 10.3674 6.23456 34 13.0784 -9.83601 7.17878 63.6803
5847163 10.1295 6.21614 34 13.2878 -9.67478 7.29383 63.6335
5847192 10.0855 6.25298 34 13.6019 -9.47391 7.3342 63.9404
5847193 9.8829 6.39112 34 13.8684 -9.20739 7.38849 64.1424
5847202 9.8829 6.39112 34 13.8684 -9.20739 7.38849 64.1424
5847222 9.81244 6.40953 34 14.192 -9.00846 7.44483 64.414
5847223 9.81244 6.40953 34 14.192 -9.00846 7.44483 64.414
5847232 9.6715 6.48321 33.9508 14.449 -8.78716 7.49253 64.5545
5847251 9.50414 6.55688 33.5177 14.7632 -8.43221 7.51139 64.3418
5847253 9.50414 6.55688 33.5177 14.7632 -8.43221 7.51139 64.3418
5847263 9.40725 6.65818 32.9861 15.0392 -8.07292 7.47999 64.0907
5847281 9.2399 6.78711 32.4447 15.6293 -7.51476 7.49919 64.101
5847282 9.2399 6.78711 32.4447 15.6293 -7.51476 7.49919 64.101
5847294 9.15181 7.01733 31.6671 16.2195 -6.86202 7.4273 64.0557
5847309 9.15181 7.01733 31.6671 16.2195 -6.86202 7.4273 64.0557
5847312 8.93161 7.24756 31.0272 16.8763 -6.17757 7.4258 64.0826
5847322 8.88756 7.54225 30.3972 17.5456 -5.51359 7.3431 64.3726
5847337 8.88756 7.54225 30.3972 17.5456 -5.51359 7.3431 64.3726
5847342 8.76425 7.75406 29.7279 18.0911 -4.9143 7.29763 64.3373
5847353 8.70259 7.8922 29.0585 18.6659 -4.35445 7.25979 64.3192
5847373 8.57047 8.1961 28.2415 19.3381 -3.60461 7.18295 64.3461
5847394 8.57047 8.1961 27.2079 19.3381 -3.25533 7.05533 63.3125
5847395 8.41192 8.53684 27.2079 20.0493 -2.73872 7.08075 64.2059
5847404 8.27098 8.85915 26.1546 20.8481 -1.83926 6.98689 64.1329
5847423 8.27098 8.85915 26.1546 20.8481 -1.83926 6.98689 64.1329
5847424 8.13005 9.22752 25.1702 21.5885 -0.968641 6.8784 64.1163
5847434 7.90984 9.66956 24.2252 22.2023 -0.10282 6.76055 64.0069
5847461 7.82176 9.92741 23.5263 22.855 0.559136 6.69701 64.1305
5847464 7.82176 9.92741 23.5263 22.855 0.559136 6.69701 64.1305
5847487 7.6456 10.2866 22.7389 23.459 1.31029 6.61135 64.13
5847488 7.57513 10.6549 21.9612 24.1507 2.04738 6.50008 64.342
5847494 7.57513 10.6549 21.9612 24.1507 2.04738 6.50008 64.342
5847518 7.37254 10.9957 21.095 24.7255 2.82513 6.41521 64.1887
5847518 7.26684 11.2996 20.2878 25.2711 3.515 6.314 64.1252
5847526 7.26684 11.2996 20.2878 25.2711 3.515 6.314 64.1252
5847535 7.17876 11.6587 19.6086 25.7777 4.14529 6.20069 64.2237
5847547 7.09067 12.0179 18.8408 26.216 4.79327 6.06595 64.1654
5847557 7.09067 12.0179 18.8408 26.216 4.79327 6.06595 64.1654
5847576 6.97617 12.4415 18.1714 26.8298 5.48121 5.95716 64.4189
5847578 6.97617 12.4415 18.1714 26.8298 5.48121 5.95716 64.4189
5847586 6.8 12.8099 17.3741 27.4533 6.24216 5.87025 64.4372
5847605 6.68549 13.1414 16.6361 27.9696 6.90234 5.76855 64.4326
5847606 6.68549 13.1414 16.6361 27.9696 6.90234 5.76855 64.4326
5847635 6.55337 13.4085 15.9394 28.3691 7.50139 5.68225 64.2703
5847636 6.36839 13.6387 15.43 28.7587 8.02197 5.65028 64.1958
5847637 6.36839 13.6387 15.43 28.7587 8.02197 5.65028 64.1958
5847647 6.35078 13.8965 14.8269 29.1095 8.50228 5.53623 64.1837
5847664 6.35078 13.8965 14.8269 29.1095 8.50228 5.53623 64.1837
5847669 6.20984 14.2465 14.3278 29.2458 8.96246 5.41559 64.03
5847677 6.15699 14.5135 13.9431 29.4309 9.30772 5.31743 64.0446
5847692 6.15699 14.5135 13.9431 29.4309 9.30772 5.31743 64.0446
5847698 6.11295 14.8267 13.5584 29.5673 9.64742 5.19457 64.0654
5847708 6.10415 15.0569 13.2361 29.6063 9.89125 5.0813 64.0034
5847720 6.10415 15.0569 13.2361 29.6063 9.89125 5.0813 64.0034
5847728 6.08653 15.4252 12.8618 29.6258 10.1965 4.91625 63.9993
5847748 6.01606 15.6094 12.6226 29.7135 10.4298 4.85696 63.9616
5847749 6.01606 15.6094 12.6226 29.7135 10.4298 4.85696 63.9616
5847762 6.0601 15.8673 12.3835 29.8011 10.6161 4.7395 64.112
5847781 6.0601 15.8673 12.3835 29.8011 10.6161 4.7395 64.112
5847783 5.98964 16.0975 12.1443 29.8011 10.84 4.65193 64.0326
5847789 6.06891 16.3369 11.9572 29.7037 10.9318 4.5082 64.0668
5847813 6.06891 16.3369 11.9572 29.7037 10.9318 4.5082 64.0668
5847814 6.02487 16.604 11.7596 29.7037 11.1259 4.40798 64.0922
5847821 6.04249 16.6501 11.6765 29.5868 11.1475 4.35552 63.9558
5847843 6.04249 16.6501 11.6765 29.5868 11.1475 4.35552 63.9558
5847845 6.07772 16.8619 11.6037 29.4699 11.1893 4.24928 64.0132
5847851 6.07772 16.8619 11.6037 29.4699 11.1893 4.24928 64.0132
5847876 6.0601 16.8895 11.4373 29.4894 11.3037 4.22155 63.8763
5847878 6.02487 17.0681 11.3645 29.4017 11.3846 4.15131 63.8592
5847881 6.02487 17.0681 11.3645 29.4017 11.3846 4.15131 63.8592
5847902 6.01606 17.3112 11.2086 29.314 11.5116 4.03963 63.8499
5847904 6.08653 17.4085 11.1774 29.1192 11.4685 3.95074 63.7916
5847912 6.08653 17.4085 11.1774 29.1192 11.4685 3.95074 63.7916
5847929 6.09534 17.5349 11.2294 29.1095 11.4585 3.91797 63.969
5847932 6.09534 17.5349 11.2294 29.1095 11.4585 3.91797 63.969
5847942 6.09534 17.6808 11.1046 29.0413 11.5462 3.84134 63.922
5847955 6.09534 17.8169 11.1358 28.9828 11.5447 3.79653 64.0309
5847964 6.09534 17.8169 11.1358 28.9828 11.5447 3.79653 64.0309
5847972 6.13057 17.8461 11.1046 28.8269 11.5157 3.74479 63.9082
5847982 6.10415 17.7975 11.1566 28.7685 11.4784 3.76569 63.8267
5847992 6.10415 17.7975 11.1566 28.7685 11.4784 3.76569 63.8267
5848010 6.18342 17.8072 11.2606 28.6711 11.3553 3.74071 63.9222
5848013 6.18342 17.8072 11.2606 28.6711 11.3553 3.74071 63.9222
5848022 6.11295 17.8267 11.3541 28.5931 11.3297 3.75844 63.8869
5848037 6.21865 17.7391 11.4893 28.486 11.1512 3.75803 63.933
5848042 6.21865 17.7391 11.4893 28.486 11.1512 3.75803 63.933
5848052 6.25389 17.7002 11.6972 28.486 11.0057 3.79555 64.1373
5848064 6.25389 17.7002 11.874 28.486 10.9067 3.82634 64.3141
5848073 6.31554 17.5835 11.874 28.3009 10.8058 3.81024 64.0739
5848091 6.3772 17.389 12.0508 28.2424 10.6165 3.86991 64.0594
5848102 6.39482 17.2237 12.1235 28.106 10.4981 3.90248 63.8481
5848119 6.43886 17.0389 12.4563 27.9209 10.2046 3.9698 63.8549
5848122 6.43886 17.0389 12.4563 27.9209 10.2046 3.9698 63.8549
5848132 6.47409 16.8619 12.7578 27.6676 9.91886 4.02033 63.7614
5848153 6.59741 16.6501 13.1321 27.3266 9.51523 4.0525 63.7062
5848172 6.70311 16.4475 13.6104 27.0344 9.07916 4.11336 63.7953
5848175 6.70311 16.4475 13.6104 27.0344 9.07916 4.11336 63.7953
5848183 6.87927 16.2541 14.0471 26.8298 8.65389 4.15798 64.0102
5848200 7.03782 16.1712 14.4214 26.596 8.29408 4.15913 64.2264
5848204 7.03782 16.1712 14.4214 26.596 8.29408 4.15913 64.2264
5848214 7.20518 16.0423 14.8269 26.255 7.87555 4.15856 64.3294
5848227 7.36373 15.7752 15.2636 25.7582 7.36667 4.1808 64.1607
5848234 7.36373 15.7752 15.2636 25.7582 7.36667 4.1808 64.1607
5848253 7.50466 15.5634 15.8667 25.2223 6.78585 4.21333 64.1571
5848255 7.50466 15.5634 15.8667 25.2223 6.78585 4.21333 64.1571
5848267 7.69845 15.2779 16.3346 24.784 6.25201 4.24578 64.0948
5848287 7.87461 15.1766 16.8336 24.2481 5.73671 4.21715 64.133
5848289 7.87461 15.1766 16.8336 24.2481 5.73671 4.21715 64.133
5848294 8.09482 14.8911 17.3347 23.6831 5.13436 4.22597 64.0037
5848310 8.20052 14.7069 17.8367 23.235 4.65178 4.25863 63.9791
5848326 8.40311 14.4122 18.388 22.7284 4.04711 4.29388 63.9317
5848336 8.40311 14.4122 18.388 22.7284 4.04711 4.29388 63.9317
5848346 8.6057 14.2373 18.89 22.251 3.51361 4.28967 63.984
5848362 8.79067 13.9702 19.6283 21.6762 2.82036 4.34172 64.0654
