13553676 15.8813 9.85374 24.491 7.49104 -9.97433 1.62352 57.7172
13553686 15.8285 9.53142 25.1998 7.19597 -10.5188 1.82731 57.7557
13553696 15.8285 9.53142 25.1998 7.19597 -10.5188 1.82731 57.7557
13553707 15.6876 9.1078 25.751 7.0056 -11.001 2.07497 57.552
13553717 15.5554 8.73944 26.253 6.78667 -11.4601 2.28784 57.3346
13553726 15.5554 8.73944 26.253 6.78667 -11.4601 2.28784 57.3346
13553739 15.529 8.38949 26.696 6.69149 -11.8417 2.47853 57.306
13553747 15.529 8.38949 26.696 6.69149 -11.8417 2.47853 57.306
13553756 15.4497 8.03955 27.139 6.55823 -12.2367 2.67753 57.1865
13553768 15.4145 7.74485 27.6804 6.46305 -12.6028 2.87527 57.3028
13553788 15.3793 7.40412 28.1627 6.36786 -12.9855 3.07443 57.314
13553798 15.3 7.09101 28.6844 6.26316 -13.355 3.28485 57.3386
13553809 15.3 7.09101 28.6844 6.26316 -13.355 3.28485 57.3386
13553818 15.1679 6.81473 28.9699 6.25364 -13.5778 3.4719 57.2061
13553838 15.0446 6.42795 29.3144 6.13942 -13.9617 3.68406 56.9263
13553848 15.0269 6.21614 29.6393 6.14894 -14.1594 3.82556 57.0313
13553858 15.0269 6.21614 29.6393 6.14894 -14.1594 3.82556 57.0313
13553867 14.9036 5.99512 29.9444 6.1299 -14.359 3.99546 56.9731
13553877 14.842 5.79252 30.3677 6.05375 -14.6187 4.15039 57.0559
13553887 14.842 5.79252 30.3677 6.05375 -14.6187 4.15039 57.0559
13553904 14.8244 5.70043 30.7221 6.11086 -14.7038 4.26485 57.3577
13553909 14.8244 5.70043 30.7221 6.11086 -14.7038 4.26485 57.3577
13553918 14.7627 5.52546 31.0174 6.1299 -14.8535 4.40298 57.4354
13553928 14.7275 5.54388 31.1257 6.15845 -14.8339 4.43384 57.5554
13553938 14.7275 5.54388 31.1257 6.15845 -14.8339 4.43384 57.5554
13553949 14.6394 5.60834 31.106 6.17749 -14.757 4.4417 57.5312
13553959 14.4984 5.68201 31.0371 6.2346 -14.6291 4.46229 57.4521
13553978 14.4456 5.70964 31.106 6.32027 -14.554 4.4991 57.5815
13553989 14.4456 5.70964 31.106 6.32027 -14.554 4.4991 57.5815
13553999 14.2694 5.71885 31.0863 6.37738 -14.4727 4.56261 57.4519
13554009 14.1813 5.82936 31.1749 6.41545 -14.371 4.57794 57.601
13554029 14.058 5.89382 31.106 6.4916 -14.2393 4.59928 57.5494
13554039 13.8731 5.92145 31.0567 6.58679 -14.1115 4.66129 57.438
13554050 13.8731 5.92145 31.0567 6.58679 -14.1115 4.66129 57.438
13554059 13.6881 5.94908 31.0174 6.63438 -14.0175 4.71677 57.2889
13554069 13.6881 5.94908 31.0174 6.63438 -14.0175 4.71677 57.2889
13554079 13.5207 6.04117 31.0174 6.7486 -13.8451 4.76315 57.3279
13554090 13.3446 6.12405 30.9583 6.88186 -13.6528 4.80857 57.3088
13554100 13.3446 6.12405 30.9583 6.88186 -13.6528 4.80857 57.3088
13554110 13.2389 6.34507 30.8992 6.97704 -13.4075 4.77522 57.4602
13554120 13.1155 6.50163 30.8107 7.11982 -13.1651 4.77343 57.5476
13554131 13.1155 6.50163 30.8107 7.11982 -13.1651 4.77343 57.5476
13554140 13.0891 6.62134 30.6039 7.23404 -12.962 4.72494 57.5484
13554160 12.9922 6.91603 30.2791 7.32923 -12.6164 4.61607 57.5166
13554171 12.9834 7.23835 30.0035 7.50056 -12.2337 4.49078 57.7258
13554180 12.9834 7.23835 30.0035 7.50056 -12.2337 4.49078 57.7258
13554190 13.0715 7.51463 29.531 7.55767 -11.9334 4.29196 57.6748
13554200 13.1155 7.91062 28.9305 7.70997 -11.4561 4.06153 57.6666
13554212 13.1155 7.91062 28.9305 7.70997 -11.4561 4.06153 57.6666
13554221 13.2036 8.2974 28.1529 7.8813 -10.9402 3.78893 57.5352
13554231 13.2036 8.2974 28.1529 7.8813 -10.9402 3.78893 57.5352
13554241 13.186 8.59209 27.3752 7.96697 -10.5051 3.56198 57.1203
13554251 13.3269 9.02492 26.6566 8.20493 -9.94248 3.27975 57.2134
13554271 13.4591 9.40249 25.8396 8.30963 -9.46599 2.96988 57.0108
13554281 13.5736 9.77086 25.1407 8.49048 -8.97443 2.7082 56.9756
13554291 13.5736 9.77086 25.1407 8.49048 -8.97443 2.7082 56.9756
13554301 13.7145 10.1668 24.5009 8.68085 -8.48521 2.44476 57.0631
13554321 13.6969 10.5076 23.6149 8.92833 -7.87516 2.20417 56.7477
13554331 13.7762 10.9588 22.8471 9.19485 -7.25189 1.93044 56.777
13554351 13.829 11.2811 22.0301 9.40425 -6.70875 1.67767 56.5445
13554361 13.8114 11.6403 21.3214 9.83259 -6.03291 1.51105 56.6057
13554381 13.829 12.0363 20.5831 10.28 -5.3306 1.32149 56.7284
13554401 13.8026 12.4139 20.0122 10.8415 -4.62559 1.21883 57.0702
13554411 13.785 12.9019 19.3428 11.308 -3.88831 1.03697 57.3377
13554423 13.785 12.9019 19.3428 11.308 -3.88831 1.03697 57.3377
13554433 13.7762 13.1874 18.5258 11.8886 -3.14839 0.902111 57.3779
13554443 13.6088 13.5098 17.5119 12.4692 -2.25121 0.751981 57.0996
13554453 13.6088 13.5098 17.5119 12.4692 -2.25121 0.751981 57.0996
13554463 13.371 13.961 16.5425 13.3449 -1.1393 0.669903 57.2194
13554483 13.0627 14.3754 15.5235 14.3919 0.0789404 0.647925 57.3536
13554493 12.7192 14.8359 14.4838 15.5817 1.39475 0.653545 57.6206
13554503 12.7192 14.8359 14.4838 15.5817 1.39475 0.653545 57.6206
13554512 12.3492 15.2319 13.6 16.743 2.60066 0.715227 57.9241
13554524 11.8031 15.5726 12.633 17.9352 3.91399 0.826464 57.944
13554533 11.8031 15.5726 12.633 17.9352 3.91399 0.826464 57.944
13554552 11.3627 15.9317 11.8116 18.8607 5.0107 0.874102 57.9668
13554564 10.8694 16.0607 11.115 19.5524 5.91549 0.973302 57.5975
13554574 10.429 16.2356 10.5743 20.0395 6.66561 1.03421 57.2785
13554584 10.429 16.2356 10.5743 20.0395 6.66561 1.03421 57.2785
13554594 10.0855 16.2817 10.0544 20.2636 7.2353 1.04548 56.6852
13554604 9.70674 16.3093 9.74251 20.5266 7.7226 1.13345 56.2852
13554614 9.70674 16.3093 9.74251 20.5266 7.7226 1.13345 56.2852
13554626 9.50414 16.383 9.50336 21.0722 8.16808 1.24554 56.4627
13554634 9.50414 16.383 9.50336 21.0722 8.16808 1.24554 56.4627
13554644 9.12539 16.3738 9.25382 21.4716 8.65555 1.39431 56.2246
13554654 8.90518 16.4659 9.14985 21.91 9.00255 1.51216 56.4309
13554665 8.90518 16.4659 9.14985 21.91 9.00255 1.51216 56.4309
13554675 8.61451 16.4751 9.02508 22.3484 9.37954 1.66939 56.4631
13554687 8.30622 16.558 8.84832 22.7673 9.81357 1.79307 56.4798
13554695 8.30622 16.558 8.84832 22.7673 9.81357 1.79307 56.4798
13554705 8.02435 16.7053 8.76514 23.0499 10.1538 1.87958 56.5447
13554715 8.02435 16.7053 8.76514 23.0499 10.1538 1.87958 56.5447
13554725 7.81295 16.7514 8.56758 23.3713 10.5048 1.95775 56.5032
13554735 7.53109 16.825 8.4948 23.7708 10.8483 2.09534 56.6217
13554745 7.53109 16.825 8.4948 23.7708 10.8483 2.09534 56.6217
13554756 7.2228 16.9355 8.42202 24.2481 11.2351 2.24671 56.8285
13554765 7.06425 17.0097 8.26606 24.5989 11.5379 2.31589 56.9389
13554775 7.06425 17.0097 8.26606 24.5989 11.5379 2.31589 56.9389
13554785 6.86166 17.1556 8.20367 24.7255 11.7724 2.34744 56.9464
13554795 6.86166 17.1556 8.20367 24.7255 11.7724 2.34744 56.9464
13554805 6.67668 17.1264 8.16208 24.8229 11.935 2.4253 56.7881
13554815 6.55337 17.214 8.0685 25.086 12.1562 2.47369 56.9218
13554825 6.55337 17.214 8.0685 25.086 12.1562 2.47369 56.9218
13554835 6.45648 17.2042 8.0789 25.3295 12.2651 2.56208 57.0691
13554845 6.3772 17.2237 8.0685 25.5146 12.3691 2.61845 57.184
13554866 6.36839 17.3404 8.0789 25.5341 12.3981 2.59174 57.3218
13554876 6.36839 17.3404 8.0789 25.5341 12.3981 2.59174 57.3218
13554886 6.34197 17.3987 7.96453 25.4269 12.4795 2.5338 57.1322
13554896 6.33316 17.4668 7.95413 25.3393 12.4878 2.49418 57.0934
13554908 6.33316 17.4668 7.95413 25.3393 12.4878 2.49418 57.0934
13554916 6.35078 17.5738 7.95413 25.1931 12.4676 2.42397 57.0718
13554926 6.42124 17.603 7.90214 25.0275 12.4255 2.34543 56.9539
13554946 6.45648 17.71 7.95413 24.8229 12.3466 2.2682 56.9435
13554956 6.45648 17.71 7.95413 24.8229 12.3466 2.2682 56.9435
13554966 6.4829 17.603 7.96453 24.706 12.2724 2.26882 56.7564
13554978 6.54456 17.5057 8.11009 24.7645 12.1281 2.32525 56.9248
13554988 6.54456 17.5057 8.11009 24.7645 12.1281 2.32525 56.9248
13554997 6.63264 17.5154 8.24526 24.7352 11.9786 2.31909 57.1286
13555010 6.66788 17.3404 8.24526 24.5696 11.8776 2.32475 56.8232
13555028 6.80881 17.3015 8.38043 24.5014 11.6743 2.30862 56.9922
13555048 6.97617 17.1751 8.44281 24.2774 11.444 2.26009 56.8714
13555058 7.16114 17.1945 8.59878 24.0533 11.1774 2.18297 57.0077
13555069 7.16114 17.1945 8.59878 24.0533 11.1774 2.18297 57.0077
13555079 7.31969 17.1264 8.61957 23.8292 10.9924 2.10986 56.8949
13555089 7.46062 17.0195 8.75474 23.4298 10.6918 2.03949 56.6646
13555104 7.46062 17.0195 8.75474 23.4298 10.6918 2.03949 56.6646
13555119 7.72487 16.9632 8.87951 23.0791 10.3439 1.92524 56.6466
13555129 7.90984 16.9263 9.04587 22.8355 10.0525 1.86324 56.7176
13555140 8.08601 16.8803 9.32661 22.6504 9.71057 1.84677 56.9433
13555150 8.08601 16.8803 9.32661 22.6504 9.71057 1.84677 56.9433
13555159 8.37668 16.8527 9.48257 22.2607 9.32647 1.71503 56.9727
13555178 8.69378 16.8342 9.66972 21.8516 8.90559 1.57582 57.0493
13555180 8.69378 16.8342 9.66972 21.8516 8.90559 1.57582 57.0493
13555190 8.86995 16.825 9.90887 21.5496 8.57157 1.51263 57.1534
13555210 9.09896 16.8066 10.0128 21.043 8.22389 1.35625 56.9614
13555223 9.39845 16.825 10.2208 20.4877 7.76957 1.18167 56.9319
13555230 9.39845 16.825 10.2208 20.4877 7.76957 1.18167 56.9319
13555241 9.61865 16.8987 10.3456 20.0201 7.4515 1.01479 56.883
13555251 9.82124 16.8434 10.5119 19.4842 7.05713 0.881953 56.6609
13555271 10.0943 16.8803 10.6887 18.8705 6.61896 0.685766 56.5338
13555281 10.3762 16.9263 10.8862 18.3639 6.20122 0.516592 56.5526
13555303 10.7285 16.954 11.2398 17.7794 5.62818 0.353606 56.7016
13555313 10.7285 16.954 11.2398 17.7794 5.62818 0.353606 56.7016
13555323 11.0456 16.9724 11.4893 17.0195 5.06705 0.130243 56.5267
13555334 11.3891 16.9171 11.8324 16.4099 4.4676 -0.0169677 56.5485
13555345 11.3891 16.9171 11.8324 16.4099 4.4676 -0.0169677 56.5485
13555354 11.7415 16.8434 12.1443 15.6293 3.80909 -0.215908 56.3586
13555363 12.0585 16.7606 12.6018 14.8108 3.07252 -0.375195 56.2317
13555374 12.0585 16.7606 12.6018 14.8108 3.07252 -0.375195 56.2317
13555384 12.4813 16.558 13.2465 13.9255 2.11508 -0.498287 56.2113
13555395 12.4813 16.558 13.2465 13.9255 2.11508 -0.498287 56.2113
13555404 12.772 16.2356 14.0159 13.2307 1.19031 -0.469585 56.2542
13555415 13.2124 16.0883 14.7541 12.6786 0.352678 -0.493888 56.7335
13555434 13.5031 15.9133 15.3884 12.1646 -0.357011 -0.490642 56.9694
13555448 13.7674 15.6371 16.1058 11.7458 -1.08736 -0.406804 57.256
13555456 13.7674 15.6371 16.1058 11.7458 -1.08736 -0.406804 57.256
13555464 14.014 15.416 16.9896 11.1557 -1.92439 -0.334717 57.5753
13555477 14.014 15.416 16.9896 11.1557 -1.92439 -0.334717 57.5753
13555484 14.1725 14.9648 17.9056 10.6417 -2.80478 -0.153434 57.6846
13555494 14.4104 14.532 18.7128 10.1467 -3.65235 -0.0214952 57.8018
13555504 14.4104 14.532 18.7128 10.1467 -3.65235 -0.0214952 57.8018
13555514 14.5249 14.0991 19.6873 9.60414 -4.53631 0.17287 57.9155
13555524 14.613 13.4821 20.6028 9.14726 -5.43968 0.429152 57.8451
13555534 14.613 13.4821 20.6028 9.14726 -5.43968 0.429152 57.8451
13555547 14.7627 12.9204 21.5871 8.62374 -6.39347 0.654944 57.894
13555567 14.7627 12.1928 22.5321 8.22396 -7.31136 0.987813 57.7116
13555574 14.8067 11.4561 23.546 7.83371 -8.26773 1.33154 57.6426
13555591 14.8067 11.4561 23.546 7.83371 -8.26773 1.33154 57.6426
13555595 14.8244 10.7378 24.3138 7.50056 -9.10643 1.63453 57.3766
13555605 14.7627 10.1024 25.0226 7.19597 -9.84824 1.93229 57.0836
13555615 14.7627 10.1024 25.0226 7.19597 -9.84824 1.93229 57.0836
13555625 14.7275 9.40249 25.6034 6.9009 -10.6064 2.218 56.6342
13555645 14.6041 8.7026 26.0562 6.69149 -11.2686 2.52636 56.0544
13555655 14.5513 8.27898 26.6468 6.66293 -11.6923 2.79999 56.14
13555666 14.5513 8.27898 26.6468 6.66293 -11.6923 2.79999 56.14
13555675 14.5689 8.07638 27.1685 6.65342 -11.9572 2.96897 56.4672
13555687 14.6746 7.95666 27.7197 6.72004 -12.1417 3.10363 57.0711
13555696 14.6746 7.95666 27.7197 6.72004 -12.1417 3.10363 57.0711
13555707 14.7891 7.7909 28.2907 6.58679 -12.4884 3.2104 57.4575
13555717 14.7891 7.7909 28.2907 6.58679 -12.4884 3.2104 57.4575
13555729 14.8772 7.63434 28.7533 6.5963 -12.7028 3.32816 57.8612
13555736 14.9212 7.41333 29.1077 6.58679 -12.937 3.45342 58.0291
13555746 14.9212 7.41333 29.1077 6.58679 -12.937 3.45342 58.0291
13555759 14.9124 7.17389 29.3046 6.46305 -13.2143 3.5472 57.8539
13555766 14.9741 6.92524 29.6491 6.37738 -13.5175 3.65825 57.9258
13555776 14.9741 6.92524 29.6491 6.37738 -13.5175 3.65825 57.9258
13555786 15.1238 6.6766 29.7574 6.25364 -13.8169 3.68714 57.8115
13555801 15.1238 6.6766 29.7574 6.25364 -13.8169 3.68714 57.8115
13555810 15.2031 6.46479 29.8755 6.07279 -14.1197 3.71781 57.6162
13555819 15.2912 6.19772 29.9641 5.98712 -14.3934 3.77671 57.4401
13555826 15.2912 6.19772 29.9641 5.98712 -14.3934 3.77671 57.4401
13555836 15.3969 6.04117 30.0428 5.80627 -14.6596 3.77337 57.2872
13555846 15.5026 5.81094 30.161 5.74916 -14.8992 3.8262 57.2237
13555857 15.5026 5.81094 30.161 5.74916 -14.8992 3.8262 57.2237
13555868 15.6699 5.59913 30.3283 5.65398 -15.1722 3.8549 57.2514
13555877 15.6699 5.59913 30.3283 5.65398 -15.1722 3.8549 57.2514
13555888 15.8373 5.48862 30.535 5.62542 -15.3333 3.87079 57.4864
13555898 15.8902 5.33207 30.7516 5.53975 -15.5485 3.93015 57.5136
13555907 15.8902 5.33207 30.7516 5.53975 -15.5485 3.93015 57.5136
13555919 16.0663 5.29523 30.7516 5.46361 -15.657 3.8697 57.5768
13555929 16.1368 5.20314 30.7713 5.37794 -15.7973 3.86402 57.4891
13555939 16.1368 5.20314 30.7713 5.37794 -15.7973 3.86402 57.4891
13555949 16.3041 5.17551 30.7811 5.33035 -15.8789 3.81095 57.5911
13555969 16.4891 5.0558 30.6236 5.28275 -16.0023 3.74965 57.4513
13555982 16.7181 5.06501 30.3086 5.15901 -16.0708 3.58541 57.2508
13555989 16.7181 5.06501 30.3086 5.15901 -16.0708 3.58541 57.2508
13556006 16.9119 5.01896 30.0625 5.00672 -16.2056 3.45746 57.0001
13556011 17.0698 5.00054 29.8853 4.95913 -16.2504 3.36666 56.9148
13556031 17.3488 5.02817 29.5999 4.90202 -16.2708 3.19758 56.8788
13556040 17.5481 5.02817 29.3341 4.81635 -16.3229 3.06052 56.7267
13556051 17.5481 5.02817 29.3341 4.81635 -16.3229 3.06052 56.7267
13556060 17.7175 5.08342 28.9305 4.7402 -16.3022 2.88724 56.4716
13556071 17.7175 5.08342 28.9305 4.7402 -16.3022 2.88724 56.4716
13556083 17.9267 5.12947 28.7041 4.76876 -16.245 2.76407 56.5291
13556091 18.0563 5.24919 28.3202 4.83539 -16.0694 2.61688 56.4611
13556111 18.2257 5.53467 28.0643 4.85442 -15.8352 2.42374 56.679
13556121 18.3154 5.89382 27.7394 5.03527 -15.4104 2.25472 56.9839
13556131 18.3154 5.89382 27.7394 5.03527 -15.4104 2.25472 56.9839
13556141 18.3951 6.30823 27.3162 5.23516 -14.9192 2.05608 57.2546
13556163 18.4549 6.71343 26.8141 5.4065 -14.4405 1.8433 57.3889
13556173 18.3453 7.22914 26.253 5.56831 -13.8516 1.6326 57.3957
13556186 18.3453 7.22914 26.253 5.56831 -13.8516 1.6326 57.3957
13556194 18.2057 7.67118 25.7313 5.7682 -13.2884 1.46992 57.3764
13556204 18.0064 8.03955 25.3179 6.01568 -12.7524 1.38226 57.3796
13556215 18.0064 8.03955 25.3179 6.01568 -12.7524 1.38226 57.3796
13556224 17.7573 8.37107 24.7863 6.2346 -12.2215 1.28415 57.1493
13556237 17.578 8.73944 24.2154 6.47256 -11.6574 1.15004 57.0054
13556244 17.578 8.73944 24.2154 6.47256 -11.6574 1.15004 57.0054
13556254 17.4783 9.14464 23.802 6.76764 -11.0889 1.0351 57.1926
13556274 17.279 9.513 23.2606 6.99608 -10.5307 0.910968 57.0487
13556284 17.1495 9.96425 22.6601 7.24356 -9.91004 0.733972 57.0174
13556295 17.1495 9.96425 22.6601 7.24356 -9.91004 0.733972 57.0174
13556304 16.9119 10.3418 21.9218 7.42441 -9.30544 0.55455 56.6
13556314 16.9119 10.3418 21.9218 7.42441 -9.30544 0.55455 56.6
13556324 16.771 10.6826 21.1343 7.74804 -8.64223 0.380443 56.3359
13556334 16.5596 11.1338 20.4453 8.12878 -7.88302 0.234772 56.2674
13556345 16.5596 11.1338 20.4453 8.12878 -7.88302 0.234772 56.2674
13556354 16.4187 11.539 19.6972 8.53807 -7.13557 0.0740969 56.1929
13556364 16.2601 11.9995 18.9589 9.09966 -6.26791 -0.0535387 56.3181
13556374 16.2601 11.9995 18.9589 9.09966 -6.26791 -0.0535387 56.3181
13556386 16.1104 12.5336 18.3683 9.72788 -5.38295 -0.144817 56.7401
13556395 16.1104 12.5336 18.3683 9.72788 -5.38295 -0.144817 56.7401
13556404 15.8637 13.0033 17.817 10.3847 -4.50898 -0.174868 57.0687
13556415 15.6964 13.3072 17.0984 10.9748 -3.72868 -0.244482 57.0768
13556441 15.3793 13.6571 16.3138 11.6125 -2.81913 -0.292314 56.9627
13556450 14.9741 13.8965 15.6171 12.3931 -1.89063 -0.226907 56.8808
13556459 14.9741 13.8965 15.6171 12.3931 -1.89063 -0.226907 56.8808
13556467 14.6482 14.2649 14.9517 13.3354 -0.87394 -0.164165 57.2001
13556476 14.6482 14.2649 14.9517 13.3354 -0.87394 -0.164165 57.2001
13556487 14.2342 14.6148 14.2135 14.192 0.156859 -0.116201 57.2545
13556495 13.829 14.9464 13.5376 14.9916 1.12179 -0.0644374 57.3046
13556509 13.829 14.9464 13.5376 14.9916 1.12179 -0.0644374 57.3046
13556516 13.3005 15.2226 12.8722 15.6579 2.06292 0.00181675 57.0532
13556529 12.8337 15.3976 12.2379 16.5717 3.02313 0.152074 57.0409
13556536 12.8337 15.3976 12.2379 16.5717 3.02313 0.152074 57.0409
13556548 12.3052 15.591 11.7388 17.302 3.88543 0.301559 56.937
13556556 12.3052 15.591 11.7388 17.302 3.88543 0.301559 56.937
13556569 11.7767 15.6555 11.3229 17.9158 4.61949 0.478166 56.6709
13556575 11.301 15.7936 11.0006 18.4321 5.27358 0.620424 56.5273
13556596 10.8254 15.8949 10.6159 18.812 5.90653 0.723347 56.1482
13556609 10.4642 15.9594 10.356 19.3381 6.44951 0.874177 56.1177
13556618 10.4642 15.9594 10.356 19.3381 6.44951 0.874177 56.1177
13556626 10.0679 16.033 10.0752 19.9519 7.05611 1.04925 56.128
13556636 10.0679 16.033 10.0752 19.9519 7.05611 1.04925 56.128
13556646 9.68912 16.1343 9.89847 20.6241 7.61847 1.25095 56.346
13556656 9.26632 16.3185 9.7737 21.3937 8.22531 1.4755 56.7522
13556666 9.26632 16.3185 9.7737 21.3937 8.22531 1.4755 56.7522
13556676 8.95803 16.383 9.56575 21.949 8.70985 1.62879 56.8558
13556686 8.57047 16.5211 9.44098 22.4848 9.20531 1.79792 57.0174
13556696 8.57047 16.5211 9.44098 22.4848 9.20531 1.79792 57.0174
13556706 8.22694 16.5672 9.3682 23.1181 9.64121 2.01434 57.2804
13556716 8.22694 16.5672 9.3682 23.1181 9.64121 2.01434 57.2804
13556726 7.98912 16.6501 9.23303 23.5077 9.99289 2.11788 57.3799
13556736 7.76891 16.6501 9.14985 23.8877 10.2769 2.25002 57.4565
13556756 7.61036 16.7237 9.05627 24.2579 10.5445 2.3366 57.6482
13556766 7.31969 16.5764 8.9107 24.5501 10.8514 2.50138 57.3569
13556780 7.31969 16.5764 8.9107 24.5501 10.8514 2.50138 57.3569
13556788 7.13472 16.5027 8.82752 24.784 11.0589 2.61334 57.2489
13556801 7.13472 16.5027 8.82752 24.784 11.0589 2.61334 57.2489
13556808 6.88808 16.4935 8.78593 25.1152 11.3187 2.75464 57.2827
13556824 6.77358 16.558 8.69236 25.3295 11.517 2.79591 57.3534
13556829 6.77358 16.558 8.69236 25.3295 11.517 2.79591 57.3534
13556839 6.5886 16.5764 8.62997 25.5926 11.7405 2.89023 57.3875
13556849 6.46528 16.5211 8.5052 25.6218 11.8941 2.92591 57.1134
13556859 6.46528 16.5211 8.5052 25.6218 11.8941 2.92591 57.1134
13556869 6.39482 16.4935 8.45321 25.8458 12.0181 2.99299 57.1874
13556879 6.39482 16.4935 8.45321 25.8458 12.0181 2.99299 57.1874
13556890 6.23627 16.4014 8.5052 25.9335 12.0862 3.10138 57.0764
13556899 6.15699 16.429 8.47401 26.1868 12.2211 3.16387 57.2469
13556910 6.15699 16.429 8.47401 26.1868 12.2211 3.16387 57.2469
13556918 6.07772 16.4106 8.5052 26.3719 12.2895 3.23944 57.3655
13556930 6.06891 16.3738 8.4948 26.4596 12.3132 3.26977 57.3971
13556939 6.06891 16.3738 8.4948 26.4596 12.3132 3.26977 57.3971
13556950 6.03368 16.3277 8.46361 26.3914 12.3312 3.27535 57.2164
13556959 6.03368 16.3277 8.46361 26.3914 12.3312 3.27535 57.2164
13556972 5.98964 16.2817 8.45321 26.4206 12.363 3.30802 57.1452
13556980 5.96321 16.1436 8.47401 26.4888 12.3512 3.37905 57.0696
13556999 5.9456 16.0699 8.4844 26.4596 12.3331 3.40466 56.9595
13557009 5.96321 15.9594 8.5156 26.4596 12.2765 3.44107 56.8978
13557019 5.96321 15.9594 8.5156 26.4596 12.2765 3.44107 56.8978
13557029 6.0601 15.8489 8.68196 26.3817 12.0621 3.46342 56.9726
13557049 6.0601 15.6739 8.72355 26.5278 12.0285 3.55811 56.9853
13557059 6.12176 15.6647 8.85872 26.557 11.9057 3.57398 57.2022
13557088 6.24508 15.5818 8.97309 26.557 11.7338 3.58367 57.357
13557099 6.29793 15.4805 9.13945 26.596 11.5794 3.64008 57.5139
13557100 6.29793 15.4805 9.13945 26.596 11.5794 3.64008 57.5139
13557110 6.42124 15.3608 9.25382 26.6252 11.4076 3.66721 57.6611
13557121 6.42124 15.3608 9.25382 26.6252 11.4076 3.66721 57.6611
13557133 6.43886 15.2226 9.31621 26.5375 11.3036 3.70134 57.5152
13557140 6.50933 15.0845 9.43058 26.4791 11.1401 3.73434 57.5035
13557155 6.50933 15.0845 9.43058 26.4791 11.1401 3.73434 57.5035
13557160 6.59741 14.8819 9.61774 26.333 10.8827 3.77974 57.43
13557170 6.67668 14.6885 9.61774 26.2648 10.7685 3.80381 57.2477
13557180 6.67668 14.6885 9.61774 26.2648 10.7685 3.80381 57.2477
13557191 6.72073 14.6148 9.83609 26.1576 10.5599 3.83524 57.3292
13557211 6.80881 14.4767 9.80489 25.9627 10.4402 3.80754 57.0532
13557224 6.87047 14.3846 9.94006 25.7387 10.2368 3.80011 56.9338
13557233 6.87047 14.3846 9.94006 25.7387 10.2368 3.80011 56.9338
13557246 7.0114 14.2833 10.0648 25.5536 9.99799 3.77515 56.9131
13557252 7.09067 14.182 10.2312 25.349 9.76606 3.77487 56.8529
13557263 7.09067 14.182 10.2312 25.349 9.76606 3.77487 56.8529
13557273 7.2228 14.1268 10.3872 25.2029 9.53628 3.75147 56.9396
13557283 7.2228 14.1268 10.3872 25.2029 9.53628 3.75147 56.9396
13557293 7.3285 14.0991 10.4807 24.9885 9.34956 3.70187 56.8969
13557303 7.5399 14.0991 10.8031 24.5696 8.913 3.61338 57.0117
13557313 7.5399 14.0991 10.8031 24.5696 8.913 3.61338 57.0117
13557324 7.78653 14.0991 10.9694 24.063 8.52375 3.46466 56.9181
13557334 8.02435 14.0439 11.2813 23.6831 8.07488 3.39179 57.0327
13557344 8.02435 14.0439 11.2813 23.6831 8.07488 3.39179 57.0327
13557354 8.20052 13.9794 11.6557 23.2642 7.61274 3.34675 57.0998
13557377 8.47358 13.9057 12.0508 22.7771 7.06139 3.26406 57.2072
13557384 8.72902 13.8229 12.3523 22.3971 6.60486 3.193 57.3013
13557394 8.72902 13.8229 12.3523 22.3971 6.60486 3.193 57.3013
13557405 8.9228 13.7768 12.7162 21.9393 6.13593 3.1268 57.3551
13557415 9.10777 13.6295 12.9969 21.4814 5.68295 3.07812 57.2156
13557435 9.20466 13.5558 13.3193 21.0527 5.28797 3.04858 57.1325
13557447 9.32798 13.3992 13.6 20.5461 4.84295 3.01167 56.8734
13557455 9.32798 13.3992 13.6 20.5461 4.84295 3.01167 56.8734
13557467 9.52176 13.3808 14.0159 20.1467 4.37651 2.95978 57.0652
13557475 9.52176 13.3808 14.0159 20.1467 4.37651 2.95978 57.0652
13557488 9.66269 13.1966 14.4526 19.6109 3.81756 2.95246 56.9228
13557495 9.83886 13.123 15.0765 19.2115 3.2398 2.96754 57.2497
13557509 9.83886 13.123 15.0765 19.2115 3.2398 2.96754 57.2497
13557515 10.0062 12.9572 15.7835 18.6075 2.51722 2.98866 57.3544
13557531 10.2352 12.6994 16.6465 17.9547 1.63914 3.04157 57.5358
13557536 10.2352 12.6994 16.6465 17.9547 1.63914 3.04157 57.5358
13557552 10.5259 12.4875 17.5119 17.2338 0.728706 3.04685 57.7591
13557556 10.5259 12.4875 17.5119 17.2338 0.728706 3.04685 57.7591
13557566 10.6845 12.156 18.4372 16.4384 -0.228362 3.12784 57.716
13557578 10.887 11.7969 19.3329 15.6389 -1.20729 3.19688 57.6557
13557598 11.1249 11.3917 20.2779 14.7346 -2.29299 3.25818 57.5291
13557608 11.3539 10.9957 21.4887 13.8303 -3.47528 3.37346 57.6686
13557618 11.3539 10.9957 21.4887 13.8303 -3.47528 3.37346 57.6686
13557628 11.6005 10.5444 22.6995 12.9737 -4.66199 3.50969 57.8181
13557638 11.6005 10.5444 22.6995 12.9737 -4.66199 3.50969 57.8181
13557651 11.7943 10.0563 23.7134 12.2217 -5.72356 3.65604 57.7857
13557658 11.9 9.62351 24.7076 11.4793 -6.71664 3.81128 57.7104
13557680 12.0057 9.19068 25.5935 10.8891 -7.59348 3.97534 57.679
13557688 12.0321 8.82232 26.4991 10.3371 -8.39472 4.15538 57.6906
13557703 12.0321 8.82232 26.4991 10.3371 -8.39472 4.15538 57.6906
13557709 12.1642 8.40791 27.3654 9.83259 -9.21286 4.31689 57.7701
13557719 12.1642 8.40791 27.3654 9.83259 -9.21286 4.31689 57.7701
13557738 12.1202 8.00271 28.1036 9.44233 -9.87483 4.53184 57.6689
13557739 12.085 7.75406 28.714 9.09966 -10.3834 4.6766 57.6527
13557749 12.085 7.75406 28.714 9.09966 -10.3834 4.6766 57.6527
13557759 12.0938 7.52384 29.2061 8.92833 -10.7562 4.8094 57.7521
13557769 12.0321 7.32124 29.8263 8.71892 -11.1481 4.9721 57.8986
13557791 12.1026 7.17389 30.4563 8.58567 -11.4884 5.08385 58.3184
13557800 12.1026 7.17389 30.4563 8.58567 -11.4884 5.08385 58.3184
13557815 12.1378 6.97129 30.6925 8.28108 -11.8701 5.13005 58.0827
13557820 12.1819 6.78711 30.7122 8.07167 -12.1359 5.14648 57.7529
13557836 12.1819 6.78711 30.7122 8.07167 -12.1359 5.14648 57.7529
13557841 12.2699 6.63976 30.8008 7.84323 -12.4179 5.14328 57.5537
13557851 12.3052 6.51083 30.8697 7.67189 -12.6366 5.15858 57.3576
13557871 12.3933 6.40953 30.9878 7.57671 -12.8099 5.16716 57.3673
13557882 12.3933 6.26219 31.106 7.44345 -13.0206 5.21651 57.2049
13557891 12.3933 6.26219 31.106 7.44345 -13.0206 5.21651 57.2049
13557915 12.4902 6.34507 31.3127 7.52912 -12.9725 5.20309 57.677
13557921 12.4902 6.34507 31.3127 7.52912 -12.9725 5.20309 57.677
13557923 12.4725 6.23456 31.421 7.49104 -13.0894 5.25995 57.6191
13557931 12.5518 6.24377 31.5292 7.53863 -13.0906 5.25521 57.8635
13557943 12.5518 6.24377 31.5292 7.53863 -13.0906 5.25521 57.8635
13557951 12.5518 6.29903 31.5588 7.54815 -13.0541 5.24246 57.9578
13557966 12.5518 6.26219 31.5785 7.51008 -13.1074 5.25224 57.9025
13557973 12.5518 6.26219 31.5785 7.51008 -13.1074 5.25224 57.9025
13557986 12.5078 6.38191 31.7655 7.53863 -13.0395 5.26201 58.1938
13557993 12.5078 6.38191 31.7655 7.53863 -13.0395 5.26201 58.1938
13558003 12.499 6.38191 31.5981 7.49104 -13.0344 5.22899 57.9701
13558013 12.5078 6.46479 31.4013 7.48152 -12.9473 5.16207 57.8554
13558023 12.5078 6.46479 31.4013 7.48152 -12.9473 5.16207 57.8554
13558032 12.4813 6.51083 31.1355 7.41489 -12.8996 5.09837 57.5426
13558042 12.5254 6.55688 30.9091 7.39586 -12.8433 5.02447 57.3872
13558053 12.5254 6.55688 30.9091 7.39586 -12.8433 5.02447 57.3872
13558061 12.5694 6.59372 30.7811 7.42441 -12.7824 4.97895 57.3687
13558073 12.5694 6.59372 30.7811 7.42441 -12.7824 4.97895 57.3687
13558083 12.5959 6.63976 30.6236 7.45297 -12.7053 4.93114 57.3122
13558093 12.6311 6.82394 30.4661 7.55767 -12.4896 4.84581 57.4788
13558103 12.6311 6.82394 30.4661 7.55767 -12.4896 4.84581 57.4788
13558114 12.6839 6.86999 30.2397 7.56719 -12.4155 4.7732 57.3608
13558123 12.6839 6.86999 30.0822 7.60526 -12.356 4.75186 57.2414
13558138 12.6839 7.04496 30.0822 7.60526 -12.2421 4.69167 57.4164
13558143 12.7192 7.15547 30.0428 7.70997 -12.1021 4.65356 57.6275
13558153 12.7192 7.15547 30.0428 7.70997 -12.1021 4.65356 57.6275
13558164 12.7808 7.25677 29.7968 7.73852 -11.9771 4.55883 57.5729
13558174 12.7896 7.40412 29.6393 7.83371 -11.788 4.49459 57.6667
13558185 12.7896 7.40412 29.6393 7.83371 -11.788 4.49459 57.6667
13558194 12.7896 7.51463 29.4129 7.84323 -11.6593 4.41758 57.5603
13558209 12.7896 7.51463 29.4129 7.84323 -11.6593 4.41758 57.5603
13558214 12.7984 7.54225 29.0585 7.91937 -11.5125 4.35387 57.3186
13558224 12.772 7.78169 28.8124 8.0336 -11.2235 4.25758 57.3997
13558234 12.772 7.78169 28.8124 8.0336 -11.2235 4.25758 57.3997
13558245 12.8513 7.9935 28.5072 8.16685 -10.9521 4.12803 57.5189
13558256 12.9306 8.22373 28.2021 8.30011 -10.6704 3.99293 57.6565
13558266 12.9306 8.22373 28.2021 8.30011 -10.6704 3.99293 57.6565
13558278 12.8601 8.34344 27.7001 8.36674 -10.4111 3.89292 57.2703
13558285 12.8073 8.51842 27.2965 8.45241 -10.1328 3.79062 57.0745
13558295 12.8073 8.51842 27.2965 8.45241 -10.1328 3.79062 57.0745
13558305 12.7984 8.67497 26.9618 8.59518 -9.85881 3.70422 57.0304
13558315 12.7984 8.67497 26.9618 8.59518 -9.85881 3.70422 57.0304
13558325 12.8249 8.82232 26.6862 8.82363 -9.56361 3.63803 57.157
13558335 12.772 9.03413 26.4302 9.08063 -9.19775 3.58656 57.317
13558349 12.772 9.03413 26.4302 9.08063 -9.19775 3.58656 57.317
13558360 12.8337 9.2091 26.1054 9.26148 -8.91335 3.48132 57.4096
13558374 12.7632 9.4117 25.7412 9.528 -8.51466 3.41922 57.4441
13558379 12.7632 9.4117 25.7412 9.528 -8.51466 3.41922 57.4441
13558386 12.7456 9.6143 25.4262 9.76596 -8.16284 3.34451 57.552
13558397 12.7456 9.6143 25.4262 9.76596 -8.16284 3.34451 57.552
13558406 12.7632 9.87216 25.0718 10.0039 -7.77967 3.23344 57.7111
13558419 12.7632 10.0563 24.8651 10.2609 -7.46866 3.1857 57.9455
13558426 12.7632 10.0563 24.8651 10.2609 -7.46866 3.1857 57.9455
13558442 12.728 10.2405 24.3434 10.299 -7.17392 3.0395 57.6109
13558446 12.6575 10.3787 23.9102 10.4798 -6.83888 2.9657 57.4263
13558466 12.6839 10.5076 23.4968 10.537 -6.61256 2.84199 57.2253
13558478 12.6839 10.5076 23.4968 10.537 -6.61256 2.84199 57.2253
13558490 12.6047 10.6273 23.1031 10.6512 -6.33015 2.76969 56.9862
13558498 12.5959 10.7654 22.5518 10.8891 -5.93863 2.66178 56.8023
13558514 12.5959 10.7654 22.5518 10.8891 -5.93863 2.66178 56.8023
13558518 12.5166 10.9496 21.9415 11.089 -5.49565 2.53935 56.4967
13558526 12.4902 11.1798 21.4592 11.5078 -4.97097 2.46226 56.637
13558538 12.4902 11.1798 21.4592 11.5078 -4.97097 2.46226 56.637
13558548 12.499 11.4193 20.9768 11.9742 -4.43221 2.38252 56.8693
13558560 12.499 11.4193 20.9768 11.9742 -4.43221 2.38252 56.8693
13558568 12.4902 11.5943 20.4256 12.374 -3.93233 2.29815 56.884
13558576 12.5078 11.935 19.8842 12.8499 -3.32609 2.17519 57.1769
13558588 12.5078 11.935 19.8842 12.8499 -3.32609 2.17519 57.1769
13558598 12.4549 12.2205 19.1951 13.402 -2.63109 2.07475 57.2726
13558608 12.4549 12.2205 19.1951 13.402 -2.63109 2.07475 57.2726
13558619 12.2435 12.3586 18.4765 14.0017 -1.90949 2.06974 57.0804
13558630 12.1731 12.7914 17.7087 14.6585 -1.06045 1.93681 57.3317
13558648 12.0233 13.0401 16.8544 15.4485 -0.169601 1.89297 57.3663
13558658 11.8648 13.3164 16.085 16.3052 0.72594 1.87829 57.5713
13558669 11.8648 13.3164 16.085 16.3052 0.72594 1.87829 57.5713
13558678 11.6181 13.6571 15.1908 17.0779 1.70569 1.823 57.544
13558695 11.3275 13.915 14.2862 17.7501 2.6412 1.77918 57.2788
13558699 11.3275 13.915 14.2862 17.7501 2.6412 1.77918 57.2788
13558709 11.1337 14.3202 13.5792 18.3834 3.47925 1.70041 57.4164
13558729 10.8782 14.6425 12.841 18.9679 4.31329 1.64527 57.3296
13558740 10.658 14.9924 12.1651 19.3479 5.03692 1.53836 57.1634
13558749 10.658 14.9924 12.1651 19.3479 5.03692 1.53836 57.1634
13558759 10.4026 15.3608 11.5621 19.7181 5.74744 1.45067 57.0435
13558769 10.1031 15.7568 11.0318 20.1564 6.47624 1.40102 57.0481
13558779 10.1031 15.7568 11.0318 20.1564 6.47624 1.40102 57.0481
13558791 9.8829 16.1067 10.5119 20.5656 7.13085 1.33735 57.0672
13558800 9.8829 16.1067 10.5119 20.5656 7.13085 1.33735 57.0672
13558813 9.58342 16.5211 9.97125 20.6728 7.77078 1.19989 56.7486
13558820 9.33679 16.8987 9.54495 20.8092 8.31695 1.09171 56.5896
13558836 9.33679 16.8987 9.54495 20.8092 8.31695 1.09171 56.5896
13558840 9.09016 17.3307 9.11865 20.8579 8.85668 0.945713 56.3974
13558850 8.90518 17.7391 8.78593 21.043 9.33673 0.84587 56.4732
13558860 8.90518 17.7391 8.78593 21.043 9.33673 0.84587 56.4732
13558870 8.64974 18.2157 8.5156 21.1696 9.82304 0.747952 56.5506
13558884 8.64974 18.2157 8.5156 21.1696 9.82304 0.747952 56.5506
13558891 8.42953 18.5561 8.27645 21.2963 10.2312 0.686139 56.5583
13558900 8.22694 18.8965 7.95413 21.4619 10.6905 0.608236 56.5394
13558910 8.22694 18.8965 7.95413 21.4619 10.6905 0.608236 56.5394
13558920 7.93627 19.3244 7.76697 21.4814 11.1055 0.527626 56.509
13558944 7.78653 19.6356 7.52783 21.6372 11.4684 0.462021 56.5872
13558946 7.78653 19.6356 7.52783 21.6372 11.4684 0.462021 56.5872
13558954 7.6456 19.9857 7.38226 21.5885 11.725 0.35498 56.6021
13558961 7.6456 19.9857 7.38226 21.5885 11.725 0.35498 56.6021
13558971 7.50466 20.2969 7.2263 21.6665 12.0084 0.288706 56.6944
13558982 7.37254 20.7151 7.14312 21.6762 12.2462 0.192865 56.907
13558995 7.37254 20.7151 7.14312 21.6762 12.2462 0.192865 56.907
13559007 7.29326 21.1236 6.94557 21.6665 12.5161 0.0513446 57.0289
13559029 7.2228 21.3862 6.7792 21.608 12.7167 -0.0583515 56.9962
13559031 7.14352 21.8043 6.68563 21.4911 12.8956 -0.202486 57.1246
13559052 7.06425 22.1253 6.58165 21.2768 13.04 -0.349993 57.048
13559061 7.07306 22.5046 6.43609 21.043 13.1617 -0.551707 57.0567
13559077 7.07306 22.5046 6.43609 21.043 13.1617 -0.551707 57.0567
13559081 6.93212 22.6894 6.31132 20.8481 13.3381 -0.650402 56.7809
13559093 6.84404 22.6894 6.12416 20.7799 13.511 -0.698818 56.4375
13559102 6.84404 22.8061 6.12416 20.7799 13.5347 -0.728328 56.5542
13559111 6.72953 22.9422 6.11376 20.6825 13.6278 -0.763831 56.468
13559127 6.72953 22.9422 6.11376 20.6825 13.6278 -0.763831 56.468
13559131 6.66788 22.9325 6.00979 20.5851 13.72 -0.802243 56.1953
13559143 6.64145 23.0297 6.05138 20.5266 13.7173 -0.824858 56.2492
13559163 6.68549 23.02 6.06177 20.5948 13.6916 -0.811422 56.3621
13559175 6.74715 23.0395 6.17615 20.5461 13.5653 -0.813415 56.5089
13559198 6.91451 22.9519 6.31132 20.5754 13.3479 -0.787565 56.7531
13559213 7.05544 22.7866 6.46728 20.5266 13.1037 -0.75167 56.836
13559227 7.2228 22.738 6.67523 20.4097 12.8185 -0.756184 57.0458
13559234 7.2228 22.738 6.67523 20.4097 12.8185 -0.756184 57.0458
13559243 7.42539 22.5435 6.7896 20.3318 12.5504 -0.748146 57.0903
13559256 7.56632 22.3392 6.96636 20.1759 12.2627 -0.726568 57.0479
13559280 7.7513 22.0767 7.2055 20.059 11.9013 -0.673492 57.0925
13559284 7.7513 22.0767 7.2055 20.059 11.9013 -0.673492 57.0925
13559294 7.98912 21.8433 7.41346 19.8934 11.5219 -0.662986 57.1392
13559305 8.22694 21.4931 7.6318 19.6304 11.0845 -0.647018 56.9823
13559327 8.47358 21.2305 7.86055 19.3089 10.64 -0.668508 56.8736
13559336 8.65855 20.9193 8.12049 19.114 10.233 -0.618708 56.8124
13559349 8.65855 20.9193 8.12049 19.114 10.233 -0.618708 56.8124
13559355 8.9228 20.7248 8.35963 18.8705 9.80739 -0.637552 56.8777
13559365 8.9228 20.7248 8.35963 18.8705 9.80739 -0.637552 56.8777
13559375 9.08135 20.4331 8.52599 18.4418 9.41338 -0.676298 56.4822
13559385 9.39845 20.1024 8.86911 18.0424 8.8089 -0.688502 56.4124
13559395 9.39845 20.1024 8.86911 18.0424 8.8089 -0.688502 56.4124
13559405 9.69793 19.8009 9.17064 17.565 8.22332 -0.737046 56.2345
13559418 10.0326 19.4216 9.60734 17.2338 7.55632 -0.696269 56.2954
13559425 10.0326 19.4216 9.60734 17.2338 7.55632 -0.696269 56.2954
13559435 10.4114 19.1979 10.1064 16.8763 6.87216 -0.696209 56.592
13559455 10.7109 18.9159 10.4911 16.4384 6.25584 -0.715369 56.5563
13559465 11.1161 18.6825 11.011 15.9815 5.51889 -0.741144 56.7911
13559476 11.1161 18.6825 11.011 15.9815 5.51889 -0.741144 56.7911
13559486 11.4948 18.3616 11.5101 15.4485 4.75453 -0.765062 56.815
13559496 11.8119 17.9823 12.0716 14.8488 3.94414 -0.760069 56.7146
13559508 11.8119 17.9823 12.0716 14.8488 3.94414 -0.760069 56.7146
13559516 12.1642 17.7002 12.6434 14.3158 3.17136 -0.766916 56.8237
13559526 12.1642 17.7002 12.6434 14.3158 3.17136 -0.766916 56.8237
13559536 12.4109 17.3015 13.1737 13.8208 2.44138 -0.718917 56.7069
13559546 12.6927 16.9816 13.8807 13.2688 1.61766 -0.666491 56.8238
13559556 12.6927 16.9816 13.8807 13.2688 1.61766 -0.666491 56.8238
13559566 13.0275 16.6408 14.4214 12.6501 0.811616 -0.686513 56.7398
13559576 13.1684 16.2356 15.2116 12.2503 0.0465602 -0.512295 56.8659
13559586 13.1684 16.2356 15.2116 12.2503 0.0465602 -0.512295 56.8659
13559597 13.4503 15.8857 15.8875 11.6601 -0.787523 -0.471584 56.8836
13559606 13.4503 15.8857 15.8875 11.6601 -0.787523 -0.471584 56.8836
13559618 13.7145 15.4068 16.8024 11.0795 -1.76772 -0.326133 57.0033
13559627 13.9347 14.928 17.63 10.5655 -2.66011 -0.175391 57.0582
13559656 14.1902 14.4122 18.575 10.1181 -3.59311 0.0237536 57.2955
13559658 14.3311 13.9702 19.4117 9.74692 -4.36202 0.223807 57.4599
13559669 14.3311 13.9702 19.4117 9.74692 -4.36202 0.223807 57.4599
13559678 14.4632 13.5466 20.2583 9.36618 -5.12226 0.420227 57.6342
13559698 14.4632 13.1046 20.967 9.02352 -5.77769 0.631381 57.5583
13559712 14.4456 12.7454 21.6757 8.757 -6.34241 0.843857 57.6237
13559717 14.4456 12.7454 21.6757 8.757 -6.34241 0.843857 57.6237
13559729 14.4104 12.3862 22.286 8.48096 -6.87466 1.03461 57.5636
13559739 14.2959 11.9534 23.0145 8.30011 -7.40778 1.31992 57.5639
13559759 14.199 11.585 23.5263 8.15734 -7.82306 1.53991 57.4677
13559769 14.199 11.585 23.5263 8.15734 -7.82306 1.53991 57.4677
13559779 14.0492 11.1798 23.9595 7.94793 -8.26132 1.75326 57.1365
13559790 13.9788 10.9128 24.3827 7.83371 -8.58681 1.92396 57.108
13559810 13.829 10.5168 24.7765 7.729 -8.95305 2.1529 56.8513
13559821 13.7409 10.1576 25.377 7.6243 -9.37435 2.39966 56.8998
13559844 13.7233 9.74323 26.0562 7.55767 -9.84514 2.66658 57.0804
13559851 13.6969 9.37486 26.8338 7.46249 -10.3252 2.93488 57.3681
13559862 13.6969 9.37486 26.8338 7.46249 -10.3252 2.93488 57.3681
13559872 13.6881 9.01571 27.4441 7.41489 -10.7281 3.16747 57.5628
13559881 13.6881 9.01571 27.4441 7.41489 -10.7281 3.16747 57.5628
13559898 13.5648 8.56446 27.8576 7.29115 -11.1591 3.40955 57.2779
13559901 13.5031 8.2974 28.3202 7.23404 -11.4602 3.59702 57.3548
13559911 13.5031 8.2974 28.3202 7.23404 -11.4602 3.59702 57.3548
13559923 13.4238 8.06717 28.8025 7.22452 -11.7071 3.79083 57.5181
13559931 13.4767 7.84615 29.4227 7.20549 -12.0135 3.96162 57.951
13559945 13.4767 7.84615 29.4227 7.20549 -12.0135 3.96162 57.951
13559954 13.4591 7.6896 29.846 7.22452 -12.1914 4.10221 58.2192
13559968 13.4591 7.6896 29.846 7.22452 -12.1914 4.10221 58.2192
13559971 13.4062 7.53304 29.9346 7.09127 -12.3852 4.16282 57.9651
13559981 13.3798 7.39491 29.9739 7.01512 -12.5268 4.21052 57.7638
13559994 13.3798 7.39491 29.9739 7.01512 -12.5268 4.21052 57.7638
13560003 13.3093 7.32124 29.905 6.99608 -12.557 4.24216 57.5317
13560014 13.2653 7.21073 29.8657 6.9009 -12.6738 4.26882 57.2426
13560024 13.2653 7.21073 29.8657 6.9009 -12.6738 4.26882 57.2426
13560037 13.2124 7.12784 29.9641 6.89138 -12.7445 4.33123 57.1958
13560043 13.2124 7.12784 29.9641 6.89138 -12.7445 4.33123 57.1958
13560060 13.1772 7.07259 30.0133 6.94849 -12.7463 4.38164 57.2116
13560063 13.0627 7.02654 30.0428 6.91041 -12.7837 4.43459 57.0425
13560073 13.0627 7.02654 30.0428 6.91041 -12.7837 4.43459 57.0425
13560084 13.0275 7.07259 30.2003 6.92945 -12.7668 4.46351 57.2299
13560093 12.9394 7.00813 30.3972 7.10078 -12.7197 4.58273 57.4455
13560105 12.9394 7.00813 30.3972 7.10078 -12.7197 4.58273 57.4455
13560123 12.8513 7.09101 30.5744 7.23404 -12.5975 4.6405 57.7508
13560136 12.7456 7.15547 30.7024 7.29115 -12.5233 4.6876 57.8946
13560144 12.6663 7.24756 30.7713 7.42441 -12.3756 4.71914 58.1096
13560157 12.6663 7.24756 30.7713 7.42441 -12.3756 4.71914 58.1096
13560164 12.5782 7.2844 30.7713 7.48152 -12.296 4.74663 58.1154
13560174 12.6135 7.2844 30.5744 7.48152 -12.2606 4.69979 57.9538
13560184 12.6135 7.29361 30.5744 7.472 -12.2608 4.69497 57.9535
13560194 12.6047 7.32124 30.4169 7.51008 -12.1819 4.66729 57.8529
13560204 12.6047 7.32124 30.4169 7.51008 -12.1819 4.66729 57.8529
13560214 12.5782 7.41333 30.2003 7.472 -12.093 4.59927 57.6639
13560226 12.5518 7.42254 29.9543 7.44345 -12.0442 4.55536 57.3721
13560234 12.5518 7.42254 29.9543 7.44345 -12.0442 4.55536 57.3721
13560248 12.7192 7.55146 29.6294 7.41489 -11.9438 4.38987 57.3149
13560254 12.7192 7.55146 29.6294 7.41489 -11.9438 4.38987 57.3149
13560264 12.7544 7.59751 29.2652 7.31971 -11.9002 4.27658 56.9368
13560279 12.8689 7.70802 29.0782 7.42441 -11.7444 4.18512 57.0795
13560293 12.8689 7.70802 29.0782 7.42441 -11.7444 4.18512 57.0795
13560296 12.9746 7.75406 28.9305 7.44345 -11.6928 4.10978 57.1026
13560304 13.1948 7.95666 28.5368 7.5196 -11.4737 3.90809 57.2078
13560316 13.1948 7.95666 28.5368 7.5196 -11.4737 3.90809 57.2078
13560325 13.3446 8.08559 28.3497 7.53863 -11.3707 3.78365 57.3185
13560339 13.4943 8.08559 27.8871 7.70045 -11.1932 3.67543 57.1674
13560345 13.4943 8.26056 27.8871 7.70045 -11.0827 3.61844 57.3424
13560355 13.6881 8.44475 27.5721 7.75756 -10.9018 3.4449 57.4625
13560365 13.6881 8.44475 27.5721 7.75756 -10.9018 3.4449 57.4625
13560375 13.7585 8.66576 27.0307 7.81467 -10.6116 3.2533 57.2697
13560386 13.8819 8.84074 26.4794 7.99552 -10.2824 3.08204 57.1976
13560395 13.8819 8.84074 26.4794 7.99552 -10.2824 3.08204 57.1976
13560407 14.0404 9.13543 25.9085 8.12878 -9.91237 2.84763 57.2131
13560415 14.0404 9.13543 25.9085 8.12878 -9.91237 2.84763 57.2131
13560430 14.0756 9.35645 25.1506 8.29059 -9.48564 2.63983 56.8732
13560435 14.1109 9.66956 24.4713 8.56663 -8.95222 2.44398 56.8184
13560446 14.1109 9.66956 24.4713 8.56663 -8.95222 2.44398 56.8184
13560460 14.1461 9.86295 23.6445 8.88074 -8.42272 2.25955 56.5343
13560467 14.014 10.2497 22.8078 9.3757 -7.61611 2.10455 56.4472
13560490 13.9259 10.6273 21.9907 10.0801 -6.71503 1.99145 56.624
13560496 13.7585 11.0141 21.4493 10.9748 -5.77786 2.00662 57.1968
13560516 13.6264 11.3824 20.839 11.7934 -4.89649 1.98388 57.6413
13560526 13.6264 11.3824 20.839 11.7934 -4.89649 1.98388 57.6413
13560541 13.415 11.6587 20.1303 12.5549 -4.03908 1.97668 57.7589
13560546 13.2829 11.9258 19.4117 13.3735 -3.18799 1.95964 57.9938
13560558 13.2829 11.9258 19.4117 13.3735 -3.18799 1.95964 57.9938
13560568 13.0363 12.1744 18.4667 14.0778 -2.27283 1.90472 57.7552
13560578 12.6399 12.4047 17.5611 15.1153 -1.16118 1.9833 57.721
13560590 12.6399 12.4047 17.5611 15.1153 -1.16118 1.9833 57.721
13560598 12.2876 12.7454 16.5217 16.2004 0.0591129 1.99702 57.7551
13560618 11.8383 12.9664 15.6067 17.4287 1.27507 2.13449 57.8401
13560628 11.3715 13.2059 14.6502 18.3347 2.39691 2.19088 57.5622
13560639 11.3715 13.2059 14.6502 18.3347 2.39691 2.19088 57.5622
13560650 10.9223 13.4269 13.7768 19.0166 3.38822 2.21662 57.1425
13560665 10.6316 13.4729 13.2153 19.533 4.0275 2.28056 56.8528
13560669 10.6316 13.4729 13.2153 19.533 4.0275 2.28056 56.8528
13560679 10.2881 13.5742 12.6954 20.3221 4.79642 2.41435 56.8798
13560689 10.2881 13.5742 12.6954 20.3221 4.79642 2.41435 56.8798
13560699 9.90933 13.7216 12.1443 21.4034 5.71513 2.60155 57.1787
13560713 9.53938 13.9057 11.77 22.2023 6.44344 2.75018 57.4174
13560729 9.16062 13.9978 11.3229 22.7868 7.11612 2.86842 57.2682
13560739 8.74663 14.1083 10.8862 23.3032 7.79158 2.98042 57.0444
13560749 8.74663 14.1083 10.8862 23.3032 7.79158 2.98042 57.0444
13560760 8.40311 14.2189 10.5015 23.7221 8.37193 3.06136 56.8456
13560770 8.40311 14.2189 10.5015 23.7221 8.37193 3.06136 56.8456
13560780 8.05959 14.357 10.2208 24.0728 8.88262 3.1415 56.7101
13560790 7.83057 14.4399 10.0128 24.5599 9.3047 3.24638 56.8432
13560810 7.56632 14.6148 9.82569 25.008 9.74783 3.32875 57.0149
13560822 7.3285 14.7161 9.68012 25.388 10.1096 3.42046 57.1127
13560831 7.3285 14.7161 9.68012 25.388 10.1096 3.42046 57.1127
13560846 7.06425 14.9187 9.39939 25.5828 10.5494 3.42293 56.9652
13560851 7.06425 14.9187 9.39939 25.5828 10.5494 3.42293 56.9652
13560863 6.85285 15.0477 9.18104 25.7582 10.8955 3.44091 56.8397
13560873 6.67668 15.2226 9.04587 25.9822 11.1907 3.45935 56.9274
13560896 6.41244 15.3055 8.9419 26.2355 11.5065 3.54848 56.8954
13560901 6.28031 15.5358 8.84832 26.5083 11.7694 3.55254 57.1727
13560911 6.28031 15.5358 8.84832 26.5083 11.7694 3.55254 57.1727
13560921 6.1658 15.6739 8.67156 26.6739 12.0269 3.54265 57.1852
13560938 6.1658 15.6739 8.67156 26.6739 12.0269 3.54265 57.1852
13560946 6.01606 15.8673 8.56758 26.7032 12.2418 3.5135 57.1541
13560953 5.8487 16.1067 8.39083 26.635 12.5051 3.4407 56.9812
13560980 5.8487 16.1067 8.39083 26.635 12.5051 3.4407 56.9812
13560982 5.76062 16.2817 8.23486 26.6447 12.7064 3.38286 56.9219
13560989 5.69896 16.5211 8.16208 26.7226 12.8635 3.32668 57.1048
13560994 5.69896 16.5211 8.16208 26.7226 12.8635 3.32668 57.1048
13561005 5.6285 16.7145 8.0893 26.7032 12.9954 3.2684 57.1355
13561015 5.61088 16.8527 8.0685 26.6739 13.0437 3.21965 57.206
13561027 5.61088 16.8527 8.0685 26.6739 13.0437 3.21965 57.206
13561035 5.61969 17.0681 7.95413 26.5473 13.1325 3.09857 57.1892
13561045 5.61969 17.0681 7.95413 26.5473 13.1325 3.09857 57.1892
13561055 5.57565 17.1945 7.95413 26.5473 13.1881 3.07253 57.2716
13561071 5.60207 17.214 7.96453 26.5375 13.1655 3.0582 57.3181
13561075 5.60207 17.214 7.96453 26.5375 13.1655 3.0582 57.3181
13561085 5.57565 17.3404 7.89174 26.4596 13.2417 2.99524 57.2674
13561096 5.47876 17.3696 7.88135 26.3622 13.2995 2.99391 57.0918
13561115 5.56684 17.5057 7.89174 26.2842 13.2455 2.90927 57.2485
13561139 5.55803 17.5252 7.88135 26.1381 13.2323 2.87279 57.1027
13561146 5.67254 17.6322 7.92294 26.0309 13.128 2.78976 57.2586
13561166 5.74301 17.6419 7.92294 25.9043 13.0568 2.7378 57.2121
13561191 5.81347 17.7197 7.96453 25.7289 12.9619 2.66318 57.2266
13561194 5.81347 17.7197 7.96453 25.7289 12.9619 2.66318 57.2266
13561196 5.96321 17.778 7.96453 25.4756 12.8214 2.54425 57.1814
13561223 6.02487 17.7975 8.00612 25.3198 12.724 2.49444 57.1482
13561228 6.08653 17.8461 8.00612 25.1054 12.6476 2.41364 57.0442
13561238 6.08653 17.8461 8.00612 25.1054 12.6476 2.41364 57.0442
13561252 6.20984 17.9823 8.04771 24.8521 12.5135 2.28782 57.092
13561258 6.22746 18.1573 7.99572 24.5989 12.519 2.16125 56.9794
13561268 6.22746 18.1573 7.99572 24.5989 12.519 2.16125 56.9794
13561279 6.43005 18.3129 8.00612 24.1799 12.3209 1.96115 56.929
13561288 6.56218 18.3129 8.00612 23.9266 12.1776 1.86356 56.8079
13561304 6.56218 18.3616 8.00612 23.9266 12.1885 1.84914 56.8565
13561308 6.73834 18.5074 8.0685 23.6539 12.0043 1.70532 56.9681
13561318 6.73834 18.5074 8.0685 23.6539 12.0043 1.70532 56.9681
13561328 6.83523 18.6728 8.0789 23.2642 11.8832 1.53957 56.8511
13561338 7.02902 18.8186 8.0893 22.9232 11.7057 1.36251 56.8602
13561351 7.02902 18.8186 8.0893 22.9232 11.7057 1.36251 56.8602
13561358 7.15233 19.0034 8.20367 22.592 11.5183 1.22206 56.9514
13561368 7.15233 19.0034 8.20367 22.592 11.5183 1.22206 56.9514
13561378 7.27565 18.984 8.27645 22.212 11.2973 1.1178 56.7481
13561389 7.42539 19.0812 8.40122 21.8223 11.051 0.982795 56.7302
13561398 7.42539 19.0812 8.40122 21.8223 11.051 0.982795 56.7302
13561408 7.61917 19.0812 8.42202 21.5009 10.8352 0.853661 56.6233
13561419 7.80414 19.1007 8.72355 21.2086 10.4604 0.798946 56.837
13561428 7.80414 19.1007 8.72355 21.2086 10.4604 0.798946 56.837
13561443 8.01554 19.0423 8.95229 20.965 10.1095 0.752817 56.9752
13561448 8.01554 19.0423 8.95229 20.965 10.1095 0.752817 56.9752
13561458 8.23575 18.9451 9.28502 20.6143 9.65249 0.714392 57.0802
13561468 8.56166 18.8478 9.56575 20.1662 9.13812 0.609657 57.1414
13561478 8.56166 18.8478 9.56575 20.1662 9.13812 0.609657 57.1414
13561497 8.84352 18.8089 9.86728 19.6888 8.64685 0.499136 57.2085
13561500 9.08135 18.5852 10.1688 19.1238 8.1018 0.428202 56.9592
13561509 9.08135 18.5852 10.1688 19.1238 8.1018 0.428202 56.9592
13561529 9.43368 18.3616 10.5535 18.5393 7.43285 0.342128 56.888
13561539 9.71554 17.9531 10.8966 17.9255 6.75615 0.30629 56.4908
13561560 10.0591 17.6322 11.4477 17.1169 5.88485 0.23288 56.2558
13561589 10.429 17.2042 12.0612 16.2861 4.9125 0.191324 55.9805
13561592 10.8166 16.6869 12.9657 15.3057 3.68009 0.206543 55.7749
13561593 10.8166 16.6869 12.9657 15.3057 3.68009 0.206543 55.7749
13561601 11.3803 16.1804 14.1823 14.43 2.24656 0.280804 56.173
13561613 11.3803 16.1804 14.1823 14.43 2.24656 0.280804 56.173
13561620 11.9 15.545 15.7315 13.5924 0.663149 0.496466 56.7688
13561630 12.3845 14.9187 17.2756 12.8404 -0.827646 0.734818 57.4193
13561640 12.3845 14.9187 17.2756 12.8404 -0.827646 0.734818 57.4193
13561650 12.8689 14.2741 18.4372 12.1265 -2.12516 0.889158 57.7067
13561660 13.0803 13.6939 19.2837 11.6125 -3.05943 1.07213 57.6705
13561683 13.1596 13.2335 19.8448 11.2984 -3.68137 1.2384 57.5363
13561690 13.1596 13.2335 19.8448 11.2984 -3.68137 1.2384 57.5363
13561707 13.2036 12.7914 20.3665 11.1366 -4.19235 1.43694 57.4982
13561710 13.2124 12.4875 20.9079 10.9748 -4.62726 1.61058 57.5827
13561732 13.3269 12.1192 21.4592 10.6036 -5.24413 1.72581 57.5089
13561741 13.3446 11.8337 22.0892 10.2704 -5.79167 1.87216 57.5379
13561754 13.3446 11.8337 22.0892 10.2704 -5.79167 1.87216 57.5379
13561761 13.3798 11.4009 22.7093 9.87066 -6.45808 2.03955 57.3606
13561777 13.3798 11.4009 22.7093 9.87066 -6.45808 2.03955 57.3606
13561781 13.4943 10.9865 23.3196 9.48992 -7.12928 2.18068 57.2903
13561794 13.6088 10.6181 23.9299 9.20437 -7.72137 2.32929 57.3612
13561802 13.6088 10.6181 23.9299 9.20437 -7.72137 2.32929 57.3612
13561811 13.7409 10.2774 24.2646 8.84266 -8.26492 2.38658 57.1256
13561825 13.829 9.90899 24.8552 8.61422 -8.81049 2.55162 57.2075
13561833 13.829 9.90899 24.8552 8.61422 -8.81049 2.55162 57.2075
13561843 13.9699 9.58667 25.4655 8.45241 -9.3069 2.70415 57.4746
13561853 13.9699 9.58667 25.4655 8.45241 -9.3069 2.70415 57.4746
13561863 14.0228 9.21831 26.0759 8.14782 -9.88976 2.86677 57.4648
13561873 14.1461 8.9052 26.6763 8.02408 -10.3431 3.02564 57.7517
13561897 14.1549 8.69339 27.198 7.83371 -10.723 3.15742 57.8801
13561905 14.1813 8.42633 27.513 7.65286 -11.0843 3.26054 57.7736
13561913 14.1813 8.42633 27.513 7.65286 -11.0843 3.26054 57.7736
13561923 14.1373 8.21452 27.6705 7.51008 -11.3341 3.34475 57.5324
13561933 14.1373 8.21452 27.6705 7.51008 -11.3341 3.34475 57.5324
13561943 14.0492 8.03034 27.9363 7.34826 -11.5956 3.45294 57.3641
13561953 13.9876 7.85536 28.2907 7.28163 -11.818 3.58686 57.4152
13561964 13.9876 7.85536 28.2907 7.28163 -11.818 3.58686 57.4152
13561973 13.9788 7.67118 28.5761 7.19597 -12.0545 3.68905 57.4221
13561987 13.9171 7.49621 28.8124 7.20549 -12.2006 3.81445 57.4312
13561992 13.9171 7.49621 28.8124 7.20549 -12.2006 3.81445 57.4312
13562003 13.8554 7.45016 29.0683 7.25308 -12.2428 3.90853 57.627
13562015 13.8554 7.45016 29.0683 7.25308 -12.2428 3.90853 57.627
13562023 13.785 7.32124 29.275 7.23404 -12.3686 4.0101 57.6153
13562034 13.7762 7.21993 29.5014 7.22452 -12.4879 4.08766 57.7221
13562044 13.7762 7.21993 29.5014 7.22452 -12.4879 4.08766 57.7221
13562058 13.6264 7.16468 29.6688 7.31971 -12.4658 4.20496 57.7796
13562064 13.4326 7.09101 29.7377 7.35778 -12.4618 4.31415 57.6191
13562074 13.4326 7.09101 29.7377 7.35778 -12.4618 4.31415 57.6191
13562093 13.3446 7.12784 29.8066 7.34826 -12.4399 4.34234 57.6273
13562094 13.3446 7.12784 29.8066 7.34826 -12.4399 4.34234 57.6273
13562104 13.2124 7.14626 29.8755 7.49104 -12.3216 4.41952 57.7252
13562124 13.0891 7.13705 29.8755 7.57671 -12.245 4.47985 57.6784
13562126 13.0891 7.13705 29.8755 7.57671 -12.245 4.47985 57.6784
13562135 12.8953 7.13705 29.8952 7.64334 -12.1633 4.56119 57.5709
13562147 12.7368 7.10943 29.8558 7.7766 -12.0508 4.6416 57.4786
13562155 12.7368 7.10943 29.8558 7.7766 -12.0508 4.6416 57.4786
13562171 12.728 7.22914 29.8361 7.81467 -11.9429 4.60709 57.6079
13562175 12.728 7.22914 29.8361 7.81467 -11.9429 4.60709 57.6079
13562185 12.6663 7.2844 29.6589 7.96697 -11.7556 4.60478 57.5766
13562200 12.6487 7.41333 29.3341 8.1383 -11.4849 4.53912 57.5344
13562209 12.6487 7.41333 29.3341 8.1383 -11.4849 4.53912 57.5344
13562219 12.6839 7.56988 29.0979 8.20493 -11.2963 4.44318 57.5566
13562225 12.6839 7.74485 28.8715 8.29059 -11.0781 4.35831 57.5908
13562241 12.6839 7.74485 28.8715 8.29059 -11.0781 4.35831 57.5908
13562245 12.8249 7.85536 28.6057 8.37626 -10.9252 4.24066 57.6622
13562265 12.8073 7.98429 28.1922 8.49048 -10.6677 4.14738 57.4743
13562275 12.913 8.15926 27.6902 8.54759 -10.4241 3.96936 57.31
13562291 12.913 8.15926 27.6902 8.54759 -10.4241 3.96936 57.31
13562295 13.001 8.30661 27.1685 8.59518 -10.1924 3.79947 57.0713
13562306 12.9922 8.5 26.824 8.78555 -9.86425 3.70846 57.1018
13562325 12.9922 8.62893 26.5877 8.89026 -9.65898 3.6402 57.0991
13562345 12.9922 8.62893 26.5877 8.89026 -9.65898 3.6402 57.0991
13562346 13.001 8.77627 26.2235 9.12822 -9.32978 3.56415 57.129
13562356 13.0539 9.02492 25.9184 9.35666 -8.97528 3.45126 57.3538
13562368 13.0539 9.02492 25.9184 9.35666 -8.97528 3.45126 57.3538
13562376 13.0627 9.27356 25.4655 9.54703 -8.59113 3.31558 57.3488
13562390 13.0715 9.52221 25.0718 9.80403 -8.18567 3.20573 57.4695
13562413 13.0715 9.67877 24.6485 9.98488 -7.86651 3.10624 57.3837
13562416 13.0715 9.67877 24.6485 9.98488 -7.86651 3.10624 57.3837
13562429 13.0627 9.79848 24.3237 10.1467 -7.60541 3.03739 57.3316
13562437 13.0451 10.0195 23.8512 10.3561 -7.21151 2.91837 57.2719
13562446 13.0451 10.0195 23.8512 10.3561 -7.21151 2.91837 57.2719
13562459 13.0539 10.2497 23.3492 10.5655 -6.81068 2.78173 57.2183
13562466 12.9922 10.351 22.8078 10.8035 -6.42859 2.70426 56.9545
13562484 12.9922 10.351 22.8078 10.8035 -6.42859 2.70426 56.9545
13562487 12.9306 10.526 22.4337 11.089 -6.03256 2.64995 56.9793
13562496 12.9306 10.526 22.4337 11.089 -6.03256 2.64995 56.9793
13562510 12.8513 10.7102 21.9612 11.4602 -5.54643 2.59551 56.9829
13562516 12.8161 10.968 21.5379 11.7934 -5.07418 2.50735 57.1154
13562526 12.8161 10.968 21.5379 11.7934 -5.07418 2.50735 57.1154
13562538 12.7632 11.1798 21.1147 12.117 -4.6266 2.4369 57.1747
13562546 12.6751 11.4469 20.5831 12.4406 -4.09945 2.33658 57.1458
13562563 12.6751 11.4469 20.5831 12.4406 -4.09945 2.33658 57.1458
13562568 12.5078 11.7324 19.9531 12.9451 -3.40548 2.27292 57.1384
13562578 12.5078 11.7324 19.9531 12.9451 -3.40548 2.27292 57.1384
13562588 12.2523 12.0087 19.2739 13.4782 -2.64825 2.23398 57.013
13562598 12.0674 12.3494 18.5651 14.0969 -1.83353 2.16681 57.0788
13562618 11.8119 12.6994 17.8466 14.7251 -0.978419 2.11807 57.0829
13562628 11.8119 12.6994 17.8466 14.7251 -0.978419 2.11807 57.0829
13562640 11.5653 13.0493 17.2953 15.2105 -0.26294 2.07227 57.1204
13562648 11.442 13.4269 16.6049 15.7531 0.494996 1.96301 57.2268
13562658 11.442 13.4269 16.6049 15.7531 0.494996 1.96301 57.2268
13562668 11.1689 13.6939 15.9602 16.4194 1.30329 1.96972 57.2425
13562678 10.8959 14.1083 15.1284 17.1266 2.27504 1.89949 57.2593
13562693 10.8959 14.1083 15.1284 17.1266 2.27504 1.89949 57.2593
13562698 10.6404 14.4122 14.3798 17.9158 3.1857 1.89446 57.3482
13562708 10.6404 14.4122 14.3798 17.9158 3.1857 1.89446 57.3482
13562719 10.3145 14.6793 13.6832 18.4808 4.00751 1.88168 57.1578
13562728 10.0238 15.0016 13.0697 18.9971 4.77525 1.85 57.0923
13562744 10.0238 15.0016 13.0697 18.9971 4.77525 1.85 57.0923
13562748 9.74197 15.3055 12.4251 19.5622 5.56707 1.82514 57.0348
13562758 9.45129 15.6186 11.8324 20.3026 6.39696 1.85257 57.2049
13562768 9.45129 15.6186 11.8324 20.3026 6.39696 1.85257 57.2049
13562776 9.16943 15.9225 11.3333 20.9066 7.11923 1.87015 57.3319
13562790 9.16943 15.9225 11.3333 20.9066 7.11923 1.87015 57.3319
13562798 8.78187 16.2172 10.8031 21.345 7.86447 1.87646 57.1471
13562813 8.54404 16.4567 10.408 21.6567 8.39449 1.85681 57.0654
13562828 8.27979 16.7514 9.96086 21.91 8.97188 1.80303 56.902
13562839 8.27979 16.7514 9.96086 21.91 8.97188 1.80303 56.902
13562850 8.03316 16.9724 9.62813 22.1438 9.44693 1.78762 56.7775
13562861 7.83938 17.3307 9.27462 22.3777 9.94078 1.71118 56.8223
13562873 7.83938 17.3307 9.27462 22.3777 9.94078 1.71118 56.8223
13562883 7.63679 17.4765 8.99388 22.6699 10.3544 1.73057 56.7771
13562888 7.38135 17.6905 8.85872 22.9622 10.7275 1.77941 56.8927
13562908 7.3285 17.8267 8.71315 23.1278 10.9274 1.75954 56.9961
13562918 7.3285 17.8267 8.71315 23.1278 10.9274 1.75954 56.9961
13562934 7.16995 17.885 8.61957 23.2057 11.1204 1.78542 56.8803
13562938 7.15233 18.0503 8.53639 23.4103 11.2739 1.7701 57.1494
13562950 7.15233 18.0503 8.53639 23.4103 11.2739 1.7701 57.1494
13562961 7.04663 18.0406 8.39083 23.5467 11.4643 1.80192 57.0248
13562969 6.9057 18.0309 8.39083 23.7415 11.5982 1.89134 57.069
13562987 6.9057 18.0309 8.39083 23.7415 11.5982 1.89134 57.069
13562989 6.80881 18.0892 8.30764 23.9364 11.7729 1.92835 57.1421
13562999 6.80881 18.0892 8.30764 23.9364 11.7729 1.92835 57.1421
13563013 6.71192 18.0892 8.20367 24.0436 11.9272 1.95783 57.0484
13563019 6.62383 18.1281 8.22446 24.1702 12.0086 2.00607 57.1466
13563029 6.62383 18.1281 8.22446 24.1702 12.0086 2.00607 57.1466
13563039 6.56218 18.2643 8.02691 24.3163 12.2405 1.97222 57.1697
13563056 6.45648 18.274 8.04771 24.4527 12.3284 2.03647 57.2309
13563060 6.45648 18.274 8.04771 24.4527 12.3284 2.03647 57.2309
13563070 6.33316 18.381 7.91254 24.5989 12.553 2.04381 57.2256
13563080 6.21865 18.4685 7.86055 24.6573 12.6941 2.05332 57.205
13563092 6.21865 18.4685 7.86055 24.6573 12.6941 2.05332 57.205
13563102 6.11295 18.4685 7.73578 24.7352 12.8632 2.07428 57.0525
13563111 6.11295 18.4685 7.73578 24.7352 12.8632 2.07428 57.0525
13563135 6.02487 18.5074 7.79817 24.8034 12.9029 2.11852 57.1339
13563138 5.99845 18.5172 7.68379 24.8521 13.0089 2.10871 57.0516
13563142 5.99845 18.5172 7.68379 24.8521 13.0089 2.10871 57.0516
13563167 5.9456 18.7019 7.6422 24.6768 13.0739 2.01999 56.9665
13563168 5.91917 18.77 7.6318 24.7158 13.1208 2.01406 57.0368
13563171 5.91917 18.77 7.6318 24.7158 13.1208 2.01406 57.0368
13563181 5.9456 18.8965 7.6526 24.745 13.1217 1.97997 57.2396
13563191 5.9456 18.8965 7.6526 24.745 13.1217 1.97997 57.2396
13563201 5.96321 18.984 7.67339 24.7645 13.1183 1.958 57.3851
13563215 6.03368 18.984 7.67339 24.6183 13.0412 1.90389 57.3094
13563221 6.03368 18.984 7.67339 24.6183 13.0412 1.90389 57.3094
13563231 5.98964 19.1299 7.52783 24.4138 13.1553 1.79336 57.0611
13563241 5.9544 19.0812 7.50703 24.2481 13.1482 1.77481 56.7908
13563274 5.97202 19.0326 7.61101 24.1799 13.0422 1.7923 56.7956
13563277 5.97202 19.0326 7.61101 24.1799 13.0422 1.7923 56.7956
13563283 6.02487 19.0618 7.6526 24.0338 12.9543 1.74372 56.7731
13563305 6.12176 19.0326 7.76697 23.9266 12.7843 1.72546 56.848
13563307 6.12176 19.0326 7.76697 23.9266 12.7843 1.72546 56.848
13563314 6.19223 18.9645 7.90214 23.8097 12.608 1.72902 56.8686
13563328 6.31554 18.8381 8.02691 23.8097 12.4168 1.75899 56.9903
13563334 6.31554 18.8381 8.02691 23.8097 12.4168 1.75899 56.9903
13563344 6.40363 18.7603 8.25566 23.7123 12.1707 1.7864 57.1319
13563354 6.40363 18.7603 8.25566 23.7123 12.1707 1.7864 57.1319
13563365 6.46528 18.4977 8.42202 23.6539 11.9499 1.87054 57.0389
13563376 6.57098 18.3713 8.71315 23.5564 11.6425 1.92111 57.2119
13563385 6.57098 18.3713 8.71315 23.5564 11.6425 1.92111 57.2119
13563399 6.6943 18.2059 8.95229 23.4006 11.3356 1.95254 57.2531
13563405 6.93212 18.1087 9.22263 23.235 10.952 1.93486 57.4984
13563415 6.93212 18.1087 9.22263 23.235 10.952 1.93486 57.4984
13563425 7.12591 17.885 9.49297 23.0206 10.555 1.95639 57.5245
13563435 7.21399 17.6419 9.7529 22.8453 10.2344 2.02135 57.454
13563448 7.21399 17.6419 9.7529 22.8453 10.2344 2.02135 57.454
13563455 7.37254 17.3987 9.99205 22.592 9.86226 2.04325 57.3553
13563473 7.37254 17.3987 9.99205 22.592 9.86226 2.04325 57.3553
13563480 7.46062 17.214 10.1896 22.2218 9.54066 2.03293 57.086
13563489 7.58394 17.0097 10.5119 21.8711 9.11993 2.05066 56.9767
13563502 7.58394 17.0097 10.5119 21.8711 9.11993 2.05066 56.9767
13563506 7.82176 16.8987 10.7511 21.4327 8.68061 1.96733 56.9042
13563516 8.0772 16.7606 11.2398 21.0819 8.10257 1.96396 57.1595
13563532 8.0772 16.7606 11.2398 21.0819 8.10257 1.96396 57.1595
13563538 8.35026 16.6869 11.5517 20.4682 7.55961 1.83572 57.057
13563548 8.35026 16.6869 11.5517 20.4682 7.55961 1.83572 57.057
13563560 8.70259 16.4843 11.9676 19.7668 6.84318 1.7254 56.9212
13563568 8.97565 16.2356 12.5602 19.153 6.08383 1.71331 56.9245
13563585 8.97565 16.2356 12.5602 19.153 6.08383 1.71331 56.9245
13563588 9.31917 15.9041 13.1217 18.4711 5.25128 1.68161 56.8161
13563598 9.66269 15.591 13.808 17.945 4.41411 1.71013 57.0066
13563609 9.66269 15.591 13.808 17.945 4.41411 1.71013 57.0066
13563619 10.0415 15.3147 14.515 17.341 3.53914 1.70413 57.2121
13563635 10.0415 15.3147 14.515 17.341 3.53914 1.70413 57.2121
13563648 10.2617 14.8911 15.0349 16.724 2.7756 1.74113 56.9116
13563649 10.5259 14.6517 15.6171 16.3432 2.12288 1.78063 57.1379
13563664 10.5259 14.6517 15.6171 16.3432 2.12288 1.78063 57.1379
13563669 10.7109 14.3938 16.1994 15.6674 1.3827 1.78039 56.9715
13563679 10.9575 14.0255 16.9896 15.1439 0.534979 1.87788 57.1165
13563695 10.9575 14.0255 16.9896 15.1439 0.534979 1.87788 57.1165
13563699 11.2306 13.7308 17.6595 14.5538 -0.264792 1.90258 57.1746
13563709 11.2306 13.7308 17.6595 14.5538 -0.264792 1.90258 57.1746
13563724 11.4155 13.5098 18.3092 14.0493 -0.945176 1.94641 57.2838
13563729 11.5301 13.2979 18.9884 13.5733 -1.58878 2.02138 57.3898
13563750 11.7062 13.0585 19.5987 13.0308 -2.27185 2.05547 57.3942
13563760 11.8471 12.7546 20.2976 12.4978 -3.00207 2.1413 57.3971
13563778 11.8471 12.7546 20.2976 12.4978 -3.00207 2.1413 57.3971
13563781 12.0233 12.4783 20.9965 11.9362 -3.74573 2.20192 57.4343
13563790 12.0233 12.4783 20.9965 11.9362 -3.74573 2.20192 57.4343
13563807 12.0938 12.0731 21.7545 11.2699 -4.59216 2.32311 57.1913
13563810 12.2788 11.5943 22.6207 10.832 -5.43961 2.50666 57.3258
13563835 12.3845 11.0233 23.5362 10.28 -6.38605 2.72834 57.2239
13563841 12.4813 10.5168 24.6091 9.77548 -7.3185 2.97645 57.3828
13563851 12.4813 10.5168 24.6091 9.77548 -7.3185 2.97645 57.3828
13563861 12.6223 10.0103 25.308 9.35666 -8.09959 3.14992 57.2973
13563871 12.6135 9.50379 25.8691 9.08063 -8.71703 3.37301 57.067
13563891 12.6311 9.17226 26.4696 8.91881 -9.18384 3.56303 57.1918
13563903 12.6311 9.17226 26.4696 8.91881 -9.18384 3.56303 57.1918
13563914 12.6311 8.79469 27.0898 8.81411 -9.6425 3.78811 57.3296
13563921 12.6575 8.6013 27.7099 8.72844 -9.98215 3.94635 57.6972
13563942 12.6575 8.6013 27.7099 8.72844 -9.98215 3.94635 57.6972
13563943 12.7368 8.51842 28.2218 8.62374 -10.2479 4.02499 58.1007
13563951 12.8161 8.33424 28.6746 8.45241 -10.5976 4.11224 58.2773
13563964 12.8161 8.33424 28.6746 8.45241 -10.5976 4.11224 58.2773
13563971 12.8249 8.22373 28.9797 8.17637 -10.9117 4.15108 58.2047
13563987 12.8249 8.22373 28.9797 8.17637 -10.9117 4.15108 58.2047
13563993 12.8601 7.93824 29.2357 7.95745 -11.2948 4.24065 57.9915
13564004 12.9394 7.65276 29.7869 7.61478 -11.8369 4.34776 57.9938
13564013 12.9394 7.65276 29.7869 7.61478 -11.8369 4.34776 57.9938
13564023 12.957 7.45016 29.9641 7.49104 -12.089 4.41945 57.8623
13564037 12.9746 7.14626 30.2003 7.30067 -12.464 4.52436 57.6219
13564043 12.9746 7.14626 30.2003 7.30067 -12.464 4.52436 57.6219
13564053 13.0451 6.94366 30.3874 7.17693 -12.7325 4.58071 57.553
13564063 13.0451 6.94366 30.3874 7.17693 -12.7325 4.58071 57.553
13564073 13.0627 6.69502 30.4858 7.01512 -13.0279 4.64818 57.2586
13564087 13.0539 6.54767 30.5646 6.87234 -13.236 4.69035 57.0385
13564103 13.0539 6.40953 30.6827 6.81523 -13.3915 4.74914 56.9613
13564113 13.0539 6.40953 30.6827 6.81523 -13.3915 4.74914 56.9613
13564122 13.0627 6.20693 30.9386 6.79619 -13.5946 4.85888 57.0044
13564139 13.1067 6.11484 31.2241 6.76764 -13.7417 4.9211 57.2133
13564143 13.1067 6.11484 31.2241 6.76764 -13.7417 4.9211 57.2133
13564153 13.1596 6.05959 31.4308 6.87234 -13.7592 4.9765 57.5223
13564164 13.2829 5.9675 31.5391 6.8533 -13.8791 4.98119 57.6428
13564174 13.2829 5.9675 31.5391 6.8533 -13.8791 4.98119 57.6428
13564190 13.3622 6.08722 31.5194 6.94849 -13.7463 4.9256 57.9173
13564194 13.3622 6.08722 31.5194 6.94849 -13.7463 4.9256 57.9173
13564206 13.4503 6.09642 31.3816 6.91041 -13.7559 4.86145 57.8387
13564216 13.5648 6.0688 31.3028 6.95801 -13.7495 4.82619 57.8944
13564242 13.6969 6.08722 31.106 6.92945 -13.7437 4.7349 57.8195
13564245 13.8466 6.1701 30.9091 6.95801 -13.66 4.62574 57.8838
13564255 13.8466 6.1701 30.9091 6.95801 -13.66 4.62574 57.8838
13564267 14.0228 6.28061 30.6039 6.88186 -13.6117 4.45993 57.7892
13564275 14.1373 6.34507 30.0921 6.87234 -13.496 4.30364 57.4468
13564293 14.1373 6.34507 30.0921 6.87234 -13.496 4.30364 57.4468
13564296 14.3663 6.51083 29.59 6.77716 -13.3936 4.05893 57.2444
13564319 14.428 6.60293 29.088 6.79619 -13.2289 3.91459 56.9151
13564325 14.5777 6.74106 28.7533 6.84378 -13.0659 3.76301 56.9159
13564355 14.6218 6.98971 28.3891 6.91993 -12.7815 3.60966 56.9205
13564358 14.6746 7.15547 28.0052 7.1103 -12.4742 3.49951 56.9456
13564365 14.6746 7.15547 28.0052 7.1103 -12.4742 3.49951 56.9456
13564385 14.7891 7.487 27.7099 7.35778 -12.0563 3.34602 57.3438
13564396 14.8244 7.77248 27.3654 7.49104 -11.7166 3.20076 57.4532
13564412 14.9389 8.01192 26.8732 7.66237 -11.3669 3.02284 57.4863
13564418 14.9389 8.01192 26.8732 7.66237 -11.3669 3.02284 57.4863
13564426 14.9565 8.21452 26.2727 7.86226 -10.9729 2.86986 57.306
13564439 14.9124 8.47237 25.6427 8.1383 -10.4715 2.72791 57.1658
13564446 14.9124 8.47237 25.6427 8.1383 -10.4715 2.72791 57.1658
13564457 14.8772 8.78548 25.0324 8.50952 -9.88321 2.5905 57.2046
13564466 14.8772 8.78548 25.0324 8.50952 -9.88321 2.5905 57.2046
13564476 14.842 9.09859 24.3926 8.9664 -9.23635 2.46558 57.2995
13564496 14.7451 9.45775 23.6248 9.35666 -8.54931 2.30272 57.1843
13564506 14.6394 9.83532 22.916 9.8421 -7.80932 2.17099 57.2328
13564523 14.4808 10.1853 22.0301 10.2609 -7.05125 2.00807 56.9571
13564528 14.4808 10.1853 22.0301 10.2609 -7.05125 2.00807 56.9571
13564538 14.2606 10.5168 21.2328 10.794 -6.24191 1.91429 56.8041
13564553 14.2606 10.5168 21.2328 10.794 -6.24191 1.91429 56.8041
13564559 13.9788 10.8115 20.3272 11.4412 -5.32776 1.85068 56.5586
13564568 13.6705 11.143 19.4412 12.3455 -4.25053 1.84802 56.6002
13564580 13.6705 11.143 19.4412 12.3455 -4.25053 1.84802 56.6002
13564588 13.3886 11.6035 18.634 13.1355 -3.20802 1.79104 56.7616
13564605 13.3886 11.6035 18.634 13.1355 -3.20802 1.79104 56.7616
13564607 13.0979 11.9718 17.8466 13.9541 -2.20614 1.77532 56.8704
13564617 12.7368 12.377 17.0295 14.8203 -1.12748 1.77376 56.9636
13564638 12.3668 12.8835 15.9706 15.715 0.114626 1.6954 56.936
13564652 11.8471 13.3164 15.0141 16.6859 1.38095 1.72425 56.8635
13564658 11.8471 13.3164 15.0141 16.6859 1.38095 1.72425 56.8635
13564680 11.3715 13.8137 14.0055 17.7794 2.72776 1.73768 56.97
13564682 11.3715 13.8137 14.0055 17.7794 2.72776 1.73768 56.97
13564688 10.799 14.2004 13.1425 18.9874 4.04624 1.8722 57.1293
13564698 10.3233 14.6425 12.4043 19.8057 5.12481 1.90051 57.1758
13564711 10.3233 14.6425 12.4043 19.8057 5.12481 1.90051 57.1758
13564719 9.82124 14.9648 11.8012 20.6046 6.09655 1.99848 57.1918
13564729 9.40725 15.3147 11.219 21.4716 7.03685 2.08193 57.4126
13564743 9.40725 15.3147 11.219 21.4716 7.03685 2.08193 57.4126
13564749 8.84352 15.6002 10.6575 22.2315 7.99313 2.20954 57.3328
13564759 8.84352 15.6002 10.2312 22.2315 8.24029 2.11372 56.9065
13564772 8.41192 15.7752 10.2312 22.9037 8.73826 2.34146 57.322
13564779 8.00674 16.0699 9.7841 23.5272 9.4995 2.41376 57.3879
13564789 8.00674 16.0699 9.7841 23.5272 9.4995 2.41376 57.3879
13564800 7.59275 16.2633 9.51376 24.0825 10.1124 2.54305 57.4523
13564809 7.24041 16.5395 9.07706 24.5404 10.7855 2.57089 57.3974
13564824 7.24041 16.5395 9.07706 24.5404 10.7855 2.57089 57.3974
13564831 6.96736 16.8342 8.79633 24.8327 11.2759 2.56677 57.4306
13564839 6.96736 16.8342 8.79633 24.8327 11.2759 2.56677 57.4306
13564849 6.60622 17.0486 8.5156 24.9983 11.7744 2.58682 57.1687
13564859 6.46528 17.3307 8.23486 25.1054 12.1359 2.50568 57.1363
13564875 6.46528 17.3307 8.23486 25.1054 12.1359 2.50568 57.1363
13564880 6.20984 17.5057 8.00612 25.2711 12.5283 2.51653 56.9927
13564890 6.09534 17.71 7.87095 25.4464 12.7752 2.4978 57.1227
13564900 6.09534 17.71 7.87095 25.4464 12.7752 2.4978 57.1227
13564910 5.86632 17.9628 7.79817 25.5341 13.0475 2.49376 57.1614
13564926 5.86632 17.9628 7.79817 25.5341 13.0475 2.49376 57.1614
13564933 5.78705 18.0892 7.55902 25.4951 13.2786 2.41818 56.9304
13564940 5.71658 18.4685 7.40306 25.4367 13.4966 2.27654 57.0248
13564960 5.76943 18.663 7.36147 25.349 13.5105 2.17297 57.1429
13564978 5.79586 18.9451 7.34067 25.3198 13.5573 2.06951 57.4014
13564981 5.79586 18.9451 7.34067 25.3198 13.5573 2.06951 57.4014
13564993 5.75181 19.1493 7.24709 25.1736 13.6615 1.96773 57.3219
13565002 5.71658 19.2855 7.15352 25.0957 13.76 1.89878 57.2513
13565013 5.71658 19.2855 7.15352 25.0957 13.76 1.89878 57.2513
13565027 5.6285 19.3924 7.09113 24.8716 13.8392 1.82732 56.9837
13565033 5.6285 19.3924 7.09113 24.8716 13.8392 1.82732 56.9837
13565044 5.63731 19.4605 6.95596 24.6963 13.9046 1.73244 56.7501
13565053 5.61969 19.655 6.94557 24.5794 13.939 1.65059 56.7997
13565063 5.61969 19.655 6.94557 24.5794 13.939 1.65059 56.7997
13565079 5.60207 19.8495 6.90398 24.5112 14.0041 1.57303 56.8668
13565083 5.54922 19.9468 6.86239 24.4917 14.0839 1.54566 56.8501
13565093 5.54922 19.9468 6.86239 24.4917 14.0839 1.54566 56.8501
13565115 5.68135 20.083 6.87278 24.4332 14.0012 1.45655 57.0703
13565117 5.68135 20.083 6.87278 24.4332 14.0012 1.45655 57.0703
13565139 5.69016 20.3455 6.88318 24.4235 14.0366 1.37882 57.3424
13565154 5.6285 20.365 6.84159 24.3748 14.1015 1.3694 57.2099
13565168 5.57565 20.5303 6.7792 24.3261 14.2024 1.31075 57.2113
13565174 5.57565 20.5303 6.7792 24.3261 14.2024 1.31075 57.2113
13565184 5.64611 20.54 6.8208 24.1312 14.0906 1.25114 57.1382
13565197 5.64611 20.54 6.8208 24.1312 14.0906 1.25114 57.1382
13565204 5.58446 20.4331 6.74801 24.0923 14.155 1.27232 56.8578
13565214 5.63731 20.5303 6.7896 24.0241 14.0956 1.22304 56.9813
13565234 5.69896 20.6081 6.87278 23.9364 13.9946 1.18235 57.1163
13565249 5.76943 20.5595 6.92477 23.8585 13.8866 1.16988 57.1121
13565265 5.87513 20.5109 6.96636 23.7415 13.7541 1.13547 57.0939
13565289 3.69067 20.5109 7.10153 23.7415 15.1969 1.80986 55.0446
13565291 5.9456 20.365 7.10153 23.5077 13.539 1.13282 56.9198
13565303 6.07772 20.2969 7.24709 23.4785 13.3321 1.14298 57.1002
13565306 6.07772 20.2969 7.24709 23.4785 13.3321 1.14298 57.1002
13565316 6.13057 20.1608 7.38226 23.4493 13.1721 1.19223 57.1229
13565330 6.23627 19.9954 7.6422 23.3616 12.876 1.25065 57.2355
13565338 6.23627 19.9954 7.6422 23.3616 12.876 1.25065 57.2355
13565356 6.39482 19.8398 7.80856 23.2252 12.5993 1.25701 57.2684
13565358 6.42124 19.6356 8.02691 23.0206 12.3493 1.31095 57.1044
13565368 6.42124 19.6356 8.02691 23.0206 12.3493 1.31095 57.1044
13565381 6.57979 19.4897 8.26606 22.8355 12.0163 1.32027 57.1711
13565407 6.65026 19.1493 8.62997 22.7381 11.6356 1.4611 57.1677
13565409 6.77358 18.9451 9.03547 22.6407 11.2278 1.55698 57.3948
13565420 6.77358 18.9451 9.03547 22.6407 11.2278 1.55698 57.3948
13565436 6.9057 18.6144 9.39939 22.4751 10.7956 1.6607 57.3946
13565438 7.05544 18.2838 9.80489 22.1633 10.2896 1.73512 57.3074
13565450 7.05544 18.2838 9.80489 22.1633 10.2896 1.73512 57.3074
13565467 7.21399 18.0601 10.408 21.8321 9.68033 1.81677 57.5141
13565469 7.21399 18.0601 10.408 21.8321 9.68033 1.81677 57.5141
13565479 7.46062 17.6711 11.0006 21.4814 8.97842 1.91369 57.6137
13565495 7.67202 17.3696 11.6869 20.9748 8.22549 1.98084 57.7032
13565499 7.67202 17.3696 11.6869 20.9748 8.22549 1.98084 57.7032
13565509 8.01554 16.8527 12.3835 20.2734 7.26943 2.03093 57.525
13565523 8.24456 16.2909 13.1841 19.2894 6.20589 2.08863 57.009
13565549 8.64093 15.766 14.1823 18.4321 4.98712 2.15905 57.0213
13565551 8.64093 15.766 14.1823 18.4321 4.98712 2.15905 57.0213
13565559 9.01088 15.195 15.0661 17.5748 3.82294 2.22571 56.8467
13565579 9.40725 14.6425 16.085 16.8953 2.65014 2.34891 57.03
13565590 9.73316 14.007 16.9688 16.21 1.54388 2.48737 56.919
13565609 9.95337 13.5466 17.8466 15.5913 0.587451 2.61809 56.9378
13565611 9.95337 13.5466 17.8466 15.5913 0.587451 2.61809 56.9378
13565620 10.3145 12.9756 18.8408 14.9916 -0.519957 2.76832 57.1225
13565638 10.3145 12.9756 18.8408 14.9916 -0.519957 2.76832 57.1225
13565640 10.5347 12.4599 19.8153 14.2587 -1.59081 2.91211 57.0686
13565650 10.9223 12.0271 20.9572 13.5448 -2.74474 3.01627 57.4513
13565665 10.9223 12.0271 20.9572 13.5448 -2.74474 3.01627 57.4513
13565670 11.1865 11.4745 22.0104 12.8119 -3.87527 3.17341 57.4834
13565680 11.5301 11.0049 22.916 12.1075 -4.9227 3.25459 57.5585
13565704 11.5301 11.0049 22.916 12.1075 -4.9227 3.25459 57.5585
13565705 11.856 10.5536 23.7823 11.3555 -5.96424 3.31767 57.5474
13565725 12.0762 10.0932 24.619 10.7749 -6.87377 3.44609 57.5632
13565730 12.2876 9.62351 25.3179 10.28 -7.69532 3.56991 57.5089
13565740 12.2876 9.62351 25.3179 10.28 -7.69532 3.56991 57.5089
13565752 12.4637 9.14464 26.1054 9.74692 -8.56132 3.71835 57.4607
13565761 12.6399 8.65656 27.0208 9.29955 -9.41766 3.91134 57.6169
13565778 12.6399 8.65656 27.0208 9.29955 -9.41766 3.91134 57.6169
13565781 12.8337 8.16847 27.8772 8.90929 -10.224 4.0971 57.7887
13565793 12.8337 8.16847 27.8772 8.90929 -10.224 4.0971 57.7887
13565805 12.913 7.65276 28.773 8.52856 -11.0186 4.33817 57.8673
13565811 13.0451 7.2844 29.3932 8.15734 -11.6606 4.46295 57.88
13565821 13.0451 7.2844 29.3932 8.15734 -11.6606 4.46295 57.88
13565833 13.0539 6.86078 29.8558 7.85274 -12.233 4.63196 57.6232
13565842 13.0891 6.54767 30.2791 7.67189 -12.654 4.77033 57.5878
13565857 13.0891 6.54767 30.2791 7.67189 -12.654 4.77033 57.5878
13565863 13.0539 6.23456 30.6532 7.46249 -13.0696 4.91965 57.4041
13565873 13.0539 6.23456 30.6532 7.46249 -13.0696 4.91965 57.4041
13565884 13.0451 6.00433 31.0371 7.34826 -13.3759 5.04988 57.4347
13565893 13.0187 5.91224 31.5194 7.3673 -13.516 5.17727 57.8176
13565908 13.0187 5.91224 31.5194 7.3673 -13.516 5.17727 57.8176
13565913 13.001 5.73727 31.7458 7.30067 -13.7185 5.27167 57.7848
13565923 12.9041 5.65439 32.0214 7.31971 -13.7961 5.38413 57.8997
13565945 12.9041 5.65439 32.0214 7.31971 -13.7961 5.38413 57.8997
13565947 12.913 5.62676 32.2872 7.31019 -13.8738 5.43311 58.1371
13565953 12.913 5.62676 32.2872 7.31019 -13.8738 5.43311 58.1371
13565977 12.7984 5.47941 32.366 7.27212 -13.9913 5.53221 57.9159
13565978 12.7544 5.53467 32.6219 7.3673 -13.9307 5.5853 58.2783
13565992 12.6663 5.44258 32.8483 7.31971 -14.0503 5.67783 58.2769
13566004 12.5782 5.41495 33.0648 7.33875 -14.0801 5.75641 58.3968
13566014 12.5782 5.41495 33.0648 7.33875 -14.0801 5.75641 58.3968
13566031 12.4725 5.33207 33.0747 7.30067 -14.1434 5.81921 58.18
13566039 12.4725 5.33207 33.0747 7.30067 -14.1434 5.81921 58.18
13566056 12.3756 5.31365 33.0944 7.24356 -14.1799 5.85466 58.0272
13566057 12.2435 5.29523 32.9763 7.2626 -14.1326 5.89331 57.7776
13566064 12.2435 5.29523 32.9763 7.2626 -14.1326 5.89331 57.7776
13566074 12.2611 5.24919 32.9074 7.20549 -14.193 5.8837 57.6232
13566089 12.1819 5.23077 32.868 7.21501 -14.1768 5.91445 57.4956
13566095 12.1819 5.23077 32.868 7.21501 -14.1768 5.91445 57.4956
13566104 12.2788 5.33207 32.7302 7.20549 -14.1066 5.81917 57.5465
13566124 12.2435 5.29523 32.5825 7.32923 -14.0127 5.84146 57.4505
13566134 12.2259 5.37811 32.5628 7.44345 -13.8722 5.83288 57.6103
13566151 12.2259 5.37811 32.5628 7.44345 -13.8722 5.83288 57.6103
13566155 12.2435 5.38732 32.4152 7.5196 -13.7894 5.81178 57.5656
13566165 12.2171 5.48862 32.297 7.70045 -13.5716 5.79476 57.7032
13566185 12.3228 5.62676 32.238 7.8813 -13.3689 5.72675 58.0688
13566203 12.3228 5.62676 32.238 7.8813 -13.3689 5.72675 58.0688
13566205 12.3228 5.77411 31.8935 7.97648 -13.1393 5.63418 57.9668
13566215 12.358 5.85699 31.6178 8.12878 -12.9353 5.5722 57.9616
13566235 12.4285 5.9675 31.1257 8.23348 -12.7059 5.44449 57.7551
13566247 12.5254 6.12405 30.6039 8.37626 -12.4194 5.29174 57.6296
13566263 12.5254 6.12405 30.6039 8.37626 -12.4194 5.29174 57.6296
13566266 12.4902 6.28982 29.8755 8.53807 -12.0371 5.14925 57.1936
13566276 12.4902 6.28982 29.8755 8.53807 -12.0371 5.14925 57.1936
13566294 12.5782 6.474 29.1865 8.74748 -11.6446 4.97007 56.9862
13566299 12.6575 6.69502 28.586 9.014 -11.2087 4.80596 56.9525
13566324 12.6927 7.01733 28.1529 9.3757 -10.6801 4.66952 57.2386
13566326 12.8777 7.27519 27.5327 9.82307 -10.1342 4.48703 57.5087
13566354 12.913 7.63434 26.8929 10.1943 -9.53301 4.30468 57.6345
13566357 12.913 7.63434 26.8929 10.1943 -9.53301 4.30468 57.6345
13566366 13.0098 8.03034 26.066 10.575 -8.87225 4.057 57.6812
13566385 13.0979 8.35265 25.249 10.832 -8.32683 3.81454 57.5316
13566396 13.1684 8.79469 24.5107 10.9462 -7.81006 3.52504 57.42
13566413 13.1772 9.09859 23.5756 11.1652 -7.22992 3.2793 57.0165
13566418 13.1772 9.09859 23.5756 11.1652 -7.22992 3.2793 57.0165
13566428 13.2917 9.58667 22.6306 11.346 -6.59115 2.92803 56.855
13566441 13.2917 9.58667 22.6306 11.346 -6.59115 2.92803 56.855
13566448 13.2741 9.93662 21.7446 11.841 -5.82834 2.74003 56.7963
13566467 13.1508 10.3602 20.7997 12.4597 -4.90155 2.57573 56.7704
13566468 13.1508 10.3602 20.7997 12.4597 -4.90155 2.57573 56.7704
13566478 13.0715 10.7378 19.9629 13.0403 -4.07318 2.42744 56.8126
13566494 12.9394 11.1891 19.2345 13.6019 -3.24012 2.29299 56.9649
13566498 12.9394 11.1891 19.2345 13.6019 -3.24012 2.29299 56.9649
13566509 12.7544 11.5943 18.3781 14.2206 -2.33446 2.17307 56.9474
13566528 12.543 11.9626 17.5611 14.8679 -1.43744 2.08748 56.9346
13566538 12.2876 12.2849 16.7817 15.6293 -0.506698 2.06336 56.9835
13566548 12.2876 12.2849 16.7817 15.6293 -0.506698 2.06336 56.9835
13566558 12.0321 12.8006 15.8875 16.5431 0.621766 1.99023 57.2634
13566575 11.6446 13.1782 14.8997 17.4092 1.76922 1.96548 57.1316
13566578 11.6446 13.1782 14.8997 17.4092 1.76922 1.96548 57.1316
13566588 11.2394 13.6479 14.0055 18.3249 2.93962 1.95128 57.2177
13566601 11.2394 13.6479 14.0055 18.3249 2.93962 1.95128 57.2177
13566610 10.7461 13.9057 13.1321 19.1725 4.03818 2.01542 56.9565
13566619 10.1912 14.2373 12.3003 20.3221 5.2882 2.15437 57.0508
13566629 10.1912 14.2373 12.3003 20.3221 5.2882 2.15437 57.0508
13566638 9.70674 14.5872 11.6453 21.3158 6.35359 2.27065 57.255
13566657 9.16062 14.8451 10.9902 22.3289 7.424 2.43702 57.3248
13566659 9.16062 14.8451 10.9902 22.3289 7.424 2.43702 57.3248
13566669 8.67617 15.1213 10.3976 22.9524 8.31185 2.50732 57.1475
13566684 8.67617 15.1213 10.3976 22.9524 8.31185 2.50732 57.1475
13566698 8.08601 15.2779 9.84648 23.5077 9.19157 2.64209 56.7181
13566699 7.67202 15.4252 9.43058 23.9656 9.8632 2.73455 56.4935
13566720 7.67202 15.4252 9.43058 23.9656 9.8632 2.73455 56.4935
13566721 7.23161 15.591 9.08746 24.6865 10.583 2.90248 56.5966
13566740 6.80881 15.8028 8.83792 25.3003 11.2143 3.04668 56.7498
13566741 6.80881 15.8028 8.83792 25.3003 11.2143 3.04668 56.7498
13566750 6.39482 16.0515 8.66116 25.8069 11.7731 3.16838 56.9143
13566767 6.39482 16.0515 8.66116 25.8069 11.7731 3.16838 56.9143
13566770 6.02487 16.208 8.45321 26.4206 12.3237 3.32035 57.1067
13566780 5.68135 16.5119 8.33884 26.8785 12.7896 3.40288 57.4106
13566795 5.68135 16.5119 8.33884 26.8785 12.7896 3.40288 57.4106
13566800 5.51399 16.7237 8.15168 27.2877 13.1533 3.43333 57.6771
13566811 5.37306 16.9724 7.98532 27.5994 13.4703 3.42809 57.9302
13566830 5.18808 17.2918 7.81896 27.6481 13.7768 3.36185 57.9469
13566849 5.18808 17.2918 7.81896 27.6481 13.7768 3.36185 57.9469
13566850 5.00311 17.5252 7.663 27.541 14.0303 3.2934 57.7323
13566861 4.85337 17.7391 7.46544 27.4143 14.2828 3.20692 57.4723
13566874 4.85337 17.7391 7.46544 27.4143 14.2828 3.20692 57.4723
13566882 4.75648 17.9239 7.30948 27.2487 14.4599 3.11271 57.2386
13566892 4.69482 18.1184 7.10153 26.9662 14.6307 2.9679 56.881
13566901 4.69482 18.1184 7.10153 26.9662 14.6307 2.9679 56.881
13566914 4.6772 18.2254 7.17431 26.8201 14.5851 2.92417 56.897
13566924 4.6772 18.2254 7.17431 26.8201 14.5851 2.92417 56.897
13566931 4.6772 18.3129 6.98716 26.7616 14.721 2.84425 56.7389
13566949 4.66839 18.381 7.03914 26.7226 14.6961 2.82842 56.8112
13566962 4.73886 18.5269 7.13272 26.7129 14.6066 2.77875 57.1114
13566974 4.85337 18.6436 7.11193 26.7519 14.5701 2.71096 57.3607
13566981 4.85337 18.6436 7.11193 26.7519 14.5701 2.71096 57.3607
13566992 4.90622 18.8478 7.18471 26.6057 14.4943 2.61617 57.5445
13567006 4.90622 18.8478 7.18471 26.6057 14.4943 2.61617 57.5445
13567011 5.01192 18.9548 7.12232 26.3622 14.4395 2.48501 57.4512
13567021 5.14404 19.0132 7.2159 26.2453 14.2743 2.42214 57.6184
13567036 5.14404 19.0132 7.2159 26.2453 14.2743 2.42214 57.6184
13567043 5.22332 18.984 7.2055 26.0699 14.1891 2.36631 57.4827
13567065 5.26736 19.0034 7.24709 25.8458 14.092 2.3069 57.3637
13567066 5.26736 19.0034 7.24709 25.8458 14.092 2.3069 57.3637
13567074 5.34663 19.0618 7.2159 25.5926 14.022 2.20216 57.2169
13567101 5.34663 19.0618 7.2159 25.5926 14.022 2.20216 57.2169
13567103 5.46114 19.1007 7.26789 25.2418 13.8482 2.08893 57.0715
13567104 5.61969 19.1201 7.35107 24.9398 13.6283 1.98605 57.0307
13567114 5.61969 19.1201 7.35107 24.9398 13.6283 1.98605 57.0307
13567134 5.77824 19.1688 7.41346 24.7547 13.4517 1.89648 57.1152
13567136 5.86632 19.1007 7.53823 24.5599 13.255 1.87447 57.0651
13567145 5.86632 19.1007 7.53823 24.5599 13.255 1.87447 57.0651
13567161 6.10415 18.9743 7.71498 24.4819 12.9362 1.86429 57.2753
13567164 6.10415 18.9743 7.71498 24.4819 12.9362 1.86429 57.2753
13567174 6.22746 18.8867 7.94373 24.3553 12.6586 1.87714 57.4132
13567188 6.41244 18.8381 8.14128 24.2092 12.3668 1.8489 57.601
13567194 6.41244 18.8381 8.14128 24.2092 12.3668 1.8489 57.601
13567205 6.5886 18.8089 8.22446 24.0046 12.1474 1.77822 57.6266
13567215 6.74715 18.6339 8.39083 23.7415 11.8396 1.76081 57.5134
13567225 6.74715 18.6339 8.39083 23.7415 11.8396 1.76081 57.5134
13567241 6.9057 18.488 8.47401 23.4298 11.5791 1.70429 57.2975
13567246 7.06425 18.2838 8.55719 23.1083 11.3002 1.6621 57.0135
13567255 7.06425 18.2838 8.55719 23.1083 11.3002 1.6621 57.0135
13567267 7.16995 18.0698 8.72355 22.9135 11.0281 1.68714 56.8768
13567295 7.31088 17.8267 8.9419 22.7868 10.7096 1.7386 56.8663
13567296 7.49585 17.5835 9.16024 22.6309 10.3561 1.77029 56.8706
13567324 7.77772 17.3987 9.3474 22.4653 9.97512 1.74672 56.9892
13567326 7.83057 17.1653 9.59694 22.251 9.67072 1.80812 56.8438
13567336 7.83057 17.1653 9.59694 22.251 9.67072 1.80812 56.8438
13567346 7.93627 16.954 9.81529 22.1828 9.39789 1.87416 56.8883
13567356 7.93627 16.954 9.81529 22.1828 9.39789 1.87416 56.8883
13567372 8.0772 16.6316 9.94006 22.0562 9.11318 1.92771 56.7051
13567376 8.20933 16.4475 10.1688 21.949 8.81483 1.97122 56.7746
13567388 8.20933 16.4475 10.1688 21.949 8.81483 1.97122 56.7746
13567399 8.32383 16.2633 10.3872 21.8126 8.52525 2.01085 56.7869
13567408 8.43834 16.0238 10.5743 21.7834 8.26936 2.08435 56.8199
13567424 8.43834 16.0238 10.5743 21.7834 8.26936 2.08435 56.8199
13567428 8.72021 15.8489 10.9278 21.5691 7.7848 2.08386 57.066
13567438 8.72021 15.8489 10.9278 21.5691 7.7848 2.08386 57.066
13567454 8.90518 15.7107 11.1046 21.2963 7.45274 2.04807 57.0168
13567458 9.01088 15.5265 11.3645 20.9943 7.09423 2.06201 56.8962
13567468 9.01088 15.5265 11.3645 20.9943 7.09423 2.06201 56.8962
13567483 9.19586 15.2319 11.6349 20.5948 6.61695 2.06557 56.6574
13567488 9.40725 15.0477 12.0196 20.2344 6.10805 2.06291 56.7089
13567511 9.61865 14.9372 12.3315 20.1467 5.75697 2.0836 57.034
13567519 9.61865 14.9372 12.3315 20.1467 5.75697 2.0836 57.034
13567540 9.71554 14.8819 12.6434 19.9519 5.45297 2.0976 57.1927
13567541 9.87409 14.6517 12.893 19.3771 4.9571 2.04529 56.7958
13567549 9.87409 14.6517 12.893 19.3771 4.9571 2.04529 56.7958
13567568 10.1031 14.357 13.3401 18.6269 4.22703 1.99556 56.4271
13567569 10.3233 13.961 14.0679 17.906 3.32209 2.05026 56.2582
13567579 10.3233 13.961 14.0679 17.906 3.32209 2.05026 56.2582
13567595 10.6845 13.6203 14.9933 17.1851 2.26954 2.09098 56.4831
13567599 10.6845 13.6203 14.9933 17.1851 2.26954 2.09098 56.4831
13567609 10.9927 13.1782 16.0434 16.5146 1.17075 2.21766 56.729
13567621 11.3891 12.8927 17.2067 15.7436 0.0176758 2.27191 57.2321
13567633 11.3891 12.8927 17.2067 15.7436 0.0176758 2.27191 57.2321
13567647 11.8119 12.4415 18.2403 15.0106 -1.13039 2.347 57.5044
13567649 12.1378 11.981 19.264 14.173 -2.27944 2.42847 57.5559
13567660 12.1378 11.981 19.264 14.173 -2.27944 2.42847 57.5559
13567674 12.4549 11.3824 20.3665 13.3735 -3.50205 2.57982 57.5774
13567679 12.4549 11.3824 20.3665 13.3735 -3.50205 2.57982 57.5774
13567690 12.728 10.8391 21.5084 12.6215 -4.66912 2.74611 57.697
13567702 12.8865 10.2589 22.6699 11.9742 -5.7637 2.98463 57.7897
13567710 12.8865 10.2589 22.6699 11.9742 -5.7637 2.98463 57.7897
13567720 13.0979 9.62351 23.7331 11.2032 -6.93932 3.17777 57.6577
13567731 13.2477 8.83153 24.8159 10.6131 -8.09403 3.48205 57.5082
13567757 13.3005 8.11322 25.9085 10.1562 -9.10758 3.82343 57.4785
13567760 13.3005 8.11322 25.9085 10.1562 -9.10758 3.82343 57.4785
13567771 13.3358 7.49621 27.0012 9.70885 -10.05 4.13908 57.542
13567785 13.4767 6.88841 28.143 9.3757 -10.9511 4.44519 57.8838
13567791 13.4767 6.88841 28.143 9.3757 -10.9511 4.44519 57.8838
13567801 13.5295 6.39112 29.0585 8.92833 -11.7725 4.67975 57.9075
13567811 13.556 5.91224 29.905 8.64278 -12.456 4.93302 58.016
13567822 13.556 5.91224 29.905 8.64278 -12.456 4.93302 58.016
13567841 13.644 5.59913 30.4661 8.32867 -13.0011 5.05314 58.038
13567842 13.644 5.59913 30.4661 8.32867 -13.0011 5.05314 58.038
13567851 13.644 5.21235 30.8697 8.10022 -13.4892 5.2174 57.8263
13567871 13.6088 4.99133 31.2536 7.90034 -13.8392 5.33828 57.7541
13567873 13.6088 4.99133 31.2536 7.90034 -13.8392 5.33828 57.7541
13567882 13.5207 4.77031 31.5194 7.83371 -14.0674 5.48071 57.6441
13567900 13.556 4.57692 31.8738 7.729 -14.3429 5.57798 57.7357
13567911 13.4679 4.47562 32.1494 7.76708 -14.4204 5.69642 57.86
13567928 13.4679 4.47562 32.1494 7.76708 -14.4204 5.69642 57.86
13567931 13.3534 4.37432 32.3561 7.73852 -14.5258 5.80233 57.8223
13567943 13.2741 4.26381 32.5038 7.85274 -14.5356 5.91213 57.8944
13567953 13.2741 4.26381 32.5038 7.85274 -14.5356 5.91213 57.8944
13567963 13.1155 4.27302 32.7105 7.91937 -14.4927 6.00877 58.0184
13567982 13.0451 4.30986 32.9369 7.95745 -14.47 6.06172 58.2493
13567984 13.0451 4.30986 32.9369 7.95745 -14.47 6.06172 58.2493
13567992 12.9746 4.27302 33.0156 8.0336 -14.4449 6.12424 58.2969
13568011 12.9746 4.27302 33.0156 8.0336 -14.4449 6.12424 58.2969
13568013 12.8689 4.28223 33.0156 8.06215 -14.4001 6.16359 58.2289
13568023 12.6751 4.19935 33.0058 8.07167 -14.4128 6.26458 57.9519
13568040 12.6751 4.19935 33.0058 8.07167 -14.4128 6.26458 57.9519
13568043 12.6135 4.26381 32.9467 8.08119 -14.3403 6.25608 57.9052
13568053 12.499 4.2546 32.927 8.1383 -14.283 6.30722 57.8189
13568069 12.499 4.2546 32.927 8.1383 -14.283 6.30722 57.8189
13568073 12.4902 4.22698 32.8778 8.22396 -14.2328 6.32613 57.8189
13568097 12.4813 4.2546 32.8188 8.25252 -14.182 6.31461 57.8072
13568104 12.5342 4.23619 32.7006 8.243 -14.1888 6.28268 57.714
13568114 12.5342 4.23619 32.7006 8.243 -14.1888 6.28268 57.714
13568126 12.5518 4.32828 32.5333 8.243 -14.0981 6.21688 57.6564
13568135 12.6927 4.37432 32.3069 8.31915 -13.9991 6.12525 57.6931
13568154 12.6927 4.37432 32.3069 8.31915 -13.9991 6.12525 57.6931
13568155 12.8953 4.43879 32.0608 8.42385 -13.8768 6.00597 57.8188
13568165 12.8953 4.43879 32.0608 8.42385 -13.8768 6.00597 57.8188
13568181 13.0891 4.51246 31.7261 8.44289 -13.7872 5.85958 57.7706
13568185 13.4326 4.67822 31.2339 8.35722 -13.7045 5.58394 57.702
13568195 13.4326 4.67822 31.2339 8.35722 -13.7045 5.58394 57.702
13568210 13.6793 4.80715 30.6827 8.31915 -13.5835 5.35294 57.4883
13568215 13.9083 4.97291 30.1708 8.3953 -13.3648 5.1399 57.4473
13568225 13.9083 4.97291 30.1708 8.3953 -13.3648 5.1399 57.4473
13568241 14.2959 5.28602 29.5113 8.30963 -13.1577 4.76607 57.4028
13568245 14.2959 5.28602 29.5113 8.30963 -13.1577 4.76607 57.4028
13568255 14.5777 5.51625 28.7632 8.35722 -12.8759 4.46385 57.2144
13568272 14.9653 6.01354 27.9166 8.36674 -12.4435 4.00907 57.2622
13568286 15.2736 6.50163 26.8929 8.3953 -11.947 3.5521 57.0634
13568301 15.4762 7.02654 25.9085 8.53807 -11.3347 3.14592 56.9493
13568306 15.4762 7.02654 25.9085 8.53807 -11.3347 3.14592 56.9493
13568316 15.7316 7.51463 24.8848 8.80459 -10.6687 2.7513 56.9356
13568332 15.7316 7.51463 24.8848 8.80459 -10.6687 2.7513 56.9356
13568336 15.7845 8.03034 23.8709 9.1187 -9.90518 2.42273 56.8044
13568348 15.7668 8.54605 22.8274 9.65174 -8.97859 2.15689 56.7921
13568362 15.7668 8.54605 22.8274 9.65174 -8.97859 2.15689 56.7921
13568366 15.7316 9.11701 21.8726 10.1372 -8.0683 1.88921 56.8584
13568376 15.5202 9.55905 20.78 10.8225 -7.02105 1.72628 56.6817
13568392 15.5202 9.55905 20.78 10.8225 -7.02105 1.72628 56.6817
13568396 15.2824 10.1024 19.7464 11.5364 -5.90726 1.56121 56.6675
13568406 15.2824 10.1024 19.7464 11.5364 -5.90726 1.56121 56.6675
13568422 14.9389 10.6826 18.6636 12.3169 -4.68313 1.4202 56.6019
13568426 14.6218 11.2167 17.7087 13.0689 -3.55242 1.3086 56.6161
13568436 14.6218 11.2167 17.7087 13.0689 -3.55242 1.3086 56.6161
13568451 14.1637 11.7784 16.6465 13.8018 -2.31865 1.19863 56.3904
13568456 14.1637 11.7784 16.6465 13.8018 -2.31865 1.19863 56.3904
13568466 13.7145 12.2021 15.7107 14.5157 -1.20562 1.15147 56.1429
13568481 13.1684 12.8099 14.8269 15.477 0.129527 1.15286 56.2822
13568496 12.5782 13.2243 13.9639 16.467 1.40001 1.2346 56.2334
13568510 11.9617 13.6295 13.2257 17.4189 2.60557 1.34794 56.2357
13568516 11.9617 13.6295 13.2257 17.4189 2.60557 1.34794 56.2357
13568526 11.3715 13.9978 12.5291 18.6367 3.86218 1.53791 56.5351
13568541 11.3715 13.9978 12.5291 18.6367 3.86218 1.53791 56.5351
13568546 10.7109 14.2925 11.9052 19.4355 4.9304 1.68713 56.3441
13568568 10.1824 14.5688 11.4685 20.3805 5.87384 1.88105 56.6002
13568578 9.60104 14.8635 11.063 21.3547 6.83613 2.09728 56.8822
13568587 9.11658 15.2411 10.6263 22.4361 7.80837 2.27397 57.42
13568600 9.11658 15.2411 10.6263 22.4361 7.80837 2.27397 57.42
13568629 8.57927 15.4897 10.2416 23.3226 8.67186 2.47129 57.6332
13568631 8.57927 15.4897 10.2416 23.3226 8.67186 2.47129 57.6332
13568631 8.05078 15.5818 9.82569 24.1605 9.48728 2.69537 57.6187
13568638 7.60155 15.7015 9.60734 24.7742 10.0836 2.88079 57.6846
13568655 7.60155 15.7015 9.60734 24.7742 10.0836 2.88079 57.6846
13568658 7.19637 15.7476 9.26422 25.3393 10.6982 3.03911 57.5474
13568668 6.84404 15.8212 9.05627 25.9335 11.2108 3.20644 57.6551
13568684 6.84404 15.8212 9.05627 25.9335 11.2108 3.20644 57.6551
13568688 6.50052 15.8304 8.86911 26.3622 11.6496 3.36166 57.5623
13568697 6.50052 15.8304 8.86911 26.3622 11.6496 3.36166 57.5623
13568711 6.1658 15.8581 8.61957 26.7811 12.1263 3.49418 57.4245
13568718 5.83109 15.9317 8.40122 27.1221 12.5779 3.60309 57.2861
13568738 5.83109 15.9317 8.40122 27.1221 12.5779 3.60309 57.2861
13568739 5.54041 16.1436 8.22446 27.3948 12.9894 3.64779 57.3033
13568749 5.36425 16.2541 8.02691 27.7163 13.3274 3.69366 57.3616
13568768 5.36425 16.2541 8.02691 27.7163 13.3274 3.69366 57.3616
13568770 5.2057 16.4567 7.93333 27.9501 13.5839 3.7069 57.5458
13568779 4.96788 16.558 7.77737 28.0963 13.8978 3.74946 57.3995
13568798 4.96788 16.558 7.77737 28.0963 13.8978 3.74946 57.3995
13568800 4.75648 16.604 7.71498 28.2034 14.1134 3.81238 57.2789
13568812 4.75648 16.604 7.71498 28.2034 14.1134 3.81238 57.2789
13568829 4.65078 16.6408 7.59021 28.4762 14.3293 3.86384 57.3581
13568830 4.50104 16.7514 7.60061 28.6613 14.4794 3.91456 57.5143
13568840 4.50104 16.7514 7.60061 28.6613 14.4794 3.91456 57.5143
13568864 4.50104 16.779 7.53823 28.6905 14.5327 3.89908 57.5088
13568866 4.3513 16.7882 7.49664 28.8172 14.6891 3.96174 57.4533
13568870 4.3513 16.7882 7.49664 28.8172 14.6891 3.96174 57.4533
13568880 4.28964 16.8987 7.44465 29.0218 14.8237 3.97489 57.6548
13568895 4.28964 16.8987 7.44465 29.0218 14.8237 3.97489 57.6548
13568900 4.19275 16.9171 7.39266 29.051 14.9351 3.9964 57.5535
13568910 4.15751 17.0778 7.45505 29.0315 14.9409 3.96329 57.7219
13568922 4.15751 17.0778 7.45505 29.0315 14.9409 3.96329 57.7219
13568931 4.19275 17.1459 7.33028 28.9828 15.0063 3.8961 57.6517
13568950 4.05181 17.2237 7.28868 28.9244 15.1367 3.89753 57.4885
13568951 4.05181 17.2237 7.28868 28.9244 15.1367 3.89753 57.4885
13568979 4.05181 17.3598 7.16391 28.8562 15.2356 3.81542 57.4317
13568981 4.06943 17.4571 7.11193 28.7198 15.253 3.74101 57.3582
13568991 4.00777 17.6419 7.16391 28.6126 15.273 3.69001 57.4262
13569007 4.00777 17.6419 7.16391 28.6126 15.273 3.69001 57.4262
13569011 4.05181 17.6808 7.16391 28.5736 15.2421 3.65537 57.4701
13569023 3.98135 17.7294 7.10153 28.5639 15.3419 3.64821 57.3762
13569033 3.98135 17.7294 7.10153 28.5639 15.3419 3.64821 57.3762
13569041 4.11347 17.8656 7.07034 28.5152 15.2859 3.54554 57.5646
13569063 4.043 17.9336 7.02875 28.4178 15.3595 3.51858 57.4232
13569073 4.06062 17.8947 7.08073 28.3203 15.2876 3.51636 57.3564
13569092 4.06062 17.8947 7.08073 28.3203 15.2876 3.51636 57.3564
13569094 4.02539 18.0017 7.01835 28.1937 15.353 3.45522 57.2392
13569103 4.01658 17.9725 6.98716 28.0476 15.3516 3.43162 57.0238
13569127 4.01658 17.9725 6.98716 28.0476 15.3516 3.43162 57.0238
13569128 4.07824 18.0698 7.00795 27.9307 15.29 3.36083 57.0866
13569143 4.10466 18.1573 7.01835 27.8625 15.2674 3.31245 57.1428
13569154 4.10466 18.0114 7.13272 27.8819 15.1652 3.38659 57.1308
13569163 4.10466 18.0114 7.13272 27.8819 15.1652 3.38659 57.1308
13569182 4.23679 18.0114 7.09113 27.8527 15.0966 3.32973 57.1921
13569183 4.19275 18.0114 7.19511 27.8138 15.0479 3.3571 57.2131
13569193 4.19275 18.0114 7.19511 27.8138 15.0479 3.3571 57.2131
13569211 4.32487 18.0503 7.2263 27.843 14.9458 3.3147 57.4445
13569223 4.3513 18.0406 7.2367 27.6579 14.8859 3.27372 57.2865
13569242 4.39534 17.9725 7.34067 27.7553 14.7884 3.32246 57.4639
13569244 4.39534 17.9725 7.34067 27.7553 14.7884 3.32246 57.4639
13569255 4.4658 17.9045 7.38226 27.7456 14.697 3.32817 57.4981
13569273 4.47461 17.8558 7.50703 27.7943 14.605 3.37597 57.6318
13569284 4.58031 17.7975 7.52783 27.6189 14.4757 3.32961 57.5245
13569305 4.58031 17.7975 7.52783 27.6189 14.4757 3.32961 57.5245
13569307 4.59793 17.7002 7.68379 27.4338 14.3046 3.34911 57.4158
13569315 4.70363 17.6613 7.75658 27.2 14.1313 3.295 57.3215
13569336 4.70363 17.6613 7.75658 27.2 14.1313 3.295 57.3215
13569337 4.90622 17.6322 7.93333 26.8785 13.806 3.21014 57.3502
13569345 5.10881 17.5154 8.21407 26.5473 13.3918 3.17251 57.3856
13569365 5.10881 17.5154 8.21407 26.5473 13.3918 3.17251 57.3856
13569367 5.35544 17.3696 8.54679 26.0309 12.8695 3.10266 57.3027
13569375 5.35544 17.3696 8.54679 26.0309 12.8695 3.10266 57.3027
13569393 5.5228 17.1167 8.73394 25.5926 12.4866 3.07736 56.966
13569396 5.75181 16.9632 9.02508 25.1639 12.0159 3.02457 56.904
13569406 5.75181 16.9632 9.02508 25.1639 12.0159 3.02457 56.904
13569421 5.92798 16.7882 9.337 24.6865 11.5482 2.98927 56.7397
13569426 6.13938 16.5672 9.84648 24.102 10.8919 2.97642 56.655
13569437 6.13938 16.5672 9.84648 24.102 10.8919 2.97642 56.655
13569450 6.42124 16.4382 10.5015 23.4785 10.1136 2.93472 56.8395
13569456 6.42124 16.4382 10.5015 23.4785 10.1136 2.93472 56.8395
13569477 6.80881 16.1712 11.4165 22.8063 9.06956 2.94815 57.2028
13569478 7.27565 15.9502 12.581 22.0269 7.83297 2.95212 57.8338
13569511 7.77772 15.5634 13.5792 20.9163 6.53686 2.89292 57.8366
13569512 8.20933 14.9832 14.6086 19.7473 5.17504 2.90972 57.5484
13569518 8.20933 14.9832 14.6086 19.7473 5.17504 2.90972 57.5484
13569528 8.76425 14.4215 15.7523 18.4223 3.62937 2.87366 57.3603
13569546 8.76425 14.4215 15.7523 18.4223 3.62937 2.87366 57.3603
13569550 9.08135 13.7124 17.0098 17.1754 2.10451 2.99887 56.9789
13569558 9.53938 13.1046 18.3978 16.0196 0.520039 3.09495 57.0613
13569577 9.53938 13.1046 18.3978 16.0196 0.520039 3.09495 57.0613
13569578 9.8829 12.4323 19.835 14.925 -1.034 3.27062 57.0751
13569588 10.244 11.8429 21.1343 13.9636 -2.4359 3.41287 57.1849
13569605 10.244 11.8429 21.1343 13.9636 -2.4359 3.41287 57.1849
13569608 10.6404 11.318 22.3254 13.0498 -3.74912 3.5102 57.3337
13569636 10.9223 10.9404 23.3393 12.2598 -4.8125 3.5858 57.4618
13569639 11.301 10.5444 24.1662 11.5364 -5.81532 3.61188 57.548
13569649 11.301 10.5444 24.1662 11.5364 -5.81532 3.61188 57.548
13569669 11.5124 10.13 25.0324 10.7654 -6.81118 3.69655 57.4403
13569671 11.7855 9.72481 25.8888 10.0896 -7.76671 3.77503 57.4887
13569680 11.7855 9.72481 25.8888 10.0896 -7.76671 3.77503 57.4887
13569704 12.0762 9.31961 26.6862 9.528 -8.64205 3.85829 57.6099
13569705 12.2788 8.98808 27.3358 9.04255 -9.36069 3.93221 57.6452
13569720 12.5078 8.51842 27.8379 8.69989 -10.0442 4.042 57.5639
13569735 12.5078 8.51842 27.8379 8.69989 -10.0442 4.042 57.5639
13569740 12.7632 8.1961 28.3891 8.32867 -10.6748 4.09828 57.6771
13569750 12.8601 7.93824 28.6549 8.16685 -11.0248 4.17131 57.6201
13569762 12.8601 7.93824 28.6549 8.16685 -11.0248 4.17131 57.6201
13569771 13.0715 7.81853 28.8419 7.97648 -11.3148 4.14022 57.7084
13569790 13.1508 7.6896 28.9994 7.78611 -11.5723 4.15052 57.6259
13569801 13.3446 7.53304 29.1175 7.55767 -11.8897 4.11734 57.5528
13569821 13.4943 7.36728 29.275 7.48152 -12.1145 4.13801 57.6181
13569831 13.6529 7.22914 29.4129 7.32923 -12.3678 4.12851 57.6241
13569871 13.7674 7.21073 29.3932 7.18645 -12.4933 4.06588 57.5577
13569873 13.7762 7.0818 29.3833 7.17693 -12.5834 4.10208 57.4182
13569879 13.7762 7.0818 29.3833 7.17693 -12.5834 4.10208 57.4182
13569888 13.829 6.97129 29.4325 7.15789 -12.6904 4.12701 57.3907
13569911 13.829 6.97129 29.4325 7.15789 -12.6904 4.12701 57.3907
13569915 13.8202 6.98971 29.3735 7.09127 -12.7075 4.09994 57.2747
13569916 13.9171 7.00813 29.4424 7.13886 -12.6997 4.08372 57.5065
13569923 13.9171 7.00813 29.4424 7.13886 -12.6997 4.08372 57.5065
13569948 13.9964 7.15547 29.3833 7.1103 -12.6263 3.99211 57.6455
13569949 14.0052 7.14626 29.3341 7.14838 -12.5988 3.99011 57.6339
13569953 14.0052 7.14626 29.3341 7.14838 -12.5988 3.99011 57.6339
13569963 14.0052 7.25677 29.275 7.21501 -12.4708 3.95521 57.752
13569975 14.0052 7.25677 29.275 7.21501 -12.4708 3.95521 57.752
13569983 13.9435 7.22914 29.3046 7.15789 -12.5189 3.97929 57.6351
13570002 14.0228 7.27519 29.2258 7.25308 -12.4273 3.94126 57.7769
13570004 14.0228 7.27519 29.2258 7.25308 -12.4273 3.94126 57.7769
13570014 13.9788 7.27519 29.1471 7.11982 -12.4871 3.915 57.5208
13570028 13.9611 7.27519 29.0979 7.15789 -12.4478 3.91865 57.4921
13570034 13.9611 7.27519 29.0979 7.15789 -12.4478 3.91865 57.4921
13570044 13.9964 7.33965 29.0683 7.09127 -12.4504 3.86731 57.4956
13570054 13.9964 7.33965 29.0683 7.09127 -12.4504 3.86731 57.4956
13570063 13.8554 7.33965 28.9502 7.21501 -12.313 3.91476 57.3603
13570084 13.8907 7.30282 28.901 7.22452 -12.3276 3.90761 57.319
13570085 13.8907 7.30282 28.901 7.22452 -12.3276 3.90761 57.319
13570094 13.8466 7.36728 28.7829 7.2626 -12.2249 3.88536 57.2594
13570106 13.9347 7.47779 28.714 7.34826 -12.1021 3.82334 57.4747
13570127 14.0845 7.65276 28.5072 7.29115 -12.0133 3.66586 57.5356
13570134 14.0845 7.65276 28.5072 7.29115 -12.0133 3.66586 57.5356
13570151 14.2518 7.77248 28.1824 7.28163 -11.9068 3.50673 57.4883
13570154 14.3663 7.93824 27.6312 7.33875 -11.6633 3.31701 57.2745
13570165 14.3663 7.93824 27.6312 7.33875 -11.6633 3.31701 57.2745
13570181 14.4808 7.98429 27.198 7.35778 -11.547 3.18059 57.0209
13570185 14.6394 8.06717 26.9519 7.40538 -11.4428 3.06256 57.0639
13570209 14.7539 8.31582 26.509 7.49104 -11.1513 2.87288 57.0697
13570237 14.8155 8.58288 26.0365 7.66237 -10.7741 2.70602 57.0973
13570238 14.9301 8.86836 25.5246 7.76708 -10.4305 2.49429 57.0901
13570246 14.9301 8.86836 25.5246 7.76708 -10.4305 2.49429 57.0901
13570269 15.0093 9.14464 25.0226 7.90985 -10.0626 2.30663 57.0864
13570270 15.0181 9.38407 24.3827 8.11926 -9.62035 2.13511 56.9042
13570279 15.0181 9.38407 24.3827 8.11926 -9.62035 2.13511 56.9042
13570301 15.0181 9.66035 23.8709 8.28108 -9.21495 1.97257 56.8304
13570302 15.0181 9.66035 23.8709 8.28108 -9.21495 1.97257 56.8304
13570306 15.0005 9.93662 23.3984 8.5 -8.78072 1.83721 56.8355
13570316 15.0358 10.2589 23.0735 8.68085 -8.40044 1.69846 57.0491
13570331 15.0358 10.2589 23.0735 8.68085 -8.40044 1.69846 57.0491
13570338 15.0446 10.5352 22.6207 8.80459 -8.03678 1.53816 57.0051
13570358 15.0269 10.7746 22.1581 9.06159 -7.60628 1.42528 57.0213
13570358 15.0269 10.7746 22.1581 9.06159 -7.60628 1.42528 57.0213
13570368 15.0005 11.0878 21.5084 9.25196 -7.11064 1.23277 56.8486
13570386 15.0005 11.0878 21.5084 9.25196 -7.11064 1.23277 56.8486
13570388 14.9036 11.3272 20.8686 9.59462 -6.54847 1.11979 56.694
13570398 14.8508 11.6863 20.2976 9.85162 -6.00252 0.955818 56.6864
13570418 14.7715 11.9995 19.7562 10.2038 -5.4311 0.84321 56.731
13570428 14.7098 12.3862 19.1558 10.5084 -4.83215 0.678665 56.7602
13570446 14.7098 12.3862 19.1558 10.5084 -4.83215 0.678665 56.7602
13570448 14.7098 12.8375 18.6045 10.8035 -4.24605 0.490032 56.9553
13570475 14.5689 13.0861 17.8859 11.0605 -3.66962 0.342223 56.6014
13570479 14.3751 13.4361 17.2362 11.4983 -2.95202 0.244943 56.5458
13570489 14.3751 13.4361 17.2362 11.4983 -2.95202 0.244943 56.5458
13570509 14.1813 13.8597 16.5217 12.0218 -2.13023 0.133209 56.5846
13570510 14.0492 14.3017 15.8147 12.5644 -1.32107 0.0074333 56.73
13570519 14.0492 14.3017 15.8147 12.5644 -1.32107 0.0074333 56.73
13570541 13.7674 14.8267 15.0037 13.2688 -0.297019 -0.0848258 56.8664
13570543 13.4326 15.3147 14.2135 13.897 0.688392 -0.168036 56.8578
13570550 13.4326 15.3147 14.2135 13.897 0.688392 -0.168036 56.8578
13570575 13.1244 15.7752 13.4128 14.6109 1.69037 -0.230793 56.9232
13570577 13.1244 15.7752 13.4128 14.6109 1.69037 -0.230793 56.9232
13570581 12.6927 16.1896 12.5914 15.3819 2.76458 -0.239832 56.8556
13570592 12.2259 16.6685 11.9468 16.1909 3.80782 -0.199009 57.0321
13570606 12.2259 16.6685 11.9468 16.1909 3.80782 -0.199009 57.0321
13570611 11.7591 17.0584 11.219 16.743 4.76552 -0.225995 56.7794
13570621 11.3098 17.4085 10.6575 17.1461 5.56742 -0.242743 56.5219
13570633 11.3098 17.4085 10.6575 17.1461 5.56742 -0.242743 56.5219
13570643 10.8782 17.7489 10.1376 17.5358 6.33601 -0.254082 56.3005
13570665 10.385 17.9531 9.66972 17.9645 7.08514 -0.18863 55.9723
13570666 10.385 17.9531 9.66972 17.9645 7.08514 -0.18863 55.9723
13570673 9.97098 18.2546 9.27462 18.3639 7.77462 -0.157628 55.8641
13570697 9.97098 18.2546 9.27462 18.3639 7.77462 -0.157628 55.8641
13570698 9.58342 18.5172 8.97309 18.8705 8.41515 -0.0689104 55.9442
13570703 9.38964 18.9645 8.83792 19.3576 8.88359 -0.042083 56.5497
13570729 9.17824 19.2174 8.61957 19.757 9.32525 -0.00503004 56.7722
13570733 8.91399 19.4119 8.4844 20.1272 9.7215 0.0752753 56.9375
13570744 8.91399 19.4119 8.4844 20.1272 9.7215 0.0752753 56.9375
13570758 8.72902 19.6161 8.25566 20.3708 10.0937 0.0740576 56.9716
13570764 8.72902 19.6161 8.25566 20.3708 10.0937 0.0740576 56.9716
13570785 8.44715 19.8884 8.0581 20.5559 10.5089 0.0733227 56.9496
13570786 8.22694 20.0538 7.86055 20.6728 10.842 0.066694 56.814
13570813 8.03316 20.3455 7.74618 20.7117 11.1187 0.0209087 56.8366
13570814 7.83057 20.5498 7.6422 20.7994 11.3849 0.0161791 56.822
13570824 7.83057 20.5498 7.6422 20.7994 11.3849 0.0161791 56.822
13570845 7.82176 20.8415 7.46544 20.8871 11.5939 -0.0817519 57.0158
13570847 7.82176 20.8415 7.46544 20.8871 11.5939 -0.0817519 57.0158
13570854 7.68964 21.0847 7.43425 20.8871 11.7557 -0.118995 57.0957
13570876 7.55751 21.3375 7.27829 20.9845 12.0221 -0.165915 57.1579
13570878 7.55751 21.3375 7.27829 20.9845 12.0221 -0.165915 57.1579
13570884 7.56632 21.4834 7.25749 20.9456 12.0541 -0.221828 57.2528
13570906 7.50466 21.5709 7.09113 20.9261 12.2175 -0.278073 57.0928
13570907 7.50466 21.5709 7.09113 20.9261 12.2175 -0.278073 57.0928
13570914 7.48705 21.6487 7.10153 21.0527 12.2678 -0.256991 57.29
13570938 7.48705 21.6487 7.10153 21.0527 12.2678 -0.256991 57.29
13570939 7.38135 21.6974 7.17431 21.0138 12.2914 -0.23329 57.2668
13570944 7.40777 21.6682 7.01835 21.0235 12.3716 -0.271576 57.1178
13570954 7.40777 21.6682 7.01835 21.0235 12.3716 -0.271576 57.1178
13570970 7.39016 21.6001 7.04954 20.8384 12.3065 -0.290708 56.8782
13570984 7.42539 21.6779 7.07034 20.8287 12.285 -0.316912 57.0023
13571001 7.34611 21.6196 7.01835 20.7799 12.3472 -0.308484 56.764
13571006 7.34611 21.6196 7.01835 20.7799 12.3472 -0.308484 56.764
13571029 7.45181 21.5029 7.08073 20.8092 12.2173 -0.280969 56.8446
13571030 7.41658 21.3667 7.16391 20.7994 12.153 -0.216739 56.7466
13571035 7.41658 21.3667 7.16391 20.7994 12.153 -0.216739 56.7466
13571045 7.52228 21.3667 7.27829 20.8287 12.0161 -0.205816 56.9959
13571058 7.52228 21.3667 7.27829 20.8287 12.0161 -0.205816 56.9959
13571065 7.47824 21.25 7.26789 20.741 12.0049 -0.190186 56.7371
13571087 7.49585 21.1625 7.42385 20.7994 11.8853 -0.114724 56.8816
13571088 7.49585 21.1625 7.42385 20.7994 11.8853 -0.114724 56.8816
13571095 7.56632 21.1041 7.51743 20.7799 11.7612 -0.0982314 56.9678
13571117 7.61036 21.0749 7.62141 20.7312 11.6477 -0.0874856 57.0379
13571118 7.61036 21.0749 7.62141 20.7312 11.6477 -0.0874856 57.0379
13571125 7.71606 20.9582 7.67339 20.6338 11.4961 -0.0966346 56.9815
13571147 7.71606 20.9582 7.67339 20.6338 11.4961 -0.0966346 56.9815
13571148 7.79534 20.7637 7.74618 20.5072 11.3221 -0.0807193 56.8124
13571160 7.83938 20.6957 8.00612 20.3903 11.0837 -0.0365326 56.9314
13571177 7.83938 20.6957 8.00612 20.3903 11.0837 -0.0365326 56.9314
13571178 7.9715 20.5984 8.17248 20.2636 10.8401 -0.0352103 57.006
13571186 8.05959 20.4525 8.44281 20.0298 10.5203 -0.0103945 56.9847
13571207 8.05959 20.4525 8.44281 20.0298 10.5203 -0.0103945 56.9847
13571208 8.2886 20.3455 8.66116 19.757 10.1454 -0.0567779 57.0523
13571219 8.46477 20.0927 8.9107 19.3673 9.71424 -0.0737402 56.8355
13571236 8.46477 20.0927 8.9107 19.3673 9.71424 -0.0737402 56.8355
13571238 8.69378 19.9857 9.07706 19.0264 9.35194 -0.152172 56.7829
13571248 8.69378 19.9857 9.07706 19.0264 9.35194 -0.152172 56.7829
13571266 8.89637 19.762 9.42018 18.6951 8.8688 -0.143483 56.7737
13571268 9.1342 19.655 9.62813 18.4613 8.50671 -0.184544 56.8787
13571296 9.38083 19.5286 9.80489 18.1203 8.12146 -0.259753 56.8347
13571298 9.52176 19.2952 10.0856 17.7307 7.68916 -0.265039 56.6332
13571308 9.52176 19.2952 10.0856 17.7307 7.68916 -0.265039 56.6332
13571326 9.62746 19.0521 10.3976 17.4092 7.27443 -0.231773 56.4862
13571329 9.62746 19.0521 10.3976 17.4092 7.27443 -0.231773 56.4862
13571339 9.82124 18.8478 10.7823 17.0682 6.77311 -0.217255 56.5195
13571357 10.0326 18.7797 11.3437 16.8382 6.24692 -0.16593 56.9943
13571359 10.0326 18.7797 11.3437 16.8382 6.24692 -0.16593 56.9943
13571369 10.2969 18.4685 11.8844 16.505 5.59545 -0.0986749 57.1549
13571387 10.2969 18.4685 12.3419 16.505 5.35249 0.0212216 57.6124
13571389 10.4202 18.099 12.3419 16.0577 5.00474 -0.0315213 56.9187
13571399 10.7373 17.8267 12.9761 15.5722 4.23964 -0.00409484 57.1123
13571420 10.887 17.4668 13.5792 14.9916 3.50997 0.057165 56.9247
13571429 11.1601 17.0486 14.2862 14.4966 2.67536 0.151114 56.9916
13571449 11.3539 16.6961 14.9205 14.0302 1.95259 0.237034 57.0007
13571459 11.6005 16.6961 15.6795 13.5638 1.29471 0.246797 57.54
13571481 11.6005 16.2633 15.6795 13.5638 1.11504 0.362357 57.1071
13571482 11.8471 15.9778 16.4281 13.0594 0.332326 0.435128 57.3124
13571489 11.8471 15.9778 16.4281 13.0594 0.332326 0.435128 57.3124
13571514 12.0321 15.6647 17.128 12.4978 -0.435103 0.504756 57.3225
13571515 12.2699 15.1766 17.817 11.86 -1.33498 0.585705 57.1236
13571529 12.4197 14.7254 18.6537 11.2889 -2.21552 0.735081 57.0877
13571544 12.4197 14.7254 18.6537 11.2889 -2.21552 0.735081 57.0877
13571550 12.5959 14.2281 19.3822 10.832 -3.03215 0.891581 57.0381
13571560 12.8425 13.6847 20.3272 10.2895 -4.02294 1.07345 57.1438
13571576 12.8425 13.6847 20.3272 10.2895 -4.02294 1.07345 57.1438
13571580 12.9658 13.0677 21.3312 9.69933 -5.05133 1.31353 57.0641
13571590 13.0803 12.4875 22.2171 9.271 -5.93229 1.55644 57.056
13571603 13.0803 12.4875 22.2171 9.271 -5.93229 1.55644 57.056
13571610 13.2036 11.9074 23.2507 8.73796 -6.92168 1.80676 57.0997
13571631 13.2036 11.9074 23.2507 8.73796 -6.92168 1.80676 57.0997
13571632 13.2829 11.1706 24.304 8.3953 -7.88279 2.16413 57.1528
13571640 13.4503 10.5168 25.3277 8.01456 -8.83217 2.45385 57.3093
13571660 13.4503 10.5168 25.3277 8.01456 -8.83217 2.45385 57.3093
13571661 13.556 9.73402 26.2629 7.55767 -9.86121 2.76584 57.1105
13571671 13.6088 9.01571 27.0799 7.30067 -10.6887 3.09342 57.0051
13571691 13.6529 8.36186 27.9166 7.03415 -11.4865 3.40629 56.9655
13571701 13.7497 7.93824 28.6549 6.94849 -12.0079 3.64332 57.2914
13571717 13.7497 7.93824 28.6549 6.94849 -12.0079 3.64332 57.2914
13571721 13.8642 7.77248 29.1471 6.91041 -12.2752 3.74927 57.6942
13571731 13.8642 7.77248 29.1471 6.91041 -12.2752 3.74927 57.6942
13571746 14.0404 7.68039 29.6688 6.86282 -12.5171 3.81378 58.2524
13571753 14.1637 7.56067 30.033 6.80571 -12.7343 3.87129 58.5631
13571763 14.1637 7.56067 30.033 6.80571 -12.7343 3.87129 58.5631
13571775 14.1902 7.35807 30.2299 6.57727 -13.0599 3.92224 58.3554
13571783 14.243 7.13705 30.4071 6.52968 -13.2823 4.00142 58.3168
13571804 14.243 7.13705 30.4071 6.52968 -13.2823 4.00142 58.3168
13571805 14.2254 6.96208 30.4169 6.37738 -13.4968 4.03752 57.9818
13571832 14.1813 6.68581 30.5547 6.27268 -13.7698 4.1495 57.6945
13571833 14.1725 6.52004 30.5547 6.22508 -13.912 4.19868 57.4724
13571844 14.1725 6.52004 30.5547 6.22508 -13.912 4.19868 57.4724
13571861 14.1549 6.29903 30.6532 6.13942 -14.1361 4.28112 57.2465
13571863 14.1021 6.0688 30.8402 6.10134 -14.3454 4.40464 57.1124
13571873 14.1021 6.0688 30.8402 6.10134 -14.3454 4.40464 57.1124
13571890 14.1021 5.92145 30.85 6.05375 -14.482 4.44784 56.9273
13571894 14.1021 5.92145 30.85 6.05375 -14.482 4.44784 56.9273
13571905 14.0933 5.79252 31.0469 6.0252 -14.6259 4.52606 56.9579
13571919 14.1021 5.70043 31.2339 6.05375 -14.7056 4.59409 57.0902
13571925 14.1021 5.70043 31.2339 6.05375 -14.7056 4.59409 57.0902
13571935 14.1021 5.71885 31.5096 6.01568 -14.7687 4.6309 57.3462
13571948 14.1637 5.58072 31.736 6.08231 -14.8693 4.70977 57.5627
13571956 14.1637 5.58072 31.736 6.08231 -14.8693 4.70977 57.5627
13571965 14.199 5.58992 31.7458 6.11086 -14.8511 4.70143 57.6456
13571977 14.199 5.58992 31.7458 6.11086 -14.8511 4.70143 57.6456
13571985 14.3399 5.63597 31.7064 6.14894 -14.8109 4.6375 57.8312
13571995 14.428 5.71885 31.6671 6.17749 -14.743 4.57768 57.9914
13572007 14.428 5.71885 31.6671 6.17749 -14.743 4.57768 57.9914
13572015 14.6482 5.77411 31.3225 6.08231 -14.7484 4.40517 57.8271
13572025 14.8155 5.84778 31.0174 6.11086 -14.6536 4.27353 57.7916
13572044 14.8155 5.84778 31.0174 6.11086 -14.6536 4.27353 57.7916
13572045 15.0269 5.9675 30.6532 6.04423 -14.5897 4.0828 57.6918
13572066 15.2207 5.99512 30.1905 5.95857 -14.581 3.9048 57.3649
13572076 15.5466 6.16089 29.7869 5.95857 -14.4527 3.66507 57.453
13572092 15.5466 6.16089 29.7869 5.95857 -14.4527 3.66507 57.453
13572096 15.758 6.28061 29.2652 5.8729 -14.372 3.43657 57.1767
13572106 16.0751 6.38191 28.8419 5.88242 -14.2759 3.218 57.1814
13572120 16.0751 6.38191 28.8419 5.88242 -14.2759 3.218 57.1814
13572127 16.4803 6.52925 28.4186 5.83483 -14.2041 2.94533 57.263
13572137 16.4803 6.52925 28.4186 5.83483 -14.2041 2.94533 57.263
13572148 16.7534 6.64897 27.9658 5.77772 -14.1272 2.71443 57.1459
13572158 17.1096 6.89762 27.4244 5.77772 -13.922 2.41086 57.2094
13572185 17.1096 6.89762 27.4244 5.77772 -13.922 2.41086 57.2094
13572186 17.4584 7.09101 26.7748 5.82531 -13.6995 2.11306 57.1495
13572188 17.7673 7.36728 26.1349 5.82531 -13.4468 1.79324 57.0948
13572223 18.0961 7.71723 25.4951 5.88242 -13.1103 1.45936 57.1909
13572225 18.0961 7.71723 25.4951 5.88242 -13.1103 1.45936 57.1909
13572228 18.2755 7.93824 24.8257 5.90146 -12.8473 1.18897 56.9409
13572239 18.4349 8.33424 24.1465 6.10134 -12.341 0.915164 57.017
13572262 18.4349 8.33424 24.1465 6.10134 -12.341 0.915164 57.017
13572263 18.4947 8.82232 23.2606 6.25364 -11.7362 0.579917 56.8312
13572269 18.6043 9.25515 22.5321 6.39642 -11.2193 0.282385 56.788
13572279 18.6043 9.25515 22.5321 6.39642 -11.2193 0.282385 56.788
13572292 18.5744 9.72481 21.7151 6.5963 -10.5848 0.00322223 56.6107
13572299 18.405 10.0287 20.8882 6.95801 -9.90874 -0.156583 56.28
13572320 18.405 10.0287 20.8882 6.95801 -9.90874 -0.156583 56.28
13572321 18.1659 10.4339 19.9433 7.34826 -9.09219 -0.351113 55.8913
13572356 17.8271 10.9128 19.1065 7.97648 -8.08107 -0.445204 55.8229
13572358 17.4484 11.364 18.2305 8.72844 -6.98674 -0.498521 55.7713
13572361 17.4484 11.364 18.2305 8.72844 -6.98674 -0.498521 55.7713
13572370 16.9119 11.9995 17.3642 9.70885 -5.6122 -0.492541 55.9844
13572392 16.3218 12.6257 16.4593 10.7844 -4.16924 -0.454789 56.1912
13572393 16.3218 12.6257 16.4593 10.7844 -4.16924 -0.454789 56.1912
13572400 15.6435 13.1138 15.5651 11.9076 -2.75088 -0.342663 56.23
13572421 15.6435 13.1138 15.5651 11.9076 -2.75088 -0.342663 56.23
13572422 14.9124 13.6111 14.7541 13.1831 -1.27187 -0.155754 56.4607
13572430 14.1549 14.0715 14.0159 14.5347 0.191712 0.0856483 56.777
13572440 14.1549 14.0715 14.0159 14.5347 0.191712 0.0856483 56.777
13572458 13.4238 14.6333 13.2777 15.9054 1.67589 0.295061 57.2401
13572460 12.6751 15.1213 12.6434 17.1559 3.02047 0.521607 57.5958
13572470 12.6751 15.1213 12.6434 17.1559 3.02047 0.521607 57.5958
13572491 12.0057 15.4068 12.0092 18.1301 4.13629 0.710682 57.5518
13572492 12.0057 15.4068 12.0092 18.1301 4.13629 0.710682 57.5518
13572502 11.3187 15.5358 11.3229 18.9095 5.16915 0.887591 57.0868
13572522 10.7021 15.6739 10.8862 19.7375 6.0628 1.11785 56.9997
13572523 10.7021 15.6739 10.8862 19.7375 6.0628 1.11785 56.9997
13572531 10.2088 15.6831 10.4495 20.3415 6.7773 1.29647 56.683
13572558 9.68031 15.6831 10.0544 20.9163 7.48421 1.49306 56.3342
13572559 9.68031 15.6739 10.0544 20.9163 7.48135 1.49576 56.325
13572561 9.23109 15.6739 9.7945 21.6178 8.10856 1.7332 56.3172
13572571 9.23109 15.6739 9.7945 21.6178 8.10856 1.7332 56.3172
13572593 8.90518 15.6923 9.51376 22.251 8.66021 1.90747 56.3623
13572594 8.56166 15.8397 9.44098 22.9135 9.14026 2.10194 56.7558
13572602 8.56166 15.8397 9.44098 22.9135 9.14026 2.10194 56.7558
13572625 8.26218 15.9778 9.14985 23.4201 9.67517 2.19942 56.8099
13572625 7.88342 16.1067 8.97309 24.0728 10.2229 2.38158 57.036
13572633 7.88342 16.1067 8.97309 24.0728 10.2229 2.38158 57.036
13572652 7.57513 16.2725 8.77554 24.6865 10.7348 2.51645 57.3097
13572653 7.57513 16.2725 8.77554 24.6865 10.7348 2.51645 57.3097
13572663 7.20518 16.3093 8.54679 25.1834 11.2415 2.67685 57.2447
13572680 6.91451 16.4935 8.38043 25.6705 11.6905 2.77839 57.4589
13572685 6.91451 16.4935 8.38043 25.6705 11.6905 2.77839 57.4589
13572694 6.60622 16.7698 8.17248 26.0602 12.1732 2.82683 57.6086
13572716 6.25389 16.9816 7.99572 26.2355 12.6019 2.87013 57.4667
13572724 5.98964 17.1167 7.75658 26.4206 13.0016 2.89897 57.2835
13572734 5.98964 17.1167 7.75658 26.4206 13.0016 2.89897 57.2835
13572753 5.69016 17.1653 7.59021 26.596 13.3591 2.97959 57.0417
13572755 5.44352 17.2334 7.46544 26.8688 13.6786 3.0671 57.0111
13572765 5.44352 17.2334 7.46544 26.8688 13.6786 3.0671 57.0111
13572783 5.24093 17.282 7.35107 27.1123 13.9517 3.14297 56.9864
13572785 5.1 17.4376 7.33028 27.3656 14.1407 3.18648 57.2335
13572796 5.1 17.4376 7.33028 27.3656 14.1407 3.18648 57.2335
13572814 4.98549 17.6516 7.15352 27.4436 14.3953 3.13448 57.2342
13572815 4.98549 17.6516 7.15352 27.4436 14.3953 3.13448 57.2342
13572825 4.82694 17.8072 7.17431 27.5215 14.5332 3.15585 57.33
13572843 4.7829 18.1281 7.07034 27.7163 14.7282 3.08737 57.6977
13572845 4.7829 18.1281 7.07034 27.7163 14.7282 3.08737 57.6977
13572855 4.70363 18.4394 6.98716 27.6092 14.8762 2.97544 57.7393
13572874 4.74767 18.8381 6.7896 27.4923 15.0313 2.77256 57.8676
13572875 4.74767 18.8381 6.7896 27.4923 15.0313 2.77256 57.8676
13572885 4.70363 18.984 6.7792 27.2292 15.0489 2.68324 57.696
13572906 4.63316 19.159 6.57125 27.0149 15.2364 2.56036 57.3784
13572917 4.60674 19.2757 6.56086 26.859 15.2556 2.4966 57.3024
13572939 4.53627 19.3924 6.46728 26.6155 15.3497 2.40847 57.0115
13572946 4.53627 19.3244 6.43609 26.6544 15.3669 2.431 56.9512
13572972 4.53627 19.3244 6.43609 26.6544 15.3669 2.431 56.9512
13572974 4.58031 19.4022 6.49847 26.5862 15.2932 2.3925 57.0672
13572978 4.5715 19.2952 6.54006 26.5083 15.2385 2.41984 56.9151
13572988 4.5715 19.2952 6.54006 26.5083 15.2385 2.41984 56.9151
13573007 4.69482 19.373 6.67523 26.5473 15.0768 2.39692 57.2903
13573018 4.83575 19.3341 6.75841 26.4596 14.8984 2.365 57.3879
13573039 4.95907 19.1688 6.84159 26.3524 14.7067 2.37244 57.3219
13573040 4.95907 19.1688 6.84159 26.3524 14.7067 2.37244 57.3219
13573048 5.02953 18.9937 6.98716 26.3037 14.5168 2.42549 57.3141
13573071 5.10881 18.9062 7.11193 26.3232 14.364 2.45956 57.4501
13573072 5.10881 18.9062 7.11193 26.3232 14.364 2.45956 57.4501
13573081 5.17047 18.7506 7.15352 26.255 14.2516 2.48236 57.3296
13573101 5.17047 18.7506 7.15352 26.255 14.2516 2.48236 57.3296
13573104 5.19689 18.5755 7.2055 26.1868 14.1521 2.52426 57.1647
13573115 5.28497 18.5658 7.18471 26.0504 14.0781 2.46585 57.0859
13573131 5.28497 18.5658 7.18471 26.0504 14.0781 2.46585 57.0859
13573132 5.36425 18.4588 7.35107 25.953 13.871 2.48945 57.1271
13573139 5.44352 18.3907 7.38226 25.8166 13.7558 2.46294 57.0331
13573161 5.44352 18.3907 7.38226 25.8166 13.7558 2.46294 57.0331
13573162 5.55803 18.3616 7.54862 25.6218 13.5211 2.43059 57.09
13573169 5.55803 18.3616 7.54862 25.6218 13.5211 2.43059 57.09
13573194 5.75181 18.3032 7.6318 25.4659 13.2914 2.3733 57.1527
13573195 5.98083 18.2059 7.80856 25.2516 12.9562 2.32502 57.2469
13573199 5.98083 18.2059 7.80856 25.2516 12.9562 2.32502 57.2469
13573209 6.15699 18.1476 7.98532 25.0373 12.6653 2.28111 57.3272
13573227 6.34197 18.0017 8.12049 24.7645 12.3643 2.23872 57.2286
13573229 6.34197 18.0017 8.12049 24.7645 12.3643 2.23872 57.2286
13573239 6.5886 18.0309 8.35963 24.3845 11.9706 2.12452 57.3637
13573258 6.5886 18.0309 8.35963 24.3845 11.9706 2.12452 57.3637
13573259 6.79119 17.8656 8.55719 24.0046 11.5879 2.07232 57.2185
13573270 7.05544 17.6905 8.76514 23.459 11.115 1.96898 56.9701
13573288 7.05544 17.6905 8.76514 23.459 11.115 1.96898 56.9701
13573290 7.31088 17.5543 9.07706 23.1278 10.6423 1.92911 57.0701
13573318 7.5487 17.3404 9.37859 22.6699 10.1352 1.88612 56.9376
13573320 7.91865 17.1751 9.85688 22.1438 9.43321 1.81463 57.0944
13573332 7.91865 17.1751 9.85688 22.1438 9.43321 1.81463 57.0944
13573355 8.23575 16.9908 10.1272 21.647 8.89235 1.72305 57.0008
13573356 8.59689 16.7606 10.4703 21.1014 8.25357 1.63738 56.9292
13573361 8.59689 16.7606 10.4703 21.1014 8.25357 1.63738 56.9292
13573371 8.9228 16.558 10.9174 20.663 7.61496 1.60346 57.0612
13573389 9.18705 16.1896 11.3125 20.0883 6.94742 1.59152 56.7774
13573391 9.18705 16.1896 11.3125 20.0883 6.94742 1.59152 56.7774
13573402 9.49534 15.8581 11.8012 19.5037 6.20616 1.57564 56.6584
13573421 9.49534 15.8581 11.8012 19.5037 6.20616 1.57564 56.6584
13573422 9.73316 15.4989 12.3107 19.114 5.54615 1.63952 56.6568
13573434 10.0767 15.1858 12.9346 18.588 4.73828 1.65361 56.785
13573454 10.0767 15.1858 12.9346 18.588 4.73828 1.65361 56.785
13573455 10.3321 14.8819 13.4752 18.1203 4.04636 1.68498 56.8096
13573463 10.6052 14.4491 14.0159 17.604 3.27839 1.73774 56.6742
13573489 10.6052 14.4491 14.0159 17.604 3.27839 1.73774 56.6742
13573490 10.8254 14.1083 14.6709 16.9239 2.44826 1.76753 56.5285
13573493 10.8254 14.1083 14.6709 16.9239 2.44826 1.76753 56.5285
13573503 11.1425 13.6571 15.5443 16.229 1.41378 1.84905 56.5729
13573521 11.4948 13.2151 16.6569 15.3914 0.200295 1.93938 56.7581
13573524 11.4948 13.2151 16.6569 15.3914 0.200295 1.93938 56.7581
13573534 11.8824 12.7546 17.758 14.7441 -0.937021 2.06472 57.1391
13573550 12.2347 12.3218 18.6144 14.1635 -1.90279 2.1509 57.3343
13573554 12.2347 12.3218 18.6144 14.1635 -1.90279 2.1509 57.3343
13573564 12.5078 12.0455 19.3133 13.6019 -2.68566 2.18256 57.4684
13573581 12.5078 12.0455 19.3133 13.6019 -2.68566 2.18256 57.4684
13573584 12.6311 11.585 19.9728 12.8785 -3.5661 2.26972 57.0674
13573594 12.9394 11.2627 20.7701 12.2693 -4.44496 2.3158 57.2415
13573614 12.9394 11.2627 20.7701 12.2693 -4.44496 2.3158 57.2415
13573615 13.1684 10.9036 21.5182 11.5745 -5.33922 2.36704 57.1647
13573625 13.371 10.6181 22.4632 10.9653 -6.20491 2.466 57.4176
13573648 13.371 10.6181 22.4632 10.9653 -6.20491 2.466 57.4176
13573649 13.6352 10.2774 23.3393 10.2419 -7.15526 2.52252 57.4938
13573655 13.6352 10.2774 24.0382 10.2419 -7.36957 2.67237 58.1927
13573680 13.8202 9.94583 24.0382 9.68981 -7.92377 2.59905 57.4941
13573681 14.0316 9.62351 24.6288 9.16629 -8.64689 2.64751 57.4502
13573687 14.0316 9.62351 24.6288 9.16629 -8.64689 2.64751 57.4502
13573697 14.1549 9.31961 25.2096 8.67133 -9.31628 2.72156 57.3555
13573710 14.3399 9.02492 25.7215 8.31915 -9.89336 2.78958 57.4054
13573739 14.5425 8.71181 26.1644 7.91937 -10.4973 2.83307 57.3381
13573739 14.7627 8.44475 26.5188 7.57671 -11.0204 2.85014 57.303
13573756 14.9653 8.21452 26.8338 7.28163 -11.4769 2.86297 57.2953
13573768 14.9653 8.21452 26.8338 7.28163 -11.4769 2.86297 57.2953
13573777 15.1591 8.00271 27.1783 7.11982 -11.8408 2.90717 57.4599
13573787 15.3969 7.84615 27.4343 6.8533 -12.2247 2.87965 57.5306
13573805 15.3969 7.84615 27.4343 6.8533 -12.2247 2.87965 57.5306
13573810 15.6083 7.71723 27.6902 6.58679 -12.5839 2.85182 57.6025
13573816 15.6083 7.71723 27.6902 6.58679 -12.5839 2.85182 57.6025
13573835 15.7668 7.52384 27.8083 6.41545 -12.8819 2.8514 57.5145
13573836 16.0399 7.37649 27.8969 6.22508 -13.1804 2.79091 57.5384
13573847 16.0399 7.37649 27.8969 6.22508 -13.1804 2.79091 57.5384
13573862 16.2337 7.21993 27.7788 5.94905 -13.4849 2.69517 57.1815
