10491168 5.42591 27.3284 10.1896 34 14.8527 2.22929 76.9439
10491179 5.36425 27.484 10.0648 34 14.9698 2.18752 76.9131
10491188 5.39948 27.5521 10.1584 34 14.9119 2.18004 77.11
10491198 5.39948 27.5521 10.1584 34 14.9119 2.18004 77.11
10491208 5.36425 27.7271 10.1688 34 14.9476 2.15068 77.2602
10491222 5.37306 27.8535 10.1688 34 14.9594 2.12071 77.3954
10491239 5.42591 27.9508 10.252 34 14.902 2.1014 77.6287
10491249 5.42591 27.9508 10.252 34 14.902 2.1014 77.6287
10491259 5.43471 28.0092 10.2416 34 14.9104 2.08489 77.6855
10491272 5.49637 28.1259 10.3768 34 14.8248 2.0682 77.999
10491279 5.49637 28.1259 10.3768 34 14.8248 2.0682 77.999
10491289 5.54922 28.1453 10.4599 34 14.758 2.06618 78.1545
10491299 5.66373 28.1939 10.6783 34 14.5958 2.06669 78.5359
10491310 5.66373 28.1939 10.6783 34 14.5958 2.06669 78.5359
10491319 5.74301 28.0967 10.959 34 14.4021 2.11666 78.7987
10491339 5.86632 27.873 11.3229 34 14.1293 2.19769 79.0623
10491349 6.04249 27.7952 11.7804 34 13.8072 2.25001 79.6181
10491361 6.04249 27.7952 11.7804 34 13.8072 2.25001 79.6181
10491373 6.29793 27.6201 12.3211 34 13.3978 2.31864 80.2392
10491381 6.51813 27.4645 12.893 34 12.9994 2.39447 80.8756
10491391 6.51813 27.4645 12.893 34 12.9994 2.39447 80.8756
10491402 6.85285 27.2603 13.5688 34 12.4993 2.47099 81.682
10491412 7.30207 26.9005 14.3278 34 11.8958 2.56729 82.5304
10491432 7.70725 26.7157 15.17 34 11.3163 2.64623 83.593
10491442 7.70725 26.7157 15.17 34 11.3163 2.64623 83.593
10491452 8.09482 26.3753 15.9914 34 10.7413 2.75652 84.4615
10491467 8.50881 25.9474 16.8752 34 10.1262 2.88623 85.3314
10491475 8.50881 25.9474 16.8752 34 10.1262 2.88623 85.3314
10491486 9.06373 25.4903 17.8761 34 9.41525 3.00626 86.4301
10491493 9.57461 24.9846 18.9983 34 8.68335 3.15891 87.5574
10491503 9.57461 24.9846 18.9983 34 8.68335 3.15891 87.5574
10491513 10.3321 24.4497 20.2878 34 7.81124 3.28496 89.0696
10491523 10.3321 24.4497 20.2878 34 7.81124 3.28496 89.0696
10491533 11.2041 23.8661 21.6364 34 6.89741 3.40098 90.7066
10491543 12.2964 23.1367 23.0932 33.0453 5.67654 3.39167 91.5716
10491563 13.2653 22.3781 24.491 31.243 4.34046 3.29795 91.3774
10491573 14.199 21.6779 26.1054 29.314 2.92663 3.21084 91.2963
10491584 14.199 21.6779 26.1054 29.314 2.92663 3.21084 91.2963
10491596 15.3264 20.8318 28.0249 27.3948 1.33092 3.15493 91.578
10491604 15.3264 20.8318 28.0249 27.3948 1.33092 3.15493 91.578
10491614 16.4539 19.9079 29.8952 25.2808 -0.316915 3.08302 91.5378
10491626 17.568 19.0326 31.6277 23.2934 -1.87651 3.00265 91.5217
10491634 17.568 19.0326 31.6277 23.2934 -1.87651 3.00265 91.5217
10491646 18.704 18.167 33.0156 21.4619 -3.30894 2.8911 91.3486
10491656 19.8798 17.4765 34 19.7765 -4.56114 2.70267 91.1329
10491666 19.8798 17.4765 34 19.7765 -4.56114 2.70267 91.1329
10491677 21.0756 16.7145 34 18.0132 -5.66458 2.3757 89.8033
10491697 22.1917 16.0146 34 16.505 -6.67108 2.07957 88.7113
10491707 23.0586 15.3884 34 15.2391 -7.53572 1.84614 87.6861
10491717 23.0586 15.3884 34 15.2391 -7.53572 1.84614 87.6861
10491727 23.6964 14.8174 34 14.1349 -8.29325 1.66554 86.6488
10491737 24.4338 14.2557 34 13.1545 -9.03486 1.47915 85.844
10491747 24.4338 14.2557 34 13.1545 -9.03486 1.47915 85.844
10491757 25.1612 13.786 34 12.3359 -9.68515 1.29956 85.2832
10491767 25.1612 13.786 34 12.3359 -9.68515 1.29956 85.2832
10491777 25.9086 13.2795 34 11.584 -10.3351 1.13172 84.7721
10491787 26.6559 12.7638 34 10.9748 -10.9359 0.987337 84.3945
10491799 26.6559 12.7638 34 10.9748 -10.9359 0.987337 84.3945
10491807 27.3335 12.331 34 10.4894 -11.4413 0.860004 84.1539
10491817 27.9713 11.8245 34 9.9944 -11.98 0.751635 83.7902
10491841 27.9713 11.8245 34 9.9944 -11.98 0.751635 83.7902
10491842 28.4994 11.3917 34 9.67077 -12.3971 0.678486 83.5618
10491847 28.4994 11.3917 34 9.67077 -12.3971 0.678486 83.5618
10491857 29.0275 11.0141 34 9.33763 -12.7957 0.592951 83.3793
10491868 29.5258 10.6549 34 9.06159 -13.1572 0.519124 83.2423
10491878 29.5258 10.6549 34 9.06159 -13.1572 0.519124 83.2423
10491888 29.9742 10.2958 34 8.69989 -13.5527 0.439299 82.9699
10491898 30.4326 10.0103 34 8.52856 -13.8282 0.377058 82.9714
10491909 30.4326 10.0103 34 8.52856 -13.8282 0.377058 82.9714
10491918 30.8312 9.78006 34 8.30011 -14.0967 0.305541 82.9114
10491931 31.0703 9.50379 34 8.18589 -14.3127 0.292127 82.76
10491952 31.3294 9.36566 34 7.986 -14.5069 0.2342 82.6811
10491959 31.3294 9.36566 34 7.986 -14.5069 0.2342 82.6811
10491969 31.5287 9.1078 34 7.8813 -14.7058 0.226273 82.5178
10491979 31.7878 8.96045 34 7.79563 -14.8502 0.19033 82.5439
10491999 32.0768 8.83153 34 7.729 -14.98 0.148968 82.6373
10492011 32.296 8.68418 34 7.68141 -15.1009 0.127244 82.6616
10492019 32.296 8.68418 34 7.68141 -15.1009 0.127244 82.6616
10492032 32.5451 8.55525 34 7.49104 -15.2857 0.0709498 82.5914
10492039 32.5451 8.55525 34 7.49104 -15.2857 0.0709498 82.5914
10492049 32.854 8.46316 34 7.3673 -15.4272 0.00908732 82.6845
10492059 33.1729 8.35265 34 7.35778 -15.5226 -0.0303653 82.8834
10492080 33.3921 8.27898 34 7.27212 -15.6255 -0.0721595 82.9432
10492090 33.6014 8.14085 34 7.22452 -15.74 -0.0936019 82.9668
10492100 33.6014 8.14085 34 7.22452 -15.74 -0.0936019 82.9668
10492110 33.99 8.12243 34 7.14838 -15.8295 -0.173687 83.2608
10492122 33.99 8.12243 34 7.14838 -15.8295 -0.173687 83.2608
10492137 34 8.05796 34 7.06271 -15.9044 -0.179605 83.1207
10492141 34 8.0948 34 6.91041 -15.9613 -0.214032 83.0052
10492160 34 8.03034 34 6.86282 -16.0167 -0.211268 82.8932
10492170 34 8.02113 34 6.84378 -16.0306 -0.21312 82.8649
10492192 34 8.05796 34 6.79619 -16.036 -0.228434 82.8542
10492202 34 8.05796 34 6.79619 -16.036 -0.228434 82.8542
10492212 34 7.98429 34 6.79619 -16.0725 -0.215287 82.7805
10492223 34 7.94745 34 6.82475 -16.0766 -0.203455 82.7722
10492232 34 7.94745 34 6.82475 -16.0766 -0.203455 82.7722
10492243 34 7.8922 34 6.68197 -16.1751 -0.219843 82.5742
10492253 34 7.88299 34 6.69149 -16.1749 -0.216442 82.5745
10492263 34 7.88299 34 6.69149 -16.1749 -0.216442 82.5745
10492273 34 7.88299 34 6.65342 -16.1939 -0.223461 82.5364
10492283 34 7.80011 34 6.66293 -16.2306 -0.206852 82.463
10492293 34 7.80011 34 6.66293 -16.2306 -0.206852 82.463
10492303 34 7.7909 34 6.75812 -16.1877 -0.187667 82.549
10492313 34 7.7909 34 6.75812 -16.1877 -0.187667 82.549
10492323 34 7.80932 34 6.91041 -16.1026 -0.163002 82.7197
10492333 34 7.74485 34 7.08175 -16.0496 -0.12009 82.8266
10492353 34 7.73564 34 7.17693 -16.007 -0.101078 82.9126
10492363 34 7.73564 34 7.39586 -15.8991 -0.061309 83.1315
10492373 34 7.64355 34 7.39586 -15.9444 -0.0447428 83.0394
10492383 34 7.66197 34 7.60526 -15.8324 -0.0102156 83.2672
10492393 34 7.66197 34 7.60526 -15.8324 -0.0102156 83.2672
10492403 34 7.75406 34 8.05263 -15.5695 0.0534403 83.8067
10492413 34 7.86457 34 8.44289 -15.3286 0.102895 84.3075
10492423 34 7.86457 34 8.44289 -15.3286 0.102895 84.3075
10492434 34 8.11322 34 9.04255 -14.9268 0.163699 85.1558
10492454 33.7011 8.30661 34 9.93729 -14.3863 0.336776 85.945
10492465 32.9338 8.73944 34 10.8225 -13.692 0.54615 86.4957
10492474 32.9338 8.73944 34 10.8225 -13.692 0.54615 86.4957
10492484 32.2263 9.19068 34 11.8981 -12.9237 0.769824 87.315
10492494 31.3693 9.70639 34 12.9927 -12.1128 1.0078 88.0684
10492504 31.3693 9.70639 34 12.9927 -12.1128 1.0078 88.0684
10492514 30.3628 10.1761 34 14.3063 -11.2219 1.31139 88.8452
10492534 29.2268 10.8483 34 15.6674 -10.2268 1.60329 89.7426
10492544 28.0709 11.6956 34 17.2436 -9.10114 1.89162 91.01
10492566 26.7556 12.6533 33.1338 18.9776 -7.71915 2.08192 91.5203
10492576 25.4004 13.6387 31.5096 20.9845 -6.08706 2.20495 91.5331
10492586 25.4004 13.6387 31.5096 20.9845 -6.08706 2.20495 91.5331
10492596 23.796 14.6333 29.8361 23.0499 -4.36648 2.37475 91.3153
10492607 23.796 14.6333 29.8361 23.0499 -4.36648 2.37475 91.3153
10492616 22.2415 15.7476 28.1135 25.3198 -2.53977 2.53399 91.4223
10492626 20.6272 16.8342 26.3515 27.5215 -0.717951 2.69529 91.3344
10492647 19.0328 17.8364 24.7174 29.8693 1.08125 2.90592 91.456
10492656 17.5879 18.9354 23.0637 32.0808 2.82666 3.04707 91.6678
10492669 17.5879 18.9354 23.0637 32.0808 2.82666 3.04707 91.6678
10492676 16.1368 19.9565 21.5084 34 4.4517 3.17927 91.6017
10492696 14.7979 20.7346 20.0515 34 5.54928 3.10084 89.584
10492706 13.6529 21.532 18.8014 34 6.55721 3.00328 87.9863
10492717 13.6529 21.532 18.8014 34 6.55721 3.00328 87.9863
10492727 12.4902 22.3101 17.5414 34 7.60887 2.90842 86.3416
10492738 11.4772 23.0103 16.4905 34 8.54414 2.82479 84.978
10492748 11.4772 23.0103 16.4905 34 8.54414 2.82479 84.978
10492758 10.5523 23.5744 15.482 34 9.43087 2.75485 83.6087
10492773 10.5523 23.5744 15.482 34 9.43087 2.75485 83.6087
10492780 9.71554 24.0704 14.5462 34 10.2659 2.68916 82.3321
10492787 8.95803 24.508 13.8183 34 10.9897 2.64853 81.2844
10492797 8.95803 24.508 13.8183 34 10.9897 2.64853 81.2844
10492807 8.35907 24.9262 13.0801 34 11.6614 2.57478 80.3654
10492817 7.80414 25.3249 12.581 34 12.2129 2.53141 79.7101
10492837 7.33731 25.7431 12.1651 34 12.6949 2.47674 79.2456
10492849 6.97617 25.7431 11.7804 34 13.0531 2.49577 78.4997
10492858 6.97617 26.1224 11.7804 34 13.1105 2.41163 78.879
10492868 6.73834 26.6184 11.4997 34 13.4359 2.30982 78.8565
10492878 6.73834 26.6184 11.4997 34 13.4359 2.30982 78.8565
10492888 6.43005 26.8907 11.1878 34 13.7797 2.26733 78.5086
10492898 6.22746 27.1728 11.0942 34 13.9663 2.23467 78.4944
10492908 6.22746 27.1728 11.0942 34 13.9663 2.23467 78.4944
10492918 6.12176 27.377 10.9278 34 14.1302 2.18594 78.4266
10492930 5.9544 27.377 10.8135 34 14.2713 2.20399 78.1449
10492938 5.9544 27.4256 10.8135 34 14.278 2.19329 78.1935
10492951 5.78705 27.4159 10.7615 34 14.3871 2.22381 77.9644
10492958 5.78705 27.4159 10.7615 34 14.3871 2.22381 77.9644
10492971 5.69896 27.4451 10.7823 34 14.4251 2.24024 77.9263
10492979 5.6285 27.3965 10.6575 34 14.5176 2.24617 77.6824
10492991 5.6285 27.3965 10.6575 34 14.5176 2.24617 77.6824
10492999 5.55803 27.2603 10.7511 34 14.4874 2.3075 77.5694
10493012 5.50518 27.2603 10.7511 34 14.5143 2.3193 77.5165
10493019 5.50518 27.1728 10.7511 34 14.5025 2.33888 77.429
10493029 5.47876 26.9491 10.7719 34 14.4749 2.39846 77.1997
10493039 5.47876 26.9491 10.7719 34 14.4749 2.39846 77.1997
10493049 5.45233 26.7157 10.8654 34 14.4086 2.47245 77.0334
10493059 5.47876 26.5309 10.9694 34 14.3165 2.52532 76.9791
10493081 5.46995 26.2975 11.1462 34 14.1982 2.60918 76.9136
10493091 5.43471 25.9571 11.3853 34 14.0462 2.73392 76.7771
10493101 5.43471 25.9571 11.3853 34 14.0462 2.73392 76.7771
10493111 5.5228 25.7334 11.5933 34 13.8639 2.79841 76.8495
10493121 5.5228 25.7334 11.5933 34 13.8639 2.79841 76.8495
10493131 5.53161 25.607 11.7492 34 13.7623 2.85039 76.8878
10493141 5.61969 25.4222 12.0092 34 13.5603 2.91377 77.0511
10493153 5.61969 25.4222 12.0092 34 13.5603 2.91377 77.0511
10493161 5.66373 25.1596 12.3315 34 13.3382 3.01501 77.1548
10493171 5.71658 25.0235 12.5187 34 13.1986 3.06347 77.2587
10493181 5.71658 25.0235 12.5187 34 13.1986 3.06347 77.2587
10493191 5.77824 24.8095 12.7682 34 13.0123 3.13754 77.3559
10493212 5.85751 24.6053 13.0593 34 12.7991 3.21132 77.5221
10493222 6.00725 24.4399 13.4336 34 12.5188 3.27162 77.8808
10493242 6.11295 24.2941 13.6936 34 12.3199 3.32006 78.1006
10493252 6.21865 24.0704 14.1823 34 12.001 3.42034 78.4713
10493262 6.21865 24.0704 14.1823 34 12.001 3.42034 78.4713
10493272 6.40363 23.8175 14.5254 34 11.7112 3.48668 78.7465
10493282 6.40363 23.8175 14.5254 34 11.7112 3.48668 78.7465
10493292 6.54456 23.5549 15.17 34 11.3033 3.60868 79.2695
10493303 6.79119 23.2632 15.8355 34 10.8388 3.71407 79.8898
10493312 6.79119 23.2632 15.8355 34 10.8388 3.71407 79.8898
10493322 7.08187 22.9617 16.6257 34 10.3057 3.82714 80.6692
10493332 7.38135 22.5921 17.502 34 9.72953 3.96351 81.4755
10493342 7.38135 22.5921 17.502 34 9.72953 3.96351 81.4755
10493352 7.85699 22.1934 18.4962 34 9.03736 4.07877 82.5466
10493366 7.85699 22.1934 18.4962 34 9.03736 4.07877 82.5466
10493376 8.51762 21.6974 19.5003 34 8.26595 4.17223 83.7153
10493384 9.2487 21.1527 20.6618 34 7.41865 4.27806 85.0633
10493404 9.2487 21.1527 20.6618 34 7.41865 4.27806 85.0633
10493406 10.1383 20.4817 22.2467 34 6.35936 4.42517 86.8667
10493413 11.2041 19.6842 24.176 34 5.13787 4.59572 89.0644
10493423 11.2041 19.6842 24.176 34 5.13787 4.59572 89.0644
10493433 12.5694 18.7895 26.2629 33.8052 3.7632 4.71018 91.4269
10493443 12.5694 18.7895 26.2629 33.8052 3.7632 4.71018 91.4269
10493453 14.0052 17.8753 28.6647 31.1748 1.73903 4.57246 91.72
10493466 15.6083 16.8987 31.0469 28.3496 -0.382715 4.38876 91.9035
10493473 15.6083 16.8987 31.0469 28.3496 -0.382715 4.38876 91.9035
10493483 17.1495 15.8212 33.2125 25.612 -2.43169 4.2247 91.7952
10493495 18.6741 14.9003 34 23.0206 -4.07118 3.88204 90.595
10493503 18.6741 14.9003 34 23.0206 -4.07118 3.88204 90.595
10493516 20.3083 14.0439 34 20.7605 -5.47172 3.43524 89.1127
10493523 20.3083 14.0439 34 20.7605 -5.47172 3.43524 89.1127
10493537 21.6735 13.1506 34 18.7925 -6.77107 3.07621 87.6166
10493543 22.8593 12.3678 34 17.1072 -7.92974 2.75905 86.3343
10493557 22.8593 12.3678 34 17.1072 -7.92974 2.75905 86.3343
10493563 23.8259 11.6127 34 15.6579 -8.97668 2.50644 85.0965
10493573 23.8259 11.6127 34 15.6579 -8.97668 2.50644 85.0965
10493584 24.6231 10.8944 34 14.4205 -9.92049 2.30582 83.938
10493598 25.2011 10.2866 34 13.5162 -10.6616 2.17374 83.0039
10493604 25.2011 10.2866 34 13.5162 -10.6616 2.17374 83.0039
10493614 25.6993 9.79848 34 12.7452 -11.2944 2.05138 82.243
10493624 26.0879 9.49458 34 12.2312 -11.7224 1.95237 81.8138
10493634 26.0879 9.49458 34 12.2312 -11.7224 1.95237 81.8138
10493644 26.5264 9.13543 34 11.7172 -12.1879 1.85345 81.3791
10493654 26.5264 9.13543 34 11.7172 -12.1879 1.85345 81.3791
10493665 26.9549 8.84074 34 11.3175 -12.574 1.76085 81.1131
10493674 27.3535 8.68418 34 10.9653 -12.8711 1.65321 81.0029
10493686 27.3535 8.68418 34 10.9653 -12.8711 1.65321 81.0029
10493694 27.7421 8.43554 34 10.575 -13.2291 1.55984 80.7527
10493706 28.0809 8.26977 34 10.2133 -13.5289 1.46393 80.564
10493714 28.0809 8.26977 34 10.2133 -13.5289 1.46393 80.564
10493727 28.4994 8.1961 34 9.85162 -13.7968 1.33266 80.5471
10493734 28.4994 8.1961 34 9.85162 -13.7968 1.33266 80.5471
10493748 28.7386 7.96587 34 9.55655 -14.0841 1.28059 80.261
10493754 28.9379 7.86457 34 9.28051 -14.2954 1.21338 80.083
10493764 28.9379 7.86457 34 9.28051 -14.2954 1.21338 80.083
10493774 29.2169 7.75406 34 9.03303 -14.5086 1.13658 80.004
10493784 29.3165 7.61593 34 8.87122 -14.6702 1.11626 79.8037
10493795 29.3165 7.61593 34 8.87122 -14.6702 1.11626 79.8037
10493806 29.4361 7.57909 34 8.67133 -14.8035 1.0647 79.6865
10493817 29.4361 7.57909 34 8.67133 -14.8035 1.0647 79.6865
10493826 29.5557 7.49621 34 8.62374 -14.884 1.04897 79.6756
10493836 29.7649 7.47779 34 8.59518 -14.934 1.00562 79.8379
10493857 29.8247 7.45937 34 8.52856 -14.9841 0.985642 79.8127
10493867 29.9742 7.42254 34 8.51904 -15.026 0.961441 79.9158
10493878 29.9742 7.42254 34 8.51904 -15.026 0.961441 79.9158
10493887 30.0539 7.51463 34 8.49048 -15.0042 0.922181 80.059
10493898 30.0539 7.51463 34 8.49048 -15.0042 0.922181 80.059
10493907 30.1436 7.53304 34 8.54759 -14.9777 0.910749 80.2242
10493919 30.2433 7.61593 34 8.52856 -14.9584 0.871285 80.3877
10493927 30.2433 7.61593 34 8.52856 -14.9584 0.871285 80.3877
10493939 30.2831 7.61593 34 8.48096 -14.987 0.855047 80.38
10493947 30.3329 7.76327 34 8.6047 -14.8589 0.837999 80.7009
10493957 30.3329 7.76327 34 8.6047 -14.8589 0.837999 80.7009
10493967 30.3529 7.77248 34 8.58567 -14.8662 0.828942 80.711
10493978 30.3529 7.77248 34 8.58567 -14.8662 0.828942 80.711
10493987 30.323 7.80011 34 8.63326 -14.8253 0.837736 80.7563
10493998 30.4226 7.90141 34 8.62374 -14.7927 0.796756 80.9478
10494018 30.4625 8.00271 34 8.69989 -14.7107 0.782608 81.1651
10494029 30.5023 8.00271 34 8.74748 -14.6925 0.783194 81.2525
10494041 30.5023 8.00271 34 8.74748 -14.6925 0.783194 81.2525
10494052 30.7714 8.03955 34 8.78555 -14.6901 0.730659 81.5965
10494058 30.9209 8.04875 34 8.85218 -14.6721 0.711772 81.8218
10494068 30.9209 8.04875 34 8.85218 -14.6721 0.711772 81.8218
10494083 31.0803 8.13164 34 8.92833 -14.6153 0.678665 82.1403
10494094 31.0803 8.13164 34 8.92833 -14.6153 0.678665 82.1403
10494098 31.3294 8.15005 34 8.88074 -14.6608 0.61946 82.3602
10494109 31.6682 8.17768 34 8.88074 -14.6899 0.550273 82.7267
10494123 31.6682 8.17768 34 8.88074 -14.6899 0.550273 82.7267
10494129 31.9971 8.05796 34 8.73796 -14.8567 0.486077 82.793
10494142 31.9971 8.05796 34 8.73796 -14.8567 0.486077 82.793
10494149 32.2362 7.93824 34 8.57615 -15.0216 0.435346 82.7506
10494159 32.3658 7.78169 34 8.47144 -15.1638 0.421935 82.6189
10494169 32.3658 7.78169 34 8.47144 -15.1638 0.421935 82.6189
10494179 32.296 7.6896 34 8.45241 -15.2096 0.448846 82.438
10494189 32.1565 7.6896 34 8.47144 -15.1837 0.478393 82.3175
10494200 32.1565 7.6896 34 8.47144 -15.1837 0.478393 82.3175
10494211 31.9273 7.6896 34 8.63326 -15.0773 0.550092 82.2502
10494219 31.9273 7.6896 34 8.63326 -15.0773 0.550092 82.2502
10494229 31.5885 7.78169 34 9.05207 -14.7881 0.670062 82.4223
10494239 31.2497 8.13164 34 9.68981 -14.2734 0.777973 83.0712
10494250 31.2497 8.13164 34 9.68981 -14.2734 0.777973 83.0712
10494259 30.7016 8.64735 34 10.6131 -13.5303 0.940447 83.9621
10494271 30.034 9.25515 34 11.8505 -12.6053 1.15599 85.1396
10494279 30.034 9.25515 34 11.8505 -12.6053 1.15599 85.1396
10494299 29.3365 9.89978 34 13.6209 -11.4601 1.44801 86.8572
10494301 29.3365 9.89978 34 13.6209 -11.4601 1.44801 86.8572
10494311 28.3898 10.6918 34 15.4961 -10.2176 1.76362 88.5776
10494322 27.3036 11.6587 34 17.8086 -8.76831 2.12286 90.771
10494331 27.3036 11.6587 34 17.8086 -8.76831 2.12286 90.771
10494341 26.0879 12.8191 34 20.0395 -7.32392 2.44214 92.9465
10494351 24.5533 13.9978 32.2872 22.29 -5.51732 2.58128 93.1283
10494361 24.5533 13.9978 32.2872 22.29 -5.51732 2.58128 93.1283
10494371 23.0586 15.3239 30.1216 24.4138 -3.61677 2.60759 92.9179
10494383 23.0586 15.3239 30.1216 24.4138 -3.61677 2.60759 92.9179
10494391 21.1952 16.7421 27.828 26.294 -1.62588 2.6371 92.0593
10494403 19.4414 18.3032 25.5246 28.2716 0.439379 2.63024 91.5408
10494421 17.7474 19.8398 23.4082 30.1226 2.41633 2.62467 91.118
10494432 16.2249 21.2792 21.3903 31.8567 4.27564 2.60211 90.7511
10494442 16.2249 21.2792 21.3903 31.8567 4.27564 2.60211 90.7511
10494452 14.8772 22.6796 19.4806 33.5421 6.03446 2.56116 90.5796
10494462 14.8772 22.6796 19.4806 33.5421 6.03446 2.56116 90.5796
10494472 13.6352 23.8856 17.8761 34 7.37561 2.40868 89.3969
10494482 12.543 24.9554 16.5217 34 8.48973 2.21938 88.0201
10494492 12.543 24.9554 16.5217 34 8.48973 2.21938 88.0201
10494502 11.6798 25.7723 15.3156 34 9.44387 2.05091 86.7677
10494513 10.7902 26.667 14.4422 34 10.3128 1.91823 85.8994
10494524 10.7902 26.667 14.4422 34 10.3128 1.91823 85.8994
10494536 10.0855 27.3478 13.6 34 11.0728 1.79342 85.0333
10494543 10.0855 27.3478 13.6 34 11.0728 1.79342 85.0333
10494553 9.39845 28.0967 12.789 34 11.8377 1.65402 84.2841
10494563 8.80829 28.6413 12.2587 34 12.4164 1.57854 83.7083
10494573 8.80829 28.6413 12.2587 34 12.4164 1.57854 83.7083
10494583 8.23575 29.1276 11.7284 34 12.9867 1.5101 83.0918
10494593 7.83938 29.3804 11.2502 34 13.4264 1.46059 82.47
10494607 7.83938 29.3804 11.2502 34 13.4264 1.46059 82.47
10494613 7.46943 29.6041 10.8966 34 13.7971 1.43157 81.9702
10494628 7.46943 29.6041 10.8966 34 13.7971 1.43157 81.9702
10494634 7.09948 29.6527 10.6055 34 14.1191 1.44792 81.3577
10494643 6.87927 29.75 10.4703 34 14.3035 1.45027 81.0996
10494653 6.87927 29.75 10.4703 34 14.3035 1.45027 81.0996
10494668 6.60622 29.8181 10.3248 34 14.5163 1.4676 80.7491
10494677 6.40363 29.8084 10.1896 34 14.681 1.48833 80.4016
10494686 6.40363 29.8084 10.1896 34 14.681 1.48833 80.4016
10494700 6.24508 29.9542 10.1064 34 14.8192 1.47694 80.3057
10494704 6.24508 29.9542 10.1064 34 14.8192 1.47694 80.3057
10494714 6.14819 30.0029 9.98165 34 14.9355 1.46581 80.1327
10494725 6.0601 30.1585 9.91927 34 15.0301 1.4414 80.1378
10494734 6.0601 30.1585 9.91927 34 15.0301 1.4414 80.1378
10494744 6.04249 30.2849 9.82569 34 15.1013 1.40325 80.1531
10494754 6.01606 30.5086 9.66972 34 15.2201 1.33646 80.1944
10494765 6.01606 30.5086 9.66972 34 15.2201 1.33646 80.1944
10494774 6.04249 30.635 9.68012 34 15.2171 1.30715 80.3576
10494787 6.04249 30.635 9.68012 34 15.2171 1.30715 80.3576
10494794 6.03368 30.7906 9.62813 34 15.2664 1.26854 80.4524
10494804 6.02487 31.0727 9.49297 34 15.3724 1.19036 80.5905
10494814 6.02487 31.0727 9.49297 34 15.3724 1.19036 80.5905
10494824 6.11295 31.1894 9.43058 34 15.3735 1.13862 80.7329
10494837 6.13938 31.345 9.31621 34 15.436 1.08264 80.8006
10494844 6.13938 31.345 9.31621 34 15.436 1.08264 80.8006
10494854 6.20984 31.5492 9.32661 34 15.4197 1.02994 81.0856
10494864 6.20984 31.5492 9.32661 34 15.4197 1.02994 81.0856
10494878 6.26269 31.5492 9.3682 34 15.3727 1.02666 81.1801
10494886 6.29793 31.6756 9.38899 34 15.3599 0.99839 81.3625
10494906 6.39482 31.7729 9.50336 34 15.2669 0.979967 81.6711
10494916 6.55337 31.7534 9.60734 34 15.1356 0.970627 81.9141
10494926 6.55337 31.7534 9.60734 34 15.1356 0.970627 81.9141
10494938 6.64145 31.8021 9.7633 34 15.0223 0.970683 82.2068
10494946 6.64145 31.8021 9.7633 34 15.0223 0.970683 82.2068
10494957 6.77358 31.8507 9.96086 34 14.8684 0.969291 82.5851
10494967 7.04663 31.8507 10.252 34 14.5979 0.965973 83.1493
10494977 7.04663 31.8507 10.252 34 14.5979 0.965973 83.1493
10494987 7.21399 31.7534 10.5119 34 14.3831 0.996265 83.4793
10494997 7.38135 31.7632 10.7927 34 14.174 1.00935 83.9372
10495017 7.55751 31.7534 11.0838 34 13.9559 1.02605 84.3947
10495027 7.74249 31.5784 11.3749 34 13.7141 1.0722 84.6958
10495039 7.74249 31.5784 11.3749 34 13.7141 1.0722 84.6958
10495048 7.99793 31.4714 11.77 34 13.4044 1.10877 85.2393
10495068 8.21813 31.3936 12.0612 34 13.1647 1.1292 85.6729
10495078 8.5 31.1407 12.4355 34 12.839 1.18408 86.0762
10495098 8.74663 31.0629 12.9969 34 12.4758 1.24196 86.8065
10495120 8.95803 30.8684 13.4336 34 12.1696 1.30768 87.2601
10495129 9.33679 30.7128 14.0055 34 11.7456 1.35527 88.0551
10495145 9.33679 30.7128 14.0055 34 11.7456 1.35527 88.0551
10495151 9.58342 30.4113 14.7021 34 11.3098 1.47255 88.6969
10495159 9.97979 30.0612 15.3572 34 10.8291 1.56315 89.3982
10495171 9.97979 30.0612 15.3572 34 10.8291 1.56315 89.3982
10495179 10.3938 29.7111 16.137 34 10.3002 1.66754 90.2419
10495193 10.7373 29.3415 16.8752 34 9.82062 1.78052 90.9541
10495199 10.7373 29.3415 16.8752 34 9.82062 1.78052 90.9541
10495209 11.1689 28.8455 17.7284 34 9.25091 1.91524 91.7429
10495219 11.1689 28.8455 17.7284 34 9.25091 1.91524 91.7429
10495229 11.5741 28.262 18.5553 33.357 8.58043 1.97435 91.7484
10495239 12.0409 27.7757 19.4215 32.5971 7.87017 1.99302 91.8354
10495251 12.0409 27.7757 19.4215 32.5971 7.87017 1.99302 91.8354
10495264 12.4461 27.163 20.3468 31.6619 7.10341 2.0301 91.6179
10495271 12.7896 26.5017 21.4395 30.8728 6.31672 2.13216 91.6036
10495286 12.7896 26.5017 21.4395 30.8728 6.31672 2.13216 91.6036
10495290 13.2301 25.9085 22.5223 29.9181 5.48002 2.17875 91.5789
10495307 13.2301 25.9085 22.5223 29.9181 5.48002 2.17875 91.5789
10495314 13.556 25.1791 23.8118 28.8464 4.55661 2.28516 91.3932
10495323 14.0052 24.3719 25.1801 27.8625 3.56845 2.4063 91.4196
10495331 14.0052 24.3719 25.1801 27.8625 3.56845 2.4063 91.4196
10495341 14.4016 23.5549 26.6665 26.7713 2.5325 2.54086 91.3943
10495352 14.8684 22.5727 28.3202 25.5438 1.34929 2.69804 91.3051
10495362 14.8684 22.5727 28.3202 25.5438 1.34929 2.69804 91.3051
10495376 15.5378 21.5126 30.2791 24.1702 -0.0366509 2.85228 91.4997
10495382 15.5378 21.5126 30.2791 24.1702 -0.0366509 2.85228 91.4997
10495392 16.2425 20.3942 32.2774 22.6115 -1.5062 2.99133 91.5255
10495402 17.1993 19.2563 34 20.9358 -3.011 3.03315 91.3914
10495412 17.1993 19.2563 34 20.9358 -3.011 3.03315 91.3914
10495423 18.3253 18.0017 34 19.2115 -4.21945 2.82858 89.5385
10495432 19.7104 16.7053 34 17.4481 -5.56457 2.56631 87.8639
10495446 19.7104 16.7053 34 17.4481 -5.56457 2.56631 87.8639
10495452 21.1753 15.3792 34 15.8007 -6.94672 2.30088 86.3551
10495472 22.5803 14.0991 34 14.1635 -8.34415 2.03035 84.8429
10495482 24.0451 12.8467 34 12.7738 -9.68876 1.77169 83.6656
10495492 24.0451 12.8467 34 12.7738 -9.68876 1.77169 83.6656
10495502 25.3306 11.7324 34 11.5078 -10.9271 1.53411 82.5708
10495516 26.6061 10.6181 34 10.5084 -12.0758 1.33684 81.7326
10495522 26.6061 10.6181 34 10.5084 -12.0758 1.33684 81.7326
10495533 27.7222 9.67877 34 9.70885 -13.0485 1.16655 81.1098
10495543 27.7222 9.67877 34 9.70885 -13.0485 1.16655 81.1098
10495553 28.6489 8.94204 34 9.014 -13.8617 1.0092 80.6049
10495564 29.456 8.2974 34 8.54759 -14.5113 0.895536 80.301
10495573 29.456 8.2974 34 8.54759 -14.5113 0.895536 80.301
10495583 30.1735 7.76327 34 8.09071 -15.0947 0.778595 80.0275
10495593 30.6219 7.37649 34 7.83371 -15.4736 0.720629 79.8321
10495603 30.6219 7.37649 34 7.83371 -15.4736 0.720629 79.8321
10495613 31.0404 6.98971 34 7.58623 -15.8461 0.669976 79.6164
10495623 31.0404 6.98971 34 7.58623 -15.8461 0.669976 79.6164
10495633 31.3693 6.70423 34 7.3673 -16.1434 0.621933 79.4408
10495643 31.6483 6.48321 34 7.15789 -16.3979 0.572532 79.2894
10495653 31.6483 6.48321 34 7.15789 -16.3979 0.572532 79.2894
10495664 31.8775 6.31744 34 7.10078 -16.5391 0.549687 79.2957
10495675 31.9871 6.14247 34 7.04367 -16.6726 0.552099 79.1732
10495684 31.9871 6.14247 34 7.04367 -16.6726 0.552099 79.1732
10495694 32.0569 5.99512 34 7.0056 -16.7777 0.560405 79.0576
10495705 32.0569 5.99512 34 7.0056 -16.7777 0.560405 79.0576
10495714 31.9373 5.88462 34 7.03415 -16.8086 0.611034 78.8561
10495729 31.9572 5.90303 34 7.17693 -16.7254 0.629455 79.0372
10495734 31.9572 5.90303 34 7.17693 -16.7254 0.629455 79.0372
10495744 32.1266 6.02275 34 7.31971 -16.6052 0.598412 79.4691
10495754 32.4056 5.97671 34 7.6243 -16.5001 0.607817 80.0066
10495774 32.6946 6.04117 34 7.70045 -16.4581 0.55286 80.4362
10495784 32.6946 6.04117 34 7.70045 -16.4581 0.55286 80.4362
10495797 32.8042 6.04117 34 7.7766 -16.4305 0.545361 80.622
10495804 32.7644 6.13326 34 7.82419 -16.3546 0.543823 80.7218
10495819 32.7644 6.13326 34 7.82419 -16.3546 0.543823 80.7218
10495826 32.7544 6.1701 34 7.81467 -16.3395 0.536948 80.7392
10495834 32.7544 6.1701 34 7.81467 -16.3395 0.536948 80.7392
10495844 32.5451 6.19772 34 7.73852 -16.3419 0.558327 80.4814
10495854 32.4455 6.18852 34 7.61478 -16.3997 0.557163 80.2488
10495865 32.4455 6.18852 34 7.61478 -16.3997 0.557163 80.2488
10495874 32.286 6.25298 34 7.56719 -16.3738 0.567026 80.1062
10495887 32.1764 6.2714 34 7.52912 -16.3722 0.577907 79.9769
10495894 32.1764 6.2714 34 7.52912 -16.3722 0.577907 79.9769
10495904 32.1665 6.28982 34 7.61478 -16.3173 0.59169 80.0711
10495914 32.1665 6.28982 34 7.61478 -16.3173 0.59169 80.0711
10495924 32.017 6.23456 34 7.59574 -16.3395 0.628236 79.8473
10495935 32.017 6.30823 34 7.70997 -16.2425 0.634357 80.0352
10495944 32.017 6.30823 34 7.70997 -16.2425 0.634357 80.0352
10495963 32.007 6.33586 34 7.89082 -16.1342 0.663298 80.2337
10495965 31.9871 6.3727 34 8.09071 -16.011 0.695627 80.4505
10495978 31.9871 6.3727 34 8.09071 -16.011 0.695627 80.4505
10495986 32.027 6.40953 34 8.20493 -15.9386 0.700961 80.6414
10495994 32.027 6.40953 34 8.20493 -15.9386 0.700961 80.6414
10496004 31.9871 6.46479 34 8.42385 -15.7954 0.736679 80.8757
10496014 31.9771 6.53846 34 8.66181 -15.6376 0.766139 81.1774
10496025 31.9771 6.53846 34 8.66181 -15.6376 0.766139 81.1774
10496034 31.8675 6.5753 34 8.78555 -15.5447 0.801948 81.2284
10496044 31.7778 6.5753 34 8.89978 -15.4772 0.839349 81.2529
10496054 31.7778 6.5753 34 8.89978 -15.4772 0.839349 81.2529
10496064 31.6483 6.54767 34 9.014 -15.4189 0.889921 81.21
10496074 31.6483 6.54767 34 9.014 -15.4189 0.889921 81.21
10496087 31.449 6.40032 34 8.9664 -15.4927 0.949767 80.8157
10496094 31.3294 6.29903 34 9.00448 -15.5104 1.00009 80.6329
10496108 31.3294 6.29903 34 9.00448 -15.5104 1.00009 80.6329
10496114 30.9209 6.19772 34 8.81411 -15.6097 1.06881 79.9327
10496125 30.9209 6.19772 34 8.81411 -15.6097 1.06881 79.9327
10496137 30.4027 6.05959 34 8.73796 -15.6581 1.18857 79.2002
10496146 29.7351 6.07801 34 8.73796 -15.5692 1.32237 78.551
10496166 29.7351 6.07801 34 8.73796 -15.5692 1.32237 78.551
10496170 28.9777 6.05959 34 8.90929 -15.398 1.51488 77.9466
10496176 28.1905 6.34507 34 9.38522 -14.9062 1.70359 77.9208
10496195 28.1905 6.34507 34 9.38522 -14.9062 1.70359 77.9208
10496199 27.3335 6.74106 34 10.2228 -14.167 1.94417 78.2974
10496206 27.3335 6.74106 34 10.2228 -14.167 1.94417 78.2974
10496218 26.3869 7.46858 34 11.6601 -12.9717 2.22686 79.5156
10496226 25.3406 8.37107 34 13.5353 -11.5187 2.55215 81.2469
10496246 24.2046 9.36566 34 15.8197 -9.89904 2.92292 83.3899
10496256 23.0387 10.3971 34 18.2762 -8.27346 3.29717 85.712
10496268 23.0387 10.3971 34 18.2762 -8.27346 3.29717 85.712
10496276 21.7333 11.4285 34 20.7799 -6.68763 3.68735 87.9417
10496286 21.7333 11.4285 34 20.7799 -6.68763 3.68735 87.9417
10496297 20.4279 12.552 34 23.0206 -5.23754 4.00676 90.0005
10496307 19.2222 13.74 34 24.9398 -3.95594 4.24001 91.902
10496327 18.0961 14.7622 33.3995 26.6155 -2.7236 4.38608 92.8733
10496342 16.956 15.7015 31.5391 28.0183 -1.29458 4.37564 92.2149
10496347 16.956 15.7015 31.5391 28.0183 -1.29458 4.37564 92.2149
10496357 15.987 16.7514 29.5014 29.3238 0.160173 4.27356 91.5636
10496368 15.987 16.7514 29.5014 29.3238 0.160173 4.27356 91.5636
10496377 15.0974 17.8169 27.5032 30.4246 1.55241 4.13027 90.8422
10496394 14.243 18.8673 25.7412 31.4086 2.85057 3.99504 90.26
10496407 13.4415 19.7815 24.1662 32.7238 4.13304 3.93957 90.1129
10496421 12.6927 20.647 22.7585 34 5.32633 3.89887 90.0983
10496427 12.6927 20.647 22.7585 34 5.32633 3.89887 90.0983
10496437 11.9969 21.4542 21.5379 34 6.1579 3.72295 88.9891
10496448 11.9969 21.4542 21.5379 34 6.1579 3.72295 88.9891
10496457 11.3363 22.1447 20.4256 34 6.93431 3.57389 87.9066
10496471 10.7813 22.8255 19.5298 34 7.60711 3.4296 87.1367
10496477 10.7813 22.8255 19.5298 34 7.60711 3.4296 87.1367
10496487 10.1472 23.3215 18.5356 34 8.32481 3.32547 86.0043
10496497 9.6715 23.8175 17.5906 34 8.97847 3.19141 85.0796
10496508 9.6715 23.8175 17.5906 34 8.97847 3.19141 85.0796
10496517 9.16062 24.3719 16.6985 34 9.64989 3.05695 84.2309
10496527 9.16062 24.3719 16.6985 34 9.64989 3.05695 84.2309
10496538 8.54404 24.8678 15.6899 34 10.4191 2.93821 83.1018
10496547 7.98031 25.1985 14.7229 34 11.1399 2.84684 81.9018
10496559 7.98031 25.1985 14.7229 34 11.1399 2.84684 81.9018
10496567 7.49585 25.5973 13.7872 34 11.8429 2.72515 80.8803
10496578 7.08187 25.8793 13.0177 34 12.4344 2.6363 79.9789
10496590 7.08187 25.8793 13.0177 34 12.4344 2.6363 79.9789
10496601 6.65907 26.0835 12.3939 34 12.962 2.58755 79.1365
10496611 6.65907 26.0835 12.3939 34 12.962 2.58755 79.1365
10496620 6.32435 26.0933 11.8324 34 13.3982 2.57153 78.25
10496631 6.0601 26.1808 11.4893 34 13.7113 2.55662 77.7302
10496641 6.0601 26.1808 11.4893 34 13.7113 2.55662 77.7302
10496648 5.81347 26.2294 11.115 34 14.03 2.5413 77.1579
10496658 5.61088 26.1516 10.8966 34 14.2332 2.56998 76.6591
10496678 5.43471 26.21 10.7095 34 14.4281 2.56662 76.3541
10496692 5.43471 26.21 10.7095 34 14.4281 2.56662 76.3541
10496699 5.23212 26.3364 10.6055 34 14.6043 2.56721 76.174
10496709 5.17927 26.3947 10.4911 34 14.6994 2.54725 76.0651
10496729 5.08238 26.6573 10.3248 34 14.8723 2.48179 76.0645
10496747 5.06477 26.8713 10.2104 34 14.9699 2.41791 76.1464
10496754 5.06477 26.8713 10.2104 34 14.9699 2.41791 76.1464
10496761 5.03834 27.2117 10.0648 34 15.1047 2.32225 76.3148
10496773 5.03834 27.2117 10.0648 34 15.1047 2.32225 76.3148
10496781 4.93264 27.4159 9.98165 34 15.2304 2.28608 76.3302
10496791 4.9943 27.7174 9.87768 34 15.2911 2.18685 76.5894
10496801 4.9943 27.7174 9.87768 34 15.2911 2.18685 76.5894
10496811 4.97668 27.9314 9.7737 34 15.3821 2.12547 76.6817
10496823 5.03834 28.2037 9.7633 34 15.3892 2.04946 77.0053
10496843 5.02073 28.5635 9.62813 34 15.5139 1.95122 77.2124
10496851 5.02073 28.5635 9.62813 34 15.5139 1.95122 77.2124
10496865 5.09119 28.865 9.59694 34 15.5303 1.86468 77.5531
10496871 5.26736 29.1859 9.60734 34 15.4723 1.75903 78.0606
10496881 5.26736 29.1859 9.60734 34 15.4723 1.75903 78.0606
10496891 5.39948 29.536 9.58654 34 15.4574 1.6526 78.5221
10496901 5.49637 29.7305 9.66972 34 15.3886 1.60516 78.8966
10496911 5.49637 29.7305 9.66972 34 15.3886 1.60516 78.8966
10496923 5.64611 29.9931 9.7529 34 15.3019 1.53296 79.3922
10496935 5.64611 29.9931 9.7529 34 15.3019 1.53296 79.3922
10496941 5.69016 30.1001 9.90887 34 15.2138 1.52798 79.6991
10496951 5.91917 30.3043 10.1064 34 15.0251 1.47197 80.3299
10496978 6.11295 30.46 10.2832 34 14.8609 1.43037 80.8561
10496982 6.29793 30.6253 10.4911 34 14.6891 1.39433 81.4143
10496992 6.29793 30.6253 10.4911 34 14.6891 1.39433 81.4143
10497002 6.55337 30.8392 10.8446 34 14.4221 1.35925 82.2373
10497012 6.55337 30.8392 10.8446 34 14.4221 1.35925 82.2373
10497024 6.72073 30.8198 11.0942 34 14.2207 1.37116 82.6347
10497032 6.95855 30.849 11.4165 34 13.9605 1.37142 83.224
10497047 6.95855 30.849 11.4165 34 13.9605 1.37142 83.224
10497052 7.21399 30.7809 11.8428 34 13.6347 1.40413 83.8377
10497062 7.44301 30.7323 12.3003 34 13.3142 1.44273 84.4756
10497072 7.44301 30.7323 12.3003 34 13.3142 1.44273 84.4756
10497082 7.70725 30.5572 12.9346 34 12.8861 1.52644 85.199
10497093 7.70725 30.5572 12.9346 34 12.8861 1.52644 85.199
10497102 8.11244 30.3238 13.5584 34 12.3999 1.59118 85.9946
10497115 8.35907 30.0223 14.2654 34 11.9444 1.7111 86.6468
10497122 8.35907 30.0223 14.2654 34 11.9444 1.7111 86.6468
10497139 8.80829 29.6138 15.0972 34 11.3427 1.82962 87.5194
10497143 9.15181 29.0887 16.1058 34 10.7053 2.01457 88.3463
10497164 9.58342 28.5635 17.2559 34 9.98965 2.19943 89.4029
10497184 10.015 27.98 18.2994 34 9.32107 2.37629 90.2944
10497193 10.4642 27.3186 19.4806 34 8.59429 2.58006 91.2635
10497210 10.4642 27.3186 19.4806 34 8.59429 2.58006 91.2635
10497213 11.0104 26.5114 20.6422 33.5908 7.75157 2.73193 91.7548
10497228 11.5917 25.5973 22.0793 32.3244 6.61913 2.81923 91.5927
10497248 12.3052 24.6539 23.7724 30.9117 5.31627 2.90121 91.6433
10497254 12.3052 24.6539 23.7724 30.9117 5.31627 2.90121 91.6433
10497266 13.0979 23.5063 25.7313 29.2556 3.80294 3.01056 91.5911
10497274 14.0316 22.2128 28.3005 27.2877 1.95147 3.15962 91.8326
10497296 15.2912 20.6178 31.3422 24.8814 -0.30776 3.30739 92.1326
10497306 16.5684 18.9062 34 22.3582 -2.53288 3.41114 91.8327
10497318 16.5684 18.9062 34 22.3582 -2.53288 3.41114 91.8327
10497326 17.7773 17.1264 34 20.0493 -4.10373 3.22849 88.953
10497342 17.7773 17.1264 34 20.0493 -4.10373 3.22849 88.953
10497346 18.9232 15.5358 34 18.1106 -5.56687 3.05852 86.5696
10497357 20.1389 14.0163 34 16.4003 -7.01383 2.88186 84.5555
10497368 20.1389 14.0163 34 16.4003 -7.01383 2.88186 84.5555
10497377 21.3247 12.773 34 14.9535 -8.30757 2.68312 83.0513
10497390 22.4807 11.6127 34 13.7256 -9.51562 2.49923 81.819
10497397 22.4807 11.6127 34 13.7256 -9.51562 2.49923 81.819
10497413 23.6565 10.5813 34 12.612 -10.6566 2.29578 80.8497
10497417 24.6131 9.73402 34 11.6125 -11.6517 2.11333 79.9597
10497438 25.49 8.93283 34 10.7464 -12.5714 1.95597 79.1692
10497448 25.49 8.93283 34 10.7464 -12.5714 1.95597 79.1692
10497462 26.2374 8.2974 34 10.023 -13.3396 1.81169 78.5578
10497467 27.0944 7.83694 34 9.47088 -13.9622 1.6338 78.4022
10497477 27.0944 7.83694 34 9.47088 -13.9622 1.6338 78.4022
10497487 27.9115 7.46858 34 8.95689 -14.5161 1.45081 78.337
10497497 28.5891 7.10022 34 8.57615 -14.9851 1.3199 78.2655
10497510 28.5891 7.10022 34 8.57615 -14.9851 1.3199 78.2655
10497517 29.2966 6.8792 34 8.29059 -15.3336 1.16893 78.4664
10497527 29.2966 6.8792 34 8.29059 -15.3336 1.16893 78.4664
10497537 29.8646 6.6766 34 7.986 -15.664 1.04005 78.5272
10497548 30.3927 6.52004 34 7.73852 -15.9356 0.920343 78.6513
10497568 30.881 6.3727 34 7.51008 -16.1871 0.810596 78.7638
10497579 30.881 6.3727 34 7.51008 -16.1871 0.810596 78.7638
10497588 31.1999 6.31744 34 7.38634 -16.3161 0.735519 78.9037
10497602 31.6782 6.17931 34 7.21501 -16.5304 0.636917 79.0725
10497618 32.0868 6.24377 34 7.11982 -16.59 0.526612 79.4503
10497636 32.5152 6.17931 34 6.99608 -16.7334 0.433213 79.6906
10497648 32.854 6.25298 34 6.81523 -16.8244 0.320601 79.9223
10497665 32.854 6.25298 34 6.81523 -16.8244 0.320601 79.9223
10497668 33.1131 6.28982 34 6.81523 -16.8316 0.264083 80.2182
10497678 33.3822 6.32665 34 6.84378 -16.8249 0.211344 80.5526
10497690 33.3822 6.32665 34 6.84378 -16.8249 0.211344 80.5526
10497698 33.9502 6.52004 34 6.88186 -16.763 0.0759012 81.3521
10497712 34 6.63976 34 7.04367 -16.6241 0.0741738 81.6834
10497718 34 6.63976 34 7.04367 -16.6241 0.0741738 81.6834
10497728 34 6.83315 34 7.17693 -16.4583 0.0628781 82.0101
10497748 34 6.97129 34 7.13886 -16.4078 0.0306129 82.1101
10497759 34 7.15547 34 7.17693 -16.296 0.00391066 82.3324
10497769 34 7.15547 34 7.17693 -16.296 0.00391066 82.3324
10497781 34 7.33044 34 7.12934 -16.2322 -0.0365818 82.4598
10497789 34 7.45016 34 7.07223 -16.2009 -0.0686976 82.5224
10497799 34 7.45016 34 7.07223 -16.2009 -0.0686976 82.5224
10497810 34 7.56067 34 6.97704 -16.1933 -0.106065 82.5377
10497819 34 7.56067 34 6.97704 -16.1933 -0.106065 82.5377
10497830 34 7.64355 34 6.95801 -16.1615 -0.124492 82.6016
10497839 34 7.72644 34 6.93897 -16.1297 -0.142891 82.6654
10497853 34 7.72644 34 6.93897 -16.1297 -0.142891 82.6654
10497875 34 7.7909 34 6.84378 -16.145 -0.171923 82.6347
10497876 34 7.92904 34 6.86282 -16.0668 -0.193173 82.7919
10497889 34 8.14085 34 6.82475 -15.9808 -0.237947 82.9656
10497899 34 8.14085 34 6.82475 -15.9808 -0.237947 82.9656
10497909 34 8.17768 34 6.9009 -15.9251 -0.230526 83.0786
10497923 34 8.31582 34 7.0056 -15.8058 -0.235873 83.3214
10497929 34 8.31582 34 7.0056 -15.8058 -0.235873 83.3214
10497939 34 8.45395 34 7.20549 -15.641 -0.223849 83.6594
10497949 34 8.52763 34 7.33875 -15.5407 -0.212638 83.8664
10497959 34 8.52763 34 7.33875 -15.5407 -0.212638 83.8664
10497973 34 8.74865 34 7.65286 -15.2836 -0.194745 84.4015
10497981 34 8.74865 34 7.65286 -15.2836 -0.194745 84.4015
10497998 34 8.94204 34 7.82419 -15.1103 -0.19781 84.7662
10498000 34 9.17226 34 8.14782 -14.8499 -0.180108 85.3201
10498010 34 9.17226 34 8.14782 -14.8499 -0.180108 85.3201
10498021 34 9.35645 34 8.47144 -14.6142 -0.15467 85.8279
10498031 34 9.6143 34 8.90929 -14.2956 -0.122223 86.5236
10498043 34 9.6143 34 8.90929 -14.2956 -0.122223 86.5236
10498050 34 9.82611 34 9.38522 -13.9858 -0.0758305 87.2113
10498066 34 9.82611 34 9.38522 -13.9858 -0.0758305 87.2113
10498071 34 10.0011 34 9.91825 -13.6718 -0.0141317 87.9193
10498082 34 10.3142 34 10.7083 -13.1926 0.0664043 89.0225
10498092 34 10.3142 34 10.7083 -13.1926 0.0664043 89.0225
10498102 34 10.6181 34 11.5649 -12.7011 0.157489 90.183
10498114 34 10.9865 33.9606 12.5549 -12.1362 0.250656 91.502
10498122 34 10.9865 33.9606 12.5549 -12.1362 0.250656 91.502
10498137 33.6114 11.493 33.3405 13.7352 -11.3158 0.320781 92.18
10498142 33.6114 11.493 33.3405 13.7352 -11.3158 0.320781 92.18
10498152 32.6448 11.9166 32.7203 14.8964 -10.4559 0.497198 92.1781
10498167 31.7181 12.4139 31.8935 16.1338 -9.51175 0.634015 92.1592
10498172 31.7181 12.4139 31.8935 16.1338 -9.51175 0.634015 92.1592
10498194 30.6717 12.994 31.0075 17.2533 -8.54811 0.74979 91.9266
10498196 29.5158 13.6571 30.0232 18.4223 -7.49291 0.86324 91.6184
10498202 29.5158 13.6571 30.0232 18.4223 -7.49291 0.86324 91.6184
10498219 28.3499 14.4951 29.029 19.5914 -6.36644 0.947126 91.4654
10498222 28.3499 14.4951 29.029 19.5914 -6.36644 0.947126 91.4654
10498232 27.1741 15.4989 28.0249 20.5851 -5.23509 0.975591 91.283
10498242 25.9385 16.5119 27.0405 21.7639 -4.02806 1.04445 91.2548
10498252 25.9385 16.5119 27.0405 21.7639 -4.02806 1.04445 91.2548
10498266 24.7028 17.4182 26.1743 22.7673 -2.93522 1.12351 91.0626
10498272 24.7028 17.4182 26.1743 22.7673 -2.93522 1.12351 91.0626
10498282 23.3875 18.2546 25.3573 23.9656 -1.79314 1.26656 90.9649
10498293 22.0023 19.091 24.6387 25.1444 -0.661793 1.43433 90.8764
10498302 22.0023 19.091 24.6387 25.1444 -0.661793 1.43433 90.8764
10498315 20.7169 19.7328 23.8709 26.4011 0.42609 1.62403 90.7217
10498322 19.3019 20.4622 23.1228 27.843 1.62036 1.85192 90.7299
10498332 19.3019 20.4622 23.1228 27.843 1.62036 1.85192 90.7299
10498343 17.9367 21.2208 22.3845 29.4797 2.85078 2.094 91.0217
10498365 16.5332 22.0669 21.3115 31.4378 4.28576 2.32337 91.3494
10498373 15.2383 23.1659 20.1697 33.7272 5.8193 2.51773 92.3011
10498390 15.2383 23.1659 20.1697 33.7272 5.8193 2.51773 92.3011
10498393 13.9964 24.0704 18.9392 34 6.90471 2.45135 91.0059
10498403 12.913 24.8678 17.7776 34 7.8656 2.34431 89.5585
10498415 12.913 24.8678 17.7776 34 7.8656 2.34431 89.5585
10498423 11.9793 25.5097 16.8544 34 8.6809 2.26934 88.3434
10498433 11.9793 25.5097 16.8544 34 8.6809 2.26934 88.3434
10498443 11.1953 26.2002 15.7523 34 9.53913 2.12686 87.1479
10498453 10.4554 26.8907 14.8061 34 10.339 1.99529 86.1523
10498472 10.4554 26.8907 14.8061 34 10.339 1.99529 86.1523
10498473 9.79482 27.4937 13.7352 34 11.1627 1.84301 85.0237
10498483 9.2487 27.9994 12.8306 34 11.8699 1.70955 84.0787
10498497 9.2487 27.9994 12.8306 34 11.8699 1.70955 84.0787
10498503 8.79067 28.3982 12.1339 34 12.4436 1.61032 83.3228
10498513 8.79067 28.3982 12.1339 34 12.4436 1.61032 83.3228
10498528 8.33264 28.6121 11.5309 34 12.9579 1.56157 82.4757
10498534 7.99793 28.8844 11.0318 34 13.3843 1.49231 81.9142
10498544 7.99793 28.8844 11.0318 34 13.3843 1.49231 81.9142
10498554 7.60155 29.1373 10.7303 34 13.7492 1.47137 81.4691
10498567 7.31088 29.4193 10.3664 34 14.1011 1.41242 81.0966
10498574 7.31088 29.4193 10.3664 34 14.1011 1.41242 81.0966
10498599 7.02021 29.7208 10.1896 34 14.3676 1.38055 80.9306
10498602 7.02021 29.7208 10.1896 34 14.3676 1.38055 80.9306
10498604 6.81762 29.8764 10.0232 34 14.568 1.36201 80.7173
10498615 6.53575 30.0029 9.94006 34 14.7639 1.37952 80.4787
10498624 6.53575 30.0029 9.94006 34 14.7639 1.37952 80.4787
10498639 6.39482 29.9931 9.7737 34 14.9151 1.38204 80.1617
10498644 6.18342 29.964 9.72171 34 15.043 1.42251 79.8691
10498664 6.08653 29.9931 9.64893 34 15.1319 1.42407 79.7286
10498676 6.08653 29.9931 9.64893 34 15.1319 1.42407 79.7286
10498686 5.97202 29.8375 9.53456 34 15.2283 1.46041 79.3441
10498696 5.92798 29.8181 9.55535 34 15.2377 1.47714 79.3014
10498709 5.92798 29.8181 9.55535 34 15.2377 1.47714 79.3014
10498717 5.87513 29.6819 9.46177 34 15.2954 1.50054 79.0188
10498741 5.79586 29.6722 9.49297 34 15.3188 1.52447 78.961
10498744 5.79586 29.6722 9.49297 34 15.3188 1.52447 78.961
10498747 5.82228 29.75 9.45138 34 15.336 1.49558 79.0237
10498757 5.76943 29.7695 9.47217 34 15.3548 1.50611 79.011
10498771 5.76943 29.7695 9.47217 34 15.3548 1.50611 79.011
10498777 5.8487 29.8181 9.51376 34 15.2991 1.48654 79.1805
10498787 5.8487 29.8181 9.51376 34 15.2991 1.48654 79.1805
10498797 5.87513 29.8278 9.58654 34 15.2499 1.49142 79.2895
10498808 5.90155 29.9737 9.66972 34 15.2123 1.46983 79.545
10498828 5.96321 30.0515 9.68012 34 15.1855 1.44277 79.6948
10498845 5.98083 30.139 9.74251 34 15.156 1.43171 79.8624
10498849 5.98083 30.139 9.74251 34 15.156 1.43171 79.8624
10498858 6.02487 30.1682 9.82569 34 15.0957 1.43078 80.0188
10498868 6.02487 30.1682 9.82569 34 15.0957 1.43078 80.0188
10498878 6.06891 30.2654 9.99205 34 15.0027 1.42998 80.3264
10498892 6.11295 30.1974 10.0752 34 14.9309 1.44894 80.3856
10498898 6.11295 30.1974 10.0752 34 14.9309 1.44894 80.3856
10498916 6.20104 30.2168 10.2104 34 14.8228 1.44972 80.6283
10498919 6.19223 30.1779 10.3248 34 14.7658 1.47865 80.6949
10498929 6.19223 30.1779 10.3248 34 14.7658 1.47865 80.6949
10498939 6.25389 30.1779 10.4703 34 14.6639 1.49042 80.9021
10498962 6.35078 30.0126 10.6991 34 14.4835 1.54246 81.0624
10498971 6.47409 29.8278 11.063 34 14.2232 1.61515 81.3649
10498981 6.47409 29.8278 11.063 34 14.2232 1.61515 81.3649
10498991 6.59741 29.7305 11.4581 34 13.9617 1.67452 81.7861
10499000 6.77358 29.4874 11.9468 34 13.614 1.76731 82.2078
10499013 6.77358 29.4874 11.9468 34 13.614 1.76731 82.2078
10499020 7.00259 29.254 12.4355 34 13.2467 1.84641 82.6921
10499041 7.15233 28.9136 13.1945 34 12.7812 2.00489 83.2604
10499051 7.40777 28.476 13.9951 34 12.2418 2.16587 83.8788
10499061 7.40777 28.476 13.9951 34 12.2418 2.16587 83.8788
10499073 7.7513 28.0481 15.0141 34 11.5792 2.33714 84.8134
10499081 8.01554 27.4743 15.9706 34 10.9665 2.54167 85.4604
10499101 8.38549 26.8129 17.0886 34 10.2387 2.76232 86.287
10499111 8.38549 26.8129 17.0886 34 10.2387 2.76232 86.287
10499122 8.75544 26.0641 18.2797 34 9.48027 3.00695 87.0992
10499131 9.16943 25.3347 19.5692 34 8.68483 3.24703 88.0733
10499159 9.59223 24.5566 20.9079 34 7.87601 3.49649 89.0568
10499167 10.1031 23.6814 22.4239 34 6.9712 3.76452 90.2083
10499179 10.1031 23.6814 22.4239 34 6.9712 3.76452 90.2083
10499182 10.6933 22.7769 24.0874 34 6.00611 4.03308 91.5576
10499192 10.6933 22.7769 24.0874 34 6.00611 4.03308 91.5576
10499203 11.486 21.7654 25.9774 32.3146 4.53791 4.10306 91.5435
10499214 12.3668 20.6373 28.0643 30.5415 2.93302 4.19196 91.61
10499227 12.3668 20.6373 28.0643 30.5415 2.93302 4.19196 91.61
10499232 13.3974 19.4508 30.2496 28.4178 1.15325 4.23192 91.5155
10499242 14.6306 18.2254 32.7203 26.333 -0.759593 4.27552 91.9092
10499252 14.6306 18.2254 32.7203 26.333 -0.759593 4.27552 91.9092
10499262 15.9078 17.0097 34 24.0923 -2.41891 4.14924 91.0098
10499274 15.9078 17.0097 34 24.0923 -2.41891 4.14924 91.0098
10499282 17.1495 15.7476 34 21.91 -3.79809 3.88702 88.8071
10499296 18.6641 14.5412 34 19.7765 -5.27307 3.5475 86.9818
10499303 18.6641 14.5412 34 19.7765 -5.27307 3.5475 86.9818
10499312 20.0393 13.3624 34 17.7891 -6.71661 3.23758 85.1908
10499322 21.3148 12.2665 34 16.1243 -8.04126 2.9645 83.7056
10499344 22.5404 11.2535 34 14.4776 -9.36208 2.67716 82.2716
10499353 22.5404 11.2535 34 14.4776 -9.36208 2.67716 82.2716
10499370 23.5469 10.2313 34 13.0594 -10.5942 2.46441 80.8376
10499373 24.4238 9.39328 34 11.7934 -11.6935 2.25655 79.6105
10499394 25.2907 8.53684 34 10.8225 -12.6927 2.09693 78.6501
10499409 26.068 7.88299 34 9.92777 -13.5651 1.9216 77.8788
10499419 26.068 7.88299 34 9.92777 -13.5651 1.9216 77.8788
10499424 26.7954 7.34886 34 9.29955 -14.2513 1.77327 77.4438
10499434 26.7954 7.34886 34 9.29955 -14.2513 1.77327 77.4438
10499444 27.3236 6.88841 34 8.84266 -14.7923 1.68011 77.0546
10499454 27.9812 6.53846 34 8.48096 -15.2472 1.55088 77.0007
10499475 28.4197 6.22535 34 8.21445 -15.6064 1.47725 76.8595
10499492 28.9478 5.99512 34 7.986 -15.913 1.37329 76.929
10499496 28.9478 5.99512 34 7.986 -15.913 1.37329 76.929
10499507 29.3365 5.80173 34 7.70997 -16.2088 1.28274 76.8482
10499516 29.8048 5.5623 34 7.52912 -16.4876 1.20201 76.8962
10499526 29.8048 5.5623 34 7.52912 -16.4876 1.20201 76.8962
10499541 30.2931 5.45179 34 7.3673 -16.688 1.09369 77.1122
10499556 30.7515 5.16631 34 7.11982 -17.0259 1.01289 77.0376
10499569 31.2597 5.01896 34 6.91993 -17.2674 0.901825 77.1986
10499576 31.2597 5.01896 34 6.91993 -17.2674 0.901825 77.1986
10499586 31.7978 4.87161 34 6.65342 -17.5475 0.77287 77.3228
10499597 32.4056 4.76111 34 6.56775 -17.7131 0.656276 77.7345
10499606 32.4056 4.76111 34 6.56775 -17.7131 0.656276 77.7345
10499623 32.9736 4.6506 34 6.47256 -17.8786 0.547079 78.0968
10499626 32.9736 4.6506 34 6.47256 -17.8786 0.547079 78.0968
10499636 33.5516 4.6506 34 6.35834 -17.9933 0.411687 78.5605
10499650 34 4.59534 34 6.2346 -18.1308 0.311925 78.8299
10499667 34 4.64139 34 6.14894 -18.1525 0.287005 78.7903
10499677 34 4.58613 34 6.00616 -18.2612 0.271023 78.5923
10499687 34 4.58613 34 6.00616 -18.2612 0.271023 78.5923
10499707 34 4.6598 34 5.9776 -18.2364 0.251369 78.6374
10499709 34 4.6598 34 5.9776 -18.2364 0.251369 78.6374
10499717 34 4.61376 34 5.90146 -18.3037 0.246009 78.5152
10499737 34 4.69664 34 5.81579 -18.3052 0.213817 78.5124
10499739 34 4.69664 34 5.81579 -18.3052 0.213817 78.5124
10499747 34 4.77031 34 5.73964 -18.3066 0.185199 78.5099
10499767 34 4.77031 34 5.73964 -18.3066 0.185199 78.5099
10499769 34 4.78873 34 5.66349 -18.3385 0.167254 78.4522
10499778 34 4.86241 34 5.7206 -18.2663 0.163813 78.583
10499796 34 4.86241 34 5.7206 -18.2663 0.163813 78.583
10499804 34 4.87161 34 5.65398 -18.298 0.149447 78.5256
10499808 34 4.99133 34 5.62542 -18.2478 0.120984 78.6168
10499821 34 4.99133 34 5.62542 -18.2478 0.120984 78.6168
10499828 34 4.98212 34 5.67301 -18.2267 0.131755 78.6551
10499838 34 5.06501 34 5.75868 -18.1342 0.132004 78.8237
10499848 34 5.06501 34 5.75868 -18.1342 0.132004 78.8237
10499859 34 5.10184 34 5.80627 -18.0881 0.133908 78.9081
10499873 34 5.10184 34 5.80627 -18.0881 0.133908 78.9081
10499878 34 5.13868 34 5.90146 -18.0161 0.144757 79.0401
10499888 34 5.23998 34 6.05375 -17.8785 0.153943 79.2937
10499909 34 5.34128 34 6.17749 -17.7572 0.157739 79.5188
10499923 34 5.34128 34 6.17749 -17.7572 0.157739 79.5188
10499928 34 5.49783 34 6.42497 -17.541 0.174006 79.9228
10499938 34 5.57151 34 6.78667 -17.3106 0.226829 80.3582
10499959 34 5.71885 34 7.04367 -17.0987 0.246059 80.7625
10499975 33.8406 5.84778 34 7.53863 -16.7599 0.34169 81.227
10499980 33.8406 5.84778 34 7.53863 -16.7599 0.34169 81.227
10499989 33.2825 6.02275 34 7.92889 -16.4127 0.484452 81.2342
10500001 33.2825 6.02275 34 7.92889 -16.4127 0.484452 81.2342
10500009 32.7444 6.1701 34 8.45241 -16.0145 0.652208 81.3669
10500025 32.1067 6.43716 34 9.08063 -15.4944 0.833718 81.6245
10500029 32.1067 6.43716 34 9.08063 -15.4944 0.833718 81.6245
10500039 31.439 6.58451 34 9.68981 -15.0418 1.04015 81.7134
10500063 30.5721 6.84236 34 10.4037 -14.4607 1.28136 81.8182
10500066 30.5721 6.84236 34 10.4037 -14.4607 1.28136 81.8182
10500072 29.8646 7.09101 34 11.0224 -13.9523 1.47603 81.978
10500079 29.8646 7.09101 34 11.0224 -13.9523 1.47603 81.978
10500093 29.1471 7.29361 34 11.6125 -13.4793 1.67668 82.0533
10500105 28.5692 7.55146 34 12.4406 -12.8926 1.87497 82.5613
10500123 27.9613 7.84615 34 13.1641 -12.3389 2.0531 82.9715
10500131 27.4132 8.17768 34 13.8494 -11.8007 2.20369 83.4403
10500154 26.905 8.38949 34 14.7156 -11.2486 2.39632 84.0101
10500162 26.3072 8.74865 34 15.5437 -10.6427 2.56879 84.5995
10500185 26.3072 8.74865 34 15.5437 -10.6427 2.56879 84.5995
10500188 25.6893 9.13543 34 16.5526 -9.95617 2.76324 85.3774
10500203 25.0018 9.46696 34 17.7696 -9.20854 3.00926 86.2383
10500213 24.3142 9.9182 34 19.0556 -8.40333 3.23467 87.288
10500224 24.3142 9.9182 34 19.0556 -8.40333 3.23467 87.288
10500233 23.6067 10.2774 34 20.3805 -7.63297 3.48325 88.2645
10500243 22.7696 10.7654 34 21.7152 -6.80363 3.72774 89.2503
10500257 22.7696 10.7654 34 21.7152 -6.80363 3.72774 89.2503
10500263 21.9326 11.4653 34 23.2252 -5.86 3.94391 90.6231
10500273 21.9326 11.4653 34 23.2252 -5.86 3.94391 90.6231
10500286 20.9461 12.2389 32.9369 24.8327 -4.62083 4.05443 90.9545
10500293 20.0193 13.2611 31.4899 26.5278 -3.20935 4.06425 91.2981
10500314 19.0428 14.3662 29.718 28.0573 -1.7375 4.00831 91.1843
10500329 18.0363 15.6463 28.0249 29.4699 -0.259127 3.91745 91.1774
10500334 18.0363 15.6463 28.0249 29.4699 -0.259127 3.91745 91.1774
10500344 17.1196 16.9816 26.2137 30.8143 1.22427 3.77379 91.1292
10500357 17.1196 16.9816 26.2137 30.8143 1.22427 3.77379 91.1292
10500364 16.3482 18.3907 24.4713 31.9347 2.60735 3.56582 91.1449
10500374 15.6964 19.7815 22.7585 33.1037 3.9496 3.34756 91.3401
10500387 15.6964 19.7815 22.7585 33.1037 3.9496 3.34756 91.3401
10500396 14.9653 21.1722 21.2229 34 5.1948 3.13354 91.3604
10500415 14.3839 22.2809 19.7562 34 6.12156 2.8353 90.4211
10500426 13.8114 23.4771 18.3781 34 7.05045 2.52428 89.6666
10500444 13.1684 24.4302 17.128 34 7.92712 2.28726 88.7266
10500446 13.1684 24.4302 17.128 34 7.92712 2.28726 88.7266
10500456 12.5782 25.393 16.0122 34 8.75237 2.05282 87.9835
10500467 12.5782 25.393 16.0122 34 8.75237 2.05282 87.9835
10500476 11.9705 26.3558 14.8685 34 9.60977 1.81356 87.1948
10500493 11.486 27.3673 13.9119 34 10.364 1.56606 86.7652
10500498 11.486 27.3673 13.9119 34 10.364 1.56606 86.7652
10500506 10.9663 28.2134 13.1113 34 11.0486 1.37875 86.291
10500520 10.9663 28.2134 13.1113 34 11.0486 1.37875 86.291
10500526 10.4378 28.9817 12.2795 34 11.7459 1.20071 85.699
10500537 9.96218 29.7889 11.6972 34 12.326 1.04382 85.4483
10500549 9.96218 29.7889 11.6972 34 12.326 1.04382 85.4483
10500557 9.54819 30.4113 11.1254 34 12.8512 0.910714 85.0849
10500574 9.06373 30.8976 10.6471 34 13.3517 0.830727 84.6084
10500577 9.06373 30.8976 10.6471 34 13.3517 0.830727 84.6084
10500587 8.68497 31.2574 10.2 34 13.778 0.758997 84.1424
10500601 8.29741 31.2574 9.95046 34 14.0738 0.78958 83.5053
10500607 8.29741 31.4714 9.95046 34 14.1017 0.749227 83.7193
10500618 8.02435 31.734 9.71132 34 14.376 0.710374 83.4697
10500628 8.02435 31.734 9.71132 34 14.376 0.710374 83.4697
10500638 7.61917 31.8118 9.47217 34 14.692 0.731195 82.9031
10500649 7.35492 31.7243 9.32661 34 14.8784 0.773143 82.4058
10500659 7.35492 31.7243 9.32661 34 14.8784 0.773143 82.4058
10500671 7.09948 31.6659 9.28502 34 15.0156 0.826254 82.0504
10500679 6.83523 31.5006 9.22263 34 15.1556 0.898771 81.5584
10500694 6.83523 31.5006 9.22263 34 15.1556 0.898771 81.5584
10500699 6.63264 31.3158 9.20183 34 15.2437 0.971051 81.1503
10500711 6.63264 31.3158 9.20183 34 15.2437 0.971051 81.1503
10500724 6.41244 31.024 9.26422 34 15.2872 1.08322 80.7007
10500731 6.20984 30.7128 9.3578 34 15.3042 1.20237 80.2805
10500741 6.20984 30.7128 9.3578 34 15.3042 1.20237 80.2805
10500755 5.99845 30.4016 9.40979 34 15.3469 1.31746 79.8098
10500761 5.88394 30.0709 9.55535 34 15.291 1.43387 79.5102
10500771 5.88394 30.0709 9.55535 34 15.291 1.43387 79.5102
10500786 5.85751 29.7695 9.61774 34 15.2358 1.51255 79.2447
10500791 5.63731 29.7695 9.7945 34 15.2579 1.58856 79.2012
10500801 5.63731 29.4582 9.7945 34 15.2194 1.654 78.89
10500812 5.58446 29.2346 9.7737 34 15.2293 1.70907 78.5927
10500838 5.51399 28.9914 9.81529 34 15.2138 1.78303 78.3207
10500841 5.42591 28.6802 9.86728 34 15.1933 1.87779 77.9734
10500850 5.42591 28.6802 9.86728 34 15.1933 1.87779 77.9734
10500863 5.40829 28.4273 9.99205 34 15.1061 1.95748 77.8277
10500870 5.40829 28.4273 9.99205 34 15.1061 1.95748 77.8277
10500880 5.4171 28.1453 10.1168 34 15.0012 2.03808 77.6792
10500891 5.39948 27.9314 10.2 34 14.9398 2.10287 77.5308
10500900 5.39948 27.9314 10.2 34 14.9398 2.10287 77.5308
10500913 5.44352 27.6979 10.356 34 14.8064 2.17062 77.4974
10500920 5.4171 27.4159 10.5223 34 14.6973 2.26668 77.3553
10500933 5.4171 27.4159 10.5223 34 14.6973 2.26668 77.3553
10500940 5.53161 27.1047 10.6471 34 14.5329 2.33119 77.2834
10500962 5.49637 26.7546 10.8758 34 14.3862 2.45535 77.1268
10500972 5.5228 26.3461 11.1566 34 14.1728 2.58765 77.0255
10500982 5.5228 26.3461 11.1566 34 14.1728 2.58765 77.0255
10500992 5.59326 25.9376 11.3957 34 13.9577 2.70351 76.9266
10501006 5.74301 25.5584 11.7596 34 13.6436 2.81432 77.061
10501012 5.74301 25.5584 11.7596 34 13.6436 2.81432 77.061
10501031 5.86632 25.0429 12.3419 34 13.2149 2.99659 77.2511
10501033 5.86632 25.0429 12.3419 34 13.2149 2.99659 77.2511
10501043 5.9544 24.5177 13.0281 34 12.7532 3.20437 77.5003
10501056 6.18342 24.0412 13.9223 34 12.1359 3.39701 78.1469
10501063 6.18342 24.0412 13.9223 34 12.1359 3.39701 78.1469
10501073 6.53575 23.4188 15.0037 34 11.3602 3.61884 78.9582
10501083 6.99378 22.7769 16.3138 34 10.4481 3.84777 80.0844
10501093 6.99378 22.7769 16.3138 34 10.4481 3.84777 80.0844
10501109 7.41658 22.2225 17.5217 34 9.6365 4.0443 81.1608
10501114 7.83938 21.5612 18.8309 34 8.78341 4.27397 82.2315
10501138 7.83938 21.5612 18.8309 34 8.78341 4.27397 82.2315
10501140 8.3943 20.8026 20.2878 34 7.82196 4.50816 83.4847
10501154 8.94922 20.0441 21.7053 34 6.90377 4.73066 84.6985
10501167 9.58342 19.3633 23.4378 34 5.88708 4.94726 86.3844
10501174 9.58342 19.3633 23.4378 34 5.88708 4.94726 86.3844
10501195 10.3497 18.5755 25.0915 34 4.86677 5.14099 88.0167
10501198 11.1337 17.7878 26.9815 34 3.80205 5.34911 89.9029
10501206 11.1337 17.7878 26.9815 34 3.80205 5.34911 89.9029
10501223 11.9969 17.0875 28.9797 33.3862 2.59626 5.45895 91.4504
10501228 11.9969 17.0875 28.9797 33.3862 2.59626 5.45895 91.4504
10501236 12.9218 16.3646 31.1158 31.2625 0.978968 5.41517 91.6646
10501252 13.9347 15.7199 33.2913 29.1289 -0.645423 5.33787 92.0748
10501256 13.9347 15.7199 33.2913 29.1289 -0.645423 5.33787 92.0748
10501266 14.9124 14.974 34 26.8883 -1.94167 5.12287 90.7747
10501277 15.8813 14.2925 34 24.7255 -3.05495 4.81752 88.8994
10501286 15.8813 14.2925 34 24.7255 -3.05495 4.81752 88.8994
10501303 16.9736 13.6847 34 22.592 -4.21113 4.4585 87.2503
10501306 16.9736 13.6847 34 22.592 -4.21113 4.4585 87.2503
10501316 18.1858 13.0033 34 20.4 -5.48626 4.06786 85.5891
10501330 19.5211 12.4047 34 18.4029 -6.73365 3.64237 84.3286
10501346 20.8464 11.8889 34 16.486 -7.95213 3.19941 83.2214
10501358 22.2016 11.2627 34 14.8869 -9.12312 2.80916 82.3513
10501366 22.2016 11.2627 34 14.8869 -9.12312 2.80916 82.3513
10501383 23.6764 10.8023 34 13.4782 -10.1871 2.3792 81.9569
10501386 23.6764 10.8023 34 13.4782 -10.1871 2.3792 81.9569
10501396 25.1114 10.1853 34 12.1551 -11.2861 1.99967 81.4517
10501409 26.3968 9.78927 34 11.0605 -12.1688 1.63841 81.2466
10501416 26.3968 9.78927 34 11.0605 -12.1688 1.63841 81.2466
10501442 27.7022 9.38407 34 10.1848 -12.9608 1.31015 81.2711
10501445 28.8482 9.38407 34 9.41377 -13.4882 0.951948 81.646
10501448 28.8482 8.9052 34 9.41377 -13.7153 1.04606 81.1672
10501457 29.8148 8.53684 34 8.79507 -14.3206 0.821376 81.1467
10501472 29.8148 8.53684 34 8.79507 -14.3206 0.821376 81.1467
10501477 30.5721 8.1961 34 8.30011 -14.8257 0.653508 81.0683
10501487 31.2896 7.9935 34 7.91937 -15.2017 0.486987 81.2024
10501507 31.8675 7.72644 34 7.52912 -15.5973 0.357817 81.1231
10501522 32.2562 7.47779 34 7.3673 -15.8478 0.302095 81.1012
10501538 32.4455 7.25677 34 7.12934 -16.1012 0.264825 80.8316
10501548 32.4455 7.25677 34 7.12934 -16.1012 0.264825 80.8316
10501558 32.9338 7.12784 34 7.04367 -16.2635 0.181628 81.1053
10501572 33.422 6.98971 34 6.95801 -16.4294 0.100701 81.3698
10501578 33.422 6.98971 34 6.95801 -16.4294 0.100701 81.3698
10501588 33.7509 6.90683 34 6.84378 -16.5642 0.0342482 81.5015
10501599 34 6.68581 34 6.75812 -16.7465 0.0133181 81.4439
10501624 34 6.61213 34 6.65342 -16.8381 0.00761926 81.2655
10501629 34 6.61213 34 6.65342 -16.8381 0.00761926 81.2655
10501653 34 6.56609 34 6.57727 -16.9011 0.0020653 81.1434
10501655 34 6.48321 34 6.45353 -17.0081 -0.00550032 80.9367
10501669 34 6.48321 34 6.45353 -17.0081 -0.00550032 80.9367
10501682 34 6.46479 34 6.44401 -17.0226 -0.00385255 80.9088
10501684 34 6.41874 34 6.3869 -17.0763 -0.00591248 80.8056
10501689 34 6.41874 34 6.3869 -17.0763 -0.00591248 80.8056
10501699 34 6.39112 34 6.18701 -17.1951 -0.0379944 80.5781
10501712 34 6.39112 34 6.18701 -17.1951 -0.0379944 80.5781
10501725 34 6.38191 34 6.18701 -17.1999 -0.0362858 80.5689
10501741 34 6.29903 34 6.12038 -17.2784 -0.033322 80.4194
10501742 34 6.29903 34 6.12038 -17.2784 -0.033322 80.4194
10501752 34 6.29903 34 6.10134 -17.2884 -0.0368804 80.4004
10501765 34 6.22535 34 6.10134 -17.3271 -0.0231573 80.3267
10501782 34 6.20693 34 6.12038 -17.3268 -0.016163 80.3273
10501793 34 6.17931 34 6.10134 -17.3514 -0.0145662 80.2806
10501803 34 6.17931 34 6.10134 -17.3514 -0.0145662 80.2806
10501815 34 6.19772 34 6.08231 -17.3518 -0.021565 80.28
10501823 34 6.19772 34 6.08231 -17.3518 -0.021565 80.28
10501840 34 6.14247 34 6.14894 -17.3458 0.00120878 80.2914
10501843 34 6.20693 34 6.16797 -17.3018 -0.00727147 80.3749
10501854 34 6.20693 34 6.16797 -17.3018 -0.00727147 80.3749
10501866 34 6.24377 34 6.21557 -17.2574 -0.00525981 80.4593
10501873 34 6.28982 34 6.27268 -17.2033 -0.00319183 80.5625
10501883 34 6.28982 34 6.27268 -17.2033 -0.00319183 80.5625
10501894 34 6.33586 34 6.31075 -17.1592 -0.00467151 80.6466
10501903 34 6.33586 34 6.31075 -17.1592 -0.00467151 80.6466
10501921 34 6.34507 34 6.50112 -17.0552 0.0289536 80.8462
10501923 34 6.38191 34 6.6439 -16.9619 0.0484997 81.0258
10501933 34 6.38191 34 6.6439 -16.9619 0.0484997 81.0258
10501954 34 6.40953 34 6.76764 -16.8837 0.0661719 81.1772
10501956 34 6.44637 34 7.01512 -16.7375 0.104728 81.4615
10501966 34 6.44637 34 7.01512 -16.7375 0.104728 81.4615
10501984 34 6.50163 34 7.17693 -16.6266 0.124018 81.6786
10501986 34 6.50163 34 7.17693 -16.6266 0.124018 81.6786
10501994 34 6.54767 34 7.40538 -16.4872 0.156988 81.953
10502008 34 6.58451 34 7.63382 -16.3533 0.191438 82.2183
10502014 34 6.58451 34 7.63382 -16.3533 0.191438 82.2183
10502024 34 6.74106 34 7.90034 -16.1416 0.210418 82.6414
10502035 34 6.80553 34 8.243 -15.9399 0.259632 83.0485
10502044 34 6.80553 34 8.243 -15.9399 0.259632 83.0485
10502056 33.7011 6.96208 34 8.74748 -15.583 0.374833 83.4106
10502080 33.1829 7.07259 34 9.31859 -15.1936 0.549772 83.5741
10502085 32.3957 7.31203 34 9.96585 -14.6754 0.763351 83.6735
10502105 31.5785 7.61593 34 11.0034 -13.9431 1.03486 84.1978
10502115 30.5422 8.00271 34 12.2598 -13.0534 1.36458 84.8047
10502135 29.3863 8.59209 34 13.5924 -12.0374 1.68527 85.5708
10502150 29.3863 8.59209 34 13.5924 -12.0374 1.68527 85.5708
10502158 28.0012 9.15385 34 14.9821 -10.9898 2.05958 86.1371
10502166 26.5662 9.76165 34 16.3813 -9.92493 2.43113 86.7092
10502187 25.1213 10.5168 34 17.7209 -8.83813 2.7615 87.359
10502207 23.6964 11.3364 34 19.153 -7.71296 3.08217 88.1858
10502209 23.6964 11.3364 34 19.153 -7.71296 3.08217 88.1858
10502217 22.3312 12.3678 34 20.8287 -6.46021 3.37264 89.5277
10502235 22.3312 12.3678 34 20.8287 -6.46021 3.37264 89.5277
10502237 20.9261 13.6203 33.5767 22.7479 -4.98915 3.59491 90.871
10502247 19.5211 14.8911 31.6178 25.0373 -3.07755 3.6637 91.0673
10502264 19.5211 14.8911 31.6178 25.0373 -3.07755 3.6637 91.0673
10502267 18.1659 16.2172 29.7574 27.3266 -1.19698 3.7228 91.4671
10502292 16.8326 17.4085 27.8969 29.4504 0.58122 3.78425 91.5885
10502294 16.8326 17.4085 27.8969 29.4504 0.58122 3.78425 91.5885
10502298 15.7933 18.488 26.1152 31.5352 2.20673 3.81303 91.9317
10502330 14.7627 19.5189 24.3434 33.5519 3.78747 3.84267 92.1768
10502334 13.7321 20.5595 22.5912 34 5.0164 3.6805 90.8828
10502338 13.7321 20.5595 22.5912 34 5.0164 3.6805 90.8828
10502371 12.728 21.5418 20.9375 34 6.13076 3.47523 89.2072
10502373 11.944 22.5532 19.4609 34 7.14779 3.23398 87.9582
10502375 11.944 22.5532 19.4609 34 7.14779 3.23398 87.9582
10502382 11.2922 23.3993 18.1123 34 8.06265 3.01037 86.8039
10502401 10.6316 23.3993 17.0098 34 8.74812 2.99484 85.0408
10502402 10.6316 24.2551 17.0098 34 8.91004 2.81555 85.8966
10502409 10.0591 25.0526 15.8563 34 9.74994 2.60296 84.968
10502427 10.0591 25.0526 15.8563 34 9.74994 2.60296 84.968
10502429 9.61865 25.8404 14.9621 34 10.4416 2.39923 84.4211
10502439 9.2399 26.5698 14.1095 34 11.0882 2.19851 83.9192
10502452 9.2399 26.5698 14.1095 34 11.0882 2.19851 83.9192
10502459 8.87876 27.2311 13.4648 34 11.6326 2.03799 83.5747
10502469 8.87876 27.2311 13.4648 34 11.6326 2.03799 83.5747
10502481 8.54404 27.8244 12.8306 34 12.1545 1.88623 83.199
10502490 8.23575 28.4079 12.3211 34 12.6111 1.74968 82.9648
10502503 8.23575 28.4079 12.3211 34 12.6111 1.74968 82.9648
10502509 7.96269 28.7969 11.7908 34 13.0355 1.64104 82.5504
10502519 7.68964 29.147 11.3749 34 13.4052 1.55786 82.2116
10502529 7.68964 29.147 11.3749 34 13.4052 1.55786 82.2116
10502540 7.46943 29.361 11.0422 34 13.6949 1.50449 81.8726
10502552 7.46943 29.361 11.0422 34 13.6949 1.50449 81.8726
10502559 7.24041 29.5652 10.7199 34 13.9849 1.45616 81.5255
10502577 6.98497 29.8764 10.5327 34 14.239 1.41374 81.3941
10502579 6.98497 29.8764 10.5327 34 14.239 1.41374 81.3941
10502592 6.87047 30.0418 10.2208 34 14.4671 1.35122 81.133
10502603 6.67668 30.2168 10.1064 34 14.64 1.33573 80.9999
10502628 6.60622 30.3822 10.0336 34 14.7313 1.30433 81.022
10502641 6.45648 30.5183 9.92966 34 14.8732 1.28946 80.9044
10502661 6.39482 30.6447 9.84648 34 14.9604 1.26232 80.886
10502663 6.39482 30.6447 9.84648 34 14.9604 1.26232 80.886
10502671 6.31554 30.7906 9.74251 34 15.0691 1.23125 80.8487
10502696 6.33316 30.9365 9.71132 34 15.0937 1.19318 80.981
10502697 6.33316 30.9365 9.71132 34 15.0937 1.19318 80.981
10502701 6.32435 31.0824 9.70092 34 15.121 1.16404 81.1077
10502711 6.32435 31.0824 9.70092 34 15.121 1.16404 81.1077
10502721 6.2715 31.131 9.68012 34 15.1634 1.16134 81.0826
10502731 6.31554 31.2088 9.66972 34 15.1561 1.13531 81.1941
10502744 6.31554 31.2088 9.66972 34 15.1561 1.13531 81.1941
10502752 6.34197 31.2185 9.63853 34 15.1597 1.1228 81.199
10502771 6.41244 31.2574 9.7529 34 15.0732 1.12064 81.4228
10502784 6.46528 31.2185 9.7633 34 15.0373 1.11965 81.4471
10502798 6.46528 31.2185 9.7633 34 15.0373 1.11965 81.4471
10502803 6.55337 31.1505 9.94006 34 14.8992 1.14575 81.6439
10502813 6.65907 31.1018 10.044 34 14.7909 1.1521 81.8049
10502826 6.65907 31.1018 10.044 34 14.7909 1.1521 81.8049
10502833 6.73834 30.9073 10.252 34 14.6271 1.20998 81.8977
10502853 6.88808 30.7712 10.4391 34 14.4473 1.23874 82.0984
10502854 6.88808 30.7712 10.4391 34 14.4473 1.23874 82.0984
10502863 6.94974 30.5669 10.6263 34 14.3016 1.29828 82.143
10502880 7.04663 30.5669 10.9174 34 14.1168 1.32748 82.531
10502883 7.04663 30.353 10.9174 34 14.0885 1.36992 82.317
10502894 7.21399 30.1487 11.2917 34 13.8054 1.43894 82.6545
10502907 7.21399 30.1487 11.2917 34 13.8054 1.43894 82.6545
10502913 7.34611 29.8181 11.5933 34 13.5573 1.52779 82.7575
10502923 7.49585 29.4971 11.9988 34 13.2551 1.62771 82.9918
10502934 7.49585 29.4971 11.9988 34 13.2551 1.62771 82.9918
10502943 7.68964 29.0498 12.5706 34 12.8404 1.77012 83.3101
10502963 7.76891 28.5441 13.1009 34 12.4902 1.93996 83.4139
10502988 7.93627 27.98 13.9223 34 11.9639 2.14807 83.8386
10502989 7.93627 27.98 13.9223 34 11.9639 2.14807 83.8386
10503002 8.20052 27.4256 14.8269 34 11.3667 2.34463 84.4531
10503013 8.45596 26.7351 15.9706 34 10.6587 2.6032 85.1617
10503014 8.45596 26.7351 15.9706 34 10.6587 2.6032 85.1617
10503026 8.7114 25.9668 17.0689 34 9.96725 2.86727 85.7471
10503039 8.96684 25.1693 18.1911 34 9.27037 3.13717 86.3273
10503044 8.96684 25.1693 18.1911 34 9.27037 3.13717 86.3273
10503054 9.36321 24.4302 19.3822 34 8.51294 3.37057 87.1756
10503076 9.64508 23.6327 20.5437 34 7.81241 3.63224 87.8215
10503086 10.0238 22.738 21.8431 34 7.01741 3.90745 88.6049
10503096 10.0238 22.738 21.8431 34 7.01741 3.90745 88.6049
10503109 10.4554 21.96 23.1523 34 6.23892 4.14271 89.5677
10503116 10.9223 21.2208 24.7273 34 5.38439 4.38826 90.8704
10503138 11.5565 20.3553 26.1743 33.396 4.37804 4.53508 91.482
10503147 11.5565 20.3553 26.1743 33.396 4.37804 4.53508 91.482
10503168 12.2171 19.587 27.8083 31.9249 3.13709 4.57669 91.5373
10503170 12.8953 18.663 29.5605 30.337 1.78888 4.64799 91.4559
10503177 12.8953 18.663 29.5605 30.337 1.78888 4.64799 91.4559
10503199 13.6881 17.778 31.3717 28.5639 0.350678 4.67215 91.4017
10503201 14.6041 16.9355 33.2913 26.7616 -1.14591 4.66957 91.5925
10503208 14.6041 16.9355 33.2913 26.7616 -1.14591 4.66957 91.5925
10503228 15.6435 16.0883 34 24.8716 -2.39605 4.49317 90.6035
10503229 15.6435 16.0883 34 24.8716 -2.39605 4.49317 90.6035
10503237 16.7005 15.2226 34 22.9622 -3.52018 4.2255 88.8853
10503255 18.0064 14.4307 34 21.1794 -4.67846 3.89349 87.6165
10503257 18.0064 14.4307 34 21.1794 -4.67846 3.89349 87.6165
10503267 19.3816 13.6663 34 19.3673 -5.88668 3.52706 86.4152
10503281 20.5873 12.8651 34 17.565 -7.10359 3.19568 85.0175
10503287 20.5873 12.8651 34 17.565 -7.10359 3.19568 85.0175
10503297 21.8828 12.0547 34 15.9625 -8.30321 2.86502 83.9
10503308 21.8828 12.0547 34 15.9625 -8.30321 2.86502 83.9
10503318 23.0387 11.2259 34 14.5538 -9.43603 2.58805 82.8183
10503332 24.1647 10.4892 34 13.3068 -10.4833 2.31567 81.9607
10503338 24.1647 10.4892 34 13.3068 -10.4833 2.31567 81.9607
10503348 25.2509 9.87216 34 12.2217 -11.4196 2.0466 81.3448
10503358 26.1776 9.33803 34 11.3746 -12.1971 1.82821 80.8902
10503368 26.1776 9.33803 34 11.3746 -12.1971 1.82821 80.8902
10503381 27.0047 8.78548 34 10.5845 -12.9502 1.64126 80.3747
10503388 27.0047 8.78548 34 10.5845 -12.9502 1.64126 80.3747
10503398 27.772 8.31582 34 9.88018 -13.6229 1.46166 79.968
10503409 28.4795 7.97508 34 9.38522 -14.128 1.30211 79.8398
10503443 29.187 7.56988 34 8.9664 -14.6289 1.16833 79.7233
10503446 29.745 7.24756 34 8.55711 -15.0662 1.04925 79.5497
10503459 30.2532 6.99892 34 8.32867 -15.3698 0.956864 79.5808
10503477 30.2532 6.99892 34 8.32867 -15.3698 0.956864 79.5808
10503481 30.6917 6.71343 34 8.08119 -15.6936 0.882431 79.4863
10503491 30.9807 6.51083 34 7.89082 -15.9289 0.831293 79.3823
10503511 31.3095 6.24377 34 7.69093 -16.2077 0.78321 79.2442
10503522 31.3792 6.14247 34 7.56719 -16.3328 0.767262 79.0889
10503531 31.3792 6.14247 34 7.56719 -16.3328 0.767262 79.0889
10503541 31.4889 5.88462 34 7.37682 -16.5801 0.76254 78.7503
10503559 31.5287 5.88462 34 7.37682 -16.5843 0.754563 78.7902
10503561 31.5287 5.79252 34 7.27212 -16.6885 0.754048 78.5934
10503571 31.4789 5.62676 34 7.09127 -16.868 0.764533 78.1969
10503586 31.4789 5.62676 34 7.09127 -16.868 0.764533 78.1969
10503591 31.5586 5.62676 34 6.97704 -16.9374 0.727651 78.1624
10503601 31.5785 5.58072 34 6.94849 -16.9795 0.727692 78.1077
10503618 31.5785 5.58072 34 6.94849 -16.9795 0.727692 78.1077
10503627 31.6084 5.59913 34 6.95801 -16.9676 0.71971 78.1656
10503647 31.6084 5.59913 34 6.95801 -16.9676 0.71971 78.1656
10503648 31.6383 5.62676 34 6.95801 -16.9558 0.70815 78.2231
10503652 31.8277 5.5623 34 7.0056 -16.9843 0.691806 78.3956
10503666 31.8277 5.5623 34 7.0056 -16.9843 0.691806 78.3956
10503673 32.027 5.54388 34 7.07223 -16.9789 0.667838 78.6431
10503683 32.2661 5.5623 34 7.12934 -16.963 0.627093 78.9578
10503706 32.4555 5.54388 34 7.17693 -16.9668 0.602 79.1763
10503718 32.6946 5.48862 34 7.2626 -16.9749 0.58141 79.4458
10503724 32.6946 5.48862 34 7.2626 -16.9749 0.58141 79.4458
10503734 32.874 5.47021 34 7.30067 -16.9826 0.556814 79.6449
10503744 32.874 5.47021 34 7.30067 -16.9826 0.556814 79.6449
10503754 33.1331 5.43337 34 7.2626 -17.048 0.506614 79.829
10503771 33.3025 5.34128 34 7.23404 -17.1284 0.486426 79.8778
10503774 33.3025 5.34128 34 7.23404 -17.1284 0.486426 79.8778
10503785 33.3324 5.23077 34 7.1103 -17.2552 0.479552 79.6734
10503799 33.442 5.16631 34 7.09127 -17.3101 0.467316 79.6995
10503804 33.442 5.16631 34 7.09127 -17.3101 0.467316 79.6995
10503814 33.5117 5.12026 34 7.02464 -17.3767 0.450557 79.6566
10503834 33.6313 5.06501 34 6.98656 -17.4378 0.431131 79.6829
10503844 33.6712 5.03738 34 7.0056 -17.4461 0.432245 79.7141
10503864 33.6213 4.96371 34 6.97704 -17.496 0.450969 79.5621
10503880 33.5217 4.87161 34 7.04367 -17.5002 0.500468 79.437
10503896 33.3423 4.92687 34 7.14838 -17.3976 0.543805 79.4176
10503907 33.3423 4.92687 34 7.14838 -17.3976 0.543805 79.4176
10503916 33.0832 4.86241 34 7.31019 -17.3207 0.636776 79.2558
10503933 32.874 4.9545 34 7.38634 -17.2105 0.673714 79.2148
10503936 32.874 4.9545 34 7.38634 -17.2105 0.673714 79.2148
10503946 32.5451 4.99133 34 7.57671 -17.0569 0.766037 79.1132
10503960 32.1465 5.00975 34 7.69093 -16.946 0.862674 78.8472
10503977 31.8376 5.12947 34 8.08119 -16.6439 0.970436 79.0483
10503987 31.8376 5.12947 34 8.08119 -16.6439 0.970436 79.0483
10503998 31.4291 5.23998 34 8.32867 -16.412 1.07464 78.9977
10504013 31.0504 5.44258 34 8.74748 -16.0462 1.18396 79.2405
10504017 31.0504 5.44258 34 8.74748 -16.0462 1.18396 79.2405
10504027 30.612 5.74648 34 9.2234 -15.5947 1.29394 79.5818
10504038 30.1835 5.98592 34 9.86114 -15.0994 1.44165 80.0305
10504048 30.1835 5.98592 34 9.86114 -15.0994 1.44165 80.0305
10504061 29.7948 6.44637 34 10.6607 -14.4273 1.56105 80.9019
10504068 29.2368 6.71343 34 11.4888 -13.8246 1.75688 81.439
10504078 29.2368 6.71343 34 11.4888 -13.8246 1.75688 81.439
10504088 28.6887 7.16468 34 12.4692 -13.075 1.9343 82.3226
10504098 28.6887 7.16468 34 12.4692 -13.075 1.9343 82.3226
10504109 28.0211 7.57909 34 13.5353 -12.3012 2.15343 83.1355
10504118 27.3734 8.08559 34 14.5823 -11.5138 2.3423 84.0413
10504139 26.6559 8.55525 34 15.734 -10.703 2.56451 84.9452
10504158 25.8189 8.99729 34 16.9619 -9.86839 2.82341 85.7781
10504160 25.8189 8.99729 34 16.9619 -9.86839 2.82341 85.7781
10504170 25.1014 9.40249 34 18.208 -9.07917 3.06258 86.7119
10504182 25.1014 9.40249 34 18.208 -9.07917 3.06258 86.7119
10504189 24.2245 9.87216 34 19.533 -8.22193 3.32701 87.6296
10504206 23.3675 10.3234 34 20.965 -7.35401 3.59944 88.656
10504210 23.3675 10.3234 34 20.965 -7.35401 3.59944 88.656
10504220 22.4807 10.8852 34 22.4751 -6.43371 3.85836 89.8409
10504235 21.5539 10.8852 34 24.0728 -5.68876 4.24812 90.5119
10504239 21.5539 11.4101 34 24.0728 -5.5118 4.13714 91.0368
10504251 20.6272 12.1284 32.7695 25.651 -4.28219 4.22232 91.1761
10504264 20.6272 12.1284 32.7695 25.651 -4.28219 4.22232 91.1761
10504273 19.6108 12.8559 31.3521 27.161 -3.00778 4.29432 90.9798
10504292 18.714 13.7124 29.8066 28.7393 -1.6678 4.30674 90.9722
10504301 17.7673 14.6517 28.1824 30.3662 -0.256087 4.30861 90.9676
10504320 16.815 15.5634 26.4893 31.9931 1.16997 4.30945 90.8608
10504333 16.1544 16.2264 25.0915 33.2986 2.28022 4.29806 90.7709
10504348 16.1544 16.2264 25.0915 33.2986 2.28022 4.29806 90.7709
10504354 15.5731 16.8987 23.7134 34 3.21901 4.1983 90.1851
10504362 15.0798 17.603 22.4928 34 3.93337 4.00502 89.1755
10504375 15.0798 17.603 22.4928 34 3.93337 4.00502 89.1755
10504382 14.5689 18.4783 21.2918 34 4.70277 3.77715 88.339
10504392 14.1021 19.1979 20.1598 34 5.41278 3.57761 87.4598
10504402 14.1021 19.1979 20.1598 34 5.41278 3.57761 87.4598
10504412 13.6 20.0246 18.9884 34 6.18734 3.35351 86.613
10504430 13.6 20.0246 18.9884 34 6.18734 3.35351 86.613
10504432 12.957 20.7248 17.7776 34 7.018 3.17621 85.4595
10504442 12.4197 21.3764 16.6985 34 7.76922 3.00061 84.4946
10504458 12.4197 21.3764 16.6985 34 7.76922 3.00061 84.4946
10504462 11.8648 22.0475 15.7523 34 8.49536 2.83992 83.6645
10504472 11.2922 22.5824 14.8685 34 9.1916 2.71815 82.7431
10504484 11.2922 22.5824 14.8685 34 9.1916 2.71815 82.7431
10504492 10.7637 23.127 14.0263 34 9.86882 2.58839 81.917
10504510 10.7637 23.127 14.0263 34 9.86882 2.58839 81.917
10504512 10.2528 23.6424 13.2777 34 10.5059 2.47294 81.173
10504522 9.72435 24.2162 12.6018 34 11.1401 2.35799 80.5424
10504538 9.72435 24.2162 12.6018 34 11.1401 2.35799 80.5424
10504543 9.26632 24.7706 12.0508 34 11.6914 2.25013 80.0877
10504564 8.80829 25.286 11.5205 34 12.233 2.15277 79.6148
10504565 8.80829 25.286 11.5205 34 12.233 2.15277 79.6148
10504573 8.36788 25.9182 11.0942 34 12.7412 2.04234 79.3803
10504591 8.36788 25.9182 11.0942 34 12.7412 2.04234 79.3803
10504593 7.99793 26.5601 10.7199 34 13.1948 1.92271 79.2779
10504603 7.77772 27.1241 10.4495 34 13.5148 1.80482 79.3514
10504623 7.59275 27.7757 10.2208 34 13.8091 1.66837 79.5893
10504633 7.42539 28.3787 10.1064 34 14.0303 1.55843 79.9105
10504654 7.29326 28.9331 9.97125 34 14.2363 1.44859 80.1976
10504671 7.29326 28.9331 9.97125 34 14.2363 1.44859 80.1976
10504674 7.16995 29.4388 9.7945 34 14.4504 1.34057 80.4032
10504687 7.00259 29.8764 9.71132 34 14.6303 1.27167 80.5903
10504696 7.00259 29.8764 9.71132 34 14.6303 1.27167 80.5903
10504706 6.9057 30.3335 9.54495 34 14.8181 1.17085 80.7842
10504721 6.79119 30.7712 9.3682 34 15.0165 1.07608 80.9306
10504726 6.79119 30.7712 9.3682 34 15.0165 1.07608 80.9306
10504746 6.75596 31.2283 9.18104 34 15.1824 0.960413 81.1653
10504747 6.75596 31.2283 9.01468 34 15.2649 0.931579 80.9989
10504756 6.70311 31.5978 9.01468 34 15.3353 0.869527 81.3156
10504778 6.6943 32.0938 8.82752 34 15.4909 0.742394 81.6156
10504780 6.6943 32.0938 8.82752 34 15.4909 0.742394 81.6156
10504786 6.72073 32.5995 8.70275 34 15.5981 0.618573 82.023
10504809 6.74715 33.0177 8.56758 34 15.6995 0.510617 82.3325
10504811 6.74715 33.0177 8.56758 34 15.6995 0.510617 82.3325
10504816 6.79119 33.5137 8.46361 34 15.7847 0.391216 82.7685
10504826 6.79119 33.5137 8.46361 34 15.7847 0.391216 82.7685
10504837 6.81762 33.9805 8.34924 34 15.8795 0.279817 83.1474
10504846 6.82643 34 8.26606 34 15.9183 0.259885 83.0925
10504862 6.82643 34 8.26606 34 15.9183 0.259885 83.0925
10504868 6.89689 34 8.18287 34 15.9245 0.232185 83.0798
10504876 6.99378 34 8.21407 34 15.8615 0.219982 83.2078
10504887 6.99378 34 8.21407 34 15.8615 0.219982 83.2078
10504897 7.06425 34 8.16208 34 15.8525 0.197863 83.2263
10504913 7.06425 34 8.16208 34 15.8525 0.197863 83.2263
10504924 7.16114 34 8.16208 34 15.805 0.180191 83.3232
10504927 7.26684 34 8.19327 34 15.738 0.166504 83.4601
10504949 7.26684 34 8.19327 34 15.738 0.166504 83.4601
10504951 7.37254 34 8.25566 34 15.6561 0.158401 83.6282
10504962 7.47824 34 8.38043 34 15.5444 0.161378 83.8587
10504969 7.47824 34 8.38043 34 15.5444 0.161378 83.8587
10504978 7.6544 34 8.54679 34 15.3795 0.158975 84.2012
10504988 7.6544 34 8.54679 34 15.3795 0.158975 84.2012
10504998 7.8658 34 8.76514 34 15.1744 0.159398 84.6309
10505012 8.10363 34 8.98349 34 14.959 0.15511 85.0871
10505018 8.10363 34 8.98349 34 14.959 0.15511 85.0871
10505028 8.27979 34 9.18104 34 14.7843 0.158186 85.4608
10505038 8.50881 34 9.50336 34 14.5293 0.173444 86.0122
10505060 8.79067 34 9.86728 34 14.2347 0.186355 86.658
10505071 8.79067 34 10.2208 34 14.0753 0.24654 87.0115
10505087 9.14301 33.8347 10.2208 34 13.8967 0.213844 87.1985
10505090 9.44249 33.5137 10.6575 34 13.5292 0.29127 87.6137
10505100 9.44249 33.5137 10.6575 34 13.5292 0.29127 87.6137
10505122 9.97098 32.5023 11.3541 34 12.8596 0.492019 87.8274
10505129 9.97098 32.5023 11.3541 34 12.8596 0.492019 87.8274
10505149 10.2617 31.9674 11.8116 34 12.4642 0.610383 88.0407
10505150 10.5171 31.3061 12.4043 34 12.0101 0.778858 88.2274
10505166 10.5171 31.3061 12.4043 34 12.0101 0.778858 88.2274
10505173 10.8606 30.7614 13.0489 34 11.5178 0.918034 88.671
10505198 11.1689 30.1098 13.8703 34 10.9565 1.10908 89.1491
10505202 11.5565 29.4291 14.7229 34 10.3529 1.29376 89.7085
10505212 11.5565 29.4291 14.7229 34 10.3529 1.29376 89.7085
10505230 12.085 28.6705 15.8043 34 9.60173 1.49882 90.5597
10505232 12.5254 27.8924 16.9688 34 8.86296 1.73181 91.3866
10505242 12.5254 27.8924 16.9688 34 8.86296 1.73181 91.3866
10505258 13.1067 27.1047 18.0533 33.7954 8.07627 1.89614 92.0601
10505272 13.5295 26.1905 19.2542 32.8115 7.14116 2.01757 91.7857
10505284 14.0492 25.3152 20.5437 31.9152 6.16332 2.13907 91.8233
10505292 14.0492 25.3152 20.5437 31.9152 6.16332 2.13907 91.8233
10505302 14.5425 24.3913 21.8135 30.8338 5.15091 2.24613 91.5812
10505313 15.0269 23.3896 23.2606 29.6648 4.04164 2.38261 91.3419
10505322 15.0269 23.3896 23.2606 29.6648 4.04164 2.38261 91.3419
10505340 15.6523 22.3198 24.8848 28.486 2.81047 2.5287 91.3429
10505353 16.2777 21.2986 26.6468 27.0928 1.49672 2.65506 91.316
10505367 16.9912 20.0732 28.5958 25.612 0.0269085 2.81741 91.2723
10505373 16.9912 20.0732 28.5958 25.612 0.0269085 2.81741 91.2723
10505384 17.7872 18.8867 30.4957 24.0046 -1.47837 2.93279 91.1742
10505395 18.7339 17.71 32.3167 22.4653 -2.98033 3.0153 91.2259
10505404 18.7339 17.71 32.3167 22.4653 -2.98033 3.0153 91.2259
10505422 19.6108 16.5948 34 20.7897 -4.45801 3.06347 90.9953
10505424 20.5674 15.4345 34 19.2602 -5.56586 2.90017 89.262
10505449 21.6137 14.403 34 17.8573 -6.64399 2.70396 87.8741
10505466 22.7896 13.5098 34 16.3147 -7.78314 2.42721 86.614
10505475 24.085 12.5796 34 14.8964 -8.9436 2.1444 85.561
10505487 24.085 12.5796 34 14.8964 -8.9436 2.1444 85.561
10505500 25.3406 11.7416 34 13.5448 -10.0601 1.85448 84.627
10505507 26.4467 10.9036 34 12.3359 -11.1151 1.61061 83.6862
10505527 27.6026 10.2313 34 11.2604 -12.0679 1.34061 83.0943
10505538 28.4795 9.49458 34 10.2324 -13.0016 1.14193 82.2064
10505552 28.4795 9.49458 34 10.2324 -13.0016 1.14193 82.2064
10505561 29.466 8.92362 34 9.36618 -13.8144 0.913067 81.7558
10505580 29.466 8.92362 34 9.36618 -13.8144 0.913067 81.7558
10505581 30.303 8.41712 34 8.62374 -14.5254 0.719828 81.3439
10505588 31.0504 8.02113 34 8.14782 -15.0461 0.568142 81.2194
10505598 31.0504 8.02113 34 8.14782 -15.0461 0.568142 81.2194
10505609 31.5785 7.61593 34 7.64334 -15.5618 0.454402 80.8378
10505618 31.9871 7.29361 34 7.41489 -15.8864 0.396709 80.6956
10505632 31.9871 7.29361 34 7.41489 -15.8864 0.396709 80.6956
10505638 32.4555 7.02654 34 7.15789 -16.2051 0.311737 80.6399
10505648 32.4555 7.02654 34 7.15789 -16.2051 0.311737 80.6399
10505658 32.8341 6.81473 34 6.91041 -16.4813 0.234901 80.5593
10505668 33.1928 6.68581 34 6.75812 -16.6639 0.163597 80.6368
10505682 33.1928 6.68581 34 6.75812 -16.6639 0.163597 80.6368
10505688 33.5416 6.62134 34 6.5963 -16.8166 0.0804877 80.7593
10505698 33.5416 6.62134 34 6.5963 -16.8166 0.0804877 80.7593
10505714 33.8007 6.55688 34 6.46305 -16.9452 0.019573 80.8206
10505718 34 6.48321 34 6.43449 -17.018 -0.00903189 80.9177
10505744 34 6.50163 34 6.3869 -17.0332 -0.0212744 80.8885
10505749 34 6.54767 34 6.29171 -17.0587 -0.0474921 80.8394
10505759 34 6.54767 34 6.29171 -17.0587 -0.0474921 80.8394
10505771 34 6.54767 34 6.27268 -17.0686 -0.051038 80.8203
10505779 34 6.54767 34 6.27268 -17.0686 -0.051038 80.8203
10505798 34 6.50163 34 6.2346 -17.1124 -0.0496101 80.7362
10505799 34 6.52004 34 6.2346 -17.1028 -0.0530192 80.7546
10505809 34 6.52004 34 6.2346 -17.1028 -0.0530192 80.7546
10505826 34 6.52925 34 6.11086 -17.1626 -0.0778252 80.6401
10505829 34 6.54767 34 6.11086 -17.153 -0.0812325 80.6585
10505839 34 6.54767 34 6.11086 -17.153 -0.0812325 80.6585
10505852 34 6.62134 34 5.99664 -17.1742 -0.116235 80.618
10505859 34 6.62134 34 5.99664 -17.1742 -0.116235 80.618
10505870 34 6.61213 34 6.0252 -17.1641 -0.109181 80.6373
10505880 34 6.64897 34 5.95857 -17.1797 -0.128476 80.6075
10505889 34 6.64897 34 5.95857 -17.1797 -0.128476 80.6075
10505916 34 6.70423 34 5.93953 -17.1607 -0.142236 80.6438
10505918 34 6.73185 34 5.93001 -17.1513 -0.149112 80.6619
10505921 34 6.73185 34 5.93001 -17.1513 -0.149112 80.6619
10505931 34 6.86999 34 5.9776 -17.0544 -0.165567 80.8476
10505958 34 6.91603 34 5.9776 -17.0305 -0.174011 80.8936
10505961 34 6.98971 34 6.04423 -16.9577 -0.175016 81.0339
10505993 34 7.0818 34 6.03471 -16.915 -0.193627 81.1165
10505996 34 7.14626 34 6.12038 -16.8376 -0.189356 81.2666
10506000 34 7.14626 34 6.12038 -16.8376 -0.189356 81.2666
10506018 34 7.20152 34 6.1299 -16.8043 -0.197639 81.3314
10506021 34 7.20152 34 6.1299 -16.8043 -0.197639 81.3314
10506031 34 7.33044 34 6.21557 -16.6943 -0.205077 81.546
10506043 34 7.47779 34 6.24412 -16.6045 -0.226438 81.7219
10506070 34 7.61593 34 6.37738 -16.4668 -0.226581 81.9933
10506072 34 7.68039 34 6.52968 -16.3575 -0.20996 82.2101
10506095 34 7.82774 34 6.62486 -16.2358 -0.218832 82.4526
10506112 34 7.96587 34 6.72956 -16.1147 -0.224251 82.6954
10506122 34 8.07638 34 6.98656 -15.9328 -0.196808 83.063
10506146 34 8.17768 34 7.09127 -15.8315 -0.195705 83.2689
10506152 34 8.3987 34 7.35778 -15.5939 -0.186417 83.7565
10506181 34 8.3987 34 7.35778 -15.5939 -0.186417 83.7565
10506184 34 8.48158 34 7.67189 -15.4024 -0.144323 84.1535
10506185 34 8.54605 34 8.02408 -15.2033 -0.09258 84.5701
10506219 34 8.54605 34 8.02408 -15.2033 -0.09258 84.5701
10506220 34 8.74865 34 8.5 -14.8833 -0.0437504 85.2486
10506224 34 8.95125 34 9.08063 -14.5202 0.0225574 86.0319
10506234 34 9.15385 34 9.75644 -14.1208 0.104002 86.9103
10506254 34 9.38407 34 10.5655 -13.6585 0.201496 87.9496
10506274 33.99 9.72481 34 11.5078 -13.1013 0.301436 89.2227
10506286 33.2327 10.0655 34 12.5358 -12.4205 0.540594 89.8341
10506303 33.2327 10.0655 34 12.5358 -12.4205 0.540594 89.8341
10506306 32.4555 10.2866 34 13.5733 -11.7908 0.80241 90.3154
10506315 31.6981 10.4984 34 14.4966 -11.22 1.042 90.6931
10506336 30.8013 10.8023 34 15.5817 -10.5327 1.31241 91.1853
10506346 29.9343 11.097 34 16.6764 -9.85768 1.57758 91.7077
10506367 29.9343 11.097 34 16.6764 -9.85768 1.57758 91.7077
10506369 28.9977 11.5022 33.4684 17.7501 -9.0532 1.75299 91.7184
10506376 28.9977 11.5022 33.4684 17.7501 -9.0532 1.75299 91.7184
10506398 27.9215 11.8245 32.6908 19.0458 -8.12776 1.96606 91.4826
10506400 26.8353 12.331 31.8935 20.5364 -7.05853 2.17207 91.5961
10506406 26.8353 12.331 31.8935 20.5364 -7.05853 2.17207 91.5961
10506427 25.6893 12.8375 30.8599 22.2218 -5.86462 2.38321 91.6085
10506429 24.4537 13.4085 29.6983 23.9266 -4.59543 2.58444 91.4871
10506457 23.2181 14.1636 28.4777 25.6705 -3.23984 2.74772 91.5298
10506458 23.2181 14.1636 28.4777 25.6705 -3.23984 2.74772 91.5298
10506467 21.9226 14.8451 27.0602 27.4241 -1.83933 2.91225 91.252
10506487 20.677 15.6923 25.6723 29.1582 -0.410861 3.03637 91.1998
10506488 20.677 15.6923 25.6723 29.1582 -0.410861 3.03637 91.1998
10506497 19.3318 16.5672 24.1662 30.941 1.10163 3.16598 91.0061
10506517 18.126 17.5933 22.6995 32.6069 2.57472 3.22773 91.0256
10506518 18.126 17.5933 22.6995 32.6069 2.57472 3.22773 91.0256
10506527 16.9912 18.6436 21.2328 34 3.96721 3.23515 90.8676
10506547 16.0047 19.5967 19.8743 34 4.95041 3.06335 89.4757
10506557 15.115 20.4914 18.6242 34 5.88009 2.89317 88.2307
10506570 15.115 20.4914 18.6242 34 5.88009 2.89317 88.2307
10506577 14.3047 21.25 17.5119 34 6.72861 2.74914 87.0665
10506588 13.5031 22.0669 16.5009 34 7.57018 2.60208 86.071
10506598 13.5031 22.0669 16.5009 34 7.57018 2.60208 86.071
10506608 12.7544 22.8741 15.5235 34 8.39562 2.44768 85.1521
10506623 12.7544 22.8741 15.5235 34 8.39562 2.44768 85.1521
10506628 12.0409 23.4966 14.6398 34 9.15208 2.33476 84.1773
10506639 11.4067 24.119 13.9743 34 9.80177 2.23627 83.5
10506650 11.4067 24.119 13.9743 34 9.80177 2.23627 83.5
10506659 10.8254 24.5275 13.3713 34 10.3751 2.17924 82.7241
10506676 10.2881 24.9651 12.841 34 10.9131 2.11729 82.0942
10506680 10.2881 24.9651 12.841 34 10.9131 2.11729 82.0942
10506689 9.76839 25.2958 12.4771 34 11.3594 2.09947 81.5412
10506706 9.76839 25.2958 12.0612 34 11.5458 2.03334 81.1253
10506709 9.33679 25.6362 12.0612 34 11.7969 2.05251 81.0341
10506719 8.94041 26.0738 11.8636 34 12.1386 2.01218 80.8778
10506740 8.69378 26.4628 11.5829 34 12.4432 1.93702 80.7395
10506749 8.44715 26.9199 11.3437 34 12.7396 1.85415 80.7108
10506769 8.27979 27.163 11.1462 34 12.9475 1.80608 80.589
10506793 8.13886 27.5812 10.9694 34 13.1594 1.71943 80.6895
10506801 8.02435 28.0189 10.9174 34 13.3019 1.64417 80.9607
10506821 8.02435 28.0189 10.9174 34 13.3019 1.64417 80.9607
10506826 7.82176 28.4857 10.7615 34 13.5386 1.56423 81.0689
10506834 7.70725 28.8261 10.8239 34 13.6113 1.52854 81.3572
10506852 7.70725 28.8261 10.8239 34 13.6113 1.52854 81.3572
10506853 7.5399 29.0595 10.6783 34 13.7926 1.49098 81.2777
10506861 7.30207 29.2054 10.5223 34 14.0013 1.48369 81.0298
10506880 7.30207 29.2054 10.5223 34 14.0013 1.48369 81.0298
10506882 7.09067 29.2248 10.4183 34 14.1563 1.50548 80.7338
10506909 6.9057 29.3026 10.304 34 14.3124 1.50827 80.5123
10506912 6.71192 29.3707 10.2208 34 14.457 1.52014 80.3034
10506936 6.59741 29.361 10.1272 34 14.5583 1.53002 80.0856
10506943 6.45648 29.5263 10.0544 34 14.6855 1.51273 80.0372
10506966 6.2715 29.6333 9.90887 34 14.8637 1.50427 79.8137
10506974 6.2715 29.6333 9.90887 34 14.8637 1.50427 79.8137
10507002 6.18342 29.8375 9.82569 34 14.9751 1.4662 79.8466
10507003 6.08653 30.139 9.7633 34 15.0925 1.41353 79.9888
10507013 5.9544 30.4113 9.62813 34 15.2602 1.36181 79.9939
10507029 5.92798 30.6836 9.54495 34 15.3483 1.29746 80.1566
10507044 5.86632 31.0338 9.45138 34 15.4683 1.223 80.3514
10507056 5.86632 31.0338 9.45138 34 15.4683 1.223 80.3514
10507064 5.80466 31.3255 9.3474 34 15.5862 1.15881 80.4776
10507083 5.70777 31.6076 9.26422 34 15.7098 1.1074 80.5795
10507086 5.70777 31.6076 9.26422 34 15.7098 1.1074 80.5795
10507096 5.67254 31.8799 9.17064 34 15.8061 1.04398 80.723
10507115 5.56684 32.123 9.18104 34 15.8818 1.01851 80.8709
10507116 5.56684 32.123 9.18104 34 15.8818 1.01851 80.8709
10507126 5.53161 32.5023 9.05627 34 16.0052 0.929035 81.0902
10507148 5.50518 32.7941 8.9419 34 16.1085 0.8572 81.2411
10507149 5.50518 32.7941 8.9419 34 16.1085 0.8572 81.2411
10507155 5.54041 33.1442 8.9107 34 16.1446 0.776907 81.5953
10507175 5.54041 33.1442 8.9107 34 16.1446 0.776907 81.5953
10507176 5.49637 33.3776 8.74434 34 16.276 0.711311 81.6183
10507201 5.54041 33.6304 8.73394 34 16.286 0.652544 81.9048
10507206 5.54922 33.9319 8.61957 34 16.3711 0.573397 82.1007
10507217 5.61088 34 8.59878 34 16.3577 0.545173 82.2097
10507227 5.61088 34 8.59878 34 16.3577 0.545173 82.2097
10507237 5.69896 34 8.68196 34 16.2717 0.543147 82.3809
10507252 5.69896 34 8.68196 34 16.2717 0.543147 82.3809
10507258 5.75181 34 8.70275 34 16.2348 0.536832 82.4546
10507268 5.91036 34 8.80673 34 16.104 0.52523 82.7171
10507278 5.91036 34 8.80673 34 16.104 0.52523 82.7171
10507289 5.98964 34 9.07706 34 15.931 0.55752 83.0667
10507303 6.20104 34 9.19144 34 15.7711 0.53789 83.3925
10507308 6.20104 34 9.19144 34 15.7711 0.53789 83.3925
10507318 6.35959 33.9319 9.57615 34 15.4995 0.58747 83.8677
10507338 6.50052 33.6693 9.98165 34 15.2068 0.679454 84.1515
10507359 6.81762 33.3095 10.5223 34 14.7578 0.778838 84.6494
10507369 7.13472 32.7746 11.1878 34 14.2344 0.93043 85.0971
10507395 7.66321 32.1522 12.2379 34 13.4367 1.11952 86.0533
10507398 7.66321 32.1522 12.2379 34 13.4367 1.11952 86.0533
10507399 8.24456 31.4422 13.4232 34 12.563 1.33219 87.11
10507409 8.24456 31.4422 13.4232 34 12.563 1.33219 87.11
10507431 8.88756 30.4794 14.7333 34 11.5943 1.59472 88.1003
10507432 9.6715 29.4582 16.2202 34 10.5111 1.86186 89.3499
10507439 9.6715 29.4582 16.2202 34 10.5111 1.86186 89.3499
10507457 10.4202 28.4371 17.5316 34 9.53805 2.10329 90.3888
10507459 11.2834 27.2311 18.8506 34 8.50901 2.35364 91.3652
10507486 12.1907 25.9376 20.3173 33.7564 7.37134 2.5941 92.2021
10507499 13.2389 24.5664 21.8332 32.2464 5.9152 2.65677 91.8849
10507511 14.3487 23.3118 23.4181 30.6779 4.42011 2.68682 91.7565
10507519 14.3487 23.3118 23.4181 30.6779 4.42011 2.68682 91.7565
10507539 15.3969 21.9989 24.8946 29.051 2.94454 2.7178 91.3414
10507540 16.4451 20.861 26.5385 27.3364 1.42952 2.72571 91.181
10507550 16.4451 20.861 26.5385 27.3364 1.42952 2.72571 91.181
10507568 17.5481 19.7037 28.3399 25.6997 -0.132704 2.7584 91.2913
10507569 17.5481 19.7037 28.3399 25.6997 -0.132704 2.7584 91.2913
10507579 18.8335 18.5463 30.1314 23.839 -1.80067 2.72422 91.3503
10507596 20.1489 17.5349 31.5883 22.0756 -3.31881 2.62407 91.3477
10507601 20.1489 17.5349 31.5883 22.0756 -3.31881 2.62407 91.3477
10507612 21.3347 16.6316 32.8877 20.5266 -4.66841 2.53576 91.3807
10507625 22.4707 15.7568 34 19.0946 -5.91844 2.44198 91.322
10507631 22.4707 15.7568 34 19.0946 -5.91844 2.44198 91.322
10507641 23.4971 15.0845 34 17.7014 -6.84268 2.17979 90.283
10507654 23.4971 15.0845 34 17.7014 -6.84268 2.17979 90.283
10507661 24.4537 14.3754 34 16.5717 -7.69194 1.97021 89.4008
10507681 25.3007 13.8505 34 15.4104 -8.47992 1.73764 88.5616
10507692 26.1577 13.344 34 14.411 -9.21446 1.52014 87.9126
10507711 26.8951 12.7914 34 13.5638 -9.89675 1.35426 87.2503
10507713 26.8951 12.7914 34 13.5638 -9.89675 1.35426 87.2503
10507722 27.5727 12.2757 34 12.7928 -10.5331 1.20227 86.6413
10507744 27.5727 12.2757 34 12.7928 -10.5331 1.20227 86.6413
10507746 28.1805 11.8153 34 12.0885 -11.1161 1.06163 86.0843
10507752 28.7286 11.4193 34 11.5078 -11.6167 0.938632 85.6557
10507778 29.1671 11.1154 34 11.0414 -12.0161 0.836635 85.3239
10507783 29.5059 10.7746 34 10.6988 -12.3655 0.779883 84.9793
10507810 29.755 10.526 34 10.3085 -12.6849 0.71419 84.5895
10507812 29.755 10.526 34 10.3085 -12.6849 0.71419 84.5895
10507822 30.0141 10.2405 34 10.0515 -12.9653 0.675559 84.3061
10507844 30.2831 10.1945 34 9.82307 -13.1273 0.595275 84.3007
10507846 30.2831 10.1945 34 9.82307 -13.1273 0.595275 84.3007
10507852 30.4824 10.084 34 9.54703 -13.3306 0.531542 84.1134
10507877 30.602 9.94583 34 9.47088 -13.445 0.52186 84.0187
10507883 30.7116 9.9182 34 9.34714 -13.5294 0.485373 83.977
10507907 30.7116 9.9182 34 9.34714 -13.5294 0.485373 83.977
10507908 30.7216 9.89978 34 9.35666 -13.5348 0.488577 83.978
10507913 30.7515 9.87216 34 9.31859 -13.5691 0.481576 83.9422
10507923 30.7515 9.87216 34 9.31859 -13.5691 0.481576 83.9422
10507933 30.7415 9.85374 34 9.28051 -13.5937 0.480223 83.8758
10507943 30.6518 9.89057 34 9.36618 -13.5252 0.504797 83.9086
10507965 30.6518 9.89057 34 9.36618 -13.5252 0.504797 83.9086
10507966 30.5123 9.88136 34 9.48992 -13.4535 0.553669 83.8836
10508004 30.2333 9.90899 34 9.60414 -13.3499 0.620061 83.7464
10508006 29.9543 9.94583 34 9.71836 -13.2417 0.684943 83.6185
10508014 29.6553 10.0379 34 9.94681 -13.0531 0.762833 83.6401
10508037 29.3365 10.1208 34 10.2228 -12.8444 0.85425 83.6801
10508044 28.9678 10.1668 34 10.5465 -12.6237 0.970087 83.6811
10508055 28.9678 10.1668 34 10.5465 -12.6237 0.970087 83.6811
10508065 28.4297 10.2774 34 10.9367 -12.3188 1.11719 83.6437
10508074 28.1008 10.4247 34 11.2794 -12.0508 1.20886 83.8049
10508091 28.1008 10.4247 34 11.2794 -12.0508 1.20886 83.8049
10508094 27.5926 10.5076 34 11.5935 -11.7964 1.34299 83.6937
10508104 27.2737 10.5444 34 12.0694 -11.5213 1.47542 83.8876
10508132 27.0246 10.6273 34 12.3931 -11.3047 1.56008 84.045
10508134 27.0246 10.6273 34 12.3931 -11.3047 1.56008 84.045
10508146 26.7456 10.747 34 12.7548 -11.0519 1.6491 84.2474
10508155 26.5463 10.7839 34 13.1355 -10.8408 1.7413 84.4657
10508175 26.5463 10.7839 34 13.1355 -10.8408 1.7413 84.4657
10508176 26.4865 10.9036 34 13.6209 -10.5757 1.80521 85.011
10508184 26.3869 10.9312 34 13.9351 -10.4162 1.86802 85.2531
10508210 26.3869 10.9312 34 13.9351 -10.4162 1.86802 85.2531
10508212 26.4068 10.9128 34 14.2587 -10.2933 1.91738 85.5783
10508216 26.4068 10.9128 34 14.2587 -10.2933 1.91738 85.5783
10508226 26.2972 10.7839 34 14.6299 -10.1747 2.02113 85.7109
10508246 26.2573 10.7746 34 15.1629 -9.95411 2.11108 86.1949
10508247 26.2573 10.7746 34 15.1629 -9.95411 2.11108 86.1949
10508256 26.0481 10.747 34 15.8197 -9.66386 2.25561 86.6148
10508273 25.8787 10.8299 34 16.6097 -9.28757 2.38802 87.3183
10508276 25.8787 10.8299 34 16.6097 -9.28757 2.38802 87.3183
10508286 25.4203 11.0509 34 17.6819 -8.70287 2.58824 88.1531
10508306 25.4203 11.0509 34 17.6819 -8.70287 2.58824 88.1531
10508308 24.9121 11.3456 34 18.7341 -8.09973 2.77718 88.9918
10508317 24.3939 11.8061 34 19.8739 -7.41444 2.94324 90.0739
10508345 24.3939 11.8061 34 19.8739 -7.41444 2.94324 90.0739
10508347 23.6266 12.4139 33.8819 21.3255 -6.51224 3.1508 91.2479
10508349 22.7397 13.123 32.3167 22.9135 -5.21995 3.18919 91.0929
10508357 22.7397 13.123 32.3167 22.9135 -5.21995 3.18919 91.0929
10508380 21.7831 14.0531 30.6433 24.8619 -3.69806 3.23002 91.3414
10508381 21.7831 14.0531 30.6433 24.8619 -3.69806 3.23002 91.3414
10508387 20.6571 15.1121 28.7336 27.0149 -1.98423 3.27466 91.5178
10508406 19.4613 16.2356 26.7551 29.1387 -0.229841 3.30767 91.5907
10508407 19.4613 16.2356 26.7551 29.1387 -0.229841 3.30767 91.5907
10508418 18.2954 17.4765 24.7765 31.2917 1.55061 3.31493 91.8401
10508433 16.9207 18.6533 22.7782 33.2986 3.34229 3.35558 91.6508
10508437 16.9207 18.6533 22.7782 33.2986 3.34229 3.35558 91.6508
10508447 15.6788 19.8982 20.8587 34 4.79919 3.19815 90.4356
10508468 14.4808 21.2305 19.0081 34 6.1265 2.9244 88.7195
10508478 13.2741 22.5046 17.315 34 7.43897 2.6758 87.0937
10508498 12.1554 23.837 15.7211 34 8.73853 2.40254 85.7135
10508515 11.1865 25.004 14.3798 34 9.88457 2.16198 84.5704
10508518 11.1865 25.004 14.3798 34 9.88457 2.16198 84.5704
10508531 10.3585 26.0252 13.2985 34 10.865 1.95646 83.6822
10508548 9.63627 26.9394 12.4355 34 11.7055 1.78166 83.0111
10508568 9.06373 27.9022 11.6972 34 12.4424 1.58438 82.6631
10508569 9.06373 27.9022 11.6972 34 12.4424 1.58438 82.6631
10508578 8.40311 28.7969 11.0422 34 13.178 1.43032 82.2422
10508597 7.83057 29.6625 10.5223 34 13.8113 1.2856 82.0154
10508598 7.83057 29.6625 10.5223 34 13.8113 1.2856 82.0154
10508608 7.39016 30.4211 9.97125 34 14.3856 1.12984 81.7825
10508628 7.39016 30.4211 9.97125 34 14.3856 1.12984 81.7825
10508631 6.98497 31.2963 9.53456 34 14.9044 0.963122 81.8159
10508639 6.65026 32.1327 9.18104 34 15.3425 0.804875 81.964
10508659 6.65026 32.1327 9.18104 34 15.3425 0.804875 81.964
10508660 6.36839 32.8427 8.90031 34 15.7024 0.673946 82.1114
10508687 6.07772 33.2803 8.59878 34 16.0462 0.593129 81.9568
10508689 5.86632 33.786 8.4844 34 16.2641 0.517194 82.1368
10508699 5.86632 33.786 8.4844 34 16.2641 0.517194 82.1368
10508722 5.64611 34 8.28685 34 16.4973 0.483456 81.933
10508724 5.4171 34 8.0893 34 16.7145 0.491776 81.5064
10508730 5.4171 34 8.0893 34 16.7145 0.491776 81.5064
10508739 5.24974 34 8.01651 34 16.8378 0.510687 81.2663
10508756 5.24974 34 8.01651 34 16.8378 0.510687 81.2663
10508766 5.16166 34 7.94373 34 16.9208 0.514528 81.1054
10508770 5.09119 34 7.82936 34 17.0165 0.507565 80.9205
10508785 5.09119 34 7.82936 34 17.0165 0.507565 80.9205
10508791 5.03834 34 7.79817 34 17.0602 0.512112 80.8365
10508800 5.10881 34 7.86055 34 16.9912 0.509773 80.9694
10508816 5.10881 34 7.86055 34 16.9912 0.509773 80.9694
10508821 5.17047 34 7.86055 34 16.9592 0.497972 81.031
10508831 5.17047 34 7.96453 34 16.9055 0.516558 81.135
10508843 5.17047 34 7.96453 34 16.9055 0.516558 81.135
10508852 5.24093 34 8.03731 34 16.8316 0.516073 81.2782
10508871 5.24093 34 8.03731 34 16.8316 0.516073 81.2782
10508872 5.29378 34 8.11009 34 16.7671 0.518952 81.4039
10508882 5.34663 34 8.26606 34 16.6602 0.536576 81.6127
10508902 5.43471 33.9611 8.37003 34 16.5584 0.545622 81.7658
10508913 5.43471 33.5429 8.52599 34 16.4355 0.653045 81.5036
10508927 5.43471 33.5429 8.52599 34 16.4355 0.653045 81.5036
10508933 5.58446 33.2025 8.74434 34 16.2127 0.728071 81.5313
10508943 5.58446 33.2025 8.74434 34 16.2127 0.728071 81.5313
10508956 5.6285 32.8038 8.9419 34 16.0473 0.831276 81.3742
10508964 5.70777 32.3564 9.12905 34 15.8633 0.935706 81.1932
10508984 5.70777 32.3564 9.12905 34 15.8633 0.935706 81.1932
10508985 5.79586 31.841 9.32661 34 15.6609 1.05414 80.9634
10508994 5.8399 31.2866 9.51376 34 15.4802 1.1881 80.6403
10509012 5.8399 31.2866 9.51376 34 15.4802 1.1881 80.6403
10509014 5.97202 30.5475 9.83609 34 15.1637 1.36579 80.3556
10509024 5.99845 29.9056 10.1272 34 14.9254 1.54124 80.0313
10509043 5.99845 29.9056 10.1272 34 14.9254 1.54124 80.0313
10509046 6.07772 29.0984 10.4703 34 14.6116 1.7504 79.6465
10509057 6.07772 29.0984 10.4703 34 14.6116 1.7504 79.6465
10509072 6.19223 28.3593 10.8343 34 14.2761 1.94294 79.3857
10509076 6.32435 27.6688 11.2709 34 13.9008 2.13423 79.2641
10509100 6.57979 26.9491 11.6972 34 13.4653 2.30386 79.2261
10509106 6.77358 26.2683 12.2587 34 12.9999 2.50001 79.3006
10509130 7.08187 25.5584 13.1009 34 12.3448 2.72018 79.7411
10509136 7.08187 25.5584 13.1009 34 12.3448 2.72018 79.7411
10509146 7.39016 24.8289 14.255 34 11.5515 2.98902 80.4742
10509160 7.84819 24.1773 15.6691 34 10.6066 3.23955 81.6946
10509166 7.84819 24.1773 15.6691 34 10.6066 3.23955 81.6946
10509190 8.30622 23.3604 17.0295 34 9.68142 3.51218 82.6962
10509192 8.75544 22.6213 18.26 34 8.84954 3.74535 83.6367
10509197 8.75544 22.6213 18.26 34 8.84954 3.74535 83.6367
10509207 9.28394 21.8919 19.2247 34 8.11111 3.91861 84.4005
10509222 9.28394 21.8919 19.2247 34 8.11111 3.91861 84.4005
10509227 9.76839 21.1236 20.0811 34 7.43592 4.09349 84.973
10509237 10.2176 20.3747 21.0064 34 6.76141 4.27823 85.5987
10509254 10.2176 20.3747 21.0064 34 6.76141 4.27823 85.5987
10509257 10.7285 19.7037 21.971 34 6.07735 4.43367 86.4032
10509268 11.3098 19.0423 23.0637 34 5.33908 4.58353 87.4159
10509292 11.3098 19.0423 23.0637 34 5.33908 4.58353 87.4159
10509294 11.9528 18.3421 24.2942 34 4.54206 4.74085 88.5891
10509298 11.9528 18.3421 24.2942 34 4.54206 4.74085 88.5891
10509308 12.5959 17.7489 25.564 34 3.77856 4.87483 89.9087
10509330 13.2301 17.107 27.0898 33.5713 2.84581 4.99858 90.9981
10509338 13.9964 16.5488 28.6155 32.1393 1.66378 4.96326 91.2999
10509367 14.7451 15.987 30.1511 30.5805 0.456822 4.91991 91.4637
10509374 15.4938 15.5726 31.6966 29.0315 -0.704361 4.84698 91.7945
10509383 15.4938 15.5726 31.6966 29.0315 -0.704361 4.84698 91.7945
10509406 16.172 14.9648 33.1436 27.4436 -1.88263 4.81614 91.724
10509407 16.8238 14.5412 34 25.914 -2.83982 4.6915 91.279
10509409 16.8238 14.5412 34 25.914 -2.83982 4.6915 91.279
10509418 17.6278 14.0439 34 24.3943 -3.66111 4.45051 90.0659
10509434 18.1858 13.5282 34 22.894 -4.44759 4.2626 88.608
10509462 18.1858 13.5282 34 22.894 -4.44759 4.2626 88.608
10509462 19.0328 13.1598 34 21.5009 -5.2376 3.98688 87.6935
10509463 19.0328 13.1598 34 21.5009 -5.2376 3.98688 87.6935
10509468 19.7204 12.6809 34 20.2052 -6.01407 3.77636 86.6065
10509493 20.4777 12.2757 34 18.9776 -6.77244 3.53854 85.7311
10509494 20.4777 12.2757 34 18.9776 -6.77244 3.53854 85.7311
10509499 21.1354 11.9534 34 17.8281 -7.46433 3.31016 84.9169
10509509 21.7931 11.6035 34 16.8096 -8.12885 3.10187 84.2062
10509530 21.7931 11.6035 34 16.8096 -8.12885 3.10187 84.2062
10509532 22.6002 11.2996 34 15.972 -8.74211 2.87442 83.8718
10509539 22.6002 11.2996 34 15.972 -8.74211 2.87442 83.8718
10509568 23.2778 10.968 34 15.0868 -9.36698 2.67138 83.3327
10509570 24.0352 10.6457 34 14.2777 -9.97839 2.45848 82.9586
10509570 24.0352 10.6457 34 14.2777 -9.97839 2.45848 82.9586
10509581 24.8025 10.3971 34 13.4496 -10.5735 2.22327 82.6491
10509602 25.3804 10.2221 34 12.8499 -11.0089 2.04616 82.4525
10509609 26.0281 9.96425 34 12.3169 -11.465 1.88154 82.3093
10509631 26.4666 9.74323 34 11.7934 -11.8684 1.75302 82.0032
10509641 26.9648 9.50379 34 11.4222 -12.2232 1.64003 81.8908
10509661 26.9648 9.50379 34 11.4222 -12.2232 1.64003 81.8908
10509662 27.2638 9.4117 34 10.9843 -12.5116 1.52624 81.6598
10509671 27.5229 9.27356 34 10.7083 -12.7419 1.45609 81.5047
10509692 27.5229 9.27356 34 10.7083 -12.7419 1.45609 81.5047
10509694 27.772 9.14464 34 10.4227 -12.9718 1.38422 81.3393
10509726 28.0211 8.94204 34 10.1181 -13.2463 1.32367 81.0813
10509727 28.2603 8.81311 34 9.96585 -13.4137 1.27577 81.0392
10509732 28.2603 8.81311 34 9.96585 -13.4137 1.27577 81.0392
10509742 28.33 8.73023 34 9.7374 -13.5717 1.23961 80.7976
10509764 28.4396 8.58288 34 9.58511 -13.7306 1.22121 80.6076
10509765 28.4396 8.58288 34 9.58511 -13.7306 1.22121 80.6076
10509772 28.4994 8.43554 34 9.4804 -13.8604 1.22093 80.4154
10509798 28.5692 8.38949 34 9.36618 -13.9476 1.19655 80.3248
10509802 28.619 8.36186 34 9.35666 -13.9724 1.19044 80.3375
10509836 28.7186 8.32503 34 9.30907 -14.0271 1.16961 80.3527
10509837 28.7286 8.26056 34 9.36618 -14.032 1.1904 80.3553
10509843 28.7286 8.26056 34 9.36618 -14.032 1.1904 80.3553
10509871 28.7984 8.33424 34 9.38522 -13.9966 1.16483 80.5178
10509872 28.7984 8.33424 34 9.38522 -13.9966 1.16483 80.5178
10509873 28.8382 8.2974 34 9.45185 -13.9876 1.17566 80.5875
10509883 28.908 8.43554 34 9.46137 -13.9258 1.13567 80.8049
10509903 28.9379 8.5 34 9.55655 -13.8532 1.13317 80.9944
10509913 28.898 8.51842 34 9.62318 -13.807 1.14884 81.0396
10509931 28.898 8.51842 34 9.62318 -13.807 1.14884 81.0396
10509933 28.8482 8.58288 34 9.75644 -13.7056 1.16866 81.1875
10509943 28.8482 8.58288 34 9.75644 -13.7056 1.16866 81.1875
10509962 28.6688 8.63814 34 9.93729 -13.5682 1.22415 81.2442
10509963 28.609 8.75785 34 10.0515 -13.4489 1.23153 81.4184
10509973 28.609 8.75785 34 10.0515 -13.4489 1.23153 81.4184
10509992 28.4894 8.81311 34 10.1372 -13.3655 1.25884 81.4397
10509994 28.4097 8.8039 34 10.3656 -13.251 1.31504 81.5793
10510005 28.4097 8.8039 34 10.3656 -13.251 1.31504 81.5793
10510024 28.3001 8.94204 34 10.5084 -13.1038 1.33325 81.7506
10510024 28.3001 8.94204 34 10.5084 -13.1038 1.33325 81.7506
10510052 28.1706 9.04334 34 10.7083 -12.9449 1.37223 81.9222
10510053 28.0709 9.18147 34 11.0129 -12.7261 1.41502 82.2653
10510067 27.9912 9.33803 34 11.2984 -12.5124 1.4467 82.6277
10510084 27.9015 9.50379 34 11.6221 -12.2778 1.48446 83.0274
10510096 27.8816 9.72481 34 12.117 -11.956 1.52477 83.7234
10510143 27.7521 9.93662 34 12.4787 -11.6841 1.56653 84.1674
10510144 27.5328 10.2221 34 13.0403 -11.2832 1.64255 84.7952
10510145 27.5328 10.2221 34 13.0403 -11.2832 1.64255 84.7952
10510147 27.3136 10.4431 34 13.5543 -10.9353 1.72268 85.311
10510157 26.9947 10.7931 34 14.2872 -10.4311 1.8297 86.075
10510177 26.7755 11.2075 34 14.9059 -9.9731 1.88568 86.8889
10510187 26.2274 11.4837 34 15.8292 -9.39979 2.07642 87.5404
10510202 26.2274 11.4837 34 15.8292 -9.39979 2.07642 87.5404
10510208 25.7491 11.9626 34 16.7811 -8.75931 2.21532 88.4928
10510217 25.7491 11.9626 34 16.7811 -8.75931 2.21532 88.4928
10510230 25.1811 12.4323 34 17.7891 -8.09813 2.37841 89.4025
10510238 24.5733 12.994 34 18.9874 -7.34137 2.55427 90.5547
10510265 24.5733 12.994 34 18.9874 -7.34137 2.55427 90.5547
10510266 23.8458 13.4637 33.9902 20.2246 -6.59596 2.77062 91.5243
10510268 23.0985 13.915 33.0058 21.4521 -5.66767 2.86065 91.4714
10510278 23.0985 13.915 33.0058 21.4521 -5.66767 2.86065 91.4714
10510298 22.371 14.3846 31.9525 22.7089 -4.71194 2.93803 91.4171
10510308 21.6038 14.8451 30.9386 23.9851 -3.75173 3.0329 91.3725
10510327 20.8664 15.3516 29.9247 25.1542 -2.81646 3.09884 91.2968
10510328 20.8664 15.3516 29.9247 25.1542 -2.81646 3.09884 91.2968
10510338 20.1589 16.0515 28.7927 26.1576 -1.84907 3.08357 91.1606
10510361 19.4713 16.7145 27.6115 27.161 -0.881501 3.06515 90.9583
10510362 19.4713 16.7145 27.6115 27.161 -0.881501 3.06515 90.9583
10510368 18.7937 17.5446 26.4696 28.2814 0.154445 3.03209 91.0893
10510378 18.7937 17.5446 26.4696 28.2814 0.154445 3.03209 91.0893
10510394 17.9965 18.381 25.1309 29.2458 1.23948 2.97494 90.7542
10510398 17.3488 19.2077 23.9004 30.2298 2.25731 2.90679 90.6866
10510408 17.3488 19.2077 23.9004 30.2298 2.25731 2.90679 90.6866
10510424 16.6917 20.2191 22.5026 31.3794 3.41552 2.80383 90.7928
10510429 15.9342 20.2191 21.1934 31.3794 4.0774 2.77587 88.7261
10510439 15.9342 21.1527 21.1934 32.4315 4.53542 2.7347 90.7119
10510451 15.2736 22.3587 19.9334 33.396 5.64735 2.58853 90.9617
10510460 15.2736 22.3587 19.9334 33.396 5.64735 2.58853 90.9617
10510481 14.6041 23.4771 18.6931 34 6.65933 2.41453 90.7744
10510482 14.058 24.6928 17.6103 34 7.47679 2.13468 90.3611
10510491 14.058 24.6928 17.6103 34 7.47679 2.13468 90.3611
10510510 13.371 25.9474 16.4593 34 8.38657 1.86143 89.7777
10510513 12.6575 27.1728 15.2324 34 9.34253 1.58351 89.0627
10510521 12.6575 27.1728 15.2324 34 9.34253 1.58351 89.0627
10510548 11.9617 28.4273 14.0679 34 10.2869 1.30214 88.4569
10510550 11.9617 28.4273 14.0679 34 10.2869 1.30214 88.4569
10510552 11.2041 29.5166 13.0385 34 11.188 1.07985 87.7593
10510562 10.5523 30.4113 12.2067 34 11.9457 0.902209 87.1704
10510589 10.5523 30.4113 12.2067 34 11.9457 0.902209 87.1704
10510589 9.96218 31.2866 11.4061 34 12.6705 0.719635 86.6549
10510592 9.38964 31.9966 10.7095 34 13.3275 0.578996 86.0957
10510602 9.38964 31.9966 10.7095 34 13.3275 0.578996 86.0957
10510622 8.89637 32.5801 10.096 34 13.9027 0.459182 85.5725
10510632 8.41192 33.115 9.65933 34 14.3931 0.375488 85.1862
10510650 8.01554 33.6013 9.30581 34 14.8017 0.298333 84.9226
10510678 7.67202 33.9417 9.03547 34 15.1313 0.251947 84.6491
10510679 7.31969 34 8.82752 34 15.4054 0.268784 84.1472
10510693 7.09067 34 8.66116 34 15.5961 0.281276 83.7518
10510710 7.09067 34 8.66116 34 15.5961 0.281276 83.7518
10510713 6.91451 34 8.45321 34 15.7832 0.27685 83.3677
10510724 6.74715 34 8.41162 34 15.8856 0.300234 83.1588
10510741 6.74715 34 8.41162 34 15.8856 0.300234 83.1588
10510744 6.57979 34 8.24526 34 16.0504 0.301625 82.8251
10510754 6.50052 34 8.13089 34 16.1466 0.295959 82.6314
10510772 6.50052 34 8.13089 34 16.1466 0.295959 82.6314
10510775 6.39482 34 8.0581 34 16.2357 0.302589 82.4529
10510785 6.31554 34 8.0685 34 16.2701 0.319167 82.384
10510801 6.31554 34 8.0685 34 16.2701 0.319167 82.384
10510804 6.28912 34 8.03731 34 16.299 0.318521 82.3264
10510814 6.28912 34 8.03731 34 16.299 0.318521 82.3264
10510830 6.23627 34 7.98532 34 16.3517 0.319086 82.2216
10510836 6.2715 34 7.95413 34 16.3496 0.306952 82.2256
10510846 6.2715 34 7.95413 34 16.3496 0.306952 82.2256
10510857 6.30674 34 7.93333 34 16.3424 0.296681 82.2401
10510866 6.38601 34 7.91254 34 16.313 0.278229 82.2985
10510890 6.38601 34 7.91254 34 16.313 0.278229 82.2985
10510891 6.46528 34 7.96453 34 16.2472 0.272822 82.4298
10510906 6.55337 34 7.86055 34 16.2552 0.237917 82.4139
10510922 6.77358 34 7.88135 34 16.1349 0.201035 82.6549
10510926 6.77358 34 7.88135 34 16.1349 0.201035 82.6549
10510936 6.98497 34 7.94373 34 15.9991 0.173417 82.9287
10510951 7.07306 34 7.89174 34 15.9812 0.148019 82.9648
10510956 7.07306 34 7.89174 34 15.9812 0.148019 82.9648
10510966 7.31969 34 7.98532 34 15.8139 0.119855 83.305
10510986 7.46943 34 8.03731 34 15.7153 0.102006 83.5067
10510996 7.73368 34 8.0581 34 15.5768 0.058077 83.7918
10511011 7.73368 34 8.0581 34 15.5768 0.058077 83.7918
10511016 7.98912 34 8.18287 34 15.3935 0.034529 84.172
10511026 8.27098 34 8.26606 34 15.2191 -0.0008744 84.537
10511039 8.27098 34 8.26606 34 15.2191 -0.0008744 84.537
10511046 8.59689 34 8.4948 34 14.9569 -0.0179958 85.0917
10511067 8.59689 34 8.4948 34 14.9569 -0.0179958 85.0917
10511068 8.94922 34 8.59878 34 14.7438 -0.0614476 85.548
10511076 9.27513 34 8.81713 34 14.4925 -0.0797993 86.0923
10511097 9.27513 34 8.81713 34 14.4925 -0.0797993 86.0923
10511098 9.60984 34 8.99388 33.7954 14.2338 -0.142457 86.3991
10511130 9.91813 34 9.26422 33.2791 13.907 -0.238516 86.4614
10511132 10.3057 34 9.43058 32.7043 13.5839 -0.376702 86.4406
10511137 10.3057 34 9.43058 32.7043 13.5839 -0.376702 86.4406
10511164 10.6316 34 9.70092 32.0613 13.2327 -0.498191 86.3938
10511165 11.028 34 10.0024 31.5645 12.857 -0.599526 86.5949
10511177 11.5036 34 10.3976 30.902 12.3846 -0.726482 86.8032
10511197 11.5036 34 10.3976 30.902 12.3846 -0.726482 86.8032
10511198 11.8912 34 10.7511 30.3662 11.9885 -0.823012 87.0084
10511208 12.3316 34 11.3125 29.9278 11.5002 -0.872072 87.5719
10511230 12.3316 34 11.3125 29.9278 11.5002 -0.872072 87.5719
10511231 12.8601 34 12.0092 29.2653 10.8913 -0.950636 88.1346
10511238 13.5031 34 12.789 28.6321 10.2166 -1.02594 88.9242
10511263 13.5031 34 12.789 28.6321 10.2166 -1.02594 88.9242
10511264 14.2254 34 13.6624 27.9307 9.47547 -1.10763 89.8184
10511269 14.886 34 14.5358 27.1415 8.75624 -1.19397 90.5633
10511279 14.886 34 14.5358 27.1415 8.75624 -1.19397 90.5633
10511299 15.6259 34 15.5339 26.294 7.96416 -1.279 91.4538
10511300 15.6259 34 15.5339 26.294 7.96416 -1.279 91.4538
10511309 16.313 33.1442 16.5737 25.4951 7.03424 -1.21085 91.526
10511332 17.0897 32.1424 17.5808 24.5989 6.03611 -1.15726 91.4118
10511340 17.9068 31.0046 18.6734 23.8974 5.00692 -1.03963 91.4822
10511366 18.6143 29.8278 19.707 23.0206 3.98354 -0.940192 91.1697
10511367 18.6143 29.8278 19.707 23.0206 3.98354 -0.940192 91.1697
10511371 19.4713 28.5635 20.8784 22.2218 2.86268 -0.81219 91.135
10511400 20.1887 27.2992 22.099 21.4619 1.77743 -0.646967 91.0489
10511401 21.0158 25.8112 23.5559 20.5851 0.501442 -0.442914 90.968
10511411 21.0158 25.8112 23.5559 20.5851 0.501442 -0.442914 90.968
10511434 22.0721 24.3038 25.249 19.5524 -0.95004 -0.259021 91.1773
10511437 23.1084 22.7769 27.0996 18.5977 -2.41133 -0.0307962 91.5826
10511441 23.1084 22.7769 27.0996 18.5977 -2.41133 -0.0307962 91.5826
10511451 24.2743 21.0069 29.1077 17.4871 -4.05113 0.214466 91.876
10511465 24.2743 21.0069 29.1077 17.4871 -4.05113 0.214466 91.876
10511471 25.4701 19.266 31.1158 16.3147 -5.69762 0.438504 92.1666
10511493 26.646 17.5738 32.927 15.1344 -7.27798 0.62445 92.2812
10511494 26.646 17.5738 32.927 15.1344 -7.27798 0.62445 92.2812
10511502 27.6823 16.0054 34 14.1064 -8.59818 0.722051 91.7941
10511522 28.5293 14.6609 34 13.1545 -9.60595 0.658202 90.3447
10511523 28.5293 14.6609 34 13.1545 -9.60595 0.658202 90.3447
10511532 29.3066 13.4085 34 12.2979 -10.5603 0.603765 89.0129
10511553 29.3066 13.4085 34 12.2979 -10.5603 0.603765 89.0129
10511554 29.8447 12.2941 34 11.4127 -11.4612 0.5609 87.5515
10511562 30.5123 11.4101 34 10.7083 -12.2341 0.482374 86.6307
10511588 30.5123 11.4101 34 10.7083 -12.2341 0.482374 86.6307
10511589 31.0305 10.48 34 10.0515 -13.002 0.445481 85.562
10511593 31.5586 9.69718 34 9.3757 -13.7318 0.375729 84.6315
10511623 32.0868 9.11701 34 8.88074 -14.2978 0.299158 84.0845
10511624 32.5551 8.50921 34 8.3953 -14.8726 0.239217 83.4596
10511658 32.9537 8.15926 34 8.02408 -15.2671 0.164389 83.137
10511659 32.9537 8.15926 34 8.02408 -15.2671 0.164389 83.137
10511665 33.2726 7.76327 34 7.76708 -15.6221 0.132465 82.8029
10511675 33.5615 7.46858 34 7.51008 -15.9264 0.0872219 82.5402
10511687 33.5615 7.46858 34 7.51008 -15.9264 0.0872219 82.5402
10511695 33.8007 7.26598 34 7.31019 -16.1528 0.0443405 82.3769
10511716 33.99 7.05417 34 7.15789 -16.3554 0.0207442 82.2021
10511724 34 6.86999 34 7.06271 -16.4975 0.0352836 81.9327
10511747 34 6.74106 34 6.81523 -16.689 0.0136417 81.5563
10511756 34 6.71343 34 6.73908 -16.7421 0.00472426 81.4525
10511766 34 6.71343 34 6.73908 -16.7421 0.00472426 81.4525
10511783 34 6.62134 34 6.56775 -16.8775 -0.00990182 81.1891
10511786 34 6.63055 34 6.43449 -16.9416 -0.0362796 81.065
10511796 34 6.63055 34 6.43449 -16.9416 -0.0362796 81.065
10511824 34 6.58451 34 6.42497 -16.9704 -0.0295392 81.0095
10511825 34 6.58451 34 6.42497 -16.9704 -0.0295392 81.0095
10511826 34 6.68581 34 6.25364 -17.0067 -0.0800908 80.9394
10511836 34 6.78711 34 6.26316 -16.9493 -0.096969 81.0503
10511858 34 6.78711 34 6.26316 -16.9493 -0.096969 81.0503
10511859 34 6.79632 34 6.22508 -16.9642 -0.105757 81.0214
10511868 34 6.79632 34 6.22508 -16.9642 -0.105757 81.0214
10511886 34 6.79632 34 6.17749 -16.9889 -0.114635 80.9738
10511887 34 6.99892 34 6.20605 -16.8694 -0.146457 81.205
10511898 34 6.99892 34 6.20605 -16.8694 -0.146457 81.205
10511932 34 7.10943 34 6.19653 -16.8174 -0.168417 81.3059
10511933 34 7.32124 34 6.2346 -16.6892 -0.199857 81.5558
10511934 34 7.32124 34 6.2346 -16.6892 -0.199857 81.5558
10511937 34 7.53304 34 6.21557 -16.5909 -0.241744 81.7486
10511947 34 7.70802 34 6.35834 -16.4299 -0.246693 82.0664
10511981 34 7.70802 34 6.35834 -16.4299 -0.246693 82.0664
10511983 34 7.8922 34 6.41545 -16.3084 -0.269126 82.3076
10511984 34 7.8922 34 6.41545 -16.3084 -0.269126 82.3076
10511989 34 8.12243 34 6.47256 -16.1647 -0.29963 82.595
10512011 34 8.34344 34 6.4916 -16.0454 -0.335337 82.835
10512019 34 8.52763 34 6.65342 -15.8747 -0.337976 83.181
10512041 34 8.73023 34 6.77716 -15.715 -0.350819 83.5074
10512042 34 8.73023 34 6.77716 -15.715 -0.350819 83.5074
10512049 34 8.9052 34 6.96753 -15.5376 -0.346537 83.8727
10512070 34 8.9052 34 6.96753 -15.5376 -0.346537 83.8727
10512072 34 9.11701 34 7.14838 -15.3487 -0.350435 84.2654
10512079 34 9.3104 34 7.45297 -15.1117 -0.328697 84.7634
10512102 34 9.55905 34 7.73852 -14.8605 -0.32015 85.2976
10512110 34 9.83532 34 8.18589 -14.5251 -0.28762 86.0212
10512135 34 9.83532 34 8.18589 -14.5251 -0.28762 86.0212
10512136 34 10.2221 34 8.49048 -14.21 -0.299545 86.7126
10512141 34 10.572 34 8.98544 -13.8316 -0.271811 87.5575
10512151 34 10.572 34 8.98544 -13.8316 -0.271811 87.5575
10512168 34 11.0325 34 9.58511 -13.3671 -0.244996 88.6176
10512171 34 11.0325 34 9.58511 -13.3671 -0.244996 88.6176
10512181 34 11.6403 34 10.042 -12.9116 -0.26733 89.6823
10512197 34 12.3862 34 10.7464 -12.3083 -0.269917 91.1326
10512202 34 12.3862 34 10.7464 -12.3083 -0.269917 91.1326
10512212 33.8804 13.1782 33.4586 11.3651 -11.6442 -0.364865 91.8823
10512226 33.1928 14.0439 32.4644 12.117 -10.754 -0.433787 91.8181
10512242 32.5551 14.9464 31.421 12.8785 -9.845 -0.523199 91.8009
10512255 32.5551 14.9464 31.421 12.8785 -9.845 -0.523199 91.8009
10512263 31.8576 15.9133 30.2003 13.4591 -8.93726 -0.674517 91.4304
10512287 31.1102 16.9816 29.0782 14.0873 -7.97729 -0.809733 91.2573
10512288 31.1102 16.9816 29.0782 14.0873 -7.97729 -0.809733 91.2573
10512293 30.3329 18.0017 27.7493 14.7536 -6.97037 -0.962996 90.8376
10512303 29.3664 19.1396 26.509 15.5151 -5.86011 -1.07398 90.53
10512319 29.3664 19.1396 26.509 15.5151 -5.86011 -1.07398 90.53
10512323 28.32 20.3164 25.2982 16.3432 -4.69624 -1.16224 90.2778
10512333 28.32 20.3164 25.2982 16.3432 -4.69624 -1.16224 90.2778
10512351 27.2937 21.4737 24.0874 17.3799 -3.4708 -1.2135 90.2347
10512353 26.2872 22.7574 22.916 18.4029 -2.22517 -1.28245 90.3636
10512363 26.2872 22.7574 22.916 18.4029 -2.22517 -1.28245 90.3636
10512382 25.1313 23.9731 21.6068 19.5524 -0.88978 -1.32032 90.2637
10512384 24.0252 25.0818 20.5732 20.7799 0.349131 -1.28573 90.4602
10512412 22.8792 26.1613 19.4904 22.1244 1.63145 -1.22868 90.6554
10512415 21.7134 26.1613 18.4864 23.4883 2.62935 -0.984989 89.8493
10512426 21.7134 27.2311 18.4864 23.4883 2.89258 -1.1499 90.9191
10512442 20.6571 28.2717 17.4922 24.8716 4.10605 -1.07868 91.2927
10512446 20.6571 28.2717 17.4922 24.8716 4.10605 -1.07868 91.2927
10512456 19.5111 29.3026 16.4801 26.2355 5.33897 -0.99937 91.5294
10512475 18.3951 30.3238 15.5132 27.6481 6.54758 -0.90731 91.8802
10512486 17.2292 31.3352 14.463 28.8172 7.74685 -0.863019 91.8446
10512504 16.128 32.1911 13.5584 30.0544 8.85414 -0.767885 91.9319
10512507 16.128 32.1911 13.5584 30.0544 8.85414 -0.767885 91.9319
10512517 15.115 32.9691 12.7578 31.0774 9.83843 -0.693375 91.9193
10512534 15.115 32.9691 12.7578 31.0774 9.83843 -0.693375 91.9193
10512537 14.1197 33.7666 11.8948 31.8957 10.8118 -0.670145 91.6768
10512547 13.1244 34 11.1566 32.7725 11.6667 -0.526387 91.0534
10512567 12.1202 34 10.3872 33.5713 12.5068 -0.359969 90.0787
10512578 11.213 34 9.85688 34 13.1723 -0.228372 89.0698
10512594 11.213 34 9.85688 34 13.1723 -0.228372 89.0698
10512606 10.4554 34 9.3474 34 13.7231 -0.189294 87.8028
10512609 10.4554 34 9.3474 34 13.7231 -0.189294 87.8028
10512624 9.80363 34 8.9211 34 14.2045 -0.152644 86.7247
10512627 9.22228 34 8.62997 34 14.6029 -0.103488 85.8522
10512637 9.22228 34 8.62997 34 14.6029 -0.103488 85.8522
10512654 8.8171 34 8.40122 34 14.8975 -0.073202 85.2183
10512657 8.42073 34 8.20367 34 15.1775 -0.0384745 84.6244
10512667 8.42073 34 8.20367 34 15.1775 -0.0384745 84.6244
10512689 8.16529 34 8.04771 34 15.3738 -0.0209427 84.213
10512690 8.16529 34 8.04771 34 15.3738 -0.0209427 84.213
10512697 7.96269 34 7.78777 34 15.5968 -0.03133 83.7505
10512723 7.76891 34 7.75658 34 15.7061 -0.0022155 83.5255
10512724 7.76891 34 7.75658 34 15.7061 -0.0022155 83.5255
10512728 7.58394 34 7.663 34 15.8423 0.0142461 83.2469
10512738 7.39016 34 7.52783 34 16.0044 0.0249052 82.918
10512753 7.39016 34 7.52783 34 16.0044 0.0249052 82.918
10512758 7.34611 34 7.39266 34 16.0932 0.00843823 82.7388
10512768 7.34611 34 7.39266 34 16.0932 0.00843823 82.7388
10512783 7.19637 34 7.34067 34 16.1936 0.0262231 82.537
10512788 7.08187 34 7.2263 34 16.3082 0.0263214 82.3082
10512813 7.12591 34 7.15352 34 16.3226 0.00503361 82.2794
10512819 7.12591 34 7.15352 34 16.3226 0.00503361 82.2794
10512828 7.04663 34 7.13272 34 16.3729 0.0157142 82.1794
10512846 7.08187 34 7.16391 34 16.3395 0.0149649 82.2458
10512848 7.08187 34 7.16391 34 16.3395 0.0149649 82.2458
10512858 7.08187 34 7.12232 34 16.3604 0.00738323 82.2042
10512879 7.13472 34 7.09113 34 16.3495 -0.00795007 82.2258
10512880 7.13472 34 7.09113 34 16.3495 -0.00795007 82.2258
10512888 7.23161 34 7.04954 34 16.3217 -0.0331897 82.2811
10512911 7.23161 34 7.04954 34 16.3217 -0.0331897 82.2811
10512912 7.27565 34 7.12232 34 16.2632 -0.027912 82.398
10512922 7.31088 34 7.15352 34 16.2299 -0.0286236 82.4644
10512942 7.31088 34 7.15352 34 16.2299 -0.0286236 82.4644
10512943 7.40777 34 7.2055 34 16.1556 -0.0367257 82.6133
10512950 7.56632 34 7.25749 34 16.051 -0.0559312 82.8238
10512976 7.56632 34 7.25749 34 16.051 -0.0559312 82.8238
10512977 7.6544 34 7.40306 34 15.9355 -0.0453937 83.0575
10512979 7.7513 34 7.36147 34 15.9083 -0.0703543 83.1128
10512989 7.7513 34 7.36147 34 15.9083 -0.0703543 83.1128
10513011 7.93627 34 7.40306 34 15.7971 -0.0959712 83.3393
10513012 7.93627 34 7.40306 34 15.7971 -0.0959712 83.3393
10513021 8.05959 34 7.43425 34 15.7216 -0.112344 83.4938
10513047 8.24456 34 7.52783 34 15.5862 -0.128335 83.7724
10513048 8.24456 34 7.52783 34 15.5862 -0.128335 83.7724
10513051 8.42073 34 7.55902 34 15.4859 -0.153914 83.9798
10513061 8.62332 34 7.76697 34 15.289 -0.152212 84.3903
10513082 8.62332 34 7.76697 34 15.289 -0.152212 84.3903
10513083 8.87876 34 7.88135 33.6688 15.0744 -0.236051 84.4289
10513091 8.87876 34 7.88135 33.6688 15.0744 -0.236051 84.4289
10513112 9.21347 34 8.0789 33.1427 14.76 -0.353859 84.4351
10513113 9.50414 34 8.26606 32.6751 14.4783 -0.455267 84.4453
