1435940 14.8926 34 4.28866 12.5368 10.4064 -7.31925 65.718
1435949 15.0506 34 4.39175 12.4989 10.2578 -7.3156 65.9413
1435959 15.2526 34 4.52577 12.4799 10.0748 -7.30027 66.2583
1435969 15.2526 34 4.52577 12.4799 10.0748 -7.30027 66.2583
1435979 15.5248 34 4.74227 12.4231 9.80505 -7.27831 66.6901
1435989 15.5248 34 4.74227 12.4231 9.80505 -7.27831 66.6901
1435999 15.797 34 5.05155 12.262 9.46701 -7.26044 67.1105
1436019 16.1834 34 5.46392 12.1672 9.03934 -7.20028 67.8145
1436021 16.1834 34 5.46392 12.1672 9.03934 -7.20028 67.8145
1436030 16.5083 34 5.95876 11.864 8.56016 -7.17511 68.331
1436039 16.9649 34 6.80412 11.6839 7.88842 -7.01413 69.4529
1436060 17.4783 34 7.93814 11.6081 7.10729 -6.74387 71.0246
1436070 18.0064 33.786 9.6701 11.6366 6.06917 -6.25571 73.0992
1436080 18.0064 33.786 9.6701 11.6366 6.06917 -6.25571 73.0992
1436090 18.4947 32.5509 11.5155 11.845 4.83353 -5.58122 74.4061
1436101 18.4947 32.5509 11.5155 11.845 4.83353 -5.58122 74.4061
1436110 18.8734 30.9851 13.1959 11.8166 3.58365 -4.97777 74.871
1436120 19.1823 29.4485 14.4227 11.5987 2.49229 -4.54296 74.6522
1436141 19.6208 27.6201 15.4948 11.286 1.2802 -4.1461 74.0217
1436153 20.0692 25.6848 16.5361 10.869 -0.0175849 -3.76212 73.159
1436163 20.0692 25.6848 16.5361 10.869 -0.0175849 -3.76212 73.159
1436172 20.5574 23.7494 17.4036 10.3952 -1.3232 -3.43414 72.1057
1436192 21.1753 21.6487 18.2206 9.85507 -2.78283 -3.12025 70.8997
1436202 21.9326 19.6939 19.077 9.36232 -4.26504 -2.82317 70.0659
1436212 21.9326 19.6939 19.077 9.36232 -4.26504 -2.82317 70.0659
1436222 22.7397 18.0017 20.0712 8.88852 -5.71035 -2.53548 69.7012
1436232 23.6665 16.3758 21.2131 8.59476 -7.12561 -2.1978 69.8501
1436242 23.6665 16.3758 21.2131 8.59476 -7.12561 -2.1978 69.8501
1436252 24.5832 15.1091 22.5026 8.32943 -8.38269 -1.88451 70.5243
1436272 25.5498 14.0626 23.6642 8.11148 -9.46932 -1.64667 71.3881
1436282 26.5961 13.108 24.6781 7.89353 -10.4712 -1.48027 72.2757
1436292 26.5961 13.108 24.6781 7.89353 -10.4712 -1.48027 72.2757
1436302 27.5627 12.3278 25.4754 7.68506 -11.3021 -1.38192 73.0509
1436312 28.32 11.6668 25.9479 7.5524 -11.9234 -1.32403 73.4872
1436334 28.9578 11.1161 26.3219 7.3155 -12.4975 -1.3098 73.7113
1436343 28.9578 11.1161 26.3219 7.3155 -12.4975 -1.3098 73.7113
1436353 29.3664 10.6663 26.4991 7.09755 -12.937 -1.31116 73.6293
1436363 29.7251 10.3542 26.5877 6.96488 -13.2394 -1.32959 73.6319
1436383 30.0838 10.1156 26.4598 6.84169 -13.4646 -1.40772 73.5008
1436393 30.4027 9.86771 26.253 6.62375 -13.7272 -1.51618 73.1472
1436403 30.4027 9.86771 26.253 6.62375 -13.7272 -1.51618 73.1472
1436413 30.6319 9.80346 26.0266 6.54794 -13.8019 -1.61501 73.0099
1436423 30.6319 9.80346 26.0266 6.54794 -13.8019 -1.61501 73.0099
1436433 30.8013 9.60151 25.7018 6.35842 -13.9875 -1.72693 72.463
1436443 30.9807 9.50054 25.5443 6.29208 -14.0811 -1.79309 72.3176
1436463 30.9807 9.42711 25.5443 6.2068 -14.167 -1.7995 72.1589
1436474 31.1202 9.35367 25.564 6.22575 -14.2204 -1.80259 72.2636
1436483 31.1202 9.35367 25.564 6.22575 -14.2204 -1.80259 72.2636
1436494 31.0703 9.33531 25.6034 6.30156 -14.1877 -1.76338 72.3106
1436514 31.0006 9.32613 25.8593 6.32051 -14.2102 -1.68542 72.5065
1436525 30.9906 9.34449 26.1644 6.43423 -14.1828 -1.59112 72.9338
1436544 30.9707 9.33531 26.4007 6.48161 -14.1944 -1.52149 73.1883
1436555 30.9009 9.32613 26.5976 6.51951 -14.1977 -1.4541 73.3442
1436565 30.9009 9.32613 26.5976 6.51951 -14.1977 -1.4541 73.3442
1436575 30.8511 9.37203 26.7354 6.62375 -14.1307 -1.39926 73.5823
1436586 30.8511 9.37203 26.7354 6.62375 -14.1307 -1.39926 73.5823
1436594 30.7315 9.33531 26.824 6.66165 -14.1255 -1.34215 73.5525
1436606 30.6817 9.32613 26.8141 6.6806 -14.1114 -1.32916 73.5026
1436616 30.6817 9.32613 26.8141 6.6806 -14.1114 -1.32916 73.5026
1436625 30.4924 9.31695 26.7058 6.59532 -14.1177 -1.33527 73.1105
1436636 30.3628 9.24352 26.6665 6.58584 -14.1369 -1.30816 72.8587
1436661 30.3429 9.28024 26.5385 6.6427 -14.0646 -1.32725 72.8044
1436667 30.3429 9.28024 26.5385 6.6427 -14.0646 -1.32725 72.8044
1436679 30.2433 9.31695 26.5188 6.61427 -14.0422 -1.32622 72.6933
1436687 30.2632 9.35367 26.4204 6.55741 -14.0411 -1.37181 72.5947
1436697 30.2632 9.35367 26.4204 6.55741 -14.0411 -1.37181 72.5947
1436709 30.1536 9.37203 26.4598 6.62375 -13.985 -1.33085 72.6091
1436717 30.2333 9.39957 26.4991 6.67113 -13.9629 -1.33152 72.8031
1436727 30.2333 9.39957 26.4991 6.67113 -13.9629 -1.33152 72.8031
1436736 30.2433 9.45464 26.5287 6.69008 -13.9293 -1.33286 72.9166
1436747 30.2433 9.45464 26.5287 6.69008 -13.9293 -1.33286 72.9166
1436757 30.0639 9.50972 26.4105 6.65217 -13.8748 -1.34455 72.6363
1436768 30.0739 9.5189 26.4598 6.6427 -13.884 -1.33922 72.6952
1436777 30.0739 9.5189 26.4598 6.6427 -13.884 -1.33922 72.6952
1436788 30.0141 9.62905 26.5483 6.69955 -13.7993 -1.31605 72.891
1436798 29.9543 9.76674 26.4794 6.74693 -13.6811 -1.33548 72.9474
1436818 29.9443 9.89525 26.3219 6.81327 -13.5519 -1.37808 72.9748
1436828 29.9443 9.89525 26.3219 6.81327 -13.5519 -1.37808 72.9748
1436838 29.7351 10.088 25.9282 6.71851 -13.4045 -1.48538 72.4698
1436848 29.6254 10.4276 25.7018 6.81327 -13.1209 -1.55813 72.5681
1436858 29.6254 10.4276 25.7018 6.81327 -13.1209 -1.55813 72.5681
1436868 29.4361 10.8958 25.4065 7.05964 -12.6676 -1.62074 72.798
1436878 29.2069 11.4557 25.0423 7.26812 -12.1707 -1.71685 72.973
1436888 29.2069 11.4557 25.0423 7.26812 -12.1707 -1.71685 72.973
1436899 28.9179 12.034 24.6288 7.58082 -11.5949 -1.79239 73.1616
1436908 28.9179 12.034 24.6288 7.58082 -11.5949 -1.79239 73.1616
1436918 28.5791 12.8602 23.9004 7.81773 -10.8675 -1.9932 73.1574
1436928 28.2403 13.7873 23.0145 8.27258 -9.95537 -2.19749 73.3146
1436938 28.2403 13.7873 23.0145 8.27258 -9.95537 -2.19749 73.3146
1436948 27.7222 14.7419 21.8529 8.71795 -8.9393 -2.44264 73.0349
1436958 27.0645 15.6048 20.6028 9.36232 -7.81317 -2.62358 72.6343
1436978 26.2374 16.541 19.2739 10.3004 -6.45096 -2.73744 72.3528
1436992 26.2374 16.541 19.2739 10.3004 -6.45096 -2.73744 72.3528
1437000 25.2708 17.5252 17.9942 11.5797 -4.89158 -2.74052 72.3699
1437009 24.1547 18.6144 16.8247 13.1906 -3.15123 -2.6284 72.7845
1437030 22.959 19.7523 15.6186 15.0006 -1.30392 -2.47349 73.3304
1437039 21.5141 20.754 14.4742 16.6115 0.469366 -2.28666 73.3538
1437059 20.0193 21.6876 13.3196 18.1203 2.21098 -2.10543 73.1469
1437070 20.0193 21.6876 13.3196 18.1203 2.21098 -2.10543 73.1469
1437079 18.3453 22.4949 12.2268 19.4258 3.9137 -1.90105 72.4927
1437089 16.8244 23.3118 11.4124 20.8189 5.49071 -1.63849 72.3674
1437102 16.8244 23.3118 11.4124 20.8189 5.49071 -1.63849 72.3674
1437110 15.7355 24.1968 10.732 22.0756 6.80676 -1.46922 72.7399
1437119 14.8399 25.1304 10.0619 23.0791 7.96997 -1.40116 73.1113
1437129 14.8399 25.1304 10.0619 23.0791 7.96997 -1.40116 73.1113
1437140 13.953 26.0835 9.54639 23.839 8.99702 -1.35882 73.4219
1437150 13.953 26.0835 9.54639 23.839 8.99702 -1.35882 73.4219
1437159 13.1188 26.9005 8.91753 24.2871 9.95277 -1.39598 73.2239
1437169 12.3724 27.7077 8.50515 24.6768 10.7514 -1.41235 73.262
1437179 12.3724 27.7077 8.50515 24.6768 10.7514 -1.41235 73.262
1437190 11.6963 28.6024 8.05155 24.8619 11.5133 -1.51312 73.2121
1437209 10.9323 29.361 7.62887 24.6476 12.2115 -1.65707 72.5697
1437220 10.3967 29.9834 7.27835 24.5989 12.7694 -1.76513 72.2573
1437242 9.92252 30.5378 6.98969 24.6963 13.2792 -1.82428 72.1462
1437250 9.36932 31.0046 6.73196 24.9496 13.8272 -1.80952 72.0554
1437261 9.36932 31.0046 6.73196 24.9496 13.8272 -1.80952 72.0554
1437270 9.02686 31.52 6.4433 24.8619 14.2347 -1.92932 71.8521
1437281 9.02686 31.52 6.4433 24.8619 14.2347 -1.92932 71.8521
1437290 8.67562 31.9479 6.23711 24.7547 14.5883 -2.01738 71.6154
1437300 8.42975 32.2981 6.08247 24.6086 14.8401 -2.108 71.4189
1437321 8.22779 32.7357 5.8866 24.5794 15.1201 -2.20445 71.4295
1437331 8.09607 33.0372 5.82474 24.6086 15.2742 -2.24265 71.5666
1437341 8.09607 33.0372 5.82474 24.6086 15.2742 -2.24265 71.5666
1437351 7.9907 33.5235 5.74227 24.5794 15.4414 -2.33711 71.8358
1437361 7.9907 33.5235 5.74227 24.5794 15.4414 -2.33711 71.8358
1437371 7.8063 33.8736 5.61856 24.3456 15.6309 -2.45291 71.644
1437380 7.71849 34 5.56701 24.4235 15.7365 -2.45325 71.709
1437390 7.71849 34 5.56701 24.4235 15.7365 -2.45325 71.709
1437401 7.75362 34 5.42268 24.2774 15.7798 -2.53036 71.4537
1437413 7.6219 34 5.38144 24.2287 15.8725 -2.52944 71.232
1437421 7.6219 34 5.38144 24.2287 15.8725 -2.52944 71.232
1437430 7.578 34 5.30928 24.0241 15.9131 -2.59013 70.9113
1437440 7.578 34 5.30928 24.0241 15.9131 -2.59013 70.9113
1437451 7.53409 34 5.17526 23.6052 15.9625 -2.72071 70.3145
1437461 7.52531 34 5.08247 23.1375 15.9616 -2.86155 69.7453
1437472 7.52531 34 5.08247 23.1375 15.9616 -2.86155 69.7453
1437480 7.56921 34 4.95876 22.7673 15.9604 -2.99655 69.2953
1437491 7.56043 34 4.86598 22.4361 15.9774 -3.10583 68.8625
1437501 7.56043 34 4.86598 22.4361 15.9774 -3.10583 68.8625
1437510 7.66581 34 4.7732 22.1633 15.934 -3.22058 68.6023
1437532 7.68337 34 4.71134 21.9782 15.936 -3.28942 68.3729
1437542 7.67459 34 4.6701 21.6957 15.9284 -3.37493 68.0404
1437562 7.79752 34 4.71134 21.5788 15.8141 -3.41634 68.0877
1437572 7.85899 34 4.70103 21.4716 15.769 -3.45861 68.0316
1437582 7.85899 34 4.70103 21.4716 15.769 -3.45861 68.0316
1437592 7.92045 34 4.75258 21.3547 15.6854 -3.48677 68.0278
1437612 7.97314 34 4.62887 21.0527 15.6865 -3.61206 67.6547
1437623 8.05217 34 4.61856 20.8384 15.6155 -3.68733 67.5091
1437633 8.05217 34 4.61856 20.8384 15.6155 -3.68733 67.5091
1437643 8.13998 34 4.56701 20.6046 15.5611 -3.78131 67.3116
1437653 8.21023 34 4.56701 20.3513 15.483 -3.86391 67.1285
1437664 8.21023 34 4.56701 20.3513 15.483 -3.86391 67.1285
1437673 8.36829 34 4.58763 20.1954 15.3532 -3.92812 67.1513
1437693 8.42975 34 4.60825 19.9713 15.2715 -3.99575 67.0093
1437703 8.62293 34 4.61856 19.6401 15.1008 -4.11868 66.8816
1437713 8.62293 34 4.61856 19.6401 15.1008 -4.11868 66.8816
1437725 8.72831 34 4.62887 19.2699 14.9762 -4.23916 66.6271
1437733 8.86002 34 4.63918 19.153 14.8734 -4.29119 66.6522
1437743 8.86002 34 4.63918 19.153 14.8734 -4.29119 66.6522
1437756 8.95661 34 4.68041 19.2991 14.8134 -4.25265 66.9362
1437763 8.95661 34 4.68041 19.2991 14.8134 -4.25265 66.9362
1437773 9.0093 34 4.72165 19.2504 14.7502 -4.26325 66.9814
1437783 9.16736 34 4.80412 19.1628 14.5944 -4.29002 67.1342
1437794 9.16736 34 4.80412 19.1628 14.5944 -4.29002 67.1342
1437803 9.3781 34 4.90722 19.0458 14.3918 -4.3275 67.3312
1437823 9.60641 34 4.94845 18.9387 14.2176 -4.38248 67.4935
1437836 9.85227 34 5.10309 18.8315 13.9688 -4.40741 67.7869
1437844 9.85227 34 5.10309 18.8315 13.9688 -4.40741 67.7869
1437854 10.0806 34 5.1134 18.588 13.792 -4.50988 67.7819
1437864 10.2913 34 5.25773 18.3249 13.5456 -4.57657 67.874
1437874 10.2913 34 5.25773 18.3249 13.5456 -4.57657 67.874
1437886 10.546 34 5.36082 18.1203 13.3085 -4.64479 68.0271
1437894 10.546 34 5.36082 18.1203 13.3085 -4.64479 68.0271
1437905 10.9148 34 5.72165 17.984 12.8779 -4.6362 68.6204
1437917 11.4943 34 6.02062 17.7891 12.3637 -4.69336 69.304
1437936 11.4943 34 6.02062 17.7891 12.3637 -4.69336 69.304
1437939 12.1705 34 6.47423 17.4774 11.7055 -4.7529 70.122
1437945 12.8993 34 6.8866 17.0585 11.0357 -4.86014 70.8443
1437955 12.8993 34 6.8866 17.0585 11.0357 -4.86014 70.8443
1437966 13.7949 34 7.50515 16.5641 10.1803 -4.95219 71.8642
1437975 13.7949 34 8.26804 16.5641 9.81078 -4.74261 72.6271
1437985 14.6467 34 8.26804 15.9387 9.2734 -5.03201 72.8534
1437995 15.4897 31.734 9.13402 15.2659 7.81034 -4.77994 71.6236
1438006 15.4897 31.734 9.13402 15.2659 7.81034 -4.77994 71.6236
1438016 16.2273 29.0692 10.1546 14.9247 6.25643 -4.3091 70.3759
1438025 17.289 27.0269 11.6701 14.7542 4.53137 -3.7938 70.7402
1438035 17.289 27.0269 11.6701 14.7542 4.53137 -3.7938 70.7402
1438047 18.4449 25.4611 13.4227 14.5173 2.82229 -3.33339 71.846
1438056 18.4449 25.4611 13.4227 14.5173 2.82229 -3.33339 71.846
1438066 19.7104 23.9148 15.3608 14.1288 1.0163 -2.90002 73.1148
1438075 20.9859 22.5435 17.0197 13.6076 -0.625217 -2.60977 74.1567
1438095 21.9725 21.0944 18.2797 12.8305 -2.13246 -2.41785 74.1771
1438105 22.9091 19.655 19.4904 12.044 -3.61023 -2.23277 74.0987
1438126 23.7661 18.167 20.7209 11.2575 -5.09475 -2.02026 73.9116
1438137 23.7661 18.167 20.7209 11.2575 -5.09475 -2.02026 73.9116
1438147 24.4138 16.6604 21.8332 10.5753 -6.468 -1.76893 73.4827
1438157 24.9719 15.4487 22.7585 10.1204 -7.55848 -1.54332 73.2995
1438167 24.9719 15.4487 22.7585 10.1204 -7.55848 -1.54332 73.2995
1438177 25.3705 14.6134 23.487 9.66555 -8.4016 -1.40108 73.1364
1438187 25.6893 13.9984 24.1859 9.34337 -9.05987 -1.26169 73.2169
1438197 25.6893 13.9984 24.1859 9.34337 -9.05987 -1.26169 73.2169
1438207 25.9982 13.3925 24.8257 8.91695 -9.74741 -1.15846 73.1334
1438217 25.9982 13.3925 24.8257 8.91695 -9.74741 -1.15846 73.1334
1438227 26.2573 12.8418 25.4262 8.65162 -10.3141 -1.02929 73.1769
1438237 26.5961 12.4287 25.9971 8.37681 -10.8271 -0.95048 73.3988
1438257 26.8054 12.0432 26.2432 8.22519 -11.1776 -0.89615 73.317
1438267 26.8951 11.6852 26.6763 8.07358 -11.5275 -0.783522 73.3302
1438277 26.8951 11.6852 26.6763 8.07358 -11.5275 -0.783522 73.3302
1438287 26.8951 11.3456 27.0799 8.09253 -11.7611 -0.626907 73.4131
1438297 26.8951 11.3456 27.0799 8.09253 -11.7611 -0.626907 73.4131
1438307 26.7556 11.0151 27.3752 7.99777 -12.0031 -0.491711 73.1437
1438317 26.7456 10.7581 27.6016 7.90301 -12.2199 -0.41072 73.0083
1438327 26.7456 10.7581 27.6016 7.90301 -12.2199 -0.41072 73.0083
1438337 26.6758 10.5011 27.5918 7.84615 -12.3668 -0.359224 72.6149
1438347 26.5862 10.2349 27.6213 7.68506 -12.5776 -0.315 72.1274
1438357 26.5862 10.2349 27.6213 7.68506 -12.5776 -0.315 72.1274
1438368 26.6061 10.0238 27.4835 7.59978 -12.7125 -0.323492 71.7131
1438388 26.7257 9.95032 27.3358 7.50502 -12.7963 -0.384904 71.5169
1438398 26.8154 9.83099 27.198 7.45764 -12.8765 -0.418784 71.302
1438408 26.8154 9.83099 27.198 7.45764 -12.8765 -0.418784 71.302
1438418 26.9748 9.82181 27.0602 7.40078 -12.9153 -0.491655 71.2576
1438428 27.0545 9.7392 27.0602 7.3913 -12.9778 -0.493126 71.2452
1438438 27.0545 9.7392 27.0602 7.3913 -12.9778 -0.493126 71.2452
1438448 27.2239 9.79428 27.2177 7.3913 -13.0035 -0.504522 71.6272
1438460 27.2239 9.79428 27.2177 7.3913 -13.0035 -0.504522 71.6272
1438469 27.3634 9.73002 27.3358 7.43868 -13.0554 -0.483995 71.868
1438480 27.5129 9.7392 27.326 7.54292 -13.0187 -0.495662 72.121
1438489 27.5129 9.7392 27.326 7.54292 -13.0187 -0.495662 72.121
1438500 27.6524 9.79428 27.2079 7.49554 -13.0182 -0.570326 72.1501
1438509 27.8118 9.85853 27.2177 7.45764 -13.0323 -0.620981 72.3457
1438530 27.9314 9.91361 27.2177 7.50502 -12.9984 -0.645388 72.5678
1438557 27.9314 9.86771 27.3851 7.52397 -13.0401 -0.59624 72.7082
1438573 28.0809 9.93197 27.3752 7.53344 -13.0245 -0.638537 72.9215
1438575 28.0809 9.93197 27.3752 7.53344 -13.0245 -0.638537 72.9215
1438581 28.2304 10.0146 27.198 7.41026 -13.0411 -0.748764 72.8532
1438591 28.34 10.0513 27.0208 7.38183 -13.0257 -0.821896 72.7939
1438601 28.34 10.0513 27.0208 7.38183 -13.0257 -0.821896 72.7939
1438611 28.6688 10.1339 26.7944 7.41026 -12.9847 -0.944704 73.0074
1438620 28.6688 10.1339 26.7944 7.41026 -12.9847 -0.944704 73.0074
1438631 28.7585 10.0788 26.6369 7.27759 -13.0715 -1.01498 72.7519
1438640 28.7784 10.0421 26.6369 7.23969 -13.1138 -1.0201 72.6972
1438650 28.7784 10.0421 26.6369 7.23969 -13.1138 -1.0201 72.6972
1438662 28.8581 10.088 26.7157 7.19231 -13.1405 -1.03731 72.8542
1438670 28.8681 10.0329 26.7157 7.26812 -13.1312 -1.01199 72.8849
1438681 28.8681 10.0329 26.7157 7.26812 -13.1312 -1.01199 72.8849
1438692 28.7685 9.91361 26.7846 7.20178 -13.2236 -0.969269 72.6684
1438712 28.7087 9.90443 26.8141 7.21126 -13.2186 -0.947371 72.6385
1438722 28.7784 9.85853 26.9126 7.19231 -13.2799 -0.934555 72.7418
1438732 28.7784 9.85853 26.9126 7.19231 -13.2799 -0.934555 72.7418
1438742 28.7884 9.83099 26.9027 7.1544 -13.3144 -0.941624 72.6765
1438752 28.8083 9.82181 27.0208 7.14493 -13.3464 -0.919908 72.7959
1438764 28.8083 9.82181 27.0208 7.14493 -13.3464 -0.919908 72.7959
1438772 28.8781 9.84017 27.1291 7.18283 -13.3452 -0.905027 73.0302
1438782 28.8781 9.84017 27.1291 7.18283 -13.3452 -0.905027 73.0302
1438792 28.8382 9.73002 27.0799 7.1165 -13.424 -0.901228 72.7646
1438802 28.8283 9.75756 27.0012 7.18283 -13.3603 -0.907344 72.7698
1438812 28.8283 9.75756 27.0012 7.18283 -13.3603 -0.907344 72.7698
1438822 28.6887 9.77592 26.8633 7.26812 -13.2611 -0.895338 72.5961
1438832 28.5891 9.86771 26.7846 7.26812 -13.1837 -0.911073 72.5095
1438843 28.5891 9.86771 26.7846 7.26812 -13.1837 -0.911073 72.5095
1438852 28.3101 10.1431 26.6665 7.46711 -12.8695 -0.892638 72.5868
1438864 28.3101 10.1431 26.6665 7.46711 -12.8695 -0.892638 72.5868
1438872 28.0012 10.4001 26.4696 7.72297 -12.5175 -0.869642 72.5938
1438882 27.6424 10.804 26.1743 8.07358 -12.0158 -0.866348 72.6943
1438892 27.6424 10.804 26.1743 8.07358 -12.0158 -0.866348 72.6943
1438904 27.0944 11.2721 25.7707 8.58528 -11.3471 -0.827225 72.7225
1438912 26.4367 11.7954 25.1112 9.22018 -10.5192 -0.806337 72.5634
1438922 26.4367 11.7954 25.1112 9.22018 -10.5192 -0.806337 72.5634
1438932 25.7491 12.4838 24.2745 10.291 -9.35763 -0.755681 72.7984
1438942 25.7491 12.4838 24.2745 10.291 -9.35763 -0.755681 72.7984
1438952 24.7726 13.264 23.0539 11.6555 -7.87221 -0.686065 72.746
1438964 23.6465 14.1269 21.8825 13.4749 -6.12847 -0.495561 73.1308
1438982 22.2814 15.054 20.6323 15.6734 -4.13707 -0.209738 73.641
1438993 20.7667 15.9168 19.4117 17.8476 -2.16856 0.116789 73.9428
1439003 20.7667 15.9168 19.4117 17.8476 -2.16856 0.116789 73.9428
1439013 19.1823 16.6971 18.1025 19.8057 -0.264938 0.412434 73.7876
1439033 17.5082 17.5154 16.7216 21.4132 1.60568 0.637899 73.1585
1439043 16.0341 18.3713 15.3608 23.157 3.47399 0.845919 72.9232
1439053 16.0341 18.3713 15.3608 23.157 3.47399 0.845919 72.9232
1439065 14.6994 19.2174 14.0722 24.8132 5.2399 1.02372 72.8021
1439073 13.391 20.0149 12.9691 26.4888 6.9114 1.24589 72.8638
1439083 13.391 20.0149 12.9691 26.4888 6.9114 1.24589 72.8638
1439093 12.2758 20.754 11.9897 28.067 8.39947 1.44218 73.0866
1439113 11.2924 21.5904 11.0928 29.392 9.74451 1.55423 73.3675
1439125 10.4406 22.2712 10.433 30.4441 10.8174 1.66439 73.5889
1439134 10.4406 22.2712 10.433 30.4441 10.8174 1.66439 73.5889
1439145 9.72056 22.9325 9.71134 31.2722 11.8055 1.69695 73.6366
1439155 8.97417 22.9325 9.15464 31.2722 12.4686 1.76685 72.3335
1439167 8.97417 23.5355 9.15464 31.7398 12.6514 1.71342 73.4041
1439174 8.48244 24.2551 8.68041 31.6229 13.2512 1.55374 73.0409
1439194 8.04339 24.9067 8.23711 31.3696 13.7809 1.37615 72.5569
1439214 7.7624 25.7626 7.91753 30.9897 14.1761 1.11461 72.4322
1439215 7.7624 25.7626 7.91753 30.9897 14.1761 1.11461 72.4322
1439225 7.50775 26.6768 7.5567 30.3077 14.5457 0.766128 72.049
1439235 7.33213 27.6688 7.15464 29.4894 14.8899 0.34402 71.6449
1439255 7.2531 28.6413 6.87629 28.749 15.122 -0.0564417 71.5197
1439265 7.2531 28.6413 6.87629 28.749 15.122 -0.0564417 71.5197
1439277 7.22676 29.5944 6.70103 28.2034 15.2909 -0.400836 71.7256
1439285 7.15651 30.4989 6.46392 27.8722 15.5403 -0.69159 71.9915
1439295 7.15651 30.4989 6.46392 27.8722 15.5403 -0.69159 71.9915
1439306 7.13017 31.3061 6.20619 27.3754 15.7409 -1.01114 72.0178
1439315 7.15651 31.9285 6.14433 26.9564 15.7871 -1.2435 72.1858
1439326 7.15651 31.9285 6.14433 26.9564 15.7871 -1.2435 72.1858
1439336 7.08626 32.5704 6.09278 26.7616 15.9124 -1.40715 72.511
1439346 7.08626 32.5704 6.09278 26.7616 15.9124 -1.40715 72.511
1439355 7.07748 33.1053 5.97938 26.6544 16.0344 -1.55506 72.8166
1439366 7.09504 33.5624 5.92783 26.6739 16.1118 -1.64941 73.2592
1439386 7.12138 34 5.90722 26.4596 16.1356 -1.78693 73.4882
1439398 7.12138 34 5.90722 26.4596 16.1356 -1.78693 73.4882
1439405 7.03357 34 5.72165 26.0407 16.239 -1.91039 72.7959
1439416 7.09504 34 5.52577 25.4659 16.2461 -2.10233 72.0867
1439425 7.09504 34 5.52577 25.4659 16.2461 -2.10233 72.0867
1439435 7.10382 34 5.37113 24.8814 16.2587 -2.28108 71.3563
1439445 7.07748 34 5.20619 24.5112 16.3245 -2.40698 70.7948
1439465 7.09504 34 5.12371 24.063 16.3073 -2.54154 70.2818
1439477 7.09504 34 5.12371 24.063 16.3073 -2.54154 70.2818
1439487 7.12138 34 5.03093 23.7318 16.3054 -2.65267 69.8841
1439497 7.13895 34 4.95876 23.3032 16.2842 -2.78319 69.4009
1439507 7.13895 34 4.95876 23.3032 16.2842 -2.78319 69.4009
1439517 7.18285 34 4.83505 23.0791 16.3036 -2.88045 69.097
1439527 7.20919 34 4.7732 22.9914 16.3138 -2.92385 68.9738
1439537 7.20919 34 4.7732 22.9914 16.3138 -2.92385 68.9738
1439547 7.2531 34 4.83505 23.0499 16.258 -2.90033 69.138
1439567 7.23554 34 4.75258 23.235 16.341 -2.87072 69.2231
1439577 7.26188 34 4.86598 23.2739 16.2626 -2.83609 69.4018
1439589 7.26188 34 4.86598 23.2739 16.2626 -2.83609 69.4018
1439597 7.18285 34 4.80412 23.3713 16.3587 -2.81308 69.3583
1439607 7.21798 34 4.76289 23.4785 16.3756 -2.80234 69.4594
1439617 7.21798 34 4.76289 23.4785 16.3756 -2.80234 69.4594
1439628 7.22676 34 4.86598 23.6052 16.3249 -2.74519 69.6979
1439637 7.22676 34 4.86598 23.6052 16.3249 -2.74519 69.6979
1439647 7.23554 34 4.87629 23.5564 16.3075 -2.75652 69.6683
1439657 7.27944 34 4.80412 23.6539 16.3364 -2.7578 69.7374
1439668 7.27944 34 4.80412 23.6539 16.3364 -2.7578 69.7374
1439677 7.24432 34 4.8866 23.5467 16.295 -2.75792 69.6776
1439687 7.24432 34 4.7835 23.4006 16.338 -2.82166 69.4284
1439698 7.24432 34 4.7835 23.4006 16.338 -2.82166 69.4284
1439709 7.28822 34 4.85567 23.3129 16.2579 -2.83334 69.4568
1439729 7.24432 34 4.8866 23.2739 16.2608 -2.82771 69.4048
1439738 7.31457 34 4.92783 23.3519 16.2044 -2.80947 69.5943
1439748 7.31457 34 4.92783 23.3519 16.2044 -2.80947 69.5943
1439758 7.30579 34 4.92783 23.3616 16.2109 -2.80544 69.5952
1439768 7.31457 34 4.97938 23.4395 16.185 -2.77391 69.7335
1439778 7.31457 34 4.97938 23.4395 16.185 -2.77391 69.7335
1439788 7.34091 34 5.07217 23.5467 16.1284 -2.72772 69.9598
1439799 7.34091 34 5.07217 23.5467 16.1284 -2.72772 69.9598
1439809 7.42872 34 5.06186 23.498 16.0767 -2.75807 69.9886
1439819 7.52531 34 5.12371 23.3129 15.9601 -2.80625 69.9619
1439834 7.52531 34 5.12371 23.3129 15.9601 -2.80625 69.9619
1439843 7.79752 34 5.19588 23.0401 15.7234 -2.90465 70.0335
1439852 8.1312 34 5.40206 22.7479 15.372 -2.98401 70.2811
1439869 8.54391 34 5.62887 22.4166 14.9611 -3.08086 70.5894
1439880 8.54391 34 5.62887 22.4166 14.9611 -3.08086 70.5894
1439889 8.95661 34 5.92783 22.1633 14.525 -3.13848 71.0478
1439902 9.55372 33.7763 6.5567 21.8808 13.776 -3.11266 71.7675
1439920 10.2211 32.7357 7.35052 21.6275 12.7864 -2.91488 71.9348
1439929 10.9236 31.3547 8.60825 21.5398 11.5161 -2.51224 72.4263
1439941 10.9236 31.3547 8.60825 21.5398 11.5161 -2.51224 72.4263
1439949 11.7138 29.7597 10.732 21.5593 9.78557 -1.86721 73.7648
1439969 12.5744 28.1745 13.4639 21.5983 7.82685 -1.12517 75.8111
1439980 13.4613 26.3169 16.4021 21.345 5.73961 -0.392996 77.5252
1439990 13.4613 26.3169 16.4021 21.345 5.73961 -0.392996 77.5252
1440000 14.1813 24.7998 18.4667 20.2149 3.98089 -0.05784 77.6627
1440012 14.9189 23.3118 20.0417 18.4808 2.22531 0.0570273 76.7532
1440030 15.6038 21.8238 21.4592 16.7062 0.485179 0.146402 75.593
1440041 15.6038 21.8238 21.4592 16.7062 0.485179 0.146402 75.593
1440050 16.3765 20.258 22.729 15.0006 -1.2933 0.220875 74.3641
1440060 17.1993 18.6728 23.6838 13.5886 -2.94682 0.287188 73.1445
1440070 17.1993 18.6728 23.6838 13.5886 -2.94682 0.287188 73.1445
1440081 18.1659 17.0681 24.5304 12.262 -4.63935 0.324553 72.0263
1440092 19.0727 15.4487 25.308 11.087 -6.29089 0.3963 70.9164
1440112 19.9894 14.0076 26.2235 10.2625 -7.78303 0.529709 70.4831
1440123 19.9894 14.0076 26.2235 10.2625 -7.78303 0.529709 70.4831
1440132 20.9062 12.7133 27.3358 9.61817 -9.17859 0.708733 70.5735
1440142 21.9127 11.6944 28.4777 9.2107 -10.3391 0.858686 71.2955
1440152 21.9127 11.6944 28.4777 9.2107 -10.3391 0.858686 71.2955
1440162 22.9091 10.7765 29.3341 8.89799 -11.3216 0.948272 71.9177
1440172 23.8558 9.99622 29.905 8.58528 -12.1572 0.96174 72.3423
1440182 23.8558 9.99622 29.905 8.58528 -12.1572 0.96174 72.3423
1440192 24.7526 9.39039 30.22 8.28205 -12.8365 0.900072 72.6451
1440202 24.7526 9.39039 30.22 8.28205 -12.8365 0.900072 72.6451
1440212 25.5 8.95896 30.4268 8.08305 -13.3224 0.83272 72.9688
1440222 26.2972 8.63769 30.4563 7.84615 -13.7463 0.689723 73.2373
1440235 26.2972 8.63769 30.4563 7.84615 -13.7463 0.689723 73.2373
1440244 26.7556 8.49082 30.2988 7.62821 -13.9857 0.549504 73.1734
1440263 27.204 8.28888 29.846 7.45764 -14.1846 0.373113 72.7965
1440273 27.5826 8.25216 29.4325 7.23021 -14.3221 0.171306 72.4976
1440293 27.8617 8.37149 29.1865 7.20178 -14.2778 0.0320327 72.6214
1440303 28.1108 8.63769 29.0388 7.32497 -14.0835 -0.0789276 73.1122
1440313 28.1108 8.63769 29.0388 7.32497 -14.0835 -0.0789276 73.1122
1440323 28.3599 8.91307 28.6549 7.23021 -13.9669 -0.284561 73.1581
1440333 28.2702 9.07829 28.4777 7.30602 -13.7982 -0.32095 73.1322
1440343 28.2702 9.07829 28.4777 7.30602 -13.7982 -0.32095 73.1322
1440353 28.2304 9.36285 28.4186 7.40078 -13.5826 -0.362428 73.4126
1440363 28.2304 9.36285 28.4186 7.40078 -13.5826 -0.362428 73.4126
1440373 28.1407 9.52808 28.4186 7.47659 -13.4423 -0.361628 73.564
1440383 28.0111 9.76674 28.3005 7.48606 -13.2737 -0.406029 73.5645
1440393 28.0111 9.76674 28.3005 7.48606 -13.2737 -0.406029 73.5645
1440403 27.8716 9.70248 28.1627 7.44816 -13.2827 -0.402386 73.185
1440413 27.8716 9.70248 28.0249 7.44816 -13.2606 -0.431444 73.0472
1440423 27.6424 9.72084 28.0249 7.50502 -13.1842 -0.377272 72.8932
1440433 27.6026 9.70248 27.956 7.44816 -13.206 -0.392159 72.7092
1440444 27.6026 9.70248 27.956 7.44816 -13.206 -0.392159 72.7092
1440454 27.5428 9.6933 27.956 7.48606 -13.1812 -0.370268 72.6781
1440464 27.4132 9.64741 27.8969 7.49554 -13.1696 -0.345365 72.4531
1440475 27.4132 9.64741 27.8969 7.49554 -13.1696 -0.345365 72.4531
1440492 27.3435 9.65659 27.9363 7.45764 -13.1798 -0.33279 72.394
1440495 27.194 9.56479 27.8772 7.45764 -13.1942 -0.296268 72.0937
1440506 27.194 9.56479 27.8772 7.45764 -13.1942 -0.296268 72.0937
1440516 27.1243 9.46382 27.9068 7.42921 -13.2563 -0.261131 71.9241
1440526 27.1243 9.46382 27.9068 7.42921 -13.2563 -0.261131 71.9241
1440536 27.1143 9.37203 28.0249 7.42921 -13.3228 -0.215225 71.9404
1440547 27.1243 9.39039 28.1824 7.46711 -13.32 -0.179828 72.1642
1440566 27.1442 9.32613 28.1135 7.38183 -13.3917 -0.203223 71.9656
1440575 27.2638 9.33531 28.1529 7.28707 -13.4629 -0.24136 72.039
1440586 27.2638 9.33531 28.1529 7.28707 -13.4629 -0.24136 72.039
1440596 27.5428 9.27106 28.2021 7.30602 -13.5394 -0.27082 72.322
1440615 27.6624 9.24352 28.2316 7.28707 -13.5877 -0.287308 72.4246
1440629 27.9015 9.15173 28.3202 7.27759 -13.693 -0.300502 72.6511
1440637 27.9015 9.15173 28.3202 7.27759 -13.693 -0.300502 72.6511
1440649 28.1706 9.14255 28.2907 7.19231 -13.7804 -0.37711 72.7961
1440657 28.3599 9.14255 28.1233 7.08807 -13.8394 -0.472615 72.7139
1440668 28.3599 9.14255 28.1233 7.08807 -13.8394 -0.472615 72.7139
1440677 28.5891 9.13337 27.9461 6.97436 -13.9131 -0.578574 72.643
1440697 28.908 9.05994 27.7788 6.93645 -13.9958 -0.671266 72.6832
1440708 29.1272 9.05994 27.828 6.85117 -14.082 -0.722132 72.8663
1440718 29.1272 9.05994 27.828 6.85117 -14.082 -0.722132 72.8663
1440728 29.2866 8.97732 27.7394 6.78484 -14.1726 -0.770663 72.7882
1440738 29.5258 8.92225 27.6312 6.6427 -14.2983 -0.860991 72.7219
1440751 29.5258 8.92225 27.6312 6.6427 -14.2983 -0.860991 72.7219
1440758 29.6653 8.89471 27.3457 6.58584 -14.3225 -0.957728 72.4915
1440778 29.8945 8.86717 27.1587 6.50056 -14.39 -1.05683 72.4209
1440788 29.9244 8.87635 27.0602 6.48161 -14.3853 -1.09042 72.3426
1440798 29.9244 8.87635 27.0602 6.48161 -14.3853 -1.09042 72.3426
1440808 30.0539 8.94978 26.9913 6.46265 -14.3645 -1.14889 72.4577
1440818 30.0739 9.12419 26.9421 6.4437 -14.2759 -1.20115 72.5838
1440828 30.0739 9.12419 26.9421 6.4437 -14.2759 -1.20115 72.5838
1440838 30.034 9.42711 26.7846 6.57637 -14.0119 -1.25652 72.8221
1440848 30.034 9.42711 26.7846 6.57637 -14.0119 -1.25652 72.8221
1440860 29.8646 9.82181 26.381 6.59532 -13.7032 -1.38518 72.6627
1440868 29.7052 10.4185 25.938 6.70903 -13.2319 -1.54112 72.7707
1440878 29.7052 10.4185 25.938 6.70903 -13.2319 -1.54112 72.7707
1440888 29.5457 11.2813 25.3376 6.94593 -12.5345 -1.75286 73.1105
1440898 29.1471 12.1992 24.4713 7.27759 -11.6771 -1.96951 73.0953
1440908 29.1471 12.1992 24.4713 7.27759 -11.6771 -1.96951 73.0953
1440920 28.6389 13.3008 23.3787 7.73244 -10.6037 -2.2235 73.0508
1440939 27.9613 14.5032 22.1285 8.63266 -9.20235 -2.39738 73.2258
1440950 27.0844 15.7241 20.7012 10.0067 -7.49998 -2.46896 73.5164
1440960 27.0844 15.7241 20.7012 10.0067 -7.49998 -2.46896 73.5164
1440970 26.058 16.9449 19.5101 12.2999 -5.45472 -2.24418 74.813
1440980 24.8124 18.1573 18.2403 15.3322 -3.1235 -1.84158 76.5423
1440989 24.8124 18.1573 18.2403 15.3322 -3.1235 -1.84158 76.5423
1441001 23.3675 19.3535 16.8557 17.9742 -0.933398 -1.52632 77.551
1441009 23.3675 19.3535 16.8557 17.9742 -0.933398 -1.52632 77.551
1441019 21.7034 20.3455 15.0928 19.7375 1.06885 -1.40843 76.8793
1441029 19.8798 21.1236 13.4639 20.741 2.8324 -1.35594 75.2083
1441049 18.1061 21.7849 12.2062 21.6275 4.44224 -1.23242 73.7247
1441059 16.4907 22.3003 11.2577 22.6212 5.90791 -1.01392 72.67
1441070 16.4907 22.3003 11.2577 22.6212 5.90791 -1.01392 72.67
1441079 15.0331 22.8061 10.5567 23.761 7.26796 -0.732028 72.1569
1441091 15.0331 22.8061 10.5567 23.761 7.26796 -0.732028 72.1569
1441099 13.751 23.2437 10.0825 24.9593 8.45735 -0.40666 72.0365
1441111 12.5656 23.8272 9.58763 26.0991 9.6328 -0.146936 72.0796
1441133 11.5294 24.3816 9.1134 26.8493 10.6395 0.0107825 71.8737
1441144 10.5987 24.897 8.68041 27.3754 11.5278 0.117416 71.5515
1441150 10.5987 24.897 8.68041 27.3754 11.5278 0.117416 71.5515
1441160 9.84349 25.5778 8.30928 27.7456 12.3015 0.132955 71.4761
1441172 9.84349 25.5778 8.30928 27.7456 12.3015 0.132955 71.4761
1441180 9.25517 26.1516 7.98969 27.9989 12.923 0.122228 71.3953
1441190 8.75465 26.7935 7.74227 28.2424 13.469 0.091542 71.5328
1441211 8.29804 27.5034 7.43299 28.4665 14.0301 0.020501 71.7009
1441222 7.96436 28.0675 7.12371 28.486 14.4697 -0.0883958 71.6415
1441232 7.96436 28.0675 7.12371 28.486 14.4697 -0.0883958 71.6415
1441242 7.6219 28.8358 6.89691 28.4372 14.8883 -0.234753 71.7919
1441252 7.6219 28.8358 6.89691 28.4372 14.8883 -0.234753 71.7919
1441262 7.34969 29.4874 6.64948 28.2521 15.2429 -0.404692 71.7387
1441272 7.21798 30.1196 6.37113 28.1255 15.5413 -0.593221 71.8342
1441283 7.21798 30.1196 6.37113 28.1255 15.5413 -0.593221 71.8342
1441292 7.10382 30.8101 6.2165 27.8819 15.7514 -0.79475 72.0123
1441302 6.91064 31.3644 5.97938 27.5117 16.0194 -0.999899 71.7662
1441322 6.78771 31.8604 5.7835 27.1026 16.2131 -1.20824 71.5342
1441334 6.78771 31.8604 5.7835 27.1026 16.2131 -1.20824 71.5342
1441343 6.72624 32.405 5.62887 26.6837 16.3533 -1.43163 71.4438
1441354 6.6999 32.8913 5.51546 26.5083 16.4715 -1.58502 71.615
1441363 6.6999 32.8913 5.51546 26.5083 16.4715 -1.58502 71.615
1441374 6.67355 33.3581 5.49485 26.5181 16.555 -1.66954 72.0446
1441383 6.62087 33.7666 5.46392 26.5473 16.654 -1.73544 72.3987
1441403 6.65599 34 5.39175 26.596 16.7076 -1.78988 72.6437
1441416 6.65599 34 5.39175 26.596 16.7076 -1.78988 72.6437
1441423 6.52428 34 5.38144 26.5083 16.7794 -1.78857 72.414
1441435 6.65599 34 5.3299 26.4693 16.7288 -1.83356 72.4552
1441443 6.65599 34 5.3299 26.4693 16.7288 -1.83356 72.4552
1441455 6.59452 34 5.2165 26.3914 16.8209 -1.86697 72.2024
1441463 6.54184 34 5.2165 26.2648 16.8371 -1.88702 72.0231
1441483 6.58574 34 5.19588 26.0212 16.7958 -1.95717 71.8028
1441504 6.52428 34 5.09278 25.8458 16.872 -2.01202 71.4629
1441514 6.55062 34 4.95876 25.4659 16.892 -2.14003 70.9753
1441524 6.55062 34 4.95876 25.4659 16.892 -2.14003 70.9753
1441534 6.57696 34 4.95876 25.1736 16.8429 -2.21567 70.7094
1441544 6.64721 34 4.91753 25.0275 16.8088 -2.27408 70.5922
1441554 6.64721 34 4.91753 25.0275 16.8088 -2.27408 70.5922
1441564 6.64721 34 4.96907 24.9593 16.7703 -2.27816 70.5756
1441575 6.64721 34 4.96907 24.9593 16.7703 -2.27816 70.5756
1441584 6.76136 34 4.93814 24.9496 16.72 -2.30866 70.6491
1441594 6.86674 34 5.02062 24.9788 16.6128 -2.30025 70.8661
1441606 6.86674 34 5.02062 24.9788 16.6128 -2.30025 70.8661
1441614 7.02479 34 5.15464 25.086 16.4549 -2.26987 71.2654
1441624 7.13895 34 5.28866 25.2126 16.3264 -2.22731 71.6402
1441635 7.13895 34 5.28866 25.2126 16.3264 -2.22731 71.6402
1441644 7.34091 34 5.43299 25.3977 16.1503 -2.18442 72.1716
1441655 7.34091 34 5.43299 25.3977 16.1503 -2.18442 72.1716
1441664 7.47262 34 5.50515 25.388 16.0332 -2.19292 72.3657
1441675 7.61312 34 5.63918 25.3198 15.8696 -2.20212 72.5721
1441684 7.61312 34 5.63918 25.3198 15.8696 -2.20212 72.5721
1441694 7.68337 34 5.62887 25.2808 15.8309 -2.22618 72.593
1441705 7.68337 34 5.62887 25.2808 15.8309 -2.22618 72.593
1441716 7.68337 33.8638 5.60825 25.2613 15.8228 -2.21171 72.4168
1441726 7.8063 33.718 5.71134 25.2321 15.6733 -2.19011 72.4677
1441736 7.8063 33.718 5.71134 25.2321 15.6733 -2.19011 72.4677
1441745 7.85021 33.5332 5.65979 25.0373 15.6285 -2.22384 72.0804
1441755 7.92924 33.3776 5.65979 25.0665 15.5675 -2.20327 72.0331
1441774 7.92924 33.3776 5.65979 25.0665 15.5675 -2.20327 72.0331
1441777 8.02583 33.3679 5.76289 25.0178 15.4476 -2.20571 72.1743
1441787 7.91167 33.29 5.71134 25.0373 15.533 -2.17924 71.9503
1441807 7.89411 33.2609 5.70103 24.9106 15.5282 -2.20367 71.7666
1441827 7.7624 33.0664 5.60825 24.745 15.6081 -2.20748 71.182
1441838 7.85899 33.1539 5.76289 24.5989 15.4575 -2.23843 71.3746
1441848 7.85899 33.1539 5.76289 24.5989 15.4575 -2.23843 71.3746
1441858 8.20145 33.115 5.96907 24.3358 15.1073 -2.3062 71.6213
1441868 8.93027 33.1053 6.13402 23.8682 14.5442 -2.50563 72.0378
1441878 8.93027 33.1053 6.13402 23.8682 14.5442 -2.50563 72.0378
1441888 9.84349 33.0566 6.45361 23.0791 13.7502 -2.76824 72.4328
1441898 9.84349 33.0566 6.45361 23.0791 13.7502 -2.76824 72.4328
1441913 10.8533 32.9691 6.76289 22.0367 12.8713 -3.10296 72.622
1441918 12.0563 32.5315 7.30928 20.7994 11.6805 -3.40025 72.6965
1441938 13.2417 31.7534 7.98969 19.5037 10.3553 -3.62162 72.4886
1441948 14.4623 30.8976 8.91753 18.2762 8.88791 -3.75573 72.5536
1441968 15.8233 30.0126 10.2577 16.9526 7.14757 -3.82475 73.0463
1441992 17.1295 28.9428 12.2887 15.7586 5.15492 -3.64782 74.1196
1441999 18.7538 27.659 15.4639 14.8205 2.693 -3.1543 76.6973
1442013 18.7538 27.659 15.4639 14.8205 2.693 -3.1543 76.6973
1442020 20.3283 26.0641 18.8211 13.9108 0.260845 -2.58968 79.1242
1442029 21.4543 24.1287 21.0851 12.8495 -1.74841 -2.19732 79.5176
1442039 21.4543 24.1287 21.0851 12.8495 -1.74841 -2.19732 79.5176
1442052 22.2515 21.8724 22.4337 11.7882 -3.51792 -1.89583 78.3458
1442059 22.2515 21.8724 22.4337 11.7882 -3.51792 -1.89583 78.3458
1442072 22.9291 19.091 23.2015 10.5942 -5.42282 -1.62717 75.8157
1442079 23.4273 16.6145 23.7626 9.67503 -7.11098 -1.34817 73.4794
1442099 23.9754 14.6593 24.1465 8.74638 -8.63871 -1.20411 71.5275
1442109 24.5932 13.0896 24.7076 8.10201 -9.96885 -1.03697 70.4924
1442119 24.5932 13.0896 24.7076 8.10201 -9.96885 -1.03697 70.4924
1442130 25.1612 11.7495 25.2588 7.62821 -11.1187 -0.864704 69.7977
1442140 25.1612 11.7495 25.2588 7.62821 -11.1187 -0.864704 69.7977
1442151 25.9185 10.7214 25.8593 7.27759 -12.1025 -0.753049 69.7768
1442161 26.7057 9.95032 26.2727 6.92698 -12.9199 -0.742178 69.8558
1442173 26.7057 9.95032 26.2727 6.92698 -12.9199 -0.742178 69.8558
1442180 27.5926 9.39957 26.8338 6.79431 -13.5345 -0.714535 70.6203
1442194 28.34 8.99568 27.2866 6.66165 -14.0176 -0.712793 71.2839
1442201 28.34 8.99568 27.2866 6.66165 -14.0176 -0.712793 71.2839
1442210 29.0774 8.74784 27.7591 6.6427 -14.3457 -0.710967 72.227
1442233 29.5856 8.59179 28.0938 6.58584 -14.584 -0.720121 72.857
1442241 29.9742 8.34395 28.3399 6.47213 -14.8701 -0.719156 73.1302
1442250 29.9742 8.34395 28.3399 6.47213 -14.8701 -0.719156 73.1302
1442261 30.044 8.08693 28.3891 6.4437 -15.0426 -0.678025 72.9637
1442280 30.044 7.77484 28.3891 6.35842 -15.2618 -0.634854 72.5663
1442294 30.0539 7.71976 28.3596 6.27313 -15.3373 -0.650696 72.4064
1442300 30.0539 7.71976 28.3596 6.27313 -15.3373 -0.650696 72.4064
1442312 30.044 7.64633 28.5072 6.32051 -15.3701 -0.592102 72.518
1442320 30.0938 7.63715 28.5171 6.28261 -15.4042 -0.606208 72.5306
1442330 30.0938 7.63715 28.5171 6.28261 -15.4042 -0.606208 72.5306
1442342 30.1436 7.53618 28.5171 6.28261 -15.4671 -0.59605 72.4795
1442352 30.2532 7.527 28.5663 6.35842 -15.4508 -0.589128 72.7049
1442362 30.2532 7.527 28.5663 6.35842 -15.4508 -0.589128 72.7049
1442374 30.4426 7.61879 28.7238 6.37737 -15.4349 -0.606904 73.1625
1442381 30.4426 7.61879 28.7238 6.37737 -15.4349 -0.606904 73.1625
1442391 30.5621 7.60043 28.7336 6.33946 -15.4829 -0.632777 73.2357
1442410 30.7016 7.59125 28.6844 6.26366 -15.5416 -0.685028 73.241
1442412 30.7016 7.59125 28.6844 6.26366 -15.5416 -0.685028 73.241
1442422 30.6917 7.56371 28.4482 6.22575 -15.546 -0.736629 72.9293
1442432 30.6917 7.56371 28.4482 6.22575 -15.546 -0.736629 72.9293
1442443 30.602 7.50864 28.5368 6.18785 -15.5976 -0.697331 72.8353
1442455 30.3828 7.4811 28.7336 6.27313 -15.5626 -0.588116 72.8706
1442474 30.1835 7.33423 28.9305 6.33946 -15.6071 -0.463208 72.7877
1442482 29.9642 7.32505 29.1963 6.45318 -15.5549 -0.337234 72.9388
1442493 29.9642 7.32505 29.1963 6.45318 -15.5549 -0.337234 72.9388
1442502 29.8746 7.32505 29.3735 6.45318 -15.5663 -0.282015 73.0263
1442513 29.8746 7.32505 29.3735 6.45318 -15.5663 -0.282015 73.0263
1442522 29.6653 7.29752 29.5113 6.48161 -15.5565 -0.199419 72.9557
1442532 29.6254 7.32505 29.6589 6.57637 -15.5027 -0.14658 73.1858
1442553 29.5756 7.23326 29.5999 6.58584 -15.5342 -0.128053 72.9946
1442562 29.476 7.26998 29.718 6.57637 -15.5214 -0.0927365 73.0403
1442573 29.476 7.26998 29.718 6.57637 -15.5214 -0.0927365 73.0403
1442582 29.456 7.29752 29.8558 6.66165 -15.4743 -0.0483307 73.271
1442593 29.456 7.29752 29.8558 6.66165 -15.4743 -0.0483307 73.271
1442602 29.2866 7.26998 29.9936 6.69955 -15.4645 0.0279665 73.2498
1442614 29.2368 7.32505 30.1118 6.70903 -15.4377 0.0529253 73.3827
1442622 29.2368 7.32505 30.1118 6.70903 -15.4377 0.0529253 73.3827
1442635 29.2268 7.31587 30.0527 6.75641 -15.4077 0.0544739 73.3518
1442643 29.1671 7.19654 29.8657 6.6806 -15.4834 0.0375795 72.9099
1442655 29.1671 7.19654 29.8657 6.6806 -15.4834 0.0375795 72.9099
1442663 29.1272 7.31587 29.718 6.59532 -15.4399 -0.0267497 72.7564
1442683 29.1172 7.26998 29.6589 6.57637 -15.4669 -0.0313729 72.6225
1442697 29.1372 7.2608 29.6393 6.62375 -15.4457 -0.0278601 72.661
1442704 29.1372 7.2608 29.6393 6.62375 -15.4457 -0.0278601 72.661
1442717 29.2667 7.32505 29.4719 6.53846 -15.4524 -0.120116 72.6021
1442724 29.2667 7.38013 29.2061 6.48161 -15.4183 -0.198887 72.3346
1442737 29.2667 7.38013 29.2061 6.48161 -15.4183 -0.198887 72.3346
1442744 29.3265 7.4352 29.1372 6.41527 -15.4234 -0.250821 72.3142
1442765 29.3664 7.47192 29.1372 6.43423 -15.3976 -0.262428 72.4097
1442774 29.466 7.527 29.3735 6.57637 -15.3326 -0.214514 72.9428
1442784 29.466 7.527 29.3735 6.57637 -15.3326 -0.214514 72.9428
1442795 29.5158 7.60961 29.5014 6.56689 -15.3158 -0.216637 73.1938
1442804 29.4361 7.60961 29.59 6.63322 -15.2804 -0.168377 73.269
1442814 29.4361 7.60961 29.59 6.63322 -15.2804 -0.168377 73.269
1442824 29.3664 7.71058 29.6196 6.66165 -15.2041 -0.162705 73.3582
1442835 29.3664 7.71058 29.6196 6.66165 -15.2041 -0.162705 73.3582
1442844 29.3265 7.78402 29.6196 6.72798 -15.1223 -0.155795 73.4581
1442855 29.2966 7.89417 29.5802 6.77536 -15.027 -0.170343 73.5463
1442866 29.2966 7.89417 29.5802 6.77536 -15.027 -0.170343 73.5463
1442874 29.2966 8.07775 29.3636 6.6806 -14.9492 -0.271753 73.4186
1442885 29.2468 8.25216 28.8321 6.57637 -14.8306 -0.430098 72.9074
1442905 29.0973 8.43575 28.2907 6.52899 -14.6585 -0.562534 72.3527
1442916 29.0973 8.43575 28.2907 6.52899 -14.6585 -0.562534 72.3527
1442926 28.9578 8.62851 27.8871 6.56689 -14.4535 -0.652201 72.0403
1442935 28.9678 9.02322 27.4441 6.60479 -14.1532 -0.82081 72.0399
1442955 29.0275 9.49136 26.696 6.58584 -13.8043 -1.09408 71.8008
1442965 29.1671 10.4093 25.8396 6.74693 -13.1128 -1.45292 72.1629
1442975 29.1671 10.4093 25.8396 6.74693 -13.1128 -1.45292 72.1629
1442985 29.1272 11.4282 24.8946 6.95541 -12.3051 -1.80346 72.4054
1443006 29.0774 12.594 23.6149 7.25864 -11.317 -2.23263 72.5449
1443017 28.8581 13.9249 22.227 7.79877 -10.0817 -2.62825 72.8088
1443027 28.8581 13.9249 22.227 7.79877 -10.0817 -2.62825 72.8088
1443037 28.5094 15.155 20.9079 8.70847 -8.7178 -2.8755 73.2808
1443052 27.8916 16.3116 19.579 10.3668 -7.0103 -2.88419 74.1489
1443068 27.0445 17.4765 18.4667 13.6076 -4.70888 -2.43751 76.5954
1443077 27.0445 17.4765 18.4667 13.6076 -4.70888 -2.43751 76.5954
1443088 25.9285 18.4783 17.6005 17.8963 -2.23846 -1.67265 79.9035
1443097 24.4836 19.4314 16.433 20.663 -0.25373 -1.26259 81.011
1443108 24.4836 19.4314 16.433 20.663 -0.25373 -1.26259 81.011
1443118 22.9689 19.9954 14.7216 21.3547 1.1575 -1.30717 79.0407
1443128 21.2948 20.3844 13.2784 21.3937 2.35914 -1.37664 76.3513
1443149 19.6606 20.9388 12.0619 21.4132 3.58744 -1.44268 74.0744
1443158 19.6606 20.9388 12.0619 21.4132 3.58744 -1.44268 74.0744
1443169 17.9566 21.5126 10.9175 21.384 4.88444 -1.49805 71.7707
1443179 16.3765 22.1545 10.0619 21.4911 6.13806 -1.4935 70.084
1443192 16.3765 22.1545 10.0619 21.4911 6.13806 -1.4935 70.084
1443198 15.1472 22.8061 9.3299 21.6762 7.25252 -1.51114 68.9594
1443208 13.9442 23.4577 8.73196 22.2023 8.40836 -1.41967 68.3361
1443218 13.9442 23.4577 8.73196 22.2023 8.40836 -1.41967 68.3361
1443228 13.0486 24.2065 8.40206 22.9914 9.3765 -1.28079 68.6485
1443248 12.0563 24.7414 8.01031 24.0533 10.4297 -1.03123 68.8613
1443259 11.2133 25.2666 7.85567 25.2223 11.2927 -0.733612 69.5579
1443280 10.5021 25.9474 7.63918 26.255 12.1053 -0.544877 70.3436
1443293 10.0455 26.599 7.49485 27.0636 12.6829 -0.439442 71.2029
1443300 10.0455 26.599 7.49485 27.0636 12.6829 -0.439442 71.2029
1443309 9.58884 27.2797 7.18557 27.6287 13.2996 -0.429888 71.6828
1443319 9.58884 27.2797 7.18557 27.6287 13.2996 -0.429888 71.6828
1443333 9.14979 27.9508 7.04124 28.0865 13.7918 -0.409706 72.2284
1443341 8.72831 28.6705 6.83505 28.3106 14.2732 -0.46588 72.5444
1443353 8.72831 28.6705 6.83505 28.3106 14.2732 -0.46588 72.5444
1443360 8.3595 29.4777 6.51546 28.2034 14.7493 -0.644664 72.5561
1443372 8.03461 30.2265 6.26804 27.843 15.1187 -0.860165 72.3722
1443380 8.03461 30.2265 6.26804 27.843 15.1187 -0.860165 72.3722
1443393 7.79752 30.917 5.98969 27.3851 15.4374 -1.11107 72.0894
1443414 7.52531 31.5395 5.74227 26.937 15.7535 -1.33507 71.744
1443421 7.35847 32.0744 5.56701 26.6642 15.9819 -1.50738 71.664
1443440 7.12138 32.5023 5.4433 26.4791 16.2192 -1.61461 71.5461
1443451 6.94576 32.8816 5.29897 26.4693 16.4487 -1.68845 71.5957
1443461 6.94576 32.8816 5.29897 26.4693 16.4487 -1.68845 71.5957
1443472 6.85795 33.1442 5.3299 26.635 16.5323 -1.6752 71.967
1443482 6.85795 33.1442 5.3299 26.635 16.5323 -1.6752 71.967
1443492 6.71746 33.29 5.27835 26.7616 16.6751 -1.65881 72.0475
1443503 6.59452 33.397 5.26804 27.0539 16.7978 -1.59092 72.3135
1443512 6.59452 33.397 5.26804 27.0539 16.7978 -1.59092 72.3135
1443523 6.47159 33.4457 5.2268 27.0441 16.8973 -1.58883 72.1882
1443532 6.47159 33.4262 5.24742 27.0831 16.8875 -1.57153 72.2283
1443545 6.47159 33.4262 5.24742 27.0831 16.8875 -1.57153 72.2283
1443552 6.48915 33.4067 5.17526 26.9857 16.9061 -1.61018 72.0568
1443565 6.48915 33.4067 5.17526 26.9857 16.9061 -1.61018 72.0568
1443572 6.4189 33.3484 5.15464 26.9857 16.9525 -1.591 71.9076
1443584 6.49793 33.5235 5.23711 27.0052 16.8804 -1.61474 72.2637
1443592 6.49793 33.5235 5.23711 27.0052 16.8804 -1.61474 72.2637
1443604 6.53306 33.6207 5.19588 26.9077 16.8839 -1.67114 72.2574
1443613 6.5155 33.6791 5.17526 26.7616 16.8962 -1.71722 72.1314
1443624 6.5155 33.6791 5.17526 26.7616 16.8962 -1.71722 72.1314
1443633 6.55062 33.893 5.15464 26.7421 16.9096 -1.77222 72.3404
1443645 6.55062 33.893 5.15464 26.7421 16.9096 -1.77222 72.3404
1443653 6.68233 34 5.15464 26.7811 16.8498 -1.8067 72.6181
1443665 6.68233 34 5.26804 26.7811 16.7846 -1.7805 72.7315
1443673 6.68233 34 5.26804 26.7811 16.7846 -1.7805 72.7315
1443683 6.77014 34 5.29897 26.6739 16.7043 -1.81404 72.743
1443693 6.85795 34 5.34021 26.7324 16.6371 -1.80693 72.9305
1443707 6.85795 34 5.34021 26.7324 16.6371 -1.80693 72.9305
1443714 7.03357 34 5.38144 26.6252 16.5012 -1.85382 73.0402
1443727 7.20919 34 5.40206 26.4109 16.3648 -1.93015 73.0221
1443747 7.34969 33.8541 5.4433 26.1089 16.2083 -1.98986 72.756
1443754 7.34969 33.8541 5.4433 26.1089 16.2083 -1.98986 72.756
1443768 7.49897 33.611 5.42268 25.8751 16.0772 -2.0327 72.4077
1443774 7.75362 33.3192 5.63918 25.7679 15.761 -2.00036 72.4799
1443784 7.75362 33.3192 5.63918 25.7679 15.761 -2.00036 72.4799
1443794 8.06095 33.0372 5.71134 25.6218 15.4929 -2.02227 72.4313
1443811 8.39463 32.5995 5.96907 25.5633 15.0976 -1.95689 72.5266
1443815 8.39463 32.5995 5.96907 25.5633 15.0976 -1.95689 72.5266
1443824 8.78099 31.9674 6.2268 25.3685 14.6274 -1.89784 72.3437
1443834 8.78099 31.9674 6.2268 25.3685 14.6274 -1.89784 72.3437
1443844 9.30785 30.917 6.59794 25.008 13.9283 -1.79984 71.8309
1443855 10.0103 29.6333 7.03093 24.5501 13.037 -1.69798 71.2247
1443875 10.7567 28.0675 7.5567 24.2774 12.0409 -1.48393 70.6583
1443886 11.749 28.0675 8.14433 24.2774 11.2308 -1.5355 72.2382
1443895 11.749 26.7643 8.14433 23.9559 10.914 -1.36229 70.6135
1443906 13.0925 25.8598 8.80412 22.9914 9.52491 -1.51738 70.7478
1443917 13.0925 25.8598 8.80412 22.9914 9.52491 -1.51738 70.7478
1443926 14.4799 24.9457 9.41237 21.5203 8.02102 -1.81062 70.3582
1443939 15.9199 23.8467 10.1753 19.9908 6.34264 -2.05924 69.9327
1443945 15.9199 23.8467 10.1753 19.9908 6.34264 -2.05924 69.9327
1443955 17.3288 22.5824 11.1856 18.5587 4.53184 -2.1894 69.6555
1443980 18.8933 21.036 12.5876 17.302 2.45531 -2.15695 69.819
1443987 20.5774 19.4897 14.567 16.2798 0.220385 -1.9503 70.9139
1443997 20.5774 19.4897 14.567 16.2798 0.220385 -1.9503 70.9139
1444007 22.1917 17.8364 17.3445 15.3133 -2.19663 -1.52098 72.6859
1444018 23.7163 16.2565 20.6717 14.4225 -4.56558 -0.974844 75.067
1444027 23.7163 16.2565 20.6717 14.4225 -4.56558 -0.974844 75.067
1444037 25.0217 14.8337 23.4968 13.6739 -6.49484 -0.522807 77.0261
1444047 25.9484 13.6496 25.5049 12.8305 -8.01107 -0.242998 77.9334
1444057 25.9484 13.6496 25.5049 12.8305 -8.01107 -0.242998 77.9334
1444067 26.4267 12.6857 26.8633 11.8261 -9.24728 -0.0815597 77.8019
1444087 26.7655 11.9147 27.6705 10.8216 -10.2691 -0.036554 77.1724
1444098 26.9349 11.3548 28.3005 9.93088 -11.0917 -0.0114244 76.5211
1444118 27.1143 10.8224 28.5368 9.19175 -11.7746 -0.0412613 75.6652
1444129 27.1043 10.3542 28.7632 8.5379 -12.3648 -0.0315973 74.7596
1444138 27.1043 10.3542 28.7632 8.5379 -12.3648 -0.0315973 74.7596
1444151 27.2438 9.98704 28.9305 8.18729 -12.7776 -0.0228167 74.3487
1444158 27.2438 9.98704 28.9305 8.18729 -12.7776 -0.0228167 74.3487
1444168 27.3136 9.53726 29.0388 7.84615 -13.2124 0.00693619 73.7358
1444178 27.493 9.34449 29.0979 7.63768 -13.459 -0.02078 73.573
1444198 27.5428 9.2068 29.3144 7.57135 -13.6073 0.0277394 73.6354
1444210 27.6723 9.07829 29.4325 7.62821 -13.683 0.063023 73.8114
1444219 27.6723 9.07829 29.4325 7.62821 -13.683 0.063023 73.8114
1444229 27.8916 9.05076 29.3932 7.60925 -13.7348 0.0121915 73.9447
1444239 27.8916 9.05076 29.3932 7.60925 -13.7348 0.0121915 73.9447
1444249 28.0709 9.12419 29.0191 7.47659 -13.7362 -0.142369 73.6908
1444259 28.2902 9.17927 28.5761 7.30602 -13.7628 -0.324586 73.3516
1444270 28.2902 9.17927 28.5761 7.30602 -13.7628 -0.324586 73.3516
1444279 28.4795 9.2068 27.9658 7.13545 -13.774 -0.532714 72.7876
1444289 28.7186 9.2068 27.2965 7.13545 -13.7073 -0.724222 72.3574
1444299 28.7186 9.23434 27.2965 6.99331 -13.7687 -0.760602 72.2428
1444315 28.888 9.44546 26.8141 6.81327 -13.7031 -0.980972 71.9609
1444323 28.888 9.44546 26.8141 6.81327 -13.7031 -0.980972 71.9609
1444333 29.1172 9.68412 26.4007 6.76589 -13.5713 -1.17444 71.9679
1444342 29.2368 9.96868 25.8888 6.65217 -13.417 -1.39334 71.7465
1444349 29.2368 9.96868 25.8888 6.65217 -13.417 -1.39334 71.7465
1444364 29.2268 10.2991 25.3573 6.55741 -13.2024 -1.5981 71.4407
1444370 29.2268 10.2991 27.3851 6.55741 -13.528 -1.13998 73.4685
1444380 29.1571 10.5103 24.8651 6.57637 -12.9856 -1.73521 71.1088
1444389 29.0275 10.8224 24.4812 6.61427 -12.7112 -1.85096 70.9454
1444409 28.9179 11.2905 24.2056 6.75641 -12.3213 -1.9488 71.1704
1444420 28.7685 11.9055 23.8118 6.9175 -11.8192 -2.08912 71.4033
1444434 28.7685 11.9055 23.8118 6.9175 -11.8192 -2.08912 71.4033
1444440 28.6688 12.5756 23.487 7.05017 -11.3295 -2.23747 71.7816
1444455 28.6688 12.5756 23.487 7.05017 -11.3295 -2.23747 71.7816
1444460 28.4197 13.2273 23.0932 7.27759 -10.764 -2.34863 72.0178
1444470 28.2104 14.1544 22.6699 7.48606 -10.0798 -2.52524 72.5209
1444481 28.2104 14.1544 22.6699 7.48606 -10.0798 -2.52524 72.5209
1444490 27.9513 14.9163 22.2959 7.68506 -9.48744 -2.65346 72.8486
1444501 27.6624 15.4946 21.8726 7.79877 -9.00803 -2.77754 72.8284
1444510 27.6624 15.4946 21.8726 7.79877 -9.00803 -2.77754 72.8284
1444522 27.3236 15.8893 21.5182 7.91249 -8.61742 -2.84584 72.6436
1444547 27.0445 16.0086 21.1836 7.89353 -8.43125 -2.90643 72.1303
1444551 26.8453 16.2657 21.0064 7.92196 -8.21219 -2.95309 72.0392
1444571 26.7057 16.4217 20.8292 7.88406 -8.08357 -3.00962 71.8407
1444582 26.6061 16.3666 20.8784 7.84615 -8.11457 -2.9809 71.6973
1444592 26.6061 16.3666 20.8784 7.84615 -8.11457 -2.9809 71.6973
1444602 26.626 16.183 20.9178 7.77982 -8.24431 -2.96017 71.5067
1444612 26.626 16.183 20.9178 7.77982 -8.24431 -2.96017 71.5067
1444622 26.6161 15.9536 20.9965 7.75139 -8.3807 -2.90708 71.3175
1444632 26.7556 15.8159 21.0753 7.69454 -8.52257 -2.90189 71.3413
1444644 26.7556 15.8159 21.0753 7.69454 -8.52257 -2.90189 71.3413
1444652 26.9648 15.7333 21.2721 7.59978 -8.69915 -2.89776 71.57
1444662 27.2239 15.4671 21.4395 7.51449 -8.9615 -2.87606 71.645
1444673 27.2239 15.4671 21.4395 7.51449 -8.9615 -2.87606 71.645
1444682 27.4132 15.0815 21.7053 7.38183 -9.30932 -2.80958 71.5819
1444694 27.4132 15.0815 21.7053 7.38183 -9.30932 -2.80958 71.5819
1444702 27.7022 14.4206 21.6757 7.1165 -9.81485 -2.8197 70.9151
1444716 27.9414 13.6129 21.8332 6.87012 -10.4229 -2.74366 70.2576
1444732 28.2104 13.0254 22.2762 6.81327 -10.8951 -2.59075 70.3253
1444743 28.5891 12.8693 22.8668 6.94593 -11.0987 -2.45099 71.2712
1444758 28.5891 12.8693 22.8668 6.94593 -11.0987 -2.45099 71.2712
1444763 29.2368 13.209 23.4181 7.09755 -11.0841 -2.4527 72.9614
1444773 29.5158 13.209 23.5263 7.36288 -11.0272 -2.41168 73.614
1444783 29.5158 13.6037 23.5263 7.36288 -10.8351 -2.47882 74.0087
1444793 29.5557 14.0259 23.4279 7.50502 -10.5525 -2.54622 74.5145
1444803 29.5557 14.0259 23.4279 7.50502 -10.5525 -2.54622 74.5145
1444813 29.3962 14.3839 23.0834 7.60925 -10.2341 -2.63603 74.4728
1444823 29.0973 14.7786 22.6995 7.73244 -9.85284 -2.71385 74.3078
1444845 28.7784 15.311 22.1876 7.91249 -9.34853 -2.82843 74.1895
1444866 28.2902 15.8526 21.5478 8.10201 -8.76896 -2.94602 73.7925
1444874 27.7321 16.4951 20.6618 8.29153 -8.06474 -3.13072 73.1806
1444894 27.1143 17.0584 19.8547 8.49052 -7.38442 -3.27384 72.5178
1444908 26.3669 17.8169 18.9687 8.75585 -6.52318 -3.43338 71.9085
1444914 26.3669 17.8169 18.9687 8.75585 -6.52318 -3.43338 71.9085
1444924 25.6395 18.6047 18.1222 9.24861 -5.55344 -3.53419 71.615
1444934 25.6395 18.6047 18.1222 9.24861 -5.55344 -3.53419 71.615
1444946 24.653 19.5481 17.187 10.0067 -4.30188 -3.57323 71.3948
1444957 23.5967 20.6665 16.0825 10.8501 -2.86628 -3.65134 71.1957
1444966 23.5967 20.6665 16.0825 10.8501 -2.86628 -3.65134 71.1957
1444977 22.371 22.0864 15.1856 12.1483 -1.15681 -3.57779 71.7913
1444985 20.8962 23.5938 14.2268 13.6265 0.724775 -3.44953 72.3434
1445006 19.3816 25.1207 13.299 15.4744 2.70025 -3.21982 73.2756
1445017 17.8869 26.599 12.299 17.3312 4.63609 -3.00656 74.116
1445027 17.8869 26.599 12.299 17.3312 4.63609 -3.00656 74.116
1445037 16.5697 27.8146 11.3196 19.2407 6.39339 -2.76686 74.9447
1445058 15.4458 28.9331 10.3402 20.9066 7.95157 -2.60468 75.6256
1445068 14.3745 29.8959 9.42268 22.2315 9.32842 -2.49251 75.9246
1445080 14.3745 29.8959 9.42268 22.2315 9.32842 -2.49251 75.9246
1445087 13.2681 30.6058 8.64948 23.1375 10.5159 -2.39626 75.6609
1445097 12.2758 30.8976 8.03093 23.7903 11.4612 -2.27061 74.9946
1445107 12.2758 30.8976 8.03093 23.7903 11.4612 -2.27061 74.9946
1445117 11.4504 31.0532 7.50515 24.0923 12.2096 -2.2077 74.101
1445138 10.625 31.0824 7.18557 24.4138 12.852 -2.06831 73.3067
1445147 9.97521 31.1699 6.8866 24.7547 13.4169 -1.95856 72.7864
1445158 9.97521 31.1699 6.8866 24.7547 13.4169 -1.95856 72.7864
1445171 9.40444 31.0824 6.65979 25.0373 13.8727 -1.82654 72.1839
1445178 8.8249 31.024 6.49485 25.1639 14.288 -1.71804 71.5077
1445188 8.8249 31.024 6.49485 25.1639 14.288 -1.71804 71.5077
1445198 8.43853 30.9657 6.30928 25.3198 14.6191 -1.64187 71.0333
1445209 8.43853 30.9657 6.30928 25.3198 14.6191 -1.64187 71.0333
1445218 8.16632 30.9365 6.2165 25.3782 14.8279 -1.59301 70.6975
1445232 7.89411 30.8295 6.17526 25.4951 15.0067 -1.50295 70.394
1445242 7.89411 30.8295 6.17526 25.4951 15.0067 -1.50295 70.394
1445259 7.68337 30.6934 6.25773 26.3037 15.1738 -1.22965 70.9382
1445285 7.71849 30.742 6.38144 26.4693 15.1138 -1.17997 71.3113
1445289 7.71849 30.742 6.38144 26.4693 15.1138 -1.17997 71.3113
1445302 7.77996 30.5572 6.47423 26.6642 15.0286 -1.09102 71.4756
1445309 7.95558 30.6253 6.63918 26.7519 14.8608 -1.08164 71.9719
1445324 7.95558 30.6253 6.63918 26.7519 14.8608 -1.08164 71.9719
1445330 8.09607 30.6156 6.63918 26.7616 14.7831 -1.1047 72.1124
1445340 8.19267 30.5572 6.71134 26.6642 14.668 -1.11771 72.1254
1445359 8.29804 30.635 6.82474 26.5668 14.5452 -1.14931 72.3246
1445370 8.29804 30.635 6.82474 26.5668 14.5452 -1.14931 72.3246
1445380 8.41219 30.5378 6.86598 26.4109 14.4235 -1.17818 72.2268
1445390 8.54391 30.3724 6.90722 26.3914 14.302 -1.16687 72.215
1445401 8.54391 30.3724 6.90722 26.3914 14.302 -1.16687 72.215
1445413 8.62293 30.2557 7 26.3817 14.1898 -1.14108 72.2603
1445421 8.6844 30.1098 7.03093 26.5181 14.1384 -1.08758 72.3432
1445435 8.6844 30.1098 7.03093 26.5181 14.1384 -1.08758 72.3432
1445441 8.62293 29.8667 7.17526 26.8298 14.1039 -0.927912 72.4947
1445451 8.62293 29.8667 7.17526 26.8298 14.1039 -0.927912 72.4947
1445461 8.6405 29.6722 7.19588 27.0149 14.0819 -0.848397 72.5235
1445471 8.49122 29.4971 7.25773 27.2292 14.135 -0.724674 72.4753
1445483 8.49122 29.4971 7.25773 27.2292 14.135 -0.724674 72.4753
1445490 8.36829 29.3221 7.24742 27.3948 14.2056 -0.632101 72.3326
1445503 8.29804 29.2443 7.27835 27.6287 14.2501 -0.545619 72.4493
1445510 8.29804 29.2443 7.27835 27.6287 14.2501 -0.545619 72.4493
1445526 8.25413 29.2054 7.40206 27.8917 14.2402 -0.446529 72.7533
1445530 8.25413 29.2054 7.40206 27.8917 14.2402 -0.446529 72.7533
1445542 8.19267 29.2248 7.31959 28.0573 14.3452 -0.420486 72.7944
1445552 8.12242 29.2735 7.27835 28.0183 14.4069 -0.433164 72.6926
1445563 8.12242 29.2735 7.27835 28.0183 14.4069 -0.433164 72.6926
1445574 8.06095 29.3707 7.2165 27.9599 14.4795 -0.465915 72.608
1445581 7.86777 29.3804 7.14433 28.0573 14.6397 -0.42372 72.4498
1445599 7.86777 29.3804 7.14433 28.0573 14.6397 -0.42372 72.4498
1445611 7.84143 29.3124 7.20619 28.184 14.6286 -0.36467 72.5439
1445622 7.77996 29.3221 7.12371 28.2424 14.7171 -0.359314 72.4682
1445633 7.79752 29.3221 7.19588 28.2521 14.6694 -0.345521 72.5676
1445653 7.92924 29.2346 7.25773 28.3398 14.5638 -0.322883 72.7614
1445663 8.06095 29.1178 7.38144 28.408 14.4184 -0.285603 72.9683
1445673 8.06095 29.1178 7.38144 28.408 14.4184 -0.285603 72.9683
1445686 8.1312 29.0789 7.35052 28.6029 14.4198 -0.257663 73.1635
1445694 8.1312 29.0789 7.35052 28.6029 14.4198 -0.257663 73.1635
1445707 8.1751 28.8455 7.42268 28.5249 14.3119 -0.220581 72.9682
1445713 8.21901 28.6608 7.5567 28.4275 14.1745 -0.184363 72.864
1445723 8.21901 28.6608 7.5567 28.4275 14.1745 -0.184363 72.864
1445733 8.39463 28.3495 7.58763 28.2814 13.9949 -0.180787 72.6132
1445743 8.59659 28.0286 7.7835 28.2424 13.7269 -0.123731 72.6511
1445763 8.96539 27.6396 7.97938 28.2521 13.3679 -0.0769088 72.8365
1445775 8.96539 27.6396 7.97938 28.2521 13.3679 -0.0769088 72.8365
1445783 9.26395 27.1339 8.12371 28.0183 13.0151 -0.0528869 72.5399
1445797 9.58884 26.492 8.35052 27.8235 12.5861 0.0193441 72.2548
1445803 9.58884 26.492 8.35052 27.8235 12.5861 0.0193441 72.2548
1445814 9.98399 25.6653 8.52577 27.3266 12.0564 0.0426078 71.5017
1445826 10.3264 24.6831 8.79381 26.8006 11.4595 0.124258 70.6039
1445834 10.3264 24.6831 8.79381 26.8006 11.4595 0.124258 70.6039
1445845 10.9148 23.6522 9.26804 26.1966 10.5902 0.192268 70.0316
1445864 11.749 22.7769 9.91753 25.5049 9.51248 0.192257 69.9483
1445875 12.9256 22.1447 10.6495 24.3943 8.18805 -0.00569165 70.1141
1445885 12.9256 22.1447 10.6495 24.3943 8.18805 -0.00569165 70.1141
1445897 14.3042 21.3862 11.6495 22.9914 6.54895 -0.223833 70.3313
1445908 15.9024 20.472 13.1649 21.5885 4.56684 -0.341819 71.1278
1445914 15.9024 20.472 13.1649 21.5885 4.56684 -0.341819 71.1278
1445925 17.6676 19.4703 15.1649 19.8934 2.26157 -0.432059 72.1963
1445935 17.6676 19.4703 15.1649 19.8934 2.26157 -0.432059 72.1963
1445946 19.5809 18.3518 17.5906 18.2372 -0.197408 -0.428046 73.7606
1445955 21.2948 17.1653 20.1992 16.621 -2.55968 -0.326783 75.2803
1445975 22.7397 16.0637 22.1876 14.8868 -4.60503 -0.3418 75.8779
1445985 23.9555 14.9989 23.6051 13.0295 -6.45996 -0.460333 75.589
1445996 23.9555 14.9989 23.6051 13.0295 -6.45996 -0.460333 75.589
1446007 24.9719 13.9708 24.6584 11.3997 -8.0865 -0.576929 75.0007
1446017 24.9719 13.9708 24.6584 11.3997 -8.0865 -0.576929 75.0007
1446026 26.0381 13.1447 25.436 10.0256 -9.47953 -0.747774 74.6445
1446040 26.9349 12.4104 25.9676 9.05909 -10.5662 -0.871022 74.372
1446047 26.9349 12.4104 25.9676 9.05909 -10.5662 -0.871022 74.372
1446055 27.6624 11.9239 26.253 8.36734 -11.3279 -1.00379 74.2066
1446067 28.0809 11.7036 26.381 8.10201 -11.6661 -1.07075 74.2675
1446077 28.0809 11.7036 26.381 8.10201 -11.6661 -1.07075 74.2675
1446087 28.3898 11.5842 26.3712 7.88406 -11.8864 -1.15564 74.2293
1446107 28.6788 11.3089 26.3613 7.65663 -12.1864 -1.20998 74.0056
1446117 29.1372 11.318 25.9577 7.40078 -12.3202 -1.44215 73.8137
1446128 29.1372 11.318 25.9577 7.40078 -12.3202 -1.44215 73.8137
1446138 29.5657 11.0518 25.308 7.05964 -12.5924 -1.69551 72.9852
1446150 30.024 10.8499 24.8946 6.70903 -12.8867 -1.91858 72.4776
1446173 30.4625 10.6571 24.3926 6.56689 -13.052 -2.11437 72.0791
1446179 30.9009 10.4185 24.1071 6.33946 -13.3246 -2.27256 71.766
1446194 30.9009 10.4185 24.1071 6.33946 -13.3246 -2.27256 71.766
1446199 31.2995 10.345 23.9496 6.13099 -13.5145 -2.41839 71.7252
1446227 31.6284 10.1982 23.7528 5.95095 -13.7117 -2.54218 71.5302
1446241 32.1565 10.1431 23.4673 5.79933 -13.8618 -2.73166 71.5662
1446242 32.1565 10.1431 23.4673 5.79933 -13.8618 -2.73166 71.5662
1446262 32.6249 10.1431 23.3787 5.71405 -13.9668 -2.85453 71.8607
1446263 33.0633 10.2349 23.2409 5.71405 -13.9632 -2.97771 72.2531
1446272 33.0633 10.2349 23.2409 5.71405 -13.9632 -2.97771 72.2531
1446284 33.4918 10.3175 23.0932 5.62876 -14.0073 -3.12016 72.5313
1446306 34 10.4552 22.7585 5.46767 -14.0461 -3.34934 72.6814
1446312 34 10.4919 22.3746 5.38239 -14.0142 -3.47442 72.2489
1446328 34 10.4919 22.3746 5.38239 -14.0142 -3.47442 72.2489
1446332 34 10.6021 21.8726 5.22129 -13.965 -3.663 71.696
1446342 34 10.7489 21.3706 5.05072 -13.9001 -3.86277 71.1702
1446352 34 10.7489 21.3706 5.05072 -13.9001 -3.86277 71.1702
1446363 34 10.905 20.8193 4.99387 -13.759 -4.04954 70.7182
1446373 34 10.8683 20.4453 4.85173 -13.7979 -4.18396 70.1653
1446383 34 10.8683 20.4453 4.85173 -13.7979 -4.18396 70.1653
1446395 34 10.905 20.2878 4.84225 -13.7576 -4.23537 70.035
1446413 34 10.9325 20.0417 4.76644 -13.7448 -4.3284 69.7406
1446423 34 10.9509 19.9925 4.81382 -13.7003 -4.33172 69.7572
1446434 34 10.9509 19.9925 4.81382 -13.7003 -4.33172 69.7572
1446443 34 10.9784 20.0811 4.79487 -13.7099 -4.31665 69.8543
1446453 34 10.8774 20.3961 4.84225 -13.7902 -4.20143 70.1157
1446463 34 10.8774 20.3961 4.84225 -13.7902 -4.20143 70.1157
1446473 34 10.8774 20.6815 4.98439 -13.7574 -4.08504 70.5434
1446493 34 10.8224 20.9276 5.01282 -13.8111 -4.00251 70.7628
1446504 34 10.8683 21.0654 5.07915 -13.7715 -3.95499 71.0128
1446514 34 10.8683 21.0654 5.07915 -13.7715 -3.95499 71.0128
1446524 34 10.804 21.1639 5.06968 -13.8273 -3.92126 71.0375
1446534 34 10.7948 21.2032 5.12653 -13.8074 -3.89423 71.1246
1446554 34 10.7214 21.4001 5.10758 -13.8887 -3.83559 71.2291
1446576 34 10.6112 21.6167 5.0981 -13.9877 -3.76366 71.326
1446585 34 10.5378 21.9021 5.24972 -13.989 -3.63775 71.6897
1446599 34 10.5378 21.9021 5.24972 -13.989 -3.63775 71.6897
1446605 34 10.4368 21.8726 5.2971 -14.0136 -3.61708 71.6065
1446616 34 10.3634 22.0892 5.28763 -14.0919 -3.55169 71.7402
1446626 34 10.3634 22.0892 5.28763 -14.0919 -3.55169 71.7402
1446636 34 10.29 22.5026 5.46767 -14.0966 -3.38769 72.2602
1446646 34 10.29 22.5026 5.46767 -14.0966 -3.38769 72.2602
1446656 33.6014 10.2716 23.1031 5.61929 -14.0552 -3.1305 72.5954
1446668 33.1729 10.0788 23.8413 5.81828 -14.0983 -2.7963 72.9114
1446676 33.1729 10.0788 23.8413 5.81828 -14.0983 -2.7963 72.9114
1446690 32.7644 9.96868 24.4123 6.05518 -14.0548 -2.51342 73.2005
1446696 32.7644 9.96868 22.4632 6.05518 -13.7554 -2.99249 71.2515
1446706 32.2661 9.87689 24.9832 6.19732 -14.0388 -2.24263 73.3235
1446715 31.8775 9.85853 25.4262 6.48161 -13.906 -2.00185 73.6438
1446726 31.8775 9.85853 25.4262 6.48161 -13.906 -2.00185 73.6438
1446735 31.4988 9.90443 25.7904 6.51003 -13.8646 -1.85259 73.7037
1446747 31.16 10.0238 25.9085 6.71851 -13.6587 -1.73893 73.8108
1446756 31.16 10.0238 25.9085 6.71851 -13.6587 -1.73893 73.8108
1446765 30.8312 10.3817 25.9085 6.8796 -13.3371 -1.70771 74.001
1446778 30.8312 10.3817 25.9085 6.8796 -13.3371 -1.70771 74.001
1446785 30.3628 10.6663 25.6624 6.93645 -13.0462 -1.71747 73.628
1446801 30.0639 11.2262 25.1604 7.08807 -12.5478 -1.84427 73.5386
1446805 30.0639 11.2262 25.1604 7.08807 -12.5478 -1.84427 73.5386
1446815 29.745 11.9698 24.491 7.3155 -11.8846 -2.02151 73.5213
1446825 29.4062 12.7684 23.7134 7.41973 -11.2306 -2.25927 73.3077
1446835 29.4062 12.7684 23.7134 7.41973 -11.2306 -2.25927 73.3077
1446848 28.908 13.5945 22.6601 7.56187 -10.4544 -2.53295 72.7244
1446857 28.908 13.5945 22.6601 7.56187 -10.4544 -2.53295 72.7244
1446867 28.3001 14.3747 21.3903 7.93144 -9.50886 -2.78204 71.9966
1446877 27.5727 15.4303 20.1008 8.64214 -8.2238 -2.98138 71.7459
1446896 27.5727 15.4303 20.1008 8.64214 -8.2238 -2.98138 71.7459
1446899 26.7157 16.4401 18.5947 9.8456 -6.64308 -3.08303 71.596
1446907 25.6993 17.7489 17.4036 12.0346 -4.56858 -2.88326 72.8863
1446927 24.4537 19.0132 16.3196 15.1143 -2.21822 -2.40979 74.9007
1446937 24.4537 19.0132 16.3196 15.1143 -2.21822 -2.40979 74.9007
1446948 23.0885 20.2094 15.268 18.5198 0.120839 -1.85055 77.0857
1446957 21.524 21.1625 14.1546 20.7605 2.01164 -1.50217 77.6016
1446977 19.9097 21.8724 12.8041 21.9198 3.62009 -1.38386 76.5061
1446989 18.2655 22.4754 11.7423 22.6407 5.02779 -1.2695 75.1239
1446998 18.2655 22.4754 11.7423 22.6407 5.02779 -1.2695 75.1239
1447012 16.6663 23.127 10.7113 23.1083 6.40432 -1.21725 73.613
1447018 16.6663 23.127 10.7113 23.1083 6.40432 -1.21725 73.613
1447028 15.156 23.5938 9.94845 23.6831 7.65821 -1.06069 72.3814
1447038 13.7949 24.0509 9.28866 24.3456 8.85312 -0.883807 71.4801
1447049 13.7949 24.0509 9.28866 24.3456 8.85312 -0.883807 71.4801
1447058 12.4075 24.5177 8.75258 25.1834 10.0693 -0.632783 70.8612
1447068 11.2221 24.9262 8.34021 26.0699 11.1375 -0.369522 70.5584
1447080 11.2221 24.9262 8.34021 26.0699 11.1375 -0.369522 70.5584
1447088 10.2386 25.3833 7.91753 26.9954 12.1297 -0.150775 70.5349
1447103 10.2386 25.3833 7.63918 26.9954 12.2768 -0.210801 70.2565
1447109 9.36932 25.8404 7.63918 27.9599 12.9898 0.0824797 70.8088
1447120 8.62293 26.3947 7.4433 28.7782 13.7237 0.253481 71.2392
1447129 8.62293 26.3947 7.4433 28.7782 13.7237 0.253481 71.2392
1447139 7.99948 26.9977 7.23711 29.3822 14.3624 0.339757 71.6165
1447152 7.42872 27.6396 6.95876 29.8499 14.9916 0.363187 71.8769
1447172 6.87552 28.1259 6.73196 30.1811 15.5391 0.398739 71.9144
1447180 6.4189 28.5246 6.59794 30.5708 15.9746 0.462865 72.1122
1447201 6.01498 28.7872 6.35052 30.9605 16.4263 0.521849 72.1131
1447211 6.01498 28.7872 6.35052 30.9605 16.4263 0.521849 72.1131
1447220 5.6374 29.0206 6.26804 31.2917 16.7573 0.602705 72.2177
1447230 5.40909 29.0984 6.18557 31.7009 16.992 0.700116 72.3939
1447244 5.40909 29.0984 6.18557 31.7009 16.992 0.700116 72.3939
1447250 5.18957 29.2151 6.12371 31.8762 17.1875 0.744826 72.4046
1447267 4.86467 29.3513 6.03093 31.9834 17.4577 0.788805 72.2302
1447272 4.86467 29.3513 6.03093 31.9834 17.4577 0.788805 72.2302
1447282 4.8032 29.3026 6 32.2854 17.5383 0.866033 72.3912
1447292 4.8032 29.3026 6 32.2854 17.5383 0.866033 72.3912
1447302 4.6188 29.2929 5.96907 32.6848 17.7046 0.980253 72.5656
1447313 4.58368 29.4193 5.93814 32.8017 17.7678 0.976768 72.7429
1447322 4.58368 29.4193 5.93814 32.8017 17.7678 0.976768 72.7429
1447336 4.55733 29.5944 5.81443 32.7433 17.8677 0.908956 72.7094
1447342 4.49587 29.8278 5.7732 32.4802 17.9254 0.812187 72.5771
1447354 4.49587 29.8278 5.7732 32.4802 17.9254 0.812187 72.5771
1447362 4.52221 30.2752 5.70103 32.3244 17.9807 0.664904 72.8228
1447372 4.52221 30.2752 5.70103 32.3244 17.9807 0.664904 72.8228
1447382 4.46952 30.353 5.59794 32.3146 18.0794 0.637257 72.735
1447392 4.44318 30.6156 5.51546 32.149 18.153 0.537459 72.7232
1447405 4.44318 30.6156 5.51546 32.149 18.153 0.537459 72.7232
1447412 4.46952 30.8684 5.40206 31.9736 18.212 0.420367 72.7136
1447422 4.42562 31.1699 5.29897 31.7398 18.3058 0.298054 72.6343
1447432 4.42562 31.1699 5.29897 31.7398 18.3058 0.298054 72.6343
1447442 4.50465 31.5297 5.23711 31.3891 18.2964 0.122176 72.6606
1447462 4.52221 31.9479 5.1134 30.941 18.357 -0.0859925 72.5245
1447477 4.6188 32.2883 4.98969 30.4246 18.3571 -0.309617 72.3215
1447492 4.71539 32.5995 4.93814 29.9765 18.3175 -0.49847 72.2296
1447523 4.68905 32.6482 4.86598 29.6355 18.3497 -0.592099 71.8387
1447528 4.81198 32.8816 4.81443 29.5381 18.3193 -0.695601 72.0461
1447537 4.81198 32.8816 4.81443 29.5381 18.3193 -0.695601 72.0461
1447546 4.83833 33.0664 4.81443 29.655 18.3313 -0.711975 72.3741
1447555 4.88223 33.1733 4.83505 29.6355 18.3008 -0.741455 72.5262
1447563 4.88223 33.1733 4.83505 29.6355 18.3008 -0.741455 72.5262
1447573 4.90857 33.3484 4.7835 29.5089 18.3204 -0.819699 72.5494
1447583 4.90857 33.3484 4.72165 29.5089 18.3573 -0.8332 72.4875
1447593 4.95248 33.5235 4.72165 29.0705 18.3068 -0.97217 72.2681
1447603 5.03151 33.718 4.71134 28.6613 18.2456 -1.11827 72.1221
1447615 5.03151 33.718 4.71134 28.6613 18.2456 -1.11827 72.1221
1447623 5.09298 33.8833 4.64948 28.3593 18.233 -1.24348 71.9851
1447638 5.16322 34 4.59794 28.2619 18.2236 -1.31279 72.0231
1447653 5.20713 34 4.63918 28.2132 18.1679 -1.32282 72.0595
1447674 5.3125 34 4.65979 28.067 18.0786 -1.37126 72.0393
1447687 5.41787 34 4.60825 27.7748 18.0181 -1.46966 71.8009
1447694 5.41787 34 4.60825 27.7748 18.0181 -1.46966 71.8009
1447709 5.52324 34 4.56701 27.2974 17.9328 -1.60927 71.3877
1447714 5.70764 34 4.6701 27.0441 17.7349 -1.67877 71.4219
1447725 5.70764 34 4.6701 27.0441 17.7349 -1.67877 71.4219
1447734 5.84814 34 4.71134 26.8688 17.6083 -1.7363 71.4283
1447744 5.84814 34 4.71134 26.8688 17.6083 -1.7363 71.4283
1447754 6.08523 34 4.75258 26.6934 17.4244 -1.81164 71.5312
1447765 6.53306 34 5.01031 26.2648 16.9624 -1.9339 71.8081
1447779 6.53306 34 5.01031 26.2648 16.9624 -1.9339 71.8081
1447784 7.16529 34 5.16495 25.5633 16.4247 -2.1776 71.8936
1447794 7.96436 34 5.50515 24.6378 15.6601 -2.45912 72.1073
1447805 7.96436 34 5.50515 24.6378 15.6601 -2.45912 72.1073
1447814 8.97417 34 5.82474 23.761 14.8023 -2.76773 72.56
1447825 8.97417 34 5.82474 23.761 14.8023 -2.76773 72.56
1447834 9.95764 34 6.29897 22.6699 13.8541 -3.08299 72.9265
1447849 11.1519 33.504 7.03093 21.5106 12.5796 -3.30223 73.1974
1447864 12.4514 32.405 7.83505 20.2636 11.0966 -3.4455 72.9551
1447876 13.672 31.2769 9.14433 19.0069 9.39377 -3.44685 73.1001
1447886 13.672 31.2769 9.14433 19.0069 9.39377 -3.44685 73.1001
1447895 14.9804 30.2654 10.9794 17.9742 7.50676 -3.2936 74.1994
1447918 16.4117 29.0498 13.4948 17.0877 5.33604 -2.93493 76.044
1447926 17.8769 27.6201 15.6804 16.1187 3.29303 -2.6582 77.2962
1447940 17.8769 27.6201 15.6804 16.1187 3.29303 -2.6582 77.2962
1447945 19.0528 25.9279 17.1181 14.8963 1.51092 -2.52605 76.9951
1447955 19.8699 23.9926 17.9155 13.5318 -0.0866383 -2.47283 75.3097
1447968 19.8699 23.9926 17.9155 13.5318 -0.0866383 -2.47283 75.3097
1447975 20.687 22.0086 18.5947 12.3188 -1.68262 -2.40094 73.6091
1447986 20.687 22.0086 18.5947 12.3188 -1.68262 -2.40094 73.6091
1447995 21.2649 20.0441 19.392 11.2291 -3.26143 -2.22881 71.9301
1448009 21.8728 18.2643 20.4256 10.5089 -4.75759 -1.94225 71.0716
1448016 21.8728 18.2643 20.4256 10.5089 -4.75759 -1.94225 71.0716
1448026 22.3611 16.5594 21.4887 9.94983 -6.16145 -1.59509 70.359
1448035 22.8095 15.2376 22.5912 9.59922 -7.31942 -1.25076 70.2375
1448055 23.4273 14.1728 23.9398 9.49498 -8.34074 -0.879571 71.0349
1448067 23.4273 14.1728 23.9398 9.49498 -8.34074 -0.879571 71.0349
1448079 24.1846 13.6863 24.8257 9.35284 -9.01159 -0.768715 72.0495
1448087 24.8822 13.1906 25.4951 9.20123 -9.61446 -0.695999 72.7691
1448107 25.5897 12.9152 26.066 8.99275 -10.1095 -0.702688 73.5637
1448117 26.2274 12.4379 26.3712 8.7369 -10.6488 -0.723284 73.7734
1448127 26.2274 12.4379 26.3712 8.7369 -10.6488 -0.723284 73.7734
1448137 26.8253 12.135 26.4794 8.55686 -11.0184 -0.795444 73.9966
1448148 26.8253 12.135 26.4794 8.55686 -11.0184 -0.795444 73.9966
1448171 27.2638 11.777 26.4302 8.22519 -11.4293 -0.892587 73.6962
1448173 27.5328 11.4465 26.3318 8.08305 -11.6954 -0.932878 73.3942
1448179 27.5328 11.4465 26.3318 8.08305 -11.6954 -0.932878 73.3942
1448188 27.6723 11.0977 26.3121 7.79877 -12.036 -0.958931 72.8809
1448198 27.762 10.7306 26.4105 7.61873 -12.3491 -0.923165 72.5218
1448208 27.762 10.7306 26.4105 7.61873 -12.3491 -0.923165 72.5218
1448220 27.7819 10.4185 26.6271 7.54292 -12.5907 -0.835368 72.3704
1448228 27.7819 10.4185 26.6271 7.54292 -12.5907 -0.835368 72.3704
1448243 27.8517 10.0421 26.883 7.44816 -12.8918 -0.739899 72.225
1448248 27.7919 9.72084 27.326 7.37235 -13.1644 -0.584621 72.2111
1448258 27.7919 9.72084 27.326 7.37235 -13.1644 -0.584621 72.2111
1448268 27.762 9.46382 27.7493 7.33445 -13.3845 -0.444363 72.3096
1448278 27.762 9.46382 27.7493 7.33445 -13.3845 -0.444363 72.3096
1448290 27.7321 9.07829 28.0052 7.26812 -13.6615 -0.319854 72.0837
1448299 27.6624 8.87635 28.4383 7.32497 -13.7961 -0.16087 72.302
1448318 27.6524 8.58261 28.8419 7.30602 -14.0246 -0.0180441 72.383
1448329 27.5826 8.52754 29.275 7.40078 -14.0581 0.116569 72.786
1448340 27.5826 8.52754 29.275 7.40078 -14.0581 0.116569 72.786
1448349 27.5129 8.32559 29.5408 7.42921 -14.1807 0.23312 72.8085
1448362 27.3435 8.18791 29.7574 7.43868 -14.2567 0.343337 72.7275
1448369 27.3435 8.18791 29.7574 7.43868 -14.2567 0.343337 72.7275
1448379 27.3236 8.05022 29.9346 7.46711 -14.3389 0.417978 72.7755
1448400 27.2638 7.99514 30.0724 7.41973 -14.4057 0.460446 72.751
1448409 27.2737 7.89417 30.2693 7.41026 -14.4956 0.517162 72.8474
1448419 27.2737 7.89417 30.2693 7.41026 -14.4956 0.517162 72.8474
1448434 27.214 7.81155 30.2594 7.44816 -14.5098 0.553132 72.7331
1448439 27.214 7.81155 30.2594 7.44816 -14.5098 0.553132 72.7331
1448449 27.1342 7.71976 30.3677 7.36288 -14.6103 0.594462 72.5846
1448459 26.9947 7.67387 30.6236 7.42921 -14.6158 0.698057 72.7214
1448469 26.9947 7.67387 30.6236 7.42921 -14.6158 0.698057 72.7214
1448483 26.7954 7.54536 30.8402 7.47659 -14.6625 0.820835 72.6576
1448490 26.6858 7.4352 31.165 7.56187 -14.7066 0.94839 72.8479
1448506 26.6858 7.4352 31.165 7.56187 -14.7066 0.94839 72.8479
1448509 26.5662 7.37095 31.2831 7.56187 -14.7414 1.01148 72.7822
1448519 26.5662 7.37095 31.2831 7.56187 -14.7414 1.01148 72.7822
1448530 26.4467 7.26998 31.5489 7.67559 -14.7551 1.13267 72.9411
1448539 26.3072 7.22408 31.7163 7.72297 -14.7582 1.21446 72.9705
1448559 26.1377 7.20572 31.9328 7.73244 -14.7696 1.29884 73.0088
1448575 26.0381 7.20572 32.0411 7.80825 -14.7296 1.35557 73.0932
1448581 26.0381 7.20572 32.0411 7.80825 -14.7296 1.35557 73.0932
1448591 26.0381 7.15065 32.1199 7.85563 -14.7448 1.39141 73.1642
1448602 26.0381 7.15065 32.1199 7.85563 -14.7448 1.39141 73.1642
1448610 25.9086 7.08639 32.0116 7.77982 -14.7878 1.40063 72.7864
1448621 25.8986 7.10475 32.0608 7.77982 -14.7832 1.40793 72.844
1448631 25.8986 7.10475 32.0608 7.77982 -14.7832 1.40793 72.844
1448645 25.7691 7.08639 32.0017 7.76087 -14.7772 1.42674 72.618
1448650 25.7691 7.14147 32.0706 7.79877 -14.736 1.43423 72.7799
1448660 25.7691 7.14147 32.0706 7.79877 -14.736 1.43423 72.7799
1448671 25.789 7.29752 31.9131 7.81773 -14.6211 1.36871 72.8174
1448680 25.789 7.29752 31.9131 7.81773 -14.6211 1.36871 72.8174
1448692 25.7591 7.33423 31.6474 7.70401 -14.6209 1.29576 72.4447
1448700 25.6395 7.67387 31.3521 7.85563 -14.2931 1.21916 72.5211
1448716 25.6395 7.67387 31.3521 7.85563 -14.2931 1.21916 72.5211
1448722 25.5299 8.05022 30.9878 7.95039 -13.9679 1.1083 72.5183
1448732 25.3804 8.7662 30.5153 8.11148 -13.404 0.923458 72.7734
1448752 25.0516 9.61987 29.6589 8.33891 -12.6435 0.686619 72.6693
1448762 25.0516 9.61987 29.6589 8.33891 -12.6435 0.686619 72.6693
1448772 24.7028 10.5194 28.586 8.54738 -11.8242 0.396193 72.3556
1448785 24.2544 11.5934 27.1488 9.00223 -10.6972 0.063175 71.9988
1448791 24.2544 11.5934 27.1488 9.00223 -10.6972 0.063175 71.9988
1448811 23.7462 12.7684 25.5049 9.80769 -9.28446 -0.251006 71.8272
1448814 23.0586 14.1728 23.7921 11.3902 -7.34936 -0.424454 72.4137
1448823 23.0586 14.1728 23.7921 11.3902 -7.34936 -0.424454 72.4137
1448833 22.2216 15.7057 22.04 14.233 -4.82573 -0.334435 74.2002
1448856 21.1254 17.1945 20.4847 17.9937 -2.09051 0.0309384 76.7983
1448863 19.83 18.6339 18.5356 20.7215 0.31836 0.15309 77.721
1448879 19.83 18.6339 18.5356 20.7215 0.31836 0.15309 77.721
1448883 18.3951 19.9954 16 21.8711 2.44927 -0.10217 76.2616
1448893 17.0299 21.3375 13.7216 22.4458 4.37105 -0.442731 74.5349
1448905 17.0299 21.3375 13.7216 22.4458 4.37105 -0.442731 74.5349
1448914 15.7443 22.6894 11.8351 23.1181 6.20958 -0.711417 73.3868
1448929 14.4974 23.8759 10.3814 23.9948 7.90102 -0.824126 72.7496
1448944 13.3559 25.0429 9.40206 24.8327 9.33371 -0.859948 72.6335
1448955 13.3559 25.0429 9.40206 24.8327 9.33371 -0.859948 72.6335
1448965 12.2056 26.0738 8.70103 25.5633 10.5903 -0.830194 72.5437
1448979 11.4153 26.988 8.18557 26.0504 11.5081 -0.860542 72.6393
1448985 11.4153 26.988 8.18557 26.0504 11.5081 -0.860542 72.6393
1448994 10.827 27.8244 7.8866 26.255 12.146 -0.929291 72.7929
1449004 10.3352 27.8244 7.58763 26.255 12.554 -0.899338 72.0022
1449017 10.3352 28.4468 7.58763 26.3719 12.6805 -0.99444 72.7416
1449028 9.95764 29.0595 7.28866 26.4401 13.1462 -1.09045 72.7459
1449034 9.95764 29.0595 7.28866 26.4401 13.1462 -1.09045 72.7459
1449044 9.62397 29.5263 7.16495 26.4206 13.459 -1.14758 72.7359
1449055 9.29029 29.9931 6.81443 26.2453 13.8692 -1.29046 72.3431
1449064 9.29029 29.9931 6.81443 26.2453 13.8692 -1.29046 72.3431
1449074 9.04442 30.5378 6.58763 25.9335 14.16 -1.46894 72.1033
1449084 9.04442 30.5378 6.58763 25.9335 14.16 -1.46894 72.1033
1449096 8.71952 30.9365 6.24742 25.4367 14.5102 -1.67618 71.3401
1449104 8.64928 31.3741 6.13402 25.0275 14.6163 -1.86737 71.185
1449120 8.64928 31.3741 6.13402 25.0275 14.6163 -1.86737 71.185
1449124 8.57903 31.8215 6.01031 24.6281 14.7314 -2.0613 71.0389
1449135 8.47366 32.2689 5.80412 24.2579 14.9175 -2.26268 70.8045
1449146 8.47366 32.2689 5.80412 24.2579 14.9175 -2.26268 70.8045
1449156 8.32438 32.6871 5.62887 23.9364 15.1148 -2.43271 70.5767
1449170 8.32438 32.6871 5.62887 23.9364 15.1148 -2.43271 70.5767
1449175 8.21901 33.115 5.52577 23.7415 15.2659 -2.56369 70.6013
1449186 8.06095 33.3776 5.49485 23.8 15.4177 -2.57524 70.7334
1449196 8.06095 33.3776 5.49485 23.8 15.4177 -2.57524 70.7334
1449206 8.02583 33.7082 5.49485 24.0143 15.5109 -2.57391 71.2432
1449220 7.95558 33.9514 5.40206 24.1702 15.6563 -2.58845 71.4792
1449236 8.03461 34 5.53608 24.2676 15.5547 -2.55384 71.8383
1449245 8.03461 34 5.53608 24.2676 15.5547 -2.55384 71.8383
1449256 7.9907 34 5.54639 24.3456 15.5839 -2.52469 71.8827
1449267 8.07851 34 5.49485 24.4917 15.5826 -2.51689 72.065
1449275 8.07851 34 5.49485 24.4917 15.5826 -2.51689 72.065
1449292 8.10486 34 5.49485 24.5404 15.5741 -2.50962 72.1401
1449295 8.12242 34 5.59794 24.5404 15.5064 -2.48767 72.2608
1449316 8.15754 34 5.51546 24.365 15.5099 -2.55636 72.038
1449327 8.15754 34 5.51546 24.365 15.5099 -2.55636 72.038
1449340 8.27169 34 5.51546 24.0143 15.3991 -2.6619 71.8015
1449347 8.38585 34 5.47423 23.7708 15.3253 -2.75179 71.6309
1449367 8.57903 34 5.49485 23.537 15.1734 -2.83768 71.6108
1449377 8.71074 34 5.46392 23.4298 15.1021 -2.89445 71.6045
1449387 8.71074 34 5.46392 23.4298 15.1021 -2.89445 71.6045
1449397 8.76343 34 5.4433 23.1278 15.0422 -2.98432 71.3345
1449417 8.78977 34 5.39175 23.0011 15.0386 -3.03379 71.1827
1449436 8.83368 34 5.51546 23.0401 14.9501 -3.00005 71.3893
1449445 8.83368 34 5.51546 23.0401 14.9501 -3.00005 71.3893
1449453 8.91271 34 5.57732 23.0986 14.8797 -2.98305 71.5886
1449460 9.0093 34 5.65979 23.2544 14.8023 -2.93959 71.9235
1449484 9.07076 34 5.6701 23.3616 14.7778 -2.92065 72.1025
1449488 9.07076 34 5.6701 23.3616 14.7778 -2.92065 72.1025
1449498 9.14101 34 5.7835 23.3226 14.6712 -2.91393 72.2472
1449508 9.10589 33.6985 5.85567 23.3811 14.616 -2.82498 72.0412
1449518 9.10589 33.6985 5.85567 23.3811 14.616 -2.82498 72.0412
1449532 9.08833 33.3679 5.94845 23.2934 14.5138 -2.76458 71.698
1449538 9.08833 33.1053 6.09278 23.2837 14.3942 -2.68628 71.57
1449556 9.08833 33.1053 6.09278 23.2837 14.3942 -2.68628 71.57
1449559 9.26395 32.9788 6.13402 23.1862 14.2417 -2.70863 71.563
1449569 9.26395 32.9788 6.13402 23.1862 14.2417 -2.70863 71.563
1449581 9.44835 32.8038 6.2165 23.0206 14.0439 -2.73083 71.4892
1449589 9.703 32.7065 6.36082 22.8745 13.7893 -2.75823 71.6448
1449605 9.703 32.7065 6.36082 22.8745 13.7893 -2.75823 71.6448
1449609 9.8874 32.5704 6.35052 22.6407 13.6367 -2.82717 71.449
1449619 10.0191 32.4537 6.37113 22.3874 13.4951 -2.88797 71.2313
1449630 10.0191 32.4537 6.37113 22.3874 13.4951 -2.88797 71.2313
1449639 10.1157 32.2786 6.4433 22.0562 13.3213 -2.93993 70.8938
1449653 10.1157 32.2786 6.4433 22.0562 13.3213 -2.93993 70.8938
1449659 10.1157 31.9188 6.46392 21.8126 13.2098 -2.93509 70.311
1449669 10.1157 31.7729 6.52577 21.5983 13.1154 -2.94901 70.0126
1449680 10.1157 31.7729 6.52577 21.5983 13.1154 -2.94901 70.0126
1449689 10.4669 31.7048 6.83505 21.686 12.7625 -2.89649 70.6928
1449701 11.0992 31.7048 7.15464 21.686 12.2609 -2.92347 71.6446
1449709 11.0992 31.5978 7.15464 21.6275 12.2314 -2.92005 71.4791
1449726 11.828 31.4811 7.4433 21.2865 11.6244 -3.03571 72.0389
1449730 11.828 31.4811 7.4433 21.2865 11.6244 -3.03571 72.0389
1449739 12.5217 31.0727 7.69072 20.7702 10.9744 -3.15038 72.0553
1449750 13.2681 30.4502 7.95876 20.0006 10.1928 -3.29788 71.6776
1449760 13.2681 30.4502 7.95876 20.0006 10.1928 -3.29788 71.6776
1449774 14.1637 29.7889 8.39175 19.2602 9.24996 -3.41474 71.6046
1449779 15.156 29.7889 8.85567 18.3249 8.35425 -3.69446 72.1255
1449789 15.156 29.254 8.85567 18.3249 8.22988 -3.60998 71.5906
1449799 16.3063 28.7288 9.47423 17.2923 7.04739 -3.81648 71.8016
1449809 16.3063 28.7288 9.47423 17.2923 7.04739 -3.81648 71.8016
1449823 17.7872 27.98 10.134 16.024 5.59008 -4.0895 71.9252
1449829 19.3218 26.9783 10.9485 14.9058 4.02394 -4.25043 72.1543
1449839 19.3218 26.9783 10.9485 14.9058 4.02394 -4.25043 72.1543
1449850 20.8165 25.8404 12.0412 13.8729 2.36166 -4.28741 72.5711
1449860 20.8165 25.8404 12.0412 13.8729 2.36166 -4.28741 72.5711
1449872 22.1917 24.3621 13.3711 13.0011 0.617212 -4.1511 72.9261
1449881 23.507 22.8352 15.3299 12.3662 -1.22756 -3.77767 74.0384
1449896 23.507 22.8352 15.3299 12.3662 -1.22756 -3.77767 74.0384
1449901 24.663 21.1527 17.4528 11.7408 -3.07369 -3.324 75.0093
1449910 25.7491 19.4411 19.7464 11.2386 -4.86243 -2.79722 76.1751
1449920 25.7491 19.4411 19.7464 11.2386 -4.86243 -2.79722 76.1751
1449930 26.5563 17.7294 21.8332 10.5942 -6.53927 -2.31868 76.7131
1449950 27.1243 16.2289 23.2409 9.85507 -7.94029 -2.01256 76.4492
1449960 27.6225 14.8612 24.1859 9.1728 -9.15528 -1.80474 75.8424
1449971 27.6225 14.8612 24.1859 9.1728 -9.15528 -1.80474 75.8424
1449981 27.8617 13.8974 24.6485 8.68004 -9.96593 -1.68413 75.0876
1449995 28.2802 13.1355 25.0324 8.29153 -10.6655 -1.62399 74.7397
1450001 28.2802 13.1355 25.0324 8.29153 -10.6655 -1.62399 74.7397
1450010 28.4695 12.6031 25.1899 7.92196 -11.1662 -1.60965 74.1845
1450021 28.4695 12.6031 25.1899 7.92196 -11.1662 -1.60965 74.1845
1450031 28.629 12.135 25.1998 7.56187 -11.6054 -1.63256 73.5256
1450044 28.8083 11.8137 25.1309 7.33445 -11.9005 -1.67404 73.0873
1450061 29.0674 11.4282 25.1604 7.16388 -12.2342 -1.68319 72.8199
1450071 29.3564 11.0886 25.2096 7.04069 -12.5307 -1.69089 72.6952
1450082 29.3564 11.0886 25.2096 7.04069 -12.5307 -1.69089 72.6952
1450097 29.6254 10.8132 25.1604 6.82274 -12.8242 -1.7513 72.4218
1450116 30.0041 10.5653 24.9734 6.56689 -13.1207 -1.87822 72.1097
1450122 30.4127 10.3267 24.7666 6.37737 -13.3811 -2.00227 71.8833
1450132 30.4127 10.3267 24.7666 6.37737 -13.3811 -2.00227 71.8833
1450142 30.9308 10.088 24.6781 6.2068 -13.669 -2.11408 71.9037
1450152 31.4291 9.97786 24.5107 6.04571 -13.8669 -2.26168 71.9634
1450166 31.4291 9.97786 24.5107 6.04571 -13.8669 -2.26168 71.9634
1450172 31.9771 9.85853 24.2942 5.85619 -14.0849 -2.43492 71.986
1450182 31.9771 9.85853 24.2942 5.85619 -14.0849 -2.43492 71.986
1450192 32.4355 9.79428 24.0481 5.60981 -14.286 -2.62324 71.8877
1450202 32.874 9.73002 23.9398 5.58138 -14.3855 -2.72086 72.1252
1450215 32.874 9.73002 23.9398 5.58138 -14.3855 -2.72086 72.1252
1450222 33.3623 9.74838 23.6248 5.51505 -14.4371 -2.90049 72.2505
1450232 33.6811 9.6933 23.4082 5.39186 -14.5495 -3.02898 72.1745
1450246 33.6811 9.6933 23.4082 5.39186 -14.5495 -3.02898 72.1745
1450265 33.99 9.68412 23.2803 5.2971 -14.6326 -3.13422 72.2515
1450273 34 9.62905 23.1424 5.19286 -14.7019 -3.18777 71.9644
1450289 34 9.56479 23.1917 5.15496 -14.7654 -3.17436 71.9114
1450293 34 9.56479 23.1917 5.15496 -14.7654 -3.17436 71.9114
1450303 34 9.50054 23.0145 5.15496 -14.7757 -3.20869 71.67
1450315 34 9.50054 22.8471 4.96544 -14.8574 -3.29981 71.3131
1450323 34 9.50054 22.8471 4.96544 -14.8574 -3.29981 71.3131
1450339 34 9.50972 22.8274 4.98439 -14.8389 -3.3015 71.3216
1450353 34 9.36285 22.9849 5.04125 -14.9115 -3.22248 71.389
1450365 34 9.42711 23.1818 5.12653 -14.856 -3.16136 71.7355
1450374 34 9.42711 23.1818 5.12653 -14.856 -3.16136 71.7355
1450391 34 9.38121 23.359 5.21182 -14.8592 -3.08756 71.952
1450393 34 9.38121 23.5067 5.21182 -14.88 -3.05051 72.0997
1450403 34 9.36285 23.5067 5.23077 -14.8796 -3.04272 72.1003
1450415 34 9.36285 23.7823 5.30658 -14.8764 -2.95521 72.4517
1450423 34 9.36285 23.7823 5.30658 -14.8764 -2.95521 72.4517
1450440 34 9.33531 24.2351 5.42977 -14.887 -2.80899 73.0002
1450443 34 9.18845 24.6485 5.56243 -14.9516 -2.6521 73.3994
1450454 34 9.18845 24.6485 5.56243 -14.9516 -2.6521 73.3994
1450464 33.9502 9.2527 24.8356 5.66667 -14.879 -2.58476 73.7051
1450477 33.9502 9.2527 24.8356 5.66667 -14.879 -2.58476 73.7051
1450491 33.7509 9.26188 24.934 5.65719 -14.8653 -2.53144 73.6039
1450494 33.5715 9.26188 24.934 5.63824 -14.8508 -2.50549 73.4056
1450515 33.422 9.23434 25.121 5.63824 -14.871 -2.43077 73.4156
1450524 33.2626 9.13337 25.2588 5.78038 -14.8456 -2.31975 73.4352
1450539 33.2626 9.13337 25.2588 5.78038 -14.8456 -2.31975 73.4352
1450544 33.0434 9.05994 25.5148 5.7709 -14.8957 -2.21102 73.389
1450555 32.7345 9.0324 25.5541 5.86566 -14.8219 -2.12069 73.1867
1450566 32.7345 9.0324 25.5541 5.86566 -14.8219 -2.12069 73.1867
1450576 32.3857 9.00486 25.4754 5.89409 -14.7616 -2.06592 72.76
1450590 32.3857 9.00486 25.4754 5.89409 -14.7616 -2.06592 72.76
1450597 32.027 9.04158 25.4852 5.86566 -14.7077 -2.01278 72.4194
1450605 31.8277 9.14255 25.7018 6.01728 -14.5722 -1.90905 72.6893
1450615 31.8277 9.14255 25.7018 6.01728 -14.5722 -1.90905 72.6893
1450626 31.5188 9.34449 25.8298 6.17837 -14.3491 -1.82276 72.8714
1450645 31.2796 9.79428 25.8396 6.4437 -13.9323 -1.79749 73.3572
1450655 31.0106 10.2349 25.5541 6.57637 -13.5444 -1.86334 73.3759
1450675 30.5522 10.7581 25.0226 6.73746 -13.0283 -1.96049 73.0703
1450690 30.1237 11.4833 24.3335 7.00279 -12.3285 -2.11204 72.9433
1450697 30.1237 11.4833 24.3335 7.00279 -12.3285 -2.11204 72.9433
1450714 29.6155 12.4471 23.3984 7.3534 -11.4034 -2.33006 72.8143
1450719 28.9578 13.5394 22.1679 7.79877 -10.2767 -2.59381 72.4639
1450737 28.9578 13.5394 22.1679 7.79877 -10.2767 -2.59381 72.4639
1450742 28.1108 14.5859 20.839 8.301 -9.07021 -2.83071 71.8367
1450761 27.2339 15.7057 19.7267 9.1728 -7.68455 -2.93157 71.8391
1450767 26.4267 17.0097 18.7719 10.4615 -6.09858 -2.9317 72.6699
1450777 26.4267 17.0097 18.7719 10.4615 -6.09858 -2.9317 72.6699
1450787 25.5399 18.381 17.9056 11.9493 -4.44428 -2.85988 73.7758
1450797 24.5633 19.4994 16.9278 13.4275 -2.87705 -2.76291 74.4181
1450818 23.4871 20.5984 15.9278 14.9911 -1.27508 -2.63316 75.0044
1450834 23.4871 20.5984 15.9278 14.9911 -1.27508 -2.63316 75.0044
1450838 22.4209 21.464 14.866 16.204 0.127119 -2.56451 74.9548
1450848 21.245 22.242 13.701 17.263 1.53086 -2.52305 74.4511
1450860 21.245 22.242 13.701 17.263 1.53086 -2.52305 74.4511
1450868 20.0293 23.0784 12.6907 18.1009 2.86174 -2.49991 73.8993
1450884 20.0293 23.0784 14.2268 18.1009 2.29439 -2.14356 75.4353
1450888 18.6741 23.905 11.5876 18.5295 4.1862 -2.57138 72.6963
1450898 17.3886 24.6442 10.6701 19.0458 5.44654 -2.575 71.7487
1450909 17.3886 24.6442 10.6701 19.0458 5.44654 -2.575 71.7487
1450918 16.2624 25.2958 9.92784 19.5135 6.55604 -2.55992 70.9995
1450934 15.314 26.0738 9.46392 20.1564 7.55275 -2.4858 71.0082
1450938 15.314 26.0738 9.46392 20.1564 7.55275 -2.4858 71.0082
1450948 14.5852 26.8421 8.91753 20.702 8.45968 -2.49296 71.0469
1450960 14.5852 26.8421 8.91753 20.702 8.45968 -2.49296 71.0469
1450968 13.8827 27.6396 8.56701 21.1501 9.24346 -2.48567 71.2395
1450985 13.2769 28.5343 8.2268 21.6178 9.99516 -2.50502 71.6558
1450988 13.2769 28.5343 8.2268 21.6178 9.99516 -2.50502 71.6558
1450998 12.6798 29.4485 7.83505 22.0854 10.7632 -2.54158 72.0487
1451010 12.0651 30.1585 7.47423 22.514 11.4708 -2.54154 72.2118
1451019 12.0651 30.1585 7.47423 22.514 11.4708 -2.54154 72.2118
1451037 11.4768 30.8684 7.2165 22.9817 12.1158 -2.51168 72.5433
1451039 11.4768 30.8684 7.2165 22.9817 12.1158 -2.51168 72.5433
1451049 10.8094 31.2866 6.97938 23.4688 12.7393 -2.40844 72.5442
1451061 10.2035 31.6659 6.79381 23.9851 13.3016 -2.2899 72.6483
1451069 10.2035 31.6659 6.79381 23.9851 13.3016 -2.2899 72.6483
1451080 9.62397 31.7145 6.59794 24.4917 13.8014 -2.12256 72.4281
1451089 9.09711 31.7826 6.48454 25.1347 14.2539 -1.91599 72.4989
1451099 9.09711 31.7826 6.48454 25.1347 14.2539 -1.91599 72.4989
1451113 8.69318 31.7729 6.40206 25.5536 14.5782 -1.76268 72.4217
1451119 8.69318 31.7729 6.40206 25.5536 14.5782 -1.76268 72.4217
1451129 8.23657 31.4325 6.3299 26.1381 14.9036 -1.49737 72.1371
1451139 7.93802 30.9268 6.45361 26.8201 15.025 -1.16258 72.1385
1451149 7.93802 30.9268 6.45361 26.8201 15.025 -1.16258 72.1385
1451163 7.65702 30.2946 6.52577 27.502 15.148 -0.817707 71.9794
1451169 7.50775 29.75 6.76289 28.1158 15.1086 -0.494708 72.1364
1451181 7.50775 29.75 6.76289 28.1158 15.1086 -0.494708 72.1364
1451192 7.52531 29.3221 6.90722 28.6029 15.0269 -0.27723 72.3575
1451200 7.52531 29.3221 6.90722 28.6029 15.0269 -0.27723 72.3575
1451213 7.51653 28.9233 6.96907 28.9146 14.9856 -0.115355 72.3236
1451222 7.47262 28.6413 7.13402 29.0607 14.8998 0.0167692 72.3087
1451230 7.47262 28.6413 7.13402 29.0607 14.8998 0.0167692 72.3087
1451241 7.4375 28.3398 7.10309 29.1582 14.9078 0.100767 72.0386
1451250 7.42872 28.087 7.25773 29.4699 14.8354 0.251645 72.2433
1451263 7.42872 28.087 7.25773 29.4699 14.8354 0.251645 72.2433
1451271 7.37603 27.7563 7.2165 29.8109 14.8887 0.393929 72.1597
1451291 7.28822 27.5326 7.29897 29.8693 14.8685 0.489133 71.9891
1451302 7.21798 27.377 7.41237 30.1129 14.857 0.609457 72.1202
1451314 7.21798 27.377 7.41237 30.1129 14.857 0.609457 72.1202
1451323 7.13895 27.2019 7.37113 30.337 14.9304 0.701024 72.049
1451338 7.10382 26.9685 7.43299 30.6097 14.9211 0.825841 72.1151
1451342 7.10382 26.9685 7.43299 30.6097 14.9211 0.825841 72.1151
1451351 7.18285 27.0172 7.52577 30.8046 14.8604 0.854198 72.5304
1451370 7.15651 27.0561 7.50515 30.9605 14.9133 0.877783 72.6782
1451390 7.08626 27.0366 7.50515 31.1261 14.9721 0.929505 72.7541
1451403 7.0687 26.9685 7.49485 31.3501 15.0088 0.989492 72.8822
1451414 6.95455 26.988 7.49485 31.4963 15.0942 1.03832 72.9337
1451423 6.95455 26.988 7.49485 31.4963 15.0942 1.03832 72.9337
1451440 6.85795 26.9491 7.45361 31.506 15.1661 1.06215 72.7667
1451443 6.6999 26.8616 7.43299 31.506 15.2532 1.11259 72.5005
1451467 6.69112 26.7351 7.50515 31.5255 15.2036 1.16022 72.4569
1451493 6.70868 26.6087 7.50515 31.6911 15.1992 1.2161 72.5136
1451494 6.78771 26.4434 7.64948 31.8957 15.0811 1.30141 72.7763
1451504 6.78771 26.4434 7.64948 31.8957 15.0811 1.30141 72.7763
1451520 6.78771 26.4239 7.62887 31.9736 15.1004 1.31655 72.8141
1451524 6.93698 26.2002 7.75258 32.0126 14.9252 1.36374 72.9024
1451536 6.93698 26.2002 7.75258 32.0126 14.9252 1.36374 72.9024
1451545 7.04236 26.0252 7.89691 31.886 14.7466 1.3827 72.8504
1451555 7.04236 26.0252 7.89691 31.886 14.7466 1.3827 72.8504
1451569 7.34091 25.782 8.03093 31.886 14.4771 1.39525 73.0398
1451576 7.71849 25.5 8.28866 31.8665 14.092 1.41808 73.3736
1451585 7.71849 25.5 8.28866 31.8665 14.092 1.41808 73.3736
1451595 8.11364 25.393 8.37113 31.6424 13.7889 1.32757 73.5202
1451605 8.70196 25.3444 8.45361 30.9507 13.3217 1.0942 73.4507
1451620 8.70196 25.3444 8.45361 30.9507 13.3217 1.0942 73.4507
1451626 9.26395 25.3833 8.59794 29.9278 12.7948 0.795068 73.173
1451637 9.26395 25.3833 8.59794 29.9278 12.7948 0.795068 73.173
1451647 9.95764 25.286 8.62887 28.6126 12.1791 0.41342 72.4852
1451657 10.7216 25.1499 8.7732 27.3754 11.4657 0.0577086 72.02
1451669 10.7216 25.1499 8.7732 27.3754 11.4657 0.0577086 72.02
1451677 11.5821 24.897 9 26.0699 10.6168 -0.295442 71.5491
1451694 12.548 24.6053 9.38144 24.784 9.62572 -0.628425 71.3187
1451697 12.548 24.6053 9.38144 24.784 9.62572 -0.628425 71.3187
1451707 13.7159 24.2746 9.97938 23.3032 8.3771 -0.990833 71.273
1451727 14.9277 23.7981 10.7113 21.9198 7.03464 -1.28116 71.3568
1451745 16.2273 23.1076 11.8351 20.7215 5.48283 -1.41428 71.8914
1451757 17.4484 22.2128 13.2474 19.5622 3.82194 -1.41815 72.4708
1451769 18.7239 21.5126 14.7732 18.3736 2.17662 -1.44917 73.3833
1451779 18.7239 21.5126 14.7732 18.3736 2.17662 -1.44917 73.3833
1451795 19.7902 20.861 16.4948 17.1266 0.573105 -1.4197 74.2726
1451808 20.8066 20.1608 18.2108 15.7113 -1.04999 -1.41114 74.8894
1451821 21.9525 19.3924 19.3625 14.3183 -2.53389 -1.53232 75.0257
1451828 21.9525 19.3924 19.3625 14.3183 -2.53389 -1.53232 75.0257
1451846 22.939 18.6339 19.9531 12.8685 -3.82751 -1.76452 74.3945
1451848 23.8359 17.9434 20.0023 11.646 -4.85131 -2.06957 73.4276
1451858 23.8359 17.9434 20.0023 11.646 -4.85131 -2.06957 73.4276
1451871 24.7128 17.2042 19.8842 10.5279 -5.82921 -2.38596 72.3291
1451878 24.7128 17.2042 19.8842 10.5279 -5.82921 -2.38596 72.3291
1451896 25.5199 16.6787 19.8054 9.65608 -6.62522 -2.66615 71.6602
1451898 26.3968 16.3299 19.7759 9.14437 -7.22237 -2.89052 71.647
1451908 26.3968 16.3299 19.7759 9.14437 -7.22237 -2.89052 71.647
1451923 27.1442 16.1188 19.8448 8.60424 -7.76229 -3.09863 71.712
1451928 28.0012 15.9444 19.8153 8.17781 -8.23419 -3.32626 71.9387
1451938 28.0012 15.9444 19.8153 8.17781 -8.23419 -3.32626 71.9387
1451950 28.7884 15.7149 19.835 7.81773 -8.69323 -3.50295 72.156
1451960 28.7884 15.7149 19.835 7.81773 -8.69323 -3.50295 72.156
1451971 29.6753 15.4671 19.7169 7.44816 -9.15429 -3.72936 72.3073
1451979 30.5621 15.4028 19.6283 7.25864 -9.44689 -3.92812 72.8518
1451996 30.5621 15.4028 19.6283 7.25864 -9.44689 -3.92812 72.8518
1452003 31.3494 15.2192 19.52 6.95541 -9.82104 -4.12625 73.044
1452012 32.0668 15.054 19.3822 6.75641 -10.1143 -4.29615 73.2594
1452021 32.0668 15.054 19.3822 6.75641 -10.1143 -4.29615 73.2594
1452029 32.6547 14.7419 19.205 6.55741 -10.4431 -4.43573 73.159
1452045 32.6547 14.7419 19.205 6.55741 -10.4431 -4.43573 73.159
1452053 33.0533 14.5491 18.9294 6.31104 -10.6814 -4.60486 72.8429
1452059 33.422 14.3747 18.6931 6.15942 -10.8676 -4.73733 72.6493
1452071 33.422 14.3747 18.6931 6.15942 -10.8676 -4.73733 72.6493
1452081 33.4519 14.0902 18.6045 5.932 -11.1109 -4.7876 72.0786
1452096 33.5317 13.8332 18.6144 5.84671 -11.3003 -4.78318 71.8259
1452100 33.5317 13.8332 18.6144 5.84671 -11.3003 -4.78318 71.8259
1452111 33.6114 13.5853 18.7719 5.7709 -11.5094 -4.73671 71.7394
1452122 33.6114 13.5853 18.7719 5.7709 -11.5094 -4.73671 71.7394
1452130 33.5516 13.2549 19.0081 5.70457 -11.7452 -4.63382 71.5191
1452148 33.3623 12.9887 19.3526 5.69509 -11.9159 -4.47554 71.3986
1452153 33.3623 12.9887 19.3526 5.69509 -11.9159 -4.47554 71.3986
1452161 33.2427 12.75 19.707 5.67614 -12.0922 -4.3312 71.3758
1452175 33.0832 12.5297 20.1401 5.78038 -12.2017 -4.12935 71.5334
1452181 33.0832 12.5297 20.1401 5.78038 -12.2017 -4.12935 71.5334
1452191 33.0334 12.392 20.5929 5.80881 -12.3301 -3.9728 71.8272
1452201 33.0334 12.392 20.5929 5.80881 -12.3301 -3.9728 71.8272
1452211 33.2327 12.2451 20.7504 5.74248 -12.5035 -3.9568 71.9708
1452224 33.4519 12.2176 20.8686 5.69509 -12.6008 -3.96754 72.2332
1452230 33.4519 12.2176 20.8686 5.69509 -12.6008 -3.96754 72.2332
1452241 33.9203 12.2176 20.7111 5.57191 -12.718 -4.1124 72.4208
1452251 33.9203 12.2176 20.7111 5.57191 -12.718 -4.1124 72.4208
1452262 34 12.0891 20.4945 5.43924 -12.8314 -4.1977 72.0228
1452275 34 12.0524 20.2779 5.39186 -12.839 -4.26282 71.7222
1452280 34 12.0524 20.2779 5.39186 -12.839 -4.26282 71.7222
1452290 34 11.933 20.2189 5.26867 -12.9575 -4.29403 71.4206
1452301 34 11.878 20.0909 5.19286 -13.0056 -4.341 71.1617
1452327 34 11.8321 20.0417 5.06968 -13.0879 -4.3811 70.9434
1452332 34 11.7219 19.9039 5.06968 -13.124 -4.40234 70.6955
1452342 34 11.7219 19.9039 5.06968 -13.124 -4.40234 70.6955
1452352 34 11.6852 20.022 5.06968 -13.1636 -4.36446 70.7769
1452363 34 11.6852 20.022 5.06968 -13.1636 -4.36446 70.7769
1452377 34 11.5383 20.022 5.0223 -13.2686 -4.35533 70.5826
1452382 34 11.5659 19.9334 4.90858 -13.3007 -4.41511 70.4079
1452392 34 11.5659 19.9334 4.90858 -13.3007 -4.41511 70.4079
1452402 34 11.7678 19.6972 4.85173 -13.1824 -4.52643 70.3167
1452412 34 11.8229 19.392 4.90858 -13.07 -4.6038 70.1235
1452429 34 11.8229 19.392 4.90858 -13.07 -4.6038 70.1235
1452432 34 11.9698 19.3329 4.8612 -13.006 -4.6553 70.1639
1452455 34 12.1075 19.1459 4.88963 -12.884 -4.72005 70.143
1452464 34 12.3645 19.0278 4.95596 -12.6895 -4.77213 70.3482
1452480 34 12.3645 19.0278 4.95596 -12.6895 -4.77213 70.3482
1452483 34 12.75 18.8605 5.0223 -12.4192 -4.85623 70.6327
1452493 34 13.1906 18.5258 5.04125 -12.1167 -5.008 70.7576
1452506 34 13.1906 18.5258 5.04125 -12.1167 -5.008 70.7576
1452513 34 13.6863 18.073 5.19286 -11.6959 -5.16273 70.9521
1452532 34 13.6863 18.073 5.19286 -11.6959 -5.16273 70.9521
1452534 34 14.4114 17.6792 5.41081 -11.1386 -5.31208 71.5015
1452544 34 15.1917 17.2756 5.59086 -10.5793 -5.47999 72.0582
1452559 34 15.1917 17.2756 5.59086 -10.5793 -5.47999 72.0582
1452564 34 15.9077 16.7938 5.66667 -10.094 -5.68908 72.3681
1452583 34 16.4125 16.1959 5.76143 -9.68011 -5.89788 72.3698
1452594 34 16.844 15.8557 5.9699 -9.30301 -5.9898 72.6695
1452609 34 16.844 15.8557 5.9699 -9.30301 -5.9898 72.6695
1452616 34 17.2918 15.5155 6.23523 -8.89499 -6.06656 73.0425
1452625 34 17.8558 15.1959 6.41527 -8.48162 -6.17516 73.467
1452635 34 17.8558 15.1959 6.41527 -8.48162 -6.17516 73.467
1452645 33.3722 18.4491 14.5979 6.80379 -7.75619 -6.23156 73.223
1452662 32.6249 19.1007 14.1031 7.19231 -6.99626 -6.25098 73.0209
1452667 32.6249 19.1007 14.1031 7.19231 -6.99626 -6.25098 73.0209
1452686 31.8675 19.8398 13.4536 7.58082 -6.15207 -6.32503 72.7418
1452689 31.0006 20.6081 12.8041 8.01672 -5.23953 -6.3761 72.4296
1452698 31.0006 20.6081 12.8041 8.01672 -5.23953 -6.3761 72.4296
1452710 30.0539 21.639 12.1134 8.57581 -4.12826 -6.42501 72.3822
1452735 28.9777 22.5046 11.4639 9.13489 -3.05287 -6.42682 72.0811
1452738 27.8019 23.3701 11.0722 9.6087 -2.05114 -6.36533 71.8529
1452748 27.8019 23.3701 11.0722 9.6087 -2.05114 -6.36533 71.8529
1452760 26.7954 24.119 10.6598 10.2436 -1.07656 -6.26816 71.8178
1452768 25.8388 25.0235 10.3711 10.9732 -0.0738278 -6.13196 72.2066
1452787 25.8388 25.0235 10.3711 10.9732 -0.0738278 -6.13196 72.2066
1452788 24.7626 25.9863 10.0515 11.8735 1.04769 -5.94929 72.6739
1452798 24.7626 25.9863 10.0515 11.8735 1.04769 -5.94929 72.6739
1452813 23.4273 27.0366 9.69072 12.8116 2.30592 -5.74819 72.9662
1452818 22.0621 28.0286 9.26804 13.5981 3.52829 -5.5974 72.9569
1452828 22.0621 28.0286 9.26804 13.5981 3.52829 -5.5974 72.9569
1452839 20.4379 28.9817 8.85567 14.3941 4.84464 -5.40182 72.6693
1452848 18.8036 29.7889 8.35052 15.1427 6.16538 -5.22281 72.0858
1452868 17.1993 30.5086 7.90722 15.8818 7.44225 -5.01815 71.4969
1452890 17.1993 30.5086 7.90722 15.8818 7.44225 -5.01815 71.4969
1452891 15.7092 31.1407 7.52577 16.5546 8.62127 -4.81519 70.9303
1452899 14.4711 31.7534 7.02062 17.1851 9.74257 -4.68949 70.4302
1452917 14.4711 31.7534 7.02062 17.1851 9.74257 -4.68949 70.4302
1452919 13.2066 32.2494 6.53608 17.9158 10.8795 -4.50683 69.9079
1452929 12.188 32.8427 6.16495 18.8023 11.8904 -4.29944 69.9979
1452942 12.188 32.8427 6.16495 18.8023 11.8904 -4.29944 69.9979
1452949 11.345 33.4651 5.98969 19.6596 12.6988 -4.07912 70.4594
1452959 11.345 33.4651 5.98969 19.6596 12.6988 -4.07912 70.4594
1452970 10.6074 33.8152 5.73196 20.5851 13.451 -3.8392 70.7397
1452979 10.0191 34 5.72165 21.608 13.9691 -3.5087 71.3488
1452994 10.0191 34 5.72165 21.608 13.9691 -3.5087 71.3488
1453001 9.47469 34 5.57732 22.4556 14.4752 -3.23919 71.5076
1453010 9.00052 34 5.57732 23.2252 14.8487 -2.96603 71.8031
1453030 8.8688 34 5.7732 24.0241 14.9251 -2.69828 72.6661
1453048 8.8688 34 5.7732 24.0241 14.9251 -2.69828 72.6661
1453051 8.78099 34 5.92783 24.7937 14.9943 -2.46103 73.5025
1453061 8.70196 34 6.02062 25.5244 15.0854 -2.25403 74.2469
1453075 8.70196 34 6.02062 25.5244 15.0854 -2.25403 74.2469
1453081 8.6405 34 6.1134 25.8264 15.1087 -2.15219 74.5803
1453091 8.49122 33.9125 6.05155 25.9238 15.2239 -2.10309 74.379
1453102 8.49122 33.9125 6.05155 25.9238 15.2239 -2.10309 74.379
1453112 8.33316 33.7569 5.96907 25.7095 15.306 -2.11706 73.7686
1453132 8.22779 33.4359 5.85567 25.4659 15.3519 -2.12553 72.9853
1453142 8.07851 33.2706 5.81443 25.2516 15.4074 -2.13003 72.4151
1453153 8.07851 33.2706 5.81443 25.2516 15.4074 -2.13003 72.4151
1453162 8.06973 32.8913 5.89691 25.2126 15.3104 -2.05039 72.0706
1453178 8.03461 32.5023 6.02062 25.3977 15.2334 -1.90088 71.9552
1453192 8.03461 32.2008 6.09278 25.6315 15.1838 -1.77414 71.9597
1453213 7.9468 31.7729 6.20619 26.0309 15.1656 -1.5598 71.9568
1453231 7.89411 31.3158 6.28866 26.4206 15.1398 -1.35582 71.9192
1453233 7.89411 31.3158 6.28866 26.4206 15.1398 -1.35582 71.9192
1453243 7.92924 30.9949 6.60825 26.8006 14.951 -1.14373 72.3329
1453258 8.04339 30.742 6.71134 27.0928 14.8369 -1.02932 72.5896
1453263 8.04339 30.742 6.71134 27.0928 14.8369 -1.02932 72.5896
1453292 8.22779 30.5086 6.83505 27.2292 14.6547 -0.962647 72.8006
1453294 8.29804 30.1487 6.95876 27.4241 14.5257 -0.837012 72.8296
1453297 8.29804 30.1487 6.95876 27.4241 14.5257 -0.837012 72.8296
1453312 8.32438 29.857 7 27.5897 14.4708 -0.740337 72.771
1453325 8.3595 29.536 7.09278 27.7163 14.3732 -0.636775 72.7047
1453338 8.46488 29.2832 7.17526 27.8235 14.2503 -0.566892 72.7468
1453346 8.46488 29.2832 7.17526 27.8235 14.2503 -0.566892 72.7468
1453364 8.54391 29.1081 7.2268 27.6676 14.1306 -0.570174 72.5465
1453366 8.70196 29.0011 7.25773 27.5312 13.9921 -0.602991 72.4921
1453375 8.70196 29.0011 7.25773 27.5312 13.9921 -0.602991 72.4921
1453389 8.84246 28.8066 7.36082 27.3072 13.7971 -0.618339 72.3171
1453395 8.84246 28.8066 7.36082 27.3072 13.7971 -0.618339 72.3171
1453407 8.96539 28.6413 7.34021 27.3072 13.7165 -0.614359 72.2541
1453417 9.07955 28.5538 7.51546 27.4143 13.5651 -0.558864 72.5631
1453444 9.22882 28.4857 7.5567 27.2292 13.4238 -0.605913 72.5005
1453446 9.43957 28.5441 7.52577 26.8298 13.2738 -0.752299 72.3392
1453457 9.43957 28.5441 7.52577 26.8298 13.2738 -0.752299 72.3392
1453471 9.72056 28.5635 7.51546 26.3622 13.0574 -0.915945 72.1617
1453477 9.72056 28.5635 7.51546 26.3622 13.0574 -0.915945 72.1617
1453487 9.98399 28.3593 7.64948 26.1966 12.7866 -0.934461 72.1893
1453497 10.3089 28.3884 7.81443 25.9335 12.4917 -1.02478 72.4453
1453507 10.3089 28.3884 7.81443 25.9335 12.4917 -1.02478 72.4453
1453523 10.704 28.2523 7.96907 25.6023 12.1269 -1.1137 72.5277
1453527 11.0904 28.0092 8.06186 25.0957 11.7472 -1.23351 72.2571
1453537 11.0904 28.0092 8.06186 25.0957 11.7472 -1.23351 72.2571
1453549 11.5382 27.7174 8.28866 24.404 11.2214 -1.36826 71.9483
1453557 11.5382 27.7174 8.28866 24.404 11.2214 -1.36826 71.9483
1453575 11.9597 27.3576 8.51546 23.7026 10.6888 -1.48861 71.5353
1453577 12.5041 27.0366 8.96907 23.0499 9.99629 -1.57669 71.5597
1453587 12.5041 27.0366 8.96907 23.0499 9.99629 -1.57669 71.5597
1453601 13.031 26.5795 9.52577 22.3777 9.22911 -1.61656 71.5139
1453607 13.6281 25.996 10.3608 21.5885 8.24175 -1.60843 71.5735
1453618 13.6281 25.996 10.3608 21.5885 8.24175 -1.60843 71.5735
1453629 14.3042 25.2958 11.6598 20.7605 6.97449 -1.49536 72.0203
1453638 14.3042 25.2958 11.6598 20.7605 6.97449 -1.49536 72.0203
1453653 14.9101 24.4399 13.4742 19.9811 5.50669 -1.21449 72.8054
1453658 15.595 23.5452 15.7629 19.3186 3.87551 -0.820256 74.2217
1453668 15.595 23.5452 15.7629 19.3186 3.87551 -0.820256 74.2217
1453680 16.4029 22.6894 17.502 18.2665 2.35467 -0.665989 74.8608
1453688 17.0299 21.7168 19.0573 17.0682 0.900799 -0.525135 74.8722
1453705 17.0299 21.7168 19.0573 17.0682 0.900799 -0.525135 74.8722
1453708 17.6975 20.5789 20.3075 15.8818 -0.518435 -0.420431 74.4658
1453720 17.6975 20.5789 20.3075 15.8818 -0.518435 -0.420431 74.4658
1453734 18.3353 19.3633 21.6167 14.5741 -2.03499 -0.306083 73.8894
1453738 19.0528 18.0309 22.8078 13.4181 -3.55055 -0.175522 73.3095
1453761 19.7802 16.7522 23.8413 12.3283 -5.00023 -0.0748318 72.702
1453769 20.7169 15.6965 24.7765 11.4091 -6.33193 -0.0470665 72.5991
1453785 20.7169 15.6965 24.7765 11.4091 -6.33193 -0.0470665 72.5991
1453790 21.803 14.6501 25.5541 10.6511 -7.58895 -0.0511891 72.6584
1453813 22.6301 13.8148 26.0857 10.0256 -8.57107 -0.0689632 72.5563
1453822 23.4373 13.0529 26.6862 9.53289 -9.46841 -0.0559384 72.7092
1453829 23.4373 13.0529 26.6862 9.53289 -9.46841 -0.0559384 72.7092
1453839 24.1846 12.3645 27.1094 9.14437 -10.228 -0.060845 72.8029
1453850 24.8224 11.7862 27.6705 8.82219 -10.9042 -0.0237706 73.1013
1453867 24.8224 11.7862 27.6705 8.82219 -10.9042 -0.0237706 73.1013
1453869 25.4302 11.263 28.0643 8.60424 -11.4594 -0.00504792 73.3617
1453879 25.4302 11.263 28.0643 8.60424 -11.4594 -0.00504792 73.3617
1453891 25.8388 10.8132 28.2808 8.32943 -11.9356 -0.00854015 73.2622
1453899 26.3171 10.3909 28.3202 8.08305 -12.3659 -0.0625321 73.1113
1453917 26.3171 10.3909 28.3202 8.08305 -12.3659 -0.0625321 73.1113
1453923 26.636 10.088 28.3301 7.88406 -12.6799 -0.10486 72.9381
1453932 27.0844 9.87689 28.2907 7.73244 -12.9362 -0.192818 72.9844
1453946 27.0844 9.87689 28.2907 7.73244 -12.9362 -0.192818 72.9844
1453950 27.4132 9.74838 28.2119 7.5903 -13.1183 -0.279465 72.9639
1453973 27.6125 9.72084 28.2316 7.59978 -13.1633 -0.307935 73.1648
1453980 27.7521 9.73002 28.3301 7.66611 -13.1624 -0.303336 73.4782
1453990 27.7521 9.73002 28.3301 7.66611 -13.1624 -0.303336 73.4782
1454000 27.8617 9.74838 28.2907 7.62821 -13.1838 -0.344999 73.5289
1454010 27.6823 9.74838 28.271 7.68506 -13.1222 -0.301408 73.3867
1454026 27.6823 9.74838 28.271 7.68506 -13.1222 -0.301408 73.3867
1454032 27.7222 9.80346 28.0052 7.63768 -13.0815 -0.38597 73.1685
1454041 27.7222 9.80346 28.0052 7.63768 -13.0815 -0.38597 73.1685
1454055 27.6723 9.75756 27.5819 7.57135 -13.0627 -0.470484 72.5832
1454062 27.6125 9.80346 27.1783 7.46711 -13.0168 -0.576704 72.0615
1454072 27.6125 9.80346 27.1783 7.46711 -13.0168 -0.576704 72.0615
1454082 27.6723 9.92279 26.9323 7.38183 -12.9677 -0.684414 71.9092
1454092 27.493 9.90443 26.8633 7.40078 -12.9257 -0.655847 71.6615
1454108 27.493 9.90443 26.8633 7.40078 -12.9257 -0.655847 71.6615
1454112 27.3734 9.82181 26.9913 7.44816 -12.9458 -0.577037 71.6347
1454122 27.3734 9.82181 26.9913 7.44816 -12.9458 -0.577037 71.6347
1454135 26.9848 9.76674 27.2177 7.60925 -12.8623 -0.403303 71.5785
1454142 26.7157 9.66577 27.513 7.73244 -12.855 -0.237901 71.6269
1454162 26.7157 9.66577 27.513 7.73244 -12.855 -0.237901 71.6269
1454162 26.347 9.64741 28.0151 7.95039 -12.7725 -0.00604033 71.9599
1454172 26.347 9.64741 28.0151 7.95039 -12.7725 -0.00604033 71.9599
1454188 25.9783 9.59233 28.4974 8.11148 -12.7363 0.215762 72.1795
1454192 25.6495 9.65659 29.0191 8.35786 -12.6075 0.427387 72.683
1454202 25.6495 9.65659 29.0191 8.35786 -12.6075 0.427387 72.683
1454214 25.3505 9.61069 29.3735 8.45262 -12.5917 0.590394 72.7873
1454222 24.8921 9.58315 29.5704 8.60424 -12.4829 0.763793 72.6499
1454240 24.8921 9.58315 29.5704 8.60424 -12.4829 0.763793 72.6499
1454242 24.5135 9.58315 29.9247 8.77481 -12.3908 0.948449 72.7962
1454252 24.5135 9.58315 29.9247 8.77481 -12.3908 0.948449 72.7962
1454266 24.0352 9.54644 30.1905 8.9359 -12.29 1.14392 72.708
1454272 23.4672 9.62905 30.663 9.16332 -12.1148 1.38436 72.9225
1454282 23.4672 9.62905 30.663 9.16332 -12.1148 1.38436 72.9225
1454292 23.0188 9.58315 30.9977 9.34337 -12.0265 1.59148 72.943
1454302 22.5703 9.61987 31.3028 9.48551 -11.9103 1.76726 72.9786
1454322 22.3411 9.77592 31.106 9.58027 -11.7065 1.76554 72.8033
1454348 22.1518 9.82181 30.8796 9.52341 -11.6357 1.74697 72.3766
1454353 22.1518 9.9595 30.6827 9.50446 -11.5392 1.67552 72.2985
1454363 22.1518 9.9595 30.6827 9.50446 -11.5392 1.67552 72.2985
1454374 22.0522 10.1982 30.4464 9.56132 -11.3272 1.61036 72.2581
1454383 21.9426 10.4276 30.2693 9.71293 -11.0816 1.57811 72.3524
1454401 21.9426 10.4276 30.2693 9.71293 -11.0816 1.57811 72.3524
1454403 21.9326 10.7122 29.8952 9.71293 -10.8655 1.44562 72.2529
1454413 21.9326 10.7122 29.8952 9.71293 -10.8655 1.44562 72.2529
1454428 21.8628 11.061 29.3538 9.63712 -10.6093 1.26547 71.9148
1454434 21.7831 11.5475 28.8616 9.82664 -10.1607 1.11588 72.0189
1454443 21.7831 11.5475 28.8616 9.82664 -10.1607 1.11588 72.0189
1454457 21.7233 12.1075 28.3301 9.94983 -9.70595 0.925475 72.1107
1454463 21.6635 12.7684 27.641 10.2152 -9.10282 0.710544 72.2881
1454473 21.6635 12.7684 27.641 10.2152 -9.10282 0.710544 72.2881
1454483 21.5838 13.6863 26.7157 10.6511 -8.24725 0.432971 72.6369
1454493 21.5838 13.6863 26.7157 10.6511 -8.24725 0.432971 72.6369
1454510 21.3646 14.7878 25.4655 11.0396 -7.22663 0.0728202 72.6575
1454513 21.1254 15.9168 23.9102 11.3902 -6.12662 -0.361165 72.3427
1454537 20.9062 17 22.3353 11.8829 -4.977 -0.76701 72.1244
1454553 20.6671 18.3518 20.7406 12.5463 -3.63372 -1.18912 72.3057
1454563 20.6671 18.3518 20.7406 12.5463 -3.63372 -1.18912 72.3057
1454564 20.5375 19.587 19.3329 13.4181 -2.3552 -1.51768 72.8755
1454574 20.5375 19.587 19.3329 13.4181 -2.3552 -1.51768 72.8755
1454589 20.2884 20.8221 17.8564 14.2993 -1.03164 -1.83333 73.2662
1454596 19.9596 21.9891 16.4433 15.2659 0.289232 -2.08521 73.6579
1454606 19.9596 21.9891 16.4433 15.2659 0.289232 -2.08521 73.6579
1454616 19.6208 22.9714 15.0103 16.0524 1.49098 -2.348 73.6549
1454626 19.1325 23.9634 13.7216 16.8105 2.68911 -2.55957 73.628
1454643 19.1325 23.9634 13.7216 16.8105 2.68911 -2.55957 73.628
1454648 18.6143 24.9262 12.5567 17.5748 3.84474 -2.73015 73.672
1454656 18.6143 24.9262 12.5567 17.5748 3.84474 -2.73015 73.672
1454669 17.9766 25.8209 11.4433 18.2372 4.98051 -2.88187 73.478
1454675 17.3488 26.6865 10.6082 18.7341 5.9499 -3.00356 73.3776
1454695 16.7717 27.5618 9.91753 19.0069 6.78406 -3.1551 73.2579
1454707 16.1746 28.1745 9.36082 19.2407 7.49815 -3.23799 72.9506
1454722 16.1746 28.1745 9.36082 19.2407 7.49815 -3.23799 72.9506
1454727 15.6477 28.7872 8.93814 19.4063 8.10931 -3.31628 72.7794
1454736 15.6477 28.7872 8.93814 19.4063 8.10931 -3.31628 72.7794
1454750 14.9628 29.3902 8.48454 19.5232 8.79829 -3.38828 72.3607
1454757 14.3569 29.8667 8.05155 19.4648 9.38215 -3.49331 71.7399
1454777 14.3569 29.8667 8.05155 19.4648 9.38215 -3.49331 71.7399
1454777 13.7686 30.1974 7.60825 19.3186 9.92313 -3.60525 70.8928
1454787 13.3295 30.4113 7.40206 19.3966 10.305 -3.60272 70.5395
1454803 13.3295 30.4113 7.40206 19.3966 10.305 -3.60272 70.5395
1454807 12.952 30.7225 7.28866 19.5622 10.6501 -3.57822 70.5253
1454831 12.671 31.0338 7.06186 19.7278 11.004 -3.59924 70.4944
1454838 12.39 31.4908 7.05155 20.098 11.3146 -3.53327 71.0304
1454859 12.39 31.4908 7.05155 20.098 11.3146 -3.53327 71.0304
1454860 12.1968 31.7437 6.79381 20.1857 11.6112 -3.58736 70.92
1454868 11.8807 31.8896 6.73196 20.3805 11.8708 -3.52508 70.8828
1454886 11.8807 31.8896 6.73196 20.3805 11.8708 -3.52508 70.8828
1454889 11.626 31.9479 6.72165 20.5754 12.0556 -3.44506 70.871
1454898 11.4416 31.9479 6.71134 20.9553 12.2263 -3.31912 71.0562
1454913 11.4416 31.909 6.71134 20.9553 12.2193 -3.31272 71.0173
1454919 11.3538 32.0549 6.71134 21.345 12.3608 -3.22236 71.4651
1454929 11.3538 32.0549 6.71134 21.345 12.3608 -3.22236 71.4651
1454941 11.2133 32.4439 6.63918 21.608 12.586 -3.2147 71.9045
1454949 11.064 32.9594 6.54639 21.6957 12.8155 -3.2757 72.2655
1454968 11.064 32.9594 6.54639 21.6957 12.8155 -3.2757 72.2655
1454969 10.8445 33.2511 6.36082 21.8321 13.0995 -3.29985 72.2886
1454979 10.5284 33.6402 6.25773 21.9587 13.405 -3.30568 72.385
1454999 10.265 33.9222 6.14433 22.1146 13.6748 -3.29795 72.4461
1455009 10.265 33.9222 6.14433 22.1146 13.6748 -3.29795 72.4461
1455022 9.91374 34 5.92783 22.2413 14.0115 -3.27636 72.0828
1455029 9.58884 34 5.87629 22.4946 14.2543 -3.17219 71.9597
1455049 9.22882 34 5.72165 22.6699 14.5627 -3.10748 71.6204
1455060 8.89514 34 5.62887 22.6894 14.8025 -3.07039 71.2134
1455080 8.61415 34 5.51546 22.855 15.0474 -3.00988 70.9846
1455091 8.61415 34 5.51546 22.855 15.0474 -3.00988 70.9846
1455105 8.34194 34 5.40206 23.1278 15.3036 -2.92332 70.8718
1455110 8.12242 34 5.37113 23.5175 15.499 -2.79544 71.011
1455121 8.12242 34 5.37113 23.5175 15.499 -2.79544 71.011
1455133 7.88533 34 5.40206 23.8682 15.6631 -2.65933 71.1556
1455141 7.63068 34 5.30928 24.102 15.8927 -2.58004 71.042
1455160 7.49897 34 5.35052 24.2092 15.9585 -2.5203 71.0586
1455190 7.44628 34 5.36082 24.2871 15.9929 -2.48931 71.0942
1455217 7.49019 34 5.36082 24.4332 15.9861 -2.46116 71.2842
1455217 7.49019 34 5.36082 24.4332 15.9861 -2.46116 71.2842
1455218 7.50775 34 5.36082 24.5501 15.9908 -2.43566 71.4187
1455222 7.53409 34 5.43299 24.6183 15.9429 -2.4061 71.5854
1455232 7.53409 34 5.43299 24.6183 15.9429 -2.4061 71.5854
1455248 7.58678 34 5.4433 24.6183 15.9069 -2.41285 71.6484
1455269 7.63946 34 5.41237 24.443 15.8722 -2.47237 71.4948
1455273 7.71849 34 5.40206 24.3553 15.8217 -2.51018 71.4759
1455296 7.77996 34 5.30928 24.0728 15.8032 -2.61331 71.162
1455303 7.85021 34 5.35052 23.8487 15.7102 -2.67088 71.0494
1455313 7.85021 34 5.35052 23.8487 15.7102 -2.67088 71.0494
1455323 8.01705 34 5.40206 23.6734 15.5622 -2.73059 71.0925
1455333 8.01705 34 5.40206 23.6734 15.5622 -2.73059 71.0925
1455351 8.21023 34 5.35052 23.537 15.4633 -2.8108 71.0977
1455353 8.39463 34 5.45361 23.3129 15.2698 -2.87266 71.1611
1455363 8.39463 34 5.45361 23.3129 15.2698 -2.87266 71.1611
1455379 8.6405 34 5.40206 22.855 15.0966 -3.04314 70.8976
1455384 8.79855 34 5.40206 22.3971 14.9426 -3.18693 70.5977
1455405 9.02686 34 5.47423 22.0269 14.7196 -3.30203 70.528
1455414 9.02686 34 5.47423 22.0269 14.7196 -3.30203 70.528
1455433 9.18492 34 5.46392 21.8613 14.6123 -3.37391 70.5102
1455434 9.47469 34 5.64948 21.6567 14.3162 -3.42645 70.7809
1455460 9.86105 34 5.7732 21.3352 13.9852 -3.54081 70.9695
1455465 10.2913 34 5.87629 20.9066 13.6262 -3.69511 71.0742
1455486 10.2913 34 5.87629 20.9066 13.6262 -3.69511 71.0742
1455487 10.7304 34 6.04124 20.7312 13.2721 -3.76724 71.5028
1455513 11.0289 34 6.25773 20.7799 13.0065 -3.74471 72.0666
1455515 11.4943 34 6.48454 20.663 12.625 -3.78846 72.6419
1455526 11.4943 34 6.48454 20.663 12.625 -3.78846 72.6419
1455542 11.8895 33.6693 6.76289 20.2539 12.1497 -3.83229 72.5755
1455545 12.4514 33.0664 6.96907 19.7473 11.5572 -3.90427 72.2342
1455556 12.4514 33.0664 6.96907 19.7473 11.5572 -3.90427 72.2342
1455568 13.1276 32.4731 7.27835 19.1043 10.8259 -4.00469 71.9833
1455578 13.1276 32.4731 7.27835 19.1043 10.8259 -4.00469 71.9833
1455596 13.8301 32.0063 7.58763 18.3639 10.0827 -4.15491 71.7879
1455597 14.6028 31.5492 7.96907 17.7501 9.297 -4.26446 71.8712
1455606 14.6028 31.5492 7.96907 17.7501 9.297 -4.26446 71.8712
1455622 15.3228 31.131 8.35052 17.1169 8.54218 -4.37696 71.9213
1455625 16.1043 30.4697 9.10309 16.4504 7.52578 -4.37154 72.1275
1455636 16.1043 30.4697 9.10309 16.4504 7.52578 -4.37154 72.1275
1455649 16.921 29.7792 10 15.8629 6.44994 -4.30741 72.563
1455676 17.8171 28.9136 11.0619 15.3986 5.27154 -4.15426 73.1911
1455677 18.6841 28.0481 12.3814 14.9342 4.02334 -3.93323 74.0478
1455687 18.6841 28.0481 12.3814 14.9342 4.02334 -3.93323 74.0478
1455705 19.561 27.2506 13.9072 14.4699 2.74387 -3.67763 75.1886
1455707 20.2186 26.4142 15.2268 13.9677 1.62752 -3.44962 75.8273
1455717 20.2186 26.4142 15.2268 13.9677 1.62752 -3.44962 75.8273
1455733 20.966 25.3541 16.5155 13.3517 0.401765 -3.2393 76.1873
1455747 21.6336 24.2551 17.3052 12.5842 -0.69264 -3.16704 75.7781
1455762 22.2913 23.0978 17.7481 11.7598 -1.72966 -3.18062 74.897
1455767 22.2913 23.0978 17.7481 11.7598 -1.72966 -3.18062 74.897
1455777 22.949 21.9405 18.0139 11.0206 -2.70608 -3.21715 73.924
1455789 23.4871 20.7054 18.2994 10.3289 -3.69133 -3.20601 72.8207
1455798 23.4871 20.7054 18.2994 10.3289 -3.69133 -3.20601 72.8207
1455817 24.1846 19.5675 18.762 9.72241 -4.7264 -3.17036 72.2366
1455818 24.1846 19.5675 18.762 9.72241 -4.7264 -3.17036 72.2366
1455833 24.9519 18.2643 19.205 9.11594 -5.86292 -3.12327 71.5372
1455843 25.4801 17.0584 19.6972 8.63266 -6.8741 -3.0074 70.8682
1455858 26.0879 15.9903 20.2386 8.17781 -7.85819 -2.907 70.4946
1455871 26.6958 15.0173 20.7997 7.90301 -8.72502 -2.77148 70.4157
1455878 26.6958 15.0173 20.7997 7.90301 -8.72502 -2.77148 70.4157
1455900 27.3435 14.1269 21.5478 7.63768 -9.59818 -2.60805 70.6558
1455901 27.3435 14.1269 21.5478 7.63768 -9.59818 -2.60805 70.6558
1455908 27.9414 13.3558 22.1482 7.50502 -10.299 -2.46171 70.9505
1455928 28.3101 12.8326 22.7979 7.46711 -10.786 -2.28498 71.4077
1455938 28.6987 12.6307 23.5165 7.46711 -11.1036 -2.14604 72.313
1455953 28.8781 12.3186 24.1268 7.51449 -11.3855 -1.9678 72.838
1455959 28.8781 12.3186 24.1268 7.51449 -11.3855 -1.9678 72.838
1455970 28.9379 12.0891 24.6977 7.61873 -11.5647 -1.78145 73.3434
1455981 28.9379 12.0891 24.6977 7.61873 -11.5647 -1.78145 73.3434
1455992 28.8382 11.7862 24.8257 7.54292 -11.7596 -1.69655 72.993
1456008 28.6987 11.5567 25.0718 7.52397 -11.9044 -1.57711 72.8512
1456009 28.6987 11.5567 25.0718 7.52397 -11.9044 -1.57711 72.8512
1456019 28.5692 11.3823 25.377 7.56187 -12.005 -1.44312 72.8903
1456035 28.4396 11.3823 25.7018 7.65663 -11.9918 -1.32484 73.1803
1456039 28.4396 11.2079 25.7018 7.65663 -12.0801 -1.29217 73.0059
1456049 28.2104 11.1069 26.0069 7.73244 -12.1064 -1.14527 73.0567
1456063 28.2104 11.1069 26.0069 7.73244 -12.1064 -1.14527 73.0567
1456069 27.9215 10.9141 26.3121 7.7893 -12.1784 -0.973621 72.937
1456079 27.5926 10.7214 26.824 7.88406 -12.2604 -0.740728 73.022
1456091 27.5926 10.7214 26.824 7.88406 -12.2604 -0.740728 73.022
1456099 27.1342 10.4827 27.1488 8.04515 -12.2767 -0.499167 72.8109
1456118 26.5363 10.4827 27.7001 8.14939 -12.2153 -0.240766 72.8685
1456119 26.5363 10.2073 27.7001 8.14939 -12.3564 -0.184776 72.5931
1456129 26.0182 9.91361 28.4679 8.31996 -12.4631 0.176577 72.7196
1456146 26.0182 9.91361 28.4679 8.31996 -12.4631 0.176577 72.7196
1456149 25.3804 9.63823 29.0782 8.5 -12.5076 0.528851 72.5968
1456159 24.5832 9.34449 29.8558 8.699 -12.5532 0.957559 72.4825
1456174 24.5832 9.34449 29.8558 8.699 -12.5532 0.957559 72.4825
1456179 23.9256 9.11501 30.5252 8.85061 -12.5956 1.31225 72.4164
1456189 23.9256 9.11501 30.5252 8.85061 -12.5956 1.31225 72.4164
1456203 23.2081 8.80292 31.1158 9.04961 -12.6327 1.69468 72.1764
1456211 22.5305 8.63769 31.7655 9.29599 -12.5857 2.05455 72.2296
1456228 22.5305 8.63769 31.7655 9.29599 -12.5857 2.05455 72.2296
1456230 21.8529 8.5 32.3856 9.41918 -12.5833 2.38061 72.1577
1456241 21.544 8.36231 32.681 9.58027 -12.5688 2.56797 72.1675
1456256 21.544 8.36231 32.681 9.58027 -12.5688 2.56797 72.1675
1456260 21.2052 8.29806 32.8483 9.63712 -12.543 2.70505 71.9886
1456271 21.2052 8.29806 32.8483 9.63712 -12.543 2.70505 71.9886
1456284 20.9959 8.16037 33.1239 9.78874 -12.5473 2.86317 72.0689
1456291 20.8863 8.14201 33.5275 9.94036 -12.5287 2.98766 72.4962
1456301 20.8863 8.14201 33.5275 9.94036 -12.5287 2.98766 72.4962
1456312 20.7368 8.00432 34 10.0541 -12.5964 3.15535 72.7952
1456321 20.5176 7.98596 34 10.2531 -12.4657 3.24703 72.7566
1456340 20.5176 7.98596 34 10.2531 -12.4657 3.24703 72.7566
1456342 20.2186 7.84827 34 10.4236 -12.397 3.38459 72.4905
1456351 20.2186 7.84827 34 10.4236 -12.397 3.38459 72.4905
1456367 19.6407 7.68305 34 10.6226 -12.2782 3.60663 71.9464
1456372 19.0627 7.60043 34 10.8501 -12.0999 3.81473 71.5132
1456382 19.0627 7.60043 34 10.8501 -12.0999 3.81473 71.5132
1456394 18.4648 7.51782 34 11.0491 -11.9306 4.02632 71.0317
1456402 17.7773 7.4811 34 11.1628 -11.7626 4.23973 70.4211
1456422 17.7773 7.4811 34 11.1628 -11.7626 4.23973 70.4211
1456423 17.2292 7.62797 34 11.2954 -11.5127 4.3701 70.1526
1456432 17.2292 7.62797 34 11.2954 -11.5127 4.3701 70.1526
1456450 16.8332 7.78402 34 11.3997 -11.3007 4.45232 70.0168
1456452 16.5522 7.98596 34 11.5513 -11.0626 4.49707 70.0894
1456461 16.5522 7.98596 34 11.5513 -11.0626 4.49707 70.0894
1456478 16.2624 8.15119 34 11.5987 -10.8954 4.53887 70.0122
1456483 15.876 8.2797 34 11.7598 -10.6688 4.63503 69.9155
1456493 15.876 8.2797 34 11.7598 -10.6688 4.63503 69.9155
1456507 15.6126 8.69276 34 11.9303 -10.3187 4.61837 70.2357
1456515 15.6126 8.69276 34 11.9303 -10.3187 4.61837 70.2357
1456523 15.3931 9.08747 34 12.3188 -9.88242 4.6268 70.7994
1456536 15.0682 9.60151 34 12.6789 -9.38622 4.62712 71.3486
1456554 14.8135 10.2808 34 12.9443 -8.88014 4.54964 72.0386
1456565 14.5325 10.8774 34 13.1338 -8.45053 4.49187 72.5438
1456593 14.3042 11.5383 33.1338 13.4086 -7.76787 4.28952 72.3849
1456594 14.0496 12.1901 31.6178 13.7023 -6.90856 3.99956 71.5598
1456604 14.0496 12.1901 31.6178 13.7023 -6.90856 3.99956 71.5598
1456622 13.7686 13.0988 30.033 14.4699 -5.68615 3.70648 71.3703
1456636 13.5754 14.1085 28.3596 15.607 -4.26356 3.40877 71.6506
1456650 13.3559 15.2376 26.7846 17.1851 -2.65899 3.17852 72.5632
1456656 13.3559 15.2376 26.7846 17.1851 -2.65899 3.17852 72.5632
1456667 13.1715 16.4676 25.0816 18.9971 -0.945629 2.93817 73.7179
1456678 13.0222 17.6905 23.1129 20.3805 0.652203 2.58349 74.2061
1456687 13.0222 17.6905 23.1129 20.3805 0.652203 2.58349 74.2061
1456705 12.829 19.0229 20.967 21.5009 2.2631 2.14262 74.3198
1456707 12.829 19.0229 20.967 21.5009 2.2631 2.14262 74.3198
1456719 12.5656 20.0441 18.7817 22.3971 3.75868 1.74198 73.7885
1456733 12.2056 21.0944 16.6186 23.3519 5.3303 1.36558 73.2704
1456747 11.8807 22.0767 14.7629 24.3163 6.76011 1.05191 73.0366
