4221473 4.0087 2.83022 12.9305 6.78316 -6.89744 7.27315 26.5525
4221493 4 2.82088 12.7945 6.91414 -6.65245 7.28683 26.5295
4221502 3.95652 2.77418 12.6794 6.94221 -6.56444 7.33763 26.3523
4221517 3.95652 2.77418 12.6794 6.94221 -6.56444 7.33763 26.3523
4221525 3.97391 2.90495 12.5748 6.98899 -6.29168 7.19572 26.4426
4221534 3.97391 2.90495 12.5748 6.98899 -6.29168 7.19572 26.4426
4221544 3.90435 2.88626 12.3865 7.12933 -5.96358 7.25594 26.3064
4221555 3.90435 2.92363 12.24 7.26968 -5.6488 7.22257 26.3377
4221576 3.88696 2.96099 11.968 7.38195 -5.25998 7.15821 26.1979
4221584 3.91304 3.00769 11.8006 7.49422 -4.97009 7.0802 26.2156
4221595 3.91304 3.00769 11.8006 7.49422 -4.97009 7.0802 26.2156
4221604 3.95652 3.11044 11.6123 7.60649 -4.61456 6.93446 26.2858
4221614 3.95652 3.11044 11.6123 7.60649 -4.61456 6.93446 26.2858
4221624 3.86957 3.1011 11.3717 7.79362 -4.15763 6.99877 26.136
4221635 3.88696 3.1478 11.2462 7.90589 -3.89454 6.94087 26.1868
4221645 3.88696 3.1478 11.2462 7.90589 -3.89454 6.94087 26.1868
4221656 3.93913 3.17582 11.0265 8.04623 -3.57376 6.84926 26.1876
4221665 3.88696 3.28791 10.8068 8.13043 -3.13588 6.75684 26.1121
4221676 3.88696 3.28791 10.8068 8.13043 -3.13588 6.75684 26.1121
4221685 3.97391 3.32527 10.5662 8.29884 -2.7862 6.63071 26.1642
4221696 3.97391 3.32527 10.5662 8.29884 -2.7862 6.63071 26.1642
4221705 3.86957 3.32527 10.3778 8.49532 -2.32739 6.71992 26.068
4221715 3.89565 3.45604 10.2523 8.70116 -1.89199 6.61568 26.3052
4221726 3.89565 3.45604 10.2523 8.70116 -1.89199 6.61568 26.3052
4221735 3.87826 3.52143 10.1163 8.90699 -1.48181 6.59858 26.423
4221745 3.84348 3.55879 9.85477 9.04733 -1.03797 6.55775 26.3044
4221756 3.84348 3.55879 9.85477 9.04733 -1.03797 6.55775 26.3044
4221765 3.81739 3.62418 9.58277 9.29059 -0.46114 6.51634 26.3149
4221776 3.81739 3.62418 9.58277 9.29059 -0.46114 6.51634 26.3149
4221785 3.74783 3.63352 9.31077 9.459 0.0324249 6.53228 26.1511
4221796 3.65217 3.67088 9.112 9.65548 0.538683 6.57964 26.0905
4221805 3.65217 3.67088 9.112 9.65548 0.538683 6.57964 26.0905
4221815 3.64348 3.79231 8.88185 9.82389 1.04324 6.46669 26.1415
4221825 3.64348 3.79231 8.88185 9.82389 1.04324 6.46669 26.1415
4221836 3.57391 3.77363 8.62031 10.1607 1.66495 6.56378 26.1286
4221845 3.55652 3.9044 8.32738 10.4695 2.37067 6.47576 26.2578
4221855 3.55652 3.9044 8.32738 10.4695 2.37067 6.47576 26.2578
4221865 3.4 3.9511 8.10769 10.6285 2.94388 6.54635 26.0873
4221876 3.34783 4.05385 7.86708 10.8437 3.52575 6.49639 26.1124
4221885 3.34783 4.05385 7.86708 10.8437 3.52575 6.49639 26.1124
4221895 3.30435 4.05385 7.73108 10.9934 3.84529 6.53668 26.0827
4221905 3.30435 4.05385 7.73108 10.9934 3.84529 6.53668 26.0827
4221915 3.21739 4.04451 7.51138 11.2179 4.36077 6.61806 25.9912
4221925 3.09565 4.15659 7.40677 11.4706 4.90319 6.67352 26.1296
4221935 3.09565 4.15659 7.40677 11.4706 4.90319 6.67352 26.1296
4221945 3.02609 4.19396 7.09292 11.667 5.52538 6.66277 25.98
4221955 2.9913 4.26868 6.99877 11.7232 5.77495 6.61727 25.9819
4221971 2.9913 4.26868 6.99877 11.7232 5.77495 6.61727 25.9819
4221976 2.87826 4.39011 6.8 11.8448 6.32559 6.58531 25.9132
4221986 2.87826 4.39011 6.8 11.8448 6.32559 6.58531 25.9132
4221996 2.93043 4.39945 6.62215 11.9758 6.5785 6.5189 25.9278
4222007 2.91304 4.44615 6.58031 12.0506 6.73663 6.5054 25.9901
4222028 2.87826 4.45549 6.40246 12.3032 7.1795 6.5508 26.0395
4222036 2.84348 4.55824 6.32923 12.3968 7.44643 6.50132 26.1278
4222049 2.84348 4.55824 6.32923 12.3968 7.44643 6.50132 26.1278
4222058 2.7913 4.61429 6.22462 12.5746 7.79718 6.52186 26.2048
4222068 2.71304 4.70769 6.04677 12.7243 8.27755 6.50031 26.1918
4222078 2.71304 4.70769 6.04677 12.7243 8.27755 6.50031 26.1918
4222087 2.74783 4.70769 6.01538 12.874 8.36828 6.51009 26.3449
4222108 2.65217 4.71703 5.86892 12.9395 8.72445 6.55475 26.1776
4222117 2.55652 4.81044 5.80615 12.9769 9.01018 6.54842 26.15
4222129 2.55652 4.81044 5.80615 12.9769 9.01018 6.54842 26.15
4222139 2.54783 4.8478 5.69108 12.8833 9.13768 6.45674 25.97
4222151 2.48696 4.85714 5.58646 12.9956 9.42997 6.5019 25.9262
4222159 2.48696 4.85714 5.58646 12.9956 9.42997 6.5019 25.9262
4222169 2.4087 4.89451 5.48185 12.9862 9.69121 6.49845 25.7713
4222179 2.4087 4.89451 5.48185 12.9862 9.69121 6.49845 25.7713
4222190 2.24348 4.89451 5.44 12.9582 9.95569 6.61426 25.5362
4222201 2.21739 4.88516 5.33538 12.9675 10.1355 6.61296 25.4055
4222221 2.15652 4.87582 5.28308 12.9675 10.2873 6.65563 25.283
4222230 2.12174 4.95055 5.27262 13.0798 10.4583 6.65502 25.4247
4222242 2.12174 4.95055 5.27262 13.0798 10.4583 6.65502 25.4247
4222252 2.1913 5.08132 5.36677 13.1359 10.3386 6.53537 25.7753
4222263 2.18261 5.0533 5.34585 13.2763 10.4427 6.60504 25.858
4222271 2.18261 5.0533 5.34585 13.2763 10.4427 6.60504 25.858
4222283 2.1913 5.11868 5.42954 13.3698 10.4059 6.60073 26.1094
4222302 2.07826 5.06264 5.37723 13.557 10.7038 6.78423 26.0751
4222311 2.03478 5.08132 5.44 13.557 10.6877 6.82466 26.1131
4222333 1.9913 5.11868 5.39815 13.6692 10.8858 6.85176 26.1774
4222343 1.93043 5.07198 5.42954 13.7628 10.9514 6.98036 26.1947
4222352 1.93043 5.07198 5.42954 13.7628 10.9514 6.98036 26.1947
4222365 1.91304 5.1 5.40862 13.8376 11.0589 6.98793 26.2593
4222372 1.91304 5.1 5.40862 13.8376 11.0589 6.98793 26.2593
4222382 1.86957 5.06264 5.40862 13.8189 11.089 7.05015 26.1598
4222394 1.81739 5.11868 5.36677 13.8564 11.2684 7.04554 26.1592
4222404 1.81739 5.11868 5.36677 13.8564 11.2684 7.04554 26.1592
4222417 1.75652 5.1 5.29354 13.8096 11.4211 7.07633 25.9596
4222424 1.75652 5.1 5.38769 13.8283 11.2993 7.11063 26.0725
4222436 1.75652 5.1 5.38769 13.8283 11.2993 7.11063 26.0725
4222444 1.78261 5.19341 5.24123 13.8096 11.5065 6.95905 26.0268
4222456 1.78261 5.19341 5.24123 13.8096 11.5065 6.95905 26.0268
4222464 1.72174 5.24945 5.22031 13.716 11.6023 6.9276 25.9075
4222477 1.75652 5.23077 5.17846 13.6131 11.5491 6.86858 25.7789
4222484 1.75652 5.23077 5.17846 13.6131 11.5491 6.86858 25.7789
4222496 1.73913 5.25879 5.20985 13.585 11.5292 6.86061 25.7928
4222504 1.75652 5.37088 5.24123 13.5476 11.4993 6.7495 25.9162
4222514 1.75652 5.37088 5.24123 13.5476 11.4993 6.7495 25.9162
4222524 1.82609 5.49231 5.17846 13.4821 11.5188 6.54886 25.979
4222534 1.82609 5.49231 5.17846 13.4821 11.5188 6.54886 25.979
4222544 1.8087 5.52033 5.15754 13.4447 11.5679 6.52101 25.9313
4222554 1.7913 5.59506 5.20985 13.3605 11.5138 6.46306 25.9567
4222564 1.7913 5.59506 5.20985 13.3605 11.5138 6.46306 25.9567
4222576 1.82609 5.66044 5.19938 13.3324 11.499 6.36779 26.0183
4222585 1.86087 5.64176 5.09477 13.3043 11.573 6.31028 25.9017
4222596 1.86087 5.64176 5.09477 13.3043 11.573 6.31028 25.9017
4222611 1.86957 5.75385 5.25169 13.3043 11.3991 6.26405 26.1795
4222618 1.86957 5.75385 5.25169 13.3043 11.3991 6.26405 26.1795
4222624 1.81739 5.71648 5.24123 13.2482 11.4379 6.31486 26.0233
4222636 1.8 5.77253 5.22031 13.2014 11.4964 6.26054 25.9943
4222644 1.8 5.77253 5.22031 13.2014 11.4964 6.26054 25.9943
4222656 1.86087 5.76319 5.26215 13.2201 11.3577 6.23885 26.1064
4222664 1.86957 5.75385 5.29354 13.1453 11.2577 6.22477 26.0622
4222675 1.86957 5.75385 5.29354 13.1453 11.2577 6.22477 26.0622
4222685 1.89565 5.73516 5.31446 13.0985 11.1577 6.21002 26.0438
4222697 1.89565 5.73516 5.31446 13.0985 11.1577 6.21002 26.0438
4222705 1.86957 5.74451 5.39815 13.0704 11.0679 6.24238 26.0827
4222716 1.84348 5.77253 5.34585 13.033 11.1717 6.21057 25.9949
4222736 1.88696 5.75385 5.40862 13.033 11.0144 6.21156 26.0824
4222745 1.92174 5.6978 5.50277 13.0798 10.8322 6.27604 26.2021
4222756 1.92174 5.6978 5.50277 13.0798 10.8322 6.27604 26.2021
4222766 1.97391 5.68846 5.51323 13.0611 10.7315 6.23856 26.2367
4222785 1.92174 5.59506 5.60738 13.0237 10.6028 6.37582 26.1478
4222796 1.89565 5.52033 5.60738 13.0143 10.592 6.45548 26.0377
4222805 1.89565 5.52033 5.60738 13.0143 10.592 6.45548 26.0377
4222816 1.92174 5.50165 5.61785 13.005 10.5265 6.44974 26.0462
4222825 1.92174 5.50165 5.61785 13.005 10.5265 6.44974 26.0462
4222836 1.86957 5.38022 5.54462 13.005 10.6311 6.5698 25.7994
4222846 1.8087 5.32418 5.73292 13.0985 10.4769 6.75845 25.9643
4222865 1.83478 5.22143 5.712 13.0798 10.4016 6.81034 25.848
4222875 1.81739 5.21209 5.90031 13.1547 10.2063 6.91532 26.0844
4222886 1.81739 5.21209 5.90031 13.1547 10.2063 6.91532 26.0844
4222897 1.8087 5.18407 5.93169 13.2389 10.2075 6.98179 26.1633
4222906 1.8087 5.18407 5.93169 13.2389 10.2075 6.98179 26.1633
4222916 1.85217 5.1 6.00492 13.2856 10.03 7.05246 26.2427
4222926 1.81739 5.1 6.08862 13.3418 9.99683 7.12375 26.3478
4222946 1.8087 5.02527 6.06769 13.2482 9.93991 7.15984 26.1499
4222957 1.84348 5.09066 6.02585 13.3886 10.0669 7.10491 26.3485
4222968 1.84348 5.09066 6.02585 13.3886 10.0669 7.10491 26.3485
4222977 1.85217 5.0533 6.01538 13.2295 9.95707 7.07796 26.1504
4222988 1.81739 5.08132 6.08862 13.2389 9.92726 7.1086 26.2262
4223008 1.8087 5.02527 6.07815 13.1453 9.8664 7.13202 26.0574
4223017 1.8087 5.02527 6.07815 13.1453 9.8664 7.13202 26.0574
4223028 1.7913 5.04396 5.99446 13.1172 9.99676 7.09704 25.9469
4223038 1.75652 4.98791 6.05723 13.0517 9.88835 7.17383 25.8534
4223048 1.75652 4.98791 6.05723 13.0517 9.88835 7.17383 25.8534
4223057 1.85217 4.95055 6.06769 13.0237 9.70719 7.1186 25.8941
4223068 1.83478 4.86648 6.14092 13.1079 9.63259 7.25289 25.9501
4223077 1.83478 4.86648 6.14092 13.1079 9.63259 7.25289 25.9501
4223087 1.85217 4.81044 6.24554 13.1547 9.465 7.33089 26.0628
4223098 1.85217 4.81044 6.24554 13.1547 9.465 7.33089 26.0628
4223109 1.83478 4.7544 6.32923 13.164 9.34958 7.42112 26.0824
4223118 1.86957 4.8478 6.42338 13.164 9.23679 7.33899 26.3048
4223139 1.8087 4.71703 6.50708 13.1921 9.14526 7.53488 26.2249
4223149 1.83478 4.64231 6.59077 13.2576 8.99731 7.61882 26.3254
4223159 1.83478 4.64231 6.59077 13.2576 8.99731 7.61882 26.3254
4223169 1.81739 4.55824 6.60123 13.2669 8.96073 7.71184 26.2438
4223179 1.81739 4.55824 6.60123 13.2669 8.96073 7.71184 26.2438
4223189 1.78261 4.48352 6.71631 13.295 8.82848 7.84619 26.2774
4223198 1.82609 4.41813 6.75815 13.2763 8.66689 7.87153 26.2787
4223219 1.85217 4.39011 6.86277 13.2201 8.44753 7.88634 26.3252
4223228 1.85217 4.39011 6.86277 13.2201 8.44753 7.88634 26.3252
4223239 1.8087 4.34341 6.87323 13.0985 8.38314 7.93507 26.1238
4223254 1.8087 4.2033 6.84185 13.0143 8.27955 8.02773 25.8681
4223259 1.8087 4.2033 6.84185 13.0143 8.27955 8.02773 25.8681
4223269 1.81739 4.22198 6.94646 12.9956 8.13439 8.02652 25.9814
4223280 1.86087 4.25934 7.08246 12.8365 7.82719 7.94886 26.0392
4223290 1.86087 4.25934 7.08246 12.8365 7.82719 7.94886 26.0392
4223300 1.88696 4.22198 7.15569 12.8178 7.66527 7.97351 26.0825
4223311 1.87826 4.2033 7.208 12.743 7.54826 7.99159 26.0325
4223320 1.87826 4.2033 7.208 12.743 7.54826 7.99159 26.0325
4223330 1.95652 4.13791 7.29169 12.6588 7.24564 7.98008 26.0449
4223340 1.95652 4.13791 7.29169 12.6588 7.24564 7.98008 26.0449
4223351 1.97391 4.17527 7.32308 12.481 7.08899 7.89201 25.9533
4223361 2.0087 4.16593 7.52185 12.3968 6.73756 7.9009 26.0933
4223381 2.05217 4.17527 7.52185 12.2845 6.61235 7.82382 26.0338
4223391 2.14783 4.15659 7.68923 12.1816 6.20925 7.77438 26.1753
4223404 2.14783 4.15659 7.68923 12.1816 6.20925 7.77438 26.1753
4223411 2.17391 4.22198 7.81477 11.9571 5.91412 7.66743 26.1677
4223432 2.17391 4.22198 8.024 11.8916 5.62079 7.70749 26.3115
4223442 2.21739 4.19396 8.16 11.6764 5.23184 7.67211 26.2477
4223463 2.25217 4.16593 8.26462 11.536 4.94416 7.65628 26.2188
4223472 2.31304 4.12857 8.46338 11.3864 4.50575 7.64973 26.2914
4223494 2.36522 4.11923 8.48431 11.2179 4.28428 7.57129 26.1867
4223504 2.36522 4.11923 8.48431 11.2179 4.28428 7.57129 26.1867
4223514 2.33913 4.16593 8.66215 11.0308 4.00361 7.55089 26.198
4223524 2.41739 4.21264 8.78769 10.8624 3.68145 7.43151 26.2801
4223534 2.41739 4.21264 8.78769 10.8624 3.68145 7.43151 26.2801
4223545 2.42609 4.10055 8.85046 10.694 3.37347 7.48981 26.0711
4223557 2.50435 4.05385 9.112 10.4882 2.79611 7.47866 26.1584
4223565 2.50435 4.05385 9.112 10.4882 2.79611 7.47866 26.1584
4223575 2.54783 4.05385 9.30031 10.3291 2.41586 7.44979 26.2311
4223585 2.58261 3.96978 9.60369 10.1794 1.86335 7.53586 26.3355
4223605 2.64348 3.94176 9.90708 9.9268 1.24721 7.52219 26.4191
4223616 2.64348 3.94176 9.90708 9.9268 1.24721 7.52219 26.4191
4223626 2.69565 3.88571 10.1058 9.75839 0.796551 7.53407 26.4456
4223636 2.71304 3.79231 10.2523 9.59934 0.404349 7.59549 26.357
4223657 2.76522 3.68956 10.5243 9.39351 -0.19571 7.6574 26.3726
4223666 2.7913 3.67088 10.7649 9.17832 -0.6694 7.65812 26.4054
4223677 2.7913 3.67088 10.7649 9.17832 -0.6694 7.65812 26.4054
4223686 2.88696 3.66154 10.8905 9.01926 -1.03618 7.5749 26.4582
4223698 2.88696 3.66154 10.8905 9.01926 -1.03618 7.5749 26.4582
4223707 2.83478 3.50275 10.9742 8.83214 -1.40956 7.72769 26.1438
4223719 2.88696 3.51209 11.0474 8.75729 -1.58848 7.67389 26.2037
4223726 2.88696 3.51209 11.0474 8.75729 -1.58848 7.67389 26.2037
4223737 2.93043 3.54011 11.1206 8.61695 -1.80668 7.59327 26.2081
4223746 2.92174 3.42802 11.2462 8.66373 -1.97655 7.7458 26.2596
4223757 2.92174 3.42802 11.2462 8.66373 -1.97655 7.7458 26.2596
4223767 2.93913 3.42802 11.4658 8.58888 -2.25956 7.77059 26.4219
4223778 2.93913 3.42802 11.4658 8.58888 -2.25956 7.77059 26.4219
4223787 2.97391 3.37198 11.7483 8.47661 -2.70375 7.83512 26.5708
4223798 3.13043 3.27857 11.9889 8.28949 -3.32675 7.79547 26.6874
4223808 3.13043 3.27857 11.9889 8.28949 -3.32675 7.79547 26.6874
4223818 3.18261 3.22253 12.2086 8.13979 -3.76483 7.81762 26.7535
4223829 3.25217 3.1011 12.512 7.80297 -4.55608 7.85299 26.6682
4223838 3.25217 3.1011 12.512 7.80297 -4.55608 7.85299 26.6682
4223847 3.35652 2.97967 12.7422 7.57843 -5.19622 7.86914 26.6568
4223857 3.35652 2.97967 12.7422 7.57843 -5.19622 7.86914 26.6568
4223873 3.46957 2.91429 12.8572 7.37259 -5.6737 7.80387 26.6137
4223881 3.45217 2.8489 13.0455 7.18547 -6.09012 7.87533 26.5321
4223890 3.45217 2.8489 13.0455 7.18547 -6.09012 7.87533 26.5321
4223897 3.49565 2.75549 13.1083 6.97964 -6.51962 7.88 26.3391
4223907 3.57391 2.70879 13.3489 6.82994 -6.97625 7.87717 26.4616
4223918 3.57391 2.70879 13.3489 6.82994 -6.97625 7.87717 26.4616
4223929 3.5913 2.66209 13.5791 6.70831 -7.34717 7.93156 26.5408
4223939 3.5913 2.66209 13.5791 6.70831 -7.34717 7.93156 26.5408
4223949 3.67826 2.55 13.6628 6.58668 -7.74647 7.9432 26.4777
4223959 3.69565 2.52198 13.9348 6.47441 -8.10653 7.9947 26.6268
4223969 3.69565 2.52198 13.9348 6.47441 -8.10653 7.9947 26.6268
4223979 3.7913 2.49396 14.0498 6.29664 -8.49602 7.91981 26.6317
4223989 3.82609 2.46593 14.0812 6.31535 -8.54862 7.92729 26.6886
4224009 3.89565 2.48462 14.2068 6.1563 -8.84473 7.84278 26.7433
4224019 3.89565 2.48462 14.2068 6.1563 -8.84473 7.84278 26.7433
4224029 3.93913 2.42857 14.2172 6.09081 -9.0316 7.83877 26.6757
4224040 4.03478 2.39121 14.3323 6.05338 -9.25203 7.80986 26.8117
4224050 4.03478 2.39121 14.3323 6.05338 -9.25203 7.80986 26.8117
4224061 4.02609 2.41923 14.416 5.95982 -9.37976 7.79078 26.8211
4224070 4.11304 2.37253 14.4997 5.85691 -9.6707 7.75144 26.8422
4224080 4.11304 2.37253 14.4997 5.85691 -9.6707 7.75144 26.8422
4224090 4.12174 2.38187 14.5206 5.73528 -9.83315 7.70882 26.7595
4224100 4.12174 2.38187 14.5206 5.73528 -9.83315 7.70882 26.7595
4224110 4.16522 2.33516 14.5415 5.623 -10.0775 7.68659 26.6649
4224121 4.25217 2.39121 14.6252 5.66043 -10.0503 7.59901 26.929
4224133 4.25217 2.39121 14.6252 5.66043 -10.0503 7.59901 26.929
4224140 4.24348 2.36319 14.7089 5.55751 -10.2628 7.6246 26.8731
4224150 4.26087 2.28846 14.6775 5.44524 -10.5023 7.63351 26.6721
4224161 4.26087 2.28846 14.6775 5.44524 -10.5023 7.63351 26.6721
4224174 4.33913 2.28846 14.7194 5.35168 -10.6919 7.55289 26.6987
4224181 4.33913 2.28846 14.7194 5.35168 -10.6919 7.55289 26.6987
4224191 4.33043 2.2978 14.7194 5.3049 -10.7374 7.53927 26.6525
4224201 4.29565 2.26978 14.8449 5.34232 -10.7732 7.63763 26.7527
4224222 4.33913 2.27912 14.8449 5.3049 -10.8338 7.58267 26.7681
4224231 4.30435 2.2511 14.8763 5.29554 -10.8821 7.64185 26.7273
4224242 4.30435 2.2511 14.8763 5.29554 -10.8821 7.64185 26.7273
4224254 4.32174 2.22308 14.9182 5.29554 -10.951 7.66235 26.7585
4224263 4.28696 2.21374 15.0437 5.26747 -11.0487 7.72633 26.8119
4224275 4.28696 2.21374 15.0437 5.26747 -11.0487 7.72633 26.8119
4224283 4.30435 2.22308 15.0646 5.26747 -11.0561 7.70937 26.8595
4224292 4.30435 2.22308 15.0646 5.26747 -11.0561 7.70937 26.8595
4224303 4.27826 2.21374 15.0123 5.26747 -11.0278 7.72518 26.7718
4224313 4.26087 2.14835 15.0646 5.24876 -11.1594 7.80472 26.7226
4224323 4.26087 2.14835 15.0646 5.24876 -11.1594 7.80472 26.7226
4224332 4.28696 2.13901 15.0542 5.23005 -11.2055 7.78256 26.7102
4224354 4.25217 2.16703 14.9914 5.24876 -11.0916 7.77641 26.6594
4224363 4.30435 2.22308 14.9809 5.22069 -11.0755 7.67378 26.729
4224374 4.30435 2.22308 14.9809 5.22069 -11.0755 7.67378 26.729
4224383 4.29565 2.22308 14.9182 5.18327 -11.0888 7.65362 26.6202
4224394 4.31304 2.2044 14.8449 5.27683 -10.9582 7.66032 26.6392
4224403 4.31304 2.2044 14.8449 5.27683 -10.9582 7.66032 26.6392
4224414 4.29565 2.24176 14.96 5.36103 -10.8465 7.69793 26.8584
4224422 4.29565 2.24176 14.96 5.36103 -10.8465 7.69793 26.8584
4224433 4.26957 2.23242 14.96 5.39846 -10.7953 7.73804 26.8604
4224445 4.33913 2.23242 14.9182 5.44524 -10.7478 7.68064 26.9349
4224454 4.33913 2.23242 14.9182 5.44524 -10.7478 7.68064 26.9349
4224463 4.33043 2.19506 14.9182 5.3049 -10.9806 7.6813 26.7485
4224474 4.33913 2.18571 14.9495 5.35168 -10.9514 7.70317 26.8261
4224484 4.33913 2.18571 14.9495 5.35168 -10.9514 7.70317 26.8261
4224494 4.4 2.18571 14.9495 5.27683 -11.0836 7.63125 26.8121
4224504 4.4 2.18571 14.9495 5.27683 -11.0836 7.63125 26.8121
4224515 4.4087 2.2044 14.7717 5.14584 -11.1476 7.52212 26.5306
4224531 4.44348 2.18571 14.7926 5.16456 -11.1766 7.51963 26.5864
4224534 4.44348 2.18571 14.7926 5.16456 -11.1766 7.51963 26.5864
4224544 4.46087 2.23242 14.7403 5.20198 -11.0442 7.46126 26.6356
4224555 4.43478 2.2511 14.7822 5.19263 -11.0399 7.47669 26.6607
4224565 4.43478 2.2511 14.7822 5.19263 -11.0399 7.47669 26.6607
4224575 4.44348 2.23242 14.7508 5.08971 -11.1932 7.44705 26.5164
4224585 4.44348 2.23242 14.7508 5.08971 -11.1932 7.44705 26.5164
4224595 4.50435 2.26978 14.7403 5.09906 -11.1558 7.36388 26.6135
4224605 4.53043 2.22308 14.7822 5.16456 -11.1656 7.41185 26.7002
4224615 4.53043 2.22308 14.7822 5.16456 -11.1656 7.41185 26.7002
4224625 4.54783 2.22308 14.7298 5.11778 -11.211 7.36896 26.6185
4224635 4.53043 2.27912 14.7403 5.16456 -11.0681 7.35295 26.7144
4224645 4.53043 2.27912 14.7403 5.16456 -11.0681 7.35295 26.7144
4224656 4.58261 2.24176 14.8135 5.09906 -11.2721 7.34278 26.737
4224665 4.58261 2.24176 14.8135 5.09906 -11.2721 7.34278 26.737
4224675 4.6 2.23242 14.8449 5.14584 -11.2465 7.35838 26.8232
4224685 4.55652 2.22308 14.8868 5.11778 -11.2963 7.4064 26.7841
4224695 4.55652 2.22308 14.8868 5.11778 -11.2963 7.4064 26.7841
4224705 4.6087 2.18571 14.8135 5.08971 -11.3744 7.36516 26.6977
4224716 4.61739 2.24176 14.7403 5.071 -11.2905 7.28455 26.6705
4224736 4.6087 2.2511 14.8449 5.13649 -11.2383 7.33291 26.8412
4224745 4.6087 2.2511 14.8449 5.13649 -11.2383 7.33291 26.8412
4224756 4.52174 2.15769 14.7926 5.10842 -11.3319 7.46127 26.5805
4224766 4.48696 2.13901 14.8449 5.13649 -11.328 7.52918 26.6074
4224777 4.48696 2.13901 14.8449 5.13649 -11.328 7.52918 26.6074
4224786 4.46957 2.18571 14.8658 5.09906 -11.3172 7.49974 26.6202
4224797 4.48696 2.12033 14.8449 5.18327 -11.2897 7.5581 26.6355
4224806 4.48696 2.12033 14.8449 5.18327 -11.2897 7.5581 26.6355
4224818 4.52174 2.2511 14.8135 5.23005 -11.0512 7.42311 26.8164
4224826 4.52174 2.2511 14.8135 5.23005 -11.0512 7.42311 26.8164
4224836 4.46087 2.14835 14.9182 5.25812 -11.1745 7.59761 26.7855
4224846 4.44348 2.21374 14.9809 5.28619 -11.0722 7.5823 26.9243
4224866 4.4 2.23242 14.9495 5.27683 -11.0209 7.5919 26.8588
4224876 4.37391 2.17637 14.9077 5.33297 -10.9853 7.66511 26.7909
4224886 4.37391 2.17637 14.9077 5.33297 -10.9853 7.66511 26.7909
4224896 4.3913 2.16703 14.96 5.31425 -11.0593 7.66749 26.8326
4224906 4.3913 2.16703 14.96 5.31425 -11.0593 7.66749 26.8326
4224916 4.34783 2.15769 14.8135 5.33297 -10.9473 7.67727 26.652
4224926 4.34783 2.19506 14.824 5.39846 -10.8147 7.6664 26.7653
4224936 4.34783 2.19506 14.824 5.39846 -10.8147 7.6664 26.7653
4224946 4.34783 2.2044 14.7612 5.3891 -10.7813 7.63866 26.7026
4224956 4.34783 2.2044 14.7612 5.3891 -10.7813 7.63866 26.7026
4224969 4.30435 2.16703 14.7717 5.43588 -10.7511 7.72305 26.679
4224976 4.31304 2.2044 14.7403 5.44524 -10.6764 7.67785 26.703
4224986 4.31304 2.2044 14.7403 5.44524 -10.6764 7.67785 26.703
4224996 4.24348 2.26978 14.7089 5.48266 -10.4849 7.68306 26.7048
4225006 4.27826 2.23242 14.6357 5.61365 -10.3399 7.70104 26.76
4225016 4.27826 2.23242 14.6357 5.61365 -10.3399 7.70104 26.76
4225028 4.25217 2.26044 14.6462 5.61365 -10.2944 7.70225 26.7724
4225037 4.21739 2.28846 14.5102 5.70721 -10.0398 7.6964 26.7232
4225047 4.21739 2.28846 14.5102 5.70721 -10.0398 7.6964 26.7232
4225057 4.27826 2.30714 14.5206 5.72592 -10.0308 7.63706 26.8319
4225068 4.27826 2.30714 14.5206 5.72592 -10.0308 7.63706 26.8319
4225080 4.2 2.26044 14.3846 5.63236 -10.0952 7.68006 26.4774
4225087 4.17391 2.32582 14.4578 5.73528 -9.90027 7.69497 26.6929
4225102 4.17391 2.32582 14.4578 5.73528 -9.90027 7.69497 26.6929
4225118 4.2087 2.35385 14.416 5.81013 -9.76227 7.65076 26.7887
4225128 4.2087 2.35385 14.416 5.81013 -9.76227 7.65076 26.7887
4225137 4.10435 2.2978 14.3114 5.95982 -9.52083 7.79939 26.6734
4225153 4.10435 2.2978 14.3114 5.95982 -9.52083 7.79939 26.6734
4225161 4.10435 2.26044 14.2905 5.93176 -9.59361 7.81816 26.587
4225170 4.11304 2.31648 14.1963 5.99725 -9.38623 7.75494 26.6231
4225189 4.03478 2.31648 14.1754 6.01596 -9.30365 7.82143 26.5426
4225199 4.10435 2.31648 14.0812 6.13759 -9.13254 7.76924 26.6397
4225209 4.10435 2.31648 14.0812 6.13759 -9.13254 7.76924 26.6397
4225219 4.06087 2.44725 14.0812 6.18437 -8.88042 7.70764 26.7737
4225229 4.06087 2.44725 14.0812 6.18437 -8.88042 7.70764 26.7737
4225239 4.11304 2.42857 13.9138 6.21244 -8.79886 7.64102 26.6679
4225250 4.14783 2.46593 13.9348 6.28729 -8.69116 7.60642 26.8358
4225259 4.14783 2.46593 13.9348 6.28729 -8.69116 7.60642 26.8358
4225271 4.11304 2.40989 13.872 6.28729 -8.7023 7.66598 26.6822
4225279 4.11304 2.40989 13.872 6.28729 -8.7023 7.66598 26.6822
4225292 4.10435 2.48462 13.6314 6.33407 -8.39507 7.55608 26.5544
4225299 4.15652 2.53132 13.6 6.29664 -8.3964 7.45292 26.5845
4225309 4.15652 2.53132 13.6 6.29664 -8.3964 7.45292 26.5845
4225319 4.06087 2.48462 13.5582 6.3902 -8.25117 7.58829 26.4938
4225329 4.09565 2.55 13.464 6.42763 -8.08488 7.48719 26.5373
4225339 4.09565 2.55 13.464 6.42763 -8.08488 7.48719 26.5373
4225349 4.01739 2.58736 13.4222 6.5399 -7.82205 7.54172 26.5668
4225359 4.01739 2.58736 13.4222 6.5399 -7.82205 7.54172 26.5668
4225369 4.04348 2.53132 13.3803 6.62411 -7.77709 7.57902 26.5792
4225379 4.0087 2.5967 13.3594 6.7738 -7.47756 7.58891 26.7386
4225393 4.0087 2.5967 13.3594 6.7738 -7.47756 7.58891 26.7386
4225399 3.98261 2.60604 13.2757 6.75509 -7.41673 7.57461 26.6194
4225409 3.90435 2.64341 13.1606 6.86736 -7.10629 7.60857 26.5757
4225419 3.90435 2.64341 13.1606 6.86736 -7.10629 7.60857 26.5757
4225429 3.88696 2.62473 13.1711 6.97964 -6.98893 7.67318 26.6624
4225439 3.88696 2.62473 13.1711 6.97964 -6.98893 7.67318 26.6624
4225449 3.81739 2.60604 13.0246 6.97964 -6.86432 7.70829 26.4277
4225459 3.77391 2.67143 12.9514 7.12933 -6.52616 7.71056 26.5261
4225469 3.77391 2.67143 12.9514 7.12933 -6.52616 7.71056 26.5261
4225479 3.73913 2.68077 12.7735 7.24161 -6.23253 7.71433 26.435
4225493 3.66087 2.69945 12.5957 7.33517 -5.91638 7.74245 26.2912
4225500 3.66087 2.69945 12.5957 7.33517 -5.91638 7.74245 26.2912
4225513 3.62609 2.69945 12.4597 7.52229 -5.57259 7.78662 26.3075
4225520 3.62609 2.69945 12.4597 7.52229 -5.57259 7.78662 26.3075
4225532 3.53913 2.70879 12.2714 7.6907 -5.16122 7.84862 26.21
4225540 3.56522 2.90495 12.1354 8.01816 -4.48613 7.70932 26.6237
4225553 3.56522 2.90495 12.1354 8.01816 -4.48613 7.70932 26.6237
4225560 3.57391 2.98901 11.8738 8.17722 -4.02188 7.60209 26.614
4225570 3.43478 3.06374 11.5809 8.34562 -3.41186 7.62232 26.4251
4225580 3.43478 3.06374 11.5809 8.34562 -3.41186 7.62232 26.4251
4225595 3.43478 3.1011 11.2775 8.52339 -2.9311 7.55504 26.3368
4225600 3.43478 3.1011 11.2775 8.52339 -2.9311 7.55504 26.3368
4225610 3.38261 3.21319 11.0369 8.73858 -2.33944 7.49662 26.3713
4225621 3.34783 3.24121 10.8277 8.9257 -1.90625 7.4961 26.3424
4225641 3.21739 3.27857 10.4929 9.05669 -1.31986 7.51777 26.0456
4225651 3.16522 3.30659 10.2942 9.28123 -0.836506 7.54606 26.0472
4225663 3.16522 3.30659 10.2942 9.28123 -0.836506 7.54606 26.0472
4225672 3.17391 3.38132 10.1686 9.55256 -0.388798 7.51584 26.2764
4225682 3.17391 3.38132 10.1686 9.55256 -0.388798 7.51584 26.2764
4225695 3.10435 3.40934 9.98031 9.74904 0.0702322 7.55381 26.243
4225703 3.01739 3.51209 9.78154 9.88002 0.566205 7.52094 26.191
4225713 3.01739 3.51209 9.78154 9.88002 0.566205 7.52094 26.191
4225724 2.92174 3.58681 9.58277 10.2543 1.2683 7.58864 26.3456
4225734 2.89565 3.64286 9.40492 10.4975 1.73954 7.58139 26.441
4225745 2.89565 3.64286 9.40492 10.4975 1.73954 7.58139 26.441
4225754 2.84348 3.6522 9.15385 10.6472 2.18858 7.58957 26.2967
4225765 2.78261 3.71758 8.89231 10.7969 2.71062 7.55403 26.1894
4225774 2.78261 3.71758 8.89231 10.7969 2.71062 7.55403 26.1894
4225787 2.72174 3.73626 8.60985 10.9466 3.2206 7.5526 26.0145
4225794 2.72174 3.73626 8.60985 10.9466 3.2206 7.5526 26.0145
4225814 2.74783 3.79231 8.37969 11.0682 3.5911 7.45023 25.9881
4225815 2.68696 3.89506 8.22277 11.3302 4.12813 7.4446 26.135
4225824 2.68696 3.89506 8.22277 11.3302 4.12813 7.4446 26.135
4225835 2.64348 3.9044 8.01354 11.4799 4.53826 7.45675 26.0413
4225845 2.57391 3.92308 7.90892 11.7045 4.92592 7.53516 26.1104
4225855 2.57391 3.92308 7.90892 11.7045 4.92592 7.53516 26.1104
4225865 2.54783 4.02582 7.64738 11.7793 5.39408 7.41512 26.0003
4225876 2.54783 4.02582 7.64738 11.7793 5.39408 7.41512 26.0003
4225885 2.55652 4.08187 7.56369 11.9009 5.61486 7.37055 26.103
4225895 2.54783 4.11923 7.40677 12.0693 5.96139 7.34937 26.1432
4225905 2.54783 4.11923 7.40677 12.0693 5.96139 7.34937 26.1432
4225915 2.52174 4.13791 7.12431 12.2378 6.46539 7.3222 26.0217
4225925 2.45217 4.18462 7.03015 12.3594 6.7832 7.34991 26.0263
4225935 2.45217 4.18462 7.03015 12.3594 6.7832 7.34991 26.0263
4225945 2.51304 4.30604 6.91508 12.5184 7.04346 7.20753 26.2526
4225955 2.51304 4.30604 6.91508 12.5184 7.04346 7.20753 26.2526
4225965 2.41739 4.41813 6.65354 12.6494 7.64832 7.15464 26.1385
4225976 2.34783 4.51154 6.51754 12.7804 8.05376 7.13295 26.1573
4225986 2.34783 4.51154 6.51754 12.7804 8.05376 7.13295 26.1573
4225996 2.30435 4.56758 6.43385 12.9301 8.34686 7.14214 26.2359
4226007 2.22609 4.55824 6.21415 13.0517 8.80006 7.18702 26.0502
4226017 2.22609 4.55824 6.21415 13.0517 8.80006 7.18702 26.0502
4226026 2.2087 4.60495 6.13046 13.1266 9.00664 7.15942 26.0707
4226046 2.13043 4.5489 5.97354 13.0892 9.25926 7.21584 25.742
4226060 2.09565 4.58626 5.91077 13.1079 9.42364 7.20026 25.7006
4226081 2.13913 4.65165 5.73292 13.164 9.67739 7.06923 25.6877
4226088 2.10435 4.67033 5.81662 13.2763 9.6894 7.14305 25.8676
4226097 2.10435 4.67033 5.81662 13.2763 9.6894 7.14305 25.8676
4226108 2.08696 4.67967 5.72246 13.3511 9.88902 7.14407 25.8402
4226117 2.08696 4.67967 5.72246 13.3511 9.88902 7.14407 25.8402
4226128 2.11304 4.67967 5.70154 13.4353 9.93115 7.14097 25.9296
4226138 2.04348 4.76374 5.72246 13.5102 10.0884 7.15754 26.0399
4226157 2.06957 4.8011 5.73292 13.5663 10.0926 7.12378 26.1699
4226168 2.03478 4.78242 5.63877 13.6225 10.2875 7.15765 26.0784
4226179 2.03478 4.78242 5.63877 13.6225 10.2875 7.15765 26.0784
4226189 2.05217 4.86648 5.65969 13.7534 10.3564 7.11752 26.3318
4226199 2.05217 4.86648 5.65969 13.7534 10.3564 7.11752 26.3318
4226209 1.9913 4.91319 5.63877 13.7067 10.4665 7.10913 26.2499
4226219 2 4.96923 5.51323 13.7254 10.6661 7.02235 26.2078
4226229 2 4.96923 5.51323 13.7254 10.6661 7.02235 26.2078
4226239 1.93043 5.0533 5.46092 13.6692 10.8478 6.97699 26.1139
4226249 1.92174 5.08132 5.28308 13.585 11.0756 6.87931 25.8712
4226259 1.92174 5.08132 5.28308 13.585 11.0756 6.87931 25.8712
4226269 1.87826 5.10934 5.28308 13.5008 11.1061 6.8659 25.7715
4226279 1.87826 5.10934 5.28308 13.5008 11.1061 6.8659 25.7715
4226289 1.7913 5.18407 5.32492 13.5102 11.2145 6.8924 25.8105
4226299 1.8 5.11868 5.26215 13.454 11.2255 6.9032 25.6349
4226310 1.8 5.11868 5.26215 13.454 11.2255 6.9032 25.6349
4226320 1.8 5.22143 5.304 13.5102 11.2515 6.8468 25.8356
4226331 1.83478 5.25879 5.34585 13.6131 11.2189 6.83161 26.0525
4226339 1.83478 5.25879 5.34585 13.6131 11.2189 6.83161 26.0525
4226349 1.82609 5.29615 5.36677 13.6599 11.2463 6.82882 26.1489
4226359 1.82609 5.29615 5.36677 13.6599 11.2463 6.82882 26.1489
4226369 1.76522 5.24945 5.38769 13.5476 11.2179 6.89055 25.95
4226379 1.8087 5.3522 5.46092 13.5757 11.1254 6.79972 26.1975
4226389 1.8087 5.3522 5.46092 13.5757 11.1254 6.79972 26.1975
4226399 1.86957 5.28681 5.34585 13.5008 11.1258 6.74361 26.0031
4226409 1.7913 5.34286 5.35631 13.4634 11.2302 6.75364 25.9539
4226418 1.7913 5.34286 5.35631 13.4634 11.2302 6.75364 25.9539
4226429 1.8087 5.37088 5.35631 13.4634 11.2208 6.71565 25.9993
4226440 1.8087 5.37088 5.35631 13.4634 11.2208 6.71565 25.9993
4226449 1.78261 5.30549 5.33538 13.4166 11.2268 6.77081 25.8401
4226459 1.8087 5.34286 5.38769 13.4634 11.1622 6.74905 26.0026
4226471 1.8087 5.34286 5.38769 13.4634 11.1622 6.74905 26.0026
4226479 1.84348 5.31484 5.40862 13.4166 11.0448 6.73518 25.9836
4226489 1.84348 5.31484 5.40862 13.4166 11.0448 6.73518 25.9836
4226500 1.78261 5.3522 5.46092 13.4447 11.0918 6.78031 26.0404
4226510 1.8087 5.30549 5.54462 13.4447 10.9151 6.82386 26.1035
4226520 1.8087 5.30549 5.54462 13.4447 10.9151 6.82386 26.1035
4226530 1.83478 5.29615 5.50277 13.4447 10.9317 6.79673 26.0784
4226540 1.78261 5.27747 5.56554 13.4447 10.9071 6.87572 26.0703
4226550 1.78261 5.27747 5.56554 13.4447 10.9071 6.87572 26.0703
4226562 1.8 5.27747 5.50277 13.3979 10.9444 6.82682 25.9781
4226584 1.8 5.23077 5.55508 13.5382 10.9228 6.92611 26.1241
4226590 1.8 5.21209 5.52369 13.5944 10.9861 6.94943 26.1302
4226605 1.8 5.21209 5.52369 13.5944 10.9861 6.94943 26.1302
4226611 1.75652 5.20275 5.55508 13.557 10.9777 6.99204 26.0713
4226621 1.77391 5.18407 5.40862 13.6412 11.1916 6.97396 26.0078
4226641 1.74783 5.11868 5.51323 13.6037 11.0276 7.07207 25.9835
4226651 1.72174 5.15604 5.38769 13.716 11.3183 7.05844 25.9815
4226661 1.72174 5.15604 5.38769 13.716 11.3183 7.05844 25.9815
4226671 1.73043 5.09066 5.45046 13.7722 11.2138 7.14272 26.0437
4226681 1.73043 5.09066 5.45046 13.7722 11.2138 7.14272 26.0437
4226691 1.66957 5.1 5.37723 13.8283 11.4355 7.18147 25.9751
4226701 1.67826 4.97857 5.48185 13.978 11.2921 7.35335 26.1167
4226711 1.67826 4.97857 5.48185 13.978 11.2921 7.35335 26.1167
4226721 1.68696 4.98791 5.44 14.1651 11.4403 7.38028 26.28
4226732 1.68696 4.98791 5.44 14.1651 11.4403 7.38028 26.28
4226744 1.61739 4.89451 5.42954 14.2774 11.5613 7.54898 26.2188
4226751 1.54783 4.8478 5.44 14.24 11.6008 7.64182 26.0756
4226761 1.54783 4.8478 5.44 14.24 11.6008 7.64182 26.0756
4226773 1.58261 4.79176 5.37723 14.268 11.6258 7.65051 26.0196
4226783 1.58261 4.85714 5.29354 14.2493 11.7678 7.56454 25.9826
4226802 1.5913 4.81044 5.27262 14.1464 11.7085 7.56209 25.8208
4226815 1.51304 4.82912 5.27262 14.137 11.8249 7.61159 25.7518
4226836 1.51304 4.85714 5.35631 14.2119 11.7583 7.63232 25.9384
4226844 1.51304 4.85714 5.35631 14.2119 11.7583 7.63232 25.9384
4226855 1.50435 4.79176 5.304 14.2212 11.8164 7.685 25.8214
4226865 1.57391 4.79176 5.34585 14.2306 11.6631 7.63861 25.9421
4226885 1.53913 4.83846 5.36677 14.3522 11.7686 7.66848 26.0966
4226895 1.57391 4.81978 5.38769 14.4271 11.7188 7.68134 26.2085
4226905 1.57391 4.81978 5.38769 14.4271 11.7188 7.68134 26.2085
4226915 1.58261 4.87582 5.39815 14.4084 11.7109 7.62313 26.265
4226926 1.6087 4.89451 5.34585 14.3148 11.7096 7.5433 26.1639
4226935 1.6087 4.89451 5.34585 14.3148 11.7096 7.5433 26.1639
4226946 1.57391 4.90385 5.31446 14.2961 11.798 7.55096 26.0883
4226955 1.57391 4.90385 5.31446 14.2961 11.798 7.55096 26.0883
4226969 1.57391 4.81978 5.31446 14.2212 11.7171 7.60257 25.9294
4226975 1.54783 4.81978 5.29354 14.2493 11.7981 7.62737 25.9105
4226985 1.54783 4.81978 5.29354 14.2493 11.7981 7.62737 25.9105
4226995 1.62609 4.90385 5.29354 14.1838 11.6968 7.46758 26.0073
4227005 1.62609 4.90385 5.29354 14.1838 11.6968 7.46758 26.0073
4227015 1.57391 4.82912 5.304 14.2025 11.7271 7.5861 25.9096
4227025 1.6 4.81978 5.32492 14.1558 11.6317 7.56409 25.9005
4227035 1.6 4.81978 5.32492 14.1558 11.6317 7.56409 25.9005
4227045 1.58261 4.81044 5.38769 14.0715 11.519 7.58126 25.8523
4227056 1.65217 4.81044 5.40862 14.0996 11.4063 7.53477 25.9708
4227066 1.65217 4.81044 5.40862 14.0996 11.4063 7.53477 25.9708
4227075 1.61739 4.83846 5.42954 14.1558 11.4696 7.56271 26.0411
4227093 1.61739 4.83846 5.42954 14.1558 11.4696 7.56271 26.0411
4227098 1.6 4.85714 5.45046 14.109 11.4501 7.5542 26.0166
4227106 1.64348 4.82912 5.59692 14.1651 11.2007 7.59841 26.2346
4227121 1.64348 4.82912 5.59692 14.1651 11.2007 7.59841 26.2346
4227126 1.67826 4.83846 5.51323 14.1183 11.2486 7.52334 26.1483
4227136 1.66087 4.82912 5.55508 14.1277 11.2148 7.56098 26.1728
4227147 1.66087 4.82912 5.55508 14.1277 11.2148 7.56098 26.1728
4227157 1.64348 4.87582 5.52369 14.137 11.3118 7.52946 26.18
4227169 1.58261 4.82912 5.52369 14.0622 11.3328 7.60117 25.9976
4227177 1.58261 4.82912 5.52369 14.0622 11.3328 7.60117 25.9976
4227188 1.62609 4.95989 5.576 14.0996 11.2878 7.47649 26.2616
4227197 1.62609 4.95989 5.576 14.0996 11.2878 7.47649 26.2616
4227208 1.58261 4.87582 5.37723 14.0435 11.5532 7.51316 25.8791
4227217 1.62609 4.91319 5.50277 13.9218 11.2716 7.44419 25.9639
4227227 1.62609 4.91319 5.50277 13.9218 11.2716 7.44419 25.9639
4227238 1.65217 4.93187 5.52369 13.9031 11.206 7.40621 26.0109
4227249 1.65217 4.93187 5.52369 13.9031 11.206 7.40621 26.0109
4227257 1.6087 4.93187 5.52369 13.9031 11.2666 7.44372 25.9674
4227271 1.66957 4.92253 5.58646 13.8938 11.0848 7.41484 26.0723
4227279 1.66957 4.92253 5.58646 13.8938 11.0848 7.41484 26.0723
4227287 1.74783 4.93187 5.60738 13.7347 10.8672 7.29912 26.0218
4227298 1.8087 4.96923 5.60738 13.6412 10.7528 7.18727 26.0265
4227319 1.91304 5.06264 5.576 13.4915 10.6219 6.96447 26.0432
4227329 1.91304 5.06264 5.576 13.4915 10.6219 6.96447 26.0432
4227339 2.0087 5.0533 5.60738 13.3511 10.3652 6.85797 26.0205
4227349 2.07826 5.0533 5.60738 13.2482 10.2126 6.76721 25.9872
4227369 2.06957 4.98791 5.55508 13.1734 10.2155 6.78915 25.7859
4227379 2.12174 4.96923 5.64923 13.0517 9.93527 6.75211 25.7919
4227401 2.23478 4.95989 5.72246 12.9862 9.64052 6.66749 25.9034
4227409 2.23478 4.95989 5.81662 12.9862 9.51507 6.69767 25.9975
4227423 2.25217 4.90385 5.81662 12.8833 9.39665 6.69705 25.856
4227430 2.28696 4.8478 5.90031 12.8272 9.1714 6.72374 25.8623
4227440 2.28696 4.8478 5.90031 12.8272 9.1714 6.72374 25.8623
4227450 2.36522 4.82912 5.99446 12.8085 8.92201 6.69797 25.9973
4227460 2.41739 4.88516 6.07815 12.7711 8.75722 6.62287 26.1518
4227470 2.41739 4.88516 6.07815 12.7711 8.75722 6.62287 26.1518
4227480 2.47826 4.85714 6.14092 12.6868 8.52802 6.58886 26.1632
4227491 2.47826 4.85714 6.19323 12.6868 8.46112 6.60564 26.2155
4227501 2.54783 4.81044 6.19323 12.5652 8.26539 6.54764 26.1167
4227510 2.55652 4.78242 6.29785 12.4249 8.01266 6.55203 26.0617
4227530 2.6087 4.78242 6.35015 12.2284 7.75132 6.46183 25.9697
4227540 2.66957 4.8478 6.35015 12.1536 7.66843 6.33314 26.0211
4227561 2.73043 4.86648 6.40246 12.0226 7.45155 6.24171 26.0219
4227571 2.63478 4.78242 6.46523 11.9196 7.36574 6.37605 25.8021
4227582 2.63478 4.78242 6.46523 11.9196 7.36574 6.37605 25.8021
4227592 2.70435 4.73571 6.54892 11.798 7.05827 6.34441 25.787
4227602 2.70435 4.73571 6.54892 11.798 7.05827 6.34441 25.787
4227624 2.66087 4.65165 6.67446 11.7325 6.85165 6.47046 25.7195
4227626 2.70435 4.56758 6.86277 11.6296 6.43339 6.53255 25.7643
4227631 2.70435 4.56758 6.86277 11.6296 6.43339 6.53255 25.7643
4227641 2.8087 4.57692 7.10338 11.508 5.9361 6.47714 25.997
4227651 2.75652 4.47418 7.344 11.4238 5.57478 6.6564 25.9985
4227661 2.75652 4.47418 7.344 11.4238 5.57478 6.6564 25.9985
4227671 2.81739 4.38077 7.65785 11.3676 5.02712 6.76526 26.2236
4227681 2.81739 4.38077 7.65785 11.3676 5.02712 6.76526 26.2236
4227691 2.84348 4.2967 7.94031 11.1899 4.47538 6.84612 26.2704
4227701 2.87826 4.23132 8.09723 11.0682 4.11423 6.88251 26.2751
4227714 2.87826 4.23132 8.09723 11.0682 4.11423 6.88251 26.2751
4227730 2.90435 4.18462 8.34831 10.8718 3.61447 6.91651 26.309
4227735 2.90435 4.18462 8.34831 10.8718 3.61447 6.91651 26.309
4227742 2.93913 4.10055 8.58892 10.6472 3.06338 6.96256 26.2758
4227756 3.01739 4.02582 8.77723 10.4788 2.57613 6.96569 26.2993
4227773 3.01739 3.94176 8.93415 10.1888 2.08859 6.99548 26.0821
4227782 2.9913 3.94176 9.15385 10.0671 1.78151 7.04743 26.1541
4227794 2.9913 3.94176 9.15385 10.0671 1.78151 7.04743 26.1541
4227804 3.13043 3.89506 9.42585 9.81453 1.09772 6.97572 26.2659
4227814 3.05217 3.77363 9.58277 9.63676 0.744322 7.13778 26.0453
4227824 3.05217 3.77363 9.58277 9.63676 0.744322 7.13778 26.0453
4227834 3.09565 3.6989 9.83385 9.55256 0.307441 7.21432 26.181
4227844 3.09565 3.6989 9.83385 9.55256 0.307441 7.21432 26.181
4227854 3.06087 3.6989 9.94892 9.32801 0.016439 7.21126 26.0367
4227865 3.17391 3.62418 10.1477 9.21574 -0.460303 7.20448 26.1615
4227887 3.14783 3.56813 10.3778 8.99119 -0.926152 7.27607 26.085
4227894 3.2 3.43736 10.608 8.87892 -1.42752 7.37794 26.1243
4227909 3.2 3.43736 10.608 8.87892 -1.42752 7.37794 26.1243
4227915 3.36522 3.40934 11.0474 8.66373 -2.2083 7.32654 26.4857
4227925 3.36522 3.40934 11.0474 8.66373 -2.2083 7.32654 26.4857
4227935 3.36522 3.34396 11.4658 8.43919 -2.86306 7.4373 26.6142
4227945 3.47826 3.3533 11.6228 8.18657 -3.34182 7.30707 26.6409
4227965 3.58261 3.32527 11.832 7.86846 -3.96574 7.2116 26.6083
4227976 3.62609 3.22253 11.9262 7.63456 -4.4446 7.22023 26.4093
4227986 3.62609 3.22253 11.9262 7.63456 -4.4446 7.22023 26.4093
4227998 3.73043 3.29725 12.0831 7.3913 -4.83449 7.04475 26.5021
4228020 3.73043 3.18516 12.2609 7.21354 -5.29807 7.1384 26.3901
4228026 3.72174 3.22253 12.4806 6.91414 -5.75732 7.09052 26.339
4228036 3.72174 3.22253 12.4806 6.91414 -5.75732 7.09052 26.339
4228046 3.7913 3.1011 12.5957 6.78316 -6.18807 7.12934 26.2713
4228056 3.78261 3.0544 12.8468 6.6896 -6.52683 7.22283 26.3734
4228076 3.89565 3.06374 13.056 6.48376 -6.98527 7.1212 26.4992
4228086 3.89565 3.06374 13.056 6.48376 -6.98527 7.1212 26.4992
4228096 3.89565 2.99835 13.3698 6.37149 -7.41088 7.23512 26.6353
4228106 3.84348 2.98901 13.6 6.23115 -7.71023 7.31258 26.6636
4228118 3.84348 2.98901 13.6 6.23115 -7.71023 7.31258 26.6636
4228128 3.90435 2.99835 13.7569 6.1563 -7.93056 7.27768 26.8159
4228138 3.90435 2.90495 13.9034 6.08145 -8.23066 7.37599 26.7941
4228158 3.93043 2.79286 13.9662 5.9224 -8.62523 7.42072 26.6118
4228171 3.87826 2.76484 14.0812 5.81948 -8.82991 7.49193 26.5438
4228178 3.87826 2.76484 14.0812 5.81948 -8.82991 7.49193 26.5438
4228187 3.90435 2.73681 14.28 5.69785 -9.15669 7.51532 26.619
4228197 3.90435 2.73681 14.28 5.69785 -9.15669 7.51532 26.619
4228207 3.92174 2.65275 14.4578 5.60429 -9.50059 7.59536 26.6366
4228220 3.90435 2.69011 14.6148 5.55751 -9.59352 7.60897 26.7667
4228228 3.90435 2.69011 14.6148 5.55751 -9.59352 7.60897 26.7667
4228237 3.98261 2.58736 14.7194 5.48266 -9.92825 7.63787 26.772
4228249 3.98261 2.58736 14.7194 5.48266 -9.92825 7.63787 26.772
4228259 4.0087 2.56868 14.8868 5.43588 -10.1216 7.66464 26.9
4228269 4.04348 2.49396 15.0228 5.42653 -10.3252 7.73261 26.9867
4228279 4.04348 2.49396 15.0228 5.42653 -10.3252 7.73261 26.9867
4228289 4.06957 2.51264 15.096 5.31425 -10.5017 7.6844 26.9925
4228301 4.07826 2.40989 15.0437 5.23941 -10.7136 7.72934 26.7712
4228309 4.07826 2.40989 15.0437 5.23941 -10.7136 7.72934 26.7712
4228323 4.12174 2.39121 14.9182 5.12713 -10.8456 7.64302 26.5582
4228329 4.12174 2.39121 14.9182 5.12713 -10.8456 7.64302 26.5582
4228338 4.14783 2.36319 15.0332 5.16456 -10.9077 7.68667 26.7088
4228354 4.2 2.26978 15.0332 5.13649 -11.0991 7.71407 26.6395
4228367 4.2 2.26978 15.0332 5.13649 -11.0991 7.71407 26.6395
4228371 4.23478 2.30714 15.1065 5.14584 -11.0922 7.67537 26.7942
4228379 4.22609 2.26044 15.1797 5.1552 -11.1759 7.74476 26.8214
4228390 4.22609 2.26044 15.1797 5.1552 -11.1759 7.74476 26.8214
4228399 4.33913 2.24176 15.3052 5.05228 -11.4616 7.67118 26.9384
4228412 4.33913 2.24176 15.3052 5.05228 -11.4616 7.67118 26.9384
4228420 4.29565 2.15769 15.3889 5.071 -11.5704 7.80651 26.9133
4228433 4.37391 2.12967 15.3889 5.08971 -11.622 7.76903 26.9822
4228441 4.37391 2.12967 15.3889 5.08971 -11.622 7.76903 26.9822
4228450 4.41739 2.06429 15.4935 5.02422 -11.8729 7.79798 26.9994
4228460 4.42609 1.97088 15.5563 4.98679 -12.0868 7.87645 26.9401
4228470 4.42609 1.97088 15.5563 4.98679 -12.0868 7.87645 26.9401
4228480 4.48696 1.98956 15.6191 4.87452 -12.2747 7.7959 26.9701
4228501 4.50435 1.91484 15.5982 4.82774 -12.4417 7.82641 26.8451
4228510 4.51304 1.91484 15.6295 4.78096 -12.5257 7.8149 26.8384
4228521 4.51304 1.91484 15.6295 4.78096 -12.5257 7.8149 26.8384
4228530 4.55652 1.79341 15.5982 4.70611 -12.8077 7.85299 26.6542
4228542 4.58261 1.82143 15.5563 4.66868 -12.8138 7.78527 26.629
4228550 4.58261 1.82143 15.5563 4.66868 -12.8138 7.78527 26.629
4228566 4.62609 1.85879 15.4517 4.61255 -12.8125 7.67221 26.5491
4228570 4.62609 1.85879 15.4517 4.61255 -12.8125 7.67221 26.5491
4228580 4.6 1.83077 15.3889 4.64062 -12.7715 7.70896 26.4603
4228590 4.62609 1.87747 15.368 4.6219 -12.734 7.63566 26.4935
4228601 4.62609 1.87747 15.368 4.6219 -12.734 7.63566 26.4935
4228611 4.64348 1.93352 15.3052 4.69675 -12.5272 7.57647 26.579
4228621 4.63478 1.85879 15.3575 4.74353 -12.5871 7.67494 26.5946
4228633 4.63478 1.85879 15.3575 4.74353 -12.5871 7.67494 26.5946
4228641 4.58261 1.9989 15.4098 4.81838 -12.2858 7.63531 26.8097
4228655 4.58261 1.9989 15.4098 4.81838 -12.2858 7.63531 26.8097
4228661 4.61739 1.98022 15.3471 4.89323 -12.1945 7.62505 26.8379
4228671 4.61739 2.03626 15.2843 4.97744 -11.9708 7.58381 26.9154
4228682 4.61739 2.03626 15.2843 4.97744 -11.9708 7.58381 26.9154
4228692 4.64348 2.11099 15.2111 4.97744 -11.8455 7.47915 26.943
4228702 4.61739 2.10165 15.2111 5.02422 -11.7816 7.52175 26.9543
4228712 4.61739 2.10165 15.2111 5.02422 -11.7816 7.52175 26.9543
4228722 4.63478 2.15769 15.0437 5.0055 -11.6566 7.40829 26.8417
4228732 4.63478 2.15769 15.0437 5.0055 -11.6566 7.40829 26.8417
4228744 4.6087 2.19506 14.9705 5.05228 -11.4922 7.39138 26.8265
4228755 4.58261 2.2511 14.8868 5.04293 -11.3731 7.33987 26.7634
4228772 4.64348 2.30714 14.6566 5.06164 -11.1847 7.1812 26.6689
4228782 4.6087 2.37253 14.5415 5.08035 -10.9925 7.12736 26.6031
4228793 4.6087 2.37253 14.5415 5.08035 -10.9925 7.12736 26.6031
4228802 4.6087 2.34451 14.4055 5.08971 -10.9458 7.11311 26.4484
4228812 4.6087 2.34451 14.4055 5.08971 -10.9458 7.11311 26.4484
4228823 4.5913 2.43791 14.3114 5.12713 -10.7089 7.03269 26.4677
4228832 4.6087 2.44725 14.2695 5.11778 -10.6957 6.995 26.4433
4228842 4.6087 2.44725 14.2695 5.11778 -10.6957 6.995 26.4433
4228855 4.63478 2.53132 14.2172 5.12713 -10.5558 6.89064 26.5105
4228864 4.68696 2.60604 14.1335 5.19263 -10.3514 6.78073 26.6192
4228884 4.7913 2.66209 13.9975 5.20198 -10.2473 6.61061 26.6529
4228899 4.7913 2.66209 13.9975 5.20198 -10.2473 6.61061 26.6529
4228904 4.83478 2.65275 13.872 5.23941 -10.1645 6.55508 26.5989
4228914 4.83478 2.74615 13.7674 5.18327 -10.0566 6.42803 26.5316
4228925 4.83478 2.74615 13.7674 5.18327 -10.0566 6.42803 26.5316
4228935 4.91304 2.76484 13.6209 5.17391 -10.0058 6.2991 26.4727
4228945 4.98261 2.78352 13.5686 5.1552 -10.0156 6.20482 26.4899
4228955 4.98261 2.78352 13.5686 5.1552 -10.0156 6.20482 26.4899
4228967 5.10435 2.83956 13.4326 5.20198 -9.8721 6.03346 26.5785
4228975 5.05217 2.91429 13.4012 5.20198 -9.72645 6.00502 26.5697
4228990 5.05217 2.91429 13.4012 5.20198 -9.72645 6.00502 26.5697
4228995 5.06087 2.91429 13.328 5.14584 -9.76288 5.95411 26.449
4229013 5.06087 2.91429 13.328 5.14584 -9.76288 5.95411 26.449
4229015 5.04348 2.97033 13.328 5.19263 -9.61819 5.93954 26.5344
4229025 5.06087 2.93297 13.2443 5.1552 -9.67764 5.91381 26.3933
4229046 5.04348 3.03571 13.2548 5.16456 -9.52693 5.85323 26.4985
4229059 5.01739 3.01703 13.2234 5.18327 -9.49325 5.88416 26.4411
4229082 4.94783 2.99835 13.2966 5.29554 -9.37375 6.01732 26.5383
4229086 4.94783 2.99835 13.2966 5.29554 -9.37375 6.01732 26.5383
4229096 4.93043 2.97967 13.2548 5.29554 -9.36303 6.03177 26.4604
4229106 4.87826 2.97033 13.2338 5.37975 -9.22262 6.1021 26.4622
4229116 4.87826 2.97033 13.2338 5.37975 -9.22262 6.1021 26.4622
4229127 4.85217 2.99835 13.2234 5.42653 -9.10426 6.11276 26.5004
4229136 4.85217 2.99835 13.2234 5.42653 -9.10426 6.11276 26.5004
4229149 4.81739 3.04505 13.1188 5.43588 -8.94801 6.07119 26.4171
4229156 4.75652 3.03571 13.1083 5.5388 -8.78455 6.15836 26.4393
4229166 4.75652 3.03571 13.1083 5.5388 -8.78455 6.15836 26.4393
4229178 4.69565 3.03571 13.0769 5.61365 -8.63223 6.22165 26.4219
4229186 4.66957 3.02637 13.0455 5.7727 -8.40685 6.29228 26.5142
4229196 4.66957 3.02637 13.0455 5.7727 -8.40685 6.29228 26.5142
4229206 4.64348 3.04505 13.056 5.86626 -8.2562 6.33224 26.6108
4229220 4.64348 3.04505 13.056 5.86626 -8.2562 6.33224 26.6108
4229226 4.56522 3.07308 13.1083 5.91304 -8.14659 6.40466 26.6596
4229236 4.51304 3.1011 13.1292 6.0721 -7.8957 6.48162 26.8155
4229246 4.51304 3.1011 13.1292 6.0721 -7.8957 6.48162 26.8155
4229257 4.48696 3.01703 13.0455 6.03467 -7.97541 6.53182 26.5842
4229266 4.44348 3.0544 13.0351 6.13759 -7.76753 6.56612 26.6705
4229278 4.44348 3.0544 13.0351 6.13759 -7.76753 6.56612 26.6705
4229289 4.38261 3.03571 12.9932 6.20308 -7.64339 6.63807 26.6146
4229296 4.38261 3.03571 12.9932 6.20308 -7.64339 6.63807 26.6146
4229311 4.30435 3.04505 12.9618 6.21244 -7.54863 6.68735 26.5237
4229316 4.26957 3.0544 12.8991 6.31535 -7.3468 6.72072 26.5384
4229326 4.26957 3.0544 12.8991 6.31535 -7.3468 6.72072 26.5384
4229336 4.24348 3.00769 12.8363 6.34342 -7.31026 6.76967 26.4309
4229347 4.15652 2.98901 12.784 6.3902 -7.18217 6.85532 26.3197
4229356 4.15652 2.98901 12.784 6.3902 -7.18217 6.85532 26.3197
4229366 4.10435 2.94231 12.8258 6.50248 -7.09518 6.98484 26.375
4229381 4.10435 2.94231 12.8258 6.50248 -7.09518 6.98484 26.375
4229388 4.06957 2.93297 12.8886 6.67089 -6.92184 7.09112 26.562
4229397 4.09565 2.93297 12.8886 6.73638 -6.8611 7.08893 26.6536
4229408 4.09565 2.93297 12.8886 6.73638 -6.8611 7.08893 26.6536
4229418 3.93913 2.97967 12.9305 6.85801 -6.5824 7.22818 26.7073
4229427 3.87826 2.88626 12.9932 7.00771 -6.51728 7.418 26.7655
4229438 3.87826 2.88626 12.9932 7.00771 -6.51728 7.418 26.7655
4229450 3.8 2.88626 12.9514 7.09191 -6.33494 7.49565 26.7296
4229468 3.74783 2.81154 12.9514 7.11062 -6.3643 7.60816 26.6214
4229477 3.67826 2.83956 12.8572 7.10127 -6.22695 7.61473 26.4763
4229490 3.67826 2.83956 12.8572 7.10127 -6.22695 7.61473 26.4763
4229499 3.66957 2.74615 12.8677 7.20418 -6.21699 7.73352 26.4876
4229509 3.64348 2.81154 12.8572 7.17611 -6.14709 7.68922 26.4884
4229519 3.64348 2.81154 12.8572 7.17611 -6.14709 7.68922 26.4884
4229529 3.5913 2.81154 12.8886 7.33517 -5.94631 7.78597 26.6266
4229542 3.5913 2.81154 12.8886 7.33517 -5.94631 7.78597 26.6266
4229549 3.46087 2.75549 12.8363 7.3913 -5.81454 7.9477 26.444
4229559 3.46087 2.72747 12.8572 7.41937 -5.82965 7.98505 26.4649
4229579 3.47826 2.76484 12.8991 7.541 -5.68851 7.98086 26.6832
4229591 3.41739 2.70879 12.92 7.58778 -5.67022 8.09958 26.634
4229600 3.41739 2.70879 12.92 7.58778 -5.67022 8.09958 26.634
4229610 3.34783 2.69945 12.9514 7.61585 -5.62091 8.18348 26.6145
4229620 3.34783 2.69945 12.9514 7.61585 -5.62091 8.18348 26.6145
4229636 3.24348 2.72747 12.8991 7.73748 -5.33459 8.26775 26.6075
4229644 3.26087 2.76484 12.9095 7.8404 -5.19612 8.24867 26.7756
4229657 3.26087 2.76484 12.9095 7.8404 -5.19612 8.24867 26.7756
4229661 3.23478 2.67143 12.8677 7.82168 -5.27283 8.33776 26.5956
4229671 3.17391 2.73681 12.7526 7.87782 -5.00345 8.31899 26.5412
4229691 3.13043 2.70879 12.5643 7.95267 -4.77429 8.35349 26.3562
4229703 3.08696 2.79286 12.3446 8.02752 -4.39129 8.28071 26.2519
4229711 3.08696 2.79286 12.3446 8.02752 -4.39129 8.28071 26.2519
4229721 3.10435 2.75549 12.2191 8.25206 -4.09771 8.32364 26.331
4229731 3.10435 2.75549 12.2191 8.25206 -4.09771 8.32364 26.331
4229741 3.0087 2.83022 11.9889 8.42047 -3.56873 8.32652 26.2483
4229752 3.03478 2.88626 11.8215 8.71051 -3.08049 8.28504 26.4531
4229761 3.03478 2.88626 11.8215 8.71051 -3.08049 8.28504 26.4531
4229773 3.04348 2.93297 11.5809 9.00991 -2.52334 8.25134 26.5673
4229781 3.04348 2.93297 11.5809 9.00991 -2.52334 8.25134 26.5673
4229797 2.91304 2.94231 11.288 9.29059 -1.86138 8.35474 26.4339
4229802 2.85217 3.07308 11.1102 9.62741 -1.18315 8.33313 26.6628
4229822 2.81739 3.08242 10.6603 9.87067 -0.496218 8.30348 26.4308
4229833 2.77391 3.13846 10.3778 10.1139 0.095278 8.28245 26.4041
4229844 2.77391 3.13846 10.3778 10.1139 0.095278 8.28245 26.4041
4229853 2.65217 3.15714 10.1163 10.3759 0.726724 8.37379 26.3015
4229866 2.58261 3.21319 9.792 10.6566 1.42426 8.37481 26.2444
4229873 2.58261 3.21319 9.792 10.6566 1.42426 8.37481 26.2444
4229883 2.54783 3.25989 9.55138 10.9466 2.0027 8.37667 26.3057
4229893 2.54783 3.25989 9.55138 10.9466 2.0027 8.37667 26.3057
4229905 2.44348 3.32527 9.14338 11.3021 2.89972 8.39816 26.2143
4229914 2.33913 3.43736 8.87138 11.6764 3.70688 8.41692 26.3243
4229924 2.33913 3.43736 8.87138 11.6764 3.70688 8.41692 26.3243
4229936 2.33913 3.4467 8.57846 11.929 4.23883 8.39851 26.2933
4229944 2.21739 3.4467 8.30646 12.2658 4.94416 8.52339 26.2364
4229959 2.21739 3.46538 8.30646 12.2658 4.95843 8.50665 26.2551
4229964 2.13913 3.61484 7.97169 12.4529 5.68877 8.4061 26.1786
4229974 2.13913 3.61484 7.97169 12.4529 5.68877 8.4061 26.1786
4229984 2.05217 3.67088 7.63692 12.612 6.34702 8.38935 25.972
4229994 2.02609 3.82033 7.35446 12.7336 6.91493 8.2371 25.9345
4230014 2.01739 3.96978 7.12431 12.9675 7.47307 8.11265 26.079
4230030 2.01739 3.96978 7.12431 12.9675 7.47307 8.11265 26.079
4230035 1.95652 3.97912 6.83138 13.2108 8.08575 8.14533 25.9778
4230044 1.93043 4.12857 6.63262 13.4634 8.6302 8.05028 26.155
4230054 1.93043 4.12857 6.63262 13.4634 8.6302 8.05028 26.155
4230064 1.93913 4.14725 6.36062 13.6131 9.07576 7.99344 26.0601
4230075 1.87826 4.25 6.32923 13.7722 9.35455 7.99084 26.2296
4230084 1.87826 4.25 6.32923 13.7722 9.35455 7.99084 26.2296
4230106 1.90435 4.32473 6.07815 13.7347 9.67377 7.82419 26.042
4230107 1.90435 4.32473 6.07815 13.7347 9.67377 7.82419 26.042
4230128 1.88696 4.47418 5.82708 13.8844 10.2066 7.68068 26.0726
4230135 1.88696 4.47418 5.82708 13.8844 10.2066 7.68068 26.0726
4230145 1.84348 4.53956 5.74338 13.847 10.395 7.62742 25.9734
4230155 1.8087 4.65165 5.61785 13.9593 10.7387 7.55648 26.0375
4230166 1.8087 4.65165 5.61785 13.9593 10.7387 7.55648 26.0375
4230176 1.86087 4.71703 5.53415 13.9312 10.8024 7.42272 26.0433
4230186 1.8 4.76374 5.45046 13.9218 11.0224 7.40778 25.936
4230206 1.85217 4.92253 5.37723 13.9406 11.1466 7.21075 26.0925
4230218 1.85217 4.92253 5.37723 13.9406 11.1466 7.21075 26.0925
4230227 1.7913 4.97857 5.31446 13.9125 11.3334 7.18765 25.9968
4230241 1.77391 5.10934 5.25169 13.9406 11.5283 7.08078 26.0755
4230248 1.77391 5.10934 5.25169 13.9406 11.5283 7.08078 26.0755
4230257 1.8 5.11868 5.18892 13.8564 11.5411 7.00583 25.964
4230273 1.76522 5.15604 5.17846 13.8751 11.6338 7.00618 25.9748
4230291 1.75652 5.24945 5.09477 13.8283 11.7884 6.89406 25.929
4230298 1.75652 5.24945 5.09477 13.8283 11.7884 6.89406 25.929
4230312 1.70435 5.32418 5.032 13.7909 11.971 6.84355 25.8514
4230317 1.66957 5.32418 5.04246 13.7534 11.987 6.86448 25.7896
4230338 1.73043 5.3989 4.96923 13.7347 12.0329 6.72076 25.8333
4230347 1.72174 5.42692 5.09477 13.8657 11.9461 6.78602 26.1091
4230368 1.68696 5.47363 5.06338 14.0528 12.1553 6.82482 26.2768
4230379 1.68696 5.47363 5.06338 14.0528 12.1553 6.82482 26.2768
4230387 1.66957 5.45495 4.99015 14.137 12.3156 6.85823 26.2517
4230402 1.6087 5.50165 5.032 14.1651 12.3787 6.89164 26.3075
4230409 1.6087 5.50165 5.032 14.1651 12.3787 6.89164 26.3075
4230418 1.58261 5.42692 4.99015 14.24 12.4755 6.98595 26.2396
4230427 1.62609 5.49231 4.92738 14.1745 12.503 6.85546 26.2202
4230439 1.62609 5.49231 4.92738 14.1745 12.503 6.85546 26.2202
4230447 1.61739 5.52967 4.88554 14.0996 12.5576 6.79511 26.1322
4230457 1.61739 5.52967 4.88554 14.0996 12.5576 6.79511 26.1322
4230471 1.6 5.53901 4.81231 13.9406 12.6171 6.72828 25.8919
4230479 1.61739 5.59506 4.78092 13.8376 12.6151 6.62351 25.831
4230494 1.61739 5.59506 4.78092 13.8376 12.6151 6.62351 25.831
4230499 1.57391 5.61374 4.66585 13.8189 12.8474 6.60074 25.6724
4230509 1.6087 5.63242 4.68677 13.8096 12.7698 6.55964 25.7375
4230519 1.6087 5.63242 4.68677 13.8096 12.7698 6.55964 25.7375
4230529 1.65217 5.74451 4.71815 13.8189 12.7181 6.44357 25.9338
4230541 1.65217 5.74451 4.71815 13.8189 12.7181 6.44357 25.9338
4230549 1.6 5.76319 4.68677 13.7441 12.8135 6.43618 25.794
4230564 1.6 5.81923 4.68677 13.7534 12.8443 6.39282 25.8594
4230569 1.6 5.81923 4.68677 13.7534 12.8443 6.39282 25.8594
4230580 1.68696 5.86593 4.67631 13.7534 12.7548 6.2793 25.9826
4230590 1.63478 5.82857 4.65538 13.7441 12.8394 6.34276 25.8628
4230611 1.67826 5.81923 4.80185 13.6786 12.5277 6.3417 25.9779
4230620 1.67826 5.81923 4.80185 13.6786 12.5277 6.3417 25.9779
4230634 1.64348 5.87527 4.73908 13.6973 12.7046 6.30952 25.9551
4230640 1.73043 5.87527 4.78092 13.6599 12.5005 6.23985 26.0465
4230656 1.73043 5.87527 4.78092 13.6599 12.5005 6.23985 26.0465
4230661 1.72174 5.86593 4.71815 13.6412 12.5903 6.22711 25.947
4230671 1.74783 5.82857 4.69723 13.5289 12.5108 6.1911 25.8025
4230682 1.74783 5.82857 4.69723 13.5289 12.5108 6.1911 25.8025
4230691 1.75652 5.86593 4.81231 13.5476 12.3591 6.19889 25.9824
4230703 1.75652 5.86593 4.81231 13.5476 12.3591 6.19889 25.9824
4230712 1.73913 5.88462 4.76 13.5195 12.455 6.17053 25.9033
4230727 1.77391 5.86593 4.81231 13.5663 12.3432 6.19105 26.0185
4230731 1.77391 5.86593 4.81231 13.5663 12.3432 6.19105 26.0185
4230743 1.74783 5.79121 4.78092 13.6505 12.4304 6.29122 25.9705
4230754 1.8 5.78187 4.87508 13.7628 12.2709 6.32501 26.2197
4230763 1.8 5.78187 4.87508 13.7628 12.2709 6.32501 26.2197
4230773 1.77391 5.75385 4.86462 13.8096 12.332 6.38107 26.202
4230782 1.70435 5.67912 4.79138 13.847 12.5187 6.48777 26.0219
4230797 1.70435 5.67912 4.79138 13.847 12.5187 6.48777 26.0219
4230803 1.73913 5.62308 4.896 13.7815 12.2596 6.5181 26.0397
4230813 1.73913 5.62308 4.896 13.7815 12.2596 6.5181 26.0397
4230822 1.71304 5.6044 4.80185 13.7909 12.4279 6.52752 25.9101
4230833 1.69565 5.46429 4.80185 13.8564 12.4168 6.68034 25.8181
4230846 1.69565 5.46429 4.80185 13.8564 12.4168 6.68034 25.8181
4230852 1.64348 5.42692 4.86462 13.9218 12.4152 6.79669 25.8569
4230863 1.64348 5.42692 4.86462 13.9218 12.4152 6.79669 25.8569
4230873 1.6087 5.24945 4.90646 13.9967 12.3548 7.01343 25.7613
4230883 1.65217 5.31484 5.032 13.9873 12.1391 6.95692 25.9864
4230909 1.69565 5.23077 5.032 14.0435 12.0631 7.00856 26.0019
4230929 1.73043 5.20275 5.11569 13.9967 11.8574 7.01417 26.0456
4230931 1.73043 5.20275 5.11569 13.9967 11.8574 7.01417 26.0456
4230934 1.7913 5.22143 5.14708 13.978 11.7273 6.95105 26.1378
4230954 1.77391 5.1 5.18892 14.0528 11.6692 7.10369 26.1157
4230965 1.8 5.00659 5.24123 14.137 11.5548 7.20168 26.1849
4230974 1.8 5.00659 5.24123 14.137 11.5548 7.20168 26.1849
4230989 1.73913 4.96923 5.12615 14.0435 11.7353 7.22309 25.878
4230994 1.73043 4.87582 5.23077 14.1183 11.59 7.36428 25.9554
4231004 1.73043 4.87582 5.23077 14.1183 11.59 7.36428 25.9554
4231015 1.70435 4.81044 5.22031 14.1838 11.6417 7.45942 25.9189
4231025 1.66087 4.81044 5.25169 14.2025 11.6684 7.51166 25.9255
4231035 1.66087 4.81978 5.25169 14.2025 11.6732 7.50355 25.9349
4231045 1.71304 4.68901 5.31446 14.2212 11.4531 7.59529 25.9378
4231065 1.66957 4.64231 5.27262 14.2587 11.5686 7.67287 25.8432
4231075 1.68696 4.63297 5.26215 14.2867 11.5686 7.6708 25.8688
4231085 1.68696 4.63297 5.26215 14.2867 11.5686 7.6708 25.8688
4231095 1.72174 4.66099 5.27262 14.2493 11.4998 7.60821 25.9047
4231106 1.72174 4.66099 5.27262 14.2493 11.4998 7.60821 25.9047
4231115 1.71304 4.66099 5.27262 14.268 11.5218 7.62113 25.9147
4231130 1.73043 4.61429 5.33538 14.268 11.3847 7.66453 25.9481
4231145 1.76522 4.72637 5.25169 14.1932 11.4729 7.49135 25.9365
4231155 1.77391 4.83846 5.26215 14.1464 11.48 7.37647 26.0209
4231168 1.77391 4.83846 5.26215 14.1464 11.48 7.37647 26.0209
4231178 1.7913 4.81978 5.304 14.0061 11.3137 7.34862 25.9211
4231186 1.7913 4.81978 5.304 14.0061 11.3137 7.34862 25.9211
4231202 1.75652 4.89451 5.26215 14.0248 11.4703 7.30738 25.9379
4231206 1.73913 4.87582 5.26215 13.8657 11.4015 7.29111 25.7428
4231216 1.73913 4.87582 5.26215 13.8657 11.4015 7.29111 25.7428
4231226 1.86087 4.92253 5.29354 13.8376 11.1962 7.14721 25.9146
4231236 1.82609 4.93187 5.32492 13.8938 11.2357 7.19535 25.9767
4231249 1.82609 4.93187 5.32492 13.8938 11.2357 7.19535 25.9767
4231256 1.88696 5.02527 5.41908 13.847 11.0456 7.07867 26.1783
4231266 1.88696 5.02527 5.41908 13.847 11.0456 7.07867 26.1783
4231278 1.86087 4.98791 5.42954 13.8283 11.0372 7.12983 26.1066
4231286 1.89565 5.02527 5.44 13.8283 10.9949 7.07201 26.1892
4231297 1.89565 5.02527 5.44 13.8283 10.9949 7.07201 26.1892
4231306 1.93043 5.03462 5.47138 13.7628 10.874 7.02452 26.1992
4231322 1.88696 5.09066 5.39815 13.716 11.0395 6.97723 26.0918
4231326 1.88696 5.09066 5.39815 13.716 11.0395 6.97723 26.0918
4231336 1.92174 5.10934 5.44 13.5944 10.8784 6.90759 26.0655
4231356 1.92174 5.09066 5.41908 13.4821 10.836 6.88179 25.9136
4231369 1.97391 5.07198 5.45046 13.4073 10.6692 6.83988 25.9036
4231378 1.97391 5.07198 5.45046 13.4073 10.6692 6.83988 25.9036
4231393 2.0087 5.16538 5.51323 13.2669 10.5092 6.70762 25.9542
4231397 2.05217 5.17473 5.55508 13.2201 10.3719 6.66195 26.0021
4231417 2 5.25879 5.55508 13.0892 10.4166 6.59312 25.903
4231428 2 5.25879 5.55508 13.0892 10.4166 6.59312 25.903
4231440 2.06957 5.22143 5.56554 12.9675 10.2171 6.53 25.8241
4231449 2.12174 5.29615 5.69108 12.874 9.96549 6.43527 25.9829
4231469 2.11304 5.3522 5.68062 12.6962 9.92059 6.33361 25.8421
4231481 2.15652 5.3989 5.83754 12.6868 9.67385 6.30888 26.0798
4231490 2.15652 5.3989 5.83754 12.6868 9.67385 6.30888 26.0798
4231499 2.24348 5.42692 5.87938 12.5652 9.4479 6.18851 26.115
4231514 2.26957 5.46429 5.99446 12.3968 9.18375 6.11906 26.1251
4231519 2.26957 5.46429 5.99446 12.3968 9.18375 6.11906 26.1251
4231529 2.30435 5.6044 6.01538 12.3875 9.18998 5.98259 26.3116
4231539 2.30435 5.6044 6.01538 12.3875 9.18998 5.98259 26.3116
4231554 2.21739 5.61374 6.00492 12.1816 9.19859 5.97022 26.0177
4231563 2.33913 5.67912 6.04677 12.0226 8.92741 5.77923 26.0876
4231571 2.33913 5.67912 6.04677 12.0226 8.92741 5.77923 26.0876
4231585 2.4 5.79121 5.984 11.9384 8.94704 5.58971 26.1136
4231591 2.38261 5.79121 6.04677 11.798 8.80125 5.57542 26.0186
4231600 2.38261 5.79121 6.04677 11.798 8.80125 5.57542 26.0186
4231611 2.38261 5.82857 6.04677 11.6764 8.74862 5.50158 25.9343
4231632 2.41739 5.73516 6.13046 11.5641 8.4646 5.53757 25.8471
4231641 2.44348 5.6978 6.28738 11.508 8.16886 5.58327 25.9366
4231659 2.44348 5.6978 6.28738 11.508 8.16886 5.58327 25.9366
4231661 2.38261 5.68846 6.32923 11.4051 8.1201 5.61699 25.8054
4231671 2.42609 5.61374 6.61169 11.3302 7.60743 5.71675 25.9817
4231692 2.45217 5.63242 6.70585 11.2928 7.44462 5.70139 26.0832
4231704 2.45217 5.63242 6.70585 11.2928 7.44462 5.70139 26.0832
4231711 2.43478 5.51099 6.86277 11.1712 7.10613 5.82464 25.9797
4231727 2.46087 5.46429 7.05108 11.1244 6.77831 5.89084 26.1006
4231732 2.46087 5.46429 7.05108 11.1244 6.77831 5.89084 26.1006
4231742 2.48696 5.36154 7.13477 10.9653 6.46002 5.9261 25.9486
4231753 2.49565 5.27747 7.43815 10.8437 5.93683 6.04994 26.055
4231763 2.49565 5.27747 7.43815 10.8437 5.93683 6.04994 26.055
4231774 2.52174 5.24945 7.62646 10.7501 5.59453 6.08392 26.1478
4231783 2.52174 5.24945 7.62646 10.7501 5.59453 6.08392 26.1478
4231798 2.53043 5.10934 7.85662 10.5817 5.08474 6.21128 26.0781
4231803 2.53043 5.03462 8.06585 10.4414 4.67903 6.29529 26.0723
4231813 2.53043 5.03462 8.06585 10.4414 4.67903 6.29529 26.0723
4231822 2.5913 4.91319 8.31692 10.273 4.09852 6.37229 26.0944
4231832 2.55652 4.82912 8.51569 10.0297 3.65067 6.45545 25.9311
4231844 2.55652 4.82912 8.51569 10.0297 3.65067 6.45545 25.9311
4231852 2.64348 4.78242 8.86092 9.98294 3.10333 6.51964 26.2698
4231862 2.64348 4.78242 8.86092 9.98294 3.10333 6.51964 26.2698
4231872 2.62609 4.68901 9.112 9.82389 2.64258 6.6402 26.251
4231883 2.67826 4.64231 9.32123 9.62741 2.16054 6.63975 26.2692
4231903 2.71304 4.53022 9.52 9.46835 1.68264 6.71618 26.2316
4231916 2.72174 4.42747 9.77108 9.35608 1.22804 6.83767 26.2764
4231922 2.72174 4.42747 9.77108 9.35608 1.22804 6.83767 26.2764
4231933 2.8 4.33407 9.99077 9.18767 0.694507 6.86615 26.3125
4231942 2.8 4.33407 9.99077 9.18767 0.694507 6.86615 26.3125
4231952 2.8087 4.25934 10.3883 8.95377 0.0152469 6.97122 26.4101
4231964 2.86957 4.15659 10.6708 8.72922 -0.619194 7.02363 26.4262
4231972 2.86957 4.15659 10.6708 8.72922 -0.619194 7.02363 26.4262
4231988 2.91304 4.08187 10.9323 8.50468 -1.19061 7.06083 26.4319
4231993 2.90435 4.08187 11.4449 8.50468 -1.63604 7.21904 26.9358
4232002 2.90435 3.94176 11.4449 8.36434 -1.91629 7.29487 26.6554
4232013 2.93913 3.84835 11.5914 8.19593 -2.3389 7.33768 26.5748
4232024 2.93913 3.84835 11.5914 8.19593 -2.3389 7.33768 26.5748
4232038 2.9913 3.6989 11.9157 7.97138 -3.04462 7.44821 26.5773
4232044 3.08696 3.63352 12.24 7.74684 -3.69431 7.45097 26.7073
4232061 3.08696 3.63352 12.24 7.74684 -3.69431 7.45097 26.7073
4232064 3.07826 3.51209 12.4702 7.60649 -4.15292 7.58595 26.667
4232074 3.07826 3.51209 12.4702 7.60649 -4.15292 7.58595 26.667
4232085 3.11304 3.4467 12.6689 7.41937 -4.61187 7.61513 26.648
4232094 3.14783 3.33462 12.8677 7.23225 -5.12431 7.68413 26.5824
4232114 3.11304 3.31593 13.0769 7.09191 -5.43477 7.74868 26.5978
4232132 3.2087 3.24121 13.1711 6.96092 -5.81 7.72072 26.5819
4232135 3.2087 3.24121 13.1711 6.96092 -5.81 7.72072 26.5819
4232145 3.1913 3.22253 13.2966 6.73638 -6.17183 7.72446 26.4468
4232157 3.29565 3.18516 13.4117 6.59604 -6.53692 7.66005 26.4885
4232181 3.37391 3.18516 13.5686 6.47441 -6.84434 7.60313 26.6021
4232185 3.37391 3.18516 13.5686 6.47441 -6.84434 7.60313 26.6021
4232195 3.47826 3.12912 13.7046 6.3902 -7.17502 7.57659 26.7022
4232211 3.50435 3.13846 13.9243 6.27793 -7.46159 7.5765 26.845
4232215 3.50435 3.13846 13.9243 6.27793 -7.46159 7.5765 26.845
4232231 3.56522 3.12912 13.872 6.16566 -7.61488 7.48727 26.732
4232235 3.6087 3.13846 14.0185 6.04403 -7.87465 7.44993 26.8096
4232246 3.6087 3.13846 14.0185 6.04403 -7.87465 7.44993 26.8096
4232256 3.63478 3.06374 13.9766 5.93176 -8.09556 7.44724 26.6069
4232266 3.63478 3.06374 13.9766 5.93176 -8.09556 7.44724 26.6069
4232280 3.66087 2.98901 14.0185 5.89433 -8.27852 7.48959 26.5627
4232286 3.76522 3.00769 14.144 5.81948 -8.49221 7.40035 26.7364
4232303 3.76522 3.00769 14.144 5.81948 -8.49221 7.40035 26.7364
4232306 3.81739 3.01703 14.1335 5.6885 -8.67088 7.30833 26.6565
4232316 3.82609 2.97967 14.2277 5.66979 -8.80448 7.35401 26.7032
4232329 3.82609 2.97967 14.2277 5.66979 -8.80448 7.35401 26.7032
4232337 3.85217 2.98901 14.3637 5.66043 -8.90221 7.36058 26.8653
4232346 3.85217 2.98901 14.3637 5.66043 -8.90221 7.36058 26.8653
4232356 3.81739 2.91429 14.4265 5.56687 -9.13255 7.4434 26.725
4232366 3.89565 2.88626 14.4578 5.44524 -9.38916 7.37559 26.685
4232387 3.95652 2.87692 14.5625 5.42653 -9.52145 7.35702 26.8224
4232402 3.95652 2.8489 14.5938 5.34232 -9.68449 7.36535 26.7416
4232407 3.95652 2.8489 14.5938 5.34232 -9.68449 7.36535 26.7416
4232417 3.94783 2.83956 14.7298 5.32361 -9.79338 7.41374 26.8408
4232429 3.94783 2.83956 14.7298 5.32361 -9.79338 7.41374 26.8408
4232437 3.94783 2.77418 14.8763 5.31425 -9.97276 7.50684 26.9126
4232453 3.94783 2.72747 14.96 5.31425 -10.08 7.56912 26.9496
4232467 3.94783 2.64341 15.0123 5.26747 -10.2799 7.64125 26.871
4232477 4.0087 2.64341 15.0228 5.25812 -10.3311 7.59039 26.933
4232501 4.06087 2.68077 15.0228 5.22069 -10.3596 7.50515 26.9851
4232509 4.06087 2.68077 15.0228 5.22069 -10.3596 7.50515 26.9851
4232525 4.12174 2.60604 14.96 5.071 -10.6551 7.4573 26.7588
4232529 4.12174 2.63407 14.9391 5.06164 -10.619 7.42524 26.7565
4232549 4.09565 2.62473 14.7822 5.02422 -10.5826 7.3997 26.5267
4232559 4.13043 2.55934 14.824 4.94937 -10.8129 7.41612 26.4631
4232579 4.15652 2.54066 14.9182 4.9213 -10.9403 7.42875 26.5366
4232589 4.15652 2.54066 14.9182 4.9213 -10.9403 7.42875 26.5366
4232599 4.30435 2.53132 14.8868 4.84645 -11.1158 7.28157 26.5689
4232609 4.38261 2.5967 14.9077 4.88387 -11.0285 7.17884 26.7709
4232622 4.38261 2.5967 14.9077 4.88387 -11.0285 7.17884 26.7709
4232630 4.46087 2.54066 14.8135 4.83709 -11.1592 7.11899 26.6522
4232646 4.6 2.64341 14.7508 4.79031 -11.1231 6.88702 26.7845
4232650 4.6 2.64341 14.7508 4.79031 -11.1231 6.88702 26.7845
4232661 4.71304 2.5967 14.6775 4.70611 -11.3209 6.78477 26.6934
4232670 4.71304 2.5967 14.6775 4.70611 -11.3209 6.78477 26.6934
4232680 4.8087 2.65275 14.552 4.64062 -11.3185 6.60191 26.6541
4232695 4.88696 2.58736 14.3951 4.58448 -11.4446 6.52375 26.4539
4232710 5.01739 2.66209 14.3323 4.50963 -11.4794 6.31327 26.5214
4232720 5.02609 2.60604 14.144 4.50963 -11.4648 6.28943 26.2858
4232743 5.06087 2.65275 14.2068 4.45349 -11.5279 6.22585 26.3739
4232751 5.06087 2.65275 14.2068 4.45349 -11.5279 6.22585 26.3739
4232768 5.0087 2.62473 14.1649 4.41607 -11.5708 6.26425 26.2144
4232771 5.15652 2.60604 14.0498 4.39736 -11.6397 6.11488 26.2098
4232782 5.15652 2.60604 14.0498 4.39736 -11.6397 6.11488 26.2098
4232792 5.29565 2.68077 14.1022 4.40671 -11.62 5.96507 26.4853
4232802 5.27826 2.65275 14.0917 4.41607 -11.6317 6.00071 26.4388
4232829 5.44348 2.69011 13.9975 4.36929 -11.6806 5.79231 26.5004
4232849 5.4087 2.82088 14.008 4.37865 -11.4753 5.72418 26.6162
4232853 5.46957 2.78352 13.9452 4.43478 -11.4486 5.70358 26.6331
4232868 5.46957 2.78352 13.9452 4.43478 -11.4486 5.70358 26.6331
4232874 5.53043 2.83956 13.8511 4.37865 -11.4318 5.56005 26.5997
4232882 5.55652 2.83022 13.7674 4.39736 -11.3895 5.52399 26.5515
4232894 5.55652 2.83022 13.7674 4.39736 -11.3895 5.52399 26.5515
4232904 5.62609 2.92363 13.6105 4.31315 -11.3319 5.31133 26.4733
4232916 5.72174 2.86758 13.5791 4.25702 -11.5194 5.2488 26.4254
4232941 5.73043 2.93297 13.5058 4.29444 -11.3447 5.17892 26.4637
4232944 5.73043 2.93297 13.5058 4.29444 -11.3447 5.17892 26.4637
4232954 5.72174 2.94231 13.4745 4.29444 -11.3111 5.16676 26.4329
4232966 5.73043 2.94231 13.4012 4.32251 -11.239 5.14329 26.3965
4232975 5.73043 2.94231 13.4012 4.32251 -11.239 5.14329 26.3965
4232991 5.70435 2.97967 13.4012 4.27573 -11.2384 5.11719 26.361
4232995 5.6087 2.97967 13.3489 4.33187 -11.0834 5.19188 26.2692
4233016 5.66087 3.04505 13.3594 4.35058 -11.0015 5.11285 26.4159
4233041 5.72174 3.02637 13.3489 4.31315 -11.1047 5.0628 26.4102
4233046 5.81739 3.0544 13.2443 4.28509 -11.1001 4.91887 26.4012
4233056 5.81739 3.0544 13.2443 4.28509 -11.1001 4.91887 26.4012
4233068 5.7913 3.08242 13.192 4.29444 -11.0076 4.90099 26.3602
4233077 5.82609 3.12912 13.1397 4.29444 -10.9345 4.81952 26.3893
4233093 5.82609 3.12912 13.1397 4.29444 -10.9345 4.81952 26.3893
4233098 5.89565 3.1011 12.9723 4.23831 -10.9974 4.70127 26.2074
4233106 5.89565 3.1011 12.9723 4.23831 -10.9974 4.70127 26.2074
4233119 5.88696 3.07308 12.9618 4.21024 -11.0644 4.71377 26.1321
4233126 5.95652 3.1011 13.0246 4.22895 -11.0705 4.6725 26.3112
4233146 5.94783 3.13846 12.9409 4.21024 -10.9958 4.6107 26.2374
4233156 5.96522 3.19451 12.8258 4.24766 -10.8154 4.52505 26.2332
4233171 5.96522 3.19451 12.8258 4.24766 -10.8154 4.52505 26.2332
4233178 5.94783 3.18516 12.8468 4.28509 -10.779 4.5682 26.2648
4233197 5.92174 3.16648 12.8154 4.27573 -10.7861 4.58542 26.1793
4233207 5.89565 3.27857 12.8363 4.35993 -10.5169 4.56307 26.3705
4233221 5.89565 3.27857 12.8363 4.35993 -10.5169 4.56307 26.3705
4233229 5.89565 3.27857 12.8258 4.34122 -10.5364 4.55151 26.3413
4233245 5.93043 3.34396 12.784 4.40671 -10.3568 4.48685 26.4651
4233249 5.93043 3.34396 12.784 4.40671 -10.3568 4.48685 26.4651
4233259 5.88696 3.33462 12.8468 4.43478 -10.3425 4.56172 26.5031
4233269 5.89565 3.30659 12.7108 4.39736 -10.3595 4.50728 26.3104
4233280 5.89565 3.30659 12.7108 4.39736 -10.3595 4.50728 26.3104
4233296 5.83478 3.39066 12.784 4.44414 -10.1914 4.53778 26.4536
4233299 5.83478 3.39066 12.784 4.44414 -10.1914 4.53778 26.4536
4233309 5.8 3.3533 12.6585 4.48156 -10.101 4.55632 26.2933
4233321 5.7913 3.4 12.7108 4.46285 -10.0884 4.54144 26.3649
4233347 5.73913 3.47473 12.5852 4.5377 -9.78853 4.50458 26.3368
4233350 5.67826 3.42802 12.6375 4.54706 -9.83299 4.609 26.2909
4233360 5.67826 3.42802 12.6375 4.54706 -9.83299 4.609 26.2909
4233371 5.63478 3.41868 12.6585 4.65933 -9.68406 4.70076 26.3713
4233383 5.63478 3.41868 12.6585 4.65933 -9.68406 4.70076 26.3713
4233396 5.52174 3.41868 12.5748 4.69675 -9.51959 4.76754 26.2119
4233400 5.42609 3.42802 12.5957 4.73418 -9.41375 4.8555 26.184
4233411 5.42609 3.42802 12.5957 4.73418 -9.41375 4.8555 26.184
4233421 5.33913 3.46538 12.6271 4.86516 -9.1605 4.95559 26.2968
4233431 5.24348 3.50275 12.5957 5.01486 -8.84172 5.04481 26.3568
4233446 5.24348 3.50275 12.5957 5.01486 -8.84172 5.04481 26.3568
4233451 5.21739 3.54011 12.6062 5.14584 -8.61728 5.0894 26.5095
4233461 5.21739 3.54011 12.6062 5.14584 -8.61728 5.0894 26.5095
4233471 5.11304 3.49341 12.648 5.29554 -8.4483 5.2752 26.55
4233496 5.06957 3.54011 12.7108 5.44524 -8.2148 5.34995 26.7657
4233497 5.06957 3.54011 12.7108 5.44524 -8.2148 5.34995 26.7657
4233501 4.9913 3.48407 12.6585 5.5388 -8.08591 5.46734 26.6726
4233511 4.98261 3.53077 12.5225 5.69785 -7.73972 5.44647 26.7337
4233522 4.98261 3.53077 12.5225 5.69785 -7.73972 5.44647 26.7337
4233533 4.87826 3.55879 12.5748 5.81013 -7.53498 5.56327 26.8219
4233544 4.87826 3.55879 12.5748 5.81013 -7.53498 5.56327 26.8219
4233553 4.8 3.48407 12.4492 5.86626 -7.4239 5.65691 26.5996
4233569 4.74783 3.51209 12.3342 5.87562 -7.26706 5.63844 26.4697
4233583 4.72174 3.52143 12.2818 5.90369 -7.16879 5.64294 26.4287
4233596 4.6 3.46538 12.3237 5.94111 -7.13743 5.81049 26.3302
4233619 4.6 3.48407 12.24 5.99725 -6.98929 5.7861 26.3213
4233624 4.51304 3.41868 12.0935 5.99725 -6.90811 5.85593 26.0225
4233634 4.51304 3.41868 12.0935 5.99725 -6.90811 5.85593 26.0225
4233645 4.47826 3.48407 12.0622 6.17501 -6.56629 5.88266 26.1995
4233654 4.47826 3.48407 12.0622 6.17501 -6.56629 5.88266 26.1995
4233670 4.42609 3.50275 11.9994 6.34342 -6.26084 5.94594 26.2716
4233674 4.32174 3.47473 11.9785 6.46505 -6.05986 6.08635 26.24
4233684 4.32174 3.47473 11.9785 6.46505 -6.05986 6.08635 26.24
4233698 4.30435 3.49341 11.8529 6.56797 -5.81256 6.07762 26.2186
4233705 4.30435 3.49341 11.8529 6.56797 -5.81256 6.07762 26.2186
4233714 4.27826 3.47473 11.7274 6.76445 -5.49296 6.1377 26.2448
4233724 4.1913 3.53077 11.7169 6.99835 -5.08666 6.23731 26.4373
4233734 4.1913 3.53077 11.7169 6.99835 -5.08666 6.23731 26.4373
4233750 4.14783 3.55879 11.5286 7.13869 -4.71959 6.23382 26.3739
4233754 4.06087 3.56813 11.4658 7.29774 -4.41491 6.32825 26.3926
4233776 4.01739 3.63352 11.3194 7.36324 -4.12024 6.28384 26.3335
4233784 4.01739 3.63352 11.3194 7.36324 -4.12024 6.28384 26.3335
4233794 3.98261 3.68022 11.152 7.3913 -3.87608 6.22782 26.2061
4233805 3.88696 3.7456 10.9637 7.51293 -3.43951 6.23003 26.1092
4233814 3.88696 3.7456 10.9637 7.51293 -3.43951 6.23003 26.1092
4233827 3.84348 3.76429 10.7858 7.61585 -3.12308 6.225 26.0095
4233835 3.66957 3.81099 10.5138 7.84975 -2.44027 6.31654 25.8442
4233845 3.66957 3.81099 10.5138 7.84975 -2.44027 6.31654 25.8442
4233855 3.64348 3.86703 10.2105 8.14915 -1.77595 6.29052 25.8701
4233879 3.53913 3.94176 9.86523 8.61695 -0.814283 6.35593 25.9631
4233885 3.46957 4.06319 9.68738 9.00991 -0.0799239 6.38459 26.23
4233896 3.46957 4.06319 9.68738 9.00991 -0.0799239 6.38459 26.23
4233908 3.35652 4.05385 9.53046 9.29994 0.444734 6.52803 26.2408
4233918 3.29565 4.10989 9.248 9.56192 1.07585 6.52537 26.2155
4233930 3.29565 4.10989 9.248 9.56192 1.07585 6.52537 26.2155
4233936 3.15652 4.22198 9.04923 9.85195 1.77721 6.57695 26.2797
4233946 3.06087 4.25 8.80862 10.1046 2.36909 6.63645 26.2241
4233968 2.97391 4.2967 8.53662 10.3478 2.9956 6.66056 26.1551
4233986 2.90435 4.30604 8.28554 10.5256 3.49879 6.6872 26.0215
4233996 2.82609 4.32473 8.11815 10.8531 4.05169 6.7876 26.122
4234018 2.73913 4.41813 7.99262 11.0776 4.54103 6.81325 26.2275
4234030 2.73913 4.41813 7.99262 11.0776 4.54103 6.81325 26.2275
4234036 2.64348 4.39011 7.78338 11.3396 5.06835 6.93289 26.1565
4234046 2.54783 4.43681 7.60554 11.667 5.66557 7.01975 26.2572
4234057 2.54783 4.43681 7.60554 11.667 5.66557 7.01975 26.2572
4234067 2.46087 4.41813 7.29169 11.8635 6.26971 7.07312 26.0342
4234081 2.34783 4.52088 7.12431 12.1068 6.854 7.10487 26.0998
4234088 2.34783 4.52088 7.12431 12.1068 6.854 7.10487 26.0998
4234097 2.34783 4.52088 6.94646 12.3313 7.22651 7.11897 26.1465
4234113 2.34783 4.52088 6.94646 12.3313 7.22651 7.11897 26.1465
4234121 2.21739 4.51154 6.75815 12.5465 7.76161 7.24587 26.0336
4234131 2.18261 4.53956 6.55938 12.7617 8.21639 7.25653 26.0432
4234138 2.18261 4.53956 6.55938 12.7617 8.21639 7.25653 26.0432
4234148 2.14783 4.56758 6.44431 13.0611 8.61581 7.3167 26.2208
4234158 2.08696 4.52088 6.36062 13.3043 8.92335 7.45474 26.2728
4234184 2.01739 4.53956 6.21415 13.5663 9.37291 7.53122 26.3374
4234188 2.01739 4.53956 6.21415 13.5663 9.37291 7.53122 26.3374
4234198 1.93043 4.39011 6.05723 13.6412 9.65029 7.71238 26.0189
4234208 1.85217 4.46484 5.97354 13.8751 10.0458 7.75728 26.1656
4234217 1.85217 4.46484 5.97354 13.8751 10.0458 7.75728 26.1656
4234234 1.74783 4.43681 6.01538 13.9873 10.1776 7.91494 26.1874
4234239 1.69565 4.38077 5.90031 14.0996 10.4352 8.00927 26.0763
4234249 1.69565 4.38077 5.90031 14.0996 10.4352 8.00927 26.0763
4234261 1.66957 4.31538 5.92123 14.2961 10.515 8.1476 26.2023
4234268 1.66957 4.31538 5.92123 14.2961 10.515 8.1476 26.2023
4234277 1.6087 4.24066 5.93169 14.3242 10.5577 8.27794 26.1052
4234288 1.58261 4.31538 5.85846 14.4177 10.7855 8.23991 26.1742
4234311 1.53043 4.2967 5.85846 14.399 10.8367 8.29819 26.0846
4234319 1.55652 4.35275 5.848 14.3242 10.805 8.2029 26.0814
4234329 1.55652 4.35275 5.848 14.3242 10.805 8.2029 26.0814
4234339 1.5913 4.31538 5.85846 14.4832 10.8091 8.24908 26.2484
4234350 1.5913 4.31538 5.85846 14.4832 10.8091 8.24908 26.2484
4234364 1.48696 4.31538 5.79569 14.5955 11.0984 8.35445 26.1935
4234369 1.47826 4.42747 5.62831 14.6984 11.4546 8.24607 26.2324
4234379 1.47826 4.42747 5.62831 14.6984 11.4546 8.24607 26.2324
4234389 1.48696 4.48352 5.49231 14.7265 11.6753 8.16078 26.1893
4234399 1.49565 4.46484 5.47138 14.82 11.7304 8.18851 26.2519
4234414 1.49565 4.46484 5.47138 14.82 11.7304 8.18851 26.2519
4234419 1.47826 4.45549 5.35631 14.8575 11.9308 8.19199 26.1475
4234430 1.47826 4.45549 5.35631 14.8575 11.9308 8.19199 26.1475
4234441 1.46087 4.53956 5.28308 14.8481 12.0962 8.1113 26.1316
4234451 1.42609 4.5489 5.26215 14.951 12.2304 8.15532 26.1882
4234470 1.4087 4.5489 5.15754 14.9978 12.4272 8.15558 26.1129
4234480 1.42609 4.5489 5.10523 14.9978 12.4773 8.12641 26.078
4234492 1.42609 4.5489 5.10523 14.9978 12.4773 8.12641 26.078
4234500 1.38261 4.52088 5.02154 15.0165 12.6566 8.17293 25.9415
4234519 1.38261 4.52088 4.96923 15.0165 12.7327 8.15914 25.8892
4234521 1.34783 4.42747 4.96923 14.9697 12.7168 8.26214 25.7143
4234531 1.32174 4.42747 5.00062 15.0165 12.7314 8.30614 25.7663
4234557 1.31304 4.47418 4.90646 15.0914 12.9397 8.26677 25.785
4234561 1.29565 4.47418 4.99015 15.1381 12.8644 8.31632 25.8981
4234572 1.29565 4.47418 4.99015 15.1381 12.8644 8.31632 25.8981
4234581 1.31304 4.51154 4.99015 15.1194 12.8477 8.26227 25.9342
4234596 1.31304 4.51154 4.99015 15.1194 12.8477 8.26227 25.9342
4234601 1.25217 4.46484 5.00062 15.1007 12.8908 8.35704 25.8183
4234611 1.31304 4.53022 5.07385 15.1194 12.7348 8.26723 26.0365
4234631 1.30435 4.53022 5.00062 15.082 12.8363 8.24629 25.9172
4234650 1.4087 4.58626 5.07385 14.9978 12.5654 8.10041 26.0666
4234654 1.4087 4.58626 5.07385 14.9978 12.5654 8.10041 26.0666
4234662 1.37391 4.67033 5.05292 14.9229 12.6503 8.03127 26.0201
4234682 1.44348 4.64231 4.99015 14.8575 12.5959 7.95991 25.9334
4234692 1.46957 4.79176 4.90646 14.7639 12.7061 7.75636 25.9317
4234704 1.46957 4.79176 4.90646 14.7639 12.7061 7.75636 25.9317
4234714 1.46087 4.8011 4.91692 14.6516 12.6545 7.72724 25.8305
4234729 1.46087 4.88516 4.99015 14.5206 12.5255 7.63711 25.8568
4234755 1.53043 4.97857 4.83323 14.5019 12.6884 7.44432 25.8442
4234759 1.56522 4.95055 4.96923 14.5113 12.432 7.48073 25.9963
4234768 1.56522 4.95055 4.96923 14.5113 12.432 7.48073 25.9963
4234780 1.57391 4.93187 4.96923 14.4271 12.3695 7.46496 25.9021
4234795 1.65217 4.97857 5.04246 14.3522 12.1383 7.35662 26.0254
4234806 1.65217 4.94121 5.10523 14.3242 12.0164 7.39891 26.0228
4234815 1.65217 4.94121 5.10523 14.3242 12.0164 7.39891 26.0228
4234830 1.72174 4.95989 5.02154 14.2493 12.0084 7.27631 25.9525
4234835 1.71304 4.99725 5.12615 14.2493 11.8909 7.28281 26.0858
4234845 1.71304 4.99725 5.12615 14.2493 11.8909 7.28281 26.0858
4234856 1.75652 4.98791 5.13662 14.2961 11.8337 7.27062 26.1771
4234865 1.75652 4.98791 5.13662 14.2961 11.8337 7.27062 26.1771
4234881 1.72174 4.95989 5.18892 14.3148 11.8043 7.345 26.1854
4234885 1.71304 4.95989 5.22031 14.3522 11.7913 7.37247 26.2455
4234908 1.73043 4.97857 5.11569 14.268 11.8812 7.28635 26.0927
4234915 1.70435 4.89451 5.11569 14.3709 11.9275 7.41089 26.0855
4234936 1.71304 4.86648 5.11569 14.399 11.9152 7.43565 26.0942
4234946 1.71304 4.86648 5.11569 14.399 11.9152 7.43565 26.0942
4234958 1.63478 4.8011 5.07385 14.4458 12.0767 7.56126 25.9555
4234967 1.61739 4.79176 5.13662 14.53 12.0493 7.62631 26.0758
4234984 1.61739 4.79176 5.13662 14.53 12.0493 7.62631 26.0758
4234986 1.63478 4.74505 5.04246 14.5955 12.1679 7.64368 26.0178
4234996 1.53913 4.65165 5.12615 14.6797 12.1805 7.85587 25.9966
4235016 1.53913 4.65165 5.11569 14.792 12.2505 7.88374 26.0984
4235026 1.53913 4.65165 5.11569 14.792 12.2505 7.88374 26.0984
4235038 1.46087 4.58626 5.08431 14.8855 12.4213 8.02709 26.017
4235046 1.4087 4.5489 5.05292 14.8387 12.5013 8.08576 25.8493
4235066 1.43478 4.58626 5.05292 14.8575 12.4907 8.03427 25.9314
4235076 1.43478 4.49286 5.02154 14.9323 12.5271 8.12909 25.8815
4235092 1.43478 4.49286 5.02154 14.9323 12.5271 8.12909 25.8815
4235101 1.43478 4.5956 5.09477 15.0072 12.5067 8.07709 26.1323
4235121 1.37391 4.53956 5.07385 15.0072 12.5978 8.17531 25.9945
4235127 1.43478 4.53956 5.10523 15.0072 12.4649 8.12945 26.0867
4235147 1.44348 4.53022 5.05292 15.082 12.5589 8.13595 26.1086
4235158 1.36522 4.58626 5.12615 14.9978 12.5527 8.15277 26.0754
4235173 1.36522 4.58626 5.12615 14.9978 12.5527 8.15277 26.0754
4235179 1.33913 4.62363 5.09477 14.9791 12.6445 8.12957 26.0366
4235189 1.33913 4.62363 5.09477 14.9791 12.6445 8.12957 26.0366
4235201 1.33913 4.51154 5.07385 15.0165 12.6393 8.23388 25.941
4235209 1.34783 4.56758 5.09477 15.0539 12.6409 8.19132 26.0641
4235226 1.34783 4.56758 5.09477 15.0539 12.6409 8.19132 26.0641
4235229 1.36522 4.51154 5.09477 15.0726 12.598 8.23063 26.0442
4235239 1.33043 4.51154 5.10523 15.0914 12.642 8.26925 26.0386
4235252 1.33043 4.51154 5.10523 15.0914 12.642 8.26925 26.0386
4235259 1.34783 4.57692 5.11569 15.1194 12.6461 8.20553 26.1599
4235278 1.34783 4.57692 5.11569 15.1194 12.6461 8.20553 26.1599
4235279 1.28696 4.45549 5.15754 15.2223 12.6648 8.40513 26.1223
4235289 1.32174 4.42747 5.18892 15.213 12.5519 8.40463 26.1511
4235304 1.32174 4.42747 5.18892 15.213 12.5519 8.40463 26.1511
4235310 1.34783 4.46484 5.14708 15.1756 12.5745 8.32781 26.1353
4235320 1.33043 4.44615 5.13662 15.1194 12.579 8.34306 26.0326
4235340 1.29565 4.45549 5.20985 15.2504 12.5903 8.41758 26.2114
4235356 1.32174 4.45549 5.15754 15.344 12.672 8.40467 26.2787
4235360 1.32174 4.5022 5.15754 15.344 12.6939 8.36315 26.3254
4235371 1.33043 4.55824 5.15754 15.3627 12.7163 8.31058 26.4089
4235383 1.33043 4.55824 5.15754 15.3627 12.7163 8.31058 26.4089
4235391 1.29565 4.57692 5.07385 15.2878 12.8603 8.28446 26.2343
4235411 1.27826 4.56758 5.04246 15.1849 12.8789 8.27374 26.0732
4235421 1.31304 4.5956 4.96923 15.1007 12.9087 8.17671 25.9786
4235436 1.31304 4.5956 4.96923 15.1007 12.9087 8.17671 25.9786
4235441 1.28696 4.5956 4.96923 15.0446 12.9207 8.18527 25.8964
4235451 1.30435 4.58626 4.90646 14.951 12.9393 8.13664 25.7481
4235462 1.30435 4.58626 4.90646 14.951 12.9393 8.13664 25.7481
4235471 1.26957 4.58626 4.93785 14.8481 12.8959 8.14888 25.6418
4235487 1.28696 4.5022 4.97969 14.82 12.7551 8.21289 25.5889
4235492 1.28696 4.5022 4.97969 14.82 12.7551 8.21289 25.5889
4235501 1.36522 4.56758 4.91692 14.82 12.7635 8.06639 25.6698
4235512 1.36522 4.56758 4.91692 14.82 12.7635 8.06639 25.6698
4235521 1.37391 4.55824 5.04246 14.7639 12.5355 8.08567 25.7385
4235538 1.43478 4.5022 5.032 14.7733 12.4393 8.08104 25.7422
4235551 1.43478 4.57692 5.17846 14.6423 12.1997 8.01842 25.8324
4235565 1.53043 4.57692 5.24123 14.5206 11.9117 7.91743 25.8692
4235571 1.53043 4.57692 5.24123 14.5206 11.9117 7.91743 25.8692
4235581 1.58261 4.5956 5.35631 14.3803 11.6121 7.84786 25.9148
4235593 1.58261 4.5956 5.35631 14.3803 11.6121 7.84786 25.9148
4235603 1.55652 4.55824 5.40862 14.2306 11.4776 7.8771 25.754
4235618 1.73913 4.5489 5.65969 14.1183 10.8076 7.76296 26.0661
4235633 1.76522 4.5489 5.73292 13.9031 10.5528 7.70049 25.9502
4235644 1.82609 4.48352 5.96308 13.7067 10.0089 7.7139 25.9793
4235654 1.82609 4.48352 5.96308 13.7067 10.0089 7.7139 25.9793
4235671 1.89565 4.47418 6.18277 13.557 9.52976 7.68104 26.1096
4235674 1.92174 4.49286 6.38154 13.295 9.08793 7.62439 26.0911
4235698 2.02609 4.39945 6.60123 13.0517 8.45895 7.60824 26.0785
4235714 2.03478 4.39945 6.83138 12.8553 8.02858 7.61024 26.1209
4235724 2.13043 4.26868 7.10338 12.6494 7.34581 7.6593 26.1519
4235734 2.13043 4.26868 7.10338 12.6494 7.34581 7.6593 26.1519
4235750 2.2 4.27802 7.29169 12.3968 6.86291 7.57293 26.1665
4235754 2.25217 4.2033 7.56369 12.1723 6.2613 7.60582 26.1914
4235764 2.25217 4.2033 7.56369 12.1723 6.2613 7.60582 26.1914
4235776 2.34783 4.17527 7.79385 11.9758 5.71392 7.55714 26.2927
4235784 2.34783 4.17527 7.79385 11.9758 5.71392 7.55714 26.2927
4235803 2.36522 4.03516 7.98215 11.6203 5.10334 7.61574 26.0028
4235804 2.3913 4.05385 8.35877 11.4425 4.52087 7.63311 26.2464
4235814 2.3913 4.05385 8.35877 11.4425 4.52087 7.63311 26.2464
4235830 2.52174 3.9511 8.54708 11.1244 3.8313 7.57256 26.1443
4235834 2.52174 3.9511 8.54708 11.1244 3.8313 7.57256 26.1443
4235844 2.53913 3.87637 8.84 10.8905 3.23924 7.63883 26.146
4235856 2.6 3.82033 9.17477 10.6098 2.53327 7.64985 26.2049
4235864 2.6 3.82033 9.17477 10.6098 2.53327 7.64985 26.2049
4235883 2.70435 3.72692 9.44677 10.3198 1.8089 7.63533 26.1978
4235884 2.72174 3.73626 9.75015 10.0204 1.22456 7.61338 26.2285
4235894 2.72174 3.73626 9.75015 10.0204 1.22456 7.61338 26.2285
4235909 2.76522 3.57747 10.1268 9.72097 0.387979 7.73472 26.1904
4235915 2.76522 3.57747 10.1268 9.72097 0.387979 7.73472 26.1904
4235925 2.84348 3.52143 10.4406 9.49642 -0.253063 7.74019 26.3019
4235935 2.87826 3.4467 10.7649 9.31866 -0.831005 7.81487 26.4085
4235945 2.87826 3.4467 10.7649 9.31866 -0.831005 7.81487 26.4085
4235961 2.97391 3.40934 11.0788 9.04733 -1.50514 7.77622 26.5094
4235965 3.0087 3.29725 11.3508 8.79472 -2.14307 7.84808 26.4514
4235975 3.0087 3.29725 11.3508 8.79472 -2.14307 7.84808 26.4514
4235988 3.08696 3.25055 11.6228 8.59824 -2.69305 7.84127 26.5585
4235996 3.08696 3.25055 11.6228 8.59824 -2.69305 7.84127 26.5585
4236014 3.09565 3.1478 11.8215 8.3082 -3.28097 7.89795 26.3732
4236018 3.16522 3.07308 12.1458 8.21464 -3.78151 7.96401 26.5988
4236026 3.16522 3.07308 12.1458 8.21464 -3.78151 7.96401 26.5988
4236039 3.22609 3.00769 12.3446 7.90589 -4.39612 7.9387 26.4843
4236052 3.24348 2.93297 12.6062 7.70941 -4.91399 8.00569 26.492
4236056 3.24348 2.93297 12.6062 7.70941 -4.91399 8.00569 26.492
4236066 3.29565 2.91429 12.7945 7.55036 -5.2961 7.98438 26.5548
4236076 3.31304 2.91429 12.9723 7.55036 -5.43992 8.01608 26.75
4236094 3.31304 2.8956 12.9723 7.38195 -5.65431 7.98799 26.5629
4236096 3.41739 2.85824 13.0874 7.17611 -6.09517 7.90598 26.5391
4236106 3.41739 2.85824 13.0874 7.17611 -6.09517 7.90598 26.5391
4236121 3.41739 2.83022 13.2966 7.01706 -6.4631 7.94355 26.5613
4236127 3.52174 2.77418 13.4222 6.87672 -6.85566 7.89795 26.5948
4236148 3.65217 2.8022 13.5582 6.7738 -7.12521 7.77127 26.7863
4236157 3.71304 2.69011 13.7569 6.51183 -7.74975 7.79787 26.6719
4236177 3.71304 2.69011 13.7569 6.51183 -7.74975 7.79787 26.6719
4236179 3.8 2.76484 13.7988 6.39956 -7.87872 7.64119 26.7632
4236189 3.8 2.76484 13.7988 6.39956 -7.87872 7.64119 26.7632
4236204 3.92174 2.65275 13.9243 6.11888 -8.52293 7.59009 26.6177
4236209 4.03478 2.69011 13.9662 6.01596 -8.70078 7.44592 26.707
4236230 4.13043 2.66209 13.9766 5.87562 -8.97864 7.35213 26.6448
4236239 4.17391 2.68077 14.008 5.73528 -9.17915 7.26856 26.598
4236257 4.17391 2.68077 14.008 5.73528 -9.17915 7.26856 26.598
4236259 4.2 2.69011 14.0917 5.65107 -9.34044 7.23879 26.6329
4236269 4.2 2.69011 14.0917 5.65107 -9.34044 7.23879 26.6329
4236283 4.25217 2.68077 14.1126 5.52944 -9.55275 7.17354 26.575
4236289 4.32174 2.57802 14.1963 5.44524 -9.88533 7.20111 26.5413
4236299 4.32174 2.57802 14.1963 5.44524 -9.88533 7.20111 26.5413
4236312 4.33913 2.61538 14.2382 5.3049 -10.0547 7.12624 26.4976
4236319 4.33913 2.61538 14.2382 5.3049 -10.0547 7.12624 26.4976
4236338 4.38261 2.57802 14.2382 5.28619 -10.1535 7.11557 26.485
4236340 4.4087 2.61538 14.3428 5.27683 -10.1893 7.09109 26.6437
4236349 4.4087 2.61538 14.3428 5.27683 -10.1893 7.09109 26.6437
4236364 4.36522 2.5967 14.3428 5.24876 -10.227 7.13445 26.5535
4236369 4.3913 2.66209 14.4265 5.23005 -10.2262 7.07778 26.7099
4236391 4.43478 2.60604 14.4369 5.20198 -10.3671 7.08295 26.6797
4236399 4.43478 2.60604 14.4369 5.20198 -10.3671 7.08295 26.6797
4236419 4.34783 2.55 14.4788 5.21134 -10.4044 7.21697 26.5879
4236420 4.4087 2.5967 14.5311 5.16456 -10.4664 7.12907 26.701
4236448 4.4 2.57802 14.5415 5.17391 -10.4797 7.15761 26.6935
4236451 4.4087 2.5967 14.4578 5.18327 -10.4015 7.11296 26.6465
4236460 4.4087 2.5967 14.4578 5.18327 -10.4015 7.11296 26.6465
4236476 4.46957 2.63407 14.3846 5.16456 -10.37 7.00426 26.6528
4236480 4.48696 2.63407 14.2695 5.12713 -10.366 6.94385 26.5177
4236490 4.48696 2.67143 14.2695 5.12713 -10.3162 6.91297 26.5551
4236504 4.56522 2.8022 14.2068 5.11778 -10.1641 6.71951 26.692
4236510 4.56522 2.8022 14.2068 5.11778 -10.1641 6.71951 26.692
4236520 4.6087 2.78352 14.1022 5.06164 -10.229 6.64911 26.556
4236531 4.62609 2.8022 14.144 5.01486 -10.2992 6.61818 26.5871
4236540 4.62609 2.8022 14.144 5.01486 -10.2992 6.61818 26.5871
4236557 4.66957 2.77418 14.1022 4.95872 -10.4122 6.57459 26.5046
4236560 4.66957 2.77418 14.1022 4.95872 -10.4122 6.57459 26.5046
4236570 4.70435 2.77418 14.0812 4.96808 -10.4073 6.54263 26.5278
4236585 4.71304 2.79286 14.144 4.97744 -10.4092 6.54339 26.6273
4236590 4.71304 2.79286 14.144 4.97744 -10.4092 6.54339 26.6273
4236600 4.76522 2.82088 14.0812 4.89323 -10.4783 6.43155 26.5606
4236611 4.78261 2.76484 14.0812 5.0055 -10.4128 6.49877 26.6342
4236620 4.78261 2.76484 14.0812 5.0055 -10.4128 6.49877 26.6342
4236638 4.83478 2.79286 14.0498 4.97744 -10.4243 6.41512 26.6549
4236640 4.83478 2.79286 14.0498 4.97744 -10.4243 6.41512 26.6549
4236653 4.7913 2.71813 14.0708 4.94937 -10.5491 6.50823 26.5296
4236665 4.81739 2.82088 14.1022 4.93066 -10.4683 6.40837 26.6711
4236671 4.81739 2.82088 14.1022 4.93066 -10.4683 6.40837 26.6711
4236695 4.86087 2.82088 13.9975 4.93066 -10.4349 6.33961 26.6099
4236696 4.88696 2.8022 14.0289 4.85581 -10.5911 6.3195 26.5739
4236701 4.88696 2.8022 14.0289 4.85581 -10.5911 6.3195 26.5739
4236711 4.90435 2.81154 13.9975 4.90259 -10.5085 6.30311 26.616
4236731 4.90435 2.78352 13.9557 4.83709 -10.611 6.2904 26.4807
4236750 4.97391 2.8489 13.8929 4.87452 -10.477 6.17404 26.5903
4236753 4.97391 2.8489 13.8929 4.87452 -10.477 6.17404 26.5903
4236762 5.02609 2.82088 13.9243 4.82774 -10.6224 6.14971 26.599
4236777 4.98261 2.86758 13.9662 4.84645 -10.5341 6.16725 26.6628
4236784 4.98261 2.86758 13.9662 4.84645 -10.5341 6.16725 26.6628
4236792 4.93913 2.87692 13.8825 4.84645 -10.4523 6.16663 26.545
4236806 4.93913 2.87692 13.8825 4.84645 -10.4523 6.16663 26.545
4236812 4.95652 2.82088 13.9557 4.84645 -10.5766 6.22175 26.5795
4236832 5 2.83022 13.9766 4.81838 -10.6365 6.17729 26.6252
4236833 5 2.83022 13.9766 4.81838 -10.6365 6.17729 26.6252
4236842 4.98261 2.8022 13.9662 4.80903 -10.6716 6.20692 26.56
4236860 5.0087 2.82088 13.9662 4.7716 -10.7109 6.15879 26.5673
4236864 5.0087 2.82088 13.9662 4.7716 -10.7109 6.15879 26.5673
4236872 5.04348 2.76484 13.8929 4.74353 -10.8037 6.14194 26.4448
4236888 5.04348 2.76484 13.8929 4.74353 -10.8037 6.14194 26.4448
4236892 5.02609 2.78352 13.8197 4.74353 -10.7295 6.11631 26.3728
4236903 5.06957 2.76484 13.872 4.78096 -10.7559 6.12663 26.4874
4236916 5.06957 2.76484 13.872 4.78096 -10.7559 6.12663 26.4874
4236923 5.05217 2.83956 13.8092 4.74353 -10.6622 6.04721 26.4445
4236932 4.9913 2.77418 13.8092 4.7716 -10.6796 6.15761 26.3463
4236943 4.9913 2.77418 13.8092 4.7716 -10.6796 6.15761 26.3463
4236953 5.08696 2.85824 13.8197 4.79967 -10.5862 6.0273 26.5646
4236973 5.06957 2.82088 13.7465 4.75289 -10.6502 6.03012 26.3898
4236983 5.08696 2.83022 13.7674 4.7716 -10.6332 6.02231 26.4562
4236998 5.08696 2.83022 13.7674 4.7716 -10.6332 6.02231 26.4562
4237003 5.12174 2.88626 13.8092 4.74353 -10.6371 5.95508 26.5608
4237014 5.10435 2.82088 13.8302 4.75289 -10.7143 6.03084 26.5083
4237024 5.10435 2.82088 13.8302 4.75289 -10.7143 6.03084 26.5083
4237034 5.11304 2.88626 13.872 4.83709 -10.5413 6.01484 26.7084
4237053 5.11304 2.88626 13.872 4.83709 -10.5413 6.01484 26.7084
4237054 5.15652 2.83956 13.7883 4.78096 -10.657 5.9701 26.5653
4237063 5.11304 2.86758 13.7988 4.75289 -10.6392 5.97632 26.5323
4237082 5.11304 2.86758 13.7988 4.75289 -10.6392 5.97632 26.5323
4237084 5.16522 2.91429 13.7255 4.75289 -10.5652 5.87334 26.5579
4237094 5.13043 2.87692 13.7151 4.79031 -10.5405 5.93942 26.5127
4237110 5.13043 2.87692 13.7151 4.79031 -10.5405 5.93942 26.5127
4237114 5.13913 2.86758 13.7046 4.78096 -10.5646 5.93316 26.4923
4237124 5.13913 2.86758 13.7046 4.78096 -10.5646 5.93316 26.4923
4237138 5.10435 2.83022 13.6105 4.82774 -10.4813 5.97413 26.3728
4237144 5.16522 2.83022 13.5268 4.79967 -10.5066 5.88731 26.3219
4237154 5.16522 2.83022 13.5268 4.79967 -10.5066 5.88731 26.3219
4237165 5.09565 2.93297 13.5477 4.80903 -10.329 5.8715 26.3853
4237175 5.09565 2.93297 13.5268 4.80903 -10.3173 5.86426 26.3644
4237191 5.14783 2.87692 13.5268 4.90259 -10.2962 5.89962 26.4541
4237194 5.10435 2.85824 13.5686 4.91194 -10.3078 5.96637 26.4431
4237204 5.10435 2.85824 13.5686 4.91194 -10.3078 5.96637 26.4431
4237219 5.10435 2.91429 13.6314 4.96808 -10.1936 5.96258 26.6181
4237224 5.13043 2.86758 13.6628 4.98679 -10.2625 5.99579 26.6476
4237234 5.13043 2.86758 13.6628 4.98679 -10.2625 5.99579 26.6476
4237245 5.13043 2.8489 13.6 4.97744 -10.2649 5.9861 26.5568
4237254 5.13043 2.8489 13.6 4.97744 -10.2649 5.9861 26.5568
4237273 5.10435 2.81154 13.5895 4.93066 -10.3568 6.01695 26.4361
4237275 5.14783 2.88626 13.6418 5.03357 -10.1741 5.97615 26.7095
4237285 5.14783 2.88626 13.6418 5.03357 -10.1741 5.97615 26.7095
4237303 5.14783 2.91429 13.5372 4.97744 -10.153 5.89945 26.5768
4237305 5.12174 2.83956 13.464 4.99615 -10.1717 5.96041 26.4214
4237315 5.12174 2.83956 13.464 4.99615 -10.1717 5.96041 26.4214
4237331 5.2 2.83956 13.4222 5.05228 -10.1176 5.90342 26.514
4237335 5.2 2.83956 13.4222 5.05228 -10.1176 5.90342 26.514
4237345 5.08696 2.91429 13.4117 5.03357 -9.97371 5.92367 26.4465
4237356 5.1913 2.83956 13.3803 5.08971 -10.0396 5.90876 26.5009
4237366 5.1913 2.83956 13.3803 5.08971 -10.0396 5.90876 26.5009
4237384 5.10435 2.92363 13.3385 5.16456 -9.7571 5.92234 26.531
4237387 5.10435 2.90495 13.3175 5.23005 -9.68383 5.9523 26.5569
4237396 5.10435 2.90495 13.3175 5.23005 -9.68383 5.9523 26.5569
4237410 5.05217 2.97033 13.2966 5.23941 -9.54407 5.93793 26.5585
4237416 5 2.97033 13.3803 5.28619 -9.50169 6.02333 26.6368
4237426 5 2.8956 13.3803 5.28619 -9.59875 6.08248 26.5621
4237438 4.94783 2.94231 13.2966 5.37039 -9.34941 6.08699 26.5571
4237446 4.94783 2.94231 13.2966 5.37039 -9.34941 6.08699 26.5571
4237464 4.89565 2.91429 13.3698 5.41717 -9.33757 6.19079 26.597
4237466 4.88696 2.90495 13.328 5.58558 -9.1034 6.24685 26.7055
4237476 4.88696 2.90495 13.328 5.58558 -9.1034 6.24685 26.7055
4237493 4.83478 2.93297 13.328 5.57622 -9.04844 6.26302 26.672
4237497 4.83478 2.93297 13.2652 5.57622 -9.01081 6.24241 26.6092
4237507 4.73913 2.8956 13.2652 5.57622 -9.00105 6.34913 26.4762
4237521 4.64348 2.8956 13.2338 5.63236 -8.85178 6.43458 26.4053
4237537 4.5913 2.85824 13.1292 5.75399 -8.64731 6.51299 26.3328
4237549 4.51304 2.8956 13.1188 5.80077 -8.48467 6.55812 26.3282
4237559 4.51304 2.8956 13.1188 5.80077 -8.48467 6.55812 26.3282
4237576 4.48696 2.92363 13.0665 5.9224 -8.24581 6.57871 26.3994
4237579 4.34783 2.90495 13.1397 6.04403 -8.07458 6.76959 26.4365
4237603 4.32174 2.92363 13.1188 6.24986 -7.76567 6.83283 26.614
4237609 4.32174 2.92363 13.1188 6.24986 -7.76567 6.83283 26.614
4237619 4.1913 2.94231 13.1606 6.39956 -7.50179 6.98284 26.6938
4237630 4.14783 2.97033 13.0978 6.5399 -7.22779 7.01878 26.7559
4237639 4.14783 2.97033 13.0978 6.5399 -7.22779 7.01878 26.7559
4237657 4.09565 3.04505 13.0142 6.66153 -6.90177 7.01156 26.8164
4237659 4.09565 3.04505 13.0142 6.66153 -6.90177 7.01156 26.8164
4237669 4 2.95165 12.8677 6.79252 -6.69206 7.16329 26.6119
4237685 3.98261 3.01703 12.7631 6.84865 -6.4634 7.10904 26.6114
4237699 3.89565 2.97967 12.6375 6.97028 -6.21456 7.21166 26.4831
4237713 3.89565 3.01703 12.4597 7.21354 -5.75942 7.19961 26.5859
4237719 3.89565 3.01703 12.4597 7.21354 -5.75942 7.19961 26.5859
4237729 3.8 3.04505 12.2923 7.26968 -5.46974 7.2236 26.407
4237740 3.8 3.04505 12.1354 7.26968 -5.35298 7.17711 26.2501
4237749 3.75652 3.00769 12.1354 7.3913 -5.2232 7.2815 26.2909
4237766 3.75652 3.06374 11.9471 7.51293 -4.87716 7.2144 26.2803
4237769 3.75652 3.06374 11.9471 7.51293 -4.87716 7.2144 26.2803
4237779 3.63478 3.0544 11.7483 7.65327 -4.47996 7.30857 26.0908
4237793 3.57391 3.1478 11.6332 7.8404 -4.02643 7.30201 26.1953
4237799 3.57391 3.1478 11.6332 7.8404 -4.02643 7.30201 26.1953
4237810 3.56522 3.13846 11.6018 8.01816 -3.80877 7.3601 26.3237
4237821 3.56522 3.13846 11.6018 8.01816 -3.80877 7.3601 26.3237
4237830 3.45217 3.1478 11.3612 8.20528 -3.30606 7.4331 26.1665
4237849 3.42609 3.16648 11.424 8.4579 -3.04606 7.52952 26.4745
4237860 3.38261 3.21319 11.2566 8.60759 -2.66293 7.52177 26.46
4237878 3.33913 3.20385 11.0788 8.776 -2.30896 7.56417 26.3978
4237891 3.22609 3.26923 10.9323 8.88828 -1.90083 7.59537 26.3159
4237905 3.21739 3.28791 10.7231 9.01926 -1.55566 7.5647 26.2476
4237912 3.21739 3.28791 10.7231 9.01926 -1.55566 7.5647 26.2476
4237933 3.12174 3.4 10.4511 9.23445 -0.895135 7.53443 26.2073
4237934 3.12174 3.4 10.4511 9.23445 -0.895135 7.53443 26.2073
4237942 3.11304 3.33462 10.2523 9.32801 -0.674969 7.56839 26.028
4237959 3.07826 3.50275 10.0012 9.5432 -0.0320956 7.44299 26.1254
4237971 3.07826 3.50275 10.0012 9.5432 -0.0320956 7.44299 26.1254
4237972 3.05217 3.52143 9.78154 9.82389 0.488558 7.46694 26.179
4237987 3.0087 3.59615 9.47815 10.0952 1.1503 7.4309 26.1782
4237993 3.0087 3.59615 9.47815 10.0952 1.1503 7.4309 26.1782
4238002 2.97391 3.77363 9.09108 10.5724 2.15915 7.33553 26.411
4238015 2.97391 3.77363 9.09108 10.5724 2.15915 7.33553 26.411
4238024 2.86087 3.84835 8.704 10.9279 3.04788 7.35884 26.3411
4238043 2.8 3.9511 8.31692 11.2741 3.89895 7.31144 26.3421
4238044 2.8 3.9511 8.31692 11.2741 3.89895 7.31144 26.3421
4238054 2.72174 3.9978 7.97169 11.4612 4.55557 7.29187 26.1524
4238070 2.62609 4.05385 7.69969 11.639 5.15692 7.29789 26.0186
4238074 2.62609 4.05385 7.69969 11.639 5.15692 7.29789 26.0186
4238084 2.58261 4.13791 7.52185 11.7232 5.54256 7.23526 25.9655
4238099 2.58261 4.13791 7.52185 11.7232 5.54256 7.23526 25.9655
4238104 2.48696 4.04451 7.30215 12.0226 6.07007 7.42178 25.8562
4238127 2.45217 4.07253 7.29169 12.2565 6.31416 7.49254 26.0729
4238128 2.45217 4.07253 7.29169 12.2565 6.31416 7.49254 26.0729
4238134 2.38261 4.06319 7.10338 12.4904 6.78541 7.57384 26.0395
4238154 2.30435 4.01648 7.14523 12.743 6.97268 7.7649 26.209
4238156 2.30435 4.01648 7.14523 12.743 6.97268 7.7649 26.209
4238165 2.26957 3.96044 7.15569 12.8553 7.04094 7.87754 26.241
4238182 2.26957 3.96044 7.15569 12.8553 7.04094 7.87754 26.241
4238185 2.2 3.93242 7.06154 13.1453 7.41875 8.01527 26.3393
4238195 2.12174 3.87637 7.01969 13.3605 7.67243 8.17835 26.3783
4238210 2.12174 3.87637 7.01969 13.3605 7.67243 8.17835 26.3783
4238215 2.08696 3.82967 6.94646 13.5476 7.89818 8.27928 26.4107
4238226 1.97391 3.85769 6.81046 13.6973 8.32463 8.35792 26.3394
4238246 1.93043 3.66154 6.82092 13.7347 8.26548 8.58415 26.1476
4238256 1.78261 3.66154 6.82092 13.7347 8.45462 8.71824 25.9998
4238268 1.78261 3.64286 6.82092 13.847 8.51396 8.76225 26.0934
4238276 1.71304 3.68956 6.86277 13.9125 8.62011 8.80858 26.1779
4238298 1.67826 3.49341 6.89415 14.0248 8.57182 9.05341 26.0906
4238306 1.5913 3.53077 6.75815 14.0715 8.91351 9.07893 25.9518
4238326 1.5913 3.53077 6.75815 14.0715 8.91351 9.07893 25.9518
4238327 1.6 3.40934 6.78954 14.24 8.89033 9.22861 26.0388
4238338 1.49565 3.36264 6.78954 14.4832 9.14684 9.42239 26.131
4238358 1.52174 3.43736 6.77908 14.6797 9.28939 9.36847 26.4179
4238368 1.52174 3.43736 6.77908 14.6797 9.28939 9.36847 26.4179
4238385 1.51304 3.36264 6.73723 14.8855 9.43253 9.48004 26.4984
4238387 1.46087 3.33462 6.664 14.8481 9.55793 9.53144 26.3076
4238414 1.42609 3.46538 6.528 14.8762 9.87566 9.41945 26.2956
4238418 1.4087 3.34396 6.41292 14.7733 9.92295 9.50324 25.9388
4238429 1.4087 3.34396 6.41292 14.7733 9.92295 9.50324 25.9388
4238443 1.4 3.28791 6.392 14.8668 9.98462 9.57977 25.9467
4238449 1.4 3.28791 6.392 14.8668 9.98462 9.57977 25.9467
4238459 1.36522 3.37198 6.40246 14.8855 10.0766 9.53929 26.0252
4238473 1.32174 3.32527 6.40246 14.9791 10.1621 9.64394 26.0286
4238479 1.32174 3.32527 6.40246 14.9791 10.1621 9.64394 26.0286
4238489 1.35652 3.32527 6.37108 15.0446 10.1947 9.6181 26.0975
4238502 1.32174 3.39066 6.37108 15.1569 10.3416 9.61242 26.2403
4238529 1.38261 3.37198 6.36062 15.2972 10.3417 9.5996 26.4124
4238530 1.38261 3.37198 6.36062 15.2972 10.3417 9.5996 26.4124
4238541 1.26957 3.27857 6.33969 15.4469 10.5528 9.81885 26.3347
4238559 1.30435 3.27857 6.27692 15.4469 10.5906 9.77367 26.3067
4238560 1.30435 3.27857 6.27692 15.4469 10.5906 9.77367 26.3067
4238570 1.25217 3.30659 6.09908 15.5405 10.97 9.7797 26.1983
4238587 1.24348 3.29725 6.09908 15.5124 10.9619 9.79118 26.1522
4238604 1.22609 3.33462 5.984 15.4375 11.125 9.73405 25.9822
4238617 1.22609 3.33462 5.984 15.4375 11.125 9.73405 25.9822
4238620 1.2 3.36264 5.91077 15.4469 11.2834 9.71923 25.9203
4238630 1.24348 3.41868 5.93169 15.4562 11.2281 9.63093 26.0501
4238644 1.24348 3.41868 5.93169 15.4562 11.2281 9.63093 26.0501
4238650 1.2 3.46538 5.85846 15.3814 11.3764 9.59718 25.9052
4238660 1.23478 3.45604 5.92123 15.4843 11.2893 9.6075 26.0964
4238681 1.27826 3.49341 5.88985 15.5498 11.3263 9.53862 26.2113
4238700 1.27826 3.49341 5.88985 15.5498 11.3263 9.53862 26.2113
4238702 1.26087 3.48407 5.90031 15.4562 11.2821 9.54636 26.1015
4238711 1.24348 3.46538 5.93169 15.4375 11.2429 9.58297 26.0781
4238728 1.24348 3.46538 5.93169 15.4375 11.2429 9.58297 26.0781
4238732 1.25217 3.50275 5.88985 15.4095 11.2939 9.52497 26.0542
4238741 1.23478 3.52143 5.88985 15.344 11.2935 9.50996 25.99
4238757 1.23478 3.52143 5.88985 15.344 11.2935 9.50996 25.99
4238761 1.24348 3.61484 5.96308 15.2504 11.1794 9.40969 26.0718
4238771 1.24348 3.61484 5.96308 15.2504 11.1794 9.40969 26.0718
4238785 1.30435 3.6522 5.87938 15.1288 11.1664 9.27314 25.9647
4238791 1.33043 3.70824 5.87938 15.1475 11.1698 9.20077 26.0656
4238814 1.33043 3.77363 5.90031 15.1569 11.1804 9.14699 26.1612
4238821 1.36522 3.81099 5.848 15.1569 11.2244 9.06876 26.1811
4238841 1.36522 3.81099 5.848 15.1569 11.2244 9.06876 26.1811
4238844 1.36522 3.81099 5.81662 15.0726 11.2235 9.04246 26.0655
4238852 1.36522 3.81099 5.81662 15.0726 11.2235 9.04246 26.0655
4238872 1.35652 3.82033 5.76431 15.0446 11.2986 9.02343 25.9857
4238873 1.36522 3.87637 5.78523 15.0165 11.272 8.96208 26.0433
4238883 1.36522 3.87637 5.78523 15.0165 11.272 8.96208 26.0433
4238900 1.41739 3.86703 5.73292 14.9604 11.2376 8.89736 25.9777
4238903 1.37391 3.86703 5.74338 14.951 11.2788 8.93768 25.9353
4238929 1.3913 3.87637 5.78523 15.0072 11.2308 8.93592 26.0601
4238933 1.3913 3.87637 5.78523 15.0072 11.2308 8.93592 26.0601
4238943 1.38261 3.9044 5.81662 15.0446 11.2338 8.93418 26.1482
4238957 1.4087 3.88571 5.83754 15.0539 11.1639 8.93443 26.1859
4238974 1.45217 3.91374 5.74338 15.0259 11.2339 8.84058 26.1352
4238987 1.45217 3.93242 5.70154 15.0539 11.3166 8.8203 26.1401
4239015 1.44348 4.05385 5.68062 15.0259 11.4064 8.70627 26.2038
4239016 1.42609 4.08187 5.62831 14.9417 11.4744 8.66366 26.0779
4239025 1.42609 4.08187 5.62831 14.9417 11.4744 8.66366 26.0779
4239043 1.45217 4.16593 5.58646 14.9697 11.5543 8.56074 26.1743
4239055 1.41739 4.16593 5.45046 14.9697 11.7944 8.55857 26.0035
4239071 1.43478 4.26868 5.50277 14.8949 11.7102 8.44457 26.1011
4239075 1.43478 4.26868 5.50277 14.8949 11.7102 8.44457 26.1011
4239085 1.44348 4.30604 5.35631 14.8575 11.905 8.35655 25.9633
4239100 1.41739 4.34341 5.304 14.792 12.0026 8.3161 25.8568
4239105 1.41739 4.34341 5.304 14.792 12.0026 8.3161 25.8568
4239115 1.47826 4.40879 5.35631 14.8481 11.9027 8.23106 26.0915
4239129 1.47826 4.40879 5.35631 14.8481 11.9027 8.23106 26.0915
4239135 1.43478 4.41813 5.304 14.792 12.0153 8.23333 25.9489
4239145 1.42609 4.35275 5.35631 14.8855 11.9673 8.33741 26.0207
4239165 1.46087 4.39945 5.34585 14.9136 11.9702 8.2691 26.1198
4239186 1.43478 4.40879 5.36677 14.792 11.9213 8.25801 26.0023
4239188 1.43478 4.40879 5.36677 14.792 11.9213 8.25801 26.0023
4239196 1.44348 4.42747 5.40862 14.8481 11.8873 8.25893 26.1277
4239217 1.48696 4.44615 5.37723 14.7826 11.8467 8.17849 26.0929
4239226 1.46087 4.5022 5.38769 14.7545 11.8828 8.14729 26.1053
4239252 1.51304 4.5956 5.39815 14.6048 11.7661 7.9817 26.1116
4239257 1.41739 4.52088 5.40862 14.5581 11.8249 8.12301 25.9049
4239274 1.41739 4.52088 5.40862 14.5581 11.8249 8.12301 25.9049
4239277 1.56522 4.67967 5.34585 14.5019 11.7567 7.81995 26.0927
4239287 1.56522 4.67967 5.34585 14.5019 11.7567 7.81995 26.0927
4239304 1.54783 4.74505 5.31446 14.4458 11.8302 7.75379 26.0531
4239307 1.57391 4.85714 5.29354 14.3522 11.8323 7.60141 26.0768
4239331 1.57391 4.95055 5.22031 14.3709 11.9921 7.50513 26.1157
4239338 1.61739 4.95989 5.24123 14.268 11.8541 7.436 26.0865
4239348 1.61739 4.95989 5.24123 14.268 11.8541 7.436 26.0865
4239359 1.58261 5.0533 5.18892 14.2212 12.0009 7.35673 26.0461
4239369 1.58261 5.0533 5.18892 14.2212 12.0009 7.35673 26.0461
4239388 1.62609 5.1467 5.11569 14.1277 12.0431 7.1901 26.0162
4239390 1.63478 5.23077 5.06338 14.0996 12.133 7.0869 26.0286
4239419 1.63478 5.33352 5.00062 14.0809 12.264 6.97503 26.0498
4239420 1.65217 5.36154 4.99015 14.0341 12.2449 6.91906 26.038
4239430 1.65217 5.36154 4.99015 14.0341 12.2449 6.91906 26.038
4239449 1.66957 5.45495 4.96923 13.9967 12.2773 6.8079 26.0904
4239460 1.67826 5.40824 4.95877 13.978 12.2479 6.83057 26.0233
4239477 1.71304 5.41758 5.01108 13.8844 12.082 6.78062 26.0261
4239480 1.71304 5.41758 5.01108 13.8844 12.082 6.78062 26.0261
4239490 1.68696 5.49231 4.90646 13.847 12.2875 6.69474 25.9327
4239534 1.66087 5.40824 4.92738 13.7909 12.2258 6.77607 25.7874
4239537 1.66087 5.40824 4.92738 13.7909 12.2258 6.77607 25.7874
4239539 1.66957 5.45495 4.88554 13.6786 12.2412 6.67977 25.6886
4239539 1.66957 5.45495 4.88554 13.6786 12.2412 6.67977 25.6886
4239541 1.65217 5.48297 4.96923 13.6973 12.1687 6.70387 25.8017
4239550 1.69565 5.38022 5.07385 13.7441 11.9283 6.80205 25.8938
4239571 1.67826 5.43626 5.168 13.6692 11.8096 6.77567 25.9518
4239582 1.70435 5.34286 5.18892 13.6225 11.6712 6.82414 25.8586
4239601 1.70435 5.42692 5.28308 13.557 11.5478 6.76252 25.9713
4239611 1.73913 5.36154 5.34585 13.4821 11.3375 6.78437 25.9286
4239628 1.73913 5.36154 5.34585 13.4821 11.3375 6.78437 25.9286
4239631 1.77391 5.32418 5.54462 13.3886 10.9428 6.81973 26.0313
4239641 1.77391 5.32418 5.54462 13.3886 10.9428 6.81973 26.0313
4239657 1.8 5.25879 5.68062 13.2482 10.6073 6.85136 25.9876
4239661 1.83478 5.1467 5.78523 13.1453 10.2964 6.91709 25.912
4239671 1.83478 5.1467 5.78523 13.1453 10.2964 6.91709 25.912
4239687 1.84348 5.16538 5.95262 13.0985 10.042 6.93147 26.06
4239691 1.84348 5.16538 5.95262 13.0985 10.042 6.93147 26.06
4239701 1.90435 5.13736 6.09908 12.9395 9.65616 6.89995 26.0802
4239717 1.86957 5.0533 6.22462 12.8085 9.40785 6.99853 25.956
4239722 1.86957 5.0533 6.22462 12.8085 9.40785 6.99853 25.956
4239733 1.92174 4.98791 6.40246 12.6588 8.97398 7.01839 25.9709
4239746 1.96522 4.98791 6.61169 12.4529 8.51721 6.98264 26.0178
4239752 1.96522 4.98791 6.61169 12.4529 8.51721 6.98264 26.0178
4239763 1.97391 4.96923 6.77908 12.3126 8.18984 6.9994 26.0348
4239777 1.97391 4.96923 6.77908 12.3126 8.18984 6.9994 26.0348
4239785 2 4.85714 6.95692 12.219 7.79705 7.09798 26.0331
4239792 2.10435 4.8011 7.19754 12.0413 7.21046 7.07614 26.1443
4239806 2.10435 4.8011 7.19754 12.0413 7.21046 7.07614 26.1443
4239814 2.17391 4.68901 7.42769 11.7138 6.53852 7.08259 26.0044
4239834 2.22609 4.56758 7.69969 11.4144 5.84402 7.13325 25.9078
4239836 2.22609 4.56758 7.69969 11.4144 5.84402 7.13325 25.9078
4239844 2.27826 4.46484 8.17046 11.1244 4.93558 7.23084 26.0379
4239870 2.37391 4.2967 8.66215 10.8531 3.9274 7.35776 26.1858
4239892 2.45217 4.22198 9.08062 10.6192 3.136 7.40824 26.3739
4239894 2.6 4.13791 9.43631 10.3478 2.30886 7.37851 26.522
4239904 2.54783 4.02582 9.77108 9.9923 1.61296 7.51208 26.337
4239921 2.54783 4.02582 9.77108 9.9923 1.61296 7.51208 26.337
4239924 2.6087 3.91374 10.1477 9.67419 0.789106 7.57248 26.3443
4239934 2.6087 3.91374 10.1477 9.67419 0.789106 7.57248 26.3443
4239949 2.67826 3.9044 10.3988 9.39351 0.209358 7.5126 26.3749
4239954 2.73043 3.76429 10.7545 9.02862 -0.658342 7.58532 26.2778
4239964 2.73043 3.76429 10.7545 9.02862 -0.658342 7.58532 26.2778
4239978 2.78261 3.71758 11.0055 8.72922 -1.2782 7.56695 26.235
4239984 2.81739 3.64286 11.3822 8.47661 -1.97583 7.63622 26.319
4240007 2.81739 3.64286 11.3822 8.47661 -1.97583 7.63622 26.319
4240008 2.92174 3.59615 11.6751 8.21464 -2.63752 7.59544 26.4076
4240014 2.92174 3.59615 11.6751 8.21464 -2.63752 7.59544 26.4076
4240035 2.97391 3.46538 12.0517 7.98074 -3.38048 7.70244 26.4717
4240037 3.0087 3.43736 12.3342 7.91525 -3.73682 7.75601 26.6955
4240044 3.0087 3.43736 12.3342 7.91525 -3.73682 7.75601 26.6955
4240064 3.06087 3.34396 12.6585 7.65327 -4.4187 7.80803 26.7166
4240065 3.05217 3.31593 12.8886 7.4568 -4.83656 7.84845 26.7135
4240075 3.05217 3.31593 12.8886 7.4568 -4.83656 7.84845 26.7135
4240092 3.11304 3.21319 13.0351 7.29774 -5.28637 7.88096 26.659
4240100 3.11304 3.21319 13.0351 7.29774 -5.28637 7.88096 26.659
4240122 3.15652 3.11044 13.4849 7.02642 -6.07263 7.97906 26.7783
4240124 3.15652 3.11044 13.4849 7.02642 -6.07263 7.97906 26.7783
4240134 3.17391 3.06374 13.5895 6.88608 -6.37664 7.99489 26.7133
4240152 3.2 3.06374 13.6837 6.76445 -6.60334 7.96522 26.7119
4240154 3.2 2.97033 13.6837 6.76445 -6.71424 8.04581 26.6185
4240164 3.24348 2.99835 13.8825 6.68024 -6.94598 8.01406 26.8045
4240185 3.2 2.90495 13.9452 6.53054 -7.25125 8.10973 26.5807
4240195 3.2087 2.8956 14.008 6.51183 -7.33288 8.12169 26.6241
4240211 3.2087 2.8956 14.008 6.51183 -7.33288 8.12169 26.6241
4240215 3.21739 2.85824 14.144 6.3902 -7.62213 8.15031 26.6098
4240225 3.1913 2.81154 14.3218 6.36214 -7.81235 8.2519 26.6868
4240239 3.1913 2.81154 14.3218 6.36214 -7.81235 8.2519 26.6868
4240245 3.23478 2.70879 14.3742 6.31535 -8.05839 8.30505 26.6331
4240255 3.23478 2.70879 14.3742 6.31535 -8.05839 8.30505 26.6331
4240268 3.25217 2.70879 14.4892 6.28729 -8.17703 8.31168 26.7375
4240276 3.31304 2.73681 14.6985 6.32471 -8.26467 8.29607 27.073
4240297 3.31304 2.73681 14.6985 6.32471 -8.26467 8.29607 27.073
4240298 3.4087 2.71813 14.7298 6.20308 -8.51572 8.20745 27.0598
4240309 3.35652 2.69011 14.8135 6.12823 -8.66272 8.27864 26.9884
4240326 3.45217 2.65275 14.8449 6.0066 -8.93826 8.2058 26.9564
4240336 3.45217 2.65275 14.8449 6.0066 -8.93826 8.2058 26.9564
4240356 3.44348 2.61538 14.824 5.89433 -9.11014 8.21192 26.7772
4240357 3.49565 2.61538 14.8449 5.82884 -9.23691 8.15541 26.7848
4240366 3.49565 2.61538 14.8449 5.82884 -9.23691 8.15541 26.7848
4240385 3.55652 2.64341 14.8031 5.67914 -9.40428 8.02913 26.6821
4240386 3.5913 2.55934 14.7403 5.65107 -9.53318 8.04803 26.542
4240396 3.5913 2.55934 14.7403 5.65107 -9.53318 8.04803 26.542
4240414 3.6 2.60604 14.8449 5.66979 -9.51423 8.03233 26.7208
4240416 3.6 2.60604 14.8449 5.66979 -9.51423 8.03233 26.7208
4240426 3.61739 2.5033 14.7717 5.63236 -9.66402 8.07738 26.5247
4240445 3.69565 2.64341 14.8763 5.52944 -9.72068 7.8894 26.7448
4240448 3.69565 2.64341 14.8763 5.52944 -9.72068 7.8894 26.7448
4240457 3.71304 2.65275 14.9809 5.52009 -9.79008 7.89183 26.8668
4240476 3.68696 2.54066 14.96 5.51073 -9.92156 8.00224 26.6983
4240477 3.68696 2.54066 14.96 5.51073 -9.92156 8.00224 26.6983
4240487 3.73913 2.58736 14.9495 5.55751 -9.82333 7.92696 26.8335
4240514 3.72174 2.55 14.9182 5.49202 -9.92983 7.94833 26.6819
4240534 3.76522 2.55934 14.8763 5.43588 -9.99212 7.87688 26.6367
4240535 3.76522 2.55934 14.8763 5.43588 -9.99212 7.87688 26.6367
4240539 3.81739 2.62473 14.8449 5.47331 -9.86934 7.77799 26.7603
4240547 3.8087 2.60604 14.9705 5.40781 -10.0449 7.81745 26.793
4240563 3.8087 2.60604 14.9705 5.40781 -10.0449 7.81745 26.793
4240567 3.82609 2.62473 14.9286 5.42653 -9.98234 7.78054 26.806
4240577 3.82609 2.62473 14.9286 5.42653 -9.98234 7.78054 26.806
4240591 3.83478 2.61538 14.8135 5.39846 -9.97151 7.74234 26.6622
4240598 3.93913 2.63407 14.8763 5.41717 -10.0163 7.6602 26.8667
4240608 3.93913 2.63407 14.8763 5.41717 -10.0163 7.6602 26.8667
4240621 3.91304 2.65275 14.8449 5.36103 -10.0331 7.64248 26.7717
4240627 3.91304 2.65275 14.8449 5.36103 -10.0331 7.64248 26.7717
4240637 3.96522 2.61538 14.8135 5.34232 -10.1182 7.61615 26.7365
4240650 4.01739 2.61538 14.8031 5.37039 -10.1046 7.57698 26.8062
4240658 4.01739 2.61538 14.8031 5.37039 -10.1046 7.57698 26.8062
4240679 4.09565 2.65275 14.7403 5.29554 -10.1624 7.44138 26.7842
4240682 4.13043 2.66209 14.7089 5.29554 -10.152 7.39557 26.797
4240689 4.13043 2.66209 14.7089 5.29554 -10.152 7.39557 26.797
4240710 4.2 2.71813 14.6252 5.23941 -10.1443 7.25084 26.7828
4240712 4.2 2.71813 14.6252 5.23941 -10.1443 7.25084 26.7828
4240719 4.2087 2.66209 14.5206 5.23005 -10.1771 7.25724 26.6214
4240739 4.24348 2.63407 14.5415 5.19263 -10.2946 7.24678 26.6117
4240741 4.24348 2.63407 14.5415 5.19263 -10.2946 7.24678 26.6117
4240749 4.30435 2.61538 14.4997 5.071 -10.4922 7.16351 26.4904
4240769 4.3913 2.68077 14.4369 5.10842 -10.3682 7.0292 26.6174
4240770 4.3913 2.68077 14.4369 5.10842 -10.3682 7.0292 26.6174
4240779 4.43478 2.66209 14.4369 5.08035 -10.4543 7.00026 26.6141
4240799 4.43478 2.66209 14.4369 5.08035 -10.4543 7.00026 26.6141
4240801 4.42609 2.58736 14.416 5.071 -10.5505 7.06038 26.5004
4240809 4.52174 2.66209 14.4683 5.09906 -10.4938 6.94373 26.7512
4240829 4.52174 2.66209 14.4683 5.09906 -10.4938 6.94373 26.7512
4240830 4.57391 2.66209 14.4683 5.08035 -10.5469 6.89536 26.7847
4240840 4.54783 2.62473 14.3846 5.04293 -10.5872 6.91069 26.6001
4240860 4.54783 2.62473 14.3846 5.04293 -10.5872 6.91069 26.6001
4240861 4.61739 2.64341 14.4892 5.06164 -10.6312 6.87578 26.8117
4240869 4.61739 2.64341 14.4892 5.06164 -10.6312 6.87578 26.8117
4240889 4.5913 2.58736 14.4369 4.94001 -10.8271 6.89022 26.5556
4240890 4.61739 2.66209 14.3637 4.96808 -10.6636 6.79353 26.6112
4240899 4.61739 2.66209 14.3637 4.96808 -10.6636 6.79353 26.6112
4240920 4.70435 2.68077 14.3323 4.88387 -10.7814 6.67133 26.6013
4240921 4.72174 2.63407 14.3637 5.0055 -10.7071 6.74278 26.725
4240929 4.72174 2.63407 14.3637 5.0055 -10.7071 6.74278 26.725
4240950 4.73043 2.64341 14.3637 4.98679 -10.7242 6.72233 26.7243
4240960 4.72174 2.63407 14.3532 4.9213 -10.8144 6.71343 26.6303
4240980 4.66087 2.67143 14.416 4.97744 -10.6901 6.76939 26.7257
4240982 4.66087 2.67143 14.416 4.97744 -10.6901 6.76939 26.7257
4240990 4.69565 2.72747 14.3428 4.99615 -10.5698 6.67875 26.762
4241013 4.67826 2.61538 14.3742 4.95872 -10.7771 6.78228 26.6265
4241015 4.67826 2.61538 14.3742 4.95872 -10.7771 6.78228 26.6265
4241020 4.65217 2.60604 14.3637 5.02422 -10.6822 6.82821 26.6461
4241030 4.65217 2.60604 14.3637 5.02422 -10.6822 6.82821 26.6461
4241043 4.6087 2.61538 14.3951 4.94937 -10.7637 6.84289 26.5685
4241050 4.62609 2.57802 14.3951 5.03357 -10.7101 6.88506 26.6328
4241060 4.62609 2.57802 14.3951 5.03357 -10.7101 6.88506 26.6328
4241073 4.6087 2.54066 14.3951 4.98679 -10.814 6.91592 26.5312
4241080 4.6087 2.54066 14.5415 4.98679 -10.8919 6.9603 26.6777
4241090 4.58261 2.5967 14.5415 4.94937 -10.853 6.92435 26.6702
4241103 4.5913 2.62473 14.5102 4.97744 -10.7657 6.8932 26.7036
4241120 4.62609 2.55934 14.5206 4.98679 -10.8649 6.92432 26.6928
4241133 4.57391 2.47527 14.5102 5.03357 -10.8819 7.04767 26.5929
4241162 4.6 2.47527 14.552 4.99615 -10.9683 7.02739 26.6234
4241165 4.6 2.47527 14.552 4.99615 -10.9683 7.02739 26.6234
4241174 4.6087 2.49396 14.4997 4.99615 -10.9201 6.98904 26.5985
4241192 4.63478 2.48462 14.5415 4.97744 -10.9938 6.98217 26.6384
4241201 4.57391 2.47527 14.5415 4.99615 -10.949 7.04586 26.5869
4241222 4.61739 2.42857 14.5415 5.05228 -10.9592 7.06529 26.6398
4241231 4.6087 2.52198 14.5625 5.05228 -10.8401 7.00162 26.7454
4241252 4.6087 2.52198 14.5625 5.05228 -10.8401 7.00162 26.7454
4241254 4.61739 2.40055 14.6043 5.02422 -11.068 7.09883 26.6465
4241262 4.54783 2.43791 14.6043 5.06164 -10.9304 7.13663 26.6517
4241284 4.53913 2.40989 14.5729 5.09906 -10.8966 7.16895 26.621
4241292 4.49565 2.42857 14.6043 5.08035 -10.8902 7.19333 26.6089
4241314 4.49565 2.42857 14.6043 5.08035 -10.8902 7.19333 26.6089
4241317 4.49565 2.36319 14.6043 5.071 -10.9913 7.24527 26.5341
4241322 4.49565 2.36319 14.6043 5.071 -10.9913 7.24527 26.5341
4241343 4.44348 2.37253 14.6566 5.12713 -10.9028 7.31271 26.5998
4241345 4.41739 2.43791 14.6671 5.14584 -10.7813 7.28823 26.6682
4241372 4.4087 2.41923 14.6252 5.18327 -10.7291 7.30986 26.6364
4241374 4.43478 2.37253 14.6775 5.23005 -10.7709 7.3556 26.7149
4241402 4.42609 2.46593 14.6462 5.37039 -10.439 7.31618 26.9086
4241403 4.42609 2.46593 14.6462 5.37039 -10.439 7.31618 26.9086
4241414 4.35652 2.38187 14.6775 5.3049 -10.6165 7.43468 26.7208
4241433 4.34783 2.42857 14.6671 5.33297 -10.5068 7.40781 26.7764
4241435 4.34783 2.42857 14.6671 5.33297 -10.5068 7.40781 26.7764
4241444 4.36522 2.39121 14.5625 5.36103 -10.4718 7.4028 26.6799
4241463 4.37391 2.47527 14.5415 5.32361 -10.4032 7.30841 26.7143
4241464 4.37391 2.47527 14.5415 5.32361 -10.4032 7.30841 26.7143
4241474 4.4 2.52198 14.4788 5.37039 -10.2596 7.24316 26.7711
4241492 4.4 2.52198 14.4788 5.37039 -10.2596 7.24316 26.7711
4241494 4.37391 2.54066 14.3009 5.3049 -10.2084 7.1782 26.5204
4241504 4.38261 2.62473 14.2591 5.36103 -10.0046 7.10514 26.6274
4241524 4.38261 2.62473 14.2591 5.36103 -10.0046 7.10514 26.6274
4241525 4.34783 2.61538 14.1649 5.36103 -9.944 7.1139 26.4892
4241535 4.34783 2.61538 14.0917 5.39846 -9.85288 7.10322 26.4534
4241555 4.34783 2.65275 14.008 5.46395 -9.66958 7.0666 26.4725
4241564 4.34783 2.65275 14.008 5.46395 -9.66958 7.0666 26.4725
4241583 4.21739 2.66209 14.0394 5.5388 -9.50187 7.19945 26.4577
4241585 4.32174 2.69945 13.9766 5.57622 -9.42902 7.07363 26.574
4241595 4.32174 2.69945 13.9766 5.57622 -9.42902 7.07363 26.574
4241614 4.21739 2.74615 13.8929 5.66043 -9.14863 7.12177 26.5169
4241617 4.2 2.83956 13.8511 5.75399 -8.87376 7.07395 26.6446
4241649 4.17391 2.85824 13.7778 5.81013 -8.7184 7.07499 26.6201
4241652 4.17391 2.86758 13.6 5.84755 -8.54955 7.0252 26.489
4241656 4.17391 2.86758 13.6 5.84755 -8.54955 7.0252 26.489
4241678 4.11304 3.00769 13.5058 5.93176 -8.17017 6.9565 26.5583
4241681 4.11304 3.00769 13.5058 5.93176 -8.17017 6.9565 26.5583
4241686 4.10435 2.94231 13.3698 6.01596 -8.05442 7.00227 26.4325
4241707 4.13913 3.06374 13.2443 6.06274 -7.78667 6.84886 26.5099
4241717 4.06957 3.0544 13.0978 6.14695 -7.55257 6.895 26.3688
4241737 3.96522 3.12912 12.9828 6.21244 -7.23332 6.90438 26.2895
4241747 3.95652 3.17582 12.9305 6.33407 -6.98671 6.8941 26.3969
4241767 3.95652 3.17582 12.9305 6.33407 -6.98671 6.8941 26.3969
4241768 3.85217 3.1478 12.784 6.50248 -6.64401 7.01112 26.2865
4241797 3.81739 3.19451 12.7212 6.6896 -6.29621 7.03879 26.4227
4241799 3.81739 3.19451 12.7212 6.6896 -6.29621 7.03879 26.4227
4241811 3.81739 3.30659 12.5434 6.90479 -5.78556 6.95701 26.5722
4241812 3.75652 3.33462 12.3446 7.0732 -5.36925 6.97501 26.5089
4241827 3.75652 3.33462 12.3446 7.0732 -5.36925 6.97501 26.5089
4241829 3.74783 3.45604 12.1668 7.26032 -4.87988 6.88478 26.631
4241839 3.74783 3.45604 12.1668 7.26032 -4.87988 6.88478 26.631
4241858 3.70435 3.48407 11.8843 7.3913 -4.45254 6.85111 26.464
4241860 3.66957 3.66154 11.6646 7.59714 -3.83139 6.72962 26.5929
4241869 3.66957 3.66154 11.6646 7.59714 -3.83139 6.72962 26.5929
4241887 3.64348 3.7456 11.4031 7.72812 -3.36802 6.6414 26.5203
4241890 3.57391 3.76429 11.0997 7.84975 -2.9097 6.6255 26.2876
4241899 3.57391 3.76429 11.0997 7.84975 -2.9097 6.6255 26.2876
4241917 3.5913 3.86703 10.9428 7.94331 -2.58473 6.50673 26.3444
4241929 3.52174 3.94176 10.7126 8.01816 -2.17074 6.45214 26.1943
4241949 3.54783 4.04451 10.4092 8.11172 -1.72405 6.27762 26.1133
4241960 3.53043 4.09121 10.2523 8.29884 -1.33028 6.26386 26.1728
4241979 3.50435 4.16593 9.95938 8.37369 -0.888449 6.15082 26.0034
4241980 3.50435 4.16593 9.95938 8.37369 -0.888449 6.15082 26.0034
4241990 3.55652 4.22198 9.85477 8.49532 -0.664017 6.06898 26.1286
4242009 3.55652 4.22198 9.85477 8.49532 -0.664017 6.06898 26.1286
4242010 3.48696 4.28736 9.656 8.66373 -0.183819 6.06196 26.0941
4242020 3.41739 4.34341 9.43631 8.89763 0.371093 6.07775 26.0947
4242040 3.44348 4.45549 9.22708 9.04733 0.794959 5.94617 26.1734
4242050 3.43478 4.47418 9.04923 9.19703 1.13476 5.92843 26.1552
4242069 3.43478 4.47418 9.04923 9.19703 1.13476 5.92843 26.1552
4242071 3.43478 4.53956 8.86092 9.38415 1.55229 5.87583 26.2194
4242081 3.43478 4.53956 8.86092 9.38415 1.55229 5.87583 26.2194
4242099 3.4 4.62363 8.58892 9.51513 2.05705 5.78721 26.1277
4242101 3.33043 4.74505 8.41108 9.65548 2.54286 5.73276 26.142
4242111 3.33043 4.74505 8.41108 9.65548 2.54286 5.73276 26.142
4242131 3.32174 4.76374 8.25415 9.78646 2.8461 5.71563 26.1261
4242132 3.26957 4.82912 7.99262 10.0017 3.41912 5.68865 26.093
4242142 3.26957 4.82912 7.99262 10.0017 3.41912 5.68865 26.093
4242162 3.25217 4.89451 7.79385 10.0765 3.77156 5.60614 26.017
4242163 3.2087 4.85714 7.63692 10.2449 4.10098 5.67449 25.9477
4242193 3.15652 4.86648 7.50092 10.3385 4.39587 5.69343 25.8624
4242194 3.15652 4.86648 7.50092 10.3385 4.39587 5.69343 25.8624
4242204 3.13913 4.88516 7.38585 10.4882 4.68019 5.70484 25.8983
4242225 3.07826 4.94121 7.27077 10.694 5.08595 5.74115 25.9842
4242227 3.07826 4.94121 7.27077 10.694 5.08595 5.74115 25.9842
4242234 3.09565 4.96923 7.19754 10.7408 5.20784 5.69551 26.0032
4242256 3.06957 4.98791 7.01969 10.9653 5.62924 5.71808 26.0425
4242257 3.06957 4.98791 7.01969 10.9653 5.62924 5.71808 26.0425
