4988463 8.22609 4.25934 9.30031 3.58338 -9.54278 0.235476 25.3691
4988473 8.22609 4.25934 9.30031 3.58338 -9.54278 0.235476 25.3691
4988484 8.10435 4.32473 9.28985 3.58338 -9.37276 0.263307 25.3023
4988493 8.07826 4.33407 9.21662 3.64887 -9.2096 0.268908 25.2778
4988504 8.07826 4.33407 9.21662 3.64887 -9.2096 0.268908 25.2778
4988514 8.10435 4.43681 9.17477 3.54595 -9.19998 0.10662 25.2619
4988523 8.10435 4.41813 9.07015 3.51789 -9.19782 0.0391638 25.1105
4988533 8.10435 4.41813 9.07015 3.51789 -9.19782 0.0391638 25.1105
4988544 8.13043 4.49286 9.04923 3.5366 -9.07431 -0.0222918 25.2091
4988554 8.13043 4.49286 9.04923 3.5366 -9.07431 -0.0222918 25.2091
4988564 8.06956 4.56758 8.93415 3.48046 -8.93717 -0.133243 25.0518
4988574 8.14783 4.62363 8.90277 3.50853 -8.85372 -0.214522 25.1828
4988586 8.14783 4.62363 8.90277 3.50853 -8.85372 -0.214522 25.1828
4988596 8.11304 4.67967 8.79815 3.45239 -8.76397 -0.324739 25.0433
4988605 8.09565 4.64231 8.81908 3.49917 -8.75356 -0.251261 25.0562
4988615 8.09565 4.64231 8.81908 3.49917 -8.75356 -0.251261 25.0562
4988627 8.08696 4.67033 8.75631 3.5366 -8.61903 -0.27807 25.0502
4988634 8.08696 4.67033 8.75631 3.5366 -8.61903 -0.27807 25.0502
4988645 8.09565 4.63297 8.77723 3.51789 -8.71376 -0.259854 25.0237
4988654 8.12174 4.78242 8.704 3.47111 -8.54512 -0.436048 25.0793
4988665 8.12174 4.78242 8.704 3.47111 -8.54512 -0.436048 25.0793
4988674 8.14783 4.72637 8.73538 3.49917 -8.62016 -0.382122 25.1088
4988693 8.18261 4.67967 8.66215 3.48982 -8.67033 -0.425941 25.0143
4988696 8.18261 4.67967 8.66215 3.48982 -8.67033 -0.425941 25.0143
4988705 8.2087 4.77308 8.66215 3.48982 -8.56215 -0.495231 25.1337
4988715 8.2087 4.77308 8.66215 3.48982 -8.56215 -0.495231 25.1337
4988728 8.1913 4.8011 8.62031 3.46175 -8.52338 -0.544585 25.0745
4988736 8.25217 4.74505 8.62031 3.48046 -8.6132 -0.535776 25.098
4988745 8.25217 4.74505 8.62031 3.48046 -8.6132 -0.535776 25.098
4988757 8.25217 4.71703 8.704 3.3869 -8.83101 -0.525719 25.0601
4988767 8.34783 4.67033 8.75631 3.42433 -8.93841 -0.498549 25.1988
4988778 8.34783 4.67033 8.75631 3.42433 -8.93841 -0.498549 25.1988
4988787 8.36522 4.66099 8.81908 3.36819 -9.0776 -0.499103 25.2135
4988799 8.4087 4.58626 8.87138 3.40561 -9.18825 -0.42614 25.272
4988808 8.4087 4.58626 8.87138 3.40561 -9.18825 -0.42614 25.272
4988818 8.42609 4.46484 8.91323 3.34012 -9.47965 -0.380347 25.1443
4988828 8.42609 4.46484 8.91323 3.34012 -9.47965 -0.380347 25.1443
4988838 8.43478 4.36209 8.91323 3.29334 -9.69125 -0.354131 25.0034
4988848 8.46957 4.32473 8.92369 3.33077 -9.71882 -0.32327 25.0487
4988859 8.46957 4.32473 8.92369 3.33077 -9.71882 -0.32327 25.0487
4988869 8.52174 4.39011 8.90277 3.31205 -9.67333 -0.416108 25.1267
4988879 8.53913 4.33407 8.89231 3.29334 -9.78101 -0.41156 25.0588
4988899 8.6087 4.36209 8.92369 3.2372 -9.88105 -0.483386 25.1317
4988909 8.6087 4.36209 8.92369 3.2372 -9.88105 -0.483386 25.1317
4988919 8.57391 4.26868 8.92369 3.28398 -9.92498 -0.380185 25.0503
4988929 8.53043 4.28736 8.98646 3.32141 -9.85857 -0.304425 25.1257
4988949 8.62609 4.25934 8.94462 3.25592 -10.021 -0.40953 25.086
4988961 8.62609 4.31538 8.86092 3.31205 -9.81464 -0.458997 25.1144
4988971 8.62609 4.31538 8.86092 3.31205 -9.81464 -0.458997 25.1144
4988980 8.63478 4.27802 8.95508 3.29334 -9.9543 -0.396078 25.1612
4988992 8.63478 4.27802 8.95508 3.29334 -9.9543 -0.396078 25.1612
4989001 8.65217 4.19396 8.95508 3.29334 -10.0818 -0.357276 25.0945
4989011 8.6087 4.26868 8.92369 3.33077 -9.88084 -0.371792 25.1318
4989020 8.6087 4.26868 8.92369 3.33077 -9.88084 -0.371792 25.1318
4989031 8.68696 4.28736 8.96554 3.29334 -9.97871 -0.425297 25.2332
4989040 8.6087 4.25 8.89231 3.3027 -9.92698 -0.397362 25.0537
4989051 8.6087 4.25 8.89231 3.3027 -9.92698 -0.397362 25.0537
4989061 8.56522 4.37143 8.72492 3.35883 -9.55208 -0.511316 25.0204
4989071 8.56522 4.37143 8.72492 3.35883 -9.55208 -0.511316 25.0204
4989081 8.46087 4.34341 8.75631 3.34012 -9.57167 -0.426402 24.9007
4989091 8.35652 4.37143 8.62031 3.51789 -9.13643 -0.355758 24.8661
4989100 8.35652 4.37143 8.62031 3.51789 -9.13643 -0.355758 24.8661
4989110 8.32174 4.51154 8.63077 3.49917 -8.95497 -0.422622 24.9632
4989121 8.31304 4.53022 8.62031 3.64887 -8.71506 -0.342909 25.1124
4989142 8.1913 4.71703 8.64123 3.84535 -8.14154 -0.24912 25.3949
4989151 8.1913 4.71703 8.64123 3.84535 -8.14154 -0.24912 25.3949
4989161 8.12174 4.72637 8.67262 3.85471 -8.09176 -0.189629 25.3754
4989172 8 4.8011 8.66215 3.94827 -7.78465 -0.112555 25.4115
4989192 7.94783 4.91319 8.49477 3.88277 -7.57436 -0.287341 25.2386
4989202 7.82609 4.86648 8.35877 3.95762 -7.35811 -0.225627 25.009
4989212 7.82609 4.86648 8.35877 3.95762 -7.35811 -0.225627 25.009
4989222 7.81739 5.00659 8.28554 3.96698 -7.10761 -0.341834 25.0765
4989232 7.81739 5.00659 8.28554 3.96698 -7.10761 -0.341834 25.0765
4989242 7.75652 5.12802 8.17046 4.02312 -6.75474 -0.413289 25.0781
4989254 7.73913 5.19341 8.10769 4.10732 -6.50769 -0.427988 25.1475
4989266 7.73913 5.19341 8.10769 4.10732 -6.50769 -0.427988 25.1475
4989273 7.6087 5.25879 7.89846 4.08861 -6.1958 -0.531342 24.8546
4989285 7.65217 5.36154 7.79385 4.1541 -5.93949 -0.640442 24.9617
4989293 7.65217 5.36154 7.79385 4.1541 -5.93949 -0.640442 24.9617
4989304 7.57391 5.38956 7.69969 4.21024 -5.70269 -0.635343 24.8734
4989313 7.57391 5.38956 7.69969 4.21024 -5.70269 -0.635343 24.8734
4989332 7.51304 5.45495 7.64738 4.29444 -5.43063 -0.617927 24.9098
4989333 7.44348 5.58571 7.49046 4.36929 -5.00115 -0.704796 24.8889
4989344 7.44348 5.58571 7.49046 4.36929 -5.00115 -0.704796 24.8889
4989354 7.38261 5.71648 7.41723 4.40671 -4.69109 -0.767452 24.923
4989365 7.32174 5.78187 7.38585 4.50028 -4.42726 -0.73079 24.9897
4989374 7.32174 5.78187 7.38585 4.50028 -4.42726 -0.73079 24.9897
4989384 7.13913 5.83791 7.30215 4.64062 -3.97551 -0.622562 24.9198
4989394 7.03478 5.80055 7.28123 4.78096 -3.74988 -0.465794 24.8975
4989404 7.03478 5.80055 7.28123 4.78096 -3.74988 -0.465794 24.8975
4989414 6.88696 5.98736 7.12431 5.03357 -2.98648 -0.429311 25.0322
4989435 6.66087 6.09945 6.95692 5.23005 -2.29313 -0.344735 24.9473
4989445 6.4087 6.23022 6.89415 5.47331 -1.59892 -0.162831 25.0064
4989455 6.4087 6.23022 6.89415 5.47331 -1.59892 -0.162831 25.0064
4989467 6.2 6.28626 6.77908 5.73528 -0.957511 0.016855 25.0006
4989477 6.11304 6.4544 6.84185 5.94111 -0.551648 0.127525 25.3504
4989487 6.11304 6.4544 6.84185 5.94111 -0.551648 0.127525 25.3504
4989497 5.95652 6.57582 6.8 6.12823 -0.0515148 0.233236 25.4606
4989507 5.95652 6.57582 6.8 6.12823 -0.0515148 0.233236 25.4606
4989517 5.81739 6.62253 6.65354 6.1563 0.304857 0.219757 25.2498
4989527 5.75652 6.64121 6.60123 6.24986 0.528064 0.269337 25.2488
4989537 5.75652 6.64121 6.60123 6.24986 0.528064 0.269337 25.2488
4989547 5.55652 6.76264 6.37108 6.26857 1.10544 0.192615 24.9588
4989557 5.4087 6.85604 6.24554 6.38085 1.58958 0.217937 24.8911
4989568 5.4087 6.85604 6.24554 6.38085 1.58958 0.217937 24.8911
4989577 5.33913 7.08022 6.09908 6.46505 2.10846 0.086925 24.9835
4989587 5.33913 7.08022 6.09908 6.46505 2.10846 0.086925 24.9835
4989597 5.12174 7.12692 6.05723 6.67089 2.62128 0.287941 24.9768
4989607 5.03478 7.32308 5.94215 6.82994 3.15966 0.247255 25.13
4989618 5.03478 7.32308 5.94215 6.82994 3.15966 0.247255 25.13
4989628 4.94783 7.52857 5.81662 6.91414 3.64805 0.151362 25.2072
4989638 4.86957 7.70604 5.65969 6.97964 4.12099 0.037905 25.2149
4989648 4.86957 7.70604 5.65969 6.97964 4.12099 0.037905 25.2149
4989658 4.76522 7.93022 5.44 7.01706 4.71331 -0.142158 25.1525
4989669 4.76522 7.93022 5.44 7.01706 4.71331 -0.142158 25.1525
4989678 4.69565 8.08901 5.27262 7.04513 5.1448 -0.279007 25.1024
4989688 4.63478 8.21044 5.05292 7.05449 5.58781 -0.443529 24.9526
4989698 4.63478 8.21044 5.05292 7.05449 5.58781 -0.443529 24.9526
4989708 4.66087 8.34121 4.97969 7.11062 5.78987 -0.545043 25.0924
4989718 4.55652 8.40659 4.91692 7.21354 6.12376 -0.497729 25.0936
4989728 4.55652 8.40659 4.91692 7.21354 6.12376 -0.497729 25.0936
4989738 4.46087 8.53736 4.83323 7.25096 6.47289 -0.546621 25.0824
4989750 4.46087 8.53736 4.83323 7.25096 6.47289 -0.546621 25.0824
4989758 4.32174 8.59341 4.82277 7.25096 6.70284 -0.505072 24.9889
4989769 4.3913 8.76154 4.78092 7.24161 6.78333 -0.673464 25.1754
4989779 4.3913 8.76154 4.78092 7.24161 6.78333 -0.673464 25.1754
4989789 4.37391 8.73352 4.67631 7.26032 6.9314 -0.701246 25.0441
4989803 4.41739 8.86429 4.60308 7.22289 7.03641 -0.869679 25.1076
4989809 4.41739 8.86429 4.60308 7.22289 7.03641 -0.869679 25.1076
4989819 4.36522 8.82692 4.60308 7.18547 7.04955 -0.842807 24.9807
4989831 4.36522 8.82692 4.52985 7.1574 7.12363 -0.907313 24.8794
4989843 4.36522 8.91099 4.52985 7.1574 7.18383 -0.954771 24.9635
4989850 4.4 8.99506 4.50892 7.21354 7.26552 -0.998861 25.1175
4989870 4.4087 9.10714 4.46708 7.27903 7.43252 -1.05083 25.2619
4989882 4.36522 9.17253 4.45662 7.1574 7.46279 -1.14727 25.1518
4989891 4.36522 9.17253 4.45662 7.1574 7.46279 -1.14727 25.1518
4989902 4.4 9.22857 4.34154 7.18547 7.62505 -1.25314 25.1556
4989910 4.32174 9.28462 4.26831 7.14805 7.8355 -1.31281 25.0227
4989923 4.32174 9.28462 4.26831 7.14805 7.8355 -1.31281 25.0227
4989932 4.34783 9.35934 4.22646 7.17611 7.92637 -1.37671 25.1097
4989942 4.34783 9.35934 4.22646 7.17611 7.92637 -1.37671 25.1097
4989951 4.28696 9.42473 4.24738 7.09191 7.96605 -1.42054 25.051
4989963 4.30435 9.53681 4.16369 7.16676 8.17938 -1.49616 25.1716
4989983 4.26087 9.51813 4.02769 7.16676 8.40525 -1.55238 24.9735
4989992 4.25217 9.58352 4.04862 7.14805 8.41988 -1.58137 25.0324
4990003 4.25217 9.58352 4.04862 7.14805 8.41988 -1.58137 25.0324
4990012 4.26087 9.70494 3.99631 7.17611 8.57646 -1.66682 25.1382
4990024 4.26087 9.70494 3.99631 7.17611 8.57646 -1.66682 25.1382
4990032 4.15652 9.78901 3.97538 7.19483 8.81114 -1.65752 25.1157
4990042 4.2087 9.77967 3.96492 7.13869 8.71269 -1.72451 25.092
4990053 4.2087 9.77967 3.96492 7.13869 8.71269 -1.72451 25.092
4990063 4.22609 9.8544 3.944 7.08255 8.72949 -1.82454 25.107
4990073 4.2 9.9478 3.83938 7.06384 8.95399 -1.94278 25.051
4990084 4.2 9.9478 3.83938 7.06384 8.95399 -1.94278 25.051
4990093 4.15652 9.91978 3.87077 7.03577 8.93439 -1.90316 24.9828
4990123 4.21739 9.97582 3.83938 6.99835 8.90637 -2.0108 25.0309
4990133 4.21739 9.97582 3.83938 6.99835 8.90637 -2.0108 25.0309
4990143 4.16522 9.91978 3.91262 7.03577 8.86588 -1.87946 25.0334
4990153 4.24348 9.9478 3.90215 7.04513 8.79853 -1.93567 25.1386
4990163 4.24348 9.9478 3.90215 7.04513 8.79853 -1.93567 25.1386
4990173 4.23478 9.92912 3.98585 6.95157 8.6251 -1.92808 25.1013
4990183 4.23478 9.92912 3.98585 6.95157 8.6251 -1.92808 25.1013
4990194 4.26087 9.82637 3.95446 6.96092 8.57106 -1.90291 25.0026
4990206 4.33913 9.84505 4.02769 6.89543 8.33787 -1.94827 25.1073
4990225 4.37391 9.80769 4.03815 6.79252 8.18413 -2.00957 25.0123
4990234 4.48696 9.76099 4.06954 6.68024 7.88545 -2.09909 24.9977
4990246 4.48696 9.76099 4.06954 6.68024 7.88545 -2.09909 24.9977
4990255 4.48696 9.66758 4.08 6.70831 7.82683 -2.02436 24.9429
4990276 4.56522 9.61154 4.13231 6.63346 7.56487 -2.05131 24.9425
4990285 4.62609 9.59286 4.26831 6.63346 7.29669 -1.98074 25.1207
4990296 4.62609 9.59286 4.26831 6.63346 7.29669 -1.98074 25.1207
4990305 4.72174 9.49945 4.24738 6.65217 7.14798 -1.9834 25.1207
4990316 4.70435 9.47143 4.38338 6.55861 6.90976 -1.93117 25.1178
4990325 4.70435 9.47143 4.38338 6.55861 6.90976 -1.93117 25.1178
4990335 4.78261 9.38736 4.488 6.51183 6.58387 -1.88925 25.1698
4990357 4.81739 9.32198 4.61354 6.47441 6.3081 -1.81436 25.2273
4990367 4.92174 9.23791 4.51938 6.34342 6.1347 -1.97633 25.0225
4990377 4.92174 9.23791 4.51938 6.34342 6.1347 -1.97633 25.0225
4990387 4.98261 9.14451 4.61354 6.22179 5.77883 -1.97804 24.9624
4990396 4.98261 9.01374 4.73908 6.306 5.58879 -1.76783 25.0414
4990408 4.98261 9.01374 4.73908 6.306 5.58879 -1.76783 25.0414
4990422 4.97391 8.91099 4.90646 6.33407 5.3379 -1.5787 25.1254
4990428 4.97391 8.73352 4.94831 6.37149 5.17715 -1.43102 25.0272
4990438 4.97391 8.73352 4.94831 6.37149 5.17715 -1.43102 25.0272
4990448 5.07826 8.70549 5.14708 6.26857 4.71115 -1.40962 25.1994
4990460 5.07826 8.70549 5.14708 6.26857 4.71115 -1.40962 25.1994
4990468 5.02609 8.51868 5.29354 6.27793 4.45627 -1.1785 25.1162
4990481 5.05217 8.4533 5.39815 6.26857 4.24232 -1.0957 25.1722
4990489 5.05217 8.4533 5.39815 6.26857 4.24232 -1.0957 25.1722
4990501 5.09565 8.37857 5.47138 6.35278 4.1152 -0.978359 25.2984
4990509 5.07826 8.18242 5.69108 6.37149 3.73626 -0.709689 25.3232
4990530 5.14783 7.98626 5.82708 6.35278 3.32242 -0.565439 25.3139
4990542 5.12174 7.77143 5.97354 6.306 2.96169 -0.365653 25.1727
4990551 5.12174 7.77143 5.97354 6.306 2.96169 -0.365653 25.1727
4990561 5.14783 7.61264 6.13046 6.25922 2.57809 -0.221142 25.1501
4990570 5.14783 7.61264 6.13046 6.25922 2.57809 -0.221142 25.1501
4990581 5.13043 7.45385 6.27692 6.23115 2.26925 -0.0455555 25.0924
4990596 5.22609 7.22967 6.56985 6.22179 1.63931 0.199555 25.2474
4990614 5.24348 7.0522 6.69538 6.18437 1.28866 0.348006 25.1754
4990623 5.24348 7.0522 6.69538 6.18437 1.28866 0.348006 25.1754
4990631 5.26957 6.78132 7.06154 6.21244 0.654152 0.724441 25.3249
4990642 5.31304 6.65989 7.26031 6.17501 0.257349 0.863333 25.4083
4990650 5.31304 6.65989 7.26031 6.17501 0.257349 0.863333 25.4083
4990660 5.37391 6.40769 7.41723 6.06274 -0.317389 1.00847 25.2616
4990670 5.4087 6.34231 7.54277 6.05338 -0.548162 1.09193 25.3472
4990683 5.4087 6.34231 7.54277 6.05338 -0.548162 1.09193 25.3472
4990690 5.4087 6.2489 7.74154 6.0721 -0.813897 1.26969 25.4712
4990700 5.4087 6.2489 7.74154 6.0721 -0.813897 1.26969 25.4712
4990710 5.33043 6.08077 7.74154 5.96918 -1.01706 1.37301 25.1219
4990724 5.35652 5.9967 7.78338 6.0721 -1.06224 1.48892 25.2087
4990730 5.35652 5.9967 7.78338 6.0721 -1.06224 1.48892 25.2087
4990740 5.36522 6.04341 7.84615 6.0066 -1.14934 1.45131 25.2614
4990750 5.4087 6.06209 7.84615 5.96918 -1.20974 1.39081 25.2861
4990760 5.4087 6.06209 7.84615 5.96918 -1.20974 1.39081 25.2861
4990771 5.43478 6.10879 7.888 5.96918 -1.22517 1.36626 25.4008
4990780 5.43478 6.10879 7.888 5.96918 -1.22517 1.36626 25.4008
4990791 5.49565 6.12747 7.86708 5.9224 -1.29154 1.27871 25.4126
4990800 5.52174 6.15549 7.86708 5.85691 -1.35468 1.20865 25.4012
4990812 5.52174 6.15549 7.86708 5.85691 -1.35468 1.20865 25.4012
4990823 5.55652 6.17418 7.91938 5.78206 -1.49385 1.16235 25.4321
4990831 5.5913 6.12747 7.87754 5.74463 -1.57525 1.12667 25.341
4990842 5.5913 6.12747 7.87754 5.74463 -1.57525 1.12667 25.341
4990852 5.61739 6.15549 7.91938 5.61365 -1.74626 1.04332 25.3059
4990862 5.61739 6.15549 7.91938 5.61365 -1.74626 1.04332 25.3059
4990872 5.66957 6.17418 7.84615 5.56687 -1.75663 0.931998 25.2568
4990882 5.73043 6.16483 7.90892 5.48266 -1.96926 0.887606 25.2869
4990892 5.73043 6.16483 7.90892 5.48266 -1.96926 0.887606 25.2869
4990902 5.73913 6.18352 7.90892 5.35168 -2.09749 0.796931 25.1832
4990912 5.88696 6.15549 7.95077 5.29554 -2.35944 0.714068 25.2888
4990923 5.88696 6.15549 7.95077 5.29554 -2.35944 0.714068 25.2888
4990933 5.89565 6.10879 7.92985 5.22069 -2.48064 0.68342 25.155
4990943 5.89565 6.10879 7.92985 5.22069 -2.48064 0.68342 25.155
4990953 5.98261 6.12747 7.98215 5.11778 -2.69686 0.588961 25.21
4990963 6.05217 6.04341 8.03446 5.12713 -2.88641 0.633096 25.2572
4990973 6.05217 6.04341 8.03446 5.12713 -2.88641 0.633096 25.2572
4990983 6.13913 6.07143 7.97169 5.02422 -2.99048 0.46735 25.2065
4990993 6.16522 6.06209 8.00308 4.89323 -3.19717 0.399427 25.1236
4991003 6.16522 6.06209 8.00308 4.89323 -3.19717 0.399427 25.1236
4991013 6.22609 6.09011 7.97169 4.87452 -3.21228 0.315955 25.1624
4991024 6.22609 6.09011 7.97169 4.87452 -3.21228 0.315955 25.1624
4991033 6.25217 5.95934 8.00308 4.84645 -3.44106 0.381875 25.061
4991044 6.29565 6.06209 8.11815 4.79967 -3.51332 0.332386 25.2756
4991054 6.29565 6.06209 8.11815 4.79967 -3.51332 0.332386 25.2756
4991064 6.31304 5.95 8.10769 4.7716 -3.67819 0.367658 25.1423
4991074 6.4 5.95934 8.23323 4.75289 -3.86756 0.370942 25.3455
4991084 6.4 5.95934 8.23323 4.75289 -3.86756 0.370942 25.3455
4991095 6.47826 5.96868 8.22277 4.69675 -3.9773 0.27945 25.3665
4991106 6.52174 5.91264 8.24369 4.63126 -4.16994 0.261115 25.3093
4991116 6.52174 5.91264 8.24369 4.63126 -4.16994 0.261115 25.3093
4991128 6.54783 5.89396 8.34831 4.54706 -4.39584 0.268527 25.3371
4991135 6.54783 5.89396 8.34831 4.54706 -4.39584 0.268527 25.3371
4991146 6.55652 5.84725 8.37969 4.41607 -4.63589 0.233331 25.1995
4991156 6.66957 5.80055 8.46338 4.35058 -4.92585 0.203991 25.2841
4991166 6.66957 5.80055 8.46338 4.35058 -4.92585 0.203991 25.2841
4991176 6.72174 5.70714 8.53662 4.36929 -5.11344 0.282431 25.3348
4991186 6.7913 5.6044 8.51569 4.27573 -5.38656 0.23567 25.1871
4991196 6.7913 5.6044 8.51569 4.27573 -5.38656 0.23567 25.1871
4991207 6.85217 5.56703 8.59938 4.13539 -5.71394 0.18818 25.154
4991217 6.85217 5.56703 8.59938 4.13539 -5.71394 0.18818 25.154
4991233 7.0087 5.46429 8.54708 4.12603 -5.9308 0.11938 25.1461
4991242 7.11304 5.40824 8.58892 4.03247 -6.22572 0.0597256 25.1427
4991252 7.11304 5.40824 8.58892 4.03247 -6.22572 0.0597256 25.1427
4991257 7.16522 5.47363 8.63077 3.97633 -6.2842 -0.0188577 25.2459
4991267 7.23478 5.3522 8.67262 3.90149 -6.61112 -0.00767916 25.1611
4991277 7.23478 5.3522 8.67262 3.90149 -6.61112 -0.00767916 25.1611
4991287 7.27826 5.38022 8.65169 3.92955 -6.5573 -0.0459006 25.2397
4991297 7.27826 5.38022 8.65169 3.92955 -6.5573 -0.0459006 25.2397
4991307 7.33043 5.20275 8.59938 3.80793 -6.93565 -0.0757036 24.9405
4991317 7.4 5.15604 8.568 3.83599 -6.98713 -0.0913748 24.96
4991327 7.4 5.15604 8.568 3.83599 -6.98713 -0.0913748 24.96
4991338 7.44348 5.17473 8.68308 3.75179 -7.18479 -0.10977 25.0531
4991347 7.58261 5.10934 8.67262 3.75179 -7.35984 -0.159784 25.1164
4991358 7.58261 5.10934 8.67262 3.75179 -7.35984 -0.159784 25.1164
4991368 7.66957 5.15604 8.75631 3.77986 -7.38313 -0.17119 25.3618
4991378 7.66957 5.15604 8.75631 3.77986 -7.38313 -0.17119 25.3618
4991388 7.72174 5.08132 8.79815 3.70501 -7.63998 -0.177759 25.3062
4991398 7.85217 4.98791 8.77723 3.66758 -7.88406 -0.23449 25.2849
4991409 7.85217 4.98791 8.77723 3.66758 -7.88406 -0.23449 25.2849
4991420 7.89565 4.92253 8.77723 3.59274 -8.09669 -0.266919 25.1881
4991429 7.97391 4.87582 8.69354 3.46175 -8.3282 -0.416586 25.005
4991449 8.13043 4.81044 8.75631 3.48982 -8.52273 -0.413754 25.187
4991460 8.14783 4.81044 8.76677 3.48982 -8.54094 -0.417419 25.2149
4991470 8.14783 4.62363 8.76677 3.39626 -8.91808 -0.366014 24.9345
4991479 8.23478 4.52088 8.98646 3.43368 -9.20197 -0.199905 25.1758
4991491 8.23478 4.52088 8.98646 3.43368 -9.20197 -0.199905 25.1758
4991500 8.21739 4.45549 9.03877 3.41497 -9.3384 -0.130827 25.1266
4991511 8.33913 4.44615 9.112 3.35883 -9.54832 -0.186758 25.2561
4991521 8.33913 4.44615 9.112 3.35883 -9.54832 -0.186758 25.2561
4991532 8.46087 4.36209 9.04923 3.2372 -9.86763 -0.320511 25.1094
4991543 8.51304 4.31538 8.96554 3.22785 -9.92669 -0.380693 25.0218
4991562 8.50435 4.25 9.08062 3.2372 -10.0687 -0.261162 25.0722
4991582 8.53043 4.12857 9.112 3.22785 -10.2865 -0.191503 24.9989
4991592 8.5913 4.06319 9.248 3.19978 -10.5332 -0.123522 25.1023
4991603 8.5913 4.06319 9.248 3.19978 -10.5332 -0.123522 25.1023
4991613 8.64348 4.04451 9.30031 3.20914 -10.6064 -0.106286 25.1974
4991623 8.68696 3.93242 9.26892 3.22785 -10.7457 -0.0732225 25.1161
4991643 8.77391 4.02582 9.32123 3.19978 -10.7319 -0.165118 25.3207
4991654 8.85217 4.02582 9.37354 3.17171 -10.8446 -0.196325 25.4232
4991663 8.85217 3.91374 9.37354 3.17171 -11.0033 -0.130768 25.3112
4991674 8.91304 3.91374 9.40492 3.17171 -11.0541 -0.147702 25.4034
4991694 8.95652 3.82033 9.42585 3.12493 -11.2892 -0.13389 25.3276
4991704 8.98261 3.79231 9.47815 3.06879 -11.4522 -0.135041 25.3219
4991714 8.98261 3.79231 9.47815 3.06879 -11.4522 -0.135041 25.3219
4991724 9.04348 3.7456 9.39446 2.98459 -11.6295 -0.244376 25.1681
4991734 9.04348 3.66154 9.42585 2.96588 -11.7963 -0.187251 25.0967
4991744 9.04348 3.66154 9.42585 2.96588 -11.7963 -0.187251 25.0967
4991755 9.04348 3.57747 9.45723 2.98459 -11.9087 -0.107211 25.0628
4991766 9.04348 3.57747 9.45723 2.98459 -11.9087 -0.107211 25.0628
4991776 9.0087 3.57747 9.28985 2.90974 -11.9134 -0.233953 24.7858
4991786 9.05217 3.55879 9.40492 2.96588 -11.9411 -0.144204 24.9818
4991795 9.05217 3.55879 9.40492 2.96588 -11.9411 -0.144204 24.9818
4991805 9.06087 3.54945 9.45723 2.96588 -11.9867 -0.112177 25.0334
4991816 9.06956 3.62418 9.47815 2.90974 -11.9747 -0.182909 25.0816
4991836 9.02609 3.68956 9.54092 2.98459 -11.7792 -0.112991 25.2412
4991845 9.02609 3.68956 9.54092 2.98459 -11.7792 -0.112991 25.2412
4991857 8.93044 3.64286 9.55138 2.97523 -11.8165 -0.0278914 25.0999
4991868 8.90435 3.70824 9.50954 3.06879 -11.5487 -0.0203982 25.1909
4991879 8.90435 3.70824 9.50954 3.06879 -11.5487 -0.0203982 25.1909
4991891 8.91304 3.71758 9.49908 3.06879 -11.5342 -0.0373569 25.1985
4991902 8.87826 3.75495 9.58277 3.11558 -11.4388 0.038572 25.3316
4991909 8.87826 3.75495 9.58277 3.11558 -11.4388 0.038572 25.3316
4991917 8.8087 3.82967 9.49908 3.13429 -11.2218 -0.00296921 25.2717
4991927 8.8087 3.82967 9.49908 3.13429 -11.2218 -0.00296921 25.2717
4991937 8.7913 3.77363 9.50954 3.04073 -11.4338 -0.0087592 25.1152
4991948 8.73913 3.85769 9.56185 3.11558 -11.2048 0.0478327 25.2742
4991958 8.73913 3.85769 9.56185 3.11558 -11.2048 0.0478327 25.2742
4991968 8.70435 3.83901 9.53046 3.16236 -11.1283 0.0888348 25.2362
4991977 8.71304 3.7456 9.54092 3.153 -11.2865 0.140308 25.1526
4991987 8.71304 3.7456 9.54092 3.153 -11.2865 0.140308 25.1526
4991998 8.63478 3.77363 9.63508 3.14364 -11.2682 0.220535 25.1871
4992011 8.63478 3.77363 9.63508 3.14364 -11.2682 0.220535 25.1871
4992018 8.63478 3.67088 9.66646 3.14364 -11.4338 0.301271 25.1158
4992030 8.6 3.64286 9.69785 3.16236 -11.4455 0.368886 25.1031
4992038 8.6 3.64286 9.69785 3.16236 -11.4455 0.368886 25.1031
4992051 8.66087 3.63352 9.83385 3.14364 -11.5915 0.405453 25.2719
4992059 8.67826 3.63352 9.78154 3.19978 -11.4918 0.397069 25.2931
4992072 8.67826 3.63352 9.78154 3.19978 -11.4918 0.397069 25.2931
4992079 8.73043 3.6522 9.85477 3.16236 -11.5854 0.374705 25.3998
4992091 8.76522 3.6522 9.85477 3.16236 -11.6037 0.353678 25.4345
4992099 8.76522 3.63352 9.85477 3.13429 -11.6711 0.348784 25.3878
4992112 8.82609 3.58681 9.85477 3.18107 -11.7029 0.367171 25.4487
4992132 8.77391 3.60549 9.792 3.11558 -11.7104 0.313303 25.287
4992139 8.77391 3.66154 9.75015 3.01266 -11.7566 0.194871 25.1983
4992154 8.77391 3.66154 9.75015 3.01266 -11.7566 0.194871 25.1983
4992160 8.8087 3.58681 9.64554 3.0033 -11.8431 0.151731 25.0443
4992173 8.84348 3.56813 9.656 3.02201 -11.8668 0.159271 25.0896
4992181 8.84348 3.56813 9.656 3.02201 -11.8668 0.159271 25.0896
4992192 8.82609 3.54945 9.56185 3.0033 -11.8633 0.114037 24.9407
4992201 8.82609 3.54945 9.56185 3.0033 -11.8633 0.114037 24.9407
4992211 8.82609 3.48407 9.44677 2.95652 -11.9695 0.0565302 24.7134
4992220 8.93913 3.59615 9.47815 2.95652 -11.8789 -0.0604382 24.97
4992232 8.93913 3.59615 9.47815 2.95652 -11.8789 -0.0604382 24.97
4992242 8.97391 3.68956 9.46769 2.95652 -11.7543 -0.143053 25.0877
4992252 8.91304 3.67088 9.48862 3.01266 -11.6783 -0.0494197 25.0852
4992262 8.91304 3.67088 9.48862 3.01266 -11.6783 -0.0494197 25.0852
4992276 8.93044 3.73626 9.53046 3.0033 -11.6281 -0.0791252 25.2005
4992282 8.93044 3.73626 9.53046 3.0033 -11.6281 -0.0791252 25.2005
4992292 8.93044 3.79231 9.40492 3.05944 -11.3983 -0.153877 25.1871
4992302 8.94783 3.83901 9.41538 3.02201 -11.3999 -0.207799 25.2242
4992312 8.94783 3.83901 9.41538 3.02201 -11.3999 -0.207799 25.2242
4992322 8.90435 3.87637 9.384 3.07815 -11.2248 -0.189302 25.2429
4992333 8.90435 3.87637 9.32123 3.03137 -11.2578 -0.255509 25.1333
4992343 8.90435 3.87637 9.32123 3.03137 -11.2578 -0.255509 25.1333
4992353 8.81739 3.97912 9.18523 3.10622 -10.879 -0.301974 25.088
4992363 8.81739 3.97912 9.18523 3.10622 -10.879 -0.301974 25.088
4992377 8.8087 4.00714 9.15385 3.16236 -10.7363 -0.298207 25.132
4992383 8.7913 4.06319 9.14338 3.18107 -10.6145 -0.315763 25.1789
4992393 8.7913 4.06319 9.14338 3.18107 -10.6145 -0.315763 25.1789
4992403 8.75652 4.05385 9.02831 3.19042 -10.5283 -0.354569 25.0291
4992413 8.68696 4.15659 8.98646 3.20914 -10.2916 -0.388163 25.0391
4992423 8.68696 4.15659 8.98646 3.20914 -10.2916 -0.388163 25.0391
4992433 8.66957 4.22198 9.05969 3.25592 -10.1671 -0.342721 25.2072
4992443 8.66957 4.22198 9.05969 3.25592 -10.1671 -0.342721 25.2072
4992453 8.6087 4.23132 9.09108 3.22785 -10.1759 -0.310678 25.1589
4992463 8.58261 4.32473 9.01785 3.28398 -9.90884 -0.360288 25.2092
4992473 8.58261 4.32473 9.01785 3.28398 -9.90884 -0.360288 25.2092
4992484 8.6 4.37143 8.98646 3.27463 -9.8488 -0.422274 25.2325
4992493 8.49565 4.40879 8.95508 3.33077 -9.63781 -0.368357 25.1903
4992503 8.49565 4.40879 8.95508 3.33077 -9.63781 -0.368357 25.1903
4992532 8.54783 4.39945 8.82954 3.25592 -9.70929 -0.516417 25.0327
4992534 8.54783 4.39945 8.82954 3.25592 -9.70929 -0.516417 25.0327
4992538 8.54783 4.44615 8.80862 3.34948 -9.50301 -0.4985 25.1521
4992544 8.54783 4.49286 8.75631 3.29334 -9.48367 -0.592479 25.0903
4992558 8.54783 4.49286 8.75631 3.29334 -9.48367 -0.592479 25.0903
4992566 8.55652 4.49286 8.71446 3.26527 -9.50179 -0.641041 25.0291
4992578 8.53913 4.48352 8.60985 3.32141 -9.36131 -0.656044 24.9539
4992598 8.54783 4.52088 8.67262 3.2372 -9.47049 -0.69593 24.9785
4992615 8.5913 4.45549 8.67262 3.28398 -9.52315 -0.65403 25.0034
4992625 8.57391 4.45549 8.67262 3.33077 -9.44788 -0.614811 25.0328
4992635 8.57391 4.45549 8.67262 3.33077 -9.44788 -0.614811 25.0328
4992646 8.54783 4.52088 8.71446 3.29334 -9.41924 -0.634599 25.0765
4992656 8.61739 4.52088 8.58892 3.39626 -9.24353 -0.688455 25.1235
4992677 8.70435 4.53022 8.55754 3.36819 -9.30382 -0.780301 25.1603
4992687 8.70435 4.53022 8.55754 3.36819 -9.30382 -0.780301 25.1603
4992697 8.67826 4.52088 8.53662 3.32141 -9.35121 -0.802833 25.0572
4992707 8.64348 4.58626 8.58892 3.31205 -9.28553 -0.793112 25.1307
4992727 8.63478 4.49286 8.54708 3.37755 -9.29203 -0.720304 25.0523
4992737 8.66957 4.58626 8.52615 3.41497 -9.12262 -0.782658 25.197
4992749 8.66957 4.58626 8.52615 3.41497 -9.12262 -0.782658 25.197
4992757 8.66957 4.5489 8.49477 3.35883 -9.22999 -0.816564 25.0721
4992769 8.66957 4.5489 8.49477 3.35883 -9.22999 -0.816564 25.0721
4992777 8.66087 4.56758 8.50523 3.34012 -9.23115 -0.827418 25.0738
4992790 8.73043 4.58626 8.41108 3.34948 -9.17741 -0.930811 25.0773
4992810 8.72174 4.58626 8.51569 3.37755 -9.19957 -0.84208 25.2012
4992818 8.74783 4.53956 8.53662 3.34012 -9.34342 -0.840869 25.1641
4992832 8.74783 4.53956 8.53662 3.34012 -9.34342 -0.840869 25.1641
4992838 8.73913 4.5956 8.53662 3.27463 -9.35091 -0.908787 25.146
4992848 8.73913 4.5956 8.53662 3.27463 -9.35091 -0.908787 25.146
4992858 8.77391 4.60495 8.59938 3.34948 -9.297 -0.846897 25.3277
4992868 8.73043 4.52088 8.54708 3.36819 -9.3263 -0.796323 25.1666
4992879 8.73043 4.52088 8.54708 3.36819 -9.3263 -0.796323 25.1666
4992888 8.70435 4.48352 8.55754 3.29334 -9.47035 -0.800951 25.0387
4992898 8.66957 4.47418 8.50523 3.28398 -9.44196 -0.814902 24.933
4992918 8.64348 4.49286 8.52615 3.29334 -9.40004 -0.791503 24.9558
4992928 8.64348 4.49286 8.52615 3.29334 -9.40004 -0.791503 24.9558
4992938 8.57391 4.44615 8.47385 3.34012 -9.32338 -0.728494 24.834
4992948 8.51304 4.47418 8.48431 3.36819 -9.21406 -0.685227 24.8397
4992968 8.38261 4.5489 8.41108 3.43368 -8.89067 -0.657938 24.7763
4992979 8.29565 4.60495 8.39015 3.5366 -8.60368 -0.588371 24.8274
4992989 8.29565 4.60495 8.39015 3.5366 -8.60368 -0.588371 24.8274
4992999 8.22609 4.67967 8.48431 3.67694 -8.33145 -0.445512 25.067
4993009 8.22609 4.67967 8.48431 3.67694 -8.33145 -0.445512 25.067
4993020 8.11304 4.71703 8.51569 3.83599 -8.01742 -0.284961 25.1818
4993029 8 4.8011 8.62031 3.95762 -7.74417 -0.1319 25.379
4993039 8 4.8011 8.62031 3.95762 -7.74417 -0.1319 25.379
4993049 7.85217 4.88516 8.51569 4.02312 -7.37809 -0.117818 25.2761
4993059 7.74783 4.8478 8.432 4.08861 -7.2099 -0.0448045 25.1162
4993069 7.74783 4.8478 8.432 4.08861 -7.2099 -0.0448045 25.1162
4993081 7.64348 4.98791 8.432 4.17281 -6.85003 -0.0157973 25.2362
4993101 7.51304 4.95055 8.35877 4.33187 -6.549 0.135393 25.1542
4993111 7.45217 5.04396 8.35877 4.37865 -6.32922 0.14343 25.2335
4993122 7.45217 5.04396 8.35877 4.37865 -6.32922 0.14343 25.2335
4993129 7.41739 5.06264 8.27508 4.39736 -6.19469 0.114747 25.1525
4993147 7.33913 5.10934 8.25415 4.50028 -5.9355 0.182097 25.2029
4993156 7.33913 5.10934 8.25415 4.50028 -5.9355 0.182097 25.2029
4993173 7.36522 5.19341 8.19138 4.50028 -5.80481 0.0790322 25.2503
4993175 7.28696 5.23077 8.20185 4.5377 -5.66207 0.131738 25.2573
4993192 7.16522 5.24945 8.24369 4.57512 -5.53266 0.240245 25.2335
4993204 7.16522 5.24945 8.24369 4.57512 -5.53266 0.240245 25.2335
4993212 7.13913 5.24011 8.10769 4.58448 -5.40679 0.187225 25.0714
4993225 7.2087 5.23077 8.10769 4.66868 -5.37056 0.200416 25.2158
4993232 7.2087 5.23077 8.10769 4.66868 -5.37056 0.200416 25.2158
4993242 7.17391 5.29615 8.08677 4.66868 -5.2485 0.169702 25.2255
4993252 7.17391 5.29615 8.08677 4.66868 -5.2485 0.169702 25.2255
4993262 7.07826 5.27747 8.06585 4.6219 -5.23562 0.198864 25.0435
4993272 7.08696 5.32418 8.08677 4.69675 -5.11298 0.221708 25.1947
4993282 7.08696 5.32418 8.08677 4.69675 -5.11298 0.221708 25.1947
4993293 7.07826 5.29615 8.09723 4.70611 -5.1367 0.255539 25.1778
4993302 7.03478 5.28681 8.14954 4.72482 -5.13246 0.329078 25.196
4993314 7.03478 5.28681 8.14954 4.72482 -5.13246 0.329078 25.196
4993322 7.03478 5.26813 8.18092 4.66868 -5.24688 0.326028 25.1525
4993342 6.9913 5.26813 8.17046 4.66868 -5.20443 0.346459 25.0986
4993352 6.97391 5.24011 8.08677 4.69675 -5.12432 0.341733 24.9975
4993362 6.97391 5.24011 8.08677 4.69675 -5.12432 0.341733 24.9975
4993373 6.95652 5.33352 8.07631 4.6874 -5.00116 0.28359 25.0537
4993383 6.90435 5.32418 8.11815 4.71547 -4.97051 0.362157 25.0621
4993393 6.90435 5.32418 8.11815 4.71547 -4.97051 0.362157 25.0621
4993403 6.92174 5.41758 8.09723 4.71547 -4.85639 0.282308 25.152
4993413 6.92174 5.41758 8.09723 4.71547 -4.85639 0.282308 25.152
4993423 6.86957 5.38022 8.11815 4.81838 -4.75369 0.409001 25.1863
4993434 6.86087 5.48297 8.10769 4.87452 -4.55171 0.378095 25.326
4993443 6.86087 5.48297 8.10769 4.87452 -4.55171 0.378095 25.326
4993455 6.82609 5.40824 7.94031 4.81838 -4.54104 0.314704 24.993
4993463 6.67826 5.45495 7.91938 4.95872 -4.18209 0.446738 25.0113
4993473 6.67826 5.45495 7.91938 4.95872 -4.18209 0.446738 25.0113
4993483 6.70435 5.6511 7.77292 4.98679 -3.82178 0.241449 25.1152
4993503 6.51304 5.67912 7.60554 5.22069 -3.2164 0.38016 25.0184
4993513 6.41739 5.84725 7.49046 5.39846 -2.64589 0.372278 25.1536
4993525 6.41739 5.84725 7.49046 5.39846 -2.64589 0.372278 25.1536
4993533 6.33043 5.87527 7.33354 5.54816 -2.23273 0.404179 25.0874
4993543 6.24348 6.06209 7.18708 5.6885 -1.66789 0.339544 25.1811
4993553 6.24348 6.06209 7.18708 5.6885 -1.66789 0.339544 25.1811
4993564 6.25217 6.10879 7.21846 5.85691 -1.47912 0.421289 25.4363
4993574 6.25217 6.10879 7.21846 5.85691 -1.47912 0.421289 25.4363
4993584 6.13913 6.03407 7.01969 5.97854 -1.13842 0.491647 25.1714
4993594 6.04348 6.12747 6.89415 5.98789 -0.820529 0.425754 25.053
4993614 5.96522 6.18352 6.65354 6.05338 -0.384073 0.336857 24.8557
4993624 5.89565 6.22088 6.54892 6.18437 -0.0395656 0.372294 24.8498
4993634 5.89565 6.22088 6.54892 6.18437 -0.0395656 0.372294 24.8498
4993644 5.8087 6.35165 6.38154 6.24986 0.414732 0.28501 24.7917
4993654 5.8087 6.35165 6.38154 6.24986 0.414732 0.28501 24.7917
4993664 5.71304 6.46374 6.22462 6.46505 0.996453 0.309386 24.8664
4993674 5.69565 6.57582 6.17231 6.54926 1.25747 0.270127 24.993
4993686 5.69565 6.57582 6.17231 6.54926 1.25747 0.270127 24.993
4993695 5.67826 6.74396 5.984 6.62411 1.70373 0.111399 25.0303
4993705 5.58261 6.92143 5.87938 6.69895 2.1513 0.0444335 25.0824
4993716 5.58261 6.92143 5.87938 6.69895 2.1513 0.0444335 25.0824
4993726 5.53043 7.03352 5.79569 6.76445 2.45963 -0.0022763 25.1241
4993738 5.53043 7.03352 5.79569 6.76445 2.45963 -0.0022763 25.1241
4993747 5.47826 7.22033 5.74338 6.79252 2.76526 -0.0967079 25.2345
4993755 5.32174 7.27637 5.55508 6.90479 3.2967 -0.0827569 25.058
4993768 5.32174 7.27637 5.55508 6.90479 3.2967 -0.0827569 25.058
4993776 5.2 7.44451 5.51323 6.9235 3.64294 -0.12426 25.0812
4993785 5.15652 7.51923 5.40862 6.99835 3.93941 -0.16074 25.0827
4993812 5.06087 7.67802 5.38769 7.03577 4.23771 -0.188034 25.1624
4993815 5.06087 7.67802 5.38769 7.03577 4.23771 -0.188034 25.1624
4993825 4.91304 7.78077 5.35631 7.12933 4.60768 -0.124013 25.1795
4993839 4.85217 7.84615 5.32492 7.08255 4.73158 -0.173776 25.1058
4993847 4.85217 7.84615 5.32492 7.08255 4.73158 -0.173776 25.1058
4993857 4.73913 7.95824 5.23077 7.23225 5.18731 -0.139714 25.1604
4993867 4.65217 8.02363 5.10523 7.34452 5.58271 -0.13495 25.1256
4993877 4.65217 8.02363 5.10523 7.34452 5.58271 -0.13495 25.1256
4993887 4.55652 8.21978 4.96923 7.43808 6.0874 -0.219778 25.1836
4993907 4.35652 8.38791 4.84369 7.57843 6.72134 -0.19211 25.1666
4993917 4.29565 8.4533 4.66585 7.71877 7.17225 -0.21744 25.1336
4993928 4.29565 8.4533 4.66585 7.71877 7.17225 -0.21744 25.1336
4993938 4.2087 8.5467 4.58215 7.74684 7.47745 -0.254986 25.0844
4993949 4.01739 8.62143 4.52985 7.85911 7.9245 -0.149753 25.0278
4993958 4.01739 8.62143 4.52985 7.85911 7.9245 -0.149753 25.0278
4993968 3.9913 8.70549 4.45662 7.84975 8.1063 -0.23423 25.0032
4993979 3.9913 8.70549 4.45662 7.84975 8.1063 -0.23423 25.0032
4993988 3.88696 8.71484 4.41477 8.02752 8.42577 -0.095534 25.0441
4994001 3.92174 8.78022 4.47754 8.10237 8.38873 -0.072417 25.2819
4994008 3.92174 8.78022 4.47754 8.10237 8.38873 -0.072417 25.2819
4994018 3.8 8.83626 4.39385 8.19593 8.75915 -0.0276437 25.226
4994028 3.73913 8.8456 4.44615 8.26142 8.81863 0.0728524 25.2923
4994038 3.73913 8.8456 4.44615 8.26142 8.81863 0.0728524 25.2923
4994049 3.73913 8.86429 4.43569 8.25206 8.83858 0.0500214 25.2912
4994059 3.70435 8.81758 4.45662 8.29884 8.85719 0.138581 25.2774
4994069 3.70435 8.81758 4.45662 8.29884 8.85719 0.138581 25.2774
4994079 3.66957 8.78956 4.41477 8.34562 8.97207 0.179188 25.2195
4994090 3.66957 8.78956 4.41477 8.34562 8.97207 0.179188 25.2195
4994099 3.62609 8.74286 4.43569 8.32691 8.96084 0.23496 25.1315
4994111 3.6 8.74286 4.43569 8.36434 9.01994 0.272745 25.1429
4994119 3.6 8.74286 4.43569 8.36434 9.01994 0.272745 25.1429
4994133 3.53043 8.74286 4.42523 8.39241 9.14633 0.325423 25.0909
4994139 3.49565 8.72418 4.45662 8.41112 9.15097 0.387386 25.0876
4994149 3.49565 8.72418 4.45662 8.41112 9.15097 0.387386 25.0876
4994161 3.50435 8.71484 4.45662 8.5421 9.21565 0.463679 25.2179
4994171 3.50435 8.71484 4.45662 8.5421 9.21565 0.463679 25.2179
4994180 3.44348 8.7522 4.38338 8.59824 9.45651 0.468248 25.1773
4994191 3.46957 8.7989 4.41477 8.56081 9.38378 0.42017 25.244
4994211 3.45217 8.85495 4.39385 8.56081 9.47057 0.384498 25.2618
4994221 3.41739 8.77088 4.33108 8.57953 9.56411 0.431693 25.0989
4994242 3.4087 8.81758 4.32062 8.55146 9.60196 0.385959 25.0984
4994250 3.4087 8.81758 4.32062 8.55146 9.60196 0.385959 25.0984
4994263 3.35652 8.72418 4.24738 8.51403 9.69553 0.411029 24.8421
4994272 3.41739 8.78956 4.33108 8.4579 9.50054 0.349272 24.9959
4994285 3.41739 8.78956 4.33108 8.4579 9.50054 0.349272 24.9959
4994292 3.47826 8.82692 4.37292 8.36434 9.32425 0.258805 25.0424
4994302 3.52174 8.8456 4.27877 8.3082 9.37042 0.132018 24.9543
4994312 3.52174 8.8456 4.27877 8.3082 9.37042 0.132018 24.9543
4994322 3.55652 8.8456 4.45662 8.29884 9.07411 0.210673 25.1576
4994342 3.6087 8.86429 4.488 8.26142 8.9494 0.164402 25.2224
4994354 3.6087 8.88297 4.488 8.24271 8.94938 0.142162 25.2224
4994362 3.6087 8.88297 4.488 8.24271 8.94938 0.142162 25.2224
4994372 3.74783 8.94835 4.40431 8.23335 8.91058 -0.0346497 25.3338
4994383 3.69565 8.85495 4.45662 8.13979 8.79078 0.0273246 25.147
4994393 3.69565 8.85495 4.45662 8.13979 8.79078 0.0273246 25.147
4994403 3.7913 8.94835 4.41477 8.10237 8.75471 -0.132156 25.2568
4994429 3.77391 8.94835 4.39385 8.02752 8.75779 -0.17951 25.1436
4994449 3.83478 9.03242 4.44615 8.03687 8.66694 -0.227319 25.3502
4994450 3.83478 9.03242 4.44615 8.03687 8.66694 -0.227319 25.3502
4994458 3.87826 9.01374 4.26831 7.96203 8.7862 -0.395064 25.1223
4994464 3.93043 9.06978 4.27877 7.7749 8.61691 -0.566704 25.0539
4994474 3.93043 9.06978 4.27877 7.7749 8.61691 -0.566704 25.0539
4994485 4 9.11648 4.28923 7.74684 8.52209 -0.644319 25.1525
4994495 4.03478 9.10714 4.25785 7.64392 8.44367 -0.742798 25.0437
4994515 4.07826 9.07912 4.23692 7.64392 8.39502 -0.764754 25.0382
4994525 4.07826 9.07912 4.23692 7.64392 8.39502 -0.764754 25.0382
4994535 4.12174 9.12582 4.216 7.56907 8.34626 -0.87635 25.0326
4994547 4.12174 9.15385 4.23692 7.46615 8.2684 -0.944311 24.9787
4994559 4.12174 9.15385 4.23692 7.46615 8.2684 -0.944311 24.9787
4994567 4.22609 9.11648 4.28923 7.37259 7.97235 -1.00827 25.0044
4994577 4.2087 9.11648 4.33108 7.38195 7.94652 -0.965816 25.0382
4994589 4.2087 9.11648 4.33108 7.38195 7.94652 -0.965816 25.0382
4994597 4.26087 9.16319 4.28923 7.36324 7.95198 -1.05971 25.0765
4994610 4.26087 9.16319 4.28923 7.36324 7.95198 -1.05971 25.0765
4994617 4.30435 9.17253 4.33108 7.26968 7.78261 -1.12219 25.0776
4994627 4.33043 9.22857 4.29969 7.24161 7.80872 -1.20579 25.1003
4994647 4.34783 9.21923 4.31015 7.13869 7.69505 -1.27012 25.0159
4994657 4.4 9.23791 4.18462 7.11998 7.79119 -1.40322 24.9425
4994668 4.4 9.23791 4.18462 7.11998 7.79119 -1.40322 24.9425
4994678 4.43478 9.3033 4.20554 7.01706 7.69214 -1.51167 24.9607
4994688 4.43478 9.3033 4.20554 7.01706 7.69214 -1.51167 24.9607
4994698 4.46087 9.3033 4.20554 7.01706 7.658 -1.52575 24.9868
4994708 4.49565 9.36868 4.18462 7.02642 7.69164 -1.58719 25.0754
4994728 4.43478 9.34066 4.16369 6.99835 7.75994 -1.57197 24.9375
4994738 4.53043 9.32198 4.15323 6.89543 7.56367 -1.68893 24.9011
4994748 4.53043 9.32198 4.15323 6.89543 7.56367 -1.68893 24.9011
4994760 4.54783 9.36868 4.17415 6.82058 7.49389 -1.75931 24.9112
4994781 4.55652 9.35 4.22646 6.84865 7.42112 -1.70009 24.9816
4994788 4.57391 9.35934 4.216 6.8393 7.41212 -1.72757 24.9885
4994808 4.62609 9.40604 4.24738 6.81123 7.31724 -1.77766 25.0907
4994818 4.61739 9.41538 4.25785 6.85801 7.35443 -1.73981 25.1486
4994829 4.61739 9.41538 4.25785 6.85801 7.35443 -1.73981 25.1486
4994839 4.63478 9.35 4.25785 6.82994 7.26622 -1.73317 25.0726
4994849 4.64348 9.35 4.27877 6.82994 7.22815 -1.72382 25.1022
4994859 4.64348 9.33132 4.27877 6.78316 7.18168 -1.74516 25.0367
4994869 4.61739 9.35 4.352 6.82058 7.1611 -1.66755 25.14
4994879 4.61739 9.35 4.352 6.82058 7.1611 -1.66755 25.14
4994893 4.72174 9.25659 4.31015 6.75509 6.96765 -1.74481 25.0436
4994899 4.66957 9.21923 4.352 6.7738 6.9674 -1.65683 25.0146
4994914 4.66957 9.21923 4.352 6.7738 6.9674 -1.65683 25.0146
4994921 4.75652 9.16319 4.41477 6.72702 6.70243 -1.66266 25.0615
4994931 4.75652 9.16319 4.41477 6.72702 6.70243 -1.66266 25.0615
4994940 4.77391 9.12582 4.38338 6.68024 6.65853 -1.70416 24.9634
4994950 4.76522 9.14451 4.44615 6.69895 6.61758 -1.65514 25.0548
4994960 4.76522 9.14451 4.44615 6.69895 6.61758 -1.65514 25.0548
4994970 4.8 9.04176 4.52985 6.68024 6.37892 -1.57573 25.0518
4994981 4.78261 8.97637 4.55077 6.66153 6.31178 -1.52977 24.9713
4995002 4.85217 8.87363 4.66585 6.66153 6.00436 -1.436 25.0532
4995025 4.88696 8.76154 4.64492 6.65217 5.89466 -1.41392 24.9456
4995031 4.89565 8.7522 4.77046 6.68024 5.74368 -1.31311 25.0986
4995040 4.89565 8.7522 4.77046 6.68024 5.74368 -1.31311 25.0986
4995051 4.93913 8.74286 4.82277 6.59604 5.5546 -1.35246 25.1008
4995060 4.92174 8.68681 4.85415 6.59604 5.49405 -1.29198 25.0587
4995085 4.9913 8.64011 4.896 6.60539 5.32988 -1.27126 25.1328
4995103 5.04348 8.59341 4.88554 6.5399 5.19135 -1.32357 25.0623
4995104 5.04348 8.59341 4.88554 6.5399 5.19135 -1.32357 25.0623
4995123 5.04348 8.59341 4.93785 6.49312 5.09139 -1.31997 25.0679
4995135 5.12174 8.5 4.96923 6.43698 4.8406 -1.32783 25.028
4995143 5.06087 8.44396 5.01108 6.39956 4.78776 -1.26078 24.9155
4995156 5.06087 8.44396 5.01108 6.39956 4.78776 -1.26078 24.9155
4995163 5.25217 8.46264 5.14708 6.31535 4.34791 -1.34191 25.1772
4995173 5.26087 8.35055 5.12615 6.31535 4.26984 -1.2992 25.0529
4995183 5.26087 8.35055 5.12615 6.31535 4.26984 -1.2992 25.0529
4995193 5.33043 8.28516 5.29354 6.26857 3.90203 -1.22339 25.1777
4995203 5.33043 8.28516 5.29354 6.26857 3.90203 -1.22339 25.1777
4995213 5.3913 8.18242 5.36677 6.17501 3.58281 -1.21356 25.1155
4995223 5.44348 8.1544 5.41908 6.17501 3.44044 -1.19311 25.192
4995233 5.44348 8.1544 5.41908 6.17501 3.44044 -1.19311 25.192
4995243 5.45217 8.07033 5.45046 6.13759 3.29073 -1.15556 25.1106
4995253 5.45217 8.07033 5.45046 6.13759 3.29073 -1.15556 25.1106
4995264 5.52174 7.96758 5.55508 6.09081 2.96554 -1.10011 25.1352
4995273 5.50435 7.93956 5.60738 6.05338 2.8692 -1.06542 25.1047
4995286 5.50435 7.93956 5.60738 6.05338 2.8692 -1.06542 25.1047
4995293 5.53043 7.86484 5.63877 6.04403 2.73113 -1.02428 25.0781
4995304 5.61739 7.76209 5.80615 5.9224 2.25121 -0.986293 25.108
4995313 5.61739 7.76209 5.80615 5.9224 2.25121 -0.986293 25.108
4995323 5.65217 7.6967 5.82708 5.90369 2.11441 -0.967783 25.0796
4995333 5.65217 7.6967 5.82708 5.90369 2.11441 -0.967783 25.0796
4995343 5.73913 7.64066 5.78523 5.78206 1.90238 -1.08981 24.9471
4995354 5.89565 7.51923 6.00492 5.75399 1.36317 -0.986722 25.1738
4995364 5.89565 7.51923 6.00492 5.75399 1.36317 -0.986722 25.1738
4995375 5.97391 7.50055 6.04677 5.623 1.09654 -1.0766 25.1442
4995383 6.01739 7.36978 6.08862 5.50138 0.765851 -1.07929 24.9772
4995403 6.10435 7.28571 6.15138 5.40781 0.438687 -1.10075 24.9493
4995414 6.10435 7.28571 6.15138 5.40781 0.438687 -1.10075 24.9493
4995424 6.12174 7.22967 6.21415 5.34232 0.236973 -1.08094 24.9079
4995434 6.23478 7.1456 6.26646 5.33297 -0.0226915 -1.06944 24.9798
4995444 6.23478 7.1456 6.26646 5.33297 -0.0226915 -1.06944 24.9798
4995454 6.28696 7.10824 6.41292 5.25812 -0.332637 -1.03176 25.0662
4995464 6.37391 7.0522 6.35015 5.20198 -0.470296 -1.12536 24.9782
4995474 6.37391 7.0522 6.35015 5.20198 -0.470296 -1.12536 24.9782
4995484 6.46957 7.0522 6.392 5.18327 -0.623678 -1.16338 25.097
4995494 6.46957 7.0522 6.392 5.18327 -0.623678 -1.16338 25.097
4995508 6.47826 7.01484 6.41292 5.09906 -0.777127 -1.18842 25.0051
4995514 6.61739 6.95879 6.44431 5.05228 -1.04758 -1.24413 25.0728
4995534 6.62609 6.98681 6.49662 4.96808 -1.1642 -1.28493 25.0776
4995544 6.68696 6.92143 6.45477 4.87452 -1.34914 -1.37088 24.9377
4995555 6.68696 6.92143 6.45477 4.87452 -1.34914 -1.37088 24.9377
4995565 6.82609 6.91209 6.54892 4.76225 -1.69733 -1.45334 25.0493
4995576 6.82609 6.91209 6.54892 4.76225 -1.69733 -1.45334 25.0493
4995585 6.86957 6.80934 6.60123 4.67804 -1.98674 -1.44219 24.9582
4995596 6.93913 6.74396 6.664 4.63126 -2.22984 -1.43394 24.9783
4995605 6.93913 6.74396 6.664 4.63126 -2.22984 -1.43394 24.9783
4995617 6.93043 6.65055 6.76862 4.54706 -2.51183 -1.36483 24.8967
4995627 6.97391 6.5478 6.77908 4.52834 -2.69527 -1.33772 24.8291
4995647 7.09565 6.5011 6.8 4.43478 -2.97985 -1.42679 24.8315
4995657 7.13913 6.48242 6.92554 4.46285 -3.11816 -1.33936 25.0099
4995667 7.13913 6.48242 6.92554 4.46285 -3.11816 -1.33936 25.0099
4995678 7.24348 6.37967 7.03015 4.41607 -3.46827 -1.30254 25.0694
4995687 7.24348 6.37967 7.03015 4.41607 -3.46827 -1.30254 25.0694
4995697 7.22609 6.35165 7.10338 4.35058 -3.62265 -1.27265 25.0317
4995706 7.24348 6.26758 7.14523 4.27573 -3.85588 -1.25748 24.932
4995716 7.24348 6.26758 7.14523 4.27573 -3.85588 -1.25748 24.932
4995733 7.26087 6.27692 7.14523 4.29444 -3.8382 -1.26001 24.9775
4995737 7.33043 6.17418 7.18708 4.27573 -4.07291 -1.22668 24.9674
4995749 7.33043 6.17418 7.18708 4.27573 -4.07291 -1.22668 24.9674
4995758 7.33913 6.13681 7.38585 4.21959 -4.3544 -1.11866 25.0814
4995772 7.33913 6.13681 7.38585 4.21959 -4.3544 -1.11866 25.0814
4995778 7.4 6.07143 7.44862 4.17281 -4.58734 -1.10589 25.0929
4995788 7.41739 6.02473 7.55323 4.14474 -4.7744 -1.04065 25.1401
4995798 7.41739 6.02473 7.55323 4.14474 -4.7744 -1.04065 25.1401
4995808 7.46087 5.95 7.59508 4.13539 -4.94262 -1.00257 25.1413
4995828 7.51304 5.89396 7.72062 4.07925 -5.21728 -0.956367 25.2069
4995838 7.54783 5.72582 7.83569 3.99505 -5.6391 -0.862148 25.1044
4995848 7.54783 5.72582 7.83569 3.99505 -5.6391 -0.862148 25.1044
4995858 7.5913 5.6044 7.86708 3.86406 -6.0075 -0.881316 24.9268
4995868 7.68696 5.50165 8.05538 3.90149 -6.30253 -0.734763 25.1455
4995878 7.68696 5.50165 8.05538 3.90149 -6.30253 -0.734763 25.1455
4995888 7.72174 5.3989 8.09723 3.83599 -6.56992 -0.710918 25.0539
4995898 7.72174 5.3989 8.09723 3.83599 -6.56992 -0.710918 25.0539
4995908 7.8087 5.26813 8.17046 3.83599 -6.85221 -0.640092 25.0833
4995918 7.91304 5.17473 8.20185 3.86406 -7.03287 -0.609371 25.1537
4995929 7.91304 5.17473 8.20185 3.86406 -7.03287 -0.609371 25.1537
4995938 7.86957 4.95989 8.21231 3.81728 -7.34612 -0.482642 24.859
4995950 7.84348 4.89451 8.26462 3.79857 -7.47447 -0.408125 24.8012
4995958 7.84348 4.89451 8.26462 3.79857 -7.47447 -0.408125 24.8012
4995973 7.89565 4.88516 8.33785 3.89213 -7.45299 -0.330362 25.0108
4995978 7.89565 4.88516 8.33785 3.89213 -7.45299 -0.330362 25.0108
4995988 7.88696 4.87582 8.40062 3.96698 -7.40615 -0.235882 25.1304
4995998 8 4.85714 8.68308 3.91084 -7.77482 -0.155135 25.4511
4996008 8 4.85714 8.68308 3.91084 -7.77482 -0.155135 25.4511
4996018 8.15652 4.69835 8.79815 3.86406 -8.2222 -0.113252 25.5171
4996028 8.2 4.69835 8.81908 3.69565 -8.48487 -0.226432 25.4131
4996039 8.2 4.60495 8.81908 3.69565 -8.6084 -0.171931 25.3197
4996049 8.37391 4.44615 8.976 3.60209 -9.15585 -0.14291 25.3982
4996068 8.55652 4.36209 9.00738 3.48982 -9.55311 -0.248708 25.4158
4996078 8.56522 4.15659 8.976 3.37755 -9.97701 -0.220295 25.0754
4996089 8.56522 4.15659 8.976 3.37755 -9.97701 -0.220295 25.0754
4996099 8.65217 4.00714 9.00738 3.22785 -10.4687 -0.25553 24.8946
4996109 8.69565 3.9044 8.99692 3.12493 -10.7832 -0.290143 24.7219
4996119 8.69565 3.9044 8.99692 3.12493 -10.7832 -0.290143 24.7219
4996129 8.77391 3.86703 9.13292 3.09686 -10.9998 -0.247978 24.8707
4996140 8.77391 3.86703 9.13292 3.09686 -10.9998 -0.247978 24.8707
4996151 8.7913 3.79231 9.22708 3.11558 -11.1434 -0.145005 24.9263
4996159 8.94783 3.78297 9.36308 3.07815 -11.3715 -0.172551 25.172
4996179 9.07826 3.79231 9.41538 3.07815 -11.4563 -0.222974 25.3641
4996194 9.06956 3.72692 9.52 3.04073 -11.6554 -0.139463 25.3572
4996201 9.06956 3.72692 9.52 3.04073 -11.6554 -0.139463 25.3572
4996210 9.1913 3.64286 9.56185 3.01266 -11.9031 -0.153288 25.4087
4996220 9.1913 3.64286 9.56185 3.01266 -11.9031 -0.153288 25.4087
4996231 9.26087 3.58681 9.55138 2.9191 -12.1517 -0.223476 25.3182
4996242 9.28696 3.53077 9.45723 2.84425 -12.3105 -0.308278 25.1192
4996252 9.28696 3.53077 9.45723 2.84425 -12.3105 -0.308278 25.1192
4996262 9.27826 3.55879 9.42585 2.8536 -12.2347 -0.333008 25.1165
4996272 9.33913 3.50275 9.39446 2.79747 -12.4166 -0.389442 25.0338
4996283 9.33913 3.50275 9.39446 2.79747 -12.4166 -0.389442 25.0338
4996292 9.35652 3.49341 9.41538 2.75069 -12.5198 -0.410052 25.016
4996305 9.35652 3.49341 9.41538 2.75069 -12.5198 -0.410052 25.016
4996312 9.33913 3.47473 9.45723 2.74133 -12.5741 -0.368992 25.0124
4996322 9.38261 3.42802 9.50954 2.78811 -12.6213 -0.30646 25.1083
4996332 9.38261 3.42802 9.50954 2.78811 -12.6213 -0.30646 25.1083
4996342 9.41739 3.47473 9.46769 2.80682 -12.5201 -0.368106 25.1666
4996351 9.4087 3.52143 9.41538 2.78811 -12.448 -0.433659 25.1336
4996364 9.4087 3.52143 9.41538 2.78811 -12.448 -0.433659 25.1336
4996372 9.44348 3.56813 9.46769 2.80682 -12.3944 -0.43725 25.2861
4996396 9.46087 3.50275 9.42585 2.78811 -12.507 -0.446623 25.1776
4996402 9.33913 3.52143 9.41538 2.77876 -12.4271 -0.398978 25.0547
4996418 9.33913 3.52143 9.41538 2.77876 -12.4271 -0.398978 25.0547
4996423 9.26087 3.50275 9.384 2.77876 -12.3999 -0.361581 24.9264
4996433 9.28696 3.56813 9.34215 2.79747 -12.2661 -0.429372 24.9947
4996453 9.22609 3.6522 9.41538 2.8536 -12.0646 -0.363436 25.1473
4996473 9.23478 3.64286 9.33169 2.76004 -12.1785 -0.47212 24.9694
4996485 9.18261 3.6522 9.36308 2.83489 -12.0428 -0.381602 25.0328
4996493 9.18261 3.6522 9.36308 2.83489 -12.0428 -0.381602 25.0328
4996503 9.17391 3.82967 9.30031 2.90039 -11.649 -0.47783 25.2043
4996513 9.13913 3.9978 9.30031 2.89103 -11.4009 -0.560005 25.3283
4996523 9.13913 3.9978 9.30031 2.89103 -11.4009 -0.560005 25.3283
4996533 9.2 4.05385 9.23754 2.89103 -11.3195 -0.664995 25.3824
4996543 9.2 4.05385 9.23754 2.89103 -11.3195 -0.664995 25.3824
4996557 9.12174 4.08187 9.10154 2.86296 -11.2031 -0.738499 25.1681
4996563 9.18261 4.11923 9.04923 2.90974 -11.0872 -0.797401 25.2608
4996576 9.18261 4.11923 9.04923 2.90974 -11.0872 -0.797401 25.2608
4996584 9.09565 4.11923 9.00738 2.84425 -11.11 -0.81578 25.0665
4996598 9.10435 4.10989 9.04923 2.87232 -11.111 -0.771424 25.1358
4996604 9.10435 4.10989 9.04923 2.87232 -11.111 -0.771424 25.1358
4996614 9.11304 4.07253 8.96554 2.79747 -11.2317 -0.855298 24.9486
4996624 9.11304 4.07253 8.96554 2.79747 -11.2317 -0.855298 24.9486
4996634 9.10435 4.03516 8.95508 2.81618 -11.2482 -0.823894 24.9108
4996645 9.13043 3.98846 8.99692 2.77876 -11.4082 -0.809344 24.8946
4996657 9.13043 3.98846 8.99692 2.77876 -11.4082 -0.809344 24.8946
4996666 9.14783 3.9511 9.03877 2.77876 -11.4952 -0.771419 24.9165
4996676 9.22609 4.01648 9.09108 2.82554 -11.4025 -0.79054 25.1592
4996689 9.22609 4.01648 9.09108 2.82554 -11.4025 -0.79054 25.1592
4996695 9.2087 3.9978 9.09108 2.76004 -11.5154 -0.811355 25.0576
4996706 9.23478 3.9978 9.05969 2.76004 -11.5125 -0.845938 25.0523
4996716 9.23478 3.88571 9.05969 2.74133 -11.7042 -0.794176 24.9215
4996726 9.26957 3.91374 9.112 2.80682 -11.6136 -0.7556 25.1021
4996746 9.26957 3.93242 9.07015 2.75069 -11.646 -0.827929 25.0228
4996758 9.31304 3.86703 9.09108 2.75069 -11.7761 -0.802286 25.0218
4996767 9.31304 3.86703 9.09108 2.75069 -11.7761 -0.802286 25.0218
4996779 9.33913 3.86703 9.10154 2.7694 -11.7679 -0.798671 25.0771
4996787 9.33913 3.86703 9.10154 2.7694 -11.7679 -0.798671 25.0771
4996797 9.36522 3.84835 9.08062 2.7694 -11.7981 -0.816056 25.0636
4996807 9.42609 3.89506 9.14338 2.79747 -11.7538 -0.819585 25.262
4996817 9.42609 3.89506 9.14338 2.79747 -11.7538 -0.819585 25.262
4996827 9.43478 3.83901 9.15385 2.75069 -11.9139 -0.815738 25.1783
4996837 9.4087 3.82033 9.08062 2.72262 -11.931 -0.854371 25.0323
4996849 9.4087 3.82033 9.08062 2.72262 -11.931 -0.854371 25.0323
4996859 9.43478 3.84835 9.112 2.75069 -11.8785 -0.847325 25.1458
4996877 9.42609 3.81099 9.03877 2.70391 -11.9596 -0.897367 24.9798
4996887 9.53043 3.81099 8.95508 2.71326 -11.9566 -1.00346 25.0098
4996898 9.53043 3.81099 8.95508 2.71326 -11.9566 -1.00346 25.0098
4996908 9.53043 3.82033 8.96554 2.65713 -12.0313 -1.03796 24.9734
4996918 9.61739 3.84835 8.93415 2.69455 -11.9634 -1.09807 25.0944
4996928 9.61739 3.84835 8.93415 2.69455 -11.9634 -1.09807 25.0944
4996939 9.6 3.87637 8.89231 2.66648 -11.9327 -1.14893 25.0352
4996948 9.66957 3.85769 8.81908 2.66648 -11.9583 -1.22439 25.0128
4996961 9.66957 3.85769 8.81908 2.66648 -11.9583 -1.22439 25.0128
4996968 9.68696 3.84835 8.84 2.61035 -12.0752 -1.2517 24.9857
4996983 9.68696 3.84835 8.84 2.61035 -12.0752 -1.2517 24.9857
4996993 9.75652 3.87637 8.80862 2.6197 -12.0396 -1.31952 25.0612
4997006 9.8 3.88571 8.72492 2.69455 -11.8946 -1.35405 25.1052
4997011 9.8 3.88571 8.72492 2.69455 -11.8946 -1.35405 25.1052
4997019 9.86087 3.89506 8.69354 2.57292 -12.0756 -1.49234 25.0224
4997031 9.85217 3.91374 8.704 2.59163 -12.0212 -1.47852 25.0615
4997041 9.85217 3.91374 8.704 2.59163 -12.0212 -1.47852 25.0615
4997053 9.86957 3.94176 8.568 2.52614 -12.0151 -1.6365 24.9055
4997061 9.86957 3.94176 8.568 2.52614 -12.0151 -1.6365 24.9055
4997076 9.86957 3.88571 8.54708 2.50743 -12.1157 -1.63289 24.8098
4997081 9.91304 3.92308 8.51569 2.61035 -11.9133 -1.62851 24.9622
4997092 9.91304 3.92308 8.51569 2.61035 -11.9133 -1.62851 24.9622
4997102 9.87826 3.91374 8.52615 2.55421 -11.9977 -1.63533 24.8724
4997112 9.97391 3.9511 8.47385 2.49807 -12.0483 -1.77919 24.8969
4997122 9.97391 3.9511 8.47385 2.49807 -12.0483 -1.77919 24.8969
4997132 10.0261 3.96978 8.432 2.51679 -11.9981 -1.83231 24.9447
4997144 9.98261 4.00714 8.51569 2.60099 -11.8398 -1.71653 25.1064
4997153 9.98261 4.00714 8.51569 2.60099 -11.8398 -1.71653 25.1064
4997167 10.0783 3.9511 8.52615 2.59163 -11.9911 -1.73672 25.1471
4997183 10.0087 3.93242 8.49477 2.56357 -12.0077 -1.7297 24.9994
4997193 10.0522 3.9511 8.46338 2.55421 -12.0002 -1.78991 25.0209
4997213 10.0261 3.9511 8.47385 2.58228 -11.9506 -1.7503 25.0333
4997223 9.97391 3.94176 8.46338 2.58228 -11.9317 -1.72467 24.9613
4997233 9.97391 3.94176 8.46338 2.58228 -11.9317 -1.72467 24.9613
4997243 9.93913 3.98846 8.55754 2.51679 -11.9905 -1.71183 25.0019
4997257 9.93913 3.98846 8.55754 2.51679 -11.9905 -1.71183 25.0019
4997263 9.88696 3.92308 8.53662 2.52614 -12.0356 -1.6568 24.8728
4997273 9.87826 3.9978 8.57846 2.59163 -11.8454 -1.62059 25.0462
4997285 9.87826 3.9978 8.57846 2.59163 -11.8454 -1.62059 25.0462
4997293 9.89565 3.94176 8.704 2.62906 -11.9474 -1.49243 25.1705
4997303 9.84348 3.9511 8.79815 2.65713 -11.9143 -1.38969 25.2499
4997313 9.84348 3.9511 8.79815 2.65713 -11.9143 -1.38969 25.2499
4997325 9.86087 3.96978 8.87138 2.76004 -11.7846 -1.29559 25.4621
4997333 9.86087 3.96978 8.87138 2.76004 -11.7846 -1.29559 25.4621
4997348 9.81739 3.93242 8.95508 2.66648 -11.9954 -1.25826 25.3714
4997353 9.72174 3.9978 8.91323 2.64777 -11.8563 -1.28075 25.2805
4997363 9.72174 3.9978 8.91323 2.64777 -11.8563 -1.28075 25.2805
4997373 9.6 3.94176 8.80862 2.65713 -11.8062 -1.24524 25.0075
4997393 9.48696 3.92308 8.64123 2.6197 -11.7399 -1.30666 24.671
4997403 9.26087 3.96978 8.53662 2.64777 -11.4478 -1.25717 24.415
4997423 9.12174 4.03516 8.50523 2.61035 -11.3106 -1.26151 24.2725
4997438 9.06087 4.07253 8.49477 2.75069 -11.0059 -1.16163 24.3789
4997444 9.06087 4.07253 8.49477 2.75069 -11.0059 -1.16163 24.3789
4997454 8.97391 4.18462 8.45292 2.81618 -10.6703 -1.16022 24.4276
4997464 8.97391 4.18462 8.45292 2.81618 -10.6703 -1.16022 24.4276
4997474 8.8 4.41813 8.46338 2.87232 -10.1542 -1.14998 24.5538
4997486 8.70435 4.66099 8.51569 3.02201 -9.57417 -1.10085 24.903
4997496 8.70435 4.66099 8.51569 3.02201 -9.57417 -1.10085 24.903
4997509 8.61739 4.86648 8.36923 3.13429 -8.99039 -1.18881 24.9874
4997514 8.50435 4.96923 8.34831 3.18107 -8.70133 -1.16638 25.003
4997524 8.50435 4.96923 8.34831 3.18107 -8.70133 -1.16638 25.003
4997534 8.25217 5.1467 8.14954 3.32141 -7.97513 -1.16281 24.8698
4997544 8.25217 5.1467 8.14954 3.32141 -7.97513 -1.16281 24.8698
4997554 8.14783 5.30549 8.04492 3.36819 -7.55945 -1.2307 24.8664
4997564 7.97391 5.54835 7.92985 3.60209 -6.7387 -1.19161 25.0542
4997584 7.73913 5.72582 7.73108 3.74243 -6.01676 -1.19782 24.9385
4997597 7.53043 5.83791 7.56369 3.94827 -5.33348 -1.11919 24.8803
4997605 7.53043 5.83791 7.56369 3.94827 -5.33348 -1.11919 24.8803
4997621 7.37391 6.16483 7.36492 4.16346 -4.39874 -1.20299 25.0671
4997626 7.37391 6.16483 7.36492 4.16346 -4.39874 -1.20299 25.0671
4997635 7.18261 6.31429 7.22892 4.34122 -3.74598 -1.15296 25.067
4997652 7 6.57582 7.072 4.67804 -2.78188 -1.08138 25.3259
4997657 7 6.57582 7.072 4.67804 -2.78188 -1.08138 25.3259
4997667 6.75652 6.8 6.87323 4.96808 -1.83251 -1.01301 25.3978
4997677 6.6087 7.0522 6.59077 5.27683 -0.852418 -1.0537 25.5285
4997690 6.6087 7.0522 6.59077 5.27683 -0.852418 -1.0537 25.5285
4997699 6.4 7.3511 6.16185 5.40781 0.194573 -1.29228 25.3208
4997712 6.17391 7.52857 5.91077 5.54816 0.985679 -1.3375 25.1614
4997717 6.17391 7.52857 5.91077 5.54816 0.985679 -1.3375 25.1614
4997727 5.96522 7.66868 5.62831 5.66043 1.74097 -1.41147 24.9226
4997737 5.96522 7.66868 5.62831 5.66043 1.74097 -1.41147 24.9226
4997747 5.7913 7.91154 5.40862 5.67914 2.41095 -1.5823 24.7906
4997757 5.66087 8.07967 5.22031 5.81948 3.04473 -1.63481 24.7803
4997767 5.66087 8.07967 5.22031 5.81948 3.04473 -1.63481 24.7803
4997780 5.46087 8.25714 5.09477 5.89433 3.63846 -1.65676 24.7071
4997787 5.46087 8.25714 5.09477 5.89433 3.63846 -1.65676 24.7071
4997797 5.33043 8.33187 5.08431 6.06274 4.01045 -1.52075 24.8094
4997807 5.1913 8.51868 5.10523 6.26857 4.47572 -1.39702 25.0838
4997827 5.1913 8.60275 4.99015 6.3902 4.77816 -1.43818 25.1744
4997837 5.08696 8.80824 4.86462 6.43698 5.2523 -1.54401 25.1968
4997848 5.08696 8.80824 4.86462 6.43698 5.2523 -1.54401 25.1968
4997858 5.04348 8.92033 4.69723 6.5399 5.67392 -1.62296 25.2009
4997878 4.84348 8.98571 4.50892 6.64282 6.28092 -1.6077 24.9809
4997893 4.72174 9.11648 4.46708 6.62411 6.57033 -1.65289 24.9294
4997898 4.72174 9.11648 4.46708 6.62411 6.57033 -1.65289 24.9294
4997915 4.58261 9.21923 4.34154 6.79252 7.10582 -1.60479 24.9359
4997918 4.48696 9.32198 4.31015 6.82994 7.36983 -1.60458 24.949
4997938 4.37391 9.46209 4.20554 6.97964 7.85562 -1.58915 25.0212
4997948 4.26957 9.46209 4.17415 6.97964 8.03482 -1.55384 24.8854
4997961 4.26957 9.50879 4.17415 7.10127 8.14881 -1.49854 25.0538
4997969 4.17391 9.62088 4.14277 7.12933 8.41103 -1.50957 25.0669
4997984 4.17391 9.62088 4.14277 7.12933 8.41103 -1.50957 25.0669
4997989 4.06087 9.77033 4.03815 7.14805 8.81321 -1.5859 25.0174
4997999 4.06957 9.84505 3.96492 7.11062 8.9247 -1.70412 24.9902
4998009 4.06957 9.84505 3.96492 7.11062 8.9247 -1.70412 24.9902
4998021 4.05217 10.0038 3.88123 7.18547 9.21069 -1.78483 25.1227
4998031 4.05217 10.0038 3.88123 7.18547 9.21069 -1.78483 25.1227
4998039 3.97391 10.1159 3.77662 7.12933 9.49634 -1.91066 24.9958
4998049 3.93913 10.2467 3.68246 7.08255 9.72679 -2.05653 24.9508
4998059 3.93913 10.2467 3.68246 7.08255 9.72679 -2.05653 24.9508
4998069 3.87826 10.3308 3.672 7.10127 9.88878 -2.06292 24.9823
4998079 3.90435 10.4055 3.57785 7.06384 10.0065 -2.20517 24.9515
4998101 3.88696 10.4896 3.52554 7.02642 10.1325 -2.30132 24.9285
4998109 3.88696 10.4896 3.52554 7.02642 10.1325 -2.30132 24.9285
4998124 3.86957 10.5176 3.49415 6.95157 10.1734 -2.38077 24.8329
4998130 3.87826 10.6297 3.52554 6.85801 10.1278 -2.48542 24.8915
4998140 3.87826 10.6297 3.52554 6.85801 10.1278 -2.48542 24.8915
4998151 3.93913 10.6857 3.536 6.85801 10.061 -2.53659 25.0189
4998160 3.94783 10.7324 3.55692 6.93286 10.0919 -2.4973 25.17
4998171 3.94783 10.7324 3.55692 6.93286 10.0919 -2.4973 25.17
4998180 3.98261 10.7511 3.536 6.82994 10.0225 -2.61026 25.0996
4998194 3.98261 10.7511 3.536 6.82994 10.0225 -2.61026 25.0996
4998200 3.96522 10.7978 3.52554 6.8393 10.0947 -2.62548 25.1279
4998211 4.01739 10.8445 3.49415 6.84865 10.0989 -2.68943 25.2047
4998231 3.9913 10.9099 3.36862 6.74573 10.2893 -2.87032 25.0155
4998240 3.97391 10.9566 3.35815 6.82058 10.3997 -2.83866 25.1092
4998251 3.97391 10.9566 3.35815 6.82058 10.3997 -2.83866 25.1092
4998265 3.97391 11.0313 3.35815 6.75509 10.405 -2.92135 25.1185
4998275 3.97391 11.0313 3.35815 6.75509 10.405 -2.92135 25.1185
4998288 4 11.0407 3.21169 6.80187 10.6078 -3.00973 25.0542
4998293 3.97391 11.1247 3.28492 6.76445 10.5678 -3.01173 25.148
4998300 3.97391 11.1247 3.28492 6.76445 10.5678 -3.01173 25.148
4998310 3.95652 11.0033 3.24308 6.72702 10.5603 -3.00225 24.9299
4998321 3.92174 11.106 3.31631 6.71767 10.5596 -2.9889 25.0618
4998333 3.92174 11.106 3.31631 6.71767 10.5596 -2.9889 25.0618
4998340 4 10.9846 3.33723 6.78316 10.3869 -2.90633 25.105
4998361 4 10.994 3.35815 6.70831 10.3192 -2.94937 25.0604
4998370 4.04348 10.994 3.34769 6.7738 10.311 -2.93093 25.1589
4998382 4.04348 10.994 3.34769 6.7738 10.311 -2.93093 25.1589
4998392 4.13043 10.9473 3.38954 6.71767 10.0705 -2.9604 25.1849
4998404 4.08696 10.9192 3.37908 6.70831 10.1236 -2.94028 25.0936
4998426 4.17391 10.8912 3.44185 6.73638 9.91531 -2.90387 25.2433
4998434 4.17391 10.8912 3.44185 6.73638 9.91531 -2.90387 25.2433
4998442 4.11304 10.7791 3.42092 6.73638 9.96182 -2.83531 25.0495
4998452 4.18261 10.7698 3.50462 6.72702 9.7379 -2.81175 25.184
4998473 4.16522 10.6484 3.49415 6.69895 9.68535 -2.77154 25.0067
4998482 4.15652 10.639 3.59877 6.70831 9.55282 -2.68206 25.1026
4998497 4.15652 10.639 3.59877 6.70831 9.55282 -2.68206 25.1026
4998503 4.1913 10.5363 3.69292 6.73638 9.32987 -2.56288 25.1569
4998513 4.1913 10.5363 3.69292 6.73638 9.32987 -2.56288 25.1569
4998523 4.1913 10.5176 3.73477 6.76445 9.27872 -2.50495 25.2081
4998533 4.22609 10.4802 3.84985 6.80187 9.07618 -2.39841 25.358
4998544 4.22609 10.4802 3.84985 6.80187 9.07618 -2.39841 25.358
4998553 4.27826 10.4055 3.83938 6.66153 8.88376 -2.4913 25.1847
4998566 4.23478 10.3214 3.89169 6.70831 8.84798 -2.35898 25.1562
4998573 4.23478 10.3214 3.89169 6.70831 8.84798 -2.35898 25.1562
4998589 4.34783 10.2187 3.93354 6.70831 8.57417 -2.33533 25.2084
4998593 4.34783 10.2187 3.93354 6.70831 8.57417 -2.33533 25.2084
4998603 4.26087 10.0412 3.96492 6.65217 8.49505 -2.21816 24.9192
4998613 4.4 10.0319 4.01723 6.72702 8.28331 -2.19709 25.1761
4998635 4.4 9.99451 4.00677 6.69895 8.2536 -2.20443 25.1002
4998644 4.42609 9.91044 4.10092 6.68024 8.02588 -2.12322 25.1177
4998664 4.44348 9.87308 4.08 6.74573 8.04952 -2.08264 25.1423
4998674 4.44348 9.87308 4.08 6.74573 8.04952 -2.08264 25.1423
4998684 4.44348 9.78901 4.16369 6.75509 7.8892 -1.97626 25.1513
4998694 4.48696 9.77033 4.23692 6.84865 7.78829 -1.87728 25.3429
4998707 4.48696 9.77033 4.23692 6.84865 7.78829 -1.87728 25.3429
4998714 4.43478 9.77033 4.20554 6.79252 7.85866 -1.90872 25.2032
4998724 4.45217 9.65824 4.216 6.84865 7.78421 -1.81475 25.1751
4998734 4.45217 9.65824 4.216 6.84865 7.78421 -1.81475 25.1751
4998746 4.3913 9.58352 4.37292 6.8393 7.60171 -1.64525 25.187
4998764 4.36522 9.49945 4.38338 6.9235 7.62205 -1.52421 25.1716
4998779 4.33043 9.42473 4.47754 6.96092 7.51944 -1.37933 25.1936
4998785 4.33043 9.42473 4.47754 6.96092 7.51944 -1.37933 25.1936
4998796 4.33043 9.32198 4.44615 6.88608 7.43603 -1.39297 24.9846
4998806 4.33043 9.17253 4.57169 6.95157 7.2144 -1.18658 25.0262
4998827 4.33043 9.11648 4.70769 7.08255 7.09362 -0.984662 25.2372
4998836 4.33043 9.11648 4.70769 7.08255 7.09362 -0.984662 25.2372
4998851 4.29565 9.02308 4.74954 7.10127 7.03147 -0.874822 25.1695
4998857 4.25217 8.91099 4.77046 7.1574 7.0202 -0.73849 25.091
4998877 4.23478 8.80824 4.87508 7.26968 6.91611 -0.534944 25.1878
4998887 4.23478 8.72418 4.99015 7.29774 6.73053 -0.3987 25.2469
4998913 4.21739 8.62143 5.12615 7.26968 6.48668 -0.263323 25.2346
4998930 4.22609 8.53736 5.14708 7.29774 6.40855 -0.189598 25.2083
4998932 4.22609 8.53736 5.14708 7.29774 6.40855 -0.189598 25.2083
4998938 4.23478 8.47198 5.24123 7.28839 6.22549 -0.105289 25.2364
4998950 4.23478 8.47198 5.24123 7.28839 6.22549 -0.105289 25.2364
4998958 4.2087 8.29451 5.34585 7.3071 6.00953 0.0892907 25.1561
4998971 4.21739 8.11703 5.47138 7.29774 5.70238 0.259747 25.1036
4998994 4.25217 8.03297 5.62831 7.26968 5.38273 0.365033 25.1831
4998998 4.26957 7.85549 5.81662 7.22289 4.95956 0.545082 25.1646
4999008 4.26957 7.85549 5.81662 7.22289 4.95956 0.545082 25.1646
4999018 4.33913 7.74341 6.05723 7.22289 4.50459 0.708278 25.3627
4999040 4.31304 7.58462 6.19323 7.21354 4.24024 0.894572 25.3044
4999048 4.4 7.42582 6.38154 7.11998 3.71561 0.992421 25.3273
4999065 4.4 7.42582 6.38154 7.11998 3.71561 0.992421 25.3273
4999069 4.50435 7.26703 6.49662 7.09191 3.31032 1.07481 25.3599
4999079 4.54783 7.0989 6.664 6.96092 2.81739 1.17416 25.2717
4999089 4.54783 7.0989 6.664 6.96092 2.81739 1.17416 25.2717
4999099 4.5913 7.01484 6.99877 6.78316 2.17417 1.28552 25.3881
4999112 4.5913 7.01484 6.99877 6.78316 2.17417 1.28552 25.3881
4999119 4.70435 6.82802 7.21846 6.67089 1.54995 1.39073 25.4217
4999129 4.73913 6.61319 7.33354 6.62411 1.15036 1.54405 25.31
4999139 4.73913 6.61319 7.33354 6.62411 1.15036 1.54405 25.31
4999149 4.88696 6.59451 7.37538 6.48376 0.804961 1.40744 25.3406
4999160 4.89565 6.40769 7.49046 6.34342 0.36301 1.51004 25.1372
4999169 4.89565 6.40769 7.49046 6.34342 0.36301 1.51004 25.1372
4999183 4.93043 6.40769 7.58462 6.31535 0.206035 1.5226 25.2381
4999191 4.93043 6.40769 7.58462 6.31535 0.206035 1.5226 25.2381
4999206 5.01739 6.31429 7.616 6.22179 -0.0966579 1.49355 25.1695
4999211 5.10435 6.31429 7.752 6.12823 -0.408939 1.45951 25.2989
4999221 5.10435 6.31429 7.752 6.12823 -0.408939 1.45951 25.2989
4999231 5.16522 6.31429 7.69969 6.02532 -0.521046 1.33637 25.2045
4999241 5.31304 6.22088 7.78338 5.9224 -0.944097 1.29074 25.2397
4999254 5.31304 6.22088 7.78338 5.9224 -0.944097 1.29074 25.2397
4999261 5.44348 6.25824 7.79385 5.86626 -1.09694 1.15827 25.3618
4999278 5.44348 6.25824 7.79385 5.86626 -1.09694 1.15827 25.3618
4999283 5.42609 6.17418 7.73108 5.76335 -1.21504 1.13221 25.0947
4999292 5.54783 6.2489 7.85662 5.76335 -1.36937 1.07601 25.4167
4999303 5.54783 6.2489 7.85662 5.76335 -1.36937 1.07601 25.4167
4999312 5.5913 6.23022 7.74154 5.5388 -1.55748 0.871736 25.1019
4999328 5.64348 6.18352 7.72062 5.48266 -1.69586 0.824772 25.0303
4999332 5.64348 6.18352 7.72062 5.48266 -1.69586 0.824772 25.0303
4999342 5.7913 6.2489 7.82523 5.42653 -1.9187 0.718539 25.292
4999362 5.81739 6.14615 7.81477 5.39846 -2.07289 0.744545 25.1768
4999376 5.84348 6.22088 7.82523 5.3891 -2.03603 0.682379 25.2787
4999382 5.84348 6.22088 7.82523 5.3891 -2.03603 0.682379 25.2787
4999392 5.86957 6.2022 7.76246 5.3891 -2.02266 0.642144 25.2233
4999402 5.90435 6.23022 7.76246 5.28619 -2.13476 0.544458 25.1832
4999412 5.90435 6.23022 7.76246 5.28619 -2.13476 0.544458 25.1832
4999424 5.8 6.30494 7.64738 5.33297 -1.80332 0.523456 25.0853
4999432 5.8 6.30494 7.64738 5.33297 -1.80332 0.523456 25.0853
4999442 5.83478 6.41703 7.51138 5.42653 -1.49129 0.408558 25.1897
4999452 5.76522 6.5478 7.43815 5.48266 -1.16204 0.361299 25.2338
4999462 5.76522 6.5478 7.43815 5.48266 -1.16204 0.361299 25.2338
4999475 5.66087 6.69725 7.19754 5.58558 -0.572342 0.253565 25.1412
4999483 5.56522 6.85604 7.06154 5.69785 -0.0723347 0.201423 25.1807
4999499 5.56522 6.85604 7.06154 5.69785 -0.0723347 0.201423 25.1807
4999503 5.52174 7.02418 6.88369 5.83819 0.452095 0.104465 25.2678
4999513 5.52174 7.02418 6.88369 5.83819 0.452095 0.104465 25.2678
4999523 5.43478 7.1456 6.67446 5.90369 0.934124 -0.00133395 25.1585
4999533 5.32174 7.31374 6.67446 6.01596 1.31634 0.0325441 25.3259
4999546 5.32174 7.31374 6.67446 6.01596 1.31634 0.0325441 25.3259
4999553 5.31304 7.45385 6.56985 6.06274 1.608 -0.0793129 25.3995
4999572 5.2 7.45385 6.60123 6.06274 1.69382 0.00599742 25.3178
4999573 5.2 7.49121 6.60123 6.04403 1.71098 -0.027203 25.3365
4999583 5.13043 7.44451 6.45477 6.12823 1.97506 0.00480652 25.1579
4999598 5.13043 7.44451 6.45477 6.12823 1.97506 0.00480652 25.1579
4999603 4.9913 7.56593 6.392 6.14695 2.32065 -0.0109327 25.0962
4999613 4.95652 7.6033 6.31877 6.20308 2.52285 -0.0227049 25.0817
4999623 4.95652 7.6033 6.31877 6.20308 2.52285 -0.0227049 25.0817
4999633 4.89565 7.68736 6.28738 6.35278 2.83183 0.0339854 25.2232
4999644 4.89565 7.68736 6.28738 6.35278 2.83183 0.0339854 25.2232
4999653 4.78261 7.73407 6.28738 6.4557 3.08769 0.134447 25.2598
4999668 4.70435 7.85549 6.15138 6.65217 3.59961 0.144135 25.3634
4999673 4.70435 7.85549 6.15138 6.65217 3.59961 0.144135 25.3634
4999683 4.66087 7.97692 5.97354 6.60539 3.91398 -0.0350127 25.2167
4999693 4.55652 7.97692 5.848 6.82994 4.36543 0.0859702 25.2114
4999718 4.49565 8.02363 5.75385 6.9235 4.66097 0.0941008 25.1966
4999723 4.49565 8.02363 5.75385 6.9235 4.66097 0.0941008 25.1966
4999733 4.42609 8.1544 5.62831 7.02642 5.07864 0.0441313 25.2352
4999743 4.27826 8.19176 5.50277 7.16676 5.54653 0.11904 25.1395
4999764 4.28696 8.25714 5.34585 7.26968 5.85662 0.042581 25.1596
4999773 4.2087 8.31319 5.35631 7.37259 6.05999 0.122976 25.2508
4999787 4.2087 8.31319 5.35631 7.37259 6.05999 0.122976 25.2508
4999794 4.2 8.35989 5.17846 7.42873 6.3676 0.0281918 25.1671
4999804 4.2 8.35989 5.17846 7.42873 6.3676 0.0281918 25.1671
4999815 4.13043 8.37857 5.11569 7.48487 6.58844 0.0546902 25.1096
4999824 4.1913 8.50934 5.09477 7.50358 6.64734 -0.0606537 25.299
4999835 4.1913 8.50934 5.09477 7.50358 6.64734 -0.0606537 25.299
4999844 4.25217 8.55604 5.15754 7.4568 6.49338 -0.114394 25.4226
4999858 4.23478 8.52802 5.13662 7.26968 6.38313 -0.212471 25.1691
4999864 4.23478 8.52802 5.13662 7.26968 6.38313 -0.212471 25.1691
4999874 4.3913 8.44396 5.24123 7.18547 5.9347 -0.242594 25.262
4999894 4.47826 8.23846 5.35631 6.91414 5.32076 -0.267901 24.9872
4999906 4.66087 8.02363 5.59692 6.73638 4.49901 -0.210566 25.0178
4999914 4.66087 8.02363 5.59692 6.73638 4.49901 -0.210566 25.0178
4999930 4.93043 7.76209 5.97354 6.41827 3.26537 -0.179821 25.0843
4999934 5.04348 7.37912 6.48615 6.19373 2.03487 0.153739 25.1025
4999944 5.04348 7.37912 6.48615 6.19373 2.03487 0.153739 25.1025
4999954 5.33913 6.96813 7.11385 5.80077 0.313145 0.361208 25.2219
4999964 5.33913 6.96813 7.11385 5.80077 0.313145 0.361208 25.2219
4999979 5.68696 6.58517 7.57415 5.52944 -1.12953 0.491499 25.3757
4999984 5.89565 6.08077 7.91938 5.23005 -2.49167 0.700284 25.1259
4999995 5.89565 6.08077 7.91938 5.23005 -2.49167 0.700284 25.1259
5000004 6.13913 5.82857 8.21231 4.90259 -3.60836 0.68605 25.0826
5000014 6.30435 5.49231 8.58892 4.75289 -4.62247 0.921988 25.1385
5000028 6.30435 5.49231 8.58892 4.75289 -4.62247 0.921988 25.1385
5000034 6.47826 5.34286 8.92369 4.64062 -5.33621 1.03003 25.3854
5000054 6.57391 5.11868 9.248 4.50028 -6.09546 1.21204 25.4409
5000064 6.74783 4.93187 9.53046 4.34122 -6.85403 1.28681 25.5514
5000079 6.74783 4.93187 9.53046 4.34122 -6.85403 1.28681 25.5514
5000086 6.85217 4.7544 9.656 4.21024 -7.40352 1.33063 25.4728
5000108 6.97391 4.56758 9.81292 4.07925 -8.00121 1.38636 25.4337
5000117 7.07826 4.5022 9.88615 3.97633 -8.33815 1.34538 25.4429
5000133 7.07826 4.5022 9.88615 3.97633 -8.33815 1.34538 25.4429
5000137 7.1913 4.42747 9.96985 3.83599 -8.74908 1.29032 25.4246
5000147 7.27826 4.25 10.0117 3.75179 -9.18102 1.32566 25.2917
5000158 7.27826 4.25 10.0117 3.75179 -9.18102 1.32566 25.2917
5000167 7.43478 4.18462 10.0954 3.61145 -9.60872 1.23633 25.3262
5000183 7.47826 4.05385 10.2314 3.59274 -9.92169 1.35589 25.3562
5000186 7.47826 4.05385 10.2314 3.59274 -9.92169 1.35589 25.3562
5000196 7.6087 3.96044 10.3046 3.49917 -10.3001 1.32109 25.3729
5000217 7.64348 3.87637 10.2732 3.48046 -10.4456 1.3258 25.2735
5000232 7.82609 3.85769 10.2837 3.43368 -10.6476 1.20089 25.4012
5000237 7.82609 3.85769 10.2837 3.43368 -10.6476 1.20089 25.4012
5000247 7.89565 3.85769 10.2942 3.3869 -10.7583 1.13687 25.4344
5000257 7.89565 3.85769 10.2942 3.3869 -10.7583 1.13687 25.4344
5000267 8.0087 3.73626 10.2314 3.37755 -10.971 1.10277 25.3539
5000278 8.05217 3.71758 10.2314 3.29334 -11.1414 1.04072 25.2945
5000287 8.05217 3.71758 10.2314 3.29334 -11.1414 1.04072 25.2945
5000301 8.14783 3.63352 10.0431 3.19042 -11.3602 0.870777 25.0148
5000307 8.26957 3.61484 10.0745 3.2372 -11.4026 0.849697 25.1961
5000317 8.26957 3.61484 10.0745 3.2372 -11.4026 0.849697 25.1961
5000327 8.3913 3.55879 10.0117 3.10622 -11.7061 0.698789 25.068
5000337 8.3913 3.55879 10.0117 3.10622 -11.7061 0.698789 25.068
5000347 8.4087 3.51209 9.85477 3.05944 -11.7696 0.600016 24.835
5000357 8.52174 3.46538 9.85477 3.0033 -11.982 0.525826 24.8452
5000367 8.52174 3.46538 9.85477 3.0033 -11.982 0.525826 24.8452
5000379 8.56522 3.42802 9.91754 2.95652 -12.1628 0.531313 24.8673
5000387 8.67826 3.37198 9.88615 2.90974 -12.3588 0.450164 24.8461
5000404 8.67826 3.37198 9.88615 2.90974 -12.3588 0.450164 24.8461
5000407 8.82609 3.39066 10.0326 2.92845 -12.451 0.443439 25.1778
5000417 8.82609 3.39066 10.0326 2.92845 -12.451 0.443439 25.1778
5000428 8.86087 3.38132 9.93846 2.82554 -12.5894 0.313008 25.0062
5000437 9.02609 3.32527 9.90708 2.80682 -12.7677 0.216959 25.0653
5000452 9.02609 3.32527 9.90708 2.80682 -12.7677 0.216959 25.0653
5000457 9.09565 3.33462 9.93846 2.87232 -12.7047 0.226126 25.241
5000467 9.15652 3.36264 9.91754 2.86296 -12.6963 0.154946 25.2997
5000478 9.15652 3.36264 9.91754 2.86296 -12.6963 0.154946 25.2997
5000487 9.22609 3.30659 9.99077 2.80682 -12.9326 0.156877 25.3303
5000503 9.22609 3.30659 9.99077 2.80682 -12.9326 0.156877 25.3303
5000507 9.27826 3.39066 9.928 2.81618 -12.7881 0.0444227 25.4131
5000518 9.33913 3.40934 10.0326 2.77876 -12.8949 0.0369143 25.5598
5000530 9.33913 3.40934 10.0326 2.77876 -12.8949 0.0369143 25.5598
5000537 9.38261 3.31593 9.96985 2.75069 -13.0668 0.0129765 25.4191
5000547 9.33913 3.31593 9.94892 2.77876 -12.9944 0.0429118 25.3827
5000557 9.33913 3.3533 9.94892 2.77876 -12.9386 0.0208032 25.4201
5000567 9.32174 3.3533 9.95938 2.74133 -12.9912 0.0151813 25.3758
5000587 9.4087 3.25989 9.84431 2.72262 -13.1466 -0.0604257 25.2355
5000597 9.4 3.29725 9.78154 2.70391 -13.0848 -0.126162 25.1827
5000608 9.4 3.29725 9.78154 2.70391 -13.0848 -0.126162 25.1827
5000620 9.41739 3.23187 9.792 2.64777 -13.2825 -0.125248 25.089
5000629 9.4087 3.12912 9.84431 2.64777 -13.46 -0.0274104 25.0299
5000653 9.35652 3.12912 9.90708 2.64777 -13.4649 0.0414562 25.0405
5000668 9.31304 3.09176 9.93846 2.64777 -13.5168 0.108896 24.991
5000678 9.23478 3.03571 10.0535 2.72262 -13.5048 0.302832 25.0467
5000688 9.23478 3.03571 10.0535 2.72262 -13.5048 0.302832 25.0467
5000706 9.28696 3.0544 10.1477 2.76004 -13.4858 0.336478 25.2491
5000709 9.33043 3.08242 10.2314 2.75069 -13.5152 0.336218 25.3949
5000722 9.33043 3.08242 10.2314 2.75069 -13.5152 0.336218 25.3949
5000730 9.3913 3.11044 10.1582 2.75069 -13.4672 0.240312 25.4106
5000739 9.3913 3.11044 10.1582 2.75069 -13.4672 0.240312 25.4106
5000749 9.37391 3.18516 10.0117 2.6852 -13.3783 0.0818485 25.256
5000759 9.41739 3.21319 9.89662 2.73198 -13.2317 -0.00118107 25.2592
5000769 9.41739 3.21319 9.89662 2.73198 -13.2317 -0.00118107 25.2592
5000784 9.43478 3.24121 9.84431 2.65713 -13.2865 -0.103996 25.1774
5000789 9.4087 3.24121 9.81292 2.65713 -13.2597 -0.107397 25.12
5000799 9.4087 3.29725 9.81292 2.65713 -13.1745 -0.140549 25.176
5000809 9.4087 3.26923 9.73969 2.61035 -13.254 -0.196512 25.028
5000819 9.4087 3.26923 9.73969 2.61035 -13.254 -0.196512 25.028
5000834 9.45217 3.18516 9.61415 2.58228 -13.3879 -0.266315 24.8338
5000842 9.45217 3.17582 9.70831 2.60099 -13.4173 -0.191701 24.9373
5000861 9.53043 3.19451 9.64554 2.59163 -13.4102 -0.293105 24.9621
5000869 9.49565 3.16648 9.73969 2.52614 -13.5819 -0.238468 24.928
5000885 9.49565 3.16648 9.73969 2.52614 -13.5819 -0.238468 24.928
5000890 9.57391 3.12912 9.77108 2.5355 -13.6751 -0.237782 25.0096
5000900 9.57391 3.12912 9.77108 2.5355 -13.6751 -0.237782 25.0096
5000911 9.57391 3.08242 9.75015 2.52614 -13.7526 -0.228636 24.9326
5000920 9.63478 3.11044 9.88615 2.59163 -13.6967 -0.159042 25.223
5000935 9.63478 3.11044 9.88615 2.59163 -13.6967 -0.159042 25.223
5000942 9.70435 3.1478 9.87569 2.55421 -13.7232 -0.250522 25.2821
5000952 9.73043 3.11978 9.82338 2.5355 -13.7833 -0.292354 25.2091
5000962 9.73043 3.11978 9.82338 2.5355 -13.7833 -0.292354 25.2091
5000972 9.76522 3.11978 9.75015 2.46065 -13.8817 -0.402972 25.0958
5000992 9.74783 3.11044 9.72923 2.43258 -13.9229 -0.417537 25.0201
5001002 9.77391 3.08242 9.68738 2.48872 -13.8722 -0.40761 25.0324
5001013 9.77391 3.08242 9.68738 2.48872 -13.8722 -0.40761 25.0324
5001022 9.71304 3.11044 9.62462 2.49807 -13.7588 -0.421383 24.9462
5001036 9.78261 3.06374 9.55138 2.42323 -13.9469 -0.526814 24.821
5001043 9.78261 3.06374 9.55138 2.42323 -13.9469 -0.526814 24.821
5001061 9.7913 3.1478 9.50954 2.46065 -13.7423 -0.583469 24.9093
5001063 9.7913 3.1478 9.50954 2.46065 -13.7423 -0.583469 24.9093
5001073 9.78261 3.09176 9.48862 2.46065 -13.8163 -0.559005 24.8236
5001085 9.76522 3.15714 9.57231 2.44194 -13.7734 -0.546253 24.9366
5001094 9.76522 3.15714 9.57231 2.44194 -13.7734 -0.546253 24.9366
5001109 9.83478 3.23187 9.61415 2.51679 -13.5929 -0.557025 25.1976
5001113 9.8 3.21319 9.59323 2.5355 -13.5675 -0.52768 25.1419
5001123 9.8 3.21319 9.59323 2.5355 -13.5675 -0.52768 25.1419
5001137 9.84348 3.24121 9.61415 2.47936 -13.6398 -0.590495 25.1782
5001144 9.84348 3.24121 9.61415 2.47936 -13.6398 -0.590495 25.1782
5001153 9.84348 3.24121 9.62462 2.44194 -13.7021 -0.607207 25.1512
5001163 9.82609 3.22253 9.52 2.42323 -13.7048 -0.66345 24.9918
5001173 9.82609 3.22253 9.52 2.42323 -13.7048 -0.66345 24.9918
5001186 9.8 3.20385 9.37354 2.39516 -13.6992 -0.747896 24.7725
5001193 9.74783 3.13846 9.35262 2.45129 -13.6802 -0.657577 24.6902
5001210 9.74783 3.13846 9.35262 2.45129 -13.6802 -0.657577 24.6902
5001213 9.74783 3.25055 9.40492 2.51679 -13.4283 -0.648071 24.9201
5001223 9.74783 3.25055 9.40492 2.51679 -13.4283 -0.648071 24.9201
5001235 9.74783 3.32527 9.33169 2.47936 -13.3367 -0.760753 24.8842
5001244 9.74783 3.29725 9.34215 2.56357 -13.2552 -0.684963 24.9508
5001263 9.70435 3.40934 9.33169 2.57292 -13.0442 -0.724913 25.0183
5001273 9.67826 3.45604 9.42585 2.6197 -12.9353 -0.648587 25.1799
5001285 9.67826 3.45604 9.42585 2.6197 -12.9353 -0.648587 25.1799
5001294 9.71304 3.54011 9.39446 2.6197 -12.8107 -0.735529 25.2673
5001309 9.71304 3.54011 9.39446 2.6197 -12.8107 -0.735529 25.2673
5001314 9.58261 3.61484 9.32123 2.59163 -12.6416 -0.76736 25.1103
5001324 9.47826 3.78297 9.248 2.71326 -12.1221 -0.773098 25.2225
5001334 9.47826 3.78297 9.248 2.71326 -12.1221 -0.773098 25.2225
5001344 9.43478 3.82033 9.248 2.70391 -12.0587 -0.775501 25.207
5001358 9.43478 3.82033 9.248 2.70391 -12.0587 -0.775501 25.207
5001364 9.33043 3.82033 9.14338 2.7694 -11.854 -0.740905 25.0635
5001375 9.30435 3.98846 9.04923 2.70391 -11.6398 -0.922109 25.0459
5001385 9.30435 3.98846 9.04923 2.70391 -11.6398 -0.922109 25.0459
5001394 9.18261 3.98846 9.03877 2.78811 -11.4457 -0.80658 24.998
5001409 9.05217 4.11923 9.04923 2.81618 -11.1496 -0.782444 25.0368
5001414 9.05217 4.11923 9.04923 2.81618 -11.1496 -0.782444 25.0368
5001424 8.98261 4.15659 9.07015 2.90039 -10.9477 -0.698133 25.1097
5001434 8.98261 4.15659 9.07015 2.90039 -10.9477 -0.698133 25.1097
5001444 8.87826 4.14725 9.05969 2.9191 -10.8697 -0.627926 25.0043
5001458 8.7913 4.25 9.02831 2.87232 -10.7222 -0.686001 24.9419
5001466 8.7913 4.25 9.02831 2.87232 -10.7222 -0.686001 24.9419
5001474 8.72174 4.2967 8.91323 2.98459 -10.3885 -0.674632 24.9163
5001492 8.64348 4.37143 8.90277 3.03137 -10.1642 -0.649785 24.949
5001494 8.64348 4.37143 8.90277 3.03137 -10.1642 -0.649785 24.949
5001508 8.63478 4.48352 8.93415 3.11558 -9.90328 -0.636862 25.168
5001514 8.63478 4.48352 8.93415 3.11558 -9.90328 -0.636862 25.168
5001524 8.58261 4.58626 8.90277 3.07815 -9.76247 -0.708526 25.1498
5001535 8.55652 4.70769 8.81908 3.14364 -9.43858 -0.773871 25.2269
5001545 8.55652 4.70769 8.81908 3.14364 -9.43858 -0.773871 25.2269
5001558 8.49565 4.78242 8.65169 3.08751 -9.27102 -0.922687 25.0173
5001565 8.43478 4.79176 8.59938 3.16236 -9.08431 -0.879293 24.9883
5001582 8.43478 4.79176 8.59938 3.16236 -9.08431 -0.879293 24.9883
5001586 8.41739 4.90385 8.59938 3.17171 -8.90832 -0.926662 25.0923
5001595 8.41739 4.90385 8.59938 3.17171 -8.90832 -0.926662 25.0923
5001608 8.38261 4.94121 8.75631 3.19042 -8.91085 -0.817405 25.2705
5001616 8.42609 5.03462 8.69354 3.27463 -8.66179 -0.880417 25.4289
5001633 8.42609 5.03462 8.69354 3.27463 -8.66179 -0.880417 25.4289
5001635 8.41739 5.12802 8.704 3.32141 -8.47837 -0.891644 25.5708
5001645 8.46957 5.10934 8.68308 3.32141 -8.523 -0.92311 25.5834
5001665 8.47826 5.07198 8.63077 3.28398 -8.59324 -0.963373 25.465
5001686 8.46957 5.01593 8.55754 3.18107 -8.75165 -1.03882 25.2241
5001695 8.49565 4.95055 8.50523 3.153 -8.86032 -1.06832 25.1044
5001717 8.51304 4.88516 8.44246 3.153 -8.9196 -1.08192 24.9937
5001727 8.45217 4.81044 8.44246 3.13429 -9.00779 -1.01806 24.8394
5001738 8.45217 4.81044 8.44246 3.13429 -9.00779 -1.01806 24.8394
5001747 8.47826 4.81978 8.47385 3.18107 -8.96814 -0.987736 24.953
5001767 8.53913 4.76374 8.432 3.09686 -9.17227 -1.07161 24.8317
5001778 8.53913 4.77308 8.57846 3.2372 -9.06097 -0.893354 25.1279
5001788 8.53913 4.77308 8.57846 3.2372 -9.06097 -0.893354 25.1279
5001798 8.58261 4.76374 8.50523 3.153 -9.16943 -1.01268 25.0046
5001815 8.55652 4.85714 8.49477 3.19042 -8.96826 -1.033 25.0989
5001818 8.55652 4.85714 8.49477 3.19042 -8.96826 -1.033 25.0989
5001828 8.61739 4.83846 8.55754 3.29334 -8.93352 -0.951312 25.3067
5001840 8.61739 4.83846 8.55754 3.29334 -8.93352 -0.951312 25.3067
5001848 8.58261 4.92253 8.37969 3.24656 -8.74724 -1.12144 25.1314
5001866 8.57391 4.95055 8.33785 3.26527 -8.65178 -1.14695 25.1276
5001868 8.57391 4.95055 8.33785 3.26527 -8.65178 -1.14695 25.1276
5001878 8.53043 5.08132 8.18092 3.34012 -8.24611 -1.2478 25.1328
5001892 8.55652 5.11868 8.18092 3.35883 -8.18951 -1.27035 25.215
5001898 8.55652 5.11868 8.18092 3.35883 -8.18951 -1.27035 25.215
5001908 8.45217 5.22143 8.18092 3.34948 -7.99694 -1.27551 25.204
5001928 8.27826 5.25879 8.06585 3.43368 -7.64045 -1.22073 25.0366
5001943 8.24348 5.18407 7.99262 3.48982 -7.58954 -1.17128 24.91
5001948 8.24348 5.18407 7.99262 3.48982 -7.58954 -1.17128 24.91
5001958 8.13043 5.31484 7.90892 3.49917 -7.26798 -1.22952 24.8534
5001968 8.04348 5.3989 7.83569 3.66758 -6.82753 -1.166 24.9457
5001981 8.04348 5.3989 7.83569 3.66758 -6.82753 -1.166 24.9457
5001994 8.0087 5.52033 7.81477 3.76114 -6.51464 -1.16697 25.1049
5002008 7.7913 5.51099 7.71015 3.82664 -6.20376 -1.06616 24.8391
5002020 7.71304 5.6978 7.616 3.97633 -5.65419 -1.09097 25.0032
5002029 7.71304 5.6978 7.616 3.97633 -5.65419 -1.09097 25.0032
5002046 7.52174 5.85659 7.45908 4.09796 -5.03929 -1.09561 24.9354
5002049 7.35652 5.98736 7.344 4.21024 -4.52135 -1.07818 24.8981
5002059 7.35652 5.98736 7.344 4.21024 -4.52135 -1.07818 24.8981
5002073 7.15652 6.09945 7.23938 4.388 -3.92677 -0.981731 24.8834
5002089 6.93913 6.35165 7.10338 4.58448 -3.10904 -0.962572 24.9786
5002100 6.73913 6.53846 6.89415 4.75289 -2.34901 -0.981287 24.9246
5002114 6.73913 6.53846 6.89415 4.75289 -2.34901 -0.981287 24.9246
5002125 6.52174 6.78132 6.64308 5.01486 -1.37078 -0.988616 24.961
5002132 6.36522 6.78132 6.47569 5.01486 -1.06012 -1.00823 24.6371
5002139 6.36522 7.01484 6.47569 5.071 -0.757298 -1.10325 24.9267
5002150 6.23478 7.20165 6.32923 5.19263 -0.170022 -1.15066 24.9583
5002160 6.23478 7.20165 6.32923 5.19263 -0.170022 -1.15066 24.9583
5002177 6.10435 7.45385 6.00492 5.28619 0.634587 -1.3685 24.8493
5002179 5.94783 7.62198 5.79569 5.49202 1.37834 -1.3771 24.8575
5002190 5.94783 7.62198 5.79569 5.49202 1.37834 -1.3771 24.8575
5002202 5.8087 7.83681 5.576 5.52944 2.0015 -1.53937 24.751
5002209 5.56522 8.04231 5.42954 5.81948 2.88358 -1.42327 24.8565
5002219 5.56522 8.04231 5.42954 5.81948 2.88358 -1.42327 24.8565
5002229 5.4 8.22912 5.18892 6.11888 3.76858 -1.39632 24.9369
5002255 5.24348 8.51868 5.05292 6.37149 4.55974 -1.39226 25.1866
5002259 4.88696 8.72418 4.87508 6.6896 5.61228 -1.2193 25.1758
5002270 4.88696 8.72418 4.87508 6.6896 5.61228 -1.2193 25.1758
5002281 4.71304 8.98571 4.68677 6.9235 6.42992 -1.23779 25.309
5002293 4.50435 8.98571 4.59262 4.74353 5.07343 -2.7297 22.8262
5002306 4.50435 9.03242 4.59262 7.13869 6.9991 -1.07178 25.2681
5002310 4.33913 9.33132 4.36246 7.20418 7.76031 -1.25042 25.2371
5002320 4.33913 9.33132 4.36246 7.20418 7.76031 -1.25042 25.2371
5002333 4.12174 9.46209 4.14277 7.3071 8.49323 -1.27865 25.0337
5002341 4 9.53681 3.96492 7.36324 8.98365 -1.33239 24.865
5002350 4 9.53681 3.96492 7.36324 8.98365 -1.33239 24.865
5002360 4.0087 9.56484 3.93354 7.29774 8.99054 -1.41641 24.8048
5002386 3.93043 9.56484 3.86031 7.31646 9.21139 -1.4096 24.672
5002390 3.89565 9.56484 3.90215 7.34452 9.21955 -1.34403 24.7072
5002412 3.86957 9.58352 3.92308 7.40066 9.27433 -1.28911 24.7768
5002422 3.91304 9.70494 3.98585 7.4568 9.24044 -1.30205 25.0606
5002440 3.91304 9.70494 3.98585 7.4568 9.24044 -1.30205 25.0606
5002442 3.90435 9.77033 4.03815 7.57843 9.29793 -1.22064 25.2913
5002452 3.90435 9.77033 4.03815 7.57843 9.29793 -1.22064 25.2913
5002465 3.93043 9.8544 3.96492 7.62521 9.44262 -1.29736 25.375
5002472 3.84348 9.95714 3.98585 7.63456 9.6007 -1.28646 25.421
5002482 3.84348 9.95714 3.98585 7.63456 9.6007 -1.28646 25.421
5002492 3.83478 9.9478 3.82892 7.57843 9.78816 -1.4144 25.1899
5002502 3.8 10.0412 3.73477 7.52229 9.98946 -1.54442 25.0983
5002518 3.8 10.0412 3.73477 7.52229 9.98946 -1.54442 25.0983
5002522 3.8087 9.99451 3.73477 7.46615 9.91556 -1.56111 25.0041
5002545 3.78261 10.0879 3.58831 7.3913 10.1693 -1.74501 24.8501
5002552 3.73043 10.0879 3.57785 7.41002 10.2692 -1.71156 24.8062
5002572 3.86087 10.144 3.55692 7.32581 10.0974 -1.88172 24.8876
5002582 3.78261 10.1626 3.55692 7.3071 10.2081 -1.86295 24.8093
5002599 3.78261 10.1626 3.55692 7.3071 10.2081 -1.86295 24.8093
5002602 3.86957 10.2093 3.66154 7.26968 9.94388 -1.88785 25.0101
5002612 3.86957 10.2093 3.66154 7.26968 9.94388 -1.88785 25.0101
5002626 3.85217 10.1813 3.64062 7.23225 9.95809 -1.9035 24.9064
5002633 3.91304 10.228 3.70338 7.24161 9.8194 -1.91107 25.0861
5002653 3.9913 10.2934 3.58831 7.13869 9.84787 -2.13363 25.0117
5002663 4.02609 10.4055 3.60923 7.12933 9.83259 -2.20083 25.1701
5002683 4.11304 10.5176 3.63015 7.17611 9.77959 -2.2552 25.4369
5002693 4.11304 10.5176 3.63015 7.17611 9.77959 -2.2552 25.4369
5002705 4.06957 10.4896 3.57785 7.0732 9.83268 -2.3253 25.2102
5002713 4.06087 10.611 3.51508 6.99835 9.95958 -2.4767 25.1853
5002732 4.06087 10.611 3.51508 6.99835 9.95958 -2.4767 25.1853
5002734 4.06957 10.6951 3.38954 6.85801 10.0891 -2.70893 25.0122
5002744 4.05217 10.7418 3.4 6.78316 10.082 -2.769 24.9771
5002760 4.05217 10.7418 3.4 6.78316 10.082 -2.769 24.9771
5002772 4.17391 10.8538 3.35815 6.75509 10.0204 -2.93217 25.141
5002775 4.09565 10.9099 3.23262 6.76445 10.345 -3.00478 25.0026
5002788 4.09565 10.9099 3.23262 6.76445 10.345 -3.00478 25.0026
5002796 4.09565 11.05 3.19077 6.65217 10.4205 -3.18308 24.9886
5002812 4.09565 11.05 3.19077 6.65217 10.4205 -3.18308 24.9886
5002816 4.04348 11.022 3.18031 6.66153 10.4987 -3.14584 24.9073
5002825 4.08696 11.1808 3.22215 6.60539 10.4373 -3.25171 25.0953
5002837 4.08696 11.1808 3.22215 6.60539 10.4373 -3.25171 25.0953
5002845 4.16522 11.1995 3.14892 6.52119 10.392 -3.41199 25.0348
5002864 4.12174 11.2088 3.11754 6.47441 10.4764 -3.45386 24.9225
5002865 4.12174 11.2088 3.11754 6.47441 10.4764 -3.45386 24.9225
5002875 4.16522 11.2742 3.09662 6.44634 10.4661 -3.54036 24.9823
5002890 4.16522 11.2742 3.09662 6.44634 10.4661 -3.54036 24.9823
5002896 4.17391 11.2275 3.05477 6.34342 10.4258 -3.63103 24.7996
5002914 4.2087 11.3115 3.128 6.51183 10.42 -3.5058 25.1601
5002918 4.2087 11.3115 3.128 6.51183 10.42 -3.5058 25.1601
5002926 4.22609 11.3396 3.10708 6.41827 10.3869 -3.61104 25.091
5002939 4.22609 11.3396 3.10708 6.41827 10.3869 -3.61104 25.091
5002946 4.22609 11.4049 3.07569 6.36214 10.4366 -3.70572 25.0689
5002956 4.26957 11.4049 3.06523 6.37149 10.3954 -3.7261 25.1112
5002967 4.26957 11.4049 3.06523 6.37149 10.3954 -3.7261 25.1112
5002975 4.27826 11.4143 2.98154 6.28729 10.4579 -3.8602 24.9614
5002992 4.26087 11.4797 3.03385 6.23115 10.4138 -3.88447 25.0055
5002996 4.26087 11.4797 3.03385 6.23115 10.4138 -3.88447 25.0055
5003006 4.33043 11.4423 3.06523 6.24051 10.255 -3.86806 25.0785
5003026 4.27826 11.3769 3.02338 6.24986 10.3548 -3.84016 24.9284
5003043 4.36522 11.5077 3.09662 6.24986 10.2062 -3.88179 25.2194
5003045 4.36522 11.5077 3.09662 6.24986 10.2062 -3.88179 25.2194
5003055 4.3913 11.4143 3.01292 6.20308 10.2043 -3.95034 25.0216
5003068 4.3913 11.3956 3.05477 6.21244 10.14 -3.90337 25.0541
5003075 4.3913 11.3956 3.05477 6.21244 10.14 -3.90337 25.0541
5003095 4.43478 11.4236 3.08615 6.23115 10.0631 -3.89727 25.1757
5003097 4.43478 11.4236 3.08615 6.23115 10.0631 -3.89727 25.1757
5003105 4.4 11.3769 3.08615 6.0721 9.98877 -3.98153 24.9352
5003119 4.37391 11.3396 3.05477 6.02532 10.0189 -4.01317 24.7936
5003128 4.37391 11.3396 3.05477 6.02532 10.0189 -4.01317 24.7936
5003135 4.3913 11.3302 3.06523 6.01596 9.9683 -4.01589 24.8027
5003145 4.44348 11.2368 3.18031 6.01596 9.67677 -3.90972 24.8766
5003171 4.44348 11.1714 3.19077 6.01596 9.62179 -3.87253 24.8216
5003177 4.44348 11.1714 3.19077 6.01596 9.62179 -3.87253 24.8216
5003187 4.47826 11.1527 3.30585 5.99725 9.39064 -3.80678 24.9341
5003197 4.6 11.106 3.43138 5.97854 9.01139 -3.76023 25.116
5003207 4.6 11.106 3.43138 5.97854 9.01139 -3.76023 25.116
5003221 4.69565 11.05 3.42092 5.95982 8.84852 -3.79973 25.1264
5003227 4.70435 10.9846 3.49415 5.95047 8.69015 -3.72669 25.1336
5003237 4.70435 10.9846 3.49415 5.95047 8.69015 -3.72669 25.1336
5003247 4.78261 10.9659 3.55692 5.88498 8.44703 -3.75538 25.1904
5003272 4.81739 10.7791 3.64062 5.82884 8.12851 -3.66656 25.066
5003277 4.86087 10.7698 3.63015 5.79141 8.05335 -3.71768 25.0522
5003297 4.88696 10.7604 3.65108 5.81013 7.99779 -3.69566 25.1086
5003307 4.97391 10.5643 3.68246 5.76335 7.67617 -3.65777 24.984
5003327 4.95652 10.5269 3.76615 5.73528 7.54409 -3.59138 24.9849
5003337 4.95652 10.5269 3.76615 5.73528 7.54409 -3.59138 24.9849
5003348 4.97391 10.4335 3.82892 5.70721 7.3545 -3.53075 24.9436
5003358 5.04348 10.4242 3.86031 5.67914 7.19748 -3.55591 25.0071
5003374 5.04348 10.4242 3.86031 5.67914 7.19748 -3.55591 25.0071
5003378 5.05217 10.3962 3.90215 5.66043 7.09916 -3.52991 25.0109
5003400 5.05217 10.3962 3.90215 5.66043 7.09916 -3.52991 25.0109
5003403 5.06087 10.2654 3.90215 5.57622 6.93277 -3.53636 24.8046
5003410 5.12174 10.2093 4.01723 5.64172 6.71477 -3.40464 24.99
5003418 5.12174 10.2093 4.01723 5.64172 6.71477 -3.40464 24.99
5003429 5.12174 10.0879 4.01723 5.67914 6.65309 -3.32045 24.906
5003438 5.09565 10.0505 4.05908 5.69785 6.61932 -3.24614 24.9031
5003453 5.09565 10.0505 4.05908 5.69785 6.61932 -3.24614 24.9031
5003458 5.11304 10.1066 4.12185 5.69785 6.55923 -3.23487 25.0393
5003468 5.11304 10.1066 4.12185 5.69785 6.55923 -3.23487 25.0393
5003481 5.07826 10.0505 4.16369 5.76335 6.55729 -3.11411 25.0558
5003488 5.04348 10.0692 4.18462 5.83819 6.64332 -3.03747 25.1355
5003498 5.04348 10.0692 4.18462 5.83819 6.64332 -3.03747 25.1355
5003509 4.9913 9.99451 4.13231 5.84755 6.72768 -3.0077 24.9657
5003518 5.01739 10.0692 4.19508 5.83819 6.663 -3.01754 25.1199
5003538 5.01739 10.1066 4.15323 5.96918 6.83776 -2.97166 25.2464
5003549 5.01739 10.1066 4.15323 5.96918 6.83776 -2.97166 25.2464
5003559 4.93043 10.0692 4.11138 5.95047 6.96075 -2.95542 25.0615
5003569 4.88696 10.0879 4.13231 5.99725 7.03651 -2.8951 25.1044
5003586 4.88696 10.0879 4.13231 5.99725 7.03651 -2.8951 25.1044
5003589 4.89565 9.91978 4.16369 6.0066 6.87096 -2.78867 24.9857
5003599 4.82609 9.87308 4.18462 6.03467 6.91962 -2.69672 24.9185
5003611 4.82609 9.87308 4.18462 6.03467 6.91962 -2.69672 24.9185
5003619 4.94783 9.86374 4.22646 6.0066 6.68412 -2.7422 25.0446
5003637 4.94783 9.86374 4.22646 6.0066 6.68412 -2.7422 25.0446
5003639 4.87826 9.77967 4.22646 5.97854 6.69017 -2.68649 24.8629
5003649 4.98261 9.74231 4.36246 6.0066 6.37986 -2.60372 25.094
5003663 4.98261 9.74231 4.36246 6.0066 6.37986 -2.60372 25.094
5003669 4.93043 9.63022 4.51938 6.11888 6.24955 -2.33486 25.1989
5003680 4.94783 9.62088 4.55077 6.14695 6.20312 -2.2981 25.2664
5003690 4.94783 9.62088 4.55077 6.14695 6.20312 -2.2981 25.2664
5003699 4.94783 9.54615 4.52985 6.24986 6.24992 -2.20443 25.2737
5003719 4.92174 9.49011 4.54031 6.23115 6.21365 -2.16834 25.1833
5003729 4.97391 9.55549 4.57169 6.17501 6.11734 -2.24483 25.2761
5003741 4.97391 9.55549 4.57169 6.17501 6.11734 -2.24483 25.2761
5003753 4.97391 9.51813 4.49846 6.17501 6.17986 -2.27607 25.1655
5003768 4.93043 9.51813 4.488 6.17501 6.24683 -2.26124 25.1116
5003770 4.93043 9.51813 4.488 6.17501 6.24683 -2.26124 25.1116
5003781 4.92174 9.53681 4.352 6.24051 6.49033 -2.3149 25.0511
5003800 4.83478 9.45275 4.38338 6.16566 6.44235 -2.25785 24.8366
5003811 4.86087 9.47143 4.38338 6.24051 6.47904 -2.22895 24.9562
5003821 4.86087 9.47143 4.38338 6.24051 6.47904 -2.22895 24.9562
5003831 4.90435 9.46209 4.29969 6.21244 6.50207 -2.32387 24.8786
5003845 4.78261 9.43407 4.45662 6.25922 6.47153 -2.10619 24.9325
5003861 4.89565 9.44341 4.57169 6.29664 6.2211 -2.0653 25.2074
5003881 4.89565 9.31264 4.624 6.27793 6.04427 -1.97511 25.1102
5003898 4.92174 9.32198 4.58215 6.18437 6 -2.08546 25.0102
5003902 4.92174 9.32198 4.58215 6.18437 6 -2.08546 25.0102
5003912 4.92174 9.27527 4.54031 6.18437 6.01644 -2.08995 24.9217
5003924 4.91304 9.17253 4.73908 6.17501 5.6955 -1.90291 24.9997
5003932 4.91304 9.17253 4.73908 6.17501 5.6955 -1.90291 24.9997
5003951 4.93913 9.11648 4.74954 6.17501 5.60727 -1.88013 24.9802
5003952 4.93913 9.11648 4.74954 6.17501 5.60727 -1.88013 24.9802
5003962 4.98261 9.02308 4.82277 6.1563 5.37728 -1.81708 24.9848
5003977 5.03478 9.01374 4.86462 6.10016 5.21173 -1.84926 25.0133
5003982 5.03478 9.01374 4.86462 6.10016 5.21173 -1.84926 25.0133
5003992 5.01739 8.92967 4.896 6.10016 5.12809 -1.77457 24.9432
5004002 5.11304 8.78956 4.94831 6.10016 4.83784 -1.71584 24.9511
5004012 5.11304 8.78956 4.94831 6.10016 4.83784 -1.71584 24.9511
5004028 5.17391 8.71484 5.17846 6.04403 4.38697 -1.59267 25.1112
5004033 5.17391 8.71484 5.17846 6.04403 4.38697 -1.59267 25.1112
5004053 5.21739 8.56538 5.27262 5.97854 4.04842 -1.51692 25.0339
5004055 5.31304 8.49066 5.45046 5.9224 3.62396 -1.44828 25.1766
5004063 5.31304 8.49066 5.45046 5.9224 3.62396 -1.44828 25.1766
5004080 5.46087 8.29451 5.58646 5.66979 2.9156 -1.49878 25.0116
5004083 5.54783 8.04231 5.97354 5.56687 2.07697 -1.22345 25.1305
5004093 5.54783 8.04231 5.97354 5.56687 2.07697 -1.22345 25.1305
5004106 5.78261 7.72473 6.37108 5.36103 0.923234 -1.05503 25.2394
5004113 5.78261 7.72473 6.37108 5.36103 0.923234 -1.05503 25.2394
5004123 5.93043 7.31374 6.53846 5.1552 3.8743e-05 -0.932625 24.9378
5004133 6.06087 6.97747 6.89415 4.97744 -1.00373 -0.702582 24.9099
5004143 6.06087 6.97747 6.89415 4.97744 -1.00373 -0.702582 24.9099
5004158 6.34783 6.86538 7.14523 4.86516 -1.74689 -0.715293 25.2236
5004163 6.46957 6.55714 7.39631 4.63126 -2.67167 -0.598185 25.0543
5004173 6.46957 6.55714 7.39631 4.63126 -2.67167 -0.598185 25.0543
5004184 6.65217 6.31429 7.51138 4.50028 -3.35193 -0.573382 24.9781
5004210 6.73913 6.09945 7.77292 4.33187 -4.09 -0.441274 24.9434
5004213 6.89565 5.89396 7.97169 4.21959 -4.75743 -0.359268 24.9809
5004224 6.89565 5.89396 7.97169 4.21959 -4.75743 -0.359268 24.9809
5004235 7.03478 5.72582 8.21231 4.16346 -5.32874 -0.229653 25.1364
5004244 7.18261 5.57637 8.35877 4.04183 -5.88561 -0.213668 25.1596
5004264 7.27826 5.50165 8.47385 3.95762 -6.24008 -0.207312 25.2114
5004288 7.36522 5.26813 8.59938 3.91084 -6.74688 -0.0734505 25.1436
5004296 7.45217 5.15604 8.79815 3.77986 -7.26034 -0.0179914 25.1862
5004314 7.45217 5.15604 8.79815 3.77986 -7.26034 -0.0179914 25.1862
5004316 7.52174 5.03462 8.976 3.74243 -7.63675 0.0961894 25.2748
5004325 7.6 4.79176 9.20615 3.64887 -8.28375 0.275243 25.2468
5004341 7.6 4.79176 9.20615 3.64887 -8.28375 0.275243 25.2468
5004345 7.81739 4.70769 9.384 3.55531 -8.77538 0.244004 25.4644
5004356 7.81739 4.70769 9.384 3.55531 -8.77538 0.244004 25.4644
5004368 7.91304 4.51154 9.55138 3.47111 -9.3152 0.352444 25.4471
5004376 8.03478 4.30604 9.81292 3.41497 -9.90145 0.5204 25.5687
5004394 8.03478 4.30604 9.81292 3.41497 -9.90145 0.5204 25.5687
5004396 8.14783 4.08187 9.91754 3.26527 -10.5442 0.562588 25.4125
5004406 8.28696 3.93242 9.928 3.20914 -10.9177 0.542915 25.3565
5004425 8.46087 3.80165 10.1163 3.10622 -11.4472 0.565043 25.485
5004436 8.46087 3.80165 10.1163 3.10622 -11.4472 0.565043 25.485
5004450 8.61739 3.58681 10.1058 2.99395 -11.9966 0.530897 25.304
5004456 8.67826 3.51209 10.2 2.96588 -12.2261 0.577093 25.3562
5004466 8.67826 3.51209 10.2 2.96588 -12.2261 0.577093 25.3562
5004476 8.7913 3.36264 10.1477 2.87232 -12.6163 0.51605 25.174
5004485 8.78261 3.37198 10.0954 2.8536 -12.6002 0.474676 25.1036
5004504 8.78261 3.37198 10.0954 2.8536 -12.6002 0.474676 25.1036
5004507 8.82609 3.39066 10.0849 2.87232 -12.5606 0.441225 25.174
5004515 8.82609 3.39066 10.0849 2.87232 -12.5606 0.441225 25.174
5004531 8.82609 3.39066 10.0745 2.86296 -12.5694 0.429756 25.1542
5004537 8.84348 3.49341 9.98031 2.9191 -12.2951 0.334352 25.2363
5004559 8.83478 3.53077 9.89662 2.92845 -12.1793 0.273623 25.1906
5004567 8.72174 3.59615 9.80246 2.93781 -11.9624 0.252839 25.0582
5004587 8.71304 3.72692 9.71877 2.97523 -11.6671 0.151611 25.134
5004597 8.71304 3.72692 9.71877 2.97523 -11.6671 0.151611 25.134
5004614 8.72174 3.82967 9.57231 3.0033 -11.4031 0.0144464 25.127
5004617 8.73913 4.00714 9.53046 3.01266 -11.1211 -0.120496 25.2894
5004628 8.73913 4.00714 9.53046 3.01266 -11.1211 -0.120496 25.2894
5004642 8.75652 4.07253 9.46769 3.02201 -10.9896 -0.201042 25.3188
5004648 8.69565 4.03516 9.42585 2.99395 -11.026 -0.185497 25.1506
5004658 8.69565 4.03516 9.42585 2.99395 -11.026 -0.185497 25.1506
5004673 8.73043 4.02582 9.39446 2.97523 -11.0681 -0.230774 25.126
5004682 8.73043 4.02582 9.49908 2.97523 -11.1258 -0.167622 25.2306
5004700 8.75652 3.96978 9.49908 2.92845 -11.2879 -0.178168 25.1538
5004701 8.74783 3.85769 9.59323 2.95652 -11.4557 -0.0332522 25.1553
5004709 8.74783 3.85769 9.59323 2.95652 -11.4557 -0.0332522 25.1553
5004726 8.84348 3.78297 9.77108 2.95652 -11.7092 0.0598454 25.354
5004729 8.88696 3.70824 10.0012 2.94717 -11.9725 0.20741 25.5436
5004754 8.87826 3.62418 10.064 2.92845 -12.1491 0.288303 25.4949
5004760 8.93044 3.50275 10.2314 2.84425 -12.5592 0.377782 25.5088
5004780 8.93044 3.50275 10.2314 2.84425 -12.5592 0.377782 25.5088
5004782 9.0087 3.41868 10.3674 2.89103 -12.7175 0.48531 25.6858
5004790 9.0087 3.41868 10.3674 2.89103 -12.7175 0.48531 25.6858
5004808 9.01739 3.25989 10.4302 2.87232 -13.0136 0.601172 25.5798
5004811 8.98261 3.17582 10.4615 2.81618 -13.2215 0.660054 25.4362
5004835 9.05217 3.11978 10.3883 2.77876 -13.3608 0.589079 25.339
5004840 9.02609 2.94231 10.4092 2.73198 -13.701 0.700616 25.1096
5004851 9.02609 2.94231 10.4092 2.73198 -13.701 0.700616 25.1096
5004863 9.02609 2.96099 10.3988 2.71326 -13.6963 0.672308 25.0991
5004889 9 2.8956 10.472 2.67584 -13.8764 0.750039 25.0434
5004890 8.97391 2.8489 10.5034 2.70391 -13.9077 0.829688 25.0301
5004902 8.97391 2.8489 10.5034 2.70391 -13.9077 0.829688 25.0301
5004916 9.0087 2.87692 10.4929 2.65713 -13.9477 0.757579 25.0357
5004924 8.9913 2.86758 10.5975 2.76004 -13.8414 0.891498 25.2165
5004932 8.9913 2.86758 10.5975 2.76004 -13.8414 0.891498 25.2165
5004943 9 2.92363 10.6708 2.83489 -13.6774 0.9332 25.4293
5004952 9 2.92363 10.6708 2.83489 -13.6774 0.9332 25.4293
5004970 9 2.98901 10.6708 2.84425 -13.564 0.89751 25.504
5004972 8.95652 2.99835 10.5975 2.89103 -13.4265 0.904178 25.4434
5004982 8.95652 2.99835 10.5975 2.89103 -13.4265 0.904178 25.4434
5004996 8.89565 2.95165 10.5557 2.81618 -13.5646 0.906794 25.2192
5005002 8.89565 2.95165 10.5557 2.81618 -13.5646 0.906794 25.2192
5005012 8.86957 2.96099 10.4615 2.80682 -13.5098 0.859287 25.0989
5005022 8.91304 2.90495 10.4092 2.87232 -13.4913 0.874654 25.0995
5005033 8.91304 2.90495 10.4092 2.87232 -13.4913 0.874654 25.0995
5005050 8.93913 2.95165 10.336 2.81618 -13.4841 0.755543 25.043
5005052 8.92174 2.97967 10.2209 2.79747 -13.4085 0.672346 24.9198
5005078 8.86087 2.97967 10.2523 2.79747 -13.3948 0.728738 24.8903
5005082 8.86087 2.97967 10.2523 2.79747 -13.3948 0.728738 24.8903
5005093 8.74783 2.87692 10.2837 2.77876 -13.5453 0.873551 24.6872
5005114 8.72174 2.95165 10.3883 2.81618 -13.4077 0.92317 24.8779
5005123 8.71304 3.01703 10.4406 2.86296 -13.2558 0.94283 25.0337
5005137 8.76522 2.99835 10.5557 2.88167 -13.3337 0.996271 25.2009
5005144 8.76522 2.99835 10.5557 2.88167 -13.3337 0.996271 25.2009
5005153 8.87826 3.02637 10.608 2.92845 -13.2968 0.962116 25.4411
5005166 8.91304 3.02637 10.6812 2.89103 -13.4026 0.960056 25.5117
5005173 8.91304 3.02637 10.6812 2.89103 -13.4026 0.960056 25.5117
5005191 8.84348 3.09176 10.7126 2.95652 -13.189 1.01578 25.6044
5005193 8.84348 3.09176 10.7126 2.95652 -13.189 1.01578 25.6044
5005204 8.86957 3.11978 10.6498 2.94717 -13.1442 0.942494 25.5864
5005220 8.83478 3.01703 10.4825 2.89103 -13.2894 0.90485 25.2253
5005224 8.83478 3.01703 10.4825 2.89103 -13.2894 0.90485 25.2253
5005234 8.86087 3.1011 10.3883 2.8536 -13.1869 0.761755 25.2039
5005247 8.77391 3.1011 10.3465 2.81618 -13.1832 0.771416 25.0377
5005254 8.77391 2.99835 10.3465 2.81618 -13.3406 0.836404 24.9349
5005272 8.83478 3.1011 10.3674 2.82554 -13.2075 0.750359 25.1288
5005274 8.83478 3.1011 10.3674 2.82554 -13.2075 0.750359 25.1288
5005284 8.86087 3.08242 10.3674 2.82554 -13.2481 0.745717 25.1362
5005298 9.01739 3.11044 10.2523 2.7694 -13.3102 0.533137 25.1495
5005304 9.01739 3.11044 10.2523 2.7694 -13.3102 0.533137 25.1495
5005332 9.10435 3.11978 10.2628 2.71326 -13.4266 0.447561 25.2002
5005333 9.10435 3.11978 10.2628 2.71326 -13.4266 0.447561 25.2002
5005334 9.12174 3.11978 10.1686 2.70391 -13.4055 0.376883 25.114
5005354 9.2 3.16648 10.1372 2.6852 -13.3844 0.271513 25.1889
5005355 9.2 3.16648 10.1372 2.6852 -13.3844 0.271513 25.1889
5005364 9.31304 3.20385 9.792 2.62906 -13.3052 -0.0576416 24.9379
5005382 9.3913 3.19451 9.68738 2.5355 -13.4516 -0.219434 24.8087
5005384 9.3913 3.19451 9.68738 2.5355 -13.4516 -0.219434 24.8087
5005394 9.49565 3.20385 9.54092 2.55421 -13.3885 -0.365624 24.7946
5005409 9.49565 3.20385 9.54092 2.55421 -13.3885 -0.365624 24.7946
5005414 9.56522 3.26923 9.60369 2.51679 -13.4071 -0.429157 24.9549
5005424 9.6 3.25055 9.59323 2.58228 -13.3465 -0.404603 25.0261
5005444 9.66957 3.28791 9.56185 2.54485 -13.3643 -0.50916 25.0642
5005464 9.71304 3.26923 9.55138 2.49807 -13.48 -0.55898 25.0317
5005465 9.71304 3.26923 9.55138 2.49807 -13.48 -0.55898 25.0317
5005475 9.77391 3.31593 9.54092 2.52614 -13.3887 -0.609842 25.1569
5005491 9.77391 3.31593 9.54092 2.52614 -13.3887 -0.609842 25.1569
5005495 9.66957 3.28791 9.56185 2.55421 -13.35 -0.503372 25.0735
5005506 9.64348 3.30659 9.54092 2.52614 -13.3425 -0.52944 25.0171
5005519 9.64348 3.30659 9.54092 2.52614 -13.3425 -0.52944 25.0171
5005526 9.58261 3.30659 9.56185 2.52614 -13.3239 -0.481168 24.9772
5005536 9.53043 3.29725 9.56185 2.57292 -13.242 -0.416376 24.9625
5005548 9.53043 3.29725 9.56185 2.57292 -13.242 -0.416376 24.9625
5005555 9.4 3.26923 9.61415 2.6852 -13.0762 -0.222208 24.9686
5005575 9.4 3.26923 9.61415 2.6852 -13.0762 -0.222208 24.9686
5005576 9.31304 3.30659 9.68738 2.6197 -13.1126 -0.188082 24.9267
5005586 9.26957 3.39066 9.73969 2.74133 -12.8049 -0.106916 25.1412
5005606 9.15652 3.4467 9.76062 2.79747 -12.5917 -0.0269115 25.1613
5005615 9.06087 3.51209 9.83385 2.77876 -12.511 0.0236124 25.1856
5005630 9.06087 3.51209 9.83385 2.77876 -12.511 0.0236124 25.1856
5005636 8.96522 3.56813 9.94892 2.90974 -12.2443 0.192177 25.392
5005645 8.96522 3.56813 9.94892 2.90974 -12.2443 0.192177 25.392
5005657 8.89565 3.67088 9.86523 2.89103 -12.0435 0.112386 25.3228
5005666 8.83478 3.72692 9.89662 2.94717 -11.8649 0.166544 25.4055
5005687 8.74783 3.82967 9.82338 2.92845 -11.6595 0.103245 25.3293
5005697 8.62609 3.76429 9.83385 2.90039 -11.7368 0.205291 25.1246
5005715 8.62609 3.76429 9.83385 2.90039 -11.7368 0.205291 25.1246
5005717 8.53043 3.79231 9.792 2.90039 -11.6227 0.221651 25.0151
5005742 8.52174 3.79231 9.73969 3.0033 -11.4397 0.256782 25.057
5005747 8.46957 3.68022 9.76062 3.05008 -11.5181 0.397174 24.9605
5005757 8.46957 3.68022 9.76062 3.05008 -11.5181 0.397174 24.9605
5005770 8.41739 3.75495 9.72923 2.92845 -11.5417 0.293203 24.83
5005779 8.44348 3.55879 9.792 2.93781 -11.866 0.441252 24.7321
5005798 8.46957 3.54945 9.90708 2.88167 -12.0381 0.465417 24.8078
5005808 8.46957 3.54945 9.90708 2.88167 -12.0381 0.465417 24.8078
5005826 8.57391 3.51209 10.2 2.97523 -12.1595 0.646783 25.2612
5005828 8.68696 3.45604 10.4092 3.0033 -12.3621 0.745161 25.5555
5005838 8.68696 3.45604 10.4092 3.0033 -12.3621 0.745161 25.5555
5005855 8.83478 3.39066 10.5034 2.98459 -12.6033 0.736501 25.7134
5005858 8.92174 3.4467 10.5348 2.92845 -12.6602 0.635719 25.8317
5005868 8.92174 3.4467 10.5348 2.92845 -12.6602 0.635719 25.8317
5005882 9.05217 3.41868 10.4615 2.92845 -12.7283 0.533125 25.8608
5005889 9.05217 3.41868 10.4615 2.92845 -12.7283 0.533125 25.8608
5005898 9.08696 3.41868 10.3046 2.84425 -12.7937 0.376089 25.6545
5005909 9.17391 3.37198 10.1163 2.73198 -12.9816 0.178619 25.3942
5005918 9.17391 3.37198 10.1163 2.73198 -12.9816 0.178619 25.3942
5005936 9.2 3.3533 9.80246 2.64777 -12.9996 -0.0618303 25.0035
5005938 9.17391 3.28791 9.64554 2.52614 -13.1989 -0.176678 24.6335
5005964 9.26957 3.33462 9.53046 2.61035 -12.9875 -0.28089 24.745
5005970 9.26957 3.33462 9.53046 2.61035 -12.9875 -0.28089 24.745
5005979 9.33043 3.33462 9.43631 2.56357 -13.0434 -0.404528 24.6649
5005993 9.4087 3.40934 9.48862 2.56357 -12.9918 -0.461911 24.8702
5005999 9.4087 3.40934 9.48862 2.56357 -12.9918 -0.461911 24.8702
5006009 9.46957 3.57747 9.52 2.57292 -12.7677 -0.569282 25.14
5006021 9.49565 3.67088 9.42585 2.55421 -12.6224 -0.707735 25.1466
5006047 9.54783 3.80165 9.33169 2.60099 -12.3376 -0.840588 25.2822
5006049 9.54783 3.80165 9.33169 2.60099 -12.3376 -0.840588 25.2822
5006059 9.53913 3.91374 9.20615 2.69455 -11.9677 -0.918309 25.3536
5006076 9.45217 4.17527 8.976 2.81618 -11.2479 -1.08298 25.4196
5006079 9.45217 4.17527 8.976 2.81618 -11.2479 -1.08298 25.4196
5006089 9.26957 4.35275 8.73538 2.83489 -10.7346 -1.22181 25.1926
5006105 8.9913 4.48352 8.46338 2.8536 -10.2025 -1.30557 24.7918
5006109 8.9913 4.48352 8.46338 2.8536 -10.2025 -1.30557 24.7918
5006119 8.73913 4.74505 8.24369 3.09686 -9.20544 -1.29526 24.8247
5006133 8.73913 4.74505 8.24369 3.09686 -9.20544 -1.29526 24.8247
5006139 8.46087 4.96923 8.05538 3.22785 -8.41568 -1.30306 24.7133
5006149 8.25217 5.24945 7.80431 3.46175 -7.41418 -1.35392 24.7677
5006161 8.25217 5.24945 7.80431 3.46175 -7.41418 -1.35392 24.7677
5006169 7.93913 5.6044 7.68923 3.72372 -6.31123 -1.28057 24.9565
5006189 7.93913 5.6044 7.68923 3.72372 -6.31123 -1.28057 24.9565
5006190 7.55652 5.82857 7.46954 3.9202 -5.32525 -1.2081 24.7748
5006202 7.22609 6.2022 7.39631 4.19152 -4.22595 -1.10356 25.0161
5006217 7.22609 6.2022 7.39631 4.19152 -4.22595 -1.10356 25.0161
5006221 6.82609 6.49176 7.24985 4.64062 -2.91924 -0.849353 25.2083
5006231 6.45217 6.80934 7.21846 4.94937 -1.87965 -0.645133 25.4293
5006246 6.45217 6.80934 7.21846 4.94937 -1.87965 -0.645133 25.4293
5006251 6.24348 7.18297 6.91508 5.20198 -0.757144 -0.768916 25.5435
5006260 6.24348 7.18297 6.91508 5.20198 -0.757144 -0.768916 25.5435
5006274 5.88696 7.46319 6.60123 5.44524 0.413677 -0.769988 25.3966
5006281 5.70435 7.83681 6.22462 5.69785 1.57647 -0.953531 25.4636
5006290 5.70435 7.83681 6.22462 5.69785 1.57647 -0.953531 25.4636
5006302 5.44348 8.25714 5.82708 5.81948 2.76763 -1.21556 25.3472
5006312 5.15652 8.56538 5.44 6.02532 3.96449 -1.34389 25.1872
5006331 5.15652 8.56538 5.44 6.02532 3.96449 -1.34389 25.1872
5006332 4.86087 8.82692 5.06338 6.19373 5.10765 -1.46163 24.9449
5006341 4.86087 8.82692 5.06338 6.19373 5.10765 -1.46163 24.9449
5006361 4.61739 9.04176 4.78092 6.39956 6.08202 -1.4968 24.8396
5006362 4.50435 9.35 4.64492 6.54926 6.73691 -1.59301 25.0485
5006371 4.50435 9.35 4.64492 6.54926 6.73691 -1.59301 25.0485
5006390 4.37391 9.55549 4.37292 6.66153 7.481 -1.73949 24.9639
5006391 4.23478 9.75165 4.14277 6.71767 8.14163 -1.88716 24.8469
5006401 4.23478 9.75165 4.14277 6.71767 8.14163 -1.88716 24.8469
5006420 4.11304 9.97582 4.00677 6.89543 8.75457 -1.91268 24.9911
5006422 4.11304 9.97582 4.00677 6.89543 8.75457 -1.91268 24.9911
5006432 4.02609 10.2 3.808 6.97028 9.33456 -2.06832 25.0044
5006449 3.96522 10.4896 3.69292 7.06384 9.81223 -2.20019 25.2115
5006462 3.97391 10.7044 3.536 7.10127 10.1674 -2.3944 25.3156
5006478 3.93043 10.9099 3.41046 7.05449 10.4953 -2.59356 25.3053
5006482 3.93043 10.9099 3.41046 7.05449 10.4953 -2.59356 25.3053
5006492 3.93043 10.994 3.28492 6.99835 10.6882 -2.76173 25.2077
5006508 3.93043 10.994 3.28492 6.99835 10.6882 -2.76173 25.2077
5006512 3.75652 11.0687 3.18031 6.9235 11.0868 -2.8409 24.929
5006524 3.72174 11.1341 3.06523 7.03577 11.4026 -2.85782 24.9568
5006536 3.72174 11.1341 3.06523 7.03577 11.4026 -2.85782 24.9568
5006542 3.71304 11.2742 2.91877 6.98899 11.6804 -3.06053 24.895
5006552 3.6087 11.3022 2.93969 7.04513 11.8484 -2.96802 24.8957
5006572 3.66957 11.3302 2.87692 7.05449 11.8709 -3.04942 24.9312
5006594 3.66957 11.3302 2.87692 7.05449 11.8709 -3.04942 24.9312
5006610 3.64348 11.2835 2.89785 6.97028 11.8093 -3.0604 24.7951
5006623 3.66957 11.3022 2.856 6.97028 11.8426 -3.11243 24.798
5006624 3.65217 11.2368 2.88738 6.98899 11.797 -3.03606 24.7654
5006634 3.62609 11.3022 2.93969 7.05449 11.8276 -2.96967 24.9225
5006654 3.65217 11.3115 2.96062 7.13869 11.8077 -2.91131 25.063
5006664 3.65217 11.3115 2.96062 7.13869 11.8077 -2.91131 25.063
5006678 3.65217 11.3209 2.96062 7.11062 11.7978 -2.93589 25.0443
5006684 3.5913 11.3396 2.92923 7.18547 11.9827 -2.88444 25.0456
5006707 3.65217 11.2648 2.95015 7.16676 11.8132 -2.87615 25.0339
5006714 3.66087 11.2742 3.02338 7.11062 11.6683 -2.87269 25.0691
5006724 3.66087 11.2742 3.02338 7.11062 11.6683 -2.87269 25.0691
5006736 3.66087 11.3769 2.92923 7.17611 11.8948 -2.94262 25.1431
5006746 3.6 11.3769 3.00246 7.23225 11.9059 -2.82144 25.2116
5006763 3.6 11.3769 3.00246 7.23225 11.9059 -2.82144 25.2116
5006766 3.57391 11.3769 2.89785 7.22289 12.0934 -2.88978 25.0716
5006775 3.57391 11.3769 2.89785 7.22289 12.0934 -2.88978 25.0716
5006793 3.5913 11.3769 2.87692 7.20418 12.089 -2.9265 25.0493
5006796 3.6087 11.4049 2.87692 7.22289 12.0874 -2.93497 25.1135
5006806 3.6087 11.4049 2.87692 7.22289 12.0874 -2.93497 25.1135
5006822 3.58261 11.3956 2.81415 7.19483 12.1999 -2.98307 24.9872
5006826 3.58261 11.3956 2.81415 7.19483 12.1999 -2.98307 24.9872
5006837 3.58261 11.433 2.83508 7.16676 12.1736 -3.00615 25.0174
5006850 3.56522 11.461 2.80369 7.14805 12.2509 -3.04737 24.9779
5006855 3.56522 11.461 2.80369 7.14805 12.2509 -3.04737 24.9779
5006866 3.5913 11.4797 2.79323 7.09191 12.2085 -3.11697 24.9561
5006880 3.55652 11.517 2.79323 7.12933 12.2985 -3.09107 24.9961
5006886 3.55652 11.517 2.79323 7.12933 12.2985 -3.09107 24.9961
5006896 3.55652 11.5077 2.77231 7.09191 12.306 -3.12895 24.9284
5006916 3.62609 11.4423 2.78277 7.03577 12.1241 -3.16422 24.8869
5006938 3.62609 11.433 2.82462 7.06384 12.0715 -3.10889 24.9475
5006939 3.62609 11.433 2.82462 7.06384 12.0715 -3.10889 24.9475
5006947 3.69565 11.5077 2.77231 6.98899 12.0458 -3.26985 24.9646
5006965 3.73913 11.4984 2.87692 6.97964 11.8175 -3.21645 25.094
5006967 3.73913 11.4984 2.87692 6.97964 11.8175 -3.21645 25.094
5006977 3.76522 11.4516 2.91877 6.93286 11.6686 -3.21035 25.0685
5006994 3.83478 11.3769 2.89785 6.90479 11.5425 -3.24358 25.0143
5007007 3.85217 11.3396 2.95015 6.90479 11.4207 -3.19611 25.0467
5007022 3.85217 11.3396 2.95015 6.90479 11.4207 -3.19611 25.0467
5007028 3.84348 11.3396 3.01292 6.96092 11.3727 -3.10602 25.1569
5007051 3.83478 11.2835 3.00246 6.90479 11.3395 -3.12344 25.0256
5007052 3.83478 11.2835 3.00246 6.90479 11.3395 -3.12344 25.0256
5007058 3.93913 11.2929 3.03385 6.87672 11.1331 -3.17475 25.1426
5007079 3.93913 11.2929 3.03385 6.87672 11.1331 -3.17475 25.1426
5007080 3.96522 11.1434 3.06523 6.88608 10.9727 -3.08699 25.0599
5007088 4.0087 11.0874 3.16985 6.91414 10.7456 -2.98574 25.18
5007108 4.0087 11.0874 3.16985 6.91414 10.7456 -2.98574 25.18
5007109 4.0087 11.0033 3.18031 6.90479 10.6776 -2.9447 25.0971
5007118 4.0087 10.9473 3.16985 6.82058 10.6121 -2.98572 24.9464
5007138 4.06957 10.8352 3.30585 6.82058 10.2675 -2.86341 25.0312
5007165 4.06957 10.7511 3.34769 6.7738 10.1311 -2.82604 24.9422
5007169 4.17391 10.7418 3.38954 6.8393 9.96003 -2.79594 25.1445
5007179 4.17391 10.7418 3.38954 6.8393 9.96003 -2.79594 25.1445
5007194 4.23478 10.639 3.51508 6.88608 9.66889 -2.65439 25.2749
5007199 4.23478 10.6016 3.59877 6.8393 9.50305 -2.61036 25.2745
5007209 4.23478 10.6016 3.59877 6.8393 9.50305 -2.61036 25.2745
5007222 4.29565 10.5269 3.61969 6.88608 9.37453 -2.55651 25.3283
5007234 4.32174 10.4896 3.71385 6.82058 9.14805 -2.53112 25.3457
5007251 4.32174 10.4896 3.71385 6.82058 9.14805 -2.53112 25.3457
5007253 4.37391 10.3962 3.68246 6.82994 9.06727 -2.52606 25.2825
5007259 4.37391 10.3962 3.68246 6.82994 9.06727 -2.52606 25.2825
5007281 4.34783 10.3401 3.71385 6.78316 8.99505 -2.49609 25.1849
5007282 4.36522 10.2654 3.672 6.72702 8.94459 -2.53594 25.0296
5007290 4.36522 10.2654 3.672 6.72702 8.94459 -2.53594 25.0296
5007310 4.36522 10.1907 3.77662 6.6896 8.73071 -2.45163 25.0221
5007311 4.45217 10.0319 3.68246 6.57733 8.5623 -2.56079 24.7438
5007338 4.53043 9.9478 3.84985 6.5399 8.15046 -2.46612 24.868
5007340 4.53043 9.9478 3.84985 6.5399 8.15046 -2.46612 24.868
5007352 4.6087 9.87308 4.01723 6.54926 7.78139 -2.34465 25.0483
5007366 4.65217 9.81703 4.05908 6.49312 7.5924 -2.3482 25.0214
5007371 4.65217 9.81703 4.05908 6.49312 7.5924 -2.3482 25.0214
5007380 4.74783 9.68626 4.20554 6.38085 7.10793 -2.30673 25.0205
5007395 4.85217 9.54615 4.29969 6.26857 6.67178 -2.30111 24.9666
5007401 4.85217 9.54615 4.29969 6.26857 6.67178 -2.30111 24.9666
5007411 4.96522 9.44341 4.45662 6.29664 6.27757 -2.17911 25.1619
5007423 4.96522 9.44341 4.45662 6.29664 6.27757 -2.17911 25.1619
5007431 5.07826 9.3033 4.54031 6.21244 5.86566 -2.16565 25.1343
5007452 5.17391 9.13517 4.57169 6.0721 5.47197 -2.20333 24.9529
5007462 5.26087 9.01374 4.71815 5.93176 4.98151 -2.1814 24.9245
5007484 5.30435 9.01374 4.81231 5.89433 4.78668 -2.16473 25.0247
5007485 5.30435 8.76154 4.81231 5.89433 4.5809 -2.03406 24.7725
5007492 5.4087 8.58407 5.07385 5.86626 3.97847 -1.83652 24.9329
5007513 5.44348 8.49066 5.29354 5.81013 3.55839 -1.69572 25.0378
5007522 5.5913 8.35055 5.44 5.78206 3.0811 -1.62125 25.1639
5007542 5.75652 8.21978 5.62831 5.6885 2.49421 -1.57721 25.2931
5007554 5.75652 8.21978 5.62831 5.6885 2.49421 -1.57721 25.2931
5007570 5.8087 8.03297 5.74338 5.56687 2.03539 -1.50967 25.1519
5007572 5.9913 7.86484 5.88985 5.44524 1.41807 -1.50115 25.1912
5007582 5.9913 7.86484 5.88985 5.44524 1.41807 -1.50115 25.1912
5007600 6.0087 7.68736 5.99446 5.37039 1.05203 -1.39532 25.0609
5007602 6.02609 7.57527 6.02585 5.20198 0.730312 -1.43392 24.8292
5007612 6.02609 7.57527 6.02585 5.20198 0.730312 -1.43392 24.8292
5007630 6.23478 7.47253 6.16185 5.13649 0.212339 -1.44506 25.0056
5007632 6.23478 7.47253 6.16185 5.13649 0.212339 -1.44506 25.0056
5007642 6.30435 7.31374 6.21415 5.01486 -0.191073 -1.44226 24.8471
5007659 6.31304 7.22033 6.37108 4.96808 -0.498252 -1.32328 24.8725
5007663 6.31304 7.22033 6.37108 4.96808 -0.498252 -1.32328 24.8725
5007673 6.4 7.1456 6.40246 4.85581 -0.807384 -1.38325 24.8039
5007691 6.44348 7.06154 6.51754 4.85581 -1.04877 -1.28526 24.8784
5007693 6.44348 7.06154 6.51754 4.85581 -1.04877 -1.28526 24.8784
5007703 6.52174 7.06154 6.63262 4.87452 -1.21391 -1.2412 25.0904
5007721 6.52174 7.06154 6.63262 4.87452 -1.21391 -1.2412 25.0904
5007724 6.52174 6.96813 6.55938 4.90259 -1.21274 -1.21909 24.9518
5007733 6.56522 7.01484 6.60123 4.87452 -1.27425 -1.25977 25.0558
5007748 6.56522 7.01484 6.60123 4.87452 -1.27425 -1.25977 25.0558
5007753 6.56522 6.97747 6.51754 4.82774 -1.2833 -1.32438 24.888
5007766 6.51304 7.0522 6.56985 4.87452 -1.15573 -1.27204 25.0096
5007778 6.51304 7.0522 6.56985 4.87452 -1.15573 -1.27204 25.0096
5007783 6.58261 7.0522 6.50708 4.84645 -1.19159 -1.36941 24.9883
5007793 6.58261 7.0522 6.50708 4.84645 -1.19159 -1.36941 24.9883
5007807 6.49565 7.08956 6.664 4.84645 -1.21898 -1.24011 25.0957
5007813 6.5913 7.12692 6.72677 4.85581 -1.31947 -1.26616 25.3008
5007836 6.61739 7.16429 6.8 4.7716 -1.46086 -1.30757 25.3533
5007843 6.64348 7.07088 6.76862 4.67804 -1.65253 -1.35192 25.161
5007863 6.64348 7.07088 6.76862 4.67804 -1.65253 -1.35192 25.161
5007866 6.73043 7.08022 6.87323 4.52834 -1.97831 -1.43328 25.2122
5007874 6.73043 7.08022 6.87323 4.52834 -1.97831 -1.43328 25.2122
5007894 6.8087 6.94011 7.04062 4.45349 -2.43208 -1.3398 25.2429
5007924 6.86087 6.78132 7.28123 4.31315 -3.01906 -1.21716 25.2366
5007925 6.88696 6.7533 7.26031 4.21959 -3.15919 -1.29001 25.1202
5007952 6.84348 6.71593 7.36492 4.21959 -3.25414 -1.17816 25.1439
5007956 6.84348 6.71593 7.36492 4.21959 -3.25414 -1.17816 25.1439
5007965 6.91304 6.79066 7.39631 4.26637 -3.20534 -1.20693 25.3664
5007987 6.91304 6.8 7.42769 4.21959 -3.27396 -1.22184 25.3603
5007988 6.91304 6.8 7.42769 4.21959 -3.27396 -1.22184 25.3603
5007995 6.93043 6.78132 7.38585 4.12603 -3.37871 -1.30822 25.2236
5008014 6.90435 6.65055 7.40677 4.09796 -3.55413 -1.22717 25.0596
5008017 6.90435 6.65055 7.40677 4.09796 -3.55413 -1.22717 25.0596
5008025 6.93043 6.53846 7.59508 4.0044 -3.97179 -1.11859 25.0684
5008044 6.93043 6.53846 7.59508 4.0044 -3.97179 -1.11859 25.0684
5008046 6.93913 6.35165 7.74154 3.92955 -4.40619 -0.973296 24.9619
5008055 6.93043 6.13681 7.99262 3.84535 -4.95969 -0.740376 24.9052
5008073 6.93043 6.13681 7.99262 3.84535 -4.95969 -0.740376 24.9052
5008075 7.01739 5.9033 8.13908 3.82664 -5.45131 -0.575599 24.8864
5008088 6.98261 5.82857 8.33785 3.78921 -5.71679 -0.411488 24.9382
5008104 6.98261 5.82857 8.33785 3.78921 -5.71679 -0.411488 24.9382
5008106 7.04348 5.72582 8.47385 3.74243 -6.05256 -0.332005 24.9856
5008115 7.04348 5.72582 8.47385 3.74243 -6.05256 -0.332005 24.9856
5008133 7.13913 5.49231 8.71446 3.67694 -6.67824 -0.14389 25.0228
5008136 7.26087 5.21209 8.91323 3.58338 -7.38763 0.0142086 24.9696
5008145 7.26087 5.21209 8.91323 3.58338 -7.38763 0.0142086 24.9696
5008162 7.34783 4.97857 9.05969 3.39626 -8.10324 0.0784153 24.7823
5008165 7.48696 4.74505 9.27938 3.37755 -8.68231 0.256088 24.8889
5008191 7.73913 4.73571 9.45723 3.44304 -8.8843 0.25148 25.3751
5008197 7.73913 4.73571 9.45723 3.44304 -8.8843 0.25148 25.3751
5008207 7.93913 4.5956 9.50954 3.35883 -9.34357 0.197006 25.4031
5008219 8.02609 4.48352 9.57231 3.3869 -9.54891 0.264798 25.4688
5008227 8.02609 4.48352 9.57231 3.3869 -9.54891 0.264798 25.4688
5008247 8.10435 4.36209 9.64554 3.24656 -9.99786 0.251786 25.3585
5008249 8.16522 4.17527 9.64554 3.16236 -10.4113 0.278787 25.1484
5008278 8.31304 4.12857 9.71877 3.21849 -10.5252 0.292947 25.3789
5008280 8.31304 4.12857 9.71877 3.21849 -10.5252 0.292947 25.3789
5008287 8.4 4.11923 9.66646 3.19042 -10.5974 0.19959 25.3761
5008308 8.48696 4.23132 9.656 3.17171 -10.5104 0.0642586 25.546
5008317 8.45217 4.2033 9.61415 3.12493 -10.5713 0.0493884 25.3946
5008338 8.51304 4.03516 9.56185 3.12493 -10.8132 0.0823671 25.235
5008339 8.51304 4.03516 9.56185 3.12493 -10.8132 0.0823671 25.235
5008348 8.53913 4.08187 9.52 3.10622 -10.7646 0.00310242 25.2472
5008370 8.53913 4.08187 9.52 3.10622 -10.7646 0.00310242 25.2472
5008372 8.56522 3.91374 9.59323 3.03137 -11.1671 0.087027 25.1036
5008378 8.63478 3.92308 9.55138 3.0033 -11.2093 -0.00189453 25.1125
5008398 8.63478 3.92308 9.55138 3.0033 -11.2093 -0.00189453 25.1125
5008399 8.69565 3.81099 9.55138 2.96588 -11.4592 0.00636756 25.0239
5008408 8.74783 3.81099 9.57231 2.98459 -11.4715 -0.00114441 25.1157
5008428 8.74783 3.81099 9.57231 2.98459 -11.4715 -0.00114441 25.1157
5008430 8.8087 3.75495 9.60369 2.90039 -11.7253 -0.0356412 25.0677
5008438 8.8087 3.75495 9.60369 2.90039 -11.7253 -0.0356412 25.0677
5008459 8.93913 3.79231 9.48862 2.89103 -11.6925 -0.210143 25.1111
5008461 8.9913 3.80165 9.46769 2.78811 -11.8461 -0.321662 25.0488
5008468 8.9913 3.80165 9.46769 2.78811 -11.8461 -0.321662 25.0488
5008489 9.11304 3.80165 9.32123 2.81618 -11.7919 -0.4654 25.0521
5008490 9.16522 3.75495 9.26892 2.71326 -12.0129 -0.564992 24.9023
5008499 9.16522 3.75495 9.26892 2.71326 -12.0129 -0.564992 24.9023
5008519 9.22609 3.7456 9.19569 2.64777 -12.118 -0.68198 24.8152
5008534 9.22609 3.7456 9.19569 2.64777 -12.118 -0.68198 24.8152
5008547 9.31304 3.71758 9.248 2.75069 -12.0786 -0.618438 25.0293
5008549 9.35652 3.64286 9.30031 2.6852 -12.3362 -0.608695 24.9849
5008550 9.35652 3.64286 9.30031 2.6852 -12.3362 -0.608695 24.9849
5008559 9.50435 3.68956 9.21662 2.60099 -12.4247 -0.825402 25.0115
5008578 9.54783 3.70824 9.20615 2.63841 -12.3576 -0.843504 25.1006
5008579 9.54783 3.70824 9.20615 2.63841 -12.3576 -0.843504 25.1006
5008589 9.6 3.71758 9.248 2.63841 -12.3909 -0.851749 25.204
5008607 9.6 3.71758 9.248 2.63841 -12.3909 -0.851749 25.204
5008611 9.6087 3.68022 9.18523 2.58228 -12.5032 -0.910789 25.0564
5008619 9.68696 3.6522 9.18523 2.57292 -12.598 -0.944922 25.0973
5008639 9.68696 3.6522 9.18523 2.57292 -12.598 -0.944922 25.0973
5008640 9.68696 3.61484 9.14338 2.49807 -12.7464 -0.998467 24.9433
