12734838 6.81762 18.0212 8.66116 34 13.5342 3.96053 67.4999
12734855 6.43886 18.2254 8.42202 34 13.9241 3.9705 67.0863
12734867 6.20104 18.3907 8.34924 34 14.132 3.97906 66.941
12734875 6.20104 18.3907 8.34924 34 14.132 3.97906 66.941
12734885 6.08653 18.488 8.20367 34 14.3002 3.95994 66.7782
12734897 5.93679 18.595 8.0893 34 14.4732 3.95315 66.621
12734906 5.93679 18.595 8.0893 34 14.4732 3.95315 66.621
12734916 5.82228 18.5561 8.11009 34 14.5227 4.00034 66.4884
12734937 5.70777 18.4588 7.99572 34 14.644 4.04214 66.1623
12734948 5.68135 18.5755 8.02691 34 14.6594 4.02136 66.2838
12734956 5.68135 18.5755 8.02691 34 14.6594 4.02136 66.2838
12734967 5.64611 18.7117 8.00612 34 14.7141 3.98899 66.3639
12734977 5.77824 18.9354 7.98532 34 14.6823 3.88426 66.6989
12734987 5.77824 18.9354 7.98532 34 14.6823 3.88426 66.6989
12735002 5.86632 18.9159 8.09969 34 14.5592 3.88389 66.8819
12735017 5.88394 19.0229 8.09969 34 14.5655 3.84878 67.0065
12735026 6.03368 19.0521 8.17248 34 14.4391 3.81071 67.2582
12735046 6.18342 19.1882 8.21407 34 14.3487 3.73802 67.5857
12735057 6.30674 19.373 8.24526 34 14.2882 3.6582 67.925
12735069 6.30674 19.373 8.24526 34 14.2882 3.6582 67.925
12735076 6.3772 19.6259 8.21407 34 14.3053 3.56458 68.2171
12735086 6.3772 19.6259 8.21407 34 14.3053 3.56458 68.2171
12735102 6.44767 19.8301 8.14128 34 14.3385 3.47788 68.419
12735118 6.50933 19.9371 8.14128 34 14.3198 3.43244 68.5877
12735128 6.57979 19.9565 8.0581 34 14.3301 3.39425 68.5944
12735138 6.62383 19.9857 8.15168 34 14.2559 3.39046 68.7612
12735148 6.62383 19.9857 8.15168 34 14.2559 3.39046 68.7612
12735158 6.61503 20.0343 8.0685 34 14.3161 3.36575 68.7178
12735169 6.61503 20.0343 8.0685 34 14.3161 3.36575 68.7178
12735178 6.66788 20.0538 8.03731 34 14.3067 3.34116 68.759
12735188 6.72073 20.1705 8.03731 34 14.2947 3.29605 68.9285
12735198 6.72073 20.1705 8.03731 34 14.2947 3.29605 68.9285
12735208 6.78238 20.2872 8.0685 34 14.26 3.25413 69.1381
12735218 6.78238 20.2872 8.0685 34 14.26 3.25413 69.1381
12735228 6.76477 20.2775 8.0581 34 14.2744 3.25958 69.1003
12735238 6.88808 20.3942 8.13089 34 14.1815 3.20875 69.4131
12735258 6.96736 20.5984 8.03731 34 14.2213 3.11873 69.6031
12735268 6.93212 20.8124 8.00612 34 14.2917 3.06699 69.7506
12735278 6.93212 20.8124 8.00612 34 14.2917 3.06699 69.7506
12735288 6.97617 20.9777 7.90214 34 14.3507 2.99508 69.856
12735298 6.97617 20.9777 7.90214 34 14.3507 2.99508 69.856
12735308 6.9057 21.0069 7.93333 34 14.3773 3.01108 69.8459
12735328 7.02902 21.1041 7.87095 34 14.3578 2.94365 70.0041
12735329 7.02902 21.1041 7.87095 34 14.3578 2.94365 70.0041
12735340 7.07306 21.2986 7.80856 34 14.3976 2.87194 70.1802
12735350 7.03782 21.464 7.79817 34 14.4481 2.83707 70.2999
12735361 7.03782 21.464 7.79817 34 14.4481 2.83707 70.2999
12735370 7.1171 21.7071 7.78777 34 14.4459 2.75383 70.612
12735380 7.1171 21.7071 7.75658 34 14.4634 2.74842 70.5808
12735389 7.19637 22.0475 7.75658 34 14.4698 2.64352 71.0004
12735401 7.20518 22.4268 7.73578 34 14.5324 2.54397 71.3677
12735409 7.20518 22.4268 7.73578 34 14.5324 2.54397 71.3677
12735420 7.23161 22.6796 7.72538 34 14.5605 2.47376 71.6366
12735429 7.31969 22.8255 7.71498 34 14.5389 2.41506 71.8602
12735439 7.31969 22.8255 7.71498 34 14.5389 2.41506 71.8602
12735449 7.48705 22.9228 7.75658 34 14.4386 2.35846 72.1664
12735469 7.50466 22.913 7.75658 34 14.4275 2.35656 72.1743
12735479 7.39896 22.9325 7.71498 34 14.511 2.37004 72.0464
12735489 7.39896 22.9325 7.71498 34 14.511 2.37004 72.0464
12735502 7.25803 22.9325 7.6318 34 14.6343 2.3895 71.8223
12735512 7.14352 22.9811 7.59021 34 14.7276 2.39816 71.7149
12735519 7.14352 22.9811 7.59021 34 14.7276 2.39816 71.7149
12735529 7.10829 23.1367 7.56942 34 14.7808 2.36535 71.8144
12735539 7.10829 23.1367 7.56942 34 14.7808 2.36535 71.8144
12735549 7.12591 23.1951 7.51743 34 14.8081 2.33784 71.8384
12735559 7.04663 23.409 7.43425 34 14.9284 2.2907 71.8899
12735580 7.04663 23.5646 7.39266 34 14.9733 2.246 72.0039
12735590 7.00259 23.6716 7.40306 34 15.0068 2.23278 72.0773
12735601 7.00259 23.6716 7.40306 34 15.0068 2.23278 72.0773
12735610 6.98497 23.6327 7.37187 34 15.0285 2.24078 71.9896
12735630 6.99378 23.4966 7.44465 34 14.9643 2.28421 71.935
12735641 7.10829 23.2632 7.55902 34 14.8045 2.333 71.9305
12735653 7.10829 23.2632 7.55902 34 14.8045 2.333 71.9305
12735660 7.09948 23.1173 7.51743 34 14.8118 2.36303 71.7342
12735670 7.23161 23.0297 7.59021 34 14.6858 2.36505 71.8516
12735695 7.3285 22.8839 7.663 34 14.5712 2.38968 71.8754
12735700 7.3285 22.8839 7.663 34 14.5712 2.38968 71.8754
12735710 7.27565 22.6018 7.69419 34 14.5421 2.47655 71.5717
12735722 7.16995 22.3587 7.78777 34 14.5131 2.57846 71.3164
12735743 7.16114 22.2323 7.73578 34 14.5283 2.60281 71.1292
12735752 7.02902 22.1642 7.71498 34 14.6035 2.64887 70.9082
12735771 6.97617 22.2128 7.6526 34 14.675 2.63905 70.8416
12735793 6.9057 22.2614 7.67339 34 14.7099 2.64811 70.8405
12735803 6.84404 22.3392 7.62141 34 14.785 2.63502 70.8047
12735825 6.82643 22.2712 7.60061 34 14.7967 2.65276 70.6982
12735833 6.74715 22.2225 7.71498 34 14.77 2.70468 70.6847
12735854 6.70311 22.1447 7.6318 34 14.8305 2.72078 70.4797
12735864 6.53575 21.8822 7.56942 34 14.9231 2.81869 69.9873
12735884 6.49171 21.8043 7.663 34 14.8836 2.86602 69.9591
12735894 6.49171 21.8043 7.663 34 14.8836 2.86602 69.9591
12735904 6.40363 21.7946 7.59021 34 14.9741 2.8784 69.7885
12735914 6.56218 21.7265 7.6526 34 14.8381 2.86609 69.9413
12735937 6.73834 21.7654 7.71498 34 14.7084 2.82215 70.2188
12735944 6.84404 21.6196 7.82936 34 14.5627 2.85215 70.293
12735973 7.09067 21.3375 8.04771 34 14.2599 2.89876 70.4759
12735974 7.09067 21.3375 8.04771 34 14.2599 2.89876 70.4759
12735986 7.31088 20.8999 8.14128 34 14.018 2.97017 70.3521
12735995 7.45181 20.4914 8.38043 34 13.7433 3.07945 70.3237
12736016 7.69845 19.9371 8.52599 34 13.4378 3.18347 70.1615
12736028 7.77772 19.9371 8.68196 34 13.3094 3.18918 70.3967
12736049 7.77772 19.48 8.68196 34 13.2329 3.30805 69.9397
12736051 7.85699 19.0229 8.75474 34 13.0722 3.41961 69.6346
12736055 7.85699 19.0229 8.75474 34 13.0722 3.41961 69.6346
12736068 7.92746 18.5463 8.84832 34 12.9001 3.54314 69.3221
12736079 7.9715 18.2351 8.90031 34 12.793 3.62345 69.1069
12736086 7.9715 18.2351 8.90031 34 12.793 3.62345 69.1069
12736098 8.12124 17.9142 8.9107 34 12.6484 3.6714 68.9461
12736106 8.1829 17.778 8.9419 34 12.5732 3.69672 68.9028
12736126 8.24456 17.7878 8.96269 34 12.5301 3.68078 68.995
12736139 8.24456 17.7878 8.96269 34 12.5301 3.68078 68.995
12736147 8.27979 17.6322 8.95229 34 12.4884 3.71173 68.8642
12736157 8.36788 17.5154 9.03547 34 12.374 3.73312 68.9188
12736167 8.36788 17.5154 9.03547 34 12.374 3.73312 68.9188
12736176 8.47358 17.4376 9.05627 34 12.2912 3.72894 68.9675
12736186 8.66736 17.3696 9.20183 34 12.096 3.71864 69.2388
12736198 8.66736 17.3696 9.20183 34 12.096 3.71864 69.2388
12736208 8.88756 17.3307 9.24343 34 11.9489 3.67653 69.4617
12736218 8.88756 17.3307 9.24343 34 11.9489 3.67653 69.4617
12736228 8.99326 17.1556 9.29541 34 11.8321 3.70366 69.4443
12736238 8.99326 17.0973 9.27462 34 11.8321 3.71601 69.3651
12736248 8.99326 17.0973 9.27462 34 11.8321 3.71601 69.3651
12736259 8.85233 17.0778 9.14985 34 11.97 3.73908 69.08
12736268 8.50881 16.9816 9.12905 34 12.1481 3.85576 68.6194
12736288 8.72902 17.0486 9.30581 34 11.9471 3.80587 69.0835
12736300 8.72902 17.0486 9.30581 34 11.9471 3.80587 69.0835
12736308 9.21347 17.1362 9.46177 34 11.6245 3.67679 69.8114
12736318 9.75959 17.1945 9.66972 34 11.2445 3.55028 70.6238
12736328 9.75959 17.1945 9.66972 34 11.2445 3.55028 70.6238
12736338 10.1031 17.3112 9.73211 34 11.0603 3.44032 71.1464
12736349 10.1648 17.1751 9.70092 34 11.0181 3.45459 71.0407
12736360 10.1648 17.1751 9.70092 34 11.0181 3.45459 71.0407
12736369 9.8829 17.107 9.59694 34 11.2015 3.52907 70.5868
12736389 9.22228 16.9816 9.37859 34 11.6339 3.70238 69.5825
12736399 9.07254 17 9.57615 34 11.6123 3.76969 69.6487
12736420 9.95337 17.2529 9.95046 34 11.0141 3.52972 71.1567
12736430 11.1425 17.5349 10.5327 34 10.1966 3.2486 73.2101
12736450 12.1026 17.778 11.1774 34 9.49202 3.05699 75.058
12736470 12.4725 17.6808 11.6765 34 9.07684 3.07065 75.8298
12736482 12.5694 17.4182 12.4875 34 8.61761 3.23632 76.4751
12736490 12.5694 17.4182 12.4875 34 8.61761 3.23632 76.4751
12736505 12.4461 17.1167 13.6624 34 8.09587 3.51561 77.2252
12736512 12.4637 16.9447 15.8875 34 7.12318 3.8739 79.2959
12736531 12.9746 16.9171 18.5651 34 5.875 4.12459 82.4569
12736542 12.9746 16.9171 18.5651 34 5.875 4.12459 82.4569
12736551 13.4591 16.8342 20.5043 34 4.97385 4.28273 84.7976
12736562 13.6793 16.604 21.8825 33.1037 4.14744 4.34556 85.2695
12736572 13.6793 16.604 21.8825 33.1037 4.14744 4.34556 85.2695
12736581 13.6617 16.2449 23.3098 30.3857 2.88841 4.26825 83.602
12736596 13.7497 16.0238 25.564 27.9696 1.40436 4.27815 83.3072
12736605 13.7497 16.0238 25.564 27.9696 1.40436 4.27815 83.3072
12736615 13.7762 15.9317 28.1529 25.612 -0.115383 4.32302 83.4728
12736622 13.7762 15.9317 28.1529 25.612 -0.115383 4.32302 83.4728
12736632 13.9699 15.9133 30.7024 23.157 -1.67238 4.29461 83.7427
12736642 14.2518 16.033 33.4389 20.7507 -3.22789 4.24473 84.4745
12736654 14.2518 16.033 33.4389 20.7507 -3.22789 4.24473 84.4745
12736663 14.428 15.9041 34 18.4223 -4.26005 4.00406 82.7544
12736676 14.5689 15.2134 34 16.4289 -5.27563 3.86103 80.2112
12736693 14.6922 14.5043 34 14.944 -6.15682 3.79075 78.1406
12736713 14.6922 13.8505 34 13.7637 -6.90572 3.77838 76.3064
12736725 14.6482 13.3624 34 12.9832 -7.43481 3.79484 74.9938
12736733 14.6482 13.3624 34 12.9832 -7.43481 3.79484 74.9938
12736743 14.4896 12.9019 34 12.2979 -7.90134 3.84851 73.6895
12736753 14.2694 12.5888 34 11.9457 -8.15028 3.93263 72.804
12736764 14.2694 12.5888 34 11.9457 -8.15028 3.93263 72.804
12736773 14.014 12.0639 34 11.6221 -8.48257 4.08874 71.7
12736783 14.014 12.0639 34 11.6221 -8.48257 4.08874 71.7
12736793 13.556 11.2075 34 11.4698 -8.85575 4.42234 70.2332
12736803 13.0627 10.5628 34 11.3841 -9.09864 4.72946 69.0096
12736824 12.5959 10.0379 34 11.327 -9.28144 5.00875 67.9608
12736835 12.1731 9.46696 34 11.2604 -9.50882 5.29601 66.9004
12736845 12.1731 9.46696 34 11.2604 -9.50882 5.29601 66.9004
12736855 11.7767 9.18147 34 11.2128 -9.58973 5.49817 66.1709
12736864 11.7767 9.18147 34 11.2128 -9.58973 5.49817 66.1709
12736874 11.5565 8.89599 34 11.0224 -9.78929 5.62886 65.4749
12736885 11.3451 8.3987 34 10.8415 -10.1048 5.82898 64.5853
12736906 11.4948 7.70802 34 10.4608 -10.7306 5.95111 63.6636
12736914 11.8471 6.93445 34 10.1753 -11.4116 6.05025 62.9569
12736934 12.2259 6.474 34 10.0705 -11.8214 6.06272 62.7705
12736948 12.2259 6.474 34 10.0705 -11.8214 6.06272 62.7705
12736954 12.5078 6.15168 34 10.0134 -12.1036 6.06817 62.6729
12736965 12.772 6.08722 34 9.9944 -12.2071 5.9985 62.8536
12736975 12.772 6.08722 34 9.9944 -12.2071 5.9985 62.8536
12736985 13.0451 5.92145 34 9.95633 -12.3831 5.95725 62.9229
12736995 13.3886 5.48862 34 9.68029 -12.876 5.94726 62.5575
12737005 13.3886 5.48862 34 9.68029 -12.876 5.94726 62.5575
12737015 13.785 4.96371 34 9.43281 -13.4238 5.95454 62.1815
12737025 13.785 4.96371 34 9.43281 -13.4238 5.95454 62.1815
12737035 14.3487 4.47562 34 9.1187 -14.0268 5.88308 61.943
12737047 15.0005 4.11647 34 8.88074 -14.518 5.7495 61.9977
12737057 15.0005 4.11647 34 8.88074 -14.518 5.7495 61.9977
12737066 15.5642 4.052 34 8.79507 -14.7077 5.57082 62.4113
12737077 15.9518 4.12568 34 8.72844 -14.7668 5.40975 62.8059
12737087 15.9518 4.12568 34 8.72844 -14.7668 5.40975 62.8059
12737096 16.4275 4.32828 34 8.72844 -14.7166 5.1917 63.4842
12737116 16.6212 4.58613 34 8.70941 -14.5993 5.0461 63.9168
12737126 16.815 4.83478 34 8.72844 -14.466 4.91128 64.3783
12737154 16.9295 4.99133 34 8.63326 -14.4472 4.8128 64.5541
12737157 16.8767 4.94529 34 8.62374 -14.4725 4.8417 64.4457
12737166 16.8767 4.94529 34 8.62374 -14.4725 4.8417 64.4457
12737177 16.7534 4.89003 34 8.50952 -14.5566 4.87884 64.1529
12737187 16.7534 4.89003 34 8.50952 -14.5566 4.87884 64.1529
12737198 16.5508 4.7519 34 8.51904 -14.6031 4.98648 63.8217
12737207 16.3746 4.72427 34 8.56663 -14.5619 5.05794 63.6655
12737218 16.3746 4.72427 34 8.56663 -14.5619 5.05794 63.6655
12737228 16.2249 4.70585 34 8.58567 -14.5369 5.11402 63.5164
12737239 16.0663 4.64139 34 8.66181 -14.5035 5.19669 63.3695
12737259 16.0663 4.70585 34 8.69037 -14.4456 5.18058 63.4625
12737268 16.0663 4.70585 34 8.69037 -14.4456 5.18058 63.4625
12737278 16.0839 4.66901 34 8.78555 -14.4123 5.2014 63.5385
12737288 16.1192 4.80715 34 8.89026 -14.2681 5.16259 63.8166
12737298 16.1192 4.80715 34 8.89026 -14.2681 5.16259 63.8166
12737308 16.172 5.01896 34 9.014 -14.0718 5.09844 64.205
12737318 16.128 5.19393 34 9.09015 -13.912 5.06929 64.4121
12737339 16.0663 5.41495 34 9.19485 -13.7054 5.03592 64.6761
12737349 16.0663 5.41495 34 9.19485 -13.7054 5.03592 64.6761
12737360 15.8373 5.62676 34 9.29003 -13.482 5.05589 64.7541
12737369 15.714 5.93066 34 9.39474 -13.2184 5.01621 65.0394
12737389 15.485 6.10563 34 9.528 -12.996 5.05326 65.1186
12737401 15.1591 6.41874 34 9.62318 -12.6981 5.07171 65.201
12737410 15.1591 6.41874 34 9.62318 -12.6981 5.07171 65.201
12737425 14.9124 6.81473 34 9.8421 -12.2983 5.05914 65.5693
12737432 14.9124 6.81473 34 9.8421 -12.2983 5.05914 65.5693
12737439 14.5073 7.20152 34 9.98488 -11.9193 5.08636 65.6936
12737451 14.1725 7.66197 34 10.0991 -11.5311 5.06523 65.9336
12737460 14.1725 7.66197 34 10.0991 -11.5311 5.06523 65.9336
12737477 13.8554 8.05796 34 10.2038 -11.1898 5.05702 66.1172
12737480 13.5648 8.38028 34 10.2514 -10.927 5.05458 66.1964
12737490 13.5648 8.38028 34 10.2514 -10.927 5.05458 66.1964
12737500 13.2477 8.57367 34 10.2514 -10.7543 5.09213 66.0727
12737510 13.2477 8.57367 34 10.2514 -10.7543 5.09213 66.0727
12737520 13.0627 8.6013 34 10.299 -10.6736 5.14721 65.963
12737530 13.0539 8.75785 34 10.3751 -10.5462 5.11357 66.1869
12737540 13.0539 8.75785 34 10.3751 -10.5462 5.11357 66.1869
12737550 13.0979 8.8039 34 10.4132 -10.5107 5.09192 66.315
12737560 13.0715 8.87757 34 10.4798 -10.43 5.08757 66.4289
12737580 13.0891 8.86836 34 10.4703 -10.4438 5.0836 66.4278
12737590 13.0891 8.86836 34 10.4703 -10.4438 5.0836 66.4278
12737600 13.2212 8.67497 34 10.3751 -10.6272 5.08793 66.2714
12737610 13.4062 8.50921 34 10.3085 -10.7924 5.07213 66.2239
12737620 13.4062 8.50921 34 10.3085 -10.7924 5.07213 66.2239
12737630 13.5295 8.35265 34 10.2704 -10.9241 5.0765 66.1526
12737640 13.5912 8.44475 34 10.2704 -10.8873 5.02994 66.3064
12737650 13.5912 8.44475 34 10.2704 -10.8873 5.02994 66.3064
12737660 13.8202 8.65656 34 10.3942 -10.7556 4.91635 66.8709
12737670 13.8202 8.65656 34 10.3942 -10.7556 4.91635 66.8709
12737681 13.785 8.95125 34 10.4418 -10.5659 4.84657 67.178
12737692 13.6969 9.23673 34 10.4989 -10.3664 4.79708 67.4325
12737702 13.6969 9.23673 34 10.4989 -10.3664 4.79708 67.4325
12737711 13.644 9.38407 34 10.4513 -10.3027 4.76216 67.4794
12737722 13.5383 9.49458 34 10.5655 -10.1623 4.77805 67.5984
12737741 13.5119 9.69718 34 10.6036 -10.0317 4.73241 67.8127
12737763 13.4415 9.83532 34 10.6226 -9.93511 4.71562 67.8994
12737778 13.4767 9.88136 34 10.6607 -9.89971 4.69782 68.0187
12737793 13.4943 9.82611 34 10.556 -9.98587 4.69285 67.8764
12737804 13.5912 9.6143 34 10.5084 -10.1414 4.71903 67.7139
12737823 13.6793 9.42091 34 10.4703 -10.2811 4.74396 67.5705
12737835 13.6793 9.42091 34 10.4703 -10.2811 4.74396 67.5705
12737843 13.9259 9.05255 34 10.1086 -10.7192 4.72449 67.0871
12737855 14.243 8.3987 34 9.81355 -11.2974 4.77882 66.4553
12737863 14.243 8.3987 34 9.81355 -11.2974 4.77882 66.4553
12737873 14.5601 7.67118 34 9.65174 -11.8533 4.87693 65.883
12737882 14.9124 7.47779 34 9.64222 -12.0367 4.82763 66.0324
12737892 14.9124 7.47779 34 9.64222 -12.0367 4.82763 66.0324
12737902 15.2472 7.97508 34 9.76596 -11.7581 4.60015 66.9882
12737914 15.2472 7.97508 34 9.76596 -11.7581 4.60015 66.9882
12737926 15.485 8.64735 34 9.92777 -11.3539 4.36279 68.0601
12737934 15.5554 9.28277 34 10.1657 -10.9077 4.20139 69.004
12737944 15.5554 9.28277 34 10.1657 -10.9077 4.20139 69.004
12737954 15.5731 9.79848 34 10.2038 -10.6254 4.06012 69.5753
12737964 15.485 10.1208 34 10.2514 -10.4187 4.00366 69.8572
12737986 15.3176 10.351 34 10.318 -10.2336 3.99706 69.9867
12738004 15.0005 10.5168 34 10.3942 -10.0447 4.05016 69.9115
12738014 14.7891 10.7194 34 10.4513 -9.8694 4.0615 69.9598
12738035 14.6482 10.8299 34 10.4037 -9.80749 4.06235 69.8818
12738045 14.4104 10.7286 34 10.4037 -9.80624 4.1553 69.5427
12738055 14.4104 10.7286 34 10.4037 -9.80624 4.1553 69.5427
12738065 14.3663 10.6826 34 10.3751 -9.834 4.1757 69.424
12738075 14.3663 10.6826 34 10.3751 -9.834 4.1757 69.424
12738087 14.2694 10.4155 34 10.2038 -10.0343 4.25009 68.8887
12738095 14.3575 9.94583 34 10.1943 -10.2987 4.35583 68.4976
12738108 14.3575 9.94583 34 10.1943 -10.2987 4.35583 68.4976
12738117 14.3751 9.36566 34 10.023 -10.694 4.48961 67.7637
12738128 14.4896 8.94204 34 9.95633 -10.9779 4.56862 67.388
12738137 14.4896 8.94204 34 9.95633 -10.9779 4.56862 67.388
12738150 14.6746 8.93283 34 10.042 -10.9756 4.53098 67.6494
12738157 14.7979 9.37486 34 10.1943 -10.6882 4.39279 68.3671
12738176 14.8596 9.89057 34 10.3942 -10.3316 4.26152 69.1443
12738202 14.9036 10.305 34 10.4989 -10.0777 4.15097 69.7075
12738207 14.8155 10.6365 34 10.556 -9.86424 4.09323 70.008
12738217 14.8155 10.6365 34 10.556 -9.86424 4.09323 70.008
12738226 14.6922 10.9036 34 10.575 -9.69549 4.05708 70.1708
12738236 14.6922 10.9036 34 10.575 -9.69549 4.05708 70.1708
12738247 14.4192 10.9496 34 10.5941 -9.60348 4.12189 69.9629
12738258 14.2342 11.1338 34 10.7368 -9.40147 4.14426 70.1048
12738267 14.2342 11.1338 34 10.7368 -9.40147 4.14426 70.1048
12738280 14.0316 11.2075 34 10.813 -9.28279 4.19129 70.0521
12738289 13.7938 11.6035 34 10.9653 -8.96252 4.17155 70.3625
12738298 13.7938 11.6035 34 10.9653 -8.96252 4.17155 70.3625
12738308 13.5207 12.1284 34 11.089 -8.58918 4.12223 70.7381
12738318 13.5207 12.1284 34 11.089 -8.58918 4.12223 70.7381
12738328 13.186 12.6349 34 11.2889 -8.17827 4.10661 71.1098
12738338 12.9746 13.1874 34 11.4602 -7.79329 4.04166 71.6223
12738358 12.728 13.519 34 11.5554 -7.5393 4.03368 71.8024
12738369 12.4725 13.8137 34 11.8791 -7.1987 4.0725 72.1653
12738379 12.4725 13.8137 34 11.8791 -7.1987 4.0725 72.1653
12738398 12.358 14.1636 34 12.3359 -6.81415 4.07939 72.8576
12738428 12.0409 14.2741 34 13.0784 -6.36584 4.24357 73.3934
12738433 11.8471 14.5412 34 14.3729 -5.66239 4.41096 74.7612
12738434 11.8471 14.5412 34 14.3729 -5.66239 4.41096 74.7612
12738439 11.6093 14.9464 34 16.229 -4.69949 4.62461 76.7847
12738449 11.3451 15.37 34 18.7633 -3.52667 4.9161 79.4784
12738471 11.1161 15.5634 34 21.5983 -2.41694 5.27217 82.2777
12738479 11.1161 15.5634 34 21.5983 -2.41694 5.27217 82.2777
12738490 10.7461 15.4529 34 24.4625 -1.4265 5.71632 84.6615
12738499 10.4202 15.3516 34 27.1026 -0.565776 6.10033 86.8744
12738522 10.0679 15.3332 32.4152 29.1874 0.585467 6.24139 87.0036
12738535 9.90933 15.7015 29.1372 30.8436 2.1902 6.02336 85.5916
12738550 9.91813 16.429 25.6526 32.2172 3.8815 5.61454 84.2169
12738565 10.0767 17.0973 22.3549 33.3668 5.43828 5.16573 82.8956
12738570 10.0767 17.0973 22.3549 33.3668 5.43828 5.16573 82.8956
12738580 10.385 17.7391 19.6775 34 6.62478 4.68574 81.8016
12738600 10.7902 18.2059 17.315 34 7.50232 4.16858 80.3111
12738614 11.1249 18.5172 15.3364 34 8.24779 3.74046 78.9784
12738630 11.3451 18.6922 13.6312 34 8.92123 3.39788 77.6685
12738640 11.3803 18.6241 12.4147 34 9.43126 3.2211 76.4191
12738662 11.4684 18.6436 11.3853 34 9.86455 3.03455 75.4973
12738671 11.4684 18.6436 11.3853 34 9.86455 3.03455 75.4973
12738682 11.2834 18.3227 10.7303 34 10.1932 3.05184 74.3363
12738694 11.0456 17.9142 10.2832 34 10.4397 3.1382 73.243
12738705 11.0456 17.9142 10.2832 34 10.4397 3.1382 73.243
12738711 10.658 17.4182 9.88807 34 10.7248 3.29577 71.9643
12738721 10.658 17.4182 9.88807 34 10.7248 3.29577 71.9643
12738732 10.156 16.9171 9.71132 34 10.9663 3.52583 70.7844
12738742 9.7772 16.4567 9.53456 34 11.1601 3.7196 69.7684
12738765 9.32798 15.987 9.48257 34 11.3291 3.9611 68.7975
12738771 8.83471 15.812 9.25382 34 11.6801 4.11052 67.9006
12738784 8.83471 15.812 9.25382 34 11.6801 4.11052 67.9006
12738791 8.34145 15.7476 9.01468 34 12.0677 4.23054 67.1037
12738803 7.76891 15.766 8.69236 34 12.5721 4.33903 66.2272
12738813 7.76891 15.766 8.69236 34 12.5721 4.33903 66.2272
12738825 7.35492 16.0515 8.56758 34 12.9327 4.35654 65.974
12738833 7.35492 16.0515 8.56758 34 12.9327 4.35654 65.974
12738843 6.89689 16.3646 8.44281 34 13.3267 4.37902 65.7043
12738853 6.70311 16.7053 8.29725 34 13.5852 4.31215 65.7057
12738863 6.70311 16.7053 8.29725 34 13.5852 4.31215 65.7057
12738873 6.62383 17.0584 8.24526 34 13.7231 4.22352 65.9274
12738895 6.4829 17.3112 8.19327 34 13.8796 4.18243 65.9874
12738905 6.41244 17.5835 8.14128 34 13.9973 4.11538 66.1372
12738917 6.41244 17.5835 8.14128 34 13.9973 4.11538 66.1372
12738923 6.28031 17.9628 8.03731 34 14.1992 4.02702 66.2804
12738934 6.13938 18.2935 7.99572 34 14.3607 3.96581 66.4286
12738944 6.13938 18.2935 7.99572 34 14.3607 3.96581 66.4286
12738954 5.98083 18.6339 7.86055 34 14.5891 3.89149 66.4753
12738964 5.91036 19.0034 7.72538 34 14.769 3.78417 66.6392
12738985 5.89275 19.48 7.6318 34 14.9077 3.63985 67.0045
12738994 5.89275 19.48 7.6318 34 14.9077 3.63985 67.0045
12739007 5.96321 19.8301 7.55902 34 14.9616 3.51117 67.3523
12739015 6.04249 19.9662 7.663 34 14.8735 3.4699 67.6717
12739030 6.04249 19.9662 7.663 34 14.8735 3.4699 67.6717
12739035 6.08653 20.0927 7.56942 34 14.9216 3.4075 67.7486
12739045 6.07772 20.1316 7.57982 34 14.9265 3.4011 67.7891
12739056 6.07772 20.1316 7.57982 34 14.9265 3.4011 67.7891
12739065 6.06891 20.2677 7.59021 34 14.9457 3.36838 67.9269
12739075 6.06891 20.2677 7.59021 34 14.9457 3.36838 67.9269
12739085 6.15699 20.2483 7.6318 34 14.8667 3.35696 68.0371
12739096 6.19223 20.2969 7.61101 34 14.8655 3.3308 68.1001
12739119 6.20104 20.2775 7.56942 34 14.8818 3.32654 68.0479
12739126 6.11295 20.2872 7.57982 34 14.9288 3.34945 67.9799
12739140 6.11295 20.2872 7.57982 34 14.9288 3.34945 67.9799
12739145 6.08653 20.4622 7.54862 34 14.9885 3.30406 68.0974
12739174 6.08653 20.4622 7.54862 34 14.9885 3.30406 68.0974
12739177 6.00725 20.5206 7.53823 34 15.0498 3.3079 68.0661
12739184 6.04249 20.7054 7.53823 34 15.056 3.24891 68.2861
12739197 5.96321 20.8513 7.50703 34 15.142 3.22576 68.3215
12739208 5.86632 20.968 7.39266 34 15.2832 3.20072 68.2269
12739228 5.69016 21.2597 7.2159 34 15.5333 3.13926 68.1658
12739239 5.46114 21.2597 7.10153 34 15.7386 3.18051 67.8224
12739250 5.46114 21.6098 7.10153 34 15.7861 3.08714 68.1725
12739259 5.2057 22.0086 7.01835 34 16.0424 3.03463 68.2326
12739273 5.2057 22.0086 7.01835 34 16.0424 3.03463 68.2326
12739279 4.91503 22.3003 6.86239 34 16.35 3.00693 68.0778
12739289 4.62435 22.6602 6.66483 34 16.6929 2.95373 67.9494
12739309 4.52746 23.0297 6.56086 34 16.861 2.86348 68.1181
12739328 4.66839 23.2437 6.56086 34 16.8002 2.77089 68.473
12739330 4.66839 23.2437 6.56086 34 16.8002 2.77089 68.473
12739341 4.91503 23.516 6.64404 34 16.633 2.65211 69.0751
12739350 4.91503 23.516 6.64404 34 16.633 2.65211 69.0751
12739363 5.12642 23.5452 6.75841 34 16.4411 2.61129 69.43
12739372 5.34663 23.4285 6.92477 34 16.197 2.61471 69.6999
12739392 5.53161 23.127 6.97676 34 16.0187 2.65342 69.6354
12739403 5.86632 22.8741 7.13272 34 15.6981 2.6603 69.8732
12739413 5.86632 22.8741 7.13272 34 15.6981 2.6603 69.8732
12739423 6.07772 22.5727 7.31988 34 15.4262 2.71605 69.9703
12739434 6.1658 22.3198 7.41346 34 15.2865 2.77426 69.899
12739445 6.1658 22.3198 7.41346 34 15.2865 2.77426 69.899
12739454 6.25389 22.2225 7.42385 34 15.2162 2.77841 69.9003
12739464 6.25389 22.2225 7.42385 34 15.2162 2.77841 69.9003
12739475 6.08653 22.2906 7.37187 34 15.3523 2.7946 69.749
12739484 5.8487 22.5435 7.30948 34 15.5611 2.77984 69.7017
12739498 5.8487 22.5435 7.30948 34 15.5611 2.77984 69.7017
12739505 5.61088 22.9519 7.19511 34 15.8211 2.71631 69.7579
12739514 5.42591 23.3118 6.94557 34 16.1231 2.62786 69.6833
12739533 5.42591 23.3118 6.94557 34 16.1231 2.62786 69.6833
12739534 5.23212 23.7203 6.73761 34 16.4122 2.53664 69.69
12739544 5.23212 23.7203 6.73761 34 16.4122 2.53664 69.69
12739554 5.04715 23.8759 6.72722 34 16.5475 2.54218 69.6502
12739564 4.95907 24.0023 6.73761 34 16.6091 2.53438 69.699
12739584 4.96788 23.9731 6.72722 34 16.6066 2.53765 69.6682
12739595 5.05596 23.7981 6.84159 34 16.4646 2.57999 69.6956
12739615 5.17927 23.6424 6.94557 34 16.3105 2.60663 69.7673
12739625 5.17927 23.6424 6.94557 34 16.3105 2.60663 69.7673
12739635 5.22332 23.4285 6.91437 34 16.2762 2.64408 69.5662
12739645 5.2057 23.2048 6.93517 34 16.2461 2.70918 69.3457
12739667 5.2057 23.0395 6.96636 34 16.2066 2.75702 69.2115
12739675 5.22332 22.913 7.01835 34 16.1491 2.79417 69.1547
12739695 5.26736 22.6991 7.14312 34 16.0212 2.85996 69.1096
12739707 5.26736 22.6991 7.14312 34 16.0212 2.85996 69.1096
12739717 5.48756 22.3976 7.2263 34 15.8019 2.89557 69.1115
12739726 5.56684 22.242 7.29908 34 15.6914 2.92809 69.1079
12739737 5.56684 22.242 7.29908 34 15.6914 2.92809 69.1079
12739749 5.78705 22.0961 7.44465 34 15.4572 2.93421 69.3278
12739757 5.9456 21.9308 7.46544 34 15.3298 2.93958 69.3418
12739777 6.15699 21.7752 7.57982 34 15.1191 2.94503 69.512
12739786 6.15699 21.7752 7.57982 34 15.1191 2.94503 69.512
12739796 6.38601 21.4153 7.85015 34 14.7804 3.02552 69.6515
12739816 6.54456 20.8804 7.99572 34 14.5274 3.14835 69.4207
12739817 6.54456 20.8804 7.99572 34 14.5274 3.14835 69.4207
12739827 6.67668 20.4331 8.0789 34 14.3367 3.24529 69.1887
12739838 6.60622 20.1121 8.0581 34 14.3391 3.34557 68.7765
12739849 6.60622 20.1121 8.0581 34 14.3391 3.34557 68.7765
12739858 6.5886 20.2386 8.01651 34 14.3925 3.30953 68.8437
12739868 6.5886 20.2386 8.01651 34 14.3925 3.30953 68.8437
12739880 6.65026 20.3942 8.04771 34 14.3635 3.25723 69.0921
12739888 6.71192 20.6081 8.02691 34 14.3731 3.18115 69.347
12739899 6.71192 20.6081 8.02691 34 14.3731 3.18115 69.347
12739908 6.89689 20.7346 8.00612 34 14.2996 3.09632 69.6376
12739918 6.98497 20.8221 8.01651 34 14.2576 3.05258 69.8236
12739929 6.98497 20.8221 8.01651 34 14.2576 3.05258 69.8236
12739940 7.13472 20.8221 8.01651 34 14.1736 3.01394 69.9733
12739948 7.13472 20.8221 8.01651 34 14.1736 3.01394 69.9733
12739960 7.09067 20.754 8.02691 34 14.1819 3.04464 69.8716
12739968 7.21399 20.7151 8.03731 34 14.101 3.02464 69.9664
12739981 7.21399 20.7151 8.03731 34 14.101 3.02464 69.9664
12739988 7.29326 20.6178 8.09969 34 14.0067 3.03994 70.0108
12739998 7.37254 20.4136 8.17248 34 13.8899 3.08461 69.9586
12740008 7.37254 20.4136 8.17248 34 13.8899 3.08461 69.9586
12740018 7.50466 20.4622 8.26606 34 13.7726 3.05394 70.233
12740038 7.72487 20.365 8.34924 34 13.5901 3.03653 70.4391
12740048 7.93627 20.3261 8.44281 34 13.4173 3.00836 70.7052
12740058 7.93627 20.3261 8.44281 34 13.4173 3.00836 70.7052
12740068 8.23575 20.2386 8.52599 34 13.196 2.96865 71.0003
12740078 8.29741 20.0343 8.54679 34 13.1176 3.00833 70.8785
12740088 8.29741 20.0343 8.54679 34 13.1176 3.00833 70.8785
12740098 8.36788 19.869 8.61957 34 13.0128 3.04475 70.8564
12740119 8.26218 19.6259 8.55719 34 13.0621 3.12352 70.4452
12740129 8.11244 19.3827 8.53639 34 13.1133 3.22167 70.0316
12740149 7.98031 19.2855 8.54679 34 13.1632 3.28329 69.8126
12740159 8.04197 19.1396 8.60917 34 13.0707 3.31583 69.7907
12740170 8.04197 19.1396 8.60917 34 13.0707 3.31583 69.7907
12740180 8.29741 19.1007 8.79633 34 12.824 3.29048 70.1944
12740191 8.29741 19.1007 8.79633 34 12.824 3.29048 70.1944
12740200 8.46477 18.8965 8.76514 34 12.7151 3.29489 70.1264
12740211 8.35907 18.8284 8.68196 34 12.8051 3.32646 69.8694
12740232 7.96269 18.6728 8.38043 34 13.1599 3.42203 69.0159
12740240 7.24922 18.6339 8.15168 34 13.6816 3.58682 68.0348
12740262 6.91451 18.7506 8.04771 34 13.9517 3.62914 67.7128
12740276 6.91451 18.7506 8.04771 34 13.9517 3.62914 67.7128
12740283 7.16995 18.7895 8.37003 34 13.6286 3.60253 68.3295
12740291 8.01554 19.2466 8.69236 34 13.058 3.30863 69.9545
12740303 8.01554 19.2466 8.69236 34 13.058 3.30863 69.9545
12740313 8.83471 19.3049 8.97309 34 12.4792 3.12886 71.1127
12740323 9.45129 19.1979 9.04587 34 12.1001 3.01205 71.6951
12740333 9.45129 19.1979 9.04587 34 12.1001 3.01205 71.6951
12740343 9.68912 18.9354 9.09786 34 11.903 3.02696 71.7223
12740354 9.61865 18.5366 8.99388 34 11.9201 3.12835 71.1492
12740364 9.61865 18.5366 8.99388 34 11.9201 3.12835 71.1492
12740374 9.59223 18.2546 9.14985 34 11.8007 3.23319 70.9967
12740394 9.79482 17.9142 9.54495 34 11.429 3.3337 71.254
12740404 10.4907 17.7294 10.3976 34 10.6177 3.34164 72.6176
12740426 11.3363 17.5349 11.5933 34 9.6037 3.36848 74.4644
12740434 12.1466 17.214 13.3297 34 8.39013 3.51461 76.6903
12740444 12.1466 17.214 13.3297 34 8.39013 3.51461 76.6903
12740459 12.7104 16.7698 15.4196 34 7.17361 3.79078 78.8997
12740465 12.7104 16.7698 15.4196 34 7.17361 3.79078 78.8997
12740476 12.9394 16.2264 17.6497 34 6.07476 4.17319 80.8155
12740485 12.8337 15.591 20.1204 34 5.03872 4.6694 82.5451
12740505 12.6663 15.0569 22.9948 34 3.95305 5.18277 84.718
12740515 12.6399 14.5504 26.0365 32.753 2.50844 5.51279 85.9798
12740525 12.6399 14.5504 26.0365 32.753 2.50844 5.51279 85.9798
12740535 12.6487 13.9978 29.0093 29.8401 0.637451 5.64989 85.4959
12740548 12.5166 13.3532 32.1986 26.937 -1.3014 5.87006 85.0053
12740567 12.4637 12.8375 34 24.0046 -2.88745 5.88855 83.3058
12740586 12.4197 12.3494 34 21.1891 -4.02747 5.70673 79.9582
12740599 12.3668 11.9995 34 18.6756 -5.09195 5.5118 77.0419
12740607 12.3668 11.9995 34 18.6756 -5.09195 5.5118 77.0419
12740616 12.4021 11.6403 34 16.6288 -6.07095 5.34069 74.6712
12740627 12.4021 11.6403 34 16.6288 -6.07095 5.34069 74.6712
12740636 12.3492 11.318 34 14.9535 -6.91184 5.22295 72.6207
12740646 12.314 10.9865 34 13.7161 -7.60787 5.15704 71.0166
12740667 12.2347 10.7562 34 12.8595 -8.09552 5.12564 69.8504
12740677 11.9881 10.2958 34 12.2122 -8.56987 5.24009 68.4961
12740698 11.8031 9.92741 34 11.8505 -8.88755 5.35357 67.581
12740709 11.5917 9.55905 34 11.6316 -9.13456 5.49865 66.7823
12740730 11.5036 9.35645 34 11.4127 -9.33058 5.55717 66.2727
12740757 11.301 9.13543 34 11.3365 -9.43742 5.67864 65.773
12740759 11.1777 8.98808 34 11.1461 -9.58611 5.73716 65.3119
12740784 11.0104 8.79469 34 10.9938 -9.73081 5.83084 64.7989
12740790 10.8782 8.5 34 10.8796 -9.92043 5.9529 64.2579
12740800 10.8782 8.5 34 10.8796 -9.92043 5.9529 64.2579
12740813 10.6845 8.1961 34 10.9272 -10.0149 6.12308 63.8078
12740822 10.5171 7.95666 34 10.8035 -10.1762 6.24151 63.2772
12740838 10.5171 7.95666 34 10.8035 -10.1762 6.24151 63.2772
12740843 10.4378 7.77248 34 10.7368 -10.2977 6.32115 62.9471
12740862 10.3409 7.65276 34 10.7464 -10.337 6.39607 62.7401
12740872 10.4378 7.59751 34 10.7464 -10.3908 6.38188 62.7817
12740885 10.4378 7.59751 34 10.7464 -10.3908 6.38188 62.7817
12740892 10.614 7.42254 34 10.6321 -10.5951 6.36577 62.6687
12740906 10.7197 7.26598 34 10.7083 -10.6651 6.39359 62.694
12740922 10.843 7.21993 34 10.7368 -10.7032 6.37118 62.7998
12740932 10.843 7.21993 34 10.7368 -10.7032 6.37118 62.7998
12740943 10.9223 7.06338 34 10.7273 -10.8158 6.3962 62.713
12740953 11.0456 7.0818 34 10.6797 -10.8603 6.3414 62.8071
12740973 11.2746 6.90683 34 10.6131 -11.0498 6.31384 62.7945
12740983 11.6093 6.75948 34 10.4323 -11.3125 6.22524 62.8011
12740997 11.6093 6.75948 34 10.4323 -11.3125 6.22524 62.8011
12741003 11.9528 6.72264 34 10.3656 -11.4467 6.11271 63.0411
12741014 11.9528 6.72264 34 10.3656 -11.4467 6.11271 63.0411
12741024 12.3228 6.69502 34 10.2419 -11.6132 5.98108 63.2597
12741034 12.5782 6.63055 34 10.1848 -11.7374 5.90974 63.3936
12741044 12.5782 6.63055 34 10.1848 -11.7374 5.90974 63.3936
12741054 12.7456 6.58451 34 10.1086 -11.8431 5.85885 63.4387
12741064 12.8865 6.48321 34 10.0515 -11.9644 5.83758 63.4212
12741074 12.8865 6.48321 34 10.0515 -11.9644 5.83758 63.4212
12741085 13.1332 6.42795 34 9.90873 -12.1304 5.75414 63.4698
12741094 13.1332 6.42795 34 9.90873 -12.1304 5.75414 63.4698
12741105 13.3622 6.14247 34 9.72788 -12.4508 5.74623 63.2325
12741115 13.5295 5.91224 34 9.69933 -12.6376 5.7627 63.1411
12741125 13.5295 5.91224 34 9.69933 -12.6376 5.7627 63.1411
12741135 13.8202 5.68201 34 9.54703 -12.9229 5.72048 63.0493
12741147 14.0316 5.55309 34 9.49944 -13.0695 5.68639 63.0841
12741157 14.0316 5.55309 34 9.49944 -13.0695 5.68639 63.0841
12741167 14.2166 5.45179 34 9.46137 -13.1885 5.65336 63.1297
12741175 14.4016 5.39653 34 9.44233 -13.2679 5.60818 63.2404
12741197 14.6834 5.35049 34 9.40425 -13.3708 5.52594 63.4382
12741210 14.6834 5.35049 34 9.40425 -13.3708 5.52594 63.4382
12741219 14.9653 5.3597 34 9.34714 -13.4511 5.42361 63.6721
12741237 15.2031 5.26761 34 9.19485 -13.6419 5.35394 63.6656
12741240 15.2031 5.26761 34 9.19485 -13.6419 5.35394 63.6656
12741248 15.5114 5.02817 34 9.03303 -13.9408 5.30735 63.5726
12741265 15.714 4.89924 34 9.04255 -14.0491 5.2853 63.6558
12741278 15.8637 4.89924 34 8.9664 -14.1215 5.22603 63.7294
12741294 15.8637 4.89924 34 8.9664 -14.1215 5.22603 63.7294
12741300 16.172 4.88082 34 8.89978 -14.2259 5.12417 63.9526
12741309 16.4627 4.89924 34 8.77604 -14.3392 5.00813 64.138
12741329 16.7886 4.91766 34 8.66181 -14.4517 4.88337 64.3681
12741339 17.0598 4.84399 34 8.57615 -14.5936 4.80903 64.4799
12741354 17.0598 4.84399 34 8.57615 -14.5936 4.80903 64.4799
12741359 17.3687 4.84399 34 8.46193 -14.7132 4.69641 64.6746
12741379 17.4385 4.6598 34 8.40482 -14.8729 4.72223 64.5031
12741390 17.5979 4.59534 34 8.38578 -14.9494 4.6902 64.579
12741406 17.5979 4.59534 34 8.38578 -14.9494 4.6902 64.579
12741410 17.7773 4.49404 34 8.25252 -15.1226 4.64508 64.5238
12741420 17.9766 4.48483 34 8.27156 -15.1469 4.59044 64.7329
12741433 17.9766 4.48483 34 8.27156 -15.1469 4.59044 64.7329
12741440 18.0662 4.47562 34 8.30963 -15.1427 4.57224 64.8515
12741453 18.0662 4.53088 34 8.30963 -15.1085 4.55558 64.9067
12741464 18.0662 4.53088 34 8.30963 -15.1085 4.55558 64.9067
12741471 18.0064 4.66901 34 8.3953 -14.9615 4.54578 65.0708
12741483 18.0064 4.66901 34 8.3953 -14.9615 4.54578 65.0708
12741493 17.8271 4.86241 34 8.47144 -14.7685 4.55379 65.1609
12741503 17.6178 5.13868 34 8.6523 -14.4579 4.56264 65.4088
12741523 17.3587 5.2584 34 8.757 -14.2806 4.62106 65.3741
12741534 16.9824 5.49783 34 8.85218 -14.0177 4.67731 65.3324
12741554 16.5948 5.61755 34 8.87122 -13.8691 4.7613 65.0836
12741569 16.5067 5.67281 34 8.95689 -13.77 4.78473 65.1364
12741574 16.5067 5.67281 34 8.95689 -13.77 4.78473 65.1364
12741585 16.3834 5.7649 34 8.91881 -13.7165 4.78825 65.0671
12741595 16.2689 5.7649 34 8.91881 -13.6966 4.82313 64.9526
12741605 16.2689 5.7649 34 8.94737 -13.6796 4.82761 64.9812
12741616 16.2161 5.81094 34 9.014 -13.6034 4.8401 65.041
12741639 16.2073 5.82936 34 8.99496 -13.6022 4.8342 65.0316
12741645 16.172 5.87541 34 9.02352 -13.5518 4.83536 65.0709
12741665 16.1544 6.00433 34 9.12822 -13.4107 4.81784 65.287
12741687 16.0311 6.15168 34 9.09015 -13.3245 4.80461 65.2729
12741697 16.0663 6.30823 34 9.2234 -13.1615 4.76742 65.598
12741717 15.9606 6.42795 34 9.28051 -13.0397 4.77209 65.6691
12741734 15.8109 6.63976 34 9.32811 -12.8624 4.76084 65.7787
12741738 15.8109 6.63976 34 9.32811 -12.8624 4.76084 65.7787
12741752 15.6259 6.79632 34 9.42329 -12.6836 4.78417 65.8455
12741758 15.529 7.01733 34 9.45185 -12.523 4.75138 65.9982
12741768 15.529 7.01733 34 9.45185 -12.523 4.75138 65.9982
12741778 15.5026 7.10943 34 9.4804 -12.4495 4.73619 66.0924
12741788 15.5026 7.10943 34 9.4804 -12.4495 4.73619 66.0924
12741798 15.5378 7.16468 34 9.45185 -12.4411 4.70476 66.1544
12741808 15.5378 7.20152 34 9.46137 -12.4149 4.69527 66.2007
12741822 15.5378 7.20152 34 9.46137 -12.4149 4.69527 66.2007
12741828 15.5378 7.27519 34 9.41377 -12.4001 4.66596 66.2268
12741837 15.4321 7.29361 34 9.53751 -12.2998 4.71116 66.2632
12741849 15.4321 7.29361 34 9.53751 -12.2998 4.71116 66.2632
12741859 15.4762 7.40412 34 9.57559 -12.2248 4.67121 66.4559
12741870 15.4762 7.40412 34 9.57559 -12.2248 4.67121 66.4559
12741879 15.3969 7.54225 34 9.57559 -12.1323 4.65381 66.5147
12741889 15.4585 7.71723 34 9.60414 -12.031 4.58859 66.7799
12741912 15.4321 7.85536 34 9.64222 -11.9284 4.56182 66.9297
12741920 15.3528 7.96587 34 9.65174 -11.8467 4.55417 66.9705
12741934 15.3528 7.96587 34 9.65174 -11.8467 4.55417 66.9705
12741940 15.4497 7.96587 34 9.68981 -11.8448 4.53187 67.1054
12741956 15.3528 8.04875 34 9.72788 -11.7594 4.54188 67.1295
12741960 15.3528 8.04875 34 9.72788 -11.7594 4.54188 67.1295
12741970 15.2912 8.18689 34 9.82307 -11.6199 4.53447 67.3011
12741981 15.2912 8.18689 34 9.82307 -11.6199 4.53447 67.3011
12741991 15.2912 8.37107 34 9.77548 -11.5457 4.47373 67.4377
12742002 15.2207 8.56446 34 9.88018 -11.3707 4.45464 67.6654
12742011 15.2207 8.56446 34 9.88018 -11.3707 4.45464 67.6654
12742021 15.1326 8.7026 34 9.96585 -11.2329 4.4536 67.8011
12742032 15.1326 8.7026 34 9.96585 -11.2329 4.4536 67.8011
12742041 15.0269 8.79469 34 9.96585 -11.1622 4.45751 67.7875
12742053 14.9741 8.9052 34 9.98488 -11.0824 4.44393 67.8642
12742071 14.8596 8.91441 34 10.023 -11.0338 4.48006 67.797
12742086 14.7979 8.84074 34 9.95633 -11.0958 4.50869 67.595
12742091 14.7979 8.84074 34 9.95633 -11.0958 4.50869 67.595
12742101 14.7363 8.92362 34 9.98488 -11.0237 4.507 67.6448
12742111 14.7098 8.87757 34 9.94681 -11.0631 4.52202 67.5342
12742133 14.5865 8.94204 34 10.0039 -10.9727 4.54789 67.5325
12742143 14.5865 8.94204 34 10.0039 -10.9727 4.54789 67.5325
12742154 14.5425 8.82232 34 10.0325 -11.0122 4.59981 67.3973
12742163 14.3839 8.93283 34 10.0515 -10.91 4.61673 67.3683
12742177 14.3839 8.93283 34 10.0515 -10.91 4.61673 67.3683
12742183 14.3575 9.09859 34 10.0325 -10.8264 4.5733 67.4886
12742193 14.1461 9.19068 34 10.0896 -10.7027 4.61677 67.4264
12742214 14.058 9.43012 34 10.2133 -10.4926 4.59189 67.7015
12742234 13.8995 9.6143 34 10.2704 -10.3323 4.59325 67.7842
12742245 13.7497 9.74323 34 10.3942 -10.1685 4.61823 67.8871
12742269 13.5824 9.77086 34 10.3847 -10.1224 4.65723 67.7379
12742274 13.2565 9.7156 34 10.3942 -10.0743 4.76992 67.3663
12742286 13.2565 9.7156 34 10.3942 -10.0743 4.76992 67.3663
12742295 13.0803 9.74323 34 10.4798 -9.97618 4.82657 67.3034
12742316 12.8425 9.85374 34 10.537 -9.83584 4.87276 67.2332
12742325 12.6487 9.85374 34 10.6512 -9.73283 4.94733 67.1536
12742352 12.5342 10.0287 34 10.7749 -9.55279 4.94789 67.3378
12742371 12.3845 10.2866 34 10.8796 -9.3331 4.93154 67.5506
12742375 12.2083 10.6181 34 11.07 -9.02854 4.91416 67.8964
12742385 12.2083 10.6181 34 11.07 -9.02854 4.91416 67.8964
12742395 12.0409 11.1614 34 11.2604 -8.62482 4.83285 68.4627
12742407 11.944 11.6403 34 11.4507 -8.27587 4.75115 69.0351
12742429 11.8207 12.1192 34 11.6316 -7.93068 4.67685 69.5715
12742437 11.6974 12.6809 34 11.7839 -7.56554 4.5763 70.1622
12742447 11.6974 12.6809 34 11.7839 -7.56554 4.5763 70.1622
12742459 11.6358 13.1046 34 11.9838 -7.26324 4.50557 70.7241
12742467 11.6358 13.1046 34 11.9838 -7.26324 4.50557 70.7241
12742488 11.442 13.4821 34 12.2884 -6.90592 4.50011 71.2124
12742489 11.301 13.8781 34 12.6786 -6.52132 4.48792 71.8578
12742516 11.0632 14.0347 34 13.1545 -6.18457 4.57908 72.2524
12742521 10.7902 14.2833 34 13.916 -5.68261 4.69435 72.9895
12742545 10.6668 14.532 34 14.8012 -5.18028 4.78427 74
12742549 10.429 14.7898 34 16.0862 -4.49936 4.95333 75.3051
12742559 10.429 14.7898 34 16.0862 -4.49936 4.95333 75.3051
12742570 10.2528 15.2319 34 17.8281 -3.61936 5.11107 77.3128
12742579 10.2528 15.2319 34 17.8281 -3.61936 5.11107 77.3128
12742592 10.0326 15.5634 34 19.7278 -2.755 5.31967 79.3238
12742599 9.83005 15.7384 34 21.8223 -1.92569 5.57569 81.3908
12742616 9.83005 15.7384 34 21.8223 -1.92569 5.57569 81.3908
12742620 9.59223 15.7752 34 23.9851 -1.14932 5.86983 83.3525
12742630 9.32798 15.7291 34 26.6642 -0.272582 6.23073 85.7213
12742640 9.32798 15.7291 34 26.6642 -0.272582 6.23073 85.7213
12742650 9.1342 15.766 31.4111 29.5479 1.38847 6.29964 85.8591
12742662 9.1342 15.766 31.4111 29.5479 1.38847 6.29964 85.8591
12742670 9.06373 15.8673 28.3104 32.2756 3.14815 6.25402 85.517
12742686 9.18705 16.0699 25.0718 34 4.68732 6.01483 84.3287
12742700 9.44249 16.3554 22.0596 34 5.75794 5.54533 81.8575
12742710 9.62746 16.7237 19.2148 34 6.87525 5.0644 79.566
12742720 9.62746 16.7237 19.2148 34 6.87525 5.0644 79.566
12742732 9.83886 17.3404 16.6777 34 7.97098 4.52723 77.8569
12742740 9.83886 17.3404 16.6777 34 7.97098 4.52723 77.8569
12742756 9.83886 17.9823 14.3902 34 9.10402 4.04843 76.2113
12742760 9.81244 18.6047 12.633 34 10.0464 3.64074 75.0502
12742787 9.68031 19.0812 11.2294 34 10.8701 3.33848 73.9909
12742790 9.49534 19.159 10.2832 34 11.4415 3.21415 72.9376
12742810 9.21347 19.1104 9.64893 34 11.8962 3.19392 71.9728
12742825 9.21347 19.1104 9.64893 34 11.8962 3.19392 71.9728
12742830 8.8171 18.877 9.18104 34 12.3029 3.27765 70.8751
12742840 8.44715 18.595 8.97309 34 12.5597 3.41304 70.0152
12742851 8.44715 18.595 8.97309 34 12.5597 3.41304 70.0152
12742860 8.03316 18.3227 8.72355 34 12.8714 3.55412 69.0794
12742871 7.56632 17.9628 8.52599 34 13.177 3.74627 68.0551
12742881 7.56632 17.9628 8.52599 34 13.177 3.74627 68.0551
12742895 7.08187 17.7197 8.4948 34 13.4268 3.94373 67.2963
12742912 6.65026 17.5154 8.29725 34 13.755 4.0921 66.463
12742922 6.34197 17.5835 8.29725 34 13.947 4.16136 66.2227
12742932 6.34197 17.5835 8.29725 34 13.947 4.16136 66.2227
12742942 6.13938 17.8364 8.15168 34 14.1943 4.12293 66.1274
12742951 6.00725 18.099 8.0685 34 14.3647 4.07156 66.1747
12742972 5.88394 18.4102 8.03731 34 14.5063 4.01239 66.3314
12742987 5.88394 18.4102 8.03731 34 14.5063 4.01239 66.3314
12742991 5.69896 18.5658 7.96453 34 14.6847 4.00875 66.2293
12743009 5.57565 18.8284 7.86055 34 14.8617 3.95155 66.2646
12743018 5.57565 18.8284 7.86055 34 14.8617 3.95155 66.2646
12743023 5.44352 19.0423 7.75658 34 15.0365 3.9108 66.2424
12743033 5.45233 19.2466 7.83976 34 15.0118 3.86411 66.5387
12743043 5.45233 19.2466 7.83976 34 15.0118 3.86411 66.5387
12743053 5.66373 19.5092 7.81896 34 14.9371 3.72719 66.9918
12743063 5.66373 19.5092 7.81896 34 14.9371 3.72719 66.9918
12743073 5.82228 19.7523 7.80856 34 14.8856 3.61381 67.3831
12743083 5.86632 19.6939 7.88135 34 14.8077 3.63005 67.4416
12743097 5.86632 19.6939 7.88135 34 14.8077 3.63005 67.4416
12743103 5.87513 19.7328 7.87095 34 14.8145 3.61513 67.4789
12743113 5.87513 19.7328 7.87095 34 14.8145 3.61513 67.4789
12743123 5.76062 19.7231 7.82936 34 14.9054 3.64245 67.3131
12743133 5.71658 20.0051 7.75658 34 15.0167 3.56445 67.4783
12743148 5.71658 20.0051 7.75658 34 15.0167 3.56445 67.4783
12743153 5.79586 20.1899 7.73578 34 15.0094 3.48855 67.7216
12743163 5.87513 20.3844 7.77737 34 14.9668 3.42119 68.0369
12743173 5.87513 20.3844 7.77737 34 14.9668 3.42119 68.0369
12743183 6.12176 20.6276 7.77737 34 14.8586 3.28953 68.5267
12743204 6.15699 20.8026 7.83976 34 14.8279 3.24424 68.7994
12743213 6.26269 20.8221 7.91254 34 14.7277 3.22355 68.9973
12743233 6.2715 20.8415 7.93333 34 14.7136 3.21964 69.0464
12743248 6.20984 20.8221 7.93333 34 14.7462 3.24107 68.9653
12743253 6.20984 20.8221 7.93333 34 14.7462 3.24107 68.9653
12743263 6.28031 20.8513 7.90214 34 14.7279 3.20943 69.0337
12743276 6.28031 20.8513 7.90214 34 14.7279 3.20943 69.0337
12743283 6.23627 21.0263 7.81896 34 14.8271 3.1607 69.0815
12743293 6.29793 21.3181 7.72538 34 14.8882 3.05216 69.3414
12743313 6.36839 21.6876 7.62141 34 14.961 2.92032 69.6774
12743331 6.24508 21.6876 7.62141 34 15.0319 2.95209 69.5541
12743335 6.24508 21.8627 7.62141 34 15.0569 2.90702 69.7292
12743343 6.21865 21.8919 7.663 34 15.0524 2.91353 69.7735
12743359 6.21865 21.8919 7.663 34 15.0524 2.91353 69.7735
12743363 6.13938 21.8627 7.59021 34 15.1357 2.9288 69.5923
12743373 6.18342 21.8335 7.6526 34 15.0703 2.93579 69.6695
12743383 6.18342 21.8335 7.6526 34 15.0703 2.93579 69.6695
12743393 6.11295 21.7752 7.663 34 15.0965 2.97081 69.5511
12743405 6.11295 21.7752 7.663 34 15.0965 2.97081 69.5511
12743413 6.0513 21.6876 7.61101 34 15.1497 3.00045 69.3499
12743427 6.03368 21.8433 7.60061 34 15.188 2.9629 69.4775
12743449 5.97202 21.9502 7.52783 34 15.2809 2.93857 69.4501
12743454 5.93679 22.0475 7.53823 34 15.3089 2.92437 69.5225
12743464 5.93679 22.0475 7.53823 34 15.3089 2.92437 69.5225
12743475 5.91036 21.9794 7.55902 34 15.3026 2.95237 69.4488
12743484 5.91036 21.9794 7.55902 34 15.3026 2.95237 69.4488
12743494 5.80466 21.8919 7.53823 34 15.364 2.99886 69.2348
12743505 5.81347 21.853 7.59021 34 15.3232 3.01569 69.2567
12743517 5.81347 21.853 7.59021 34 15.3232 3.01569 69.2567
12743525 5.74301 21.7946 7.45505 34 15.4352 3.02585 68.9927
12743540 5.68135 21.8433 7.50703 34 15.4476 3.03827 69.0316
12743555 5.67254 21.8141 7.55902 34 15.4182 3.0572 69.0456
12743566 5.65492 21.7557 7.43425 34 15.4937 3.05548 68.8449
12743586 5.69016 21.6682 7.6318 34 15.345 3.10337 68.9902
12743597 5.69016 21.6682 7.6318 34 15.345 3.10337 68.9902
12743608 5.74301 21.532 7.6422 34 15.2889 3.12705 68.9172
12743617 5.76943 21.3764 7.6422 34 15.2515 3.16109 68.7881
12743632 5.76943 21.3764 7.6422 34 15.2515 3.16109 68.7881
12743636 5.81347 21.2111 7.70459 34 15.1657 3.20388 68.7292
12743655 5.74301 21.1236 7.6318 34 15.2371 3.23334 68.4984
12743656 5.74301 21.1236 7.6318 34 15.2371 3.23334 68.4984
12743667 5.66373 21.1625 7.55902 34 15.3322 3.23158 68.3852
12743678 5.66373 21.1625 7.55902 34 15.3322 3.23158 68.3852
12743686 5.51399 21.2403 7.46544 34 15.487 3.23466 68.2197
12743700 5.54922 21.4834 7.48624 34 15.4877 3.16415 68.5189
12743706 5.54922 21.4834 7.48624 34 15.4877 3.16415 68.5189
12743722 5.58446 21.7654 7.48624 34 15.5059 3.08043 68.8361
12743726 5.63731 21.9113 7.41346 34 15.5377 3.01575 68.9621
12743748 5.7342 22.2128 7.45505 34 15.4979 2.91952 69.4021
12743768 5.82228 22.5824 7.46544 34 15.4911 2.80394 69.8701
12743784 5.86632 22.6213 7.41346 34 15.501 2.77375 69.9011
12743798 5.76062 22.4268 7.41346 34 15.536 2.85041 69.6008
12743808 5.70777 22.2712 7.44465 34 15.5274 2.90947 69.4236
12743819 5.70777 22.2712 7.44465 34 15.5274 2.90947 69.4236
12743833 5.63731 22.1447 7.47584 34 15.5331 2.96583 69.2579
12743838 5.63731 22.1447 7.47584 34 15.5331 2.96583 69.2579
12743848 5.54922 22.0961 7.39266 34 15.627 2.9869 69.038
12743858 5.51399 22.2225 7.35107 34 15.6893 2.95593 69.0876
12743868 5.51399 22.2225 7.35107 34 15.6893 2.95593 69.0876
12743878 5.39067 22.4268 7.33028 34 15.8016 2.9313 69.1477
12743888 5.33782 22.4949 7.25749 34 15.8849 2.91463 69.0902
12743900 5.33782 22.4949 7.25749 34 15.8849 2.91463 69.0902
12743908 5.19689 22.5532 7.28868 34 15.9576 2.94152 69.0388
12743928 5.02953 22.7185 7.09113 34 16.1964 2.90744 68.8392
12743938 4.80052 22.8547 6.99755 34 16.4074 2.91518 68.6528
12743948 4.80052 22.8547 6.99755 34 16.4074 2.91518 68.6528
12743959 4.80052 23.0589 7.00795 34 16.4267 2.86387 68.8674
12743970 4.87098 23.0589 6.92477 34 16.4343 2.83093 68.8547
12743979 4.87098 23.2048 6.92477 34 16.4524 2.79323 69.0006
12743992 5.06477 23.3896 7.04954 34 16.2852 2.71823 69.5039
12743999 5.06477 23.3896 7.04954 34 16.2852 2.71823 69.5039
12744009 5.24093 23.341 7.14312 34 16.1194 2.70231 69.725
12744019 5.46114 23.2048 7.25749 34 15.9053 2.70114 69.9234
12744039 5.72539 22.9617 7.40306 34 15.6346 2.72135 70.0901
12744049 5.92798 22.6602 7.53823 34 15.3986 2.77001 70.1264
12744069 6.11295 22.4559 7.69419 34 15.1747 2.80203 70.2631
12744090 6.28912 22.1253 7.73578 34 15.0037 2.84847 70.1502
12744101 6.35078 21.7557 7.83976 34 14.8561 2.9451 69.9463
12744110 6.35078 21.7557 7.83976 34 14.8561 2.9451 69.9463
12744123 6.39482 21.5904 7.83976 34 14.807 2.97627 69.825
12744130 6.31554 21.3764 7.87095 34 14.8031 3.05744 69.5629
12744141 6.31554 21.3764 7.87095 34 14.8031 3.05744 69.5629
12744150 6.26269 21.2889 7.88135 34 14.8146 3.09574 69.4329
12744170 6.18342 21.2792 7.70459 34 14.9606 3.0886 69.1672
12744185 6.13938 21.4445 7.68379 34 15.0219 3.05335 69.2677
12744202 6.11295 21.5418 7.6422 34 15.0752 3.02773 69.2969
12744212 5.98083 21.4931 7.62141 34 15.1569 3.07129 69.0954
12744224 5.98083 21.4931 7.62141 34 15.1569 3.07129 69.0954
12744238 5.91036 21.5126 7.59021 34 15.2188 3.07925 69.0132
12744251 5.91036 21.5029 7.67339 34 15.169 3.09615 69.0866
12744264 6.09534 21.4153 7.83976 34 14.9531 3.09928 69.3504
12744287 6.39482 21.3375 7.88135 34 14.7462 3.04875 69.6137
12744294 6.61503 21.0847 8.00612 34 14.5122 3.0786 69.7058
12744312 6.74715 20.7832 8.15168 34 14.3094 3.14744 69.682
12744332 6.86166 20.3066 8.23486 34 14.124 3.25632 69.4032
12744342 6.91451 19.9176 8.34924 34 13.9683 3.36444 69.1814
12744354 6.91451 19.9176 8.34924 34 13.9683 3.36444 69.1814
12744362 7.05544 19.48 8.4948 34 13.7366 3.46791 69.0302
12744383 7.10829 18.9645 8.55719 34 13.587 3.60288 68.63
12744393 7.20518 18.5852 8.67156 34 13.4047 3.69865 68.462
12744410 7.20518 18.5852 8.67156 34 13.4047 3.69865 68.462
12744413 7.21399 18.1865 8.62997 34 13.3552 3.79892 68.0305
12744423 7.26684 17.9725 8.80673 34 13.1892 3.87252 68.0461
12744445 7.26684 17.9725 8.80673 34 13.1892 3.87252 68.0461
12744447 7.3285 17.6224 8.82752 34 13.0817 3.95626 67.7784
12744461 7.25803 17.3696 8.84832 34 13.0651 4.0505 67.4759
12744464 7.25803 17.3696 8.84832 34 13.0651 4.0505 67.4759
12744474 7.1171 17.0778 8.86911 34 13.0814 4.1768 67.064
12744485 7.1171 17.0778 8.86911 34 13.0814 4.1768 67.064
12744494 6.86166 16.7606 8.79633 34 13.2126 4.33029 66.4185
12744510 6.62383 16.4843 8.75474 34 13.3253 4.47443 65.8629
12744524 6.61503 16.3462 8.84832 34 13.2514 4.53289 65.8095
12744537 6.62383 16.2817 8.80673 34 13.259 4.54281 65.7122
12744559 6.87927 16.3369 8.9419 34 13.0429 4.47239 66.1581
12744565 6.87927 16.3369 8.9419 34 13.0429 4.47239 66.1581
12744575 7.05544 16.4751 8.9419 34 12.9669 4.38032 66.4724
12744585 7.14352 16.4935 8.9315 34 12.926 4.34766 66.5685
12744609 6.83523 16.5303 8.76514 34 13.2049 4.40028 66.1307
12744615 6.45648 16.4751 8.60917 34 13.5067 4.50352 65.5407
12744625 6.45648 16.4751 8.60917 34 13.5067 4.50352 65.5407
12744638 6.46528 16.6316 8.9107 34 13.3529 4.50261 66.0076
12744659 7.21399 16.7421 9.14985 34 12.8075 4.29031 67.106
12744665 8.27098 17.0584 9.3578 34 12.1673 3.93708 68.6871
12744675 8.27098 17.0584 9.3578 34 12.1673 3.93708 68.6871
12744685 9.09016 17.107 9.52416 34 11.6509 3.72778 69.7213
12744695 9.36321 17.0584 9.69052 34 11.4119 3.69457 70.1121
12744717 9.33679 16.9079 10.0024 34 11.2349 3.79184 70.2471
12744736 9.11658 16.779 10.6471 34 10.9917 3.98728 70.5427
12744748 9.33679 16.8434 12.2067 34 10.1192 4.14988 72.387
12744766 9.96218 16.9908 14.6709 34 8.7134 4.30776 75.6239
12744783 10.9311 17.2529 17.7383 34 7.06421 4.42073 79.9222
12744787 10.9311 17.2529 17.7383 34 7.06421 4.42073 79.9222
12744797 11.7326 17.214 20.0023 34 5.87078 4.53093 82.9489
12744818 11.9705 16.8434 21.5478 34 5.13421 4.75344 84.3617
12744834 12.1642 16.208 23.6445 31.8275 3.64569 4.84823 83.8442
12744838 12.1642 16.208 23.6445 31.8275 3.64569 4.84823 83.8442
12744849 12.3756 15.5265 26.5483 28.8951 1.64906 4.9567 83.3457
12744860 12.728 15.0937 29.8361 26.3232 -0.341502 5.06144 83.981
12744868 12.728 15.0937 29.8361 26.3232 -0.341502 5.06144 83.981
12744883 13.1948 14.5688 33.1928 23.5564 -2.44412 5.1446 84.5129
12744898 13.5736 14.2189 34 20.8189 -3.79361 4.90728 82.6113
12744908 14.058 13.7768 34 18.3639 -4.96184 4.5878 80.1987
12744934 14.287 13.1874 34 16.248 -6.06374 4.39517 77.7225
12744938 14.4808 12.5612 34 14.5633 -7.06179 4.26979 75.6053
12744951 14.4808 12.5612 34 14.5633 -7.06179 4.26979 75.6053
12744959 14.6041 11.9442 34 13.2592 -7.92625 4.2091 73.8076
12744979 14.6041 11.9442 34 13.2592 -7.92625 4.2091 73.8076
12744982 14.4368 11.364 34 12.3359 -8.57289 4.27004 72.1368
12744989 14.3575 11.0049 34 11.7744 -8.98912 4.3041 71.1367
12745010 14.058 10.572 34 11.4602 -9.28293 4.45786 70.0903
12745023 13.7233 10.4063 34 11.2508 -9.39249 4.5664 69.3804
12745046 13.4415 10.2405 34 11.089 -9.49234 4.66921 68.771
12745050 13.4415 10.2405 34 11.089 -9.49234 4.66921 68.771
12745068 13.0715 9.82611 34 11.051 -9.6376 4.89047 67.9486
12745070 12.7456 9.36566 34 10.9082 -9.87466 5.10231 67.0194
12745080 12.7456 9.36566 34 10.9082 -9.87466 5.10231 67.0194
12745091 12.4197 9.05255 34 10.832 -10.0051 5.28468 66.3043
12745105 12.1819 8.74865 34 10.8415 -10.1075 5.45316 65.7721
12745122 11.9969 8.66576 34 10.794 -10.1354 5.52992 65.4566
12745134 11.9176 8.61972 34 10.7273 -10.178 5.55967 65.2647
12745159 11.9881 8.67497 34 10.7368 -10.1591 5.52152 65.3999
12745173 12.1642 8.55525 34 10.575 -10.3508 5.48029 65.2945
12745185 12.4725 8.43554 34 10.4608 -10.5464 5.40457 65.3689
12745211 12.8513 8.15926 34 10.2609 -10.8896 5.34315 65.2715
12745213 13.2565 8.03034 34 10.2133 -11.0736 5.25034 65.5001
12745223 13.2565 8.03034 34 10.2133 -11.0736 5.25034 65.5001
12745237 13.7057 7.83694 34 10.0325 -11.3748 5.14444 65.5751
12745243 13.7057 7.83694 34 10.0325 -11.3748 5.14444 65.5751
12745255 14.1197 7.57909 34 9.90873 -11.6724 5.07791 65.6075
12745265 14.4808 7.26598 34 9.75644 -12.0064 5.04012 65.5033
12745273 14.4808 7.26598 34 9.75644 -12.0064 5.04012 65.5033
12745290 14.7891 6.92524 34 9.57559 -12.3634 5.0225 65.2899
12745293 14.7891 6.92524 34 9.57559 -12.3634 5.0225 65.2899
12745303 15.1326 6.65818 34 9.42329 -12.6703 4.97572 65.2141
12745315 15.5114 6.46479 34 9.33763 -12.9027 4.90588 65.3138
12745323 15.5114 6.46479 34 9.33763 -12.9027 4.90588 65.3138
12745341 15.8637 6.42795 34 9.24244 -13.0441 4.79538 65.5341
12745343 16.1896 6.43716 34 9.20437 -13.12 4.68871 65.8312
12745355 16.1896 6.43716 34 9.20437 -13.12 4.68871 65.8312
12745368 16.542 6.46479 34 9.15677 -13.1947 4.56823 66.1635
12745383 16.7974 6.40953 34 9.08063 -13.3159 4.49715 66.2876
12745393 17.01 6.49242 34 9.09966 -13.2946 4.41367 66.602
12745403 17.01 6.49242 34 9.09966 -13.2946 4.41367 66.602
12745417 17.2392 6.40032 34 8.95689 -13.4699 4.351 66.5964
12745423 17.4086 6.28061 34 8.8617 -13.6235 4.32133 66.5509
12745433 17.4086 6.28061 34 8.8617 -13.6235 4.32133 66.5509
12745445 17.6079 6.17931 34 8.74748 -13.7827 4.27454 66.5346
12745453 17.6079 6.17931 34 8.74748 -13.7827 4.27454 66.5346
12745472 17.7175 6.14247 34 8.73796 -13.8282 4.25194 66.5979
12745474 17.9168 6.16089 34 8.77604 -13.8286 4.19537 66.8537
12745493 17.9168 6.16089 34 8.77604 -13.8286 4.19537 66.8537
12745495 17.9367 6.25298 34 8.80459 -13.762 4.16788 66.9943
12745504 17.6876 6.36349 34 8.8617 -13.6231 4.21683 66.9128
12745515 17.6876 6.36349 34 8.8617 -13.6231 4.21683 66.9128
12745525 17.6377 6.32665 34 8.87122 -13.6304 4.24328 66.8356
12745540 17.6577 6.24377 34 8.87122 -13.6818 4.26142 66.7727
12745545 17.6577 6.24377 34 8.87122 -13.6818 4.26142 66.7727
12745555 17.6577 6.19772 34 8.88074 -13.7029 4.27624 66.7361
12745567 17.6577 6.19772 34 8.88074 -13.7029 4.27624 66.7361
12745576 17.7175 5.97671 34 8.69989 -13.9474 4.29384 66.3941
12745593 17.6776 5.9675 34 8.72844 -13.9294 4.31271 66.3736
12745596 17.6776 5.9675 34 8.72844 -13.9294 4.31271 66.3736
12745607 17.568 6.05038 34 8.83315 -13.8012 4.33732 66.4515
12745618 17.3587 6.19772 34 8.89978 -13.641 4.36603 66.4562
12745626 17.3587 6.19772 34 8.89978 -13.641 4.36603 66.4562
12745642 17.2491 6.34507 34 9.07111 -13.4376 4.3824 66.6653
12745657 16.9648 6.54767 34 9.14726 -13.2276 4.4183 66.6597
12745668 16.7181 6.79632 34 9.2234 -12.998 4.42978 66.7379
12745678 16.7181 6.79632 34 9.2234 -12.998 4.42978 66.7379
12745692 16.4098 6.94366 34 9.33763 -12.7935 4.49478 66.6911
12745698 16.0663 7.0818 34 9.50896 -12.5551 4.58185 66.6571
12745708 16.0663 7.0818 34 9.50896 -12.5551 4.58185 66.6571
12745718 15.6171 7.25677 34 9.59462 -12.3238 4.67607 66.4685
12745728 15.6171 7.25677 34 9.59462 -12.3238 4.67607 66.4685
12745739 15.1767 7.34886 34 9.78499 -12.0806 4.80907 66.3105
12745748 14.7891 7.45016 34 9.92777 -11.8681 4.91676 66.1671
12745758 14.7891 7.45016 34 9.92777 -11.8681 4.91676 66.1671
12745768 14.4544 7.47779 34 9.97536 -11.7594 5.01684 65.9076
12745780 14.1813 7.487 34 10.061 -11.6513 5.1102 65.7294
12745789 14.1813 7.487 34 10.061 -11.6513 5.1102 65.7294
12745799 13.9964 7.56988 34 10.061 -11.5674 5.14149 65.6273
12745813 13.8819 7.56988 34 10.061 -11.5439 5.17669 65.5128
12745819 13.8819 7.44095 34 10.1181 -11.584 5.22501 65.441
12745829 13.9259 7.40412 34 10.0134 -11.6723 5.20712 65.3435
12745849 14.0404 7.19231 34 9.94681 -11.8524 5.22727 65.1795
12745860 14.1285 7.02654 34 9.85162 -12.0181 5.23713 65.0067
12745869 14.1285 7.02654 34 9.85162 -12.0181 5.23713 65.0067
12745885 14.2694 7.03575 34 9.87066 -12.0302 5.19337 65.1758
12745890 14.2694 7.09101 34 9.89922 -11.9826 5.18056 65.2597
12745900 14.2694 7.09101 34 9.89922 -11.9826 5.18056 65.2597
12745911 14.3839 7.45937 34 10.0134 -11.7342 5.04963 65.8567
12745935 14.3751 7.81853 34 10.1372 -11.465 4.96229 66.3308
12745940 14.199 8.21452 34 10.2038 -11.176 4.90646 66.6173
12745950 14.199 8.21452 34 10.2038 -11.176 4.90646 66.6173
12745960 14.0404 8.51842 34 10.299 -10.9273 4.87755 66.8578
12745985 13.7321 8.79469 34 10.4132 -10.6529 4.90433 66.94
12745993 13.4943 9.12622 34 10.4989 -10.3805 4.88943 67.1194
12746000 13.4943 9.12622 34 10.4989 -10.3805 4.88943 67.1194
12746010 13.3269 9.40249 34 10.5941 -10.1489 4.87154 67.3235
12746020 13.0715 9.52221 34 10.6321 -10.01 4.9174 67.2259
12746043 12.8689 9.6143 34 10.6036 -9.93155 4.94592 67.0868
12746061 12.6927 9.55905 34 10.6892 -9.87602 5.02774 66.941
12746072 12.543 9.54063 34 10.6417 -9.87659 5.0711 66.7253
12746083 12.543 9.54063 34 10.6417 -9.87659 5.0711 66.7253
12746092 12.3756 9.40249 34 10.7083 -9.87602 5.17327 66.4864
12746107 12.2876 9.43012 34 10.7749 -9.80655 5.20146 66.4926
12746111 12.2876 9.43012 34 10.7749 -9.80655 5.20146 66.4926
12746122 12.1642 9.55905 34 10.8606 -9.66624 5.21236 66.5839
12746137 12.0762 9.78927 34 10.9462 -9.48211 5.18191 66.8117
12746142 12.0762 9.78927 34 10.9462 -9.48211 5.18191 66.8117
12746152 11.9705 10.0195 34 11.1652 -9.22706 5.17649 67.1551
12746173 11.7326 10.4339 34 11.2413 -8.92233 5.13473 67.4079
12746193 11.6798 10.8115 34 11.3746 -8.65447 5.05776 67.8659
12746198 11.6798 10.8115 34 11.3746 -8.65447 5.05776 67.8659
12746207 11.5829 11.143 34 11.5269 -8.3927 5.01099 68.2528
12746218 11.4155 11.3824 34 11.584 -8.20725 4.99824 68.382
12746234 11.2218 11.5114 34 11.6125 -8.08312 5.0214 68.3457
12746244 11.2218 11.5114 34 11.6125 -8.08312 5.0214 68.3457
12746254 10.9399 11.4469 34 11.5745 -8.06287 5.11784 67.9613
12746269 10.7285 11.4469 34 11.7172 -7.9406 5.20126 67.8927
12746274 10.7285 11.4469 34 11.7172 -7.9406 5.20126 67.8927
12746284 10.5523 11.6219 34 11.86 -7.74258 5.22218 68.0342
12746295 10.4114 12.11 34 12.0694 -7.37417 5.14968 68.5908
12746321 10.3233 12.6257 34 12.3645 -6.97308 5.06731 69.3135
12746324 10.3233 12.6257 34 12.3645 -6.97308 5.06731 69.3135
12746334 10.2264 13.0493 34 12.5834 -6.654 5.00458 69.8591
12746349 10.0503 13.4913 34 12.7262 -6.34456 4.9492 70.2678
12746354 10.0503 13.4913 34 12.7262 -6.34456 4.9492 70.2678
12746364 9.95337 13.8137 34 12.8975 -6.10001 4.90993 70.6646
12746375 9.95337 13.8137 34 12.8975 -6.10001 4.90993 70.6646
12746384 9.89171 14.0623 34 13.2497 -5.82122 4.90755 71.2037
12746400 9.84767 14.5504 34 13.897 -5.32551 4.87563 72.295
12746407 9.84767 14.5504 34 13.897 -5.32551 4.87563 72.295
12746414 9.7772 14.9187 34 14.7536 -4.80085 4.9131 73.4496
12746426 9.58342 15.1029 34 15.9149 -4.21092 5.07268 74.6012
12746435 9.58342 15.1029 34 15.9149 -4.21092 5.07268 74.6012
12746450 9.29275 15.1398 34 17.302 -3.58191 5.32178 75.7345
12746455 8.93161 14.799 34 19.5719 -2.76856 5.79049 77.3026
12746465 8.93161 14.799 34 19.5719 -2.76856 5.79049 77.3026
12746475 8.5 14.5412 34 23.1083 -1.51296 6.37568 80.1495
12746485 8.5 14.5412 34 23.1083 -1.51296 6.37568 80.1495
12746495 8.01554 14.6609 34 26.8688 -0.145397 6.85719 83.5452
12746505 7.70725 14.8543 34 29.0315 0.636309 7.09228 85.593
12746516 7.70725 14.8543 34 29.0315 0.636309 7.09228 85.593
12746525 7.73368 15.1674 32.6219 30.4928 1.54177 7.01272 86.0158
12746544 7.73368 15.1674 32.6219 30.4928 1.54177 7.01272 86.0158
12746545 7.92746 15.6647 28.7336 32.2659 3.33055 6.63317 84.5917
12746555 8.35907 16.1436 25.2982 34 4.91829 6.22826 83.8008
12746569 8.35907 16.1436 25.2982 34 4.91829 6.22826 83.8008
12746575 8.72021 16.4659 22.0793 34 6.05003 5.70229 81.2654
12746586 9.09896 16.6501 19.2345 34 7.06368 5.21985 78.9835
12746605 9.3544 16.7974 16.7401 34 8.03171 4.79666 76.8919
12746621 9.3544 16.7974 16.7401 34 8.03171 4.79666 76.8919
12746627 9.38083 16.8711 14.7229 34 8.92543 4.49572 74.9748
12746635 9.36321 16.8987 13.0177 34 9.72908 4.24862 73.2796
12746648 9.36321 16.8987 13.0177 34 9.72908 4.24862 73.2796
12746655 9.2399 16.8158 11.7076 34 10.4051 4.10765 71.7634
12746665 9.06373 16.779 10.6471 34 11.0187 4.00151 70.4898
12746677 9.06373 16.779 10.6471 34 11.0187 4.00151 70.4898
12746685 8.88756 16.7882 10.0024 34 11.4448 3.94528 69.6782
12746703 8.88756 16.7882 10.0024 34 11.4448 3.94528 69.6782
12746705 8.49119 16.7698 9.61774 34 11.8545 3.99763 68.8787
12746716 8.05959 16.5303 9.3578 34 12.1832 4.14316 67.9477
12746731 8.05959 16.5303 9.3578 34 12.1832 4.14316 67.9477
12746736 7.49585 16.2264 9.17064 34 12.5424 4.36108 66.8929
12746746 6.98497 15.9778 8.84832 34 12.9706 4.53242 65.8111
12746761 6.98497 15.9778 8.84832 34 12.9706 4.53242 65.8111
12746766 6.43005 15.8673 8.66116 34 13.384 4.70235 64.9585
12746776 6.43005 15.8673 8.66116 34 13.384 4.70235 64.9585
12746787 5.91917 15.8397 8.35963 34 13.8653 4.8194 64.1185
12746797 5.46114 16.0975 8.11009 34 14.3423 4.84181 63.6687
12746817 5.11762 16.6593 7.97492 34 14.7316 4.75235 63.7518
12746827 4.81813 17.3112 7.82936 34 15.1128 4.62017 63.9587
12746864 4.65078 18.1281 7.6422 34 15.4589 4.39218 64.4211
12746867 4.56269 18.8381 7.55902 34 15.6698 4.19295 64.9598
12746877 4.50984 19.5383 7.43425 34 15.8799 3.98261 65.4824
12746888 4.50984 19.5383 7.43425 34 15.8799 3.98261 65.4824
12746897 4.34249 20.2969 7.19511 34 16.2374 3.77212 65.8345
12746913 4.2456 20.9193 7.08073 34 16.4513 3.60381 66.2457
12746917 4.2456 20.9193 7.08073 34 16.4513 3.60381 66.2457
12746927 4.12228 21.5126 6.99755 34 16.6558 3.45838 66.6324
12746940 4.12228 21.5126 6.99755 34 16.6558 3.45838 66.6324
12746948 4.08705 22.0572 6.86239 34 16.8296 3.29478 67.0066
12746966 4.1487 22.5727 6.75841 34 16.9182 3.12028 67.4798
12746978 4.2544 22.9228 6.72722 34 16.9139 2.99319 67.9044
12746992 4.29845 23.0395 6.73761 34 16.8943 2.95254 68.0755
12746999 4.29845 23.0395 6.73761 34 16.8943 2.95254 68.0755
12747015 4.37772 23.4188 6.62324 34 16.9607 2.81207 68.4197
12747019 4.37772 23.4188 6.62324 34 16.9607 2.81207 68.4197
12747029 4.39534 23.7105 6.60245 34 16.9968 2.72818 68.7083
12747040 4.50984 24.0315 6.63364 34 16.9454 2.62212 69.1749
12747050 4.50984 24.0315 6.63364 34 16.9454 2.62212 69.1749
12747061 4.59793 24.2746 6.62324 34 16.9267 2.53628 69.4958
12747070 4.65959 24.5566 6.63364 34 16.9161 2.45185 69.8499
12747090 4.7829 24.6733 6.66483 34 16.8372 2.39769 70.1211
12747100 4.7829 24.6539 6.67523 34 16.8287 2.40439 70.112
12747111 4.7829 24.6539 6.67523 34 16.8287 2.40439 70.112
12747120 4.84456 24.6442 6.65443 34 16.8032 2.38777 70.1432
12747132 4.84456 24.6442 6.65443 34 16.8032 2.38777 70.1432
12747140 4.74767 24.7803 6.61284 34 16.9016 2.37056 70.1408
12747157 4.6772 25.0526 6.50887 34 17.0371 2.30194 70.2387
12747160 4.6772 25.0526 6.50887 34 17.0371 2.30194 70.2387
12747170 4.65078 25.3833 6.47768 34 17.1088 2.22167 70.5117
12747191 4.65078 25.3833 6.47768 34 17.1088 2.22167 70.5117
12747193 4.6772 25.5778 6.35291 34 17.1892 2.14521 70.6079
12747200 4.59793 25.7626 6.43609 34 17.2072 2.13476 70.7966
12747223 4.59793 25.7626 6.43609 34 17.2072 2.13476 70.7966
12747225 4.59793 25.7918 6.40489 34 17.229 2.12203 70.7946
12747230 4.50984 25.8209 6.3841 34 17.2973 2.1325 70.7149
12747249 4.50984 25.8209 6.3841 34 17.2973 2.1325 70.7149
12747252 4.457 25.8112 6.35291 34 17.3466 2.142 70.6211
12747275 4.28083 25.889 6.29052 34 17.4984 2.15455 70.4604
12747281 4.12228 26.0738 6.28012 34 17.6199 2.14627 70.4762
12747301 3.91088 26.0543 6.20734 34 17.7905 2.18934 70.1726
12747311 3.85803 26.0933 6.17615 34 17.8458 2.18706 70.1274
12747323 3.85803 26.0933 6.17615 34 17.8458 2.18706 70.1274
12747332 3.79637 26.0252 6.14495 34 17.8957 2.21322 69.9665
12747348 3.79637 26.0252 6.14495 34 17.8957 2.21322 69.9665
12747352 3.76114 25.8307 6.15535 34 17.8911 2.27182 69.7472
12747362 3.81399 25.6556 6.28012 34 17.764 2.32485 69.7497
12747374 3.81399 25.6556 6.28012 34 17.764 2.32485 69.7497
12747382 3.88446 25.4416 6.31132 34 17.6794 2.36623 69.6374
12747398 3.89326 25.1402 6.40489 34 17.5847 2.45645 69.4383
12747401 3.89326 25.1402 6.40489 34 17.5847 2.45645 69.4383
12747412 4.02539 24.6831 6.58165 34 17.3459 2.57032 69.2901
12747423 4.02539 24.6831 6.58165 34 17.3459 2.57032 69.2901
12747432 4.00777 24.2454 6.73761 34 17.2124 2.71436 68.9908
12747448 4.18394 23.6035 6.98716 34 16.8785 2.8789 68.7746
12747454 4.18394 23.6035 6.98716 34 16.8785 2.8789 68.7746
12747463 4.23679 22.9908 7.07034 34 16.7222 3.04021 68.298
12747483 4.29845 22.6796 7.03914 34 16.6656 3.10092 68.0172
12747498 4.43938 22.6602 7.08073 34 16.5517 3.07593 68.1803
12747518 4.52746 22.7088 7.02875 34 16.5358 3.03065 68.265
12747524 4.61554 22.7477 7.19511 34 16.3864 3.02629 68.5584
12747554 4.65959 22.6018 7.15352 34 16.3666 3.04585 68.4149
12747555 4.65959 22.4754 7.11193 34 16.3758 3.07199 68.2469
12747563 4.65959 22.4754 7.11193 34 16.3758 3.07199 68.2469
12747591 4.70363 22.3587 7.15352 34 16.3091 3.09852 68.2158
12747594 4.70363 22.3587 7.15352 34 16.3091 3.09852 68.2158
12747596 4.72124 22.3003 7.19511 34 16.2658 3.11658 68.2167
12747603 4.7829 22.4657 7.2159 34 16.2372 3.06013 68.4645
12747626 4.7829 22.4657 7.2159 34 16.2372 3.06013 68.4645
12747628 4.89741 22.417 7.25749 34 16.1371 3.05002 68.5719
12747633 4.97668 22.417 7.38226 34 16.0151 3.05089 68.776
12747643 4.97668 22.3295 7.38226 34 16.0036 3.07389 68.6885
12747653 5.09119 22.1836 7.42385 34 15.8913 3.08937 68.6987
12747676 5.16166 22.0183 7.47584 34 15.7965 3.12338 68.6558
12747684 5.29378 21.853 7.52783 34 15.665 3.14113 68.6746
12747704 5.39067 21.7654 7.57982 34 15.565 3.14763 68.7359
12747714 5.51399 21.7265 7.61101 34 15.4686 3.13075 68.8515
12747726 5.51399 21.7265 7.61101 34 15.4686 3.13075 68.8515
12747734 5.61969 21.6098 7.75658 34 15.3051 3.15869 68.9861
12747756 5.72539 21.464 7.72538 34 15.241 3.16392 68.9147
12747768 5.89275 21.2208 7.79817 34 15.0663 3.19639 68.9117
12747785 5.98083 21.2208 7.87095 34 14.973 3.18563 69.0726
12747795 6.13938 21.2014 7.83976 34 14.8966 3.14373 69.1805
12747811 6.13938 21.2014 7.83976 34 14.8966 3.14373 69.1805
12747815 6.35959 21.3473 7.91254 34 14.7499 3.06072 69.6194
12747825 6.35959 21.3473 7.91254 34 14.7499 3.06072 69.6194
12747838 6.51813 21.3278 7.95413 34 14.6331 3.03184 69.8001
12747845 6.73834 21.2986 8.17248 34 14.3812 3.02 70.2094
12747855 6.73834 21.2986 8.17248 34 14.3812 3.02 70.2094
12747868 6.95855 21.1625 8.22446 34 14.2083 3.00732 70.3455
12747875 7.1171 20.8902 8.33884 34 14.0144 3.05594 70.3461
12747890 7.1171 20.8902 8.33884 34 14.0144 3.05594 70.3461
12747895 7.33731 20.7735 8.35963 34 13.8627 3.03295 70.4704
12747917 7.56632 20.754 8.42202 34 13.6996 2.99008 70.7423
12747927 7.69845 20.7054 8.5156 34 13.5687 2.98475 70.9194
12747941 7.69845 20.7054 8.5156 34 13.5687 2.98475 70.9194
12747947 7.79534 20.5595 8.62997 34 13.4304 3.01652 70.9848
12747957 7.80414 20.3164 8.65076 34 13.3746 3.07969 70.7713
12747969 7.80414 20.3164 8.65076 34 13.3746 3.07969 70.7713
12747977 7.90104 20.1899 8.76514 34 13.2394 3.10647 70.8561
12747998 7.90104 20.1899 8.76514 34 13.2394 3.10647 70.8561
12748000 7.93627 19.9565 8.61957 34 13.2603 3.13281 70.5124
12748006 8.04197 19.9857 8.71315 34 13.1574 3.11394 70.7408
12748022 8.04197 19.9857 8.71315 34 13.1574 3.11394 70.7408
12748026 8.15648 19.976 8.65076 34 13.1277 3.07664 70.7832
12748037 8.15648 19.976 8.65076 34 13.1277 3.07664 70.7832
12748047 8.13886 20.0635 8.68196 34 13.135 3.06406 70.8843
12748059 8.13886 20.1024 8.67156 34 13.1471 3.0524 70.9128
12748077 8.15648 20.0051 8.59878 34 13.1606 3.06043 70.7604
12748088 7.98912 19.8301 8.56758 34 13.2388 3.143 70.3868
12748105 7.98912 19.8301 8.56758 34 13.2388 3.143 70.3868
12748109 7.70725 19.6745 8.32844 34 13.4983 3.21618 69.7102
12748120 7.70725 19.6745 8.32844 34 13.4983 3.21618 69.7102
12748136 7.39016 19.4703 8.33884 34 13.635 3.35519 69.1992
12748140 7.10829 19.4216 8.20367 34 13.8614 3.42055 68.7336
12748152 7.10829 19.4216 8.20367 34 13.8614 3.42055 68.7336
12748163 6.98497 19.2563 8.26606 34 13.8691 3.5087 68.5073
12748168 7.19637 19.2563 8.39083 34 13.6793 3.47269 68.8435
12748190 7.19637 19.2563 8.39083 34 13.6793 3.47269 68.8435
12748191 7.31088 19.1201 8.44281 34 13.5634 3.4872 68.8738
12748199 7.31088 19.1201 8.44281 34 13.5634 3.4872 68.8738
12748215 7.38135 18.9256 8.5052 34 13.4566 3.53096 68.8122
12748218 7.35492 18.7311 8.4948 34 13.4445 3.58892 68.5808
12748228 7.35492 18.7311 8.4948 34 13.4445 3.58892 68.5808
12748244 7.02021 18.5755 8.33884 34 13.6957 3.69689 67.9346
12748248 6.59741 18.4588 8.25566 34 13.967 3.83278 67.3119
12748273 6.62383 18.3616 8.46361 34 13.8157 3.88698 67.449
12748279 6.62383 18.3616 8.46361 34 13.8157 3.88698 67.449
12748301 7.05544 18.2643 8.66116 34 13.4404 3.82639 67.9809
12748304 7.73368 18.2157 8.86911 34 12.9373 3.68791 68.8185
12748310 7.73368 18.2157 8.86911 34 12.9373 3.68791 68.8185
12748331 8.26218 18.0406 8.96269 34 12.5661 3.60784 69.2655
12748332 8.47358 17.71 9.08746 34 12.3244 3.66039 69.271
12748340 8.47358 17.71 9.08746 34 12.3244 3.66039 69.271
12748356 8.53523 17.4279 9.10826 34 12.2281 3.72334 69.0714
12748360 8.49119 16.9908 9.21223 34 12.1143 3.87156 68.6942
12748382 8.69378 16.6961 9.46177 34 11.8155 3.93714 68.8517
12748391 8.69378 16.6961 9.46177 34 11.8155 3.93714 68.8517
12748406 9.09896 16.2633 9.70092 34 11.3894 3.98302 69.0632
12748410 9.6715 16.0423 9.98165 34 10.9007 3.93166 69.6954
12748420 9.6715 16.0423 9.98165 34 10.9007 3.93166 69.6954
12748431 10.2617 15.6002 10.3144 34 10.3397 3.94418 70.1762
12748440 10.7725 15.2779 10.6575 34 9.84609 3.94731 70.7079
12748461 11.1689 14.8359 10.8758 34 9.44938 3.99356 70.8806
12748472 11.1689 14.8359 10.8758 34 9.44938 3.99356 70.8806
12748482 11.6886 14.532 11.0734 34 9.03651 3.96657 71.294
12748494 12.0762 14.1912 11.4269 34 8.60882 4.00858 71.6943
12748506 12.0762 14.1912 11.4269 34 8.60882 4.00858 71.6943
12748513 12.7456 14.0255 11.8012 34 8.08802 3.93335 72.5723
12748531 13.415 13.8321 12.2691 34 7.53165 3.88119 73.5162
12748543 14.0052 13.7216 12.737 34 7.04349 3.82943 74.4637
12748563 14.3487 13.5282 13.3609 34 6.58533 3.88448 75.2377
12748581 14.4016 13.3164 14.2343 34 6.14879 4.05183 75.9522
12748583 14.4016 13.3164 14.2343 34 6.14879 4.05183 75.9522
12748593 14.1813 13.3164 15.6691 34 5.65849 4.30977 77.1668
12748605 14.058 13.5558 18.2994 34 4.75466 4.63356 79.9132
12748631 14.8684 14.0347 21.1245 34 3.58269 4.68086 84.0276
12748644 15.3705 14.4951 22.8767 33.9123 2.93127 4.66047 86.6546
12748664 15.4497 14.7622 24.2646 30.7072 1.68899 4.35996 85.1837
12748674 15.5731 14.6425 26.0759 27.9209 0.271481 4.23595 84.2123
12748695 15.8373 14.5228 28.399 25.3977 -1.28207 4.17732 84.1567
12748704 16.2073 14.3938 30.9386 22.8453 -2.93499 4.1209 84.385
12748724 16.2073 14.3938 30.9386 22.8453 -2.93499 4.1209 84.385
12748726 16.2953 14.1728 33.5078 20.3805 -4.51946 4.1645 84.3565
12748734 16.2689 13.7768 34 18.1691 -5.5717 4.03638 82.2148
12748753 16.2689 13.7768 34 18.1691 -5.5717 4.03638 82.2148
12748778 16.2425 13.39 34 16.2195 -6.45975 3.86721 79.852
12748780 16.1192 12.948 34 14.6013 -7.26479 3.77261 77.6685
12748781 16.1192 12.948 34 14.6013 -7.26479 3.77261 77.6685
12748785 16.0047 12.2665 34 13.3163 -8.07732 3.77942 75.5875
12748795 15.8373 12.2665 34 13.3163 -8.03977 3.8211 75.4202
12748805 15.8373 11.6495 34 12.3931 -8.72861 3.83858 73.8799
12748817 15.7052 11.1062 34 11.7744 -9.23896 3.91875 72.5857
12748832 15.7052 11.1062 34 11.7744 -9.23896 3.91875 72.5857
12748837 15.4409 10.4984 34 11.2223 -9.73849 4.06462 71.1616
12748847 15.2295 9.99187 34 10.9748 -10.0657 4.22104 70.1962
12748867 14.9917 9.31961 34 10.6321 -10.5304 4.42119 68.9435
12748883 14.6041 8.66576 34 10.4608 -10.8804 4.69305 67.7307
12748887 14.6041 8.66576 34 10.4608 -10.8804 4.69305 67.7307
12748897 14.3047 8.01192 34 10.3656 -11.2201 4.95988 66.6822
12748909 14.3047 8.01192 34 10.3656 -11.2201 4.95988 66.6822
12748918 13.9171 7.45937 34 10.2895 -11.4855 5.23399 65.6659
12748935 13.7145 7.04496 34 10.2324 -11.7081 5.4175 64.9918
12748938 13.7145 7.04496 34 10.2324 -11.7081 5.4175 64.9918
12748948 13.5119 6.81473 34 10.1372 -11.8516 5.54044 64.4638
12748962 13.3534 6.54767 34 10.061 -12.0168 5.66586 63.9621
12748968 13.3534 6.54767 34 10.061 -12.0168 5.66586 63.9621
12748978 13.2829 6.31744 34 10.061 -12.1363 5.76347 63.6614
12748999 13.2477 6.22535 34 10.1086 -12.1551 5.81196 63.5816
12749014 13.2301 6.32665 34 10.1657 -12.0592 5.79287 63.7224
12749020 13.2301 6.32665 34 10.1657 -12.0592 5.79287 63.7224
12749028 13.2301 6.50163 34 10.1943 -11.9412 5.74007 63.926
12749039 13.1596 6.55688 34 10.2704 -11.851 5.75602 63.9869
12749049 13.1596 6.55688 34 10.2704 -11.851 5.75602 63.9869
12749064 13.4503 6.66739 34 10.2514 -11.858 5.62392 64.369
12749079 13.5736 6.61213 34 10.1372 -11.9803 5.58545 64.3229
12749089 13.829 6.60293 34 9.98488 -12.1246 5.4845 64.4168
12749099 13.829 6.60293 34 9.98488 -12.1246 5.4845 64.4168
12749114 14.1109 6.71343 34 9.98488 -12.1173 5.36048 64.8092
12749119 14.287 6.79632 34 10.1277 -12.0237 5.30071 65.211
12749130 14.287 6.79632 34 10.1277 -12.0237 5.30071 65.211
12749143 14.3575 6.7779 34 10.0991 -12.0644 5.28026 65.2345
12749150 14.3575 6.7779 34 10.0991 -12.0644 5.28026 65.2345
12749160 14.1549 6.59372 34 10.0991 -12.1292 5.40122 64.8477
12749173 14.1813 6.45558 34 10.023 -12.2575 5.42516 64.6599
12749180 14.1813 6.45558 34 10.023 -12.2575 5.42516 64.6599
12749202 14.1373 6.16089 34 9.98488 -12.4417 5.52712 64.2831
12749204 14.1725 5.82015 34 9.8421 -12.7322 5.60417 63.8348
12749228 14.2342 5.58992 34 9.76596 -12.9259 5.64754 63.5901
12749232 14.2342 5.58992 34 9.76596 -12.9259 5.64754 63.5901
12749240 14.3135 5.45179 34 9.80403 -13.0006 5.67226 63.5693
12749253 14.472 5.37811 34 9.83259 -13.0574 5.64889 63.6827
12749260 14.472 5.37811 34 9.83259 -13.0574 5.64889 63.6827
12749270 14.5689 5.36891 34 9.82307 -13.0868 5.6191 63.7609
12749281 14.7363 5.31365 34 9.75644 -13.1908 5.57308 63.8064
12749304 14.8684 5.31365 34 9.74692 -13.2209 5.52915 63.929
12749312 14.8684 5.31365 34 9.74692 -13.2209 5.52915 63.929
12749330 15.0798 5.35049 34 9.71836 -13.2547 5.4455 64.1487
12749333 15.3793 5.27681 34 9.60414 -13.4213 5.35667 64.2602
12749341 15.3793 5.27681 34 9.60414 -13.4213 5.35667 64.2602
12749356 15.6083 5.33207 34 9.48992 -13.4977 5.24976 64.4303
12749363 16.0663 5.48862 34 9.3757 -13.5537 5.04094 64.9306
12749383 16.5244 5.67281 34 9.29955 -13.5701 4.83285 65.4967
12749392 16.8679 5.79252 34 9.25196 -13.5875 4.68612 65.9124
12749405 16.8679 5.79252 34 9.25196 -13.5875 4.68612 65.9124
12749418 17.3189 5.95829 34 9.15677 -13.624 4.48858 66.4339
12749430 17.3189 5.95829 34 9.15677 -13.624 4.48858 66.4339
12749437 17.7374 6.02275 34 9.05207 -13.7185 4.33122 66.8122
12749444 18.0762 6.16089 34 9.05207 -13.6958 4.19421 67.2892
12749465 18.3353 6.32665 34 8.98544 -13.6824 4.06302 67.6474
12749481 18.5645 6.43716 34 8.91881 -13.6956 3.95694 67.9205
12749497 18.7737 6.52004 34 8.85218 -13.7211 3.86488 68.146
12749505 18.7737 6.52004 34 8.85218 -13.7211 3.86488 68.146
12749515 18.9431 6.53846 34 8.85218 -13.7386 3.81303 68.3338
12749530 19.0727 6.56609 34 8.80459 -13.7712 3.76205 68.4434
12749535 19.0727 6.56609 34 8.80459 -13.7712 3.76205 68.4434
12749545 19.2819 6.60293 34 8.76652 -13.8062 3.68856 68.6514
12749555 19.4015 6.75027 34 8.77604 -13.7373 3.61775 68.9278
12749565 19.4015 6.75027 34 8.77604 -13.7373 3.61775 68.9278
12749580 19.5809 6.96208 34 8.76652 -13.6534 3.51111 69.3095
12749585 19.5809 6.96208 34 8.76652 -13.6534 3.51111 69.3095
12749595 19.7204 7.05417 34 8.77604 -13.6196 3.45104 69.5506
12749605 19.9297 7.32124 34 8.72844 -13.5326 3.3176 69.9793
12749627 20.0692 7.40412 34 8.69037 -13.5308 3.2532 70.1637
12749635 20.2286 7.45937 34 8.61422 -13.5682 3.18473 70.3022
12749653 20.2286 7.45937 34 8.61422 -13.5682 3.18473 70.3022
12749657 20.4279 7.43174 34 8.61422 -13.6157 3.14043 70.4739
12749666 20.4279 7.43174 34 8.61422 -13.6157 3.14043 70.4739
12749680 20.4578 7.34886 34 8.54759 -13.7026 3.14287 70.3542
12749685 20.5973 7.44095 34 8.53807 -13.6796 3.08173 70.5763
12749707 20.7268 7.52384 34 8.54759 -13.6498 3.02908 70.7983
12749717 20.8664 7.65276 34 8.5 -13.6279 2.95291 71.0191
12749736 20.8664 7.66197 34 8.47144 -13.6384 2.94574 70.9998
12749749 20.8664 7.66197 34 8.47144 -13.6384 2.94574 70.9998
12749762 21.0059 7.69881 34 8.5 -13.6252 2.90613 71.2047
12749767 21.1254 7.78169 34 8.51904 -13.5891 2.8586 71.4262
12749789 21.0756 7.78169 34 8.47144 -13.6069 2.86297 71.3288
12749798 21.0457 7.80011 34 8.52856 -13.5613 2.87556 71.3744
12749808 21.0457 7.80011 34 8.52856 -13.5613 2.87556 71.3744
12749818 20.9162 7.91062 34 8.6047 -13.4398 2.89324 71.4315
12749828 20.9162 7.91062 34 8.6047 -13.4398 2.89324 71.4315
12749845 20.8066 8.01192 34 8.69037 -13.3215 2.90983 71.5089
12749848 20.7169 8.20531 34 8.76652 -13.1628 2.89676 71.6887
12749859 20.7169 8.20531 34 8.76652 -13.1628 2.89676 71.6887
12749876 20.5076 8.31582 34 8.757 -13.0744 2.91984 71.5804
12749879 20.3083 8.2974 34 8.77604 -13.0408 2.97772 71.3818
12749908 20.1987 8.2974 34 8.82363 -12.997 3.01337 71.3197
12749919 20.0692 8.20531 34 8.87122 -12.9989 3.0775 71.1457
12749943 19.9596 8.18689 34 8.82363 -13.0157 3.10212 70.9701
12749945 19.9596 8.18689 34 8.82363 -13.0157 3.10212 70.9701
12749949 19.8599 8.18689 34 8.87122 -12.9734 3.13554 70.918
12749972 19.7802 8.26056 34 8.98544 -12.8594 3.15617 71.0262
12749973 19.7802 8.26056 34 8.98544 -12.8594 3.15617 71.0262
12749979 19.6008 8.31582 34 9.00448 -12.789 3.19112 70.9211
12749989 19.6008 8.31582 34 9.00448 -12.789 3.19112 70.9211
12750004 19.4314 8.38028 34 9.014 -12.7204 3.21966 70.8257
12750010 19.2421 8.43554 34 9.13774 -12.5922 3.27474 70.8154
12750030 18.9531 8.55525 34 9.23292 -12.4273 3.33424 70.7413
12750042 18.6841 8.65656 34 9.32811 -12.2754 3.39348 70.6687
12750053 18.6841 8.65656 34 9.32811 -12.2754 3.39348 70.6687
12750064 18.3951 8.79469 34 9.49944 -12.0602 3.46085 70.6892
12750077 18.3951 8.79469 34 9.49944 -12.0602 3.46085 70.6892
12750080 18.0164 8.93283 34 9.62318 -11.8532 3.54401 70.5724
12750090 17.6975 9.08938 34 9.72788 -11.6572 3.6037 70.5148
12750118 17.6975 9.08938 34 9.72788 -11.6572 3.6037 70.5148
12750120 17.3787 9.15385 34 9.79451 -11.5284 3.6818 70.327
12750144 17.0399 9.31961 34 9.88018 -11.3327 3.74163 70.2396
12750146 16.7886 9.43012 34 9.95633 -11.1871 3.79143 70.175
12750152 16.7886 9.43012 34 9.95633 -11.1871 3.79143 70.175
12750169 16.5684 9.59588 34 10.0705 -10.9995 3.82423 70.2348
12750172 16.3218 9.69718 34 10.2419 -10.8107 3.89042 70.2608
12750181 16.3218 9.69718 34 10.2419 -10.8107 3.89042 70.2608
12750195 16.0839 9.78006 34 10.2514 -10.7154 3.93367 70.1154
12750202 15.7316 9.92741 34 10.4227 -10.4811 4.01611 70.0817
12750222 15.3881 10.0932 34 10.575 -10.2489 4.08824 70.0563
12750234 15.3881 10.0932 34 10.575 -10.2489 4.08824 70.0563
12750248 15.0446 10.2589 34 10.7464 -10.0069 4.16336 70.0499
12750252 14.7187 10.526 34 10.9082 -9.72323 4.20443 70.1528
12750262 14.7187 10.526 34 10.9082 -9.72323 4.20443 70.1528
12750275 14.428 10.7378 34 10.9938 -9.51271 4.2392 70.1596
12750282 14.1109 10.922 34 11.1366 -9.28191 4.29754 70.1695
12750303 13.7762 11.097 34 11.1747 -9.10253 4.34736 70.0478
12750313 13.7762 11.097 34 11.1747 -9.10253 4.34736 70.0478
12750328 13.5207 11.143 34 11.1937 -9.01263 4.40826 69.8575
12750333 13.2653 11.3088 34 11.3936 -8.77651 4.46339 69.9677
12750343 13.2653 11.3088 34 11.3936 -8.77651 4.46339 69.9677
12750358 13.0098 11.493 34 11.3175 -8.6649 4.47177 69.8203
12750363 12.8249 11.7324 34 11.4507 -8.44252 4.47666 70.008
12750389 12.7104 11.8797 34 11.5364 -8.30436 4.48039 70.1265
12750393 12.7104 11.8797 34 11.5364 -8.30436 4.48039 70.1265
12750403 12.4637 12.0455 34 11.5935 -8.13974 4.51144 70.1027
12750418 12.3052 12.2849 34 11.6125 -7.97965 4.4918 70.2027
12750433 12.0585 12.5244 34 11.7648 -7.73633 4.51654 70.3478
12750443 11.9352 12.7086 34 11.841 -7.58522 4.51101 70.4848
12750453 11.9352 12.7086 34 11.841 -7.58522 4.51101 70.4848
12750468 11.8031 12.9204 34 12.0314 -7.36748 4.51726 70.7548
12750473 11.8031 12.9204 34 12.0314 -7.36748 4.51726 70.7548
12750494 11.6534 13.1598 34 12.0694 -7.20351 4.4982 70.8826
12750495 11.4772 13.3716 34 12.3455 -6.9388 4.52915 71.1943
12750532 11.3187 13.3164 34 12.6691 -6.77843 4.63523 71.3041
12750535 11.0984 13.2335 34 13.145 -6.54755 4.78751 71.4769
12750537 11.0984 13.2335 34 13.145 -6.54755 4.78751 71.4769
12750544 10.9663 13.1598 34 14.1445 -6.1097 4.98508 72.2706
12750561 10.9663 13.1598 34 14.1445 -6.1097 4.98508 72.2706
12750564 10.8254 13.4729 34 15.8483 -5.22756 5.16881 74.1466
12750574 10.5171 14.1176 34 18.4321 -3.88217 5.4104 77.0667
12750594 10.156 14.9003 34 21.5496 -2.39004 5.67452 80.6059
12750612 9.62746 15.3516 34 24.443 -1.14865 6.01711 83.422
12750625 8.99326 15.545 34 26.9564 -0.143826 6.38956 85.4947
12750637 8.99326 15.545 34 26.9564 -0.143826 6.38956 85.4947
12750645 8.27979 15.6186 34 29.3433 0.768584 6.78199 87.2417
12750662 7.82176 15.7752 30.8992 31.7398 2.5494 6.79104 86.236
12750665 7.82176 15.7752 30.8992 31.7398 2.5494 6.79104 86.236
12750675 7.45181 15.9594 27.4638 33.9221 4.41225 6.71745 84.7971
12750695 7.26684 16.1896 24.117 34 5.76345 6.3735 81.5734
12750698 7.26684 16.1896 24.117 34 5.76345 6.3735 81.5734
12750705 7.29326 16.4567 21.3312 34 6.90183 5.99029 79.0811
12750721 7.29326 16.4567 21.3312 34 6.90183 5.99029 79.0811
12750725 7.40777 16.5395 18.634 34 7.99728 5.61887 76.5814
12750735 7.57513 16.5027 16.5113 34 8.85392 5.31581 74.5892
12750750 7.57513 16.5027 16.5113 34 8.85392 5.31581 74.5892
12750755 7.68964 16.5948 14.4942 34 9.75938 4.98974 72.7786
12750765 7.71606 16.604 12.9034 34 10.5248 4.75615 71.2234
12750778 7.71606 16.604 12.9034 34 10.5248 4.75615 71.2234
12750785 7.70725 16.5856 11.5101 34 11.2346 4.55939 69.8029
12750807 7.70725 16.5856 11.5101 34 11.2346 4.55939 69.8029
12750808 7.68964 16.7514 10.5847 34 11.7627 4.37744 69.0257
12750816 7.51347 16.7698 9.80489 34 12.2824 4.30067 68.0881
12750835 7.51347 16.7698 9.80489 34 12.2824 4.30067 68.0881
12750836 7.31969 16.7882 9.3578 34 12.64 4.27993 67.4657
12750847 7.08187 16.7882 8.90031 34 13.032 4.27516 66.7704
12750864 7.08187 16.6501 8.90031 34 13.0072 4.31512 66.6322
12750867 6.75596 16.429 8.68196 34 13.281 4.44008 65.867
12750877 6.75596 16.429 8.68196 34 13.281 4.44008 65.867
12750907 6.34197 16.2356 8.47401 34 13.6121 4.58783 65.0516
12750911 5.85751 16.033 8.28685 34 13.9803 4.76717 64.1774
12750917 5.4171 15.9225 8.14128 34 14.3209 4.91525 63.4809
12750944 5.03834 15.8489 7.98532 34 14.6428 5.03354 62.8725
12750947 4.80052 15.9041 7.98532 34 14.8023 5.09189 62.69
12750956 4.80052 15.9041 7.98532 34 14.8023 5.09189 62.69
12750978 4.53627 15.9041 7.82936 34 15.0709 5.15233 62.2697
12750980 4.39534 16.033 7.74618 34 15.2359 5.14305 62.1746
12750987 4.39534 16.033 7.74618 34 15.2359 5.14305 62.1746
12751004 4.2456 16.2633 7.77737 34 15.3486 5.12196 62.2862
12751006 4.2456 16.2633 7.77737 34 15.3486 5.12196 62.2862
12751018 4.21036 16.383 7.69419 34 15.4439 5.08147 62.2875
12751040 4.21036 16.6132 7.72538 34 15.4589 5.01251 62.549
12751042 4.21036 16.6132 7.72538 34 15.4589 5.01251 62.549
12751048 4.27202 16.8342 7.71498 34 15.4594 4.9208 62.8212
12751058 4.28964 16.954 7.83976 34 15.3862 4.89737 63.0833
12751068 4.28964 16.954 7.83976 34 15.3862 4.89737 63.0833
12751078 4.51865 17.1459 7.92294 34 15.2169 4.77887 63.5875
12751098 4.55389 17.3015 7.93333 34 15.212 4.72136 63.7887
12751108 4.72124 17.5738 7.91254 34 15.1618 4.58298 64.2076
12751129 4.76529 17.7391 7.80856 34 15.2245 4.50239 64.313
12751142 4.80933 18.0212 7.77737 34 15.2592 4.39889 64.6079
12751149 4.80933 18.0212 7.77737 34 15.2592 4.39889 64.6079
12751165 4.7829 18.1379 7.82936 34 15.2608 4.38036 64.7501
12751169 4.68601 18.2546 7.663 34 15.4425 4.34707 64.6036
12751179 4.68601 18.2546 7.663 34 15.4425 4.34707 64.6036
12751190 4.68601 18.2838 7.6526 34 15.4533 4.33662 64.6224
12751216 4.66839 18.4685 7.57982 34 15.5371 4.27468 64.7168
12751219 4.73005 18.6339 7.6526 34 15.4773 4.21939 65.0165
12751230 4.73005 18.6339 7.6526 34 15.4773 4.21939 65.0165
12751242 4.81813 18.7992 7.59021 34 15.4855 4.13439 65.2076
12751250 4.82694 18.8381 7.61101 34 15.4728 4.12386 65.2761
12751267 4.82694 18.8381 7.61101 34 15.4728 4.12386 65.2761
12751270 4.7829 18.9062 7.6422 34 15.4907 4.12202 65.3313
12751280 4.7829 18.9062 7.6422 34 15.4907 4.12202 65.3313
12751298 4.72124 18.8576 7.57982 34 15.5607 4.14397 65.1586
12751300 4.72124 18.8478 7.76697 34 15.4431 4.17792 65.336
12751327 4.72124 18.8478 7.76697 34 15.4431 4.17792 65.336
12751329 4.76529 18.8867 7.71498 34 15.4537 4.14497 65.367
12751334 4.74767 19.0812 7.68379 34 15.5122 4.08811 65.5127
12751355 4.73005 19.2077 7.67339 34 15.5478 4.05473 65.6111
12751371 4.83575 19.4022 7.6318 34 15.5362 3.96097 65.8697
12751385 4.83575 19.5383 7.67339 34 15.5302 3.92884 66.0475
12751392 4.83575 19.5383 7.67339 34 15.5302 3.92884 66.0475
12751401 4.83575 19.48 7.6422 34 15.541 3.94035 65.9579
12751413 4.82694 19.3341 7.6526 34 15.519 3.98661 65.8136
12751422 4.82694 19.3341 7.6526 34 15.519 3.98661 65.8136
12751449 4.81813 19.2368 7.663 34 15.504 4.019 65.718
12751452 4.81813 19.2368 7.663 34 15.504 4.019 65.718
12751453 4.74767 19.2368 7.61101 34 15.5796 4.03072 65.5955
12751463 4.66839 19.3535 7.49664 34 15.7164 4.0007 65.5186
12751483 4.58912 19.4994 7.41346 34 15.838 3.96742 65.502
12751493 4.54508 19.7037 7.34067 34 15.9393 3.90885 65.5894
12751504 4.54508 19.7037 7.34067 34 15.9393 3.90885 65.5894
12751513 4.54508 19.8495 7.40306 34 15.9205 3.87744 65.7977
12751530 4.54508 19.8495 7.40306 34 15.9205 3.87744 65.7977
12751533 4.54508 20.0246 7.31988 34 15.9963 3.81324 65.8896
12751543 4.52746 20.1121 7.38226 34 15.9805 3.80389 66.0219
12751555 4.52746 20.1121 7.38226 34 15.9805 3.80389 66.0219
12751563 4.56269 20.1413 7.41346 34 15.9433 3.79086 66.1175
12751580 4.59793 20.2483 7.40306 34 15.9426 3.74876 66.2493
12751593 4.63316 20.1997 7.35107 34 15.9463 3.74372 66.1839
12751609 4.63316 20.1997 7.35107 34 15.9463 3.74372 66.1839
12751613 4.5715 20.1705 7.42385 34 15.9354 3.78183 66.1658
12751623 4.68601 20.1705 7.40306 34 15.8775 3.74585 66.2596
12751637 4.68601 20.1705 7.40306 34 15.8775 3.74585 66.2596
12751645 4.7829 20.1899 7.52783 34 15.7439 3.73417 66.5007
12751653 4.86218 20.1899 7.61101 34 15.6446 3.72595 66.6631
12751667 4.86218 20.1121 7.61101 34 15.6337 3.74783 66.5853
12751673 4.9943 20.083 7.663 34 15.5175 3.72768 66.7402
12751683 4.9943 20.083 7.663 34 15.5175 3.72768 66.7402
12751695 5.09119 19.9079 7.663 34 15.4337 3.74964 66.6621
12751703 5.21451 20.0149 7.72538 34 15.3368 3.69563 66.9548
12751721 5.21451 20.0149 7.72538 34 15.3368 3.69563 66.9548
12751723 5.22332 20.1316 7.77737 34 15.3171 3.66943 67.1323
12751747 5.18808 20.2677 7.69419 34 15.4078 3.62734 67.15
12751755 5.28497 20.4039 7.663 34 15.3878 3.55761 67.3519
12751776 5.22332 20.54 7.53823 34 15.5191 3.51586 67.3016
12751784 5.27617 20.647 7.57982 34 15.4775 3.47909 67.503
12751794 5.27617 20.647 7.57982 34 15.4775 3.47909 67.503
12751808 5.38187 20.8124 7.67339 34 15.3818 3.42118 67.8676
12751814 5.38187 20.8124 7.67339 34 15.3818 3.42118 67.8676
12751824 5.44352 20.9582 7.69419 34 15.3535 3.36858 68.0959
12751838 5.57565 20.9874 7.70459 34 15.2734 3.32695 68.2676
12751844 5.57565 20.9874 7.70459 34 15.2734 3.32695 68.2676
12751855 5.59326 21.0069 7.76697 34 15.229 3.32766 68.3671
12751869 5.61969 20.9777 7.74618 34 15.2216 3.32485 68.3436
12751875 5.61969 20.9777 7.74618 34 15.2216 3.32485 68.3436
12751885 5.64611 20.9582 7.6526 34 15.2583 3.30697 68.257
12751896 5.64611 20.9582 7.6526 34 15.2583 3.30697 68.257
12751905 5.69896 20.8902 7.663 34 15.2113 3.31284 68.2521
12751924 5.77824 21.0069 7.73578 34 15.1388 3.27287 68.5209
12751925 5.77824 21.0069 7.73578 34 15.1388 3.27287 68.5209
12751935 5.79586 21.0847 7.68379 34 15.1701 3.23855 68.5643
12751952 5.8487 21.1236 7.75658 34 15.1022 3.22666 68.7289
12751955 5.8487 21.1236 7.75658 34 15.1022 3.22666 68.7289
12751980 5.79586 21.1236 7.6526 34 15.1939 3.22285 68.572
12751984 5.79586 21.1236 7.6526 34 15.1939 3.22285 68.572
12751986 5.76943 21.0944 7.60061 34 15.2358 3.22871 68.4644
12751996 5.83109 21.143 7.71498 34 15.1396 3.21904 68.6891
12752015 5.99845 21.2889 7.70459 34 15.0691 3.13455 68.9919
12752033 6.03368 21.3278 7.73578 34 15.0362 3.12045 69.0973
12752036 6.03368 21.3278 7.73578 34 15.0362 3.12045 69.0973
12752045 6.19223 21.4445 7.77737 34 14.9375 3.05571 69.4141
12752062 6.19223 21.4445 7.77737 34 14.9375 3.05571 69.4141
12752066 6.31554 21.4348 7.85015 34 14.8236 3.03873 69.6005
12752077 6.39482 21.3473 7.85015 34 14.7654 3.04087 69.5922
12752097 6.43886 21.2403 7.92294 34 14.6829 3.0697 69.6021
12752115 6.54456 21.1625 7.94373 34 14.5993 3.06602 69.6508
12752116 6.54456 21.1625 7.94373 34 14.5993 3.06602 69.6508
12752126 6.67668 21.0847 8.02691 34 14.4656 3.06618 69.7883
12752144 6.67668 21.0847 8.02691 34 14.4656 3.06618 69.7883
12752148 6.84404 21.0458 8.13089 34 14.3068 3.05076 70.0207
12752158 7.03782 20.9096 8.27645 34 14.0961 3.06072 70.2239
12752171 7.03782 20.9096 8.27645 34 14.0961 3.06072 70.2239
12752178 7.19637 20.6665 8.27645 34 13.9699 3.08249 70.1393
12752197 7.30207 20.3942 8.45321 34 13.7702 3.15547 70.1494
12752198 7.30207 20.3942 8.45321 34 13.7702 3.15547 70.1494
12752208 7.33731 20.0635 8.4948 34 13.6745 3.23926 69.8956
12752224 7.33731 20.0635 8.4948 34 13.6745 3.23926 69.8956
12752228 7.34611 19.8009 8.54679 34 13.5981 3.31445 69.6938
12752238 7.39896 19.6648 8.56758 34 13.5349 3.33985 69.6313
12752251 7.39896 19.6648 8.56758 34 13.5349 3.33985 69.6313
12752258 7.46943 19.6259 8.56758 34 13.4896 3.33154 69.6629
12752278 7.59275 19.6064 8.61957 34 13.3897 3.31295 69.8187
12752279 7.59275 19.6064 8.61957 34 13.3897 3.31295 69.8187
12752289 7.60155 19.655 8.57798 34 13.4158 3.29093 69.8346
12752304 7.66321 19.6356 8.54679 34 13.3958 3.27465 69.8456
12752309 7.66321 19.6356 8.54679 34 13.3958 3.27465 69.8456
12752319 7.69845 19.6356 8.55719 34 13.3708 3.26718 69.8912
12752331 7.69845 19.6356 8.55719 34 13.3708 3.26718 69.8912
12752339 7.88342 19.6064 8.59878 34 13.2419 3.23354 70.0886
12752356 8.11244 19.4897 8.73394 34 13.0244 3.22704 70.3361
12752359 8.11244 19.4897 8.73394 34 13.0244 3.22704 70.3361
12752370 8.44715 19.4703 8.86911 34 12.7687 3.16834 70.7865
12752390 8.7114 19.2952 8.99388 34 12.5316 3.16631 71.0005
12752410 8.82591 19.0521 9.13945 34 12.3514 3.22347 71.0174
12752412 8.82591 19.0521 9.13945 34 12.3514 3.22347 71.0174
12752420 8.79067 18.8089 9.11865 34 12.3375 3.29174 70.7183
12752440 8.85233 18.5172 9.24343 34 12.1867 3.37203 70.6129
12752441 8.85233 18.5172 9.24343 34 12.1867 3.37203 70.6129
12752450 9.00207 18.2254 9.3682 34 11.9891 3.42954 70.5957
12752477 9.40725 17.8947 9.58654 34 11.6031 3.44581 70.8885
12752480 9.74197 17.5738 9.69052 34 11.3164 3.45915 71.0063
12752500 9.74197 17.5738 9.69052 34 11.3164 3.45915 71.0063
12752501 9.91813 17.0875 9.85688 34 11.0469 3.56702 70.8625
12752510 9.90933 16.825 9.95046 34 10.9519 3.65342 70.6848
12752530 9.71554 16.3922 9.90887 34 10.9859 3.81362 70.0166
12752558 9.55699 15.9317 9.96086 34 10.9482 3.98968 69.4496
12752560 9.90933 15.7568 10.2416 34 10.5875 3.98572 69.9077
12752586 10.5788 15.6739 10.5119 34 10.098 3.87043 70.7646
12752590 11.3098 15.545 10.7615 34 9.59058 3.75054 71.6163
12752616 11.8471 15.4805 11.0526 34 9.18094 3.6733 72.3802
12752641 12.0409 15.4529 11.4477 34 8.89899 3.69212 72.9415
12752642 12.0057 15.3147 12.1235 34 8.57303 3.8403 73.444
12752669 11.715 15.1766 13.3297 34 8.12837 4.13049 74.2213
12752671 11.6093 15.1029 15.5235 34 7.20464 4.48831 76.2358
12752683 11.6093 15.1029 15.5235 34 7.20464 4.48831 76.2358
12752698 11.6622 14.8359 18.0926 34 6.06975 4.88504 78.5907
12752702 11.6622 14.8359 18.0926 34 6.06975 4.88504 78.5907
12752712 11.7679 14.4583 19.7365 34 5.30056 5.1606 79.9627
12752726 11.7238 14.0715 20.3272 34 4.99876 5.34154 80.1225
12752732 11.7238 14.0715 20.3272 34 4.99876 5.34154 80.1225
12752742 11.3803 13.8689 20.7701 34 4.91083 5.53383 80.0193
12752753 11.2394 13.7031 21.9218 34 4.49578 5.74653 80.8643
12752762 11.2394 13.7031 21.9218 34 4.49578 5.74653 80.8643
12752779 11.1865 13.6387 23.7331 34 3.85155 5.97902 82.5583
12752782 11.1865 13.6387 23.7331 34 3.85155 5.97902 82.5583
12752792 11.4244 13.6203 25.7313 32.1003 2.58363 5.93421 82.8762
12752806 11.6446 13.6479 28.084 30.1713 1.22406 5.91809 83.5478
12752823 11.9705 13.5742 30.4071 28.2521 -0.163639 5.89899 84.2039
12752833 12.1202 13.4269 32.7892 26.2063 -1.56024 5.93461 84.5426
12752843 12.1202 13.4269 32.7892 26.2063 -1.56024 5.93461 84.5426
12752860 12.3933 13.5558 34 23.839 -2.6849 5.70903 83.788
12752873 12.6311 13.6295 34 21.4716 -3.52676 5.361 81.7322
12752887 13.0098 13.6203 34 19.2115 -4.43946 4.99389 79.8416
12752893 13.0098 13.6203 34 19.2115 -4.43946 4.99389 79.8416
12752903 13.4679 13.4177 34 17.263 -5.37028 4.67907 78.1486
12752913 13.9964 13.0493 34 15.6198 -6.30246 4.41675 76.6655
12752923 13.9964 13.0493 34 15.6198 -6.30246 4.41675 76.6655
12752941 14.3751 12.6625 34 14.2492 -7.12723 4.22614 75.2868
12752943 14.3751 12.6625 34 14.2492 -7.12723 4.22614 75.2868
12752953 14.6658 12.2481 34 13.1641 -7.84769 4.10044 74.078
12752970 14.9212 11.9074 34 12.2788 -8.45846 3.99075 73.1075
12752973 14.9212 11.9074 34 12.2788 -8.45846 3.99075 73.1075
12752983 15.0798 11.5666 34 11.6601 -8.93869 3.9444 72.3066
12752999 15.0534 11.0417 34 11.1937 -9.40467 4.01858 71.2888
12753004 15.0534 11.0417 34 11.1937 -9.40467 4.01858 71.2888
12753014 14.9212 10.5352 34 10.8606 -9.7862 4.13928 70.317
12753025 14.9212 10.5352 34 10.8606 -9.7862 4.13928 70.317
12753034 14.7803 9.90899 34 10.6892 -10.1552 4.32409 69.3786
12753051 14.5689 9.4117 34 10.6417 -10.3886 4.51625 68.6223
12753064 14.3311 9.06176 34 10.5845 -10.5494 4.67619 67.9774
12753083 14.0668 8.75785 34 10.5655 -10.6631 4.83917 67.3902
12753094 13.8466 8.44475 34 10.4323 -10.8543 4.97744 66.7236
12753117 13.7321 8.20531 34 10.3656 -10.9954 5.07402 66.3031
12753124 13.7145 7.93824 34 10.299 -11.1738 5.15064 65.9517
12753145 13.6793 7.63434 34 10.3371 -11.3129 5.26044 65.6507
12753155 13.6 7.43174 34 10.3275 -11.4141 5.3464 65.3593
12753176 13.4855 7.2844 34 10.3847 -11.4407 5.43664 65.1545
12753185 13.4855 7.2844 34 10.3847 -11.4407 5.43664 65.1545
12753208 13.415 7.12784 34 10.4608 -11.471 5.51921 65.0037
12753209 13.3886 7.14626 34 10.5084 -11.4285 5.52868 65.0433
12753216 13.3886 7.14626 34 10.5084 -11.4285 5.52868 65.0433
12753240 13.3269 7.10943 34 10.6321 -11.367 5.57776 65.0685
12753240 13.1684 7.01733 34 10.6226 -11.3907 5.65596 64.8083
12753246 13.1684 7.01733 34 10.6226 -11.3907 5.65596 64.8083
12753273 13.2565 6.9805 34 10.6131 -11.4352 5.63826 64.8501
12753274 13.2565 6.9805 34 10.6131 -11.4352 5.63826 64.8501
12753276 13.1332 7.02654 34 10.6417 -11.3674 5.667 64.8014
12753287 13.1332 7.11863 34 10.6131 -11.3318 5.63355 64.8649
12753305 13.1332 7.11863 34 10.6131 -11.3318 5.63355 64.8649
12753307 13.0363 7.16468 34 10.6702 -11.2536 5.65797 64.8712
12753317 12.8777 7.22914 34 10.7844 -11.1202 5.70436 64.8913
12753332 12.8777 7.22914 34 10.7844 -11.1202 5.70436 64.8913
12753337 12.7544 7.24756 34 10.8225 -11.0623 5.74333 64.8245
12753346 12.7544 7.24756 34 10.8225 -11.0623 5.74333 64.8245
12753360 12.5254 7.06338 34 10.7464 -11.1586 5.8656 64.3351
12753367 12.4725 7.05417 34 10.7368 -11.1578 5.88439 64.2635
12753377 12.4725 7.05417 34 10.7368 -11.1578 5.88439 64.2635
12753393 12.4285 7.01733 34 10.6892 -11.1959 5.90397 64.1351
12753397 12.4285 7.01733 34 10.6892 -11.1959 5.90397 64.1351
12753407 12.4109 6.8792 34 10.6797 -11.2756 5.95351 63.9698
12753426 12.3668 6.86078 34 10.6892 -11.2712 5.97533 63.9169
12753428 12.3668 6.86078 34 10.6892 -11.2712 5.97533 63.9169
12753438 12.5254 6.73185 34 10.6607 -11.3946 5.96158 63.9179
12753455 12.6487 6.63976 34 10.6226 -11.495 5.94595 63.9111
12753468 12.9306 6.52925 34 10.4132 -11.7374 5.86008 63.873
12753481 13.3269 6.58451 34 10.2419 -11.8858 5.68882 64.1533
12753488 13.3269 6.58451 34 10.2419 -11.8858 5.68882 64.1533
12753498 14.0404 6.5753 34 10.0705 -12.1334 5.43891 64.6863
12753512 14.0404 6.5753 34 10.0705 -12.1334 5.43891 64.6863
12753518 14.7891 6.5753 34 9.89922 -12.3785 5.17933 65.2636
12753528 15.344 6.63976 34 9.87066 -12.4645 4.98528 65.8545
12753549 15.6347 6.80553 34 9.94681 -12.3828 4.85936 66.387
12753559 15.7845 6.8792 34 9.9944 -12.3432 4.80004 66.6581
12753573 15.7845 6.8792 34 9.9944 -12.3432 4.80004 66.6581
12753579 15.8021 6.97129 34 10.0515 -12.2631 4.77625 66.8249
12753601 15.7756 7.02654 34 10.0801 -12.2114 4.77209 66.8823
12753609 15.7756 7.09101 34 9.97536 -12.2338 4.737 66.842
12753629 15.7756 7.09101 34 9.97536 -12.2338 4.737 66.842
12753631 15.7845 7.12784 34 10.0134 -12.1938 4.72938 66.9257
12753640 15.8021 7.13705 34 9.95633 -12.2238 4.7127 66.8955
12753661 15.8285 7.12784 34 9.89922 -12.2658 4.69883 66.8556
12753670 15.8285 7.12784 34 9.89922 -12.2658 4.69883 66.8556
12753687 15.8461 7.00813 34 9.83259 -12.3733 4.7187 66.6868
12753691 15.9166 7.09101 34 9.8897 -12.3084 4.68228 66.8973
12753700 15.9166 7.09101 34 9.8897 -12.3084 4.68228 66.8973
12753715 15.8461 7.16468 34 9.86114 -12.2698 4.67693 66.8719
12753720 15.8109 7.15547 34 9.93729 -12.2258 4.70175 66.9036
12753743 15.8109 7.15547 34 9.93729 -12.2258 4.70175 66.9036
12753745 15.7756 7.24756 34 9.8897 -12.1944 4.67768 66.9129
12753752 15.7756 7.24756 34 9.8897 -12.1944 4.67768 66.9129
12753770 15.8725 7.20152 34 9.94681 -12.2067 4.67155 67.0209
12753772 15.943 7.22914 34 9.90873 -12.226 4.63692 67.0809
12753796 16.1104 7.15547 34 9.85162 -12.3303 4.60069 67.1175
12753801 16.3041 7.11863 34 9.76596 -12.435 4.54165 67.1887
12753824 16.5772 7.05417 34 9.61366 -12.6066 4.45735 67.245
12753833 16.5772 7.05417 34 9.61366 -12.6066 4.45735 67.245
12753852 16.7005 6.91603 34 9.60414 -12.712 4.46014 67.2207
12753853 16.9472 6.75027 34 9.47088 -12.925 4.4158 67.1683
12753885 16.9472 6.75027 34 9.47088 -12.925 4.4158 67.1683
12753886 16.9824 6.66739 34 9.40425 -13.0159 4.41908 67.054
12753896 17.1495 6.71343 34 9.42329 -13.0089 4.36056 67.2862
12753898 17.1495 6.71343 34 9.42329 -13.0089 4.36056 67.2862
12753917 17.2192 6.71343 34 9.46137 -12.9998 4.34654 67.394
12753919 17.2392 6.86999 34 9.4804 -12.9046 4.29902 67.5895
12753924 17.2392 6.86999 34 9.4804 -12.9046 4.29902 67.5895
12753934 17.1495 6.9805 34 9.56607 -12.7788 4.30663 67.696
12753947 17.1495 6.9805 34 9.56607 -12.7788 4.30663 67.696
12753955 17.0299 7.03575 34 9.53751 -12.7422 4.32048 67.6032
12753974 16.9824 7.0818 34 9.66125 -12.639 4.34041 67.7254
12753975 16.9824 7.0818 34 9.66125 -12.639 4.34041 67.7254
12753985 16.8679 7.16468 34 9.64222 -12.5826 4.34645 67.6748
12754003 16.7798 7.16468 34 9.66125 -12.5558 4.37465 67.6057
12754005 16.7798 7.16468 34 9.66125 -12.5558 4.37465 67.6057
12754015 16.7358 7.15547 34 9.69933 -12.5317 4.3959 67.5906
12754030 16.7358 7.15547 34 9.69933 -12.5317 4.3959 67.5906
12754035 16.6124 7.29361 34 9.79451 -12.3796 4.40657 67.7006
12754058 16.4979 7.37649 34 9.82307 -12.2968 4.4201 67.6975
12754065 16.3658 7.50542 34 9.91825 -12.1487 4.43587 67.7895
12754075 16.128 7.56067 34 9.98488 -12.0366 4.49871 67.6735
12754096 15.987 7.68039 34 10.1277 -11.8663 4.52693 67.7951
12754109 15.987 7.68039 34 10.1277 -11.8663 4.52693 67.7951
12754116 15.714 7.70802 34 10.2038 -11.7567 4.60959 67.6258
12754126 15.4674 7.69881 34 10.2895 -11.6666 4.69715 67.4556
12754136 15.4674 7.69881 34 10.2895 -11.6666 4.69715 67.4556
12754146 15.2383 7.67118 34 10.3847 -11.5844 4.78685 67.2942
12754161 14.9917 7.73564 34 10.3847 -11.5 4.84056 67.112
12754166 14.9917 7.73564 34 10.3847 -11.5 4.84056 67.112
12754176 14.6922 7.74485 34 10.3847 -11.4344 4.92675 66.8217
12754198 14.4368 7.60672 34 10.3751 -11.4632 5.04338 66.4186
12754211 14.4016 7.47779 34 10.2704 -11.5848 5.07736 66.1498
12754218 14.4016 7.47779 34 10.2704 -11.5848 5.07736 66.1498
12754228 14.243 7.10022 34 10.0991 -11.8592 5.21586 65.4423
12754247 14.0668 6.76869 34 9.94681 -12.0987 5.35129 64.7823
12754258 14.058 6.44637 34 9.8897 -12.3156 5.44738 64.3941
12754279 14.0052 6.11484 34 9.87066 -12.5095 5.56736 63.9907
12754289 13.9611 6.20693 34 9.96585 -12.3914 5.56596 64.1339
12754310 13.9611 6.20693 34 9.96585 -12.3914 5.56596 64.1339
12754311 13.9611 6.46479 34 10.0134 -12.2142 5.49063 64.4394
12754319 14.0845 6.84236 34 10.1467 -11.9463 5.35238 65.0735
12754339 14.0845 6.84236 34 10.1467 -11.9463 5.35238 65.0735
12754340 14.058 7.09101 34 10.2038 -11.7681 5.29161 65.3528
12754349 14.058 7.09101 34 10.2038 -11.7681 5.29161 65.3528
12754366 14.058 7.24756 34 10.2324 -11.6643 5.24736 65.538
12754369 13.9611 7.30282 34 10.299 -11.5764 5.27014 65.5629
12754380 13.9611 7.30282 34 10.299 -11.5764 5.27014 65.5629
12754395 13.8026 7.47779 34 10.3371 -11.4252 5.27071 65.6174
12754401 13.7409 7.80011 34 10.5084 -11.1403 5.21595 66.0494
12754410 13.7409 7.80011 34 10.5084 -11.1403 5.21595 66.0494
12754426 13.6352 8.22373 34 10.556 -10.8618 5.12619 66.4149
12754430 13.4679 8.7026 34 10.6321 -10.5285 5.04359 66.8026
12754454 13.3534 9.07096 34 10.7368 -10.2535 4.98335 67.1612
12754460 13.3534 9.07096 34 10.7368 -10.2535 4.98335 67.1612
12754481 13.186 9.35645 34 10.794 -10.0375 4.95679 67.3364
12754482 13.0539 9.58667 34 10.9082 -9.82958 4.94479 67.5487
12754492 13.0539 9.58667 34 10.9082 -9.82958 4.94479 67.5487
12754512 12.8689 9.85374 34 10.8987 -9.65543 4.91916 67.6213
12754516 12.6927 10.2037 34 10.9558 -9.40769 4.87663 67.8522
12754526 12.6927 10.2037 34 10.9558 -9.40769 4.87663 67.8522
12754542 12.5694 10.5444 34 11.089 -9.14037 4.83305 68.2029
12754544 12.5694 10.5444 34 11.089 -9.14037 4.83305 68.2029
12754552 12.4021 10.8023 34 11.2223 -8.90644 4.82661 68.4266
12754571 12.3756 11.1154 34 11.3651 -8.67578 4.76516 68.8561
12754574 12.3756 11.1154 34 11.3651 -8.67578 4.76516 68.8561
12754582 12.3228 11.3088 34 11.6792 -8.41675 4.77147 69.3107
12754601 12.3316 11.4653 34 12.2408 -8.07619 4.8068 70.0377
12754602 12.3316 11.4653 34 12.2408 -8.07619 4.8068 70.0377
12754612 12.4902 11.8153 34 13.4877 -7.37786 4.84355 71.7931
12754633 12.6487 12.331 34 15.5437 -6.29804 4.94422 74.5234
12754643 12.7104 12.8835 34 18.247 -5.00375 5.13607 77.8409
12754662 12.7104 12.8835 34 18.247 -5.00375 5.13607 77.8409
12754663 12.6927 13.2611 34 20.7897 -3.91423 5.35693 80.7435
12754673 12.4549 13.4453 34 22.6115 -3.15052 5.58307 82.5117
12754689 12.4549 13.4453 34 22.6115 -3.15052 5.58307 82.5117
12754694 12.2611 13.5742 34 23.839 -2.64357 5.73717 83.6743
12754716 12.1819 13.6939 33.8622 25.3393 -2.06015 5.87566 85.0772
12754724 12.1731 13.9242 30.3874 27.3559 -0.381798 5.66183 83.8405
12754744 12.1114 14.5504 27.0208 29.7817 1.55749 5.41682 83.4643
12754754 11.9969 15.1674 23.861 32.2659 3.47437 5.21591 83.2912
12754774 11.9088 15.8857 21.0851 34 5.09527 4.9392 82.8796
12754784 11.9088 15.8857 21.0851 34 5.09527 4.9392 82.8796
12754804 11.6886 16.4659 18.5553 34 6.2638 4.53492 80.7098
12754806 11.4332 16.9724 16.3138 34 7.37604 4.17462 78.7193
12754814 11.4332 16.9724 16.3138 34 7.37604 4.17462 78.7193
12754833 11.1249 17.1848 14.2862 34 8.41223 3.91208 76.5959
12754834 10.7197 17.3793 12.5914 34 9.39484 3.71382 74.6904
12754860 10.2793 17.5349 11.1982 34 10.2919 3.57145 73.0123
12754865 10.2793 17.5349 11.1982 34 10.2919 3.57145 73.0123
12754876 9.83886 17.5738 10.1168 34 11.0507 3.50293 71.5295
12754887 9.29275 17.6224 9.42018 34 11.6973 3.51992 70.3354
12754896 9.29275 17.6224 9.42018 34 11.6973 3.51992 70.3354
12754905 8.76425 17.6516 8.9419 34 12.2356 3.57409 69.3577
12754917 8.20052 17.7878 8.61957 34 12.7419 3.63616 68.6078
12754927 8.20052 17.7878 8.61957 34 12.7419 3.63616 68.6078
12754941 7.70725 17.8656 8.29725 34 13.2095 3.69628 67.8701
12754947 7.15233 17.8656 7.97492 34 13.7098 3.79676 66.9928
12754956 7.15233 18.1768 7.97492 34 13.762 3.70984 67.304
12754969 6.77358 18.7019 7.80856 34 14.1638 3.64121 67.2841
12754998 6.36839 19.3633 7.46544 34 14.7065 3.51215 67.1971
12754999 6.11295 19.976 7.33028 34 15.0301 3.39103 67.4192
12755008 6.11295 19.976 7.33028 34 15.0301 3.39103 67.4192
12755025 5.8399 20.4136 7.33028 34 15.2564 3.34624 67.5838
12755027 5.8399 20.4136 7.33028 34 15.2564 3.34624 67.5838
12755037 5.68135 20.7054 7.07034 34 15.5483 3.2651 67.4571
12755054 5.40829 20.9971 6.95596 34 15.8224 3.24011 67.3614
12755056 5.40829 20.9971 6.95596 34 15.8224 3.24011 67.3614
12755067 5.23212 21.3278 6.8 34 16.0688 3.17104 67.3599
12755081 5.08238 21.6974 6.67523 34 16.2848 3.08994 67.455
12755098 5.01192 22.1058 6.63364 34 16.4057 2.99239 67.7514
12755114 5.01192 22.1058 6.63364 34 16.4057 2.99239 67.7514
12755136 4.87979 22.5435 6.60245 34 16.5604 2.90607 68.0257
12755148 4.75648 22.6407 6.59205 34 16.6542 2.91109 67.9893
12755163 4.73005 22.6407 6.58165 34 16.6767 2.9162 67.9524
12755170 4.73005 22.6407 6.58165 34 16.6767 2.9162 67.9524
12755191 4.68601 22.738 6.60245 34 16.7029 2.90588 68.0264
12755192 4.71244 22.9617 6.56086 34 16.7394 2.83288 68.235
12755199 4.71244 22.9617 6.56086 34 16.7394 2.83288 68.235
12755223 4.64197 23.1465 6.55046 34 16.8111 2.8012 68.3389
12755224 4.64197 23.1465 6.55046 34 16.8111 2.8012 68.3389
12755229 4.50104 23.3993 6.42569 34 17.004 2.74976 68.326
12755239 4.52746 23.4771 6.32171 34 17.0608 2.70404 68.3263
12755254 4.52746 23.4771 6.32171 34 17.0608 2.70404 68.3263
12755259 4.42176 23.516 6.23853 34 17.1818 2.70638 68.1763
12755269 4.41295 23.623 6.16575 34 17.2445 2.66778 68.2017
12755290 4.44819 23.8175 6.19694 34 17.2256 2.61411 68.4626
12755311 4.44819 23.8175 6.19694 34 17.2256 2.61411 68.4626
12755313 4.52746 24.0023 6.21774 34 17.185 2.5502 68.7475
12755320 4.65959 24.2162 6.30092 34 17.0779 2.47737 69.1768
12755340 4.73005 24.2941 6.34251 34 17.0188 2.44752 69.3666
12755350 4.90622 24.2941 6.41529 34 16.8686 2.41649 69.6156
12755369 4.90622 24.2941 6.41529 34 16.8686 2.41649 69.6156
12755370 4.8886 24.1968 6.49847 34 16.8177 2.46028 69.5839
12755401 4.83575 24.1093 6.35291 34 16.9271 2.46931 69.2979
12755403 4.90622 24.0704 6.3737 34 16.8674 2.46512 69.3503
12755412 4.90622 24.0704 6.3737 34 16.8674 2.46512 69.3503
12755434 4.96788 24.1676 6.3737 34 16.8417 2.42519 69.5092
12755435 4.94145 24.3038 6.3633 34 16.8798 2.39584 69.6085
12755443 4.94145 24.3038 6.3633 34 16.8798 2.39584 69.6085
12755464 4.9943 24.5372 6.31132 34 16.9064 2.31516 69.8428
12755465 4.9943 24.5372 6.31132 34 16.9064 2.31516 69.8428
12755473 5.04715 24.7317 6.33211 34 16.8848 2.25784 70.111
12755492 5.12642 24.9651 6.35291 34 16.8522 2.18499 70.4444
12755494 5.12642 24.9651 6.35291 34 16.8522 2.18499 70.4444
12755503 5.12642 25.0818 6.31132 34 16.8904 2.149 70.5195
12755520 5.21451 25.2374 6.3737 34 16.8192 2.10131 70.8256
12755524 5.21451 25.2374 6.3737 34 16.8192 2.10131 70.8256
12755534 5.36425 25.3444 6.3945 34 16.7312 2.04334 71.1031
12755548 5.44352 25.2277 6.41529 34 16.6589 2.0561 71.0865
12755564 5.48756 25.1402 6.46728 34 16.5923 2.076 71.095
12755577 5.48756 25.1402 6.46728 34 16.5923 2.076 71.095
12755584 5.55803 24.9554 6.50887 34 16.5048 2.11105 71.0223
12755606 5.61088 24.8484 6.52966 34 16.449 2.12788 70.9889
12755607 5.61088 24.8484 6.52966 34 16.449 2.12788 70.9889
12755614 5.67254 24.6539 6.55046 34 16.3773 2.16376 70.8769
12755636 5.70777 24.6344 6.67523 34 16.2817 2.1825 71.0174
12755638 5.70777 24.6344 6.67523 34 16.2817 2.1825 71.0174
12755645 5.78705 24.4594 6.68563 34 16.208 2.20758 70.9321
12755664 5.78705 24.4594 6.68563 34 16.208 2.20758 70.9321
12755665 5.91917 24.401 6.70642 34 16.1121 2.19345 71.0266
12755675 5.9544 24.5177 6.70642 34 16.1063 2.15675 71.1786
12755698 5.97202 24.4983 6.72722 34 16.0817 2.16094 71.1975
12755705 6.04249 24.4886 6.8 34 15.998 2.15943 71.331
12755718 6.04249 24.4886 6.8 34 15.998 2.15943 71.331
12755727 6.20104 24.4788 6.7896 34 15.9118 2.12183 71.4695
12755750 6.23627 24.3719 6.90398 34 15.8126 2.1596 71.5121
12755757 6.46528 24.3038 6.95596 34 15.644 2.13041 71.725
12755794 6.64145 24.1773 7.08073 34 15.4574 2.14089 71.8995
12755794 6.79119 24.0509 7.10153 34 15.3447 2.13905 71.9436
12755796 6.79119 24.0509 7.10153 34 15.3447 2.13905 71.9436
12755824 6.87927 24.0509 7.19511 34 15.2431 2.13481 72.1253
12755828 6.93212 23.9828 7.16391 34 15.2218 2.13286 72.0789
12755839 7.02902 23.8953 7.27829 34 15.0923 2.15102 72.2026
12755850 7.02902 23.8953 7.27829 34 15.0923 2.15102 72.2026
12755859 7.05544 23.8759 7.26789 34 15.0807 2.14752 72.1992
12755877 7.14352 23.7786 7.31988 34 14.9896 2.15894 72.242
12755879 7.14352 23.7786 7.31988 34 14.9896 2.15894 72.242
12755889 7.21399 23.7105 7.31988 34 14.9412 2.15837 72.2444
12755905 7.20518 23.7105 7.35107 34 14.9288 2.16601 72.2668
12755909 7.20518 23.6522 7.35107 34 14.9207 2.17988 72.2084
12755919 7.34611 23.5938 7.40306 34 14.8061 2.16948 72.343
12755939 7.26684 23.6035 7.43425 34 14.8339 2.19153 72.3046
12755956 7.34611 23.7008 7.47584 34 14.7812 2.15703 72.5228
12755970 7.48705 23.6424 7.46544 34 14.7014 2.13567 72.5949
12755992 7.60155 23.6133 7.49664 34 14.6177 2.12108 72.7115
12755995 7.60155 23.6133 7.49664 34 14.6177 2.12108 72.7115
12756000 7.78653 23.6035 7.55902 34 14.482 2.09097 72.9491
12756020 7.78653 23.6035 7.55902 34 14.482 2.09097 72.9491
12756021 7.87461 23.4674 7.59021 34 14.3978 2.10775 72.9322
12756030 8.01554 23.4868 7.54862 34 14.3471 2.06285 73.051
12756045 8.01554 23.4868 7.54862 34 14.3471 2.06285 73.051
12756050 8.05959 23.4479 7.6318 34 14.2729 2.07637 73.1393
12756062 8.13886 23.3604 7.6422 34 14.212 2.08013 73.1415
12756074 8.13886 23.3604 7.6422 34 14.212 2.08013 73.1415
12756081 8.23575 23.2826 7.82936 34 14.0487 2.10865 73.3477
12756103 8.27979 23.0006 7.85015 34 13.9718 2.168 73.1305
12756112 8.42073 22.8158 8.00612 34 13.786 2.2056 73.2426
12756134 8.56166 22.5532 7.98532 34 13.682 2.23059 73.1002
12756145 8.52642 22.3101 8.01651 34 13.6464 2.3019 72.853
12756166 8.5 21.9502 8.0789 34 13.5709 2.40497 72.5291
12756173 8.5 21.9502 8.0789 34 13.5709 2.40497 72.5291
12756183 8.56166 21.8238 8.0893 34 13.5126 2.42233 72.4748
12756196 8.7114 21.5807 8.21407 34 13.3283 2.46641 72.5061
12756203 8.7114 21.5807 8.21407 34 13.3283 2.46641 72.5061
12756213 8.88756 21.4348 8.29725 34 13.1679 2.47348 72.6196
12756224 9.01088 21.2111 8.37003 34 13.0284 2.5102 72.592
12756233 9.01088 21.2111 8.37003 34 13.0284 2.5102 72.592
12756251 9.07254 20.9193 8.5052 34 12.8769 2.58907 72.4971
12756254 9.07254 20.9193 8.5052 34 12.8769 2.58907 72.4971
12756264 9.09016 20.5011 8.46361 34 12.8192 2.67969 72.0549
12756278 9.10777 20.0732 8.46361 34 12.7371 2.78094 71.6446
12756284 9.10777 20.0732 8.46361 34 12.7371 2.78094 71.6446
12756294 9.17824 19.7328 8.61957 34 12.5593 2.87468 71.5306
12756307 9.33679 19.373 8.68196 34 12.3804 2.93567 71.3917
12756314 9.33679 19.373 8.68196 34 12.3804 2.93567 71.3917
12756334 9.40725 19.0521 8.71315 34 12.2701 3.00408 71.1725
12756335 9.40725 19.0521 8.71315 34 12.2701 3.00408 71.1725
12756344 9.55699 18.5852 8.9315 34 11.9934 3.12125 71.0737
12756366 9.70674 18.1573 9.00428 34 11.7987 3.20458 70.8683
12756374 9.78601 17.7294 9.09786 34 11.6287 3.31009 70.6133
12756396 9.73316 17.4182 9.14985 34 11.5699 3.41356 70.3012
12756399 9.73316 17.4182 9.14985 34 11.5699 3.41356 70.3012
12756404 9.83886 17.1459 9.24343 34 11.4141 3.47268 70.2282
12756427 9.83886 17.1459 9.24343 34 11.4141 3.47268 70.2282
12756428 10.0326 16.8434 9.45138 34 11.1476 3.53531 70.3275
12756455 10.3409 16.7882 9.55535 34 10.926 3.48582 70.6845
12756457 10.3409 16.7882 9.55535 34 10.926 3.48582 70.6845
12756465 10.5964 16.6132 9.58654 34 10.7458 3.46988 70.7961
12756484 10.5964 16.6132 9.58654 34 10.7458 3.46988 70.7961
12756485 10.5435 16.7145 9.64893 34 10.7613 3.46741 70.907
12756496 10.5435 16.7145 9.64893 34 10.7613 3.46741 70.907
12756517 10.3145 16.5027 9.58654 34 10.8665 3.57282 70.4038
12756529 10.2088 16.3369 9.69052 34 10.834 3.66152 70.2363
12756530 10.2088 16.3369 9.69052 34 10.834 3.66152 70.2363
12756550 10.7902 16.2449 10.044 34 10.3444 3.58946 71.079
12756552 11.6269 16.2725 10.3248 34 9.80307 3.41132 72.2242
12756566 12.4725 16.1251 10.5951 34 9.24186 3.27849 73.1928
12756582 12.4725 16.1251 10.5951 34 9.24186 3.27849 73.1928
12756587 12.8953 16.0054 10.855 34 8.89931 3.24469 73.7558
12756596 13.0539 15.7844 11.1878 34 8.62627 3.31292 74.0261
12756610 13.0539 15.7844 11.1878 34 8.62627 3.31292 74.0261
12756619 12.9922 15.3608 11.6141 34 8.36672 3.50042 73.9671
12756636 12.6487 14.9556 12.5706 34 8.00009 3.83546 74.1749
12756637 12.6487 14.9556 12.5706 34 8.00009 3.83546 74.1749
12756647 12.6223 14.5135 14.7957 34 6.94558 4.27883 75.9315
12756661 12.6223 14.5135 14.7957 34 6.94558 4.27883 75.9315
12756668 13.0539 14.2557 17.9942 34 5.42458 4.669 79.3038
12756687 13.5472 14.0347 20.2779 34 4.33961 4.8918 81.8598
12756698 13.2917 13.7308 21.3017 34 3.98953 5.15266 82.3242
12756716 12.7544 13.344 22.2565 34 3.74388 5.49296 82.3549
12756728 12.4285 12.9664 23.8315 34 3.21605 5.84609 83.2264
12756748 12.3933 12.5888 25.938 33.8052 2.37907 6.1542 84.7253
12756767 12.3668 12.1836 27.9855 32.3244 1.22426 6.32087 84.8604
12756768 12.3668 12.1836 27.9855 32.3244 1.22426 6.32087 84.8604
12756778 12.3933 11.8797 29.6589 31.0481 0.257611 6.43105 84.9801
12756794 12.1642 11.5114 31.0666 29.7232 -0.590849 6.59101 84.4654
12756809 12.0674 11.2167 32.3955 28.4762 -1.417 6.69966 84.1557
12756822 12.0674 11.2167 32.3955 28.4762 -1.417 6.69966 84.1557
12756829 12.0762 11.0693 33.6555 27.1221 -2.24617 6.72617 83.923
12756839 12.1114 11.1983 34 25.6315 -2.79765 6.56884 82.9412
12756854 12.1114 11.1983 34 25.6315 -2.79765 6.56884 82.9412
12756859 12.2876 11.4009 34 24.1117 -3.29307 6.31233 81.8002
12756885 12.3845 11.7692 34 22.514 -3.75032 6.01734 80.6677
12756889 12.358 12.3034 34 21.1501 -4.04219 5.73014 79.8115
12756899 12.358 12.3034 34 21.1501 -4.04219 5.73014 79.8115
12756917 12.2171 12.8099 34 19.6888 -4.35695 5.46178 78.7158
12756919 12.1378 13.2611 34 18.1203 -4.75894 5.1706 77.5193
12756930 12.1378 13.2611 34 18.1203 -4.75894 5.1706 77.5193
12756948 12.1114 13.4821 34 16.6288 -5.24797 4.92676 76.2223
12756950 12.0762 13.5374 34 15.4675 -5.68428 4.76565 75.0811
12756960 12.0762 13.5374 34 15.4675 -5.68428 4.76565 75.0811
12756977 11.8824 13.5834 34 14.5538 -5.99342 4.67875 74.0196
12756982 11.8824 13.5834 34 14.5538 -5.99342 4.67875 74.0196
12756990 11.7503 13.6387 34 13.9541 -6.18924 4.61499 73.343
12757005 11.486 13.6018 34 13.4306 -6.36169 4.62146 72.5184
12757011 11.486 13.6018 34 13.4306 -6.36169 4.62146 72.5184
12757021 11.3891 13.39 34 13.0118 -6.61202 4.64528 71.7909
12757032 11.2482 13.1782 34 12.8119 -6.75834 4.7135 71.2383
12757041 11.2482 13.1782 34 12.8119 -6.75834 4.7135 71.2383
12757058 11.1513 12.9204 34 12.6881 -6.90463 4.79435 70.7598
12757061 11.0896 12.6625 34 12.6786 -7.0099 4.88276 70.4308
12757087 11.0896 12.6625 34 12.6786 -7.0099 4.88276 70.4308
12757088 11.0192 12.3862 34 12.5739 -7.16605 4.96615 69.9793
12757094 11.0192 12.3862 34 12.5739 -7.16605 4.96615 69.9793
12757102 11.0544 12.2389 34 12.5834 -7.23849 4.99955 69.8767
12757115 10.9487 12.0547 34 12.5358 -7.31895 5.07607 69.5393
12757122 10.9487 12.0547 34 12.5358 -7.31895 5.07607 69.5393
12757144 10.7725 11.8245 34 12.4597 -7.41722 5.18328 69.0567
12757146 10.6316 11.8245 34 12.3264 -7.444 5.20561 68.7825
12757153 10.6316 11.4653 34 12.3264 -7.6143 5.31167 68.4234
12757173 10.6316 11.2351 34 12.3074 -7.73355 5.37756 68.1741
12757183 10.5171 10.922 34 12.2503 -7.88337 5.49817 67.6894
12757208 10.5523 10.7654 34 12.2979 -7.94528 5.54164 67.6156
12757209 10.5523 10.7654 34 12.2979 -7.94528 5.54164 67.6156
12757213 10.614 10.4892 34 12.1932 -8.14742 5.59243 67.2963
12757223 10.5699 10.305 34 12.1456 -8.25098 5.65588 67.0205
12757242 10.5699 10.305 34 12.1456 -8.25098 5.65588 67.0205
12757243 10.6933 10.0103 34 12.0218 -8.49045 5.6916 66.7254
12757270 10.8782 9.72481 34 11.8981 -8.74246 5.70555 66.5011
12757273 11.0808 9.54984 34 11.8981 -8.88071 5.69695 66.5288
12757283 11.0808 9.54984 34 11.8981 -8.88071 5.69695 66.5288
12757302 11.1953 9.31961 34 11.9267 -9.01132 5.737 66.4416
12757304 11.1601 9.31961 34 11.9267 -9.00284 5.748 66.4064
12757314 11.1601 9.06176 34 11.9362 -9.13048 5.8302 66.158
12757334 11.2218 8.78548 34 11.8219 -9.3478 5.8822 65.8292
12757335 11.2218 8.78548 34 11.8219 -9.3478 5.8822 65.8292
12757344 11.2922 8.50921 34 11.6792 -9.58446 5.92796 65.4806
12757365 11.4155 8.22373 34 11.584 -9.81545 5.96675 65.2233
12757366 11.4155 8.22373 34 11.584 -9.81545 5.96675 65.2233
12757374 11.7238 8.02113 34 11.4031 -10.0922 5.90766 65.1481
12757395 12.1642 7.91983 34 11.2508 -10.3289 5.77794 65.3349
12757405 12.4021 7.80011 34 11.2794 -10.4314 5.74449 65.4816
12757421 12.4021 7.80011 34 11.2794 -10.4314 5.74449 65.4816
12757424 12.3845 7.65276 34 11.2699 -10.5126 5.79554 65.3071
12757434 12.2964 7.45016 34 11.2032 -10.6401 5.87917 64.9498
12757449 12.2964 7.45016 34 11.2032 -10.6401 5.87917 64.9498
12757454 12.3404 7.33965 34 11.1176 -10.7578 5.88853 64.7977
12757464 12.3404 7.33965 34 11.1176 -10.7578 5.88853 64.7977
12757476 12.3052 7.0818 34 11.0605 -10.9248 5.97545 64.4474
12757484 12.3228 7.0818 34 11.0319 -10.9445 5.96571 64.4365
12757504 12.3228 7.0818 34 11.0319 -10.9445 5.96571 64.4365
12757505 12.5342 7.15547 34 10.8987 -11.0237 5.85454 64.5883
12757514 12.7104 7.21993 34 11.0034 -10.9678 5.79201 64.9337
12757532 12.7104 7.21993 34 11.0034 -10.9678 5.79201 64.9337
12757534 12.8425 7.31203 34 11.0034 -10.9454 5.72045 65.1579
12757544 12.8425 7.31203 34 11.0034 -10.9454 5.72045 65.1579
12757559 13.0363 7.3857 34 10.9367 -10.9832 5.62621 65.3587
12757565 13.3534 7.52384 34 10.7654 -11.0691 5.45869 65.6426
12757590 13.829 7.46858 34 10.6226 -11.278 5.30756 65.9202
12757595 14.4104 7.56988 34 10.4703 -11.4258 5.07672 66.4506
12757622 14.9389 7.73564 34 10.4703 -11.4428 4.86914 67.1448
12757625 14.9389 7.73564 34 10.4703 -11.4428 4.86914 67.1448
12757635 15.1238 7.75406 34 10.4608 -11.4752 4.80769 67.3387
12757655 15.2207 7.88299 34 10.5274 -11.3891 4.75159 67.6311
12757656 15.2207 7.88299 34 10.5274 -11.3891 4.75159 67.6311
12757665 15.3793 8.08559 34 10.5655 -11.2921 4.65247 68.0304
12757686 15.2207 8.15005 34 10.537 -11.2409 4.67535 67.9077
12757687 15.2207 8.15005 34 10.537 -11.2409 4.67535 67.9077
12757695 15.2031 8.22373 34 10.6036 -11.1626 4.66925 68.0304
12757714 15.2031 8.22373 34 10.6036 -11.1626 4.66925 68.0304
12757716 15.1326 8.30661 34 10.575 -11.1194 4.66132 68.0143
12757746 15.115 8.31582 34 10.6131 -11.0907 4.66954 68.0439
12757747 15.115 8.31582 34 10.6131 -11.0907 4.66954 68.0439
12757748 15.2119 8.35265 34 10.4132 -11.1971 4.60047 67.9778
12757757 15.4585 8.34344 34 10.318 -11.3025 4.51762 68.12
12757777 15.4585 8.34344 34 10.318 -11.3025 4.51762 68.12
12757778 15.6611 8.42633 34 10.2419 -11.3395 4.4244 68.3293
12757787 15.6611 8.42633 34 10.2419 -11.3395 4.4244 68.3293
12757805 16.0047 8.3987 34 10.1848 -11.4529 4.32613 68.5881
12757807 16.4275 8.5 34 10.023 -11.5679 4.15418 68.9504
12757819 16.4275 8.5 34 10.023 -11.5679 4.15418 68.9504
12757832 16.9295 8.61972 34 9.92777 -11.6521 3.9679 69.477
12757837 17.3089 8.72102 34 9.90873 -11.6814 3.83453 69.9387
12757848 17.3089 8.72102 34 9.90873 -11.6814 3.83453 69.9387
12757859 17.578 8.68418 34 9.82307 -11.7966 3.75848 70.0852
12757891 17.7075 8.69339 34 9.80403 -11.8261 3.71836 70.2049
12757892 17.837 8.85915 34 9.87066 -11.729 3.65068 70.5669
12757898 17.837 8.85915 34 9.87066 -11.729 3.65068 70.5669
12757922 17.9766 9.21831 34 9.91825 -11.545 3.52749 71.1131
12757923 18.0164 9.52221 34 10.0896 -11.31 3.46601 71.6282
