12057650 13.8202 17.6127 19.2837 13.8875 -0.62062 0.403601 64.6041
12057665 13.8202 17.6127 19.2837 13.8875 -0.62062 0.403601 64.6041
12057671 14.1197 16.7237 21.0162 12.9071 -2.12498 0.713296 64.7667
12057681 14.4104 15.7015 22.6109 11.8886 -3.64919 1.01861 64.6113
12057693 14.4104 15.7015 22.6109 11.8886 -3.64919 1.01861 64.6113
12057701 14.6482 14.6333 23.861 10.8891 -5.07047 1.2811 64.0316
12057711 14.8332 13.5098 24.9143 9.8897 -6.47222 1.53478 63.1469
12057721 14.8332 13.5098 24.9143 9.8897 -6.47222 1.53478 63.1469
12057732 14.9829 12.5428 25.8691 9.26148 -7.6001 1.82063 62.6563
12057741 14.9829 12.5428 25.8691 9.26148 -7.6001 1.82063 62.6563
12057751 15.1326 11.5114 26.8338 8.5 -8.85602 2.10312 61.9778
12057761 15.3088 10.5352 27.8182 7.96697 -9.98911 2.41958 61.6292
12057771 15.3088 10.5352 27.8182 7.96697 -9.98911 2.41958 61.6292
12057781 15.4497 9.73402 28.6746 7.5196 -10.9448 2.69081 61.3779
12057791 15.5466 8.84995 29.4424 7.11982 -11.9012 2.99357 60.9588
12057801 15.5466 8.84995 29.4424 7.11982 -11.9012 2.99357 60.9588
12057811 15.7845 8.26977 30.1413 6.8533 -12.6139 3.17951 61.0488
12057831 15.9166 7.78169 30.7122 6.67245 -13.1684 3.36094 61.0829
12057844 16.1544 7.44095 31.1847 6.56775 -13.5826 3.46152 61.3478
12057852 16.1544 7.44095 31.1847 6.56775 -13.5826 3.46152 61.3478
12057865 16.3306 7.29361 31.48 6.4916 -13.8099 3.49393 61.5958
12057872 16.4539 7.15547 31.9427 6.52016 -13.9841 3.5894 62.0722
12057885 16.4539 7.15547 31.9427 6.52016 -13.9841 3.5894 62.0722
12057892 16.5684 7.11863 32.4152 6.47256 -14.14 3.64381 62.5748
12057902 16.5684 7.11863 32.4152 6.47256 -14.14 3.64381 62.5748
12057912 16.5508 6.86999 32.8188 6.47256 -14.3621 3.79605 62.7121
12057922 16.5772 6.6766 33.1239 6.40594 -14.5813 3.8886 62.7837
12057932 16.5772 6.6766 33.1239 6.40594 -14.5813 3.8886 62.7837
12057950 16.4891 6.35428 33.242 6.30123 -14.8572 4.01525 62.3867
12057952 16.4098 6.09642 33.3897 6.22508 -15.0827 4.13109 62.121
12057962 16.4098 6.09642 33.3897 6.22508 -15.0827 4.13109 62.121
12057972 16.3306 5.9675 33.3799 6.20605 -15.1642 4.19038 61.884
12057993 16.3306 6.02275 33.3208 6.22508 -15.1066 4.16626 61.8992
12058003 16.313 6.14247 33.37 6.30123 -14.9852 4.15662 62.1267
12058014 16.313 6.14247 33.37 6.30123 -14.9852 4.15662 62.1267
12058024 16.2865 6.13326 33.5866 6.28219 -15.0339 4.20197 62.2886
12058034 16.2777 5.98592 33.7047 6.24412 -15.1707 4.26406 62.2124
12058045 16.2777 5.98592 33.7047 6.24412 -15.1707 4.26406 62.2124
12058055 16.3306 5.89382 33.7834 6.12038 -15.3311 4.26845 62.1282
12058064 16.3306 5.89382 33.7834 6.12038 -15.3311 4.26845 62.1282
12058075 16.3394 5.73727 33.6653 6.08231 -15.441 4.28739 61.8243
12058085 16.4891 5.64518 33.6752 6.07279 -15.532 4.26948 61.8822
12058096 16.4891 5.64518 33.6752 6.07279 -15.532 4.26948 61.8822
12058105 16.6036 5.60834 33.6555 6.05375 -15.5831 4.2386 61.9212
12058116 16.7269 5.68201 33.6948 6.05375 -15.5597 4.18444 62.1576
12058137 16.8943 5.79252 33.8523 6.10134 -15.5062 4.13475 62.6405
12058145 16.8943 5.79252 33.8523 6.10134 -15.5062 4.13475 62.6405
12058159 17.0698 5.83857 33.8917 6.12038 -15.4968 4.07748 62.9204
12058165 17.2392 5.8662 33.6555 6.12038 -15.4689 3.97666 62.8812
12058175 17.2392 5.8662 33.6555 6.12038 -15.4689 3.97666 62.8812
12058185 17.4484 5.79252 33.242 5.91097 -15.6213 3.82539 62.394
12058195 17.6876 5.77411 32.7302 5.79675 -15.6669 3.64549 61.9886
12058205 17.6876 5.77411 32.7302 5.79675 -15.6669 3.64549 61.9886
12058224 17.847 5.70043 32.3364 5.73012 -15.7241 3.53469 61.614
12058227 17.847 5.70043 32.3364 5.73012 -15.7241 3.53469 61.614
12058236 17.9367 5.73727 31.9624 5.66349 -15.7008 3.41401 61.2998
12058248 18.126 5.94908 31.8246 5.7206 -15.531 3.27896 61.6203
12058266 18.3552 6.05038 31.6671 5.74916 -15.4568 3.1568 61.8218
12058276 18.5047 6.17931 31.7064 5.73964 -15.4081 3.08113 62.1301
12058297 18.8036 6.18852 31.6474 5.68253 -15.476 2.96951 62.322
12058308 19.0229 6.22535 31.3619 5.65398 -15.4605 2.83494 62.2641
12058317 19.0229 6.22535 31.3619 5.65398 -15.4605 2.83494 62.2641
12058327 19.1624 6.26219 31.1257 5.56831 -15.4775 2.72127 62.1185
12058337 19.1624 6.26219 31.1257 5.56831 -15.4775 2.72127 62.1185
12058350 19.4115 6.23456 30.9189 5.57783 -15.4958 2.61914 62.1428
12058359 19.5909 6.52004 30.7516 5.60638 -15.294 2.46052 62.4689
12058367 19.5909 6.52004 30.7516 5.60638 -15.294 2.46052 62.4689
12058377 19.6606 6.74106 30.6728 5.65398 -15.1201 2.37336 62.7285
12058388 19.7304 6.74106 30.5055 5.70157 -15.0742 2.3299 62.6785
12058397 19.7304 6.83315 30.5055 5.70157 -15.0155 2.30448 62.7706
12058407 19.7104 6.89762 30.4464 5.7682 -14.9194 2.29374 62.8227
12058417 19.7104 6.89762 30.4464 5.7682 -14.9194 2.29374 62.8227
12058427 19.7603 7.04496 30.0625 5.69205 -14.8201 2.14579 62.5598
12058437 19.7603 7.10022 29.718 5.63494 -14.7649 2.04758 62.2134
12058452 19.7603 7.10022 29.718 5.63494 -14.7649 2.04758 62.2134
12058457 19.82 7.09101 29.4522 5.63494 -14.7368 1.97815 61.9982
12058467 19.82 7.09101 29.4522 5.63494 -14.7368 1.97815 61.9982
12058478 19.82 7.11863 29.1175 5.48264 -14.7615 1.86748 61.5389
12058487 20.0592 7.1831 28.9896 5.5112 -14.7201 1.76339 61.7431
12058497 20.0592 7.1831 28.9896 5.5112 -14.7201 1.76339 61.7431
12058507 20.2585 7.29361 28.6647 5.44457 -14.6709 1.59513 61.6614
12058517 20.4777 7.25677 28.3694 5.42553 -14.6941 1.47745 61.5295
12058527 20.4777 7.25677 28.3694 5.42553 -14.6941 1.47745 61.5295
12058537 20.6272 7.24756 28.3104 5.41601 -14.7213 1.42488 61.6011
12058547 20.6272 7.24756 28.3104 5.41601 -14.7213 1.42488 61.6011
12058559 20.6172 7.30282 28.3793 5.41601 -14.6956 1.42798 61.7153
12058567 20.697 7.34886 28.4383 5.45409 -14.6647 1.41591 61.9382
12058579 20.697 7.34886 28.4383 5.45409 -14.6647 1.41591 61.9382
12058587 20.7866 7.45016 28.2611 5.4065 -14.6157 1.31594 61.9044
12058597 20.8763 7.47779 28.271 5.45409 -14.5844 1.29777 62.0792
12058619 21.1553 7.57909 28.1332 5.42553 -14.5618 1.16167 62.2931
12058629 21.1553 7.57909 28.1332 5.42553 -14.5618 1.16167 62.2931
12058639 21.3247 7.66197 28.0643 5.33987 -14.5803 1.06204 62.3908
12058652 21.6237 7.66197 27.9757 5.31131 -14.6334 0.959206 62.5726
12058672 21.7732 7.63434 27.8083 5.29227 -14.66 0.886232 62.5081
12058679 21.7831 7.5883 27.5819 5.22564 -14.6959 0.828937 62.179
12058699 21.9326 7.61593 27.5032 5.24468 -14.6779 0.770354 62.2964
12058709 21.9326 7.61593 27.5032 5.24468 -14.6779 0.770354 62.2964
12058719 21.9924 7.5883 27.2965 5.1495 -14.732 0.692915 62.0266
12058729 22.1618 7.66197 27.1587 5.1495 -14.6901 0.599788 62.1319
12058738 22.1618 7.66197 27.1587 5.1495 -14.6901 0.599788 62.1319
12058750 22.2614 7.65276 26.9913 5.02576 -14.764 0.509325 61.9313
12058774 22.2714 7.59751 26.9421 5.1019 -14.7441 0.526974 61.9129
12058778 22.2714 7.59751 26.9421 5.1019 -14.7441 0.526974 61.9129
12058781 22.2913 7.5883 27.1193 5.09239 -14.7887 0.563375 62.0913
12058790 22.2913 7.5883 27.1193 5.09239 -14.7887 0.563375 62.0913
12058800 22.3511 7.47779 27.326 5.07335 -14.9152 0.619601 62.2283
12058810 22.3013 7.40412 27.3949 5.08287 -14.9595 0.668757 62.1832
12058820 22.3013 7.40412 27.3949 5.08287 -14.9595 0.668757 62.1832
12058830 22.3212 7.29361 27.5327 4.96865 -15.1296 0.697047 62.1162
12058840 22.3212 7.29361 27.5327 4.96865 -15.1296 0.697047 62.1162
12058850 22.4109 7.23835 27.5327 5.03527 -15.1365 0.703679 62.2172
12058862 22.5006 7.29361 27.6016 5.09239 -15.0893 0.696089 62.4882
12058883 22.5205 7.27519 27.641 4.98768 -15.1778 0.680737 62.4244
12058890 22.4607 7.26598 27.5918 5.03527 -15.1359 0.697716 62.3538
12058910 22.4508 7.21073 27.6213 4.9972 -15.1992 0.712191 62.28
12058923 22.4508 7.21073 27.5229 4.9972 -15.1836 0.689574 62.1816
12058930 22.4807 7.13705 27.5229 4.9972 -15.236 0.700629 62.1378
12058941 22.5404 7.10022 27.4737 5.02576 -15.243 0.690072 62.1401
12058951 22.5404 7.10022 27.4737 5.02576 -15.243 0.690072 62.1401
12058961 22.5703 7.19231 27.3555 4.9972 -15.188 0.62547 62.1154
12058974 22.7198 7.1831 27.326 4.96865 -15.2313 0.576809 62.1976
12058991 22.8195 7.20152 27.1783 4.91153 -15.2488 0.499645 62.1109
12059001 22.8195 7.20152 27.1783 4.91153 -15.2488 0.499645 62.1109
12059011 22.959 7.1831 27.0898 4.85442 -15.3058 0.435389 62.0862
12059021 22.9291 7.16468 27.0898 4.90202 -15.2822 0.458565 62.0855
12059031 22.9291 7.16468 27.0898 4.90202 -15.2822 0.458565 62.0855
12059041 23.0188 7.10943 27.1094 4.82587 -15.3846 0.43676 62.0635
12059051 22.9889 7.03575 27.0898 4.83539 -15.4187 0.460178 61.9498
12059061 22.9889 7.03575 27.0898 4.83539 -15.4187 0.460178 61.9498
12059071 23.1084 7.11863 27.0405 4.83539 -15.3756 0.398253 62.103
12059091 23.1882 7.16468 26.9224 4.82587 -15.3459 0.337055 62.1011
12059101 23.2978 7.19231 26.9126 4.81635 -15.3497 0.298664 62.219
12059111 23.2978 7.19231 26.9126 4.81635 -15.3497 0.298664 62.219
12059121 23.3077 7.15547 26.7649 4.81635 -15.3522 0.270302 62.0445
12059131 23.3177 7.1831 26.7551 4.79731 -15.3467 0.254195 62.0532
12059141 23.3177 7.1831 26.7551 4.79731 -15.3467 0.254195 62.0532
12059151 23.3476 7.32124 26.6173 4.81635 -15.2278 0.18472 62.1024
12059162 23.3476 7.32124 26.6173 4.81635 -15.2278 0.18472 62.1024
12059171 23.2778 7.33965 26.6074 4.8449 -15.1848 0.201745 62.0698
12059181 23.2679 7.56988 26.5877 4.93057 -14.9766 0.163706 62.3561
12059202 23.228 7.70802 26.3416 4.9972 -14.7991 0.0970209 62.2749
12059214 23.0487 7.84615 26.1743 5.02576 -14.6353 0.0737357 62.0949
12059222 23.0487 7.84615 26.1743 5.02576 -14.6353 0.0737357 62.0949
12059232 22.8992 7.84615 26.1349 5.05431 -14.5854 0.107508 61.9346
12059252 22.66 7.96587 26.0069 5.11142 -14.4101 0.119641 61.7443
12059262 22.5504 7.95666 25.9577 5.13998 -14.3704 0.143811 61.6048
12059272 22.5504 7.95666 25.9577 5.13998 -14.3704 0.143811 61.6048
12059284 22.3611 8.11322 26.0463 5.28275 -14.1624 0.20746 61.8034
12059295 22.1319 8.23294 26.1743 5.42553 -13.9788 0.298961 61.9646
12059304 22.1319 8.23294 26.1743 5.42553 -13.9788 0.298961 61.9646
12059314 21.9824 8.48158 26.2334 5.48264 -13.7711 0.302026 62.18
12059323 21.6835 8.48158 26.1152 5.59686 -13.6239 0.375028 61.8771
12059333 21.6835 8.57367 26.1152 5.59686 -13.5665 0.352178 61.9692
12059344 21.3845 8.71181 26.1152 5.70157 -13.36 0.416824 61.9131
12059354 21.3845 8.71181 26.1152 5.70157 -13.36 0.416824 61.9131
12059364 21.0457 8.65656 26.1152 5.68253 -13.3422 0.511093 61.5
12059373 20.7667 8.63814 26.1448 5.71109 -13.2884 0.600141 61.2607
12059384 20.7667 8.63814 26.1448 5.71109 -13.2884 0.600141 61.2607
12059396 20.398 8.78548 26.2137 5.93001 -13.0025 0.724032 61.3272
12059415 20.0791 9.13543 26.3712 6.20605 -12.5861 0.816286 61.7918
12059425 19.8001 9.56826 26.509 6.43449 -12.1591 0.860614 62.3118
12059436 19.8001 9.56826 26.509 6.43449 -12.1591 0.860614 62.3118
12059445 19.541 9.7156 26.4007 6.5963 -11.8988 0.901242 62.2536
12059455 19.3019 9.93662 26.2924 6.72956 -11.6158 0.911529 62.2605
12059477 18.9232 10.0287 26.1841 6.87234 -11.372 0.992902 62.0084
12059502 18.5645 10.1208 25.9184 7.08175 -11.0562 1.04923 61.6854
12059506 18.3253 10.4431 25.7116 7.5196 -10.5139 1.07971 61.9997
12059515 18.3253 10.4431 25.7116 7.5196 -10.5139 1.07971 61.9997
12059525 18.2157 10.8852 25.3868 7.96697 -9.90735 1.02144 62.4546
12059535 18.0662 11.318 24.9438 8.35722 -9.30636 0.937262 62.6853
12059559 17.9666 11.6311 24.4615 8.73796 -8.78186 0.860335 62.7971
12059566 17.9666 11.6311 24.4615 8.73796 -8.78186 0.860335 62.7971
12059580 17.6876 11.7969 23.8709 9.06159 -8.29102 0.828631 62.4169
12059586 17.4185 12.0547 23.1129 9.53751 -7.62158 0.767146 62.1237
12059601 17.4185 12.0547 23.1129 9.53751 -7.62158 0.767146 62.1237
12059607 16.9472 12.3034 22.3156 10.1943 -6.78634 0.791613 61.7604
12059617 16.7093 12.6625 21.5576 11.0795 -5.85598 0.789873 62.009
12059627 16.7093 12.6625 21.5576 11.0795 -5.85598 0.789873 62.009
12059637 16.3041 13.0953 20.6815 12.1551 -4.714 0.828411 62.2361
12059647 15.987 13.5466 19.6283 13.5924 -3.37679 0.881297 62.7543
12059659 15.987 13.5466 19.6283 13.5924 -3.37679 0.881297 62.7543
12059667 15.5731 14.0163 18.5258 14.8298 -2.08626 0.89751 62.9449
12059680 15.5731 14.0163 18.5258 14.8298 -2.08626 0.89751 62.9449
12059688 15.0093 14.3662 17.2953 16.1814 -0.69887 0.978772 62.8522
12059699 14.4368 14.6977 16.0642 17.6527 0.735638 1.09363 62.8515
12059719 13.8202 15.0293 14.9205 19.2797 2.20787 1.27297 63.0496
12059727 13.8202 15.0293 14.9205 19.2797 2.20787 1.27297 63.0496
12059737 13.2389 15.4068 13.8807 20.8189 3.59385 1.43356 63.3453
12059747 12.5782 15.8765 12.9138 22.1146 4.92222 1.55324 63.4831
12059757 12.5782 15.8765 12.9138 22.1146 4.92222 1.55324 63.4831
12059769 11.9088 16.2264 11.926 23.0304 6.11095 1.62172 63.0916
12059781 11.2394 16.5488 11.0734 23.9851 7.24823 1.73526 62.8466
12059799 10.6756 16.7606 10.3976 24.8229 8.1836 1.86355 62.6567
12059811 10.1119 16.8803 9.94006 25.5146 8.94477 2.03272 62.4469
12059821 10.1119 16.8803 9.94006 25.5146 8.94477 2.03272 62.4469
12059830 9.73316 17.0486 9.54495 26.0991 9.5592 2.12948 62.4259
12059842 9.73316 17.0486 9.54495 26.0991 9.5592 2.12948 62.4259
12059850 9.3544 17.1653 9.26422 26.6155 10.0811 2.25001 62.3994
12059860 8.97565 17.2334 8.99388 27.0831 10.575 2.37644 62.286
12059870 8.97565 17.2334 8.99388 27.0831 10.575 2.37644 62.286
12059880 8.64974 17.3696 8.64037 27.463 11.0839 2.43488 62.1227
12059891 8.27098 17.4279 8.4844 27.7066 11.4636 2.54293 61.8899
12059900 8.27098 17.4279 8.4844 27.7066 11.4636 2.54293 61.8899
12059915 8.02435 17.6808 8.23486 27.9794 11.8707 2.54583 61.9194
12059920 8.02435 17.6808 8.23486 27.9794 11.8707 2.54583 61.9194
12059930 7.62798 17.8364 7.95413 28.067 12.3286 2.57544 61.4855
12059940 7.39016 17.8753 7.80856 28.0963 12.5767 2.60896 61.1703
12059964 7.26684 17.9045 7.59021 28.0183 12.778 2.57583 60.7799
12059971 7.09948 18.0212 7.54862 28.2521 12.9779 2.62965 60.9214
12059987 7.09948 18.0212 7.54862 28.2521 12.9779 2.62965 60.9214
12059995 7.07306 18.167 7.51743 28.5542 13.1014 2.64994 61.3117
12060002 7.02021 18.167 7.52783 28.7393 13.1635 2.70441 61.4543
12060011 7.02021 18.3129 7.52783 28.7393 13.1916 2.66248 61.6002
12060022 7.00259 18.4199 7.50703 28.8172 13.2507 2.64833 61.7467
12060042 6.97617 18.5366 7.46544 28.9146 13.3334 2.63373 61.8928
12060052 6.9057 18.6144 7.38226 29.051 13.4688 2.64227 61.9534
12060062 6.9057 18.6144 7.38226 29.051 13.4688 2.64227 61.9534
12060072 6.79119 18.7603 7.38226 29.2556 13.6046 2.67402 62.1893
12060082 6.57098 18.9354 7.26789 29.3043 13.8537 2.67384 62.0785
12060094 6.57098 18.9354 7.26789 29.3043 13.8537 2.67384 62.0785
12060112 6.49171 19.1688 7.14312 29.1289 13.9922 2.57012 61.9325
12060136 6.42124 19.4022 7.05994 28.8659 14.0839 2.45406 61.7493
12060145 6.50052 19.6648 6.99755 28.7685 14.1024 2.32534 61.9313
12060154 6.53575 20.0149 6.89358 28.5249 14.1645 2.14652 61.9691
12060169 6.56218 20.258 6.8 28.1158 14.178 1.96698 61.7359
12060175 6.56218 20.258 6.8 28.1158 14.178 1.96698 61.7359
12060185 6.72073 20.5011 6.8208 27.8625 14.0627 1.80794 61.9051
12060196 6.72073 20.5011 6.8208 27.8625 14.0627 1.80794 61.9051
12060205 6.82643 20.6957 6.71682 27.7456 14.0753 1.67953 61.9845
12060219 6.78238 20.8902 6.62324 27.4923 14.1519 1.56413 61.788
12060225 6.78238 20.8902 6.62324 27.4923 14.1519 1.56413 61.788
12060235 6.75596 20.9193 6.58165 27.3072 14.1677 1.51391 61.5641
12060245 6.73834 21.0069 6.63364 27.2682 14.1544 1.49804 61.647
12060265 6.80881 21.2014 6.61284 27.2974 14.1622 1.42927 61.9204
12060286 6.88808 21.3278 6.57125 27.2585 14.1537 1.35719 62.0456
12060296 6.89689 21.4542 6.55046 27.0344 14.1442 1.26753 61.936
12060316 6.87927 21.4542 6.44648 26.859 14.1905 1.20995 61.639
12060327 6.80881 21.6001 6.42569 26.937 14.2876 1.20291 61.7716
12060338 6.80881 21.6001 6.42569 26.937 14.2876 1.20291 61.7716
12060350 6.81762 21.6196 6.44648 26.9857 14.2806 1.21101 61.8693
12060356 6.81762 21.6196 6.44648 26.9857 14.2806 1.21101 61.8693
12060366 6.80881 21.6682 6.41529 27.0246 14.3211 1.20232 61.9169
12060376 6.94974 21.6876 6.54006 26.859 14.1275 1.15135 62.0365
12060386 6.94974 21.6876 6.54006 26.859 14.1275 1.15135 62.0365
12060399 6.95855 21.6779 6.46728 26.8006 14.156 1.12223 61.9043
12060407 6.91451 21.6682 6.55046 26.898 14.1466 1.17661 62.0312
12060426 6.93212 21.639 6.46728 26.8688 14.1778 1.15453 61.9072
12060438 6.93212 21.639 6.46728 26.8688 14.1778 1.15453 61.9072
12060447 6.82643 21.5418 6.44648 26.8883 14.2445 1.20737 61.7029
12060460 6.83523 21.5418 6.48807 26.859 14.2074 1.20782 61.7241
12060467 6.83523 21.5418 6.48807 26.859 14.2074 1.20782 61.7241
12060477 6.88808 21.4834 6.55046 27.0052 14.1497 1.2557 61.9271
12060487 7.0114 21.4834 6.66483 27.0441 14.0069 1.25736 62.2038
12060497 7.0114 21.4834 6.66483 27.0441 14.0069 1.25736 62.2038
12060507 7.2228 21.3764 6.8 27.0441 13.7716 1.25992 62.4434
12060528 7.21399 21.2014 6.71682 27.1123 13.8096 1.30464 62.2445
12060537 7.16995 21.1625 6.75841 27.1415 13.8094 1.34196 62.2324
12060549 7.16995 21.1625 6.75841 27.1415 13.8094 1.34196 62.2324
12060559 7.06425 20.9874 6.71682 27.1513 13.8718 1.40903 61.9198
12060573 6.89689 20.8804 6.73761 27.1903 13.9519 1.49515 61.7052
12060579 6.89689 20.8804 6.73761 27.1903 13.9519 1.49515 61.7052
12060589 6.94974 20.8415 6.7792 27.2585 13.8976 1.5154 61.8289
12060599 6.94974 20.8415 6.7792 27.2585 13.8976 1.5154 61.8289
12060610 7.05544 20.6957 6.83119 27.2779 13.7758 1.54171 61.8602
12060619 7.16995 20.6665 6.94557 27.5215 13.672 1.59637 62.3035
12060644 7.15233 20.5789 6.95596 27.6871 13.6906 1.66217 62.3743
12060650 7.07306 20.5011 6.96636 27.7845 13.7369 1.72724 62.3251
12060659 7.07306 20.5011 6.96636 27.7845 13.7369 1.72724 62.3251
12060669 7.03782 20.4233 6.98716 27.843 13.7424 1.77448 62.2913
12060679 7.03782 20.4233 6.98716 27.843 13.7424 1.77448 62.2913
12060690 6.86166 20.2872 6.91437 27.7358 13.8542 1.82074 61.799
12060699 6.93212 20.1121 6.97676 27.843 13.7585 1.8853 61.864
12060712 6.93212 20.1121 6.97676 27.843 13.7585 1.8853 61.864
12060720 6.99378 20.0732 7.05994 27.8722 13.6662 1.90288 61.9992
12060733 7.09948 19.976 7.11193 27.9014 13.5556 1.91771 62.0888
12060740 7.09948 19.976 7.11193 27.9014 13.5556 1.91771 62.0888
12060750 7.12591 19.8204 7.18471 27.9794 13.4797 1.98465 62.1104
12060760 7.12591 19.8204 7.18471 27.9794 13.4797 1.98465 62.1104
12060779 7.15233 19.7523 7.18471 27.9696 13.4489 1.994 62.059
12060781 7.0114 19.7134 7.19511 28.0378 13.5353 2.05983 61.9577
12060790 7.0114 19.7134 7.19511 28.0378 13.5353 2.05983 61.9577
12060802 7.04663 19.6259 7.18471 28.0963 13.5145 2.08426 61.9535
12060811 7.09067 19.6939 7.29908 28.2911 13.4651 2.11758 62.3748
12060824 7.09067 19.6939 7.29908 28.2911 13.4651 2.11758 62.3748
12060831 7.15233 19.7231 7.30948 28.2911 13.4261 2.09484 62.476
12060842 7.18756 19.655 7.19511 28.145 13.4351 2.0498 62.1827
12060862 7.13472 19.7328 7.15352 28.0183 13.4845 2.00783 62.0394
12060872 7.13472 19.7328 7.15352 28.0183 13.4845 2.00783 62.0394
12060882 6.97617 19.7037 7.16391 27.9696 13.5623 2.05143 61.8134
12060892 6.89689 19.8106 7.09113 27.9307 13.6699 2.02033 61.7293
12060902 6.89689 19.8106 7.09113 27.9307 13.6699 2.02033 61.7293
12060913 6.85285 19.8009 6.99755 27.9891 13.7652 2.02779 61.6404
12060922 6.82643 19.8982 6.96636 27.9404 13.8103 1.9914 61.6314
12060933 6.82643 19.8982 6.96636 27.9404 13.8103 1.9914 61.6314
12060942 6.83523 19.9176 7.01835 28.0476 13.795 2.01712 61.8188
12060954 6.83523 19.9176 7.01835 28.0476 13.795 2.01712 61.8188
12060964 6.83523 20.0635 7.02875 28.0768 13.8201 1.98538 62.0043
12060976 6.87927 20.2288 7.01835 28.106 13.8341 1.93217 62.2325
12060984 6.87927 20.2288 7.01835 28.106 13.8341 1.93217 62.2325
12060993 6.88808 20.1997 6.96636 28.0281 13.8419 1.91038 62.0822
12061004 6.85285 20.2094 7.04954 27.9501 13.7996 1.91844 62.0619
12061024 6.85285 20.1705 7.07034 27.9112 13.7725 1.92522 62.0048
12061034 6.85285 20.1705 7.07034 27.9112 13.7725 1.92522 62.0048
12061043 6.82643 20.1899 6.95596 27.8332 13.8502 1.88644 61.8056
12061054 6.80881 20.2288 6.96636 27.8625 13.867 1.88903 61.8665
12061074 6.81762 20.2677 6.97676 27.8917 13.8672 1.88441 61.9538
12061085 6.93212 20.2775 7.05994 27.9501 13.7559 1.88055 62.2197
12061095 6.93212 20.2775 7.05994 27.9501 13.7559 1.88055 62.2197
12061106 7.02902 20.2677 7.08073 27.9794 13.6863 1.86748 62.3569
12061115 7.02902 20.2677 7.08073 27.9794 13.6863 1.86748 62.3569
12061125 6.98497 20.2775 7.17431 27.9307 13.6485 1.88621 62.3674
12061135 6.93212 20.1608 7.04954 27.8527 13.7236 1.88951 61.9951
12061148 6.93212 20.1608 7.04954 27.8527 13.7236 1.88951 61.9951
12061155 6.88808 20.1121 7.03914 27.7261 13.7257 1.88576 61.7654
12061165 6.81762 20.0927 6.97676 27.7261 13.8057 1.89713 61.6131
12061175 6.81762 20.0927 6.97676 27.7261 13.8057 1.89713 61.6131
12061185 6.87927 20.1899 7.09113 27.7845 13.7235 1.89034 61.9449
12061195 6.87927 20.1899 7.09113 27.7845 13.7235 1.89034 61.9449
12061205 6.89689 20.1997 7.05994 27.804 13.7373 1.88041 61.9605
12061220 6.88808 20.2775 7.01835 27.7358 13.7706 1.83834 61.9197
12061231 6.88808 20.2775 7.01835 27.7358 13.7706 1.83834 61.9197
12061236 6.8 20.2094 7.03914 27.6871 13.7916 1.87498 61.7356
12061245 6.8 20.2094 6.98716 27.6871 13.8243 1.86392 61.6836
12061259 6.71192 20.151 6.98716 27.5897 13.8516 1.88328 61.4398
12061265 6.75596 20.1802 7.04954 27.541 13.7809 1.86611 61.5267
12061276 6.75596 20.1802 7.04954 27.541 13.7809 1.86611 61.5267
12061287 6.92332 20.2386 7.10153 27.5507 13.6556 1.81764 61.8141
12061296 7.09067 20.2775 7.18471 27.5605 13.5086 1.78151 62.1133
12061306 7.09067 20.2775 7.18471 27.5605 13.5086 1.78151 62.1133
12061316 7.19637 20.3164 7.2159 27.3948 13.4003 1.71385 62.1235
12061327 7.17876 20.2288 7.15352 27.2097 13.3988 1.68907 61.7708
12061353 6.96736 20.1316 7.07034 26.9954 13.5247 1.70854 61.1647
12061367 6.93212 20.0441 7.11193 26.7811 13.4637 1.70452 60.8692
12061377 7.14352 20.0149 7.39266 26.9564 13.1834 1.75362 61.5075
12061401 7.56632 20.1608 7.54862 27.0831 12.8807 1.66087 62.3588
12061410 7.93627 20.1705 7.80856 26.9954 12.4864 1.59684 62.9107
12061419 7.93627 20.1705 7.80856 26.9954 12.4864 1.59684 62.9107
12061428 8.16529 20.083 7.91254 26.5862 12.1884 1.49422 62.747
12061438 8.35026 19.8982 8.02691 26.1673 11.8862 1.42831 62.4427
12061449 8.35026 19.8982 8.02691 26.1673 11.8862 1.42831 62.4427
12061458 8.56166 19.7426 8.24526 25.7777 11.5172 1.37629 62.3271
12061469 8.56166 19.7426 8.24526 25.7777 11.5172 1.37629 62.3271
12061479 8.75544 19.5675 8.32844 25.4756 11.2509 1.32337 62.127
12061489 9.00207 19.5578 8.5156 24.9301 10.8741 1.18195 62.0055
12061500 9.00207 19.5578 8.5156 24.9301 10.8741 1.18195 62.0055
12061510 9.38964 19.4314 8.66116 24.4235 10.4207 1.03311 61.9056
12061520 9.78601 19.2077 8.90031 23.6734 9.82449 0.872211 61.5673
12061541 10.0062 18.9354 9.11865 22.9914 9.33713 0.778477 61.0516
12061551 10.0062 18.9354 9.11865 22.9914 9.33713 0.778477 61.0516
12061561 10.2352 18.6728 9.53456 22.4069 8.75516 0.747771 60.8494
12061571 10.5788 18.3713 10.0648 21.9782 8.07711 0.760664 60.9931
12061591 10.9839 18.099 10.7095 21.3937 7.27259 0.740429 61.1861
12061603 11.5301 17.7683 11.7492 20.741 6.16214 0.774865 61.7886
12061611 11.5301 17.7683 11.7492 20.741 6.16214 0.774865 61.7886
12061624 12.129 17.3987 12.893 20.0395 4.96968 0.817659 62.4603
12061641 12.6839 16.9447 14.4318 18.9776 3.49259 0.899638 63.0381
12061651 13.2301 16.4198 16.1682 17.7404 1.87307 1.00507 63.5585
12061661 13.2301 16.4198 16.1682 17.7404 1.87307 1.00507 63.5585
12061671 13.7145 15.8212 17.9844 16.5336 0.256017 1.16673 64.0537
12061681 14.1197 15.1398 19.7464 15.201 -1.37263 1.32881 64.2068
12061701 14.5425 14.4215 21.4395 13.9826 -2.94236 1.50456 64.3861
12061711 14.5425 14.4215 21.4395 13.9826 -2.94236 1.50456 64.3861
12061721 14.9301 13.6755 22.729 12.7072 -4.40196 1.59988 64.0417
12061733 15.2207 12.8559 23.9004 11.5174 -5.80676 1.73428 63.4944
12061742 15.2207 12.8559 23.9004 11.5174 -5.80676 1.73428 63.4944
12061752 15.5114 12.11 24.9734 10.5655 -7.04925 1.88034 63.1602
12061762 15.6523 11.4653 25.9282 9.74692 -8.10933 2.04422 62.7928
12061773 15.6523 11.4653 25.9282 9.74692 -8.10933 2.04422 62.7928
12061782 15.8373 10.8667 26.9716 9.14726 -9.07111 2.24795 62.8229
12061794 15.8373 10.8667 26.9716 9.14726 -9.07111 2.24795 62.8229
12061804 15.8373 10.2221 27.8674 8.58567 -9.95679 2.49398 62.5125
12061816 15.8725 9.64193 28.7336 8.15734 -10.739 2.7345 62.4054
12061822 15.8725 9.64193 28.7336 8.15734 -10.739 2.7345 62.4054
12061832 15.9959 9.16306 29.3341 7.79563 -11.387 2.88275 62.2887
12061842 16.0487 8.64735 29.8066 7.3673 -12.0578 3.02518 61.8699
12061852 16.0487 8.64735 29.8066 7.3673 -12.0578 3.02518 61.8699
12061862 16.1192 8.15926 30.2299 7.12934 -12.598 3.18331 61.6376
12061872 16.1192 8.15926 30.2299 7.12934 -12.598 3.18331 61.6376
12061883 16.0839 7.88299 30.5153 6.98656 -12.9048 3.30289 61.4688
12061892 16.0135 7.70802 30.8599 6.91041 -13.1135 3.42699 61.4918
12061914 16.0927 7.54225 31.2438 6.84378 -13.3462 3.5123 61.7226
12061925 16.0399 7.3857 31.5785 6.77716 -13.5379 3.62489 61.7812
12061934 16.0399 7.3857 31.5785 6.77716 -13.5379 3.62489 61.7812
12061949 16.1016 7.25677 31.8541 6.7486 -13.6982 3.69047 61.961
12061964 16.0927 7.10943 32.051 6.72004 -13.8424 3.76828 61.9732
12061974 16.0751 7.00813 32.297 6.6439 -13.9946 3.83504 62.0242
12061984 16.0751 7.00813 32.297 6.6439 -13.9946 3.83504 62.0242
12061995 16.0751 6.90683 32.4152 6.52968 -14.1513 3.86655 61.9268
12062006 16.0399 6.86078 32.5628 6.53919 -14.194 3.91951 62.0027
12062017 16.0399 6.86078 32.5628 6.53919 -14.194 3.91951 62.0027
12062025 16.1016 6.82394 32.8286 6.62486 -14.2201 3.97441 62.379
12062036 16.1016 6.82394 32.8286 6.62486 -14.2201 3.97441 62.379
12062045 16.0751 6.81473 32.9861 6.56775 -14.2844 4.00296 62.4437
12062056 16.0839 6.70423 33.0353 6.52016 -14.394 4.03425 62.3436
12062065 16.0839 6.70423 33.0353 6.52016 -14.394 4.03425 62.3436
12062077 16.128 6.50163 33.1239 6.47256 -14.575 4.08998 62.2261
12062085 16.2249 6.39112 33.1338 6.36786 -14.73 4.0775 62.1176
12062105 16.3658 6.28061 33.1534 6.32979 -14.8515 4.06493 62.1296
12062126 16.5155 6.21614 33.2519 6.29171 -14.9576 4.04942 62.2753
12062136 16.6917 6.29903 33.183 6.33931 -14.8914 3.96675 62.513
12062146 16.6917 6.29903 33.183 6.33931 -14.8914 3.96675 62.513
12062156 16.7974 6.474 33.1436 6.32027 -14.803 3.87162 62.7353
12062167 16.9824 6.48321 33.0648 6.22508 -14.8748 3.78238 62.7555
12062176 16.9824 6.48321 33.0648 6.22508 -14.8748 3.78238 62.7555
12062191 17.0996 6.40032 32.7597 6.17749 -14.9276 3.70866 62.4372
12062196 17.0996 6.40032 32.7597 6.17749 -14.9276 3.70866 62.4372
12062206 17.2292 6.3727 32.3955 6.07279 -14.9747 3.59264 62.0702
12062217 17.3488 6.40953 32.1395 6.01568 -14.9657 3.48799 61.9135
12062226 17.3488 6.40953 32.1395 6.01568 -14.9657 3.48799 61.9135
12062239 17.4385 6.48321 31.8935 6.01568 -14.8927 3.39333 61.8308
12062246 17.4883 6.51083 31.8836 6.05375 -14.8569 3.37562 61.9365
12062261 17.4883 6.51083 31.8836 6.05375 -14.8569 3.37562 61.9365
12062266 17.6178 6.54767 31.7852 5.98712 -14.8811 3.29528 61.9378
12062276 17.6178 6.54767 31.7852 5.98712 -14.8811 3.29528 61.9378
12062286 17.7374 6.58451 31.6572 5.94905 -14.8806 3.21769 61.9282
12062296 17.8769 6.62134 31.5981 6.01568 -14.8272 3.1674 62.1121
12062306 17.8769 6.62134 31.5981 6.01568 -14.8272 3.1674 62.1121
12062316 17.9865 6.73185 31.5588 6.04423 -14.7498 3.10118 62.3214
12062328 18.0563 6.66739 31.6277 5.99664 -14.8441 3.10371 62.348
12062350 18.1061 6.69502 31.7261 6.07279 -14.8021 3.11449 62.6
12062357 18.1061 6.69502 31.7261 6.07279 -14.8021 3.11449 62.6
12062373 18.126 6.56609 31.6966 5.9776 -14.9435 3.12238 62.3663
12062377 18.2655 6.56609 31.5588 5.86338 -15.0171 3.03368 62.2538
12062387 18.2655 6.56609 31.5588 5.86338 -15.0171 3.03368 62.2538
12062398 18.3751 6.51083 31.3717 5.83483 -15.0587 2.97635 62.0925
12062407 18.3751 6.31744 31.4603 5.71109 -15.2782 3.02571 61.864
12062419 18.3751 6.31744 31.4603 5.71109 -15.2782 3.02571 61.864
12062429 18.5047 6.14247 31.6277 5.69205 -15.4509 3.06758 61.9669
12062449 18.6342 6.01354 31.7261 5.64446 -15.6012 3.07719 62.0183
12062459 18.7538 5.92145 31.8049 5.6159 -15.7101 3.07882 62.096
12062479 18.8734 5.95829 31.8344 5.60638 -15.7145 3.03724 62.2725
12062489 18.9531 5.90303 31.9525 5.54927 -15.8173 3.04187 62.3579
12062510 19.1225 5.83857 31.923 5.47312 -15.9299 2.99124 62.3572
12062532 19.2421 5.78332 31.8639 5.46361 -15.9812 2.95947 62.3529
12062540 19.2819 5.72806 31.7458 5.42553 -16.0314 2.93368 62.1813
12062555 19.2819 5.72806 31.7458 5.42553 -16.0314 2.93368 62.1813
12062560 19.4812 5.69122 31.5588 5.38746 -16.0827 2.84305 62.1187
12062570 19.6905 5.6636 31.5096 5.2542 -16.212 2.75516 62.1179
12062580 19.6905 5.6636 31.5096 5.2542 -16.212 2.75516 62.1179
12062590 19.9297 5.6636 31.5981 5.27324 -16.2456 2.70828 62.4646
12062610 20.2386 5.57151 31.6474 5.22564 -16.3875 2.64735 62.6831
12062624 20.4777 5.48862 31.6671 5.19709 -16.4964 2.60171 62.8305
12062640 20.5873 5.40574 31.8049 5.08287 -16.6599 2.59888 62.8808
12062651 20.6172 5.1571 31.9525 5.02576 -16.8865 2.67812 62.7526
12062680 20.687 5.02817 32.11 4.94961 -17.0527 2.71075 62.7748
12062681 20.687 5.02817 32.11 4.94961 -17.0527 2.71075 62.7748
12062694 20.8165 4.91766 31.982 4.87346 -17.1783 2.66529 62.5897
12062700 20.9461 4.91766 31.7753 4.80683 -17.2137 2.57465 62.4459
12062715 20.9461 4.91766 31.7753 4.80683 -17.2137 2.57465 62.4459
12062720 21.0955 4.89924 31.5686 4.70213 -17.29 2.47552 62.2655
12062730 21.1354 4.81636 31.2635 4.68309 -17.3266 2.42207 61.8983
12062741 21.1354 4.81636 31.2635 4.68309 -17.3266 2.42207 61.8983
12062754 21.2649 4.83478 31.165 4.61646 -17.3634 2.34686 61.8812
12062763 21.2649 4.83478 31.165 4.61646 -17.3634 2.34686 61.8812
12062771 21.3746 4.87161 31.2339 4.59742 -17.3732 2.3161 62.0775
12062787 21.4343 4.88082 31.3816 4.68309 -17.3341 2.34439 62.3799
12062792 21.4343 4.88082 31.3816 4.68309 -17.3341 2.34439 62.3799
12062802 21.534 4.92687 31.3816 4.61646 -17.3603 2.29043 62.4589
12062812 21.5838 4.90845 31.293 4.60694 -17.3745 2.26174 62.3922
12062822 21.5838 4.90845 31.293 4.60694 -17.3745 2.26174 62.3922
12062835 21.5539 4.83478 31.293 4.62598 -17.408 2.29432 62.3077
12062857 21.4642 4.82557 31.1847 4.64502 -17.3771 2.3036 62.1195
12062862 21.4144 4.83478 31.2241 4.67357 -17.3501 2.32879 62.1469
12062874 21.4144 4.83478 31.2241 4.67357 -17.3501 2.32879 62.1469
12062884 21.2948 4.84399 31.1453 4.64502 -17.3388 2.33772 61.9292
12062894 21.3646 4.82557 31.0371 4.69261 -17.3141 2.31093 61.9198
12062903 21.3646 4.82557 31.0371 4.69261 -17.3141 2.31093 61.9198
12062913 21.3845 4.89924 30.9189 4.65454 -17.2776 2.2527 61.8572
12062928 21.3845 4.89924 30.9189 4.65454 -17.2776 2.2527 61.8572
12062934 21.2948 4.94529 30.9485 4.6355 -17.2516 2.26704 61.8241
12062950 21.2351 4.98212 31.0961 4.80683 -17.1209 2.3388 62.1201
12062964 21.2052 5.06501 31.4111 4.85442 -17.069 2.39752 62.5357
12062975 21.1553 5.13868 31.7064 4.8925 -17.0252 2.45773 62.8929
12062984 21.1553 5.13868 31.7064 4.8925 -17.0252 2.45773 62.8929
12062997 21.1852 5.11105 31.6474 4.93057 -17.0145 2.45291 62.8742
12063017 21.1254 5.13868 31.5292 4.85442 -17.0244 2.42296 62.6478
12063025 21.0258 5.13868 31.3127 4.8449 -16.9903 2.4052 62.3221
12063035 21.0258 5.13868 31.3127 4.8449 -16.9903 2.4052 62.3221
12063045 20.966 5.1571 31.293 4.86394 -16.9549 2.41663 62.28
12063058 20.8564 5.07421 31.3324 4.98768 -16.9182 2.50345 62.2507
12063078 20.7069 5.07421 31.4997 4.94009 -16.9526 2.56955 62.2209
12063085 20.687 5.12947 31.4013 4.94009 -16.9 2.53988 62.1578
12063095 20.687 5.12947 31.4013 4.94009 -16.9 2.53988 62.1578
12063105 20.5674 5.24919 31.3816 5.00672 -16.7564 2.54925 62.2049
12063128 20.5076 5.26761 31.3324 4.9972 -16.7359 2.54916 62.1048
12063136 20.3283 5.24919 31.4013 5.08287 -16.676 2.6361 62.0616
12063157 20.3283 5.26761 31.4899 5.08287 -16.6755 2.64849 62.1686
12063166 20.3283 5.26761 31.4899 5.08287 -16.6755 2.64849 62.1686
12063181 20.1489 5.29523 31.6375 5.11142 -16.6336 2.72655 62.1931
12063186 20.0193 5.3597 31.7655 5.18757 -16.5395 2.78525 62.3321
12063208 19.9297 5.35049 31.8246 5.2542 -16.4971 2.83807 62.3589
12063216 19.8499 5.45179 31.8442 5.28275 -16.4026 2.8413 62.4287
12063235 19.8499 5.45179 31.8442 5.28275 -16.4026 2.8413 62.4287
12063240 19.7603 5.55309 31.8738 5.34938 -16.2831 2.85668 62.5365
12063247 19.5909 5.54388 31.7753 5.34938 -16.2517 2.88871 62.2595
12063262 19.5909 5.54388 31.7753 5.34938 -16.2517 2.88871 62.2595
12063269 19.4912 5.5623 31.8639 5.32083 -16.2569 2.92374 62.2383
12063289 19.2521 5.60834 32.0017 5.3589 -16.1869 3.01351 62.221
12063297 18.983 5.65439 32.1002 5.49216 -16.044 3.12269 62.2297
12063314 18.983 5.65439 32.1002 5.49216 -16.044 3.12269 62.2297
12063321 18.8734 5.71885 32.1395 5.5112 -15.9789 3.14698 62.243
12063330 18.7737 5.7649 32.0608 5.56831 -15.885 3.1585 62.1677
12063349 18.6841 5.8662 32.0116 5.59686 -15.7792 3.15117 62.1587
12063369 18.5645 5.8662 31.9525 5.69205 -15.6901 3.19303 62.0752
12063380 18.4748 5.98592 31.8935 5.69205 -15.5893 3.17299 62.0462
12063394 18.4748 5.98592 31.8935 5.69205 -15.5893 3.17299 62.0462
12063399 18.3751 6.07801 31.6867 5.65398 -15.5072 3.12836 61.7939
12063409 18.2057 6.1701 31.5096 5.73964 -15.3369 3.13347 61.625
12063419 18.2057 6.1701 31.5096 5.73964 -15.3369 3.13347 61.625
12063429 18.136 6.33586 31.1946 5.82531 -15.1115 3.0609 61.4917
12063440 18.136 6.33586 31.1946 5.82531 -15.1115 3.0609 61.4917
12063448 18.0762 6.53846 30.9485 5.86338 -14.9051 2.97848 61.4265
12063462 18.1061 6.75027 30.8599 5.94905 -14.703 2.90744 61.6653
12063479 18.126 7.02654 30.6925 6.09183 -14.4099 2.81701 61.9369
12063490 18.0762 7.20152 30.5843 6.21557 -14.1933 2.78412 62.0775
12063500 18.0762 7.20152 30.5843 6.21557 -14.1933 2.78412 62.0775
12063510 18.0164 7.59751 30.2889 6.32027 -13.8162 2.65061 62.2231
12063531 17.9168 7.81853 30.0232 6.55823 -13.4648 2.61072 62.3167
12063540 17.8669 8.23294 29.5704 6.81523 -12.9587 2.46914 62.4855
12063552 17.8669 8.23294 29.5704 6.81523 -12.9587 2.46914 62.4855
12063560 17.857 8.61972 29.0585 6.92945 -12.5536 2.28399 62.4646
12063572 17.7175 9.01571 28.3891 7.19597 -11.9928 2.13065 62.3183
12063580 17.7175 9.01571 28.3891 7.19597 -11.9928 2.13065 62.3183
12063590 17.7573 9.55905 27.7394 7.60526 -11.3038 1.92184 62.6611
12063601 17.7573 9.55905 27.7394 7.60526 -11.3038 1.92184 62.6611
12063611 17.6079 10.0471 26.7944 7.82419 -10.651 1.67735 62.2736
12063621 17.5381 10.5076 25.8987 8.18589 -9.95622 1.45795 62.1302
12063631 17.5381 10.5076 25.8987 8.18589 -9.95622 1.45795 62.1302
12063641 17.4385 11.0601 24.7174 8.54759 -9.1268 1.15758 61.7636
12063651 17.1993 11.7048 23.5165 9.1187 -8.08115 0.909453 61.5393
12063662 17.1993 11.7048 23.5165 9.1187 -8.08115 0.909453 61.5393
12063671 17.0399 12.4047 22.3451 9.7374 -7.00623 0.643129 61.527
12063682 17.0399 12.4047 22.3451 9.7374 -7.00623 0.643129 61.527
12063692 16.8062 12.9756 21.0162 10.4703 -5.86619 0.417352 61.2684
12063702 16.5332 13.7308 19.7169 11.3175 -4.56855 0.188518 61.2983
12063711 16.5332 13.7308 19.7169 11.3175 -4.56855 0.188518 61.2983
12063724 16.3394 14.5688 18.4569 12.3645 -3.18443 -0.0210947 61.7295
12063731 16.3394 14.5688 19.6775 12.3645 -3.60744 0.270166 62.9502
12063741 15.9254 15.3976 17.1575 13.7066 -1.59947 -0.110691 62.1871
12063752 15.4938 16.2172 15.8147 15.0677 -0.00938028 -0.198563 62.5934
12063761 15.4938 16.2172 15.8147 15.0677 -0.00938028 -0.198563 62.5934
12063780 14.9917 17.0584 14.6502 16.467 1.53697 -0.221541 63.1672
12063784 14.3047 17.6711 13.5272 17.7989 3.01651 -0.153939 63.3018
12063792 14.3047 17.6711 13.5272 17.7989 3.01651 -0.153939 63.3018
12063803 13.8378 18.2546 12.4563 18.9289 4.28869 -0.167112 63.4776
12063821 13.142 18.7311 11.6765 19.8544 5.42834 -0.0809562 63.404
12063831 12.6399 19.0715 10.8135 20.6143 6.42726 -0.0673816 63.1392
12063841 12.6399 19.0715 10.8135 20.6143 6.42726 -0.0673816 63.1392
12063851 12.0321 19.373 10.148 21.1794 7.32166 -0.0185877 62.7325
12063861 11.4772 19.7037 9.57615 21.7542 8.16033 0.0358593 62.5112
12063872 11.4772 19.7037 9.57615 21.7542 8.16033 0.0358593 62.5112
12063886 10.9751 20.0343 9.04587 21.988 8.8653 0.0058955 62.0433
12063895 10.9751 20.0343 9.04587 21.988 8.8653 0.0058955 62.0433
12063902 10.5083 20.2094 8.64037 22.3095 9.47427 0.0564677 61.6675
12063916 10.0415 20.4039 8.27645 22.6212 10.0693 0.110604 61.343
12063924 10.0415 20.4039 8.27645 22.6212 10.0693 0.110604 61.343
12063938 9.55699 20.6567 7.93333 23.0011 10.6984 0.1768 61.1482
12063944 9.2399 20.9582 7.6318 23.196 11.1766 0.154769 61.0259
12063953 9.2399 20.9582 7.6318 23.196 11.1766 0.154769 61.0259
12063971 8.85233 21.0944 7.46544 23.4883 11.6029 0.248022 60.9004
12063973 8.51762 21.3764 7.28868 23.8779 12.0569 0.312617 61.0607
12063985 8.51762 21.3764 7.28868 23.8779 12.0569 0.312617 61.0607
12063997 8.23575 21.6001 7.13272 24.2676 12.4515 0.383225 61.2362
12064006 8.23575 21.6001 7.13272 24.2676 12.4515 0.383225 61.2362
12064014 8.09482 21.6876 7.05994 24.4527 12.6379 0.423408 61.2951
12064028 7.98912 21.7557 7.07034 24.6183 12.7433 0.47462 61.4335
12064034 7.98912 21.7557 7.07034 24.6183 12.7433 0.47462 61.4335
12064044 8.00674 21.9016 6.98716 24.7255 12.8338 0.439214 61.621
12064053 7.93627 21.96 6.96636 24.8229 12.9205 0.460333 61.6855
12064065 7.93627 21.96 6.96636 24.8229 12.9205 0.460333 61.6855
12064075 7.8658 22.028 6.95596 24.9593 13.01 0.490569 61.8091
12064097 7.84819 22.0475 6.97676 24.9983 13.0194 0.504125 61.8707
12064105 7.76891 22.2128 6.85199 24.9691 13.1713 0.446416 61.8028
12064119 7.76891 22.2128 6.85199 24.9691 13.1713 0.446416 61.8028
12064125 7.68083 22.3003 6.8 25.008 13.2821 0.443487 61.7892
12064135 7.6456 22.3587 6.71682 25.0665 13.3776 0.431884 61.7876
12064155 7.52228 22.5824 6.65443 25.1347 13.5475 0.408227 61.8938
12064165 7.52228 22.5824 6.65443 25.1347 13.5475 0.408227 61.8938
12064176 7.42539 22.631 6.50887 24.9691 13.6777 0.346522 61.5343
12064187 7.3285 22.8352 6.48807 24.9983 13.7944 0.321804 61.6501
12064196 7.3285 22.8352 6.48807 24.9983 13.7944 0.321804 61.6501
12064207 7.37254 22.9617 6.47768 25.047 13.805 0.28867 61.8589
12064217 7.33731 23.2048 6.43609 25.1152 13.9091 0.243786 62.0934
12064231 7.33731 23.2048 6.43609 25.1152 13.9091 0.243786 62.0934
12064236 7.33731 23.3896 6.41529 24.9788 13.9308 0.161104 62.121
12064259 7.30207 23.4966 6.29052 24.8327 14.0244 0.0786191 61.9218
12064266 7.30207 23.6814 6.21774 24.6086 14.0634 -0.0381222 61.8098
12064286 7.30207 23.6814 6.21774 24.6086 14.0634 -0.0381222 61.8098
12064289 7.26684 23.7981 6.19694 24.365 14.0764 -0.122409 61.6269
12064298 7.26684 23.9634 6.15535 24.3553 14.1302 -0.174821 61.7409
12064317 7.31088 24.1384 6.10336 24.2384 14.1455 -0.268866 61.7911
12064344 7.23161 24.3427 6.03058 24.2481 14.2793 -0.314189 61.853
12064348 7.17876 24.5858 5.98899 24.2092 14.3745 -0.379198 61.9627
12064372 7.26684 24.9748 5.9474 24.141 14.3998 -0.518198 62.33
12064379 7.14352 25.1402 5.80184 24.102 14.5917 -0.574033 62.1875
12064402 7.0114 25.3541 5.65627 23.8877 14.7692 -0.683635 61.9095
12064410 6.74715 25.5584 5.50031 23.839 15.0661 -0.721771 61.6448
12064429 6.74715 25.5584 5.50031 23.839 15.0661 -0.721771 61.6448
12064433 6.62383 25.7918 5.38593 23.761 15.2459 -0.796417 61.5626
12064440 6.62383 25.7918 5.38593 23.761 15.2459 -0.796417 61.5626
12064455 6.60622 25.8404 5.37554 23.6928 15.2611 -0.823759 61.515
12064460 6.67668 25.9182 5.38593 23.5759 15.202 -0.885284 61.5567
12064470 6.67668 25.9182 5.38593 23.5759 15.202 -0.885284 61.5567
12064480 6.82643 25.9279 5.40673 23.5175 15.0831 -0.931475 61.6785
12064490 6.73834 25.8598 5.37554 23.6344 15.1686 -0.873651 61.6081
12064510 6.72953 25.8501 5.43792 23.7805 15.1555 -0.815852 61.7981
12064521 6.72953 25.8501 5.43792 23.7805 15.1555 -0.815852 61.7981
12064533 6.65026 25.7723 5.46911 24.0143 15.2115 -0.712159 61.906
12064543 6.66788 25.7529 5.44832 24.1507 15.232 -0.682453 62.0198
12064567 6.65907 25.7529 5.42752 24.2092 15.2604 -0.670903 62.0486
12064572 6.59741 25.6751 5.43792 24.2871 15.2937 -0.616341 61.9975
12064582 6.59741 25.6751 5.43792 24.2871 15.2937 -0.616341 61.9975
12064594 6.56218 25.6751 5.5107 24.4917 15.3013 -0.538605 62.2396
12064619 6.56218 25.6751 5.5107 24.4917 15.3013 -0.538605 62.2396
12064621 6.57098 25.714 5.46911 24.7158 15.3633 -0.504261 62.4698
12064623 6.4829 25.5584 5.5211 24.7547 15.3686 -0.424946 62.3171
12064632 6.4829 25.5584 5.5211 24.7547 15.3686 -0.424946 62.3171
12064644 6.41244 25.5389 5.40673 24.8229 15.4962 -0.415326 62.181
12064652 6.31554 25.4125 5.37554 24.8911 15.5709 -0.353587 61.9947
12064662 6.31554 25.4125 5.37554 24.8911 15.5709 -0.353587 61.9947
12064672 6.06891 25.2763 5.31315 24.8911 15.7537 -0.278059 61.5495
12064683 5.91917 25.2082 5.32355 25.0373 15.8578 -0.187013 61.4882
12064694 5.91917 25.2082 5.32355 25.0373 15.8578 -0.187013 61.4882
12064714 5.89275 25.2082 5.28196 25.2516 15.9347 -0.1381 61.6345
12064723 5.86632 25.2374 5.35474 25.4756 15.9411 -0.0662032 61.9341
12064734 5.82228 25.1985 5.37554 25.7971 15.9976 0.03663 62.1935
12064745 5.82228 25.1985 5.37554 25.7971 15.9976 0.03663 62.1935
12064755 5.78705 25.111 5.44832 25.9043 15.9757 0.109538 62.2506
12064771 5.61969 24.9846 5.44832 26.1479 16.1029 0.239208 62.2004
12064775 5.61969 24.9846 5.44832 26.1479 16.1029 0.239208 62.2004
12064785 5.63731 24.8581 5.43792 26.2063 16.0884 0.277308 62.1397
12064800 5.63731 24.8581 5.43792 26.2063 16.0884 0.277308 62.1397
12064805 5.55803 24.8289 5.48991 26.4596 16.1385 0.37599 62.3365
12064815 5.46114 24.722 5.5107 26.596 16.1929 0.463219 62.2898
12064828 5.46114 24.722 5.5107 26.596 16.1929 0.463219 62.2898
12064835 5.33782 24.5177 5.38593 26.8298 16.3617 0.570354 62.0713
12064856 5.33782 24.5177 5.38593 26.8298 16.3617 0.570354 62.0713
12064857 5.15285 24.3816 5.38593 27.0344 16.4948 0.69871 61.9547
12064865 5.04715 24.2649 5.48991 27.3656 16.5253 0.854986 62.1675
12064885 4.95907 24.1579 5.46911 27.5605 16.61 0.944366 62.1465
12064895 4.92383 24.0509 5.5419 27.7553 16.5968 1.04119 62.2719
12064913 4.92383 24.0509 5.5419 27.7553 16.5968 1.04119 62.2719
12064916 4.91503 23.8856 5.58349 27.9307 16.5762 1.13461 62.3148
12064926 4.8886 23.7689 5.57309 28.1352 16.6126 1.21481 62.3658
12064941 4.8886 23.7689 5.57309 28.1352 16.6126 1.21481 62.3658
12064946 4.81813 23.6424 5.69786 28.2814 16.5791 1.32575 62.4398
12064956 4.81813 23.6424 5.69786 28.2814 16.5791 1.32575 62.4398
12064966 4.85337 23.5452 5.76024 28.4567 16.5248 1.39384 62.6155
12064976 4.82694 23.5841 5.70826 28.4762 16.5847 1.38351 62.5955
12064987 4.82694 23.5841 5.70826 28.4762 16.5847 1.38351 62.5955
12064997 4.91503 23.516 5.70826 28.486 16.5184 1.3804 62.6253
12065009 4.81813 23.3312 5.83303 28.5834 16.488 1.50251 62.5658
12065027 4.85337 23.2437 5.85382 28.6126 16.4429 1.52709 62.5635
12065037 4.85337 23.2437 5.85382 28.6126 16.4429 1.52709 62.5635
12065049 4.83575 23.1854 5.89541 28.6418 16.4231 1.56242 62.5584
12065060 4.86218 23.1659 5.89541 28.5834 16.3949 1.548 62.5069
12065069 4.86218 23.1659 5.89541 28.5834 16.3949 1.548 62.5069
12065079 4.86218 23.0589 5.88502 28.408 16.3627 1.53629 62.2141
12065089 4.90622 23.02 5.84343 28.3691 16.3503 1.51747 62.1387
12065102 4.90622 23.02 5.84343 28.3691 16.3503 1.51747 62.1387
12065111 4.90622 23.0492 5.86422 28.2716 16.3269 1.49307 62.0913
12065130 4.87098 23.0103 5.84343 28.2132 16.3507 1.49553 61.9379
12065140 4.90622 23.0978 5.83303 28.2034 16.345 1.4585 62.0405
12065159 4.87979 23.0784 5.84343 28.0768 16.3352 1.44527 61.8784
12065169 5.03834 23.1465 5.88502 28.106 16.2158 1.40076 62.1758
12065179 5.03834 23.1465 5.88502 28.106 16.2158 1.40076 62.1758
12065189 5.11762 23.1173 5.88502 28.067 16.1536 1.37903 62.187
12065198 5.11762 23.1173 5.88502 28.067 16.1536 1.37903 62.187
12065211 5.15285 23.1854 5.9578 28.0086 16.0836 1.355 62.3046
12065221 5.17927 23.2632 5.9682 27.8625 16.0495 1.29789 62.2731
12065229 5.17927 23.2632 5.9682 27.8625 16.0495 1.29789 62.2731
12065247 5.24974 23.3118 5.90581 27.7456 16.0344 1.2272 62.2129
12065256 5.22332 23.4382 5.88502 27.5215 16.0515 1.14672 62.068
12065264 5.22332 23.4382 5.88502 27.5215 16.0515 1.14672 62.068
12065270 5.24093 23.5063 5.81223 27.3851 16.0782 1.0776 61.9446
12065290 5.27617 23.4868 5.83303 27.2097 16.0128 1.03868 61.8058
12065301 5.39067 23.6133 5.91621 27.1513 15.892 0.981985 62.0714
12065310 5.39067 23.6133 5.91621 27.1513 15.892 0.981985 62.0714
12065321 5.43471 23.6619 5.90581 26.9759 15.8512 0.916076 61.9784
12065333 5.49637 23.6911 5.9474 26.8201 15.7644 0.866761 61.9549
12065341 5.49637 23.6911 5.9474 26.8201 15.7644 0.866761 61.9549
12065356 5.61969 23.8078 5.9474 26.6544 15.6761 0.76763 62.0293
12065371 5.80466 23.7981 6.00979 26.5083 15.4907 0.70396 62.1208
12065381 5.97202 23.7883 6.06177 26.255 15.3074 0.617723 62.0771
12065391 5.97202 23.7883 6.06177 26.255 15.3074 0.617723 62.0771
12065401 6.10415 23.7689 6.05138 26.0602 15.1947 0.541713 61.9846
12065412 6.23627 23.6716 6.11376 25.7679 15.0064 0.479152 61.7896
12065431 6.35959 23.6424 6.14495 25.5341 14.8636 0.407828 61.6811
12065441 6.35959 23.6424 6.14495 25.5341 14.8636 0.407828 61.6811
12065451 6.53575 23.6035 6.22813 25.3003 14.6511 0.337889 61.6677
12065461 6.66788 23.5355 6.24893 25.1054 14.5084 0.280477 61.5577
12065471 6.66788 23.5355 6.24893 25.1054 14.5084 0.280477 61.5577
12065482 6.81762 23.5355 6.34251 25.0275 14.3394 0.247135 61.7231
12065492 7.08187 23.5355 6.50887 24.9106 14.0462 0.193951 62.0368
12065501 7.08187 23.5355 6.50887 24.9106 14.0462 0.193951 62.0368
12065512 7.35492 23.4382 6.59205 24.6573 13.7601 0.1103 62.0425
12065522 7.35492 23.4382 6.59205 24.6573 13.7601 0.1103 62.0425
12065535 7.52228 23.2729 6.67523 24.2092 13.4909 0.0217009 61.6796
12065542 7.83057 23.0978 6.84159 23.8195 13.0887 -0.0651053 61.5895
12065562 8.03316 22.9228 6.86239 23.4298 12.84 -0.162555 61.2481
12065572 8.32383 22.6991 6.99755 23.2447 12.4958 -0.191137 61.2652
12065588 8.32383 22.6991 6.99755 23.2447 12.4958 -0.191137 61.2652
12065594 8.73782 22.6894 7.26789 22.9622 12.0204 -0.291234 61.6572
12065604 8.73782 22.6894 7.26789 22.9622 12.0204 -0.291234 61.6572
12065616 9.14301 22.6213 7.52783 22.7381 11.5623 -0.362327 62.0302
12065624 9.5658 22.5338 7.81896 22.4264 11.0576 -0.446124 62.3449
12065634 9.5658 22.5338 7.81896 22.4264 11.0576 -0.446124 62.3449
12065644 9.93575 22.2906 7.95413 21.8613 10.5824 -0.582895 62.0418
12065654 10.3409 22.1058 8.27645 21.267 9.98362 -0.702513 61.9903
12065675 10.8342 21.8919 8.56758 20.6533 9.34001 -0.848757 61.947
12065686 11.2746 21.6293 8.96269 20.0298 8.65228 -0.947894 61.8964
12065710 11.7415 21.25 9.32661 19.2504 7.89055 -1.07549 61.5685
12065715 11.7415 21.25 9.32661 19.2504 7.89055 -1.07549 61.5685
12065726 12.3228 20.8513 9.95046 18.549 6.94261 -1.13694 61.6735
12065736 13.1155 20.54 10.5535 17.7112 5.88747 -1.30593 61.9203
12065746 13.1155 20.54 10.5535 17.7112 5.88747 -1.30593 61.9203
12065759 13.8819 20.151 11.2086 16.762 4.76692 -1.4666 62.0035
12065766 14.5689 19.6356 11.8844 15.7436 3.60888 -1.59541 61.8325
12065782 14.5689 19.6356 11.8844 15.7436 3.60888 -1.59541 61.8325
12065789 15.2031 18.9354 12.6538 14.6204 2.31988 -1.67659 61.4127
12065796 15.2031 18.9354 12.6538 14.6204 2.31988 -1.67659 61.4127
12065806 15.6699 18.2643 13.4336 13.7352 1.18483 -1.66083 61.1031
12065817 16.1544 17.7294 14.359 13.1355 0.143161 -1.56145 61.3783
12065829 16.1544 17.7294 14.359 13.1355 0.143161 -1.56145 61.3783
12065838 16.5772 17.3307 15.4092 12.6215 -0.821061 -1.42331 61.9385
12065853 16.9736 16.8158 16.4801 12.098 -1.81982 -1.25337 62.3675
12065857 16.9736 16.8158 16.4801 12.098 -1.81982 -1.25337 62.3675
12065877 17.279 16.4106 17.3445 11.5364 -2.6676 -1.15279 62.5706
12065891 17.5979 15.812 18.2206 10.9367 -3.624 -1.01952 62.5673
12065901 17.8669 15.2963 18.9983 10.4608 -4.43455 -0.887268 62.6223
12065907 17.8669 15.2963 18.9983 10.4608 -4.43455 -0.887268 62.6223
12065917 18.126 14.6977 19.6775 9.94681 -5.26797 -0.768511 62.448
12065928 18.3751 14.1912 20.3173 9.40425 -6.05935 -0.685077 62.2879
12065937 18.3751 14.1912 20.3173 9.40425 -6.05935 -0.685077 62.2879
12065951 18.6143 13.6939 20.9079 9.03303 -6.74517 -0.570433 62.2492
12065967 18.7438 13.2059 21.3509 8.56663 -7.40386 -0.492708 61.8672
12065978 19.0029 12.7546 21.8431 8.14782 -8.07453 -0.429153 61.7484
12065989 19.0029 12.7546 21.8431 8.14782 -8.07453 -0.429153 61.7484
12066002 19.1823 12.331 22.1482 7.81467 -8.61507 -0.378288 61.4762
12066010 19.3816 11.9166 22.6306 7.49104 -9.20084 -0.28734 61.4198
12066025 19.3816 11.9166 22.6306 7.49104 -9.20084 -0.28734 61.4198
12066030 19.6208 11.6495 22.9357 7.29115 -9.60037 -0.254496 61.4971
12066039 19.6208 11.6495 22.9357 7.29115 -9.60037 -0.254496 61.4971
12066049 19.9197 11.4377 23.3393 7.1103 -9.99523 -0.220309 61.807
12066059 20.1987 11.1522 23.6445 6.98656 -10.3677 -0.174219 61.982
12066080 20.3083 10.8391 23.9201 6.82475 -10.7302 -0.0975707 61.8923
12066096 20.4777 10.6181 24.2351 6.72956 -11.0236 -0.0317037 62.0605
12066110 20.5076 10.3602 24.5698 6.55823 -11.3552 0.0629425 61.9959
12066121 20.5774 10.0471 24.8454 6.3869 -11.7161 0.147387 61.8568
12066132 20.5774 10.0471 24.8454 6.3869 -11.7161 0.147387 61.8568
12066143 20.7268 9.89057 25.0226 6.39642 -11.873 0.193816 62.0364
12066161 20.7767 9.80769 25.1899 6.36786 -11.985 0.234967 62.1422
12066171 20.8464 9.76165 25.377 6.34882 -12.0773 0.268965 62.3338
12066181 20.8464 9.76165 25.377 6.34882 -12.0773 0.268965 62.3338
12066192 20.8664 9.66035 25.5345 6.3869 -12.1515 0.334994 62.4481
12066201 20.9261 9.513 25.6624 6.24412 -12.3631 0.353048 62.3457
12066215 20.9261 9.513 25.6624 6.24412 -12.3631 0.353048 62.3457
12066222 20.9361 9.39328 25.7904 6.20605 -12.4857 0.401208 62.3258
12066231 20.9361 9.39328 25.7904 6.20605 -12.4857 0.401208 62.3258
12066241 20.9859 9.1078 25.8101 6.10134 -12.7356 0.439725 62.0051
12066251 21.1055 8.93283 25.9676 5.94905 -12.9898 0.454754 61.955
12066265 21.1055 8.93283 25.9676 5.94905 -12.9898 0.454754 61.955
12066272 21.2749 8.72102 26.1644 5.82531 -13.2664 0.482488 61.9857
12066282 21.4642 8.45395 26.1841 5.67301 -13.5659 0.470806 61.7753
12066293 21.4642 8.45395 26.1841 5.67301 -13.5659 0.470806 61.7753
12066302 21.6735 8.20531 26.2826 5.50168 -13.8856 0.463513 61.6631
12066321 21.6735 8.20531 26.2826 5.50168 -13.8856 0.463513 61.6631
12066324 21.7532 7.87378 26.5385 5.37794 -14.2339 0.558005 61.5435
12066332 22.0223 7.72644 26.7255 5.36842 -14.4128 0.568841 61.8427
12066349 22.0223 7.72644 26.7255 5.36842 -14.4128 0.568841 61.8427
12066354 22.2016 7.53304 26.9716 5.19709 -14.7177 0.589796 61.9034
12066364 22.4607 7.41333 26.9913 5.16853 -14.8589 0.552712 62.0339
12066375 22.4607 7.41333 26.9913 5.16853 -14.8589 0.552712 62.0339
12066382 22.6202 7.22914 27.1193 5.04479 -15.1038 0.559904 62.0134
12066403 22.8394 6.98971 27.2866 4.96865 -15.3693 0.586181 62.0844
12066414 23.1383 6.90683 27.3654 4.94961 -15.4936 0.545976 62.3601
12066425 23.1383 6.90683 27.3654 4.94961 -15.4936 0.545976 62.3601
12066434 23.4174 6.79632 27.2571 4.78779 -15.6968 0.441198 62.2586
12066447 23.4971 6.71343 27.2768 4.7402 -15.797 0.435453 62.2275
12066477 23.6864 6.61213 27.4146 4.69261 -15.9425 0.434736 62.4057
12066480 23.6864 6.61213 27.4146 4.69261 -15.9425 0.434736 62.4057
12066485 23.8658 6.46479 27.3851 4.61646 -16.1111 0.402111 62.3321
12066495 24.0551 6.40032 27.3654 4.56887 -16.2091 0.355543 62.3897
12066509 24.0551 6.40032 27.3654 4.56887 -16.2091 0.355543 62.3897
12066515 24.1846 6.3727 27.2866 4.50224 -16.2786 0.296295 62.3462
12066541 24.2046 6.23456 27.2079 4.40705 -16.4255 0.284218 62.0541
12066541 24.2046 6.23456 27.2079 4.40705 -16.4255 0.284218 62.0541
12066546 24.2245 6.15168 27.2276 4.36898 -16.5119 0.295379 61.9727
12066571 24.1846 6.12405 27.3063 4.3785 -16.5293 0.332968 61.9935
12066576 24.2245 6.08722 27.4737 4.36898 -16.5885 0.369464 62.1544
12066586 24.2245 6.08722 27.4737 4.36898 -16.5885 0.369464 62.1544
12066601 24.1547 6.0688 27.5229 4.39754 -16.579 0.40958 62.144
12066607 24.1448 5.97671 27.641 4.46417 -16.6106 0.478172 62.2267
12066633 24.0651 5.9675 27.6705 4.43561 -16.6291 0.500552 62.1387
12066637 24.0651 5.9675 27.6705 4.43561 -16.6291 0.500552 62.1387
12066646 24.0252 5.90303 27.6115 4.46417 -16.6399 0.519497 62.0039
12066658 23.8458 6.04117 27.7001 4.51176 -16.5031 0.561558 62.0988
12066667 23.8458 6.04117 27.7001 4.51176 -16.5031 0.561558 62.0988
12066677 23.7362 5.99512 27.8576 4.5308 -16.5277 0.641584 62.1197
12066687 23.6565 6.15168 28.2021 4.59742 -16.4155 0.716683 62.6077
12066704 23.6565 6.15168 28.2021 4.59742 -16.4155 0.716683 62.6077
12066707 23.5569 6.1701 28.4285 4.67357 -16.3705 0.805784 62.829
12066718 23.5569 6.1701 28.4285 4.67357 -16.3705 0.805784 62.829
12066731 23.3775 6.16089 28.399 4.69261 -16.3352 0.850995 62.6299
12066739 23.2878 6.09642 28.2316 4.67357 -16.3549 0.847886 62.2894
12066761 23.2579 6.0688 28.1627 4.66405 -16.3658 0.844696 62.1535
12066767 23.0487 6.13326 28.1627 4.73068 -16.2494 0.89685 62.0753
12066785 23.0487 6.13326 28.1627 4.73068 -16.2494 0.89685 62.0753
12066789 22.8992 6.21614 28.143 4.77828 -16.1388 0.920257 62.0366
12066799 22.67 6.21614 28.1233 4.86394 -16.0462 0.994243 61.8734
12066811 22.67 6.21614 28.1233 4.86394 -16.0462 0.994243 61.8734
12066819 22.5106 6.35428 28.1922 4.91153 -15.9101 1.02607 61.9686
12066839 22.3113 6.45558 28.1332 5.02576 -15.7298 1.06388 61.9258
12066850 22.1717 6.52925 28.1726 5.06383 -15.6413 1.09838 61.9374
12066860 22.1717 6.52925 28.1726 5.06383 -15.6413 1.09838 61.9374
12066870 21.9924 6.6766 28.3301 5.11142 -15.5104 1.15258 62.1105
12066881 21.823 6.75948 28.458 5.16853 -15.413 1.21625 62.209
12066890 21.823 6.75948 28.458 5.16853 -15.413 1.21625 62.209
12066905 21.6934 6.7779 28.6155 5.32083 -15.3067 1.31354 62.4077
12066920 21.5539 6.92524 28.6549 5.32083 -15.1961 1.32012 62.4549
12066930 21.3646 6.90683 28.6746 5.42553 -15.1138 1.40177 62.3715
12066940 21.3646 6.90683 28.6746 5.42553 -15.1138 1.40177 62.3715
12066961 21.1553 6.9805 28.6451 5.45409 -15.01 1.43729 62.235
12066965 21.0258 6.9805 28.5761 5.5112 -14.9412 1.469 62.0936
12066974 21.0258 6.9805 28.5761 5.5112 -14.9412 1.469 62.0936
12066980 20.8763 7.10022 28.5368 5.57783 -14.7908 1.48284 62.0911
12067001 20.6571 7.15547 28.5663 5.6159 -14.6996 1.54117 61.9948
12067011 20.5176 7.20152 28.586 5.67301 -14.6136 1.58279 61.9781
12067024 20.5176 7.20152 28.586 5.67301 -14.6136 1.58279 61.9781
12067031 20.408 7.31203 28.5761 5.71109 -14.4987 1.58866 62.0072
12067041 20.2585 7.41333 28.7238 5.83483 -14.3556 1.65999 62.2304
12067054 20.2585 7.41333 28.7238 5.83483 -14.3556 1.65999 62.2304
12067061 20.2286 7.50542 28.9699 5.89194 -14.2985 1.70805 62.5958
12067076 20.2286 7.50542 28.9699 5.89194 -14.2985 1.70805 62.5958
12067081 20.119 7.51463 28.9797 5.8729 -14.2876 1.73294 62.4863
12067091 20.0094 7.5883 29.029 5.98712 -14.1594 1.77718 62.6138
12067111 19.9197 7.57909 28.8715 5.98712 -14.1222 1.77039 62.3574
12067129 19.7802 7.52384 28.6155 5.92049 -14.1298 1.7542 61.84
12067142 19.6905 7.60672 28.5072 5.96809 -14.0123 1.74303 61.7725
12067171 19.561 7.65276 28.3891 6.04423 -13.8908 1.75668 61.6471
12067180 19.3916 7.74485 28.3399 6.14894 -13.7272 1.78963 61.6252
12067194 19.262 7.96587 28.4876 6.20605 -13.5565 1.80851 61.9215
12067206 19.1325 8.07638 28.6155 6.31075 -13.4227 1.86306 62.1351
12067214 19.1325 8.07638 28.6155 6.31075 -13.4227 1.86306 62.1351
12067224 19.0528 8.1961 28.6549 6.4916 -13.2301 1.89861 62.3953
12067234 19.0528 8.1961 28.6549 6.4916 -13.2301 1.89861 62.3953
12067244 18.8834 8.2974 28.5269 6.56775 -13.065 1.90619 62.2754
12067258 18.7339 8.41712 28.2907 6.63438 -12.8766 1.87852 62.076
12067274 18.5944 8.59209 28.0151 6.56775 -12.7287 1.79612 61.7693
12067284 18.405 8.69339 27.8083 6.72004 -12.4945 1.80845 61.6268
12067294 18.405 8.69339 27.8083 6.72004 -12.4945 1.80845 61.6268
12067311 18.2456 8.82232 27.7493 6.83427 -12.3023 1.82857 61.6515
12067325 18.0264 8.83153 27.7493 7.05319 -12.1192 1.93266 61.6604
12067338 17.8869 9.01571 27.7099 7.12934 -11.9254 1.92819 61.7418
12067363 17.7573 9.19989 27.4047 7.29115 -11.6259 1.88279 61.6531
12067366 17.6975 9.53142 27.0208 7.54815 -11.1811 1.78162 61.798
12067375 17.6975 9.53142 27.0208 7.54815 -11.1811 1.78162 61.798
12067388 17.4783 9.84453 26.7452 7.7766 -10.7537 1.74606 61.8447
12067411 17.4683 10.1484 26.4007 7.99552 -10.3708 1.63984 62.013
12067415 17.4883 10.4707 25.9577 8.23348 -9.9524 1.50414 62.1502
12067426 17.4883 10.4707 25.9577 8.23348 -9.9524 1.50414 62.1502
12067436 17.4185 10.9036 25.2884 8.6047 -9.32193 1.34315 62.2152
12067446 17.5082 11.3732 24.619 8.97592 -8.71451 1.13166 62.4764
12067457 17.5082 11.3732 24.619 8.97592 -8.71451 1.13166 62.4764
12067467 17.4783 11.9166 23.8709 9.35666 -8.01468 0.918038 62.6224
12067481 17.3787 12.2849 23.1129 9.67077 -7.4206 0.74945 62.4473
12067486 17.3787 12.2849 23.1129 9.67077 -7.4206 0.74945 62.4473
12067496 17.2192 12.7362 22.2368 10.1372 -6.65123 0.582052 62.3294
12067506 17.2192 12.7362 22.2368 10.1372 -6.65123 0.582052 62.3294
12067516 17.0199 13.2059 21.2229 10.6036 -5.81503 0.386948 62.0523
12067528 16.8943 13.6203 20.1204 11.3746 -4.84599 0.237172 62.0096
12067550 16.7005 14.2281 19.0278 12.1456 -3.76585 0.0591266 62.1019
12067557 16.4451 14.799 17.9745 12.9261 -2.6931 -0.082908 62.1447
12067582 16.4451 14.799 17.9745 12.9261 -2.6931 -0.082908 62.1447
12067585 16.172 15.4068 16.9064 13.7923 -1.55728 -0.21199 62.2775
12067588 16.172 15.4068 16.9064 13.7923 -1.55728 -0.21199 62.2775
12067597 15.6876 15.8397 15.7315 14.5347 -0.422657 -0.306102 61.7934
12067610 15.2824 16.4014 14.6606 15.3628 0.737882 -0.40362 61.7072
12067634 14.8067 16.8803 13.6312 16.2385 1.90104 -0.442837 61.5567
12067639 14.1549 17.3501 12.737 17.2046 3.11765 -0.38166 61.4466
12067649 14.1549 17.3501 12.737 17.2046 3.11765 -0.38166 61.4466
12067660 13.644 17.885 11.874 18.208 4.29102 -0.352297 61.6111
12067668 13.644 17.885 11.874 18.208 4.29102 -0.352297 61.6111
12067680 13.0363 18.3907 11.1046 19.0556 5.40107 -0.308544 61.5872
12067689 12.4725 18.8089 10.4807 19.7862 6.35349 -0.247241 61.5484
12067710 11.8824 19.159 9.87768 20.361 7.24542 -0.196487 61.2801
12067720 11.3715 19.4994 9.48257 20.8384 7.9601 -0.134813 61.1919
12067731 11.3715 19.4994 9.48257 20.8384 7.9601 -0.134813 61.1919
12067740 11.0368 19.8204 9.23303 21.4521 8.53181 -0.0419167 61.5423
12067760 11.0368 19.8204 9.23303 21.4521 8.53181 -0.0419167 61.5423
12067763 10.7725 20.0927 8.9211 21.9295 9.04491 -0.00354946 61.7158
12067795 10.5523 20.3747 8.75474 22.3484 9.43736 0.0425881 62.0302
12067797 10.3057 20.5984 8.58838 22.553 9.77401 0.0573671 62.0455
12067805 10.0415 20.8804 8.39083 22.9135 10.1893 0.0921822 62.2262
12067814 10.0415 20.8804 8.39083 22.9135 10.1893 0.0921822 62.2262
12067820 9.82124 21.1819 8.14128 22.9914 10.5458 0.0312656 62.1359
12067836 9.82124 21.1819 8.14128 22.9914 10.5458 0.0312656 62.1359
12067840 9.60104 21.4056 7.94373 23.0401 10.8488 -0.00551552 61.9905
12067850 9.36321 21.6876 7.69419 22.9622 11.1788 -0.0958934 61.7072
12067860 9.36321 21.6876 7.69419 22.9622 11.1788 -0.0958934 61.7072
12067870 9.23109 21.8724 7.48624 22.9914 11.4266 -0.15245 61.5812
12067883 8.95803 22.0378 7.25749 22.933 11.749 -0.197434 61.1862
12067890 8.95803 22.0378 7.25749 22.933 11.749 -0.197434 61.1862
12067900 8.75544 22.4365 7.17431 22.8453 11.9879 -0.287288 61.2115
12067910 8.75544 22.4365 7.17431 22.8453 11.9879 -0.287288 61.2115
12067920 8.64093 22.738 6.91437 22.8355 12.2766 -0.399733 61.1288
12067942 8.47358 22.9908 6.87278 22.816 12.4525 -0.435528 61.1533
12067951 8.38549 23.234 6.76881 22.894 12.6357 -0.478937 61.2823
12067972 8.29741 23.409 6.75841 23.1083 12.774 -0.448181 61.5732
12067975 8.29741 23.409 6.75841 23.1083 12.774 -0.448181 61.5732
12067981 8.32383 23.6133 6.8 23.3226 12.8151 -0.438563 62.0597
12067999 8.32383 23.6133 6.8 23.3226 12.8151 -0.438563 62.0597
12068001 8.21813 23.9342 6.68563 23.4493 13.0363 -0.485837 62.2873
12068011 8.20052 24.0315 6.59205 23.4883 13.1303 -0.51796 62.3123
12068023 8.20052 24.0315 6.59205 23.4883 13.1303 -0.51796 62.3123
12068032 8.13886 24.1676 6.51927 23.4493 13.2311 -0.56313 62.275
12068047 8.06839 24.3621 6.48807 23.4493 13.3302 -0.599627 62.3679
12068062 8.10363 24.5566 6.45688 23.3616 13.3476 -0.682257 62.4787
12068078 8.10363 24.5566 6.45688 23.3616 13.3476 -0.682257 62.4787
12068084 8.09482 24.5566 6.3737 23.2837 13.3897 -0.720786 62.3088
12068105 8.04197 24.615 6.25933 23.1278 13.4749 -0.790528 62.0441
12068114 7.95389 24.6636 6.24893 23.0693 13.5342 -0.799027 61.9358
12068132 7.87461 24.5761 6.17615 23.0986 13.6183 -0.771801 61.7254
12068145 7.72487 24.6344 6.09297 23.1083 13.777 -0.769494 61.5606
12068157 7.61036 24.5955 6.04098 23.2544 13.9016 -0.709858 61.5013
12068165 7.61036 24.5955 6.04098 23.2544 13.9016 -0.709858 61.5013
12068183 7.5399 24.7803 6.03058 23.4883 14.0276 -0.679518 61.8391
12068195 7.37254 24.8678 5.98899 23.6636 14.2059 -0.62716 61.893
12068209 7.27565 25.0915 5.88502 23.761 14.3888 -0.658199 62.0132
12068226 7.13472 25.2471 5.80184 23.9266 14.5858 -0.640805 62.1103
12068236 6.97617 25.3055 5.69786 23.9656 14.77 -0.633994 61.9451
12068247 6.97617 25.3055 5.69786 23.9656 14.77 -0.633994 61.9451
12068263 6.81762 25.4319 5.64587 24.102 14.9484 -0.605265 61.9974
12068267 6.6943 25.5097 5.58349 24.1897 15.0949 -0.588326 61.9772
12068277 6.6943 25.5097 5.58349 24.1897 15.0949 -0.588326 61.9772
12068289 6.57979 25.6459 5.5107 24.3261 15.2594 -0.577378 62.0625
12068297 6.57979 25.6459 5.5107 24.3261 15.2594 -0.577378 62.0625
12068315 6.52694 25.6945 5.46911 24.2384 15.3147 -0.60891 61.929
12068317 6.43005 25.6945 5.38593 24.2871 15.4398 -0.595052 61.7976
12068327 6.43005 25.6945 5.38593 24.2871 15.4398 -0.595052 61.7976
12068341 6.43886 25.7042 5.41713 24.3358 15.4227 -0.579234 61.896
12068357 6.38601 25.714 5.5211 24.4722 15.4119 -0.508911 62.0933
12068368 6.40363 25.6945 5.55229 24.7158 15.4147 -0.440162 62.3662
12068379 6.40363 25.6945 5.55229 24.7158 15.4147 -0.440162 62.3662
12068395 6.41244 25.5195 5.5107 24.7255 15.4106 -0.409135 62.1681
12068399 6.39482 25.3638 5.47951 24.706 15.4153 -0.38094 61.9442
12068409 6.39482 25.3638 5.47951 24.706 15.4153 -0.38094 61.9442
12068426 6.43005 25.1499 5.57309 24.784 15.3102 -0.296162 61.937
12068435 6.33316 24.8776 5.64587 24.8424 15.2924 -0.17564 61.699
12068452 6.33316 24.8776 5.64587 24.8424 15.2924 -0.17564 61.699
12068455 6.22746 24.7511 5.57309 25.1736 15.4411 -0.0563496 61.7253
12068460 6.22746 24.7511 5.57309 25.1736 15.4411 -0.0563496 61.7253
12068472 6.00725 24.4691 5.64587 25.6607 15.5693 0.201573 61.783
12068481 5.90155 24.2941 5.72905 26.1771 15.6358 0.413159 62.1017
12068498 5.90155 24.2941 5.72905 26.1771 15.6358 0.413159 62.1017
12068501 5.91917 24.2065 5.67706 26.5862 15.7065 0.51394 62.389
12068511 5.80466 24.0704 5.74985 26.859 15.754 0.65629 62.4839
12068523 5.80466 24.0704 5.74985 26.859 15.754 0.65629 62.4839
12068532 5.7342 23.8661 5.77064 26.9954 15.7764 0.761402 62.3664
12068547 5.65492 23.5744 5.80184 27.1221 15.7835 0.891652 62.1532
12068562 5.58446 23.5452 5.89541 27.2585 15.7842 0.969168 62.2835
12068584 5.54041 23.3021 5.91621 27.3559 15.7778 1.0697 62.1146
12068596 5.50518 23.127 5.90581 27.5507 15.8107 1.16551 62.0887
12068612 5.49637 22.9228 5.86422 27.7163 15.8382 1.24873 61.9997
12068624 5.46995 22.7866 5.937 27.8722 15.8106 1.34196 62.0658
12068634 5.46995 22.7866 5.937 27.8722 15.8106 1.34196 62.0658
12068645 5.45233 22.6213 6.00979 28.0963 15.7831 1.45525 62.1797
12068654 5.45233 22.6213 6.00979 28.0963 15.7831 1.45525 62.1797
12068670 5.48756 22.3684 6.17615 28.2327 15.6338 1.57862 62.2648
12068674 5.39067 22.0767 6.24893 28.5834 15.6584 1.77328 62.2996
12068684 5.39067 22.0767 6.24893 28.5834 15.6584 1.77328 62.2996
12068695 5.39948 21.7849 6.35291 28.9633 15.5982 1.95163 62.5006
12068705 5.3114 21.4445 6.3633 29.3335 15.6532 2.14744 62.4527
12068720 5.3114 21.4445 6.3633 29.3335 15.6532 2.14744 62.4527
12068724 5.32021 21.25 6.48807 29.4894 15.5606 2.25602 62.5477
12068745 5.29378 21.0652 6.52966 29.5771 15.5361 2.34074 62.4657
12068755 5.32021 20.9193 6.56086 29.6648 15.4898 2.39799 62.4652
12068769 5.32021 20.9193 6.56086 29.6648 15.4898 2.39799 62.4652
12068775 5.34663 20.8221 6.60245 29.7622 15.4458 2.44571 62.5333
12068785 5.35544 20.6957 6.68563 29.6842 15.3549 2.47964 62.421
12068809 5.36425 20.4039 6.64404 29.6745 15.3294 2.54895 62.0867
12068816 5.36425 20.4039 6.64404 29.6745 15.3294 2.54895 62.0867
12068825 5.43471 20.2969 6.8 29.7135 15.1721 2.59824 62.2451
12068840 5.45233 20.1802 6.8104 29.7037 15.134 2.62643 62.1467
12068845 5.45233 20.1802 6.8104 29.7037 15.134 2.62643 62.1467
12068855 5.5228 20.0732 6.87278 29.7037 15.0313 2.6492 62.1725
12068865 5.56684 20.0343 6.90398 29.655 14.9688 2.64426 62.1602
12068875 5.56684 20.0343 6.90398 29.655 14.9688 2.64426 62.1602
12068890 5.68135 19.9662 6.96636 29.7037 14.8522 2.65314 62.3177
12068905 5.69016 19.8593 6.92477 29.8011 14.8717 2.69203 62.2753
12068916 5.79586 19.7717 7.05994 29.8011 14.7036 2.71354 62.4287
12068936 5.86632 19.5772 7.10153 29.655 14.5757 2.72821 62.2001
12068946 6.03368 19.4994 7.18471 29.6063 14.3954 2.70952 62.3241
12068966 6.12176 19.3341 7.31988 29.5771 14.2213 2.75235 62.3528
12068990 6.14819 19.159 7.29908 29.4602 14.167 2.76769 62.0665
12068996 6.1658 18.9645 7.35107 29.4699 14.0907 2.83061 61.9513
12069012 6.1658 18.9645 7.35107 29.4699 14.0907 2.83061 61.9513
12069020 6.19223 18.877 7.33028 29.5284 14.0821 2.8556 61.9279
12069027 6.24508 18.8284 7.40306 29.3628 13.9648 2.83615 61.8393
12069048 6.32435 18.7019 7.51743 29.4407 13.8345 2.88746 61.9844
12069057 6.32435 18.7019 7.51743 29.4407 13.8345 2.88746 61.9844
12069072 6.43005 18.7117 7.61101 29.3628 13.6976 2.85727 62.1155
12069081 6.54456 18.6825 7.57982 29.3433 13.6369 2.82285 62.1501
12069090 6.54456 18.6825 7.57982 29.3433 13.6369 2.82285 62.1501
12069102 6.60622 18.663 7.60061 29.0802 13.5336 2.76309 61.9501
12069109 6.64145 18.7019 7.59021 28.8659 13.4856 2.69728 61.7995
12069119 6.64145 18.7019 7.59021 28.8659 13.4856 2.69728 61.7995
12069130 6.70311 18.6533 7.61101 28.7003 13.3942 2.66465 61.6677
12069139 6.72953 18.6533 7.51743 28.7003 13.436 2.63834 61.6006
12069157 6.72953 18.6144 7.51743 28.6223 13.414 2.63383 61.4837
12069159 6.83523 18.6533 7.6526 28.5542 13.2586 2.60592 61.6953
12069170 6.83523 18.6533 7.6526 28.5542 13.2586 2.60592 61.6953
12069184 6.9057 18.7019 7.67339 28.4567 13.1927 2.55658 61.7378
12069190 6.98497 18.6922 7.70459 28.3983 13.1114 2.53132 61.7801
12069200 6.98497 18.6922 7.70459 28.3983 13.1114 2.53132 61.7801
12069210 7.16995 18.6825 7.76697 28.1937 12.9177 2.45293 61.8131
12069220 7.26684 18.6533 7.74618 28.0963 12.8462 2.40978 61.7626
12069235 7.26684 18.6533 7.74618 28.0963 12.8462 2.40978 61.7626
12069241 7.34611 18.6436 7.90214 28.1742 12.7161 2.43772 62.0661
12069261 7.39016 18.6922 7.86055 27.9794 12.6856 2.36366 61.9223
12069271 7.48705 18.7117 7.92294 27.9501 12.587 2.33786 62.0718
12069287 7.48705 18.7117 7.92294 27.9501 12.587 2.33786 62.0718
12069291 7.66321 18.77 7.95413 27.7845 12.4402 2.24509 62.1719
12069301 7.79534 18.7311 8.04771 27.4825 12.235 2.17634 62.0567
12069311 7.79534 18.7311 8.04771 27.4825 12.235 2.17634 62.0567
12069321 7.95389 18.6825 8.11009 27.2487 12.0442 2.11043 61.9952
12069340 7.95389 18.6825 8.11009 27.2487 12.0442 2.11043 61.9952
12069342 8.13005 18.7117 8.16208 27.0344 11.8693 2.02006 62.0382
12069351 8.25337 18.6436 8.24526 26.7324 11.6677 1.95897 61.8746
12069372 8.48238 18.5755 8.40122 26.4401 11.362 1.88616 61.8992
12069382 8.59689 18.4977 8.5052 26.0991 11.1407 1.82574 61.6989
12069402 8.91399 18.5172 8.62997 25.5926 10.7722 1.6523 61.6537
12069422 8.91399 18.5172 8.62997 25.5926 10.7722 1.6523 61.6537
12069424 9.15181 18.3907 8.77554 25.0665 10.3975 1.53934 61.3846
12069434 9.41606 18.381 9.05627 24.4819 9.94151 1.40404 61.3353
12069448 9.41606 18.381 9.05627 24.4819 9.94151 1.40404 61.3353
12069454 9.84767 18.2838 9.26422 24.0241 9.44157 1.25942 61.4197
12069464 10.2088 18.2838 9.64893 23.4298 8.87419 1.11728 61.5713
12069474 10.2088 18.2838 9.64893 23.4298 8.87419 1.11728 61.5713
12069484 10.6052 18.2254 10.1584 22.7089 8.17317 0.981406 61.6979
12069508 10.6052 18.2254 10.1584 22.7089 8.17317 0.981406 61.6979
12069511 11.0632 18.1184 10.7407 21.9295 7.3741 0.846026 61.8518
12069514 11.5301 18.0795 11.4893 21.2476 6.53916 0.752397 62.3464
12069524 11.5301 18.0795 11.4893 21.2476 6.53916 0.752397 62.3464
12069536 12.085 17.992 12.3523 20.3026 5.52244 0.616411 62.7318
12069544 12.543 17.7683 13.2985 19.2212 4.43572 0.527213 62.831
12069561 12.543 17.7683 13.2985 19.2212 4.43572 0.527213 62.831
12069564 13.001 17.3404 14.411 18.1009 3.19363 0.517979 62.8533
12069587 13.3093 16.8711 15.4924 16.9524 2.0047 0.542362 62.6252
12069594 13.6969 16.3185 16.6049 15.9625 0.790644 0.61166 62.5828
12069605 13.6969 16.3185 16.6049 15.9625 0.790644 0.61166 62.5828
12069619 14.0492 15.7199 17.8958 14.8679 -0.542596 0.718297 62.5328
12069625 14.428 15.0569 19.2345 13.7828 -1.92908 0.84775 62.5021
12069635 14.428 15.0569 19.2345 13.7828 -1.92908 0.84775 62.5021
12069650 14.9036 14.3938 20.4945 12.7928 -3.28014 0.956274 62.5848
12069656 14.9036 14.3938 20.4945 12.7928 -3.28014 0.956274 62.5848
12069665 15.3264 13.6571 21.5576 11.8124 -4.57653 1.05524 62.3536
12069675 15.6611 12.9296 22.7487 11.0129 -5.80066 1.24394 62.3523
12069686 15.6611 12.9296 22.7487 11.0129 -5.80066 1.24394 62.3523
12069697 15.943 12.2573 23.9398 10.2324 -6.97147 1.43617 62.3725
12069706 16.2513 11.6311 25.0029 9.68029 -7.96876 1.63048 62.5656
12069716 16.2513 11.6311 25.0029 9.68029 -7.96876 1.63048 62.5656
12069726 16.4098 10.9772 26.1152 9.1187 -8.95431 1.8796 62.621
12069738 16.5596 10.3602 27.198 8.62374 -9.8713 2.12824 62.7416
12069746 16.5596 10.3602 27.198 8.62374 -9.8713 2.12824 62.7416
12069763 16.6036 9.76165 28.143 8.30963 -10.6161 2.40872 62.8179
12069776 16.5332 9.17226 28.8715 7.97648 -11.2927 2.67192 62.5534
12069786 16.5332 8.72102 29.4522 7.70045 -11.8432 2.8599 62.4069
12069796 16.5332 8.72102 29.4522 7.70045 -11.8432 2.8599 62.4069
12069816 16.401 8.38028 30.2102 7.57671 -12.2483 3.11794 62.5682
12069819 16.2865 8.05796 30.7024 7.472 -12.5798 3.31817 62.5189
12069827 16.2865 8.05796 30.7024 7.472 -12.5798 3.31817 62.5189
12069845 16.172 7.81853 31.3028 7.40538 -12.8595 3.52104 62.6988
12069848 16.172 7.81853 31.3028 7.40538 -12.8595 3.52104 62.6988
12069860 15.987 7.50542 31.6178 7.31019 -13.1324 3.70925 62.4205
12069871 15.8461 7.27519 31.8541 7.21501 -13.3501 3.84652 62.1904
12069877 15.8461 7.27519 31.8541 7.21501 -13.3501 3.84652 62.1904
12069896 15.7228 7.04496 32.0017 7.11982 -13.5564 3.96364 61.8893
12069899 15.5995 6.8792 32.0608 7.04367 -13.6959 4.0496 61.5832
12069909 15.5995 6.8792 32.0608 7.04367 -13.6959 4.0496 61.5832
12069921 15.5026 6.71343 32.2577 7.08175 -13.7945 4.17268 61.5554
12069928 15.5026 6.71343 32.2577 7.08175 -13.7945 4.17268 61.5554
12069945 15.4233 6.64897 32.5136 7.05319 -13.8852 4.25733 61.6391
12069948 15.3617 6.68581 32.8384 7.24356 -13.79 4.3541 62.1295
12069959 15.3617 6.68581 32.8384 7.24356 -13.79 4.3541 62.1295
12069970 15.3176 6.64897 33.2617 7.16741 -13.9284 4.43842 62.3957
12069979 15.3352 6.52004 33.6555 7.17693 -14.0752 4.54087 62.6877
12069996 15.3352 6.52004 33.6555 7.17693 -14.0752 4.54087 62.6877
12069998 15.3617 6.34507 33.7736 7.12934 -14.2394 4.59902 62.6097
12070019 15.3617 6.22535 33.8031 7.06271 -14.3615 4.63041 62.4528
12070030 15.3969 6.16089 33.7047 6.97704 -14.4457 4.60896 62.2395
12070040 15.3969 6.16089 33.7047 6.97704 -14.4457 4.60896 62.2395
12070050 15.3528 6.07801 33.6456 6.95801 -14.4929 4.636 62.0345
12070062 15.3088 6.15168 33.7342 6.99608 -14.4295 4.64775 62.1908
12070072 15.3088 6.15168 33.7342 6.99608 -14.4295 4.64775 62.1908
12070085 15.3264 6.19772 33.7342 7.0056 -14.3973 4.62924 62.264
12070090 15.3264 6.19772 33.7342 7.0056 -14.3973 4.62924 62.264
12070105 15.2736 6.23456 33.6752 7.03415 -14.3368 4.62921 62.2174
12070121 15.2472 6.22535 33.8523 7.02464 -14.3744 4.66832 62.3495
12070137 15.2648 6.19772 33.8327 6.98656 -14.4156 4.6619 62.2817
12070141 15.1855 6.19772 33.8031 6.98656 -14.3971 4.68206 62.1729
12070166 15.2736 6.21614 33.872 7.1103 -14.3341 4.68032 62.472
12070171 15.2736 6.21614 33.872 7.1103 -14.3341 4.68032 62.472
12070181 15.3176 6.15168 33.9508 7.08175 -14.4136 4.69504 62.5018
12070197 15.2912 6.21614 34 7.14838 -14.335 4.70213 62.6557
12070201 15.2912 6.21614 34 7.14838 -14.335 4.70213 62.6557
12070211 15.2648 6.21614 34 7.11982 -14.3484 4.70575 62.6007
12070224 15.1062 6.28061 34 7.15789 -14.2569 4.74166 62.5447
12070232 15.1062 6.28061 34 7.15789 -14.2569 4.74166 62.5447
12070248 15.0798 6.20693 33.9409 7.08175 -14.3365 4.75112 62.3094
12070252 15.0798 6.20693 33.9409 7.08175 -14.3365 4.75112 62.3094
12070262 15.0358 6.17931 33.8622 7.1103 -14.3149 4.76561 62.1875
12070274 15.0005 6.05038 33.9114 7.08175 -14.4171 4.82132 62.0441
12070282 15.0005 6.05038 33.9114 7.08175 -14.4171 4.82132 62.0441
12070298 14.9741 6.02275 34 7.05319 -14.4634 4.84843 62.05
12070302 14.9741 5.9675 34 7.10078 -14.4683 4.87389 62.0424
12070324 15.0269 5.98592 34 7.16741 -14.4232 4.86197 62.1803
12070332 15.0269 5.98592 34 7.16741 -14.4232 4.86197 62.1803
12070350 14.9917 6.05038 34 7.20549 -14.3523 4.85884 62.2476
12070352 15.0534 5.97671 34 7.18645 -14.4215 4.85957 62.2165
12070378 15.0534 5.97671 34 7.18645 -14.4215 4.85957 62.2165
12070379 14.9829 5.95829 34 7.13886 -14.4514 4.88023 62.08
12070384 14.9036 5.90303 34 7.1103 -14.4913 4.91876 61.917
12070394 14.9036 5.90303 34 7.1103 -14.4913 4.91876 61.917
12070414 14.9829 5.82936 34 7.07223 -14.5761 4.91075 61.8845
12070417 14.9829 5.82936 34 7.07223 -14.5761 4.91075 61.8845
12070424 14.8332 5.82015 34 7.05319 -14.5689 4.95893 61.7065
12070445 14.8948 5.81094 34 7.06271 -14.5791 4.94353 61.7685
12070447 14.8948 5.81094 34 7.06271 -14.5791 4.94353 61.7685
12070454 14.8948 5.84778 34 7.11982 -14.519 4.94094 61.8624
12070470 14.9036 5.91224 34 7.10078 -14.4915 4.91425 61.9167
12070476 14.9036 5.91224 34 7.10078 -14.4915 4.91425 61.9167
12070484 14.9565 6.00433 34 7.11982 -14.4298 4.87085 62.0806
12070505 14.9036 5.90303 34 6.93897 -14.6009 4.89078 61.7456
12070517 14.9036 5.80173 34 6.95801 -14.6537 4.92658 61.6634
12070541 14.9301 5.77411 34 6.92945 -14.6943 4.9223 61.6336
12070545 14.9653 5.80173 34 6.99608 -14.6396 4.9129 61.7631
12070555 14.9653 5.80173 34 6.99608 -14.6396 4.9129 61.7631
12070567 15.0181 5.92145 34 7.05319 -14.5354 4.86676 61.9928
12070579 15.0093 5.97671 34 7.11982 -14.4563 4.86278 62.1059
12070589 15.0093 5.97671 34 7.11982 -14.4563 4.86278 62.1059
12070596 14.9565 5.98592 34 7.15789 -14.4173 4.88295 62.1003
12070614 14.9565 5.98592 34 7.15789 -14.4173 4.88295 62.1003
12070617 14.9124 5.98592 34 7.1103 -14.44 4.88931 62.0087
12070627 14.8596 6.04117 34 7.16741 -14.3596 4.89784 62.0682
12070650 14.8596 6.04117 34 7.16741 -14.3596 4.89784 62.0682
12070652 14.8155 6.01354 34 7.17693 -14.3636 4.92239 62.006
12070658 14.8332 6.01354 34 7.24356 -14.3243 4.92755 62.0903
12070685 14.8332 6.01354 34 7.24356 -14.3243 4.92755 62.0903
12070689 14.7627 6.1701 34 7.21501 -14.2312 4.89532 62.1478
12070690 14.7627 6.1701 34 7.21501 -14.2312 4.89532 62.1478
12070697 14.701 6.17931 34 7.29115 -14.1667 4.92448 62.1715
12070720 14.613 6.16089 34 7.33875 -14.1329 4.96636 62.1126
12070720 14.613 6.16089 34 7.33875 -14.1329 4.96636 62.1126
12070729 14.5073 6.13326 34 7.2626 -14.18 4.99702 61.9031
12070747 14.428 6.20693 34 7.29115 -14.1014 5.00344 61.9261
12070749 14.428 6.20693 34 7.29115 -14.1014 5.00344 61.9261
12070759 14.4192 6.20693 34 7.25308 -14.124 5.00014 61.8792
12070771 14.4192 6.20693 34 7.25308 -14.124 5.00014 61.8792
12070779 14.287 6.19772 34 7.27212 -14.0945 5.04899 61.7569
12070789 14.2254 6.22535 34 7.35778 -14.0119 5.07383 61.8085
12070799 14.2254 6.22535 34 7.35778 -14.0119 5.07383 61.8085
12070809 14.2518 6.21614 34 7.27212 -14.0766 5.05445 61.7401
12070822 14.2078 6.22535 34 7.2626 -14.069 5.06424 61.6957
12070829 14.2078 6.22535 34 7.2626 -14.069 5.06424 61.6957
12070839 14.3135 6.2714 34 7.35778 -13.9986 5.03036 61.9427
12070848 14.3135 6.2714 34 7.35778 -13.9986 5.03036 61.9427
12070859 14.2606 6.15168 34 7.33875 -14.0768 5.08326 61.751
12070872 14.2518 6.20693 34 7.31971 -14.0523 5.06511 61.7785
12070896 14.3135 6.19772 34 7.31971 -14.069 5.04809 61.8309
12070900 14.3399 6.08722 34 7.3673 -14.1135 5.08303 61.7944
12070909 14.3399 6.08722 34 7.3673 -14.1135 5.08303 61.7944
12070920 14.3487 6.15168 34 7.35778 -14.0803 5.05772 61.8582
12070929 14.3487 6.15168 34 7.35778 -14.0803 5.05772 61.8582
12070939 14.3575 6.11484 34 7.30067 -14.1413 5.05762 61.773
12070949 14.4016 6.10563 34 7.30067 -14.1549 5.04632 61.8079
12070959 14.4016 6.10563 34 7.30067 -14.1549 5.04632 61.8079
12070972 14.3487 6.08722 34 7.30067 -14.1573 5.06946 61.7366
12070978 14.3751 6.08722 34 7.31971 -14.1498 5.06394 61.7821
12070998 14.3751 5.95829 34 7.31971 -14.2317 5.10589 61.6531
12071004 14.4016 6.00433 34 7.34826 -14.1889 5.08688 61.7542
12071022 14.4016 6.0688 34 7.37682 -14.13 5.07052 61.8472
12071030 14.3487 6.17931 34 7.45297 -14.0029 5.06404 61.981
12071039 14.3487 6.17931 34 7.45297 -14.0029 5.06404 61.981
12071055 14.3839 6.40953 34 7.44345 -13.8708 4.97694 62.2369
12071060 14.3839 6.40953 34 7.44345 -13.8708 4.97694 62.2369
12071070 14.287 6.42795 34 7.41489 -13.8598 4.99757 62.1299
12071086 14.199 6.51083 34 7.472 -13.7565 5.00843 62.1818
12071090 14.199 6.51083 34 7.472 -13.7565 5.00843 62.1818
12071100 14.1021 6.45558 34 7.44345 -13.7913 5.05293 62.0011
12071111 14.0228 6.48321 34 7.39586 -13.7895 5.06201 61.9019
12071120 14.0228 6.48321 34 7.39586 -13.7895 5.06201 61.9019
12071138 13.9347 6.474 34 7.48152 -13.7256 5.1073 61.8902
12071151 13.9083 6.50163 33.9902 7.45297 -13.7196 5.10077 61.853
12071163 13.8026 6.56609 34 7.55767 -13.5963 5.13247 61.9263
12071171 13.8026 6.56609 34 7.55767 -13.5963 5.13247 61.9263
12071189 13.8202 6.56609 34 7.64334 -13.5463 5.14038 62.0296
12071191 13.7409 6.65818 34 7.729 -13.4214 5.14982 62.1281
12071201 13.7409 6.65818 34 7.729 -13.4214 5.14982 62.1281
12071215 13.8114 6.65818 34 7.74804 -13.4227 5.13001 62.2176
12071221 13.8114 6.65818 34 7.74804 -13.4227 5.13001 62.2176
12071231 13.7938 6.66739 34 7.75756 -13.4079 5.13424 62.2187
12071244 13.7321 6.65818 34 7.729 -13.4197 5.15267 62.1193
12071252 13.7321 6.65818 34 7.729 -13.4197 5.15267 62.1193
12071269 13.6881 6.66739 34 7.80515 -13.3588 5.17603 62.1606
12071271 13.6529 6.73185 34 7.91937 -13.2422 5.18457 62.3041
12071281 13.6529 6.73185 34 7.91937 -13.2422 5.18457 62.3041
12071295 13.644 6.88841 34 7.90034 -13.1563 5.13381 62.4328
12071301 13.644 6.88841 34 7.90034 -13.1563 5.13381 62.4328
12071311 13.5295 6.95287 34 7.89082 -13.1009 5.14846 62.3732
12071322 13.5119 7.0818 33.9409 7.95745 -12.9671 5.11377 62.4921
12071331 13.5119 7.0818 33.9409 7.95745 -12.9671 5.11377 62.4921
12071345 13.4503 7.12784 33.7539 7.99552 -12.8678 5.09518 62.3275
12071351 13.4591 7.15547 33.6555 7.99552 -12.8336 5.06776 62.2655
12071361 13.4591 7.15547 33.6555 7.99552 -12.8336 5.06776 62.2655
12071372 13.3534 7.24756 33.5767 8.04311 -12.7126 5.06718 62.2208
12071381 13.3534 7.24756 33.5767 8.04311 -12.7126 5.06718 62.2208
12071396 13.2917 7.26598 33.3995 8.10974 -12.6136 5.06346 62.067
12071401 13.2653 7.44095 33.2716 8.243 -12.3965 5.01641 62.2208
12071411 13.2653 7.44095 33.2716 8.243 -12.3965 5.01641 62.2208
12071423 13.2036 7.6896 33.1731 8.46193 -12.0846 4.97579 62.5283
12071432 13.1155 7.74485 33.0747 8.70941 -11.867 5.01011 62.6445
12071452 13.1596 7.97508 33.1042 8.83315 -11.6754 4.94737 63.072
12071462 13.1596 7.97508 33.1042 8.83315 -11.6754 4.94737 63.072
12071475 13.1596 8.11322 32.8778 9.05207 -11.4204 4.90258 63.2027
12071482 13.1772 8.17768 32.5825 9.14726 -11.2685 4.84465 63.0847
12071501 13.1772 8.17768 32.5825 9.14726 -11.2685 4.84465 63.0847
12071502 13.2124 8.35265 32.1199 9.28051 -10.9977 4.72528 62.9655
12071513 13.2124 8.50921 31.4899 9.49944 -10.6415 4.60868 62.7109
12071526 13.2124 8.50921 31.4899 9.49944 -10.6415 4.60868 62.7109
12071533 13.1948 8.76706 30.8303 9.8421 -10.1446 4.4809 62.6343
12071542 13.1948 8.76706 30.8303 9.8421 -10.1446 4.4809 62.6343
12071553 13.1155 9.0065 30.0921 10.1943 -9.61682 4.36583 62.4084
12071564 13.0803 9.2091 29.4424 10.7368 -9.03524 4.29571 62.4686
12071584 13.0363 9.54063 28.6254 11.4507 -8.24792 4.18955 62.653
12071594 13.0363 9.93662 27.5721 12.1932 -7.36337 4.01487 62.7381
12071614 13.001 10.3142 26.253 13.145 -6.29646 3.84675 62.7133
12071629 13.001 10.3142 26.253 13.145 -6.29646 3.84675 62.7133
12071634 12.9306 10.7562 24.6781 14.43 -4.94562 3.68372 62.7949
12071654 12.7104 11.364 22.9456 15.7721 -3.39206 3.49804 62.7921
12071655 12.7104 11.364 22.9456 15.7721 -3.39206 3.49804 62.7921
12071665 12.4902 11.8797 21.1048 17.1559 -1.81994 3.32684 62.6306
12071679 12.1642 12.4323 19.2444 18.9192 -0.0227541 3.24259 62.7601
12071685 12.1642 12.4323 19.2444 18.9192 -0.0227541 3.24259 62.7601
12071695 11.7062 12.9572 17.5709 20.7215 1.74787 3.24728 62.9558
12071715 11.1513 13.5558 15.8563 22.4069 3.55529 3.22916 62.9702
12071730 10.5788 14.1083 14.2862 23.9754 5.24979 3.23466 62.9487
12071738 10.5788 14.1083 14.2862 23.9754 5.24979 3.23466 62.9487
12071746 10.0062 14.5504 12.9657 25.3782 6.73946 3.2879 62.9006
12071757 9.46891 14.9464 11.9364 26.635 8.00805 3.37121 62.9866
12071781 8.97565 15.2687 11.063 27.5702 9.06534 3.43259 62.8775
12071787 8.5 15.5173 10.4495 28.2911 9.90269 3.51907 62.758
12071807 8.26218 15.7015 9.96086 28.749 10.4619 3.52928 62.6735
12071834 7.9715 15.7936 9.56575 29.0413 10.9414 3.56936 62.3721
12071838 7.67202 16.0238 9.337 29.3335 11.3636 3.60162 62.3664
12071848 7.67202 16.0238 9.337 29.3335 11.3636 3.60162 62.3664
12071860 7.47824 16.1712 9.06667 29.4212 11.6868 3.58202 62.1373
12071867 7.26684 16.3462 8.90031 29.7524 12.0176 3.62312 62.2657
12071886 7.26684 16.3462 8.90031 29.7524 12.0176 3.62312 62.2657
12071889 7.09067 16.4014 8.74434 29.8304 12.2436 3.6451 62.0668
12071899 7.09067 16.4014 8.74434 29.8304 12.2436 3.6451 62.0668
12071914 6.85285 16.383 8.60917 29.8401 12.467 3.69946 61.6851
12071919 6.74715 16.6224 8.5052 29.9083 12.6565 3.65244 61.7831
12071929 6.74715 16.6224 8.5052 29.9083 12.6565 3.65244 61.7831
12071940 6.70311 16.7237 8.39083 29.996 12.7908 3.63026 61.8136
12071949 6.62383 16.825 8.29725 29.9375 12.9052 3.59559 61.6836
12071970 6.5886 17 8.22446 30.0642 13.0303 3.56352 61.8772
12071979 6.5886 17 8.22446 30.0642 13.0303 3.56352 61.8772
12071993 6.62383 17.1167 8.13089 30.2298 13.1204 3.53137 62.1012
12071998 6.56218 17.1848 8.19327 30.3662 13.159 3.56605 62.3064
12072020 6.46528 17.3696 8.01651 30.3272 13.3547 3.50013 62.1786
12072030 6.32435 17.3598 7.92294 30.2688 13.4872 3.51692 61.8759
12072050 6.29793 17.4279 7.85015 30.2883 13.5652 3.49456 61.8643
12072065 6.29793 17.4279 7.85015 30.2883 13.5652 3.49456 61.8643
12072071 6.12176 17.496 7.76697 30.3759 13.756 3.52777 61.7607
12072080 6.09534 17.6516 7.69419 30.4441 13.8588 3.48824 61.8853
12072100 5.96321 17.7878 7.6526 30.4636 13.9959 3.48292 61.8672
12072111 5.87513 17.992 7.53823 30.5805 14.1803 3.44876 61.9859
12072120 5.87513 17.992 7.53823 30.5805 14.1803 3.44876 61.9859
12072135 5.81347 18.1865 7.38226 30.6097 14.3569 3.38561 61.992
12072151 5.61088 18.3421 7.29908 30.7461 14.5884 3.40951 61.9982
12072163 5.4171 18.5366 7.2055 30.9605 14.8401 3.43182 62.1197
12072174 5.4171 18.5366 7.2055 30.9605 14.8401 3.43182 62.1197
12072186 5.35544 18.7408 7.10153 31.0871 15 3.39384 62.2849
12072192 5.3114 19.0521 7.07034 31.1748 15.1118 3.32582 62.6086
12072202 5.3114 19.0521 7.07034 31.1748 15.1118 3.32582 62.6086
12072215 5.21451 19.266 6.88318 31.1066 15.3172 3.24376 62.4703
12072224 5.16166 19.3827 6.8208 31.0287 15.3977 3.19865 62.3938
12072244 5.04715 19.6259 6.75841 30.941 15.5362 3.13273 62.3724
12072271 4.8886 19.7231 6.64404 30.941 15.7289 3.12877 62.1967
12072278 4.71244 19.8106 6.50887 30.9994 15.9551 3.14 62.0314
12072299 4.71244 19.8106 6.50887 30.9994 15.9551 3.14 62.0314
12072300 4.62435 19.8982 6.54006 31.1943 16.0336 3.18322 62.2569
12072305 4.49223 20.0246 6.50887 31.4183 16.1912 3.22138 62.444
12072315 4.49223 20.0246 6.50887 31.4183 16.1912 3.22138 62.444
12072331 4.43938 20.1219 6.42569 31.4378 16.2975 3.1964 62.4247
12072336 4.28083 20.1024 6.32171 31.467 16.4732 3.2343 62.172
12072364 4.27202 20.1705 6.32171 31.6327 16.511 3.24821 62.3969
12072366 4.27202 20.1705 6.32171 31.6327 16.511 3.24821 62.3969
12072379 4.18394 20.1608 6.30092 31.584 16.5757 3.26377 62.2296
12072389 4.23679 20.1608 6.28012 31.5937 16.5556 3.24618 62.2714
12072397 4.23679 20.1608 6.28012 31.5937 16.5556 3.24618 62.2714
12072416 4.18394 20.1899 6.28012 31.6911 16.608 3.27148 62.3451
12072418 4.15751 20.2386 6.31132 31.6619 16.6074 3.26534 62.3693
12072427 4.15751 20.2386 6.31132 31.6619 16.6074 3.26534 62.3693
12072443 4.21917 20.365 6.25933 31.6911 16.6218 3.20613 62.5346
12072457 4.1399 20.3844 6.24893 31.6814 16.6829 3.21977 62.4546
12072467 4.15751 20.3747 6.21774 31.7009 16.6933 3.21526 62.4508
12072481 4.15751 20.3747 6.21774 31.7009 16.6933 3.21526 62.4508
12072493 4.10466 20.4622 6.17615 31.7203 16.7705 3.20097 62.4634
12072499 4.10466 20.4817 6.20734 31.6034 16.7368 3.17909 62.3971
12072508 4.10466 20.4817 6.20734 31.6034 16.7368 3.17909 62.3971
12072520 4.1487 20.4525 6.21774 31.5742 16.6926 3.17119 62.3932
12072530 4.20155 20.4817 6.23853 31.6327 16.6552 3.16235 62.5544
12072542 4.20155 20.4817 6.23853 31.6327 16.6552 3.16235 62.5544
12072550 4.30725 20.4817 6.3841 31.6034 16.4846 3.15371 62.7765
12072572 4.30725 20.4817 6.3841 31.6034 16.4846 3.15371 62.7765
12072574 4.27202 20.3844 6.34251 31.3989 16.4945 3.14552 62.3978
12072580 4.3513 20.365 6.23853 31.1358 16.4723 3.05797 62.0906
12072603 4.3513 20.365 6.23853 31.1358 16.4723 3.05797 62.0906
12072605 4.32487 20.3747 6.19694 31.0384 16.5058 3.03603 61.9349
12072610 4.41295 20.2288 6.19694 30.9897 16.4199 3.04347 61.8284
12072620 4.41295 20.2288 6.19694 30.9897 16.4199 3.04347 61.8284
12072631 4.42176 20.2191 6.3737 31.1066 16.311 3.10025 62.1212
12072640 4.42176 20.2191 6.3737 31.1066 16.311 3.10025 62.1212
12072657 4.43057 20.2677 6.34251 31.1358 16.3367 3.08316 62.1766
12072660 4.55389 20.2191 6.44648 31.3112 16.204 3.11479 62.5307
12072670 4.55389 20.2191 6.44648 31.3112 16.204 3.11479 62.5307
12072682 4.62435 20.2483 6.47768 31.2625 16.1344 3.08264 62.6128
12072691 4.70363 20.2288 6.48807 31.2917 16.0769 3.07292 62.7122
12072706 4.70363 20.2288 6.48807 31.2917 16.0769 3.07292 62.7122
12072711 4.75648 20.083 6.60245 31.1845 15.9312 3.10114 62.6264
12072733 4.7829 20.0149 6.56086 31.0189 15.9072 3.0737 62.3775
12072742 4.91503 19.8495 6.61284 30.9605 15.7537 3.08209 62.3379
12072764 4.96788 19.7523 6.67523 30.9215 15.6581 3.09945 62.3169
12072774 5.05596 19.6745 6.7792 30.9117 15.5199 3.11444 62.4214
12072795 5.16166 19.587 6.8104 30.6974 15.3849 3.07419 62.2564
12072806 5.28497 19.5189 6.8104 30.5805 15.2762 3.03572 62.1948
12072817 5.28497 19.5189 6.8104 30.5805 15.2762 3.03572 62.1948
12072825 5.28497 19.4119 6.90398 30.5123 15.1881 3.07167 62.1132
12072845 5.28497 19.4119 6.90398 30.5123 15.1881 3.07167 62.1132
12072847 5.3114 19.266 6.88318 30.4246 15.1474 3.08565 61.8852
12072855 5.3114 19.1299 6.89358 30.5708 15.1423 3.15555 61.9056
12072870 5.3114 19.1299 6.89358 30.5708 15.1423 3.15555 61.9056
12072875 5.40829 19.0326 6.96636 30.6877 15.0357 3.19184 62.0949
12072885 5.44352 18.9159 7.15352 30.8923 14.9071 3.28972 62.4052
12072917 5.50518 18.8478 7.25749 31.0481 14.8157 3.34015 62.6586
12072932 5.48756 18.7408 7.26789 31.0287 14.7997 3.375 62.525
12072942 5.56684 18.5658 7.28868 30.8436 14.6767 3.37259 62.2649
12072946 5.56684 18.5658 7.28868 30.8436 14.6767 3.37259 62.2649
12072958 5.56684 18.3324 7.36147 30.8728 14.5963 3.4607 62.1335
12072968 5.63731 18.2935 7.36147 30.9215 14.5531 3.46037 62.2137
12073000 5.76062 18.2351 7.46544 30.8923 14.3943 3.45497 62.3535
12073001 5.72539 18.1768 7.49664 30.8241 14.3753 3.47586 62.2229
12073009 5.72539 18.1768 7.49664 30.8241 14.3753 3.47586 62.2229
12073032 5.82228 18.1281 7.44465 30.7754 14.3302 3.44285 62.1704
12073034 5.82228 18.1281 7.44465 30.7754 14.3302 3.44285 62.1704
12073039 5.78705 18.0212 7.38226 30.7072 14.362 3.46085 61.8976
12073049 5.80466 18.0601 7.48624 30.7364 14.2966 3.4688 62.0874
12073059 5.80466 18.0601 7.48624 30.7364 14.2966 3.4688 62.0874
12073069 5.8399 18.1087 7.50703 30.6877 14.2612 3.43869 62.1433
12073086 5.85751 18.0406 7.46544 30.6487 14.2578 3.43868 62.0123
12073100 5.87513 18.0698 7.49664 30.6974 14.2404 3.43966 62.139
12073119 5.86632 18.0406 7.51743 30.6292 14.216 3.44212 62.0536
12073129 5.87513 18.1476 7.54862 30.5708 14.1992 3.40268 62.1421
12073139 5.87513 18.1476 7.54862 30.5708 14.1992 3.40268 62.1421
12073149 5.9544 18.2351 7.50703 30.5805 14.1923 3.34746 62.2771
12073166 5.90155 18.3032 7.54862 30.4734 14.1926 3.3307 62.2267
12073179 5.9456 18.3129 7.50703 30.4246 14.1843 3.2979 62.1902
12073193 5.9456 18.3129 7.50703 30.4246 14.1843 3.2979 62.1902
12073200 5.9544 18.2935 7.43425 30.1908 14.1805 3.24306 61.873
12073210 6.06891 18.4102 7.49664 30.1129 14.0757 3.17218 62.0886
12073220 6.06891 18.4102 7.49664 30.1129 14.0757 3.17218 62.0886
12073230 6.11295 18.4491 7.55902 30.1032 14.0139 3.15797 62.2242
12073263 6.1658 18.5074 7.53823 30.1421 14.011 3.12904 62.3536
12073266 6.18342 18.4783 7.47584 29.8791 13.9874 3.07012 62.0166
12073304 6.14819 18.3907 7.47584 29.8304 13.9854 3.0966 61.8451
12073306 6.18342 18.3518 7.52783 29.7719 13.913 3.09642 61.835
12073307 6.18342 18.3518 7.52783 29.7719 13.913 3.09642 61.835
12073311 6.21865 18.3518 7.53823 29.9083 13.9088 3.11432 62.017
12073331 6.21865 18.3421 7.59021 30.0642 13.9023 3.15686 62.2152
12073332 6.21865 18.3421 7.59021 30.0642 13.9023 3.15686 62.2152
12073341 6.19223 18.274 7.56942 30.1226 13.9302 3.19164 62.1583
12073356 6.19223 18.274 7.56942 30.1226 13.9302 3.19164 62.1583
12073361 6.07772 18.2546 7.56942 30.1519 14.0037 3.23647 62.0536
12073371 5.97202 18.1087 7.6318 30.2493 14.0224 3.34086 61.9618
12073392 5.79586 17.992 7.46544 30.298 14.2274 3.40584 61.5513
12073408 5.69896 17.9336 7.52783 30.3077 14.2409 3.46593 61.4682
12073423 5.91036 17.9336 7.67339 30.3564 14.023 3.43906 61.8738
12073442 6.09534 17.9239 7.76697 30.5415 13.8795 3.4389 62.3278
12073460 6.40363 17.9142 7.90214 30.4636 13.5889 3.36163 62.6836
12073462 6.40363 17.9142 7.90214 30.4636 13.5889 3.36163 62.6836
12073472 6.50933 17.7294 8.00612 30.298 13.3956 3.37338 62.5428
12073486 6.65907 17.5543 8.13089 30.0934 13.1562 3.36596 62.4377
12073492 6.65907 17.5543 8.13089 30.0934 13.1562 3.36596 62.4377
12073512 6.74715 17.4571 8.23486 29.6842 12.9417 3.31152 62.1233
12073513 6.74715 17.4571 8.23486 29.6842 12.9417 3.31152 62.1233
12073522 7.0114 17.214 8.37003 29.314 12.5775 3.2609 61.9094
12073537 7.37254 17.0875 8.52599 28.9438 12.1641 3.15109 61.9299
12073552 7.77772 17.0292 8.80673 28.5347 11.6574 3.0253 62.1483
12073571 8.05078 16.8711 9.00428 28.0963 11.2509 2.9454 62.0224
12073572 8.05078 16.8711 9.00428 28.0963 11.2509 2.9454 62.0224
12073591 8.31503 16.6961 9.337 27.6287 10.7592 2.89331 61.9768
12073604 8.58808 16.4382 9.58654 26.859 10.2171 2.78645 61.4719
12073619 8.86114 16.2817 10.0856 26.1284 9.56018 2.70659 61.3568
12073625 8.86114 16.2817 10.0856 26.1284 9.56018 2.70659 61.3568
12073635 9.3456 16.0699 10.6991 25.2418 8.66537 2.57319 61.3564
12073648 9.90933 15.9133 11.7908 24.2287 7.4552 2.47327 61.8421
12073675 10.614 15.7291 13.0697 23.2447 6.10067 2.38709 62.6576
12073676 11.213 15.4345 14.8581 22.0269 4.48209 2.4171 63.5324
12073686 11.213 15.4345 14.8581 22.0269 4.48209 2.4171 63.5324
12073703 11.8295 14.974 16.7297 20.3123 2.63414 2.40544 63.8455
12073706 11.8295 14.974 16.7297 20.3123 2.63414 2.40544 63.8455
12073716 12.4109 14.4399 18.762 18.5782 0.718635 2.45116 64.191
12073731 13.0275 13.786 20.8193 16.5622 -1.3625 2.46935 64.195
12073746 13.644 13.0125 22.7487 14.6965 -3.38671 2.5246 64.1017
12073760 14.199 12.2113 24.6091 13.0022 -5.3086 2.62438 64.0216
12073766 14.199 12.2113 24.6091 13.0022 -5.3086 2.62438 64.0216
12073787 14.6658 11.4101 26.1349 11.5078 -7.01632 2.72296 63.7186
12073797 15.1062 10.5536 27.3063 10.318 -8.50958 2.8359 63.2842
12073814 15.5907 9.85374 28.4482 9.41377 -9.78233 2.94225 63.3064
12073816 15.5907 9.85374 28.4482 9.41377 -9.78233 2.94225 63.3064
12073827 15.943 9.27356 29.0093 8.59518 -10.7781 2.9579 62.821
12073843 16.1808 8.62893 29.4522 8.04311 -11.6206 3.05407 62.3051
12073859 16.2953 8.25135 29.7672 7.59574 -12.2014 3.10524 61.9097
12073878 16.357 7.76327 30.033 7.29115 -12.7496 3.22338 61.4444
12073889 16.4803 7.54225 30.348 7.07223 -13.1072 3.27077 61.4428
12073903 16.4803 7.54225 30.348 7.07223 -13.1072 3.27077 61.4428
12073909 16.4803 7.36728 30.7417 6.93897 -13.3743 3.37238 61.5283
12073919 16.4891 7.20152 31.0863 6.9009 -13.5677 3.47691 61.6778
12073930 16.4891 7.20152 31.0863 6.9009 -13.5677 3.47691 61.6778
12073940 16.5332 7.03575 31.2241 6.82475 -13.7528 3.52494 61.6177
12073959 16.4451 6.85157 31.2536 6.79619 -13.8765 3.60734 61.3465
12073960 16.4451 6.85157 31.2536 6.79619 -13.8765 3.60734 61.3465
12073971 16.6212 6.94366 31.4308 6.72956 -13.9241 3.54688 61.7253
12073987 16.6212 6.94366 31.4308 6.72956 -13.9241 3.54688 61.7253
12073990 16.6653 6.7779 31.6277 6.72956 -14.0717 3.61989 61.8004
12074000 16.7446 6.71343 31.8935 6.65342 -14.2211 3.65025 62.0049
12074020 16.9648 6.58451 32.1199 6.6439 -14.3855 3.66243 62.313
12074030 17.0498 6.43716 32.1592 6.51064 -14.5846 3.66401 62.1569
12074040 17.0498 6.43716 32.1592 6.51064 -14.5846 3.66401 62.1569
12074051 17.3886 6.32665 32.0411 6.44401 -14.7343 3.56183 62.2004
12074070 17.6178 6.28061 31.8147 6.31075 -14.8496 3.4407 62.0239
12074081 17.837 6.33586 31.5391 6.28219 -14.8232 3.30234 61.9942
12074101 18.0862 6.44637 31.1257 6.21557 -14.7679 3.1052 61.8738
12074113 18.2157 6.59372 30.8107 6.20605 -14.6486 2.96168 61.8261
12074121 18.2157 6.59372 30.8107 6.20605 -14.6486 2.96168 61.8261
12074131 18.3154 6.74106 30.7417 6.20605 -14.5595 2.87675 62.0042
12074143 18.3154 6.74106 30.7417 6.20605 -14.5595 2.87675 62.0042
12074152 18.5047 6.65818 30.6433 6.13942 -14.6703 2.81372 61.9456
12074172 18.6043 6.78711 30.4366 6.24412 -14.5032 2.7281 62.0722
12074173 18.6043 6.78711 30.4366 6.24412 -14.5032 2.7281 62.0722
12074182 18.7239 6.89762 30.2988 6.24412 -14.4299 2.63528 62.1644
12074201 18.8236 7.02654 30.2102 6.21557 -14.3682 2.54729 62.2759
12074205 18.8236 7.02654 30.2102 6.21557 -14.3682 2.54729 62.2759
12074216 18.9332 7.10022 29.9739 6.16797 -14.33 2.43871 62.1753
12074229 19.0826 7.10022 29.7377 6.13942 -14.3332 2.34312 62.06
12074234 19.0826 7.14626 29.7377 6.13942 -14.304 2.33026 62.106
12074245 19.2321 7.12784 29.6786 6.08231 -14.3674 2.27 62.1209
12074255 19.2321 7.12784 29.6786 6.08231 -14.3674 2.27 62.1209
12074265 19.3019 7.05417 29.6196 5.93001 -14.5129 2.22763 61.9056
12074289 19.5111 7.00813 29.3932 5.93953 -14.5333 2.13739 61.852
12074292 19.5111 7.00813 29.3932 5.93953 -14.5333 2.13739 61.852
12074295 19.6108 6.81473 29.3636 5.77772 -14.7734 2.1235 61.5669
12074305 19.8499 6.6766 29.4621 5.70157 -14.9675 2.10012 61.6902
12074322 19.8499 6.6766 29.4621 5.70157 -14.9675 2.10012 61.6902
12074325 20.0891 6.52925 29.6885 5.63494 -15.1809 2.10804 61.9418
12074349 20.2984 6.49242 29.6393 5.63494 -15.2301 2.05029 62.065
12074356 20.5574 6.474 29.6294 5.6159 -15.2934 1.9784 62.2768
12074377 20.7268 6.56609 29.4818 5.56831 -15.268 1.8664 62.343
12074386 20.8664 6.64897 29.4719 5.62542 -15.1982 1.81641 62.6127
12074407 20.9361 6.75027 29.3932 5.62542 -15.1318 1.75398 62.705
12074439 20.9162 6.61213 29.3538 5.54927 -15.2602 1.77189 62.4314
12074442 21.0657 6.52925 29.216 5.46361 -15.371 1.70648 62.2745
12074447 21.0657 6.52925 29.216 5.46361 -15.371 1.70648 62.2745
12074467 21.0955 6.45558 29.1077 5.39698 -15.4501 1.6808 62.0558
12074469 21.1653 6.41874 29.1175 5.43505 -15.4615 1.68223 62.1366
12074477 21.1653 6.41874 29.1175 5.43505 -15.4615 1.68223 62.1366
12074495 21.3546 6.42795 29.0979 5.38746 -15.5124 1.61465 62.2679
12074507 21.4642 6.34507 29.1274 5.32083 -15.6309 1.59954 62.2575
12074528 21.6336 6.29903 29.088 5.29227 -15.6991 1.55207 62.313
12074537 21.6934 6.26219 28.901 5.19709 -15.7666 1.48479 62.0537
12074559 21.7134 6.22535 28.7632 5.16853 -15.7921 1.45295 61.8704
12074560 21.7134 6.22535 28.7632 5.16853 -15.7921 1.45295 61.8704
12074569 21.803 6.22535 28.6352 5.13998 -15.8053 1.39477 61.8036
12074587 21.803 6.22535 28.6352 5.13998 -15.8053 1.39477 61.8036
12074588 21.9127 6.1701 28.8222 5.13998 -15.8856 1.42142 62.045
12074599 22.0322 6.25298 29.0683 5.24468 -15.8163 1.4444 62.5982
12074613 22.0322 6.25298 29.0683 5.24468 -15.8163 1.4444 62.5982
12074619 22.1219 6.2714 29.1766 5.29227 -15.8024 1.44973 62.8622
12074629 22.1618 6.30823 29.1077 5.19709 -15.836 1.39421 62.7748
12074649 22.2415 6.32665 28.8518 5.21613 -15.7858 1.31707 62.636
12074663 22.2415 6.32665 28.8518 5.21613 -15.7858 1.31707 62.636
12074670 22.2216 6.24377 28.6352 5.15901 -15.8425 1.28387 62.2596
12074680 22.2315 6.3727 28.4876 5.11142 -15.7689 1.20446 62.2032
12074700 22.1518 6.38191 28.3104 5.12094 -15.7183 1.18557 61.965
12074714 22.112 6.40032 28.1726 5.13998 -15.6669 1.16464 61.8248
12074720 22.112 6.40032 28.1726 5.13998 -15.6669 1.16464 61.8248
12074730 22.0223 6.46479 28.1627 5.22564 -15.5532 1.18818 61.8754
12074745 21.9625 6.52004 28.271 5.20661 -15.5369 1.20926 61.9601
12074751 21.9625 6.52004 28.271 5.20661 -15.5369 1.20926 61.9601
12074761 21.9326 6.69502 28.1627 5.28275 -15.3519 1.16424 62.0731
12074776 21.9326 6.69502 28.1627 5.28275 -15.3519 1.16424 62.0731
12074781 21.7632 6.75027 28.143 5.36842 -15.2308 1.20871 62.0249
12074791 21.6635 6.78711 28.143 5.44457 -15.1418 1.24204 62.0382
12074811 21.544 6.95287 28.2415 5.47312 -15.0131 1.25807 62.2114
12074821 21.544 6.95287 28.2415 5.47312 -15.0131 1.25807 62.2114
12074831 21.3148 7.07259 28.4186 5.62542 -14.8304 1.3591 62.4314
12074858 21.1852 7.13705 28.5466 5.69205 -14.7467 1.41855 62.5609
12074861 21.0158 7.19231 28.4679 5.74916 -14.6344 1.44386 62.4252
12074871 20.7767 7.26598 28.2218 5.78723 -14.482 1.44227 62.0517
12074890 20.7767 7.26598 28.2218 5.78723 -14.482 1.44227 62.0517
12074891 20.4678 7.37649 28.1036 5.80627 -14.3264 1.47334 61.7542
12074901 20.4678 7.37649 28.1036 5.80627 -14.3264 1.47334 61.7542
12074919 20.2087 7.3857 28.084 5.93953 -14.1872 1.56508 61.6179
12074921 19.9297 7.5883 28.3005 6.08231 -13.9576 1.66352 61.9008
12074931 19.9297 7.5883 28.3005 6.08231 -13.9576 1.66352 61.9008
12074951 19.6307 7.6896 28.5761 6.19653 -13.8183 1.80029 62.093
12074952 19.3617 7.80932 28.8813 6.36786 -13.6437 1.94124 62.4201
12074962 19.3617 7.80932 28.8813 6.36786 -13.6437 1.94124 62.4201
12074977 19.1325 7.98429 28.9404 6.48208 -13.4342 1.99211 62.5392
12074982 19.1325 7.98429 28.9404 6.48208 -13.4342 1.99211 62.5392
12074992 18.8535 7.9935 28.9305 6.50112 -13.3631 2.06765 62.2786
12075006 18.694 8.08559 28.8222 6.56775 -13.215 2.07747 62.1696
12075012 18.694 8.08559 28.8222 6.56775 -13.215 2.07747 62.1696
12075022 18.5844 8.08559 28.901 6.58679 -13.1975 2.12792 62.1578
12075035 18.3552 8.14085 29.0191 6.5963 -13.1365 2.20233 62.1115
12075042 18.3552 8.14085 29.0191 6.5963 -13.1365 2.20233 62.1115
12075062 18.2655 8.16847 29.1865 6.62486 -13.1169 2.25976 62.2453
12075063 18.2655 8.16847 29.1865 6.62486 -13.1169 2.25976 62.2453
12075072 18.1559 8.13164 29.3243 6.69149 -13.1041 2.34214 62.3033
12075090 17.9965 8.14085 29.3735 6.77716 -13.025 2.41137 62.288
12075092 17.9965 8.14085 29.3735 6.77716 -13.025 2.41137 62.288
12075105 17.8869 8.15005 29.2947 6.79619 -12.9714 2.42741 62.1278
12075127 17.7075 8.1961 29.2357 6.75812 -12.9202 2.44522 61.8974
12075132 17.4982 8.14085 29.2258 6.72004 -12.9346 2.51038 61.585
12075154 17.4982 8.14085 29.2258 6.72004 -12.9346 2.51038 61.585
12075156 17.3687 8.07638 29.3538 6.77716 -12.9389 2.60309 61.576
12075162 17.279 8.0948 29.5211 6.89138 -12.8726 2.67989 61.7863
12075185 17.279 8.0948 29.5211 6.89138 -12.8726 2.67989 61.7863
12075185 17.2192 8.14085 29.5704 6.89138 -12.8423 2.69363 61.8218
12075192 17.1295 8.14085 29.4818 6.89138 -12.8071 2.70168 61.6435
12075216 17.1295 8.26977 29.4818 7.0056 -12.6586 2.6875 61.8867
12075217 16.9912 8.3987 29.3341 7.03415 -12.5054 2.66646 61.7582
12075233 16.8591 8.57367 29.1865 7.11982 -12.2905 2.64181 61.739
12075243 16.7534 8.63814 29.029 7.25308 -12.1167 2.64875 61.6735
12075270 16.6036 8.71181 28.7632 7.25308 -11.9848 2.61712 61.3317
12075274 16.4451 8.77627 28.5761 7.38634 -11.7918 2.63333 61.1838
12075303 16.357 9.07096 28.4777 7.68141 -11.3994 2.61366 61.5871
12075305 16.357 9.07096 28.4777 7.68141 -11.3994 2.61366 61.5871
12075315 16.2953 9.43012 28.4088 7.99552 -10.9764 2.5782 62.1298
12075340 16.2953 9.89057 28.2808 8.38578 -10.4609 2.50126 62.8525
12075345 16.1456 10.2129 28.1036 8.73796 -10.0073 2.48808 63.2001
12075355 16.0751 10.526 27.5032 9.07111 -9.48993 2.36797 63.1754
12075377 16.0751 10.526 27.5032 9.07111 -9.48993 2.36797 63.1754
12075380 15.9518 10.8023 26.8437 9.23292 -9.0562 2.22562 62.8307
12075386 15.6523 10.8023 26.0759 7.17693 -9.9439 1.70787 59.7074
12075411 15.6523 10.8667 26.0759 9.61366 -8.53893 2.21122 62.2086
12075412 15.4585 11.0509 25.4655 9.9944 -8.01959 2.16651 61.9694
12075416 15.4585 11.0509 25.4655 9.9944 -8.01959 2.16651 61.9694
12075426 15.2648 11.2811 24.7962 10.4989 -7.39029 2.12217 61.841
12075437 15.0269 11.6956 23.9299 11.1461 -6.51924 2.02761 61.7986
12075446 15.0269 11.6956 23.9299 11.1461 -6.51924 2.02761 61.7986
12075461 14.9653 12.1192 23.0637 12.0599 -5.56595 1.93845 62.2081
12075466 14.9653 12.1192 23.0637 12.0599 -5.56595 1.93845 62.2081
12075476 14.8155 12.4599 22.1581 12.9166 -4.65 1.87631 62.3501
12075491 14.6482 12.9204 20.9965 13.9541 -3.50703 1.77115 62.5192
12075496 14.6482 12.9204 20.9965 13.9541 -3.50703 1.77115 62.5192
12075511 14.3839 13.2151 19.7267 15.3247 -2.22298 1.78429 62.6504
12075517 14.0756 13.6203 18.4175 17.0195 -0.733925 1.83923 63.1329
12075544 13.7497 13.8965 17.1673 18.6367 0.636768 1.92854 63.4503
12075547 13.7497 13.8965 17.1673 18.6367 0.636768 1.92854 63.4503
12075557 13.2477 14.136 15.9187 20.1857 2.03004 2.0604 63.488
12075582 12.6927 14.2557 14.8061 21.5983 3.29705 2.23888 63.3528
12075584 12.6927 14.2557 14.8061 21.5983 3.29705 2.23888 63.3528
12075587 12.1642 14.3202 13.7352 22.8063 4.45334 2.39356 63.0259
12075597 11.6269 14.4951 12.945 23.8974 5.48748 2.5539 62.9644
12075618 11.6269 14.4951 12.945 23.8974 5.48748 2.5539 62.9644
12075618 11.1689 14.5412 12.1547 25.0567 6.46608 2.74184 62.9216
12075645 10.6052 14.5964 11.4893 26.1089 7.40879 2.96097 62.7998
12075650 9.97979 14.5964 11.0422 27.161 8.25727 3.25593 62.7794
12075672 9.46891 14.5412 10.5327 27.9501 8.99689 3.47386 62.4929
12075679 9.01088 14.6056 10.1792 28.7003 9.64695 3.66335 62.496
12075698 9.01088 14.6056 10.1792 28.7003 9.64695 3.66335 62.496
12075700 8.57927 14.5043 9.84648 29.2751 10.1895 3.86735 62.2052
12075710 8.14767 14.4307 9.60734 29.9668 10.7166 4.1018 62.1524
12075730 7.73368 14.4583 9.43058 30.6779 11.2246 4.31374 62.3005
12075759 7.3285 14.5228 9.32661 31.204 11.6507 4.49154 62.3819
12075760 7.03782 14.5688 9.06667 31.5547 12.0601 4.58349 62.228
12075770 7.03782 14.5688 9.06667 31.5547 12.0601 4.58349 62.228
12075790 6.72953 14.7069 8.82752 31.7301 12.4528 4.62652 61.9941
12075791 6.49171 14.8174 8.64037 31.847 12.7565 4.65517 61.7965
12075800 6.49171 14.8174 8.64037 31.847 12.7565 4.65517 61.7965
12075819 6.23627 15.0108 8.4844 31.8762 13.0529 4.65368 61.6077
12075822 6.23627 15.0108 8.4844 31.8762 13.0529 4.65368 61.6077
12075830 6.07772 15.1213 8.31804 31.9347 13.2869 4.65088 61.4518
12075848 5.90155 15.2871 8.20367 32.2659 13.5618 4.69059 61.6582
12075860 5.74301 15.4713 8.21407 32.5192 13.7348 4.72633 61.9476
12075876 5.67254 15.4713 8.04771 32.5192 13.8834 4.72116 61.7107
12075880 5.67254 15.6371 8.04771 32.7433 13.9532 4.70561 62.1006
12075890 5.48756 15.9041 7.96453 32.9186 14.1994 4.69487 62.2748
12075911 5.35544 16.0607 7.83976 32.9868 14.4002 4.67777 62.2427
12075930 5.13523 16.2909 7.663 32.9089 14.6785 4.63219 61.998
12075931 5.13523 16.2909 7.663 32.9089 14.6785 4.63219 61.998
12075944 4.95907 16.4014 7.50703 33.0355 14.9309 4.6481 61.903
12075959 4.95907 16.4014 7.38226 33.0355 15.0116 4.62719 61.7783
12075962 4.6772 16.5948 7.38226 33.3278 15.2718 4.70412 61.9821
12075971 4.457 16.8434 7.2055 33.5908 15.6094 4.7094 62.0968
12075991 4.21917 17.0292 7.11193 33.8928 15.8992 4.76034 62.2531
12076001 3.98135 17.0292 6.91437 34 16.2025 4.82129 61.9249
12076012 3.98135 17.0292 6.91437 34 16.2025 4.82129 61.9249
12076021 3.88446 17.1751 6.87278 34 16.3153 4.79877 61.9323
12076037 3.88446 17.1751 6.87278 34 16.3153 4.79877 61.9323
12076041 3.77876 17.2529 6.90398 34 16.3759 4.81283 61.9356
12076062 3.72591 17.3501 6.76881 34 16.5153 4.77634 61.8448
12076071 3.69948 17.5252 6.72722 34 16.5848 4.72203 61.9519
12076093 3.68187 17.5543 6.73761 34 16.5936 4.72007 61.9738
12076095 3.68187 17.5543 6.73761 34 16.5936 4.72007 61.9738
12076102 3.7171 17.5738 6.73761 34 16.5727 4.70269 62.0285
12076125 3.7171 17.5738 6.73761 34 16.5727 4.70269 62.0285
12076131 3.67306 17.5349 6.71682 34 16.6109 4.72562 61.9248
12076132 3.62902 17.5446 6.76881 34 16.6069 4.74517 61.9424
12076157 3.62902 17.5446 6.76881 34 16.6069 4.74517 61.9424
12076158 3.57617 17.5835 6.71682 34 16.6826 4.74101 61.8765
12076186 3.54974 17.7002 6.75841 34 16.6881 4.71915 62.0084
12076187 3.5057 17.7683 6.66483 34 16.7899 4.69596 61.9388
12076194 3.42642 17.71 6.63364 34 16.8568 4.73464 61.77
12076213 3.42642 17.71 6.63364 34 16.8568 4.73464 61.77
12076214 3.33834 17.7975 6.66483 34 16.9069 4.74 61.8007
12076224 3.33834 17.7975 6.66483 34 16.9069 4.74 61.8007
12076240 3.35596 17.9336 6.59205 34 16.9621 4.67888 61.8816
12076244 3.26788 17.9531 6.52966 34 17.0669 4.69033 61.7506
12076254 3.26788 17.9531 6.52966 34 17.0669 4.69033 61.7506
12076270 3.32073 18.167 6.3945 34 17.1502 4.58291 61.8823
12076275 3.27668 18.2838 6.31132 34 17.2517 4.54591 61.8717
12076300 3.30311 18.3421 6.28012 34 17.2623 4.51388 61.9253
12076315 3.26788 18.381 6.24893 33.9221 17.3028 4.49421 61.8199
12076329 3.34715 18.6339 6.22813 33.7954 17.2786 4.36481 62.0046
12076335 3.34715 18.6339 6.22813 33.7954 17.2786 4.36481 62.0046
12076345 3.32073 18.7895 6.25933 33.659 17.2777 4.30644 62.0286
12076357 3.35596 18.8576 6.22813 33.8734 17.31 4.30586 62.315
12076365 3.35596 18.8576 6.22813 33.8734 17.31 4.30586 62.315
12076386 3.40881 19.0326 6.23853 33.9415 17.2971 4.24902 62.6215
12076387 3.40881 19.0326 6.23853 33.9415 17.2971 4.24902 62.6215
12076395 3.35596 19.091 6.24893 33.8636 17.3234 4.23572 62.5595
12076417 3.35596 19.2368 6.20734 33.698 17.3491 4.15513 62.4981
12076426 3.4 19.1979 6.23853 33.5616 17.2766 4.13527 62.3981
12076449 3.40881 19.1493 6.25933 33.5324 17.2469 4.14602 62.3498
12076451 3.40881 19.1493 6.25933 33.5324 17.2469 4.14602 62.3498
12076457 3.49689 19.2757 6.33211 33.698 17.1747 4.12183 62.8027
12076482 3.54093 19.2855 6.3841 33.7467 17.1176 4.1229 62.9572
12076487 3.58497 19.373 6.35291 33.6298 17.1054 4.05733 62.9407
12076497 3.58497 19.373 6.35291 33.6298 17.1054 4.05733 62.9407
12076511 3.56736 19.2952 6.24893 33.3375 17.1406 4.01701 62.449
12076517 3.56736 19.3535 6.19694 33.1622 17.161 3.95911 62.28
12076527 3.56736 19.3535 6.19694 33.1622 17.161 3.95911 62.28
12076538 3.63782 19.2952 6.25933 33.094 17.0551 3.95439 62.2863
12076547 3.63782 19.2952 6.25933 33.094 17.0551 3.95439 62.2863
12076564 3.63782 19.3146 6.26972 33.055 17.0456 3.9434 62.2772
12076567 3.75233 19.3049 6.29052 33.0842 16.957 3.92047 62.432
12076577 3.75233 19.3049 6.29052 33.0842 16.957 3.92047 62.432
12076592 3.76114 19.4216 6.33211 33.0745 16.9369 3.88816 62.5894
12076597 3.76995 19.5092 6.3633 33.016 16.9139 3.85429 62.6584
12076607 3.76995 19.5092 6.3633 33.016 16.9139 3.85429 62.6584
12076618 3.85803 19.5675 6.26972 32.8407 16.9025 3.76221 62.5359
12076647 3.84041 19.5481 6.24893 32.6751 16.9042 3.73975 62.3125
12076649 3.86684 19.655 6.23853 32.753 16.9174 3.71192 62.5134
12076659 3.86684 19.655 6.23853 32.753 16.9174 3.71192 62.5134
12076675 3.84041 19.7717 6.17615 32.6166 16.9745 3.6489 62.4049
12076680 3.84922 19.8009 6.15535 32.4997 16.9713 3.61244 62.3052
12076712 3.89326 19.8106 6.17615 32.3146 16.9049 3.56627 62.1947
12076714 3.89326 19.8106 6.17615 32.3146 16.9049 3.56627 62.1947
12076719 3.89326 19.8593 6.17615 32.2562 16.9036 3.541 62.1848
12076729 3.93731 19.869 6.22813 32.2269 16.8365 3.52918 62.2614
12076755 4.06943 19.9662 6.21774 32.1977 16.7638 3.45384 62.4511
12076764 4.05181 20.0149 6.22813 32.11 16.7635 3.43038 62.4048
12076772 4.05181 20.0149 6.22813 32.11 16.7635 3.43038 62.4048
12076779 4.1487 20.1121 6.25933 32.0808 16.687 3.37358 62.601
12076789 4.1487 20.1121 6.25933 32.0808 16.687 3.37358 62.601
12076800 4.21036 20.0343 6.25933 31.9736 16.6213 3.35839 62.4777
12076810 4.33368 20.1316 6.40489 31.9931 16.4588 3.32454 62.8633
12076830 4.33368 20.1316 6.40489 31.9931 16.4588 3.32454 62.8633
12076831 4.43938 20.0538 6.42569 31.8178 16.3407 3.28763 62.7366
12076840 4.54508 20.0149 6.44648 31.584 16.2194 3.22825 62.5904
12076861 4.63316 20.0635 6.42569 31.3404 16.1476 3.13853 62.4628
12076871 4.63316 20.0635 6.42569 31.3404 16.1476 3.13853 62.4628
12076892 4.61554 19.9857 6.33211 31.0968 16.1755 3.10197 62.0302
12076893 4.73886 19.9273 6.3633 30.9215 16.0396 3.0553 61.951
12076901 4.73886 19.9273 6.3633 30.9215 16.0396 3.0553 61.951
12076920 4.72124 19.8593 6.3841 30.6779 15.9921 3.03723 61.6425
12076921 4.80933 19.8106 6.43609 30.7072 15.8964 3.04144 61.7632
12076931 4.80933 19.8106 6.43609 30.7072 15.8964 3.04144 61.7632
12076951 4.93264 19.7426 6.59205 30.7266 15.705 3.05921 61.9939
12076952 4.93264 19.7426 6.59205 30.7266 15.705 3.05921 61.9939
12076962 4.95907 19.8106 6.48807 30.7266 15.7661 3.01165 61.9844
12076983 5.03834 19.7717 6.61284 30.5221 15.5955 2.98446 61.945
12076984 5.03834 19.7717 6.61284 30.5221 15.5955 2.98446 61.945
12076991 5.11762 19.762 6.52966 30.4246 15.5818 2.92914 61.8339
12077012 5.21451 19.7815 6.64404 30.3857 15.4406 2.91018 62.0257
12077013 5.21451 19.7815 6.64404 30.3857 15.4406 2.91018 62.0257
12077022 5.34663 19.8593 6.69602 30.3662 15.33 2.85611 62.2681
12077051 5.34663 19.8593 6.69602 30.3662 15.33 2.85611 62.2681
12077052 5.4171 19.762 6.75841 30.2298 15.2075 2.84935 62.1673
12077053 5.54922 19.7231 6.8104 30.2298 15.0826 2.83278 62.3125
12077062 5.54922 19.7231 6.8104 30.2298 15.0826 2.83278 62.3125
12077088 5.71658 19.7912 6.8208 29.9278 14.9308 2.70835 62.2564
12077089 5.76062 19.655 6.8104 29.7817 14.8633 2.70363 62.0077
12077102 5.83109 19.5578 6.89358 29.6842 14.7327 2.70846 61.9667
12077127 5.78705 19.5189 6.90398 29.7719 14.7623 2.75161 61.9818
12077132 5.88394 19.5967 7.04954 29.7427 14.6155 2.72469 62.2729
12077166 5.98964 19.5578 6.99755 29.4797 14.5306 2.64325 62.0246
12077167 6.19223 19.4897 7.07034 29.1777 14.2923 2.5592 61.9299
12077184 6.34197 19.3341 7.13272 29.0023 14.1001 2.53812 61.8111
12077206 6.34197 19.3341 7.13272 29.0023 14.1001 2.53812 61.8111
12077207 6.38601 19.2855 7.18471 28.8854 14.0101 2.52633 61.7416
12077213 6.43005 19.2855 7.2159 28.71 13.9312 2.48463 61.6415
12077225 6.43005 19.2855 7.2159 28.71 13.9312 2.48463 61.6415
12077235 6.3772 19.2077 7.15352 28.5444 13.9604 2.47534 61.2828
12077245 6.43005 19.2368 7.19511 28.447 13.8881 2.44056 61.309
12077263 6.43005 19.2368 7.19511 28.447 13.8881 2.44056 61.309
12077265 6.59741 19.3438 7.35107 28.3691 13.6894 2.37885 61.6614
12077275 6.59741 19.3438 7.35107 28.3691 13.6894 2.37885 61.6614
12077289 6.89689 19.3341 7.41346 28.2229 13.4347 2.28038 61.8674
12077295 7.28446 19.4216 7.61101 27.9599 13.041 2.13517 62.277
12077318 7.5487 19.48 7.73578 27.6871 12.7629 2.01617 62.4516
12077326 7.8658 19.4314 7.82936 27.1513 12.3991 1.85062 62.2778
12077356 7.8658 19.4314 7.82936 27.1513 12.3991 1.85062 62.2778
12077358 8.09482 19.4605 7.93333 26.4596 12.0633 1.65564 61.9483
12077359 8.09482 19.4605 7.93333 26.4596 12.0633 1.65564 61.9483
12077365 8.40311 19.3146 8.11009 25.7095 11.5828 1.48734 61.5373
12077392 8.95803 19.3049 8.32844 24.9496 10.9553 1.22237 61.541
12077393 8.95803 19.3049 8.32844 24.9496 10.9553 1.22237 61.541
12077396 9.55699 19.3341 8.64037 24.0046 10.2141 0.915039 61.536
12077406 10.1648 19.2466 9.09786 23.196 9.3914 0.700715 61.7052
12077420 10.1648 19.2466 9.09786 23.196 9.3914 0.700715 61.7052
12077427 10.7813 19.1979 9.52416 22.2023 8.5465 0.424717 61.7057
12077436 11.4155 18.9937 10.096 21.1307 7.54949 0.198936 61.6359
12077460 11.4155 18.9937 10.096 21.1307 7.54949 0.198936 61.6359
12077461 12.129 18.8089 10.8758 19.9129 6.36554 -0.036259 61.7267
12077467 12.129 18.8089 10.8758 19.9129 6.36554 -0.036259 61.7267
12077477 12.7192 18.3518 11.8636 18.7438 5.07183 -0.112735 61.6785
12077501 13.4238 17.9336 13.2257 17.6625 3.59325 -0.113097 62.2456
12077502 13.4238 17.9336 13.2257 17.6625 3.59325 -0.113097 62.2456
12077507 14.0668 17.4085 14.9621 16.6002 1.97492 0.0207013 63.0376
12077517 14.6041 16.8895 17.0591 15.6103 0.325963 0.274864 64.163
12077538 14.6041 16.8895 17.0591 15.6103 0.325963 0.274864 64.163
12077539 15.071 16.1251 19.1459 14.5347 -1.3707 0.574438 64.8768
12077547 15.071 16.1251 19.1459 14.5347 -1.3707 0.574438 64.8768
12077576 15.4409 15.2042 21.2426 13.2592 -3.15444 0.887999 65.147
12077578 15.7845 14.2465 23.0046 12.1075 -4.77223 1.17001 65.1431
12077589 16.0839 13.2703 24.432 10.8987 -6.31791 1.38588 64.6849
12077616 16.2073 12.2113 25.5345 9.9944 -7.63754 1.66786 63.9474
12077617 16.2073 12.2113 25.5345 9.9944 -7.63754 1.66786 63.9474
12077618 16.3482 11.2904 26.568 9.1187 -8.88554 1.90639 63.3253
12077628 16.3482 11.2904 26.568 9.1187 -8.88554 1.90639 63.3253
12077643 16.3218 10.4155 27.4047 8.41433 -9.94971 2.17767 62.5563
12077648 16.3394 9.58667 28.1922 7.89082 -10.9073 2.45698 62.0091
12077659 16.3394 9.58667 28.1922 7.89082 -10.9073 2.45698 62.0091
12077669 16.3306 8.88678 29.1471 7.44345 -11.7895 2.76013 61.8079
12077678 16.313 8.23294 29.8952 7.1103 -12.5362 3.03639 61.5514
12077700 16.2953 7.71723 30.4957 6.87234 -13.1155 3.26376 61.3806
12077721 16.2513 7.13705 31.1355 6.61534 -13.7532 3.52372 61.1392
12077730 16.2513 6.7779 31.6474 6.46305 -14.1715 3.70003 61.1396
12077769 16.2513 6.474 32.1592 6.43449 -14.4743 3.88177 61.319
12077770 16.3218 6.28061 32.553 6.30123 -14.7636 3.96667 61.4566
12077771 16.3218 6.28061 32.553 6.30123 -14.7636 3.96667 61.4566
12077780 16.4363 6.16089 32.8975 6.31075 -14.9106 4.03147 61.8054
12077799 16.4363 6.16089 32.8975 6.31075 -14.9106 4.03147 61.8054
12077800 16.4187 6.05038 33.3306 6.32027 -15.0429 4.14888 62.1199
12077810 16.5155 5.94908 33.6456 6.31075 -15.1797 4.20333 62.421
12077831 16.5684 5.74648 33.6259 6.2346 -15.3651 4.23294 62.1754
12077841 16.6212 5.60834 33.4783 6.13942 -15.5026 4.21719 61.8473
12077861 16.7622 5.58992 33.4488 6.06327 -15.5816 4.16071 61.8641
12077871 16.7622 5.58992 33.4488 6.06327 -15.5816 4.16071 61.8641
12077890 16.9472 5.47941 33.2814 5.92049 -15.7511 4.08302 61.6285
12077891 17.1694 5.53467 33.2814 5.9776 -15.7104 4.00761 61.9631
12077919 17.3189 5.47941 33.3799 5.84435 -15.8712 3.97257 62.0225
12077921 17.5281 5.47021 33.5866 5.86338 -15.9256 3.95166 62.4483
12077932 17.5281 5.47021 33.5866 5.86338 -15.9256 3.95166 62.4483
12077952 17.8072 5.32286 33.5472 5.86338 -16.0568 3.9048 62.5406
12077962 17.9965 5.32286 33.3306 5.70157 -16.1595 3.78006 62.3515
12077983 18.3054 5.23998 33.2224 5.65398 -16.2739 3.68404 62.4217
12077985 18.3054 5.23998 33.2224 5.65398 -16.2739 3.68404 62.4217
12077992 18.6143 5.12947 32.9074 5.43505 -16.4921 3.52702 62.0862
12078015 18.8535 5.12026 32.5727 5.41601 -16.4978 3.39277 61.9624
12078024 18.8535 5.12026 32.5727 5.41601 -16.4978 3.39277 61.9624
12078025 19.1026 5.12947 32.425 5.33035 -16.563 3.27243 61.9874
12078042 19.1026 5.12947 32.425 5.33035 -16.563 3.27243 61.9874
12078045 19.3019 5.17551 32.366 5.26372 -16.5958 3.17652 62.1071
12078055 19.5211 5.22156 32.1986 5.29227 -16.5529 3.07267 62.2335
12078069 19.5211 5.22156 32.1986 5.29227 -16.5529 3.07267 62.2335
12078074 19.4513 5.27681 32.0411 5.26372 -16.5041 3.04112 62.033
12078084 19.3318 5.36891 31.8836 5.28275 -16.3915 3.02237 61.867
12078104 19.1424 5.36891 31.8344 5.38746 -16.288 3.08841 61.7332
12078114 19.1524 5.36891 31.795 5.38746 -16.2839 3.07789 61.7038
12078125 19.1524 5.39653 31.795 5.43505 -16.2336 3.07899 61.779
12078134 19.1125 5.50704 31.7852 5.48264 -16.1212 3.06562 61.8874
12078152 19.1125 5.50704 31.7852 5.48264 -16.1212 3.06562 61.8874
12078154 19.0727 5.58072 31.7753 5.56831 -16.0084 3.07037 61.997
12078165 19.0627 5.74648 32.0805 5.65398 -15.886 3.0999 62.5437
12078185 19.0229 5.87541 32.2872 5.74916 -15.7646 3.13137 62.9346
12078207 18.993 5.91224 32.3266 5.77772 -15.7237 3.14217 63.0095
12078216 18.9631 5.87541 32.3069 5.77772 -15.7402 3.1577 62.9231
12078225 18.9631 5.87541 32.3069 5.77772 -15.7402 3.1577 62.9231
12078235 18.9332 5.81094 32.1494 5.68253 -15.8164 3.13725 62.576
12078245 18.8834 5.71885 32.11 5.65398 -15.8822 3.16561 62.3662
12078265 18.7737 5.73727 32.1691 5.65398 -15.8627 3.2034 62.3341
12078275 18.7737 5.73727 32.1691 5.65398 -15.8627 3.2034 62.3341
12078290 18.714 5.72806 32.3856 5.71109 -15.8544 3.2751 62.5387
12078295 18.6841 5.82015 32.4447 5.7682 -15.7614 3.2787 62.7171
12078305 18.6841 5.82015 32.4447 5.7682 -15.7614 3.2787 62.7171
12078315 18.6043 5.79252 32.3561 5.7682 -15.7546 3.29347 62.5212
12078325 18.5047 5.77411 32.0805 5.66349 -15.7795 3.25651 62.0228
12078342 18.5047 5.77411 32.0805 5.66349 -15.7795 3.25651 62.0228
12078345 18.4748 5.82936 31.9722 5.70157 -15.6976 3.23574 61.9779
12078355 18.4748 5.82936 31.9722 5.70157 -15.6976 3.23574 61.9779
12078373 18.3951 5.84778 31.736 5.71109 -15.6315 3.21062 61.6899
12078375 18.3652 5.94908 31.7163 5.73964 -15.5385 3.19126 61.7702
12078385 18.3652 5.94908 31.7163 5.73964 -15.5385 3.19126 61.7702
12078402 18.2855 6.04117 31.795 5.81579 -15.4283 3.21716 61.9374
12078406 18.2556 6.10563 32.0017 5.8729 -15.3765 3.25699 62.2358
12078432 18.1659 6.22535 32.1691 6.04423 -15.2007 3.31176 62.6045
12078446 18.0064 6.25298 32.051 6.0252 -15.1516 3.32476 62.3356
12078461 17.8669 6.32665 32.11 6.05375 -15.073 3.36051 62.3574
12078467 17.8669 6.32665 32.11 6.05375 -15.073 3.36051 62.3574
12078478 17.7374 6.39112 32.0706 6.15845 -14.9374 3.39187 62.3576
12078491 17.5879 6.474 32.11 6.21557 -14.83 3.42945 62.3875
12078497 17.5879 6.474 32.11 6.21557 -14.83 3.42945 62.3875
12078508 17.3488 6.53846 32.3364 6.29171 -14.7384 3.53695 62.5154
12078527 17.1295 6.61213 32.5431 6.35834 -14.6473 3.63004 62.6432
12078548 16.9824 6.66739 32.6317 6.4916 -14.5186 3.6975 62.7731
12078548 16.9824 6.66739 32.6317 6.4916 -14.5186 3.6975 62.7731
12078557 16.7093 6.75948 32.5431 6.47256 -14.4117 3.73218 62.4845
12078575 16.5684 6.70423 32.2675 6.52016 -14.3455 3.74999 62.0603
12078587 16.5684 6.7779 32.1592 6.52016 -14.2802 3.70808 62.0257
12078609 16.5244 6.86078 32.238 6.61534 -14.1738 3.72797 62.2385
12078619 16.5508 6.97129 32.3364 6.67245 -14.0904 3.71499 62.5309
12078630 16.5508 6.97129 32.3364 6.67245 -14.0904 3.71499 62.5309
12078639 16.5155 7.03575 32.3463 6.6439 -14.0635 3.70287 62.5415
12078658 16.3746 7.10943 32.1199 6.7486 -13.8874 3.701 62.3525
12078685 16.2513 7.33044 31.8738 6.82475 -13.6359 3.64083 62.2803
12078686 16.2513 7.33044 31.8738 6.82475 -13.6359 3.64083 62.2803
12078692 16.1104 7.43174 31.7064 6.91993 -13.4574 3.63953 62.1685
12078700 15.9078 7.59751 31.6375 6.98656 -13.2631 3.65016 62.1294
12078719 15.9078 7.59751 31.6375 6.98656 -13.2631 3.65016 62.1294
12078720 15.6523 7.66197 31.6572 7.10078 -13.1084 3.73202 62.0723
12078730 15.4145 7.85536 31.6671 7.25308 -12.853 3.77479 62.19
12078751 15.4145 7.85536 31.6671 7.25308 -12.853 3.77479 62.19
12078752 15.0974 8.12243 31.5292 7.35778 -12.5374 3.78393 62.1069
12078760 15.0974 8.12243 31.5292 7.35778 -12.5374 3.78393 62.1069
12078781 14.8772 8.26056 31.5391 7.51008 -12.32 3.83796 62.1869
12078782 14.6746 8.31582 31.6671 7.52912 -12.2602 3.90898 62.1866
