784332 15.4282 6.66415 30.22 7.62821 -13.0779 3.94288 59.9406
784343 15.6214 6.63661 30.2791 7.47659 -13.2417 3.87354 60.0137
784352 15.6214 6.63661 30.2791 7.47659 -13.2417 3.87354 60.0137
784362 15.797 6.41631 30.1413 7.3913 -13.4447 3.84611 59.7459
784372 16.0429 6.43467 29.9444 7.23969 -13.5401 3.69749 59.6616
784382 16.0429 6.43467 29.9444 7.23969 -13.5401 3.69749 59.6616
784392 16.2009 6.37959 29.7082 7.04069 -13.69 3.58212 59.3294
784402 16.2009 6.37959 29.7082 7.04069 -13.69 3.58212 59.3294
784413 16.3853 6.35205 29.4621 6.93645 -13.7644 3.46519 59.1359
784423 16.6312 6.31533 29.3439 6.88907 -13.8438 3.36767 59.1796
784433 16.6312 6.31533 29.3439 6.88907 -13.8438 3.36767 59.1796
784443 16.7541 6.17765 29.3243 6.84169 -13.9849 3.35906 59.0977
784453 16.921 6.15929 29.3046 6.77536 -14.0681 3.29605 59.1602
784474 17 6.10421 29.2357 6.85117 -14.0563 3.29001 59.1911
784491 17.0399 6.07667 29.1471 6.75641 -14.1282 3.24982 59.02
784493 17.0399 6.07667 29.1471 6.75641 -14.1282 3.24982 59.02
784503 17.1794 6.18683 29.1175 6.69955 -14.1132 3.15568 59.1833
784513 17.1794 6.18683 29.1175 6.69955 -14.1132 3.15568 59.1833
784523 17.1694 6.30616 29.1569 6.81327 -13.9652 3.15278 59.4457
784534 17.1993 6.43467 29.0782 6.87012 -13.8349 3.10017 59.5823
784556 17.2292 6.61825 29.029 6.8796 -13.7059 3.02759 59.756
784564 17.1893 6.70086 28.8321 6.86065 -13.6196 2.97129 59.5829
784576 17.1893 6.70086 28.8321 6.86065 -13.6196 2.97129 59.5829
784586 17.1395 6.7284 28.6549 6.8796 -13.5459 2.94599 59.4024
784606 17.0498 6.76512 28.4974 6.89855 -13.4619 2.93384 59.2109
784616 17.0199 6.91199 28.4186 6.9175 -13.3331 2.88627 59.2681
784636 16.9737 6.93035 28.2513 6.89855 -13.2913 2.85651 59.0539
784646 16.8507 7.0405 28.1529 6.97436 -13.1267 2.85572 59.0184
784656 16.8507 7.0405 28.1529 6.97436 -13.1267 2.85572 59.0184
784666 16.7629 7.2608 28.2021 7.12598 -12.8801 2.85695 59.3518
784676 16.7629 7.2608 28.2021 7.12598 -12.8801 2.85695 59.3518
784686 16.64 7.40767 28.1922 7.21126 -12.7051 2.86517 59.4511
784697 16.5434 7.53618 28.2021 7.30602 -12.5459 2.87691 59.5877
784707 16.5434 7.53618 28.2021 7.30602 -12.5459 2.87691 59.5877
784717 16.517 7.62797 28.1233 7.3913 -12.4125 2.85862 59.6597
784728 16.3326 7.69222 28.084 7.40078 -12.3189 2.88858 59.5096
784737 16.3326 7.69222 28.084 7.40078 -12.3189 2.88858 59.5096
784747 16.2712 7.7014 28.0347 7.41973 -12.2776 2.89815 59.4271
784757 16.2712 7.7014 28.0347 7.41973 -12.2776 2.89815 59.4271
784767 16.1395 7.75648 28.0249 7.42921 -12.2067 2.92119 59.35
784777 16.1395 7.82073 28.0741 7.43868 -12.1711 2.91374 59.473
784787 16.1395 7.82073 28.0741 7.43868 -12.1711 2.91374 59.473
784797 16.0253 7.82073 28.1233 7.51449 -12.1098 2.97353 59.4839
784807 15.876 7.81155 28.2021 7.57135 -12.0647 3.04885 59.461
784817 15.876 7.81155 28.2021 7.57135 -12.0647 3.04885 59.461
784827 15.8146 7.82991 28.2119 7.62821 -12.0066 3.07533 59.4846
784838 15.8146 7.82991 28.2119 7.62821 -12.0066 3.07533 59.4846
784847 15.7004 7.82073 28.3104 7.60925 -12.0207 3.12878 59.4408
784858 15.6741 7.82073 28.3596 7.64716 -12.0021 3.15419 59.5015
784867 15.6741 7.82073 28.3596 7.64716 -12.0021 3.15419 59.5015
784878 15.6214 7.7473 28.4383 7.66611 -12.0417 3.21215 59.4731
784888 15.4897 7.67387 28.458 7.62821 -12.0868 3.27158 59.2498
784898 15.4897 7.67387 28.458 7.62821 -12.0868 3.27158 59.2498
784908 15.4633 7.61879 28.4974 7.7893 -12.0234 3.33624 59.3688
784928 15.3931 7.71058 28.5368 7.75139 -11.9831 3.32988 59.3918
784939 15.4106 7.82991 28.6647 7.88406 -11.8589 3.33878 59.7894
784948 15.4106 7.82991 28.6647 7.88406 -11.8589 3.33878 59.7894
784958 15.3316 7.89417 28.6352 7.88406 -11.7954 3.33755 59.745
784968 15.2614 7.93089 28.5368 7.93144 -11.7062 3.33788 59.6605
784978 15.2614 7.93089 28.5368 7.93144 -11.7062 3.33788 59.6605
784988 15.2087 7.9676 28.3891 7.97882 -11.6096 3.32316 59.5442
784998 15.2087 7.9676 28.3891 7.97882 -11.6096 3.32316 59.5442
785008 15.1033 8.06857 28.2907 7.93144 -11.5306 3.29585 59.394
785019 15.0243 8.13283 28.2218 7.95987 -11.44 3.29242 59.3387
785029 15.0243 8.13283 28.2218 7.95987 -11.44 3.29242 59.3387
785041 15.0594 8.14201 28.3301 8.01672 -11.4322 3.31128 59.5482
785049 14.9716 8.14201 28.4679 8.07358 -11.4089 3.37637 59.655
785058 14.9716 8.12365 28.4679 8.07358 -11.4201 3.38203 59.6367
785070 14.8926 8.03186 28.5565 8.14939 -11.432 3.46672 59.6303
785079 14.8926 8.03186 28.5565 8.14939 -11.432 3.46672 59.6303
785090 14.8838 8.05939 28.6352 8.13043 -11.4427 3.47247 59.7088
785099 14.796 7.99514 28.6746 8.23467 -11.4073 3.54725 59.7004
785114 14.796 7.99514 28.6746 8.23467 -11.4073 3.54725 59.7004
785123 14.8048 8.07775 28.4974 8.23467 -11.3184 3.48478 59.6146
785132 14.8048 8.07775 28.4974 8.23467 -11.3184 3.48478 59.6146
785138 14.8048 8.25216 28.5466 8.25362 -11.2124 3.44403 59.8571
785149 14.7608 8.26134 28.5761 8.32943 -11.1577 3.47503 59.9278
785159 14.7608 8.26134 28.5761 8.32943 -11.1577 3.47503 59.9278
785170 14.7345 8.22462 28.5072 8.2631 -11.198 3.46844 59.7295
785181 14.6555 8.17873 28.4186 8.24415 -11.1986 3.48637 59.497
785191 14.6555 8.17873 28.4186 8.24415 -11.1986 3.48637 59.497
785201 14.594 8.14201 28.399 8.21572 -11.2194 3.50762 59.3507
785211 14.5677 8.08693 28.4777 8.301 -11.2132 3.5647 59.4333
785221 14.5677 8.08693 28.4777 8.301 -11.2132 3.5647 59.4333
785231 14.5413 8.07775 28.6549 8.24415 -11.2883 3.5989 59.5181
785245 14.5413 8.07775 28.6549 8.24415 -11.2883 3.5989 59.5181
785261 14.5677 8.00432 28.8419 8.32943 -11.3301 3.66552 59.7433
785282 14.5589 7.93089 28.9502 8.31996 -11.4032 3.70994 59.7599
785291 14.5413 7.91253 28.9305 8.301 -11.4175 3.71389 59.6854
785301 14.5413 7.91253 28.9305 8.301 -11.4175 3.71389 59.6854
785311 14.5238 7.80238 29.088 8.37681 -11.4702 3.7979 59.791
785321 14.5238 7.80238 29.088 8.37681 -11.4702 3.7979 59.791
785331 14.515 7.73812 28.9699 8.33891 -11.5039 3.79161 59.5619
785341 14.4974 7.68305 28.9207 8.34838 -11.5168 3.80708 59.4495
785351 14.4974 7.68305 28.9207 8.34838 -11.5168 3.80708 59.4495
785362 14.515 7.68305 29.0486 8.39576 -11.5207 3.83445 59.6424
785372 14.4535 7.68305 29.1077 8.40524 -11.5143 3.86668 59.6495
785382 14.4535 7.59125 29.1077 8.40524 -11.5706 3.89576 59.5577
785392 14.4447 7.50864 29.216 8.40524 -11.6437 3.94493 59.5746
785402 14.4447 7.50864 29.216 8.40524 -11.6437 3.94493 59.5746
785412 14.4184 7.39849 29.1865 8.44314 -11.6757 3.98999 59.4465
785422 14.436 7.49028 29.1963 8.43367 -11.6312 3.95519 59.5562
785433 14.436 7.49028 29.1963 8.43367 -11.6312 3.95519 59.5562
785442 14.5501 7.50864 29.1766 8.55686 -11.5656 3.9323 59.7922
785462 14.5501 7.60043 29.1569 8.52843 -11.5224 3.89435 59.8359
785473 14.6379 7.66469 29.029 8.5379 -11.4684 3.82439 59.8695
785482 14.6379 7.66469 29.029 8.5379 -11.4684 3.82439 59.8695
785492 14.5852 7.71058 28.9305 8.60424 -11.3658 3.82052 59.8306
785502 14.6028 7.67387 28.8222 8.59476 -11.3732 3.80451 59.6937
785512 14.6028 7.67387 28.8222 8.59476 -11.3732 3.80451 59.6937
785522 14.6555 7.77484 28.7336 8.58528 -11.3093 3.73777 59.7492
785532 14.6555 7.77484 28.7336 8.58528 -11.3093 3.73777 59.7492
785542 14.5413 7.76566 28.5761 8.64214 -11.2178 3.75756 59.5253
785552 14.5677 7.91253 28.3005 8.68004 -11.0475 3.65797 59.4608
785562 14.5677 7.91253 28.3005 8.68004 -11.0475 3.65797 59.4608
785573 14.6204 8.07775 28.084 8.76533 -10.8574 3.56469 59.5474
785583 14.6204 8.11447 27.8674 8.76533 -10.7836 3.51149 59.3675
785603 14.5238 8.24298 27.5721 8.86957 -10.5489 3.46444 59.2084
785613 14.5238 8.24298 27.5721 8.86957 -10.5489 3.46444 59.2084
785624 14.4272 8.40821 27.3654 8.98328 -10.3073 3.4249 59.184
785634 14.392 8.62851 27.0799 9.23913 -9.94459 3.36162 59.3396
785644 14.392 8.62851 27.0799 9.23913 -9.94459 3.36162 59.3396
785654 14.2515 8.75702 26.7255 9.40022 -9.64746 3.3273 59.1343
785664 14.234 9.00486 26.3318 9.69398 -9.22428 3.2364 59.2646
785674 14.234 9.00486 26.3318 9.69398 -9.22428 3.2364 59.2646
785686 14.1198 9.2986 25.938 10.092 -8.69127 3.18215 59.4484
785694 13.9706 9.58315 25.5935 10.4047 -8.21814 3.13453 59.5519
785704 13.9706 9.58315 25.5935 10.4047 -8.21814 3.13453 59.5519
785714 13.8476 9.74838 25.249 10.8122 -7.76775 3.13419 59.6571
785724 13.8476 9.74838 25.249 10.8122 -7.76775 3.13419 59.6571
785735 13.6808 9.99622 24.8454 11.2386 -7.23356 3.11415 59.761
785744 13.4788 10.2257 24.304 11.6081 -6.68814 3.07152 59.6167
785754 13.4788 10.2257 24.304 11.6081 -6.68814 3.07152 59.6167
785764 13.2856 10.4644 23.7724 12.0725 -6.09165 3.04428 59.5949
785778 13.0749 10.6847 23.4476 12.3662 -5.65337 3.03515 59.5734
785787 13.0749 10.6847 23.4476 12.3662 -5.65337 3.03515 59.5734
785796 12.952 10.7856 22.9849 12.7263 -5.22506 3.02117 59.4489
785806 12.952 10.7856 22.9849 12.7263 -5.22506 3.02117 59.4489
785816 12.7237 10.9509 22.5518 13.1622 -4.69889 3.04087 59.3886
785826 12.4778 11.162 22.1679 13.5128 -4.20213 3.04472 59.3205
785846 12.3636 11.3915 21.9218 13.8634 -3.79178 3.03076 59.5404
785856 12.1968 11.5383 21.6068 14.1667 -3.40229 3.03444 59.5086
785867 12.1968 11.5383 21.6068 14.1667 -3.40229 3.03444 59.5086
785877 12.0387 11.6577 21.2229 14.5552 -2.96296 3.04711 59.4745
785903 11.828 11.7862 20.7012 14.9437 -2.4466 3.04529 59.2591
785907 11.6436 12.034 20.2189 15.3986 -1.86774 3.02044 59.295
785917 11.6436 12.034 20.2189 15.3986 -1.86774 3.02044 59.295
785927 11.4329 12.3002 19.7956 15.7492 -1.34075 2.9889 59.2778
785937 11.2397 12.4287 19.2739 16.1851 -0.803255 2.99114 59.1273
785947 11.2397 12.4287 19.2739 16.1851 -0.803255 2.99114 59.1273
785957 11.0992 12.6674 18.8703 16.6589 -0.271191 2.97558 59.2957
785967 11.0992 12.6674 18.8703 16.6589 -0.271191 2.97558 59.2957
785977 10.827 12.8418 18.3781 17.0877 0.306252 2.99242 59.1345
785988 10.625 13.0988 17.8958 17.6819 0.952753 2.99838 59.3015
785997 10.625 13.0988 17.8958 17.6819 0.952753 2.99838 59.3015
786009 10.4055 13.4109 17.4233 18.2372 1.60541 2.98708 59.4769
786017 10.4055 13.4109 17.4233 18.2372 1.60541 2.98708 59.4769
786028 10.1596 13.567 17.0295 18.7341 2.14822 3.03505 59.4902
786038 9.99277 13.8974 16.5567 19.0751 2.69775 2.95898 59.5219
786049 9.99277 13.8974 16.5567 19.0751 2.69775 2.95898 59.5219
786058 9.79081 14.0902 16.0206 19.494 3.2716 2.938 59.3956
786069 9.65909 14.338 15.5567 19.8544 3.77753 2.88193 59.4082
786079 9.65909 14.338 15.5567 19.8544 3.77753 2.88193 59.4082
786089 9.52738 14.5859 15.0412 20.059 4.25421 2.78324 59.2135
786099 9.41322 14.8245 14.5464 20.3026 4.72504 2.69381 59.0867
786119 9.34298 14.9989 14.1753 20.6923 5.13979 2.66654 59.2094
786129 9.34298 14.9989 14.1753 20.6923 5.13979 2.66654 59.2094
786139 9.1937 15.1274 13.732 21.004 5.59026 2.64528 59.0571
786151 9.1937 15.4579 13.3711 21.4132 6.01751 2.55723 59.4359
786161 9.1937 15.4579 13.3711 21.4132 6.01751 2.55723 59.4359
786171 8.97417 15.568 13.0515 21.7152 6.43137 2.58591 59.3089
786181 8.85124 15.7333 12.7216 22.0172 6.81754 2.56754 59.3233
786191 8.85124 15.7333 12.7216 22.0172 6.81754 2.56754 59.3233
786201 8.69318 15.9077 12.4227 22.2607 7.19101 2.55108 59.2843
786211 8.69318 15.9077 12.4227 22.2607 7.19101 2.55108 59.2843
786221 8.6405 15.9627 12.134 22.5335 7.47491 2.54703 59.2708
786231 8.44731 16.0821 11.9072 22.855 7.83524 2.58878 59.2916
786241 8.44731 16.0821 11.9072 22.855 7.83524 2.58878 59.2916
786251 8.39463 16.183 11.6495 23.1083 8.1095 2.57353 59.3355
786261 8.18388 16.3116 11.4845 23.4298 8.44682 2.6306 59.4098
786271 8.18388 16.3116 11.4845 23.4298 8.44682 2.6306 59.4098
786281 8.07851 16.4401 11.299 23.7708 8.74054 2.65601 59.5883
786291 8.07851 16.4401 11.299 23.7708 8.74054 2.65601 59.5883
786301 7.9468 16.4309 11.0825 23.9851 8.99429 2.69741 59.4453
786311 7.85021 16.5686 10.866 24.1994 9.26793 2.68474 59.4842
786321 7.85021 16.5686 10.866 24.1994 9.26793 2.68474 59.4842
786331 7.7624 16.6787 10.8144 24.3748 9.42334 2.70368 59.6303
786341 7.7624 16.6787 10.567 24.3748 9.56677 2.65245 59.3829
786351 7.63946 16.6695 10.567 24.4332 9.65124 2.70394 59.3093
786361 7.50775 16.7154 10.5876 24.5989 9.77068 2.76806 59.4097
786381 7.49019 16.7613 10.3505 24.6573 9.94693 2.72268 59.2593
786390 7.49019 16.8164 10.3814 24.8034 9.97967 2.74282 59.4915
786401 7.49019 16.8164 10.3814 24.8034 9.97967 2.74282 59.4915
786416 7.58678 16.9174 10.2371 24.8132 10.0356 2.65626 59.5545
786421 7.58678 16.9174 10.2371 24.8132 10.0356 2.65626 59.5545
786432 7.52531 16.8898 10.1649 24.8229 10.11 2.66974 59.403
786442 7.46384 16.9725 10.1031 24.745 10.1842 2.63436 59.2844
786452 7.46384 16.9725 10.1031 24.745 10.1842 2.63436 59.2844
786462 7.44628 16.9725 10.0825 24.8132 10.2239 2.6495 59.3144
786472 7.4375 17.0292 10 24.8327 10.2971 2.62212 59.2993
786492 7.49019 16.8531 10.0928 24.8619 10.1741 2.68424 59.298
786502 7.36725 16.7981 10.0619 24.8521 10.2494 2.72905 59.0793
786513 7.36725 16.7981 10.0619 24.8521 10.2494 2.72905 59.0793
786526 7.45506 16.7522 10.1753 24.9106 10.1329 2.75208 59.2931
786533 7.45506 16.7522 10.1753 24.9106 10.1329 2.75208 59.2931
786543 7.4375 16.6145 10.1753 24.9009 10.1063 2.79668 59.1281
786554 7.54287 16.6145 10.2474 25.008 10.0282 2.80195 59.4128
786564 7.54287 16.6145 10.2474 25.008 10.0282 2.80195 59.4128
786574 7.47262 16.5135 10.2784 25.0762 10.0432 2.87369 59.3407
786584 7.66581 16.4401 10.3918 25.1639 9.86666 2.87868 59.6615
786604 7.75362 16.3666 10.5155 25.1152 9.7123 2.8896 59.7509
786624 7.79752 16.2748 10.5155 24.9009 9.60801 2.86037 59.4887
786637 7.88533 16.2198 10.6392 24.9301 9.47867 2.88168 59.6744
786646 7.88533 16.2198 10.6392 24.9301 9.47867 2.88168 59.6744
786657 8.00826 16.2289 10.567 24.8229 9.42381 2.80562 59.6271
786666 8.06973 16.1371 10.5979 24.6378 9.29774 2.78307 59.4426
786676 8.06973 16.1371 10.5979 24.6378 9.29774 2.78307 59.4426
786687 8.08729 16.0178 10.5361 24.5989 9.28143 2.79283 59.24
786697 8.10486 15.9168 10.6082 24.4819 9.17146 2.80869 59.1119
786717 8.11364 15.7608 10.6289 24.6086 9.14659 2.88344 59.1119
786727 8.11364 15.7608 10.6289 24.6086 9.14659 2.88344 59.1119
786737 8.08729 15.7424 10.6804 24.7352 9.16104 2.93337 59.2454
786747 8.12242 15.6506 10.7835 24.9788 9.12211 3.0207 59.5354
786767 8.08729 15.669 10.9278 25.1249 9.10347 3.08393 59.8091
786777 8.04339 15.5589 10.9072 25.2321 9.13951 3.14782 59.7416
786787 8.04339 15.5589 10.9072 25.2321 9.13951 3.14782 59.7416
786797 7.99948 15.7057 10.8866 25.3295 9.24093 3.13183 59.9213
786807 7.99948 15.7057 10.8866 25.3295 9.24093 3.13183 59.9213
786817 7.9468 15.5772 10.8041 25.3587 9.29226 3.17629 59.6869
786827 7.85899 15.5405 10.8247 25.2905 9.30328 3.20487 59.5148
786837 7.85899 15.5405 10.8247 25.2905 9.30328 3.20487 59.5148
786848 7.82386 15.5038 10.7629 25.1736 9.31873 3.19136 59.2642
786857 7.78874 15.3569 10.7216 25.1736 9.32411 3.23918 59.0409
786878 7.75362 15.3386 10.7423 25.2516 9.34834 3.27531 59.086
786888 7.75362 15.3386 10.7423 25.2516 9.34834 3.27531 59.086
786898 7.73605 15.2009 10.8247 25.3295 9.29478 3.35515 59.0912
786908 7.75362 15.1917 10.9175 25.4464 9.2595 3.39373 59.3092
786928 7.82386 15.0907 11.0103 25.5146 9.15686 3.43467 59.4395
786938 7.77996 15.0907 11.0619 25.5633 9.16544 3.46777 59.4958
786951 7.77996 15.0907 11.0619 25.5633 9.16544 3.46777 59.4958
786959 7.8063 15.0173 11.1753 25.7679 9.1203 3.54367 59.7667
786970 7.8063 15.0173 11.1753 25.7679 9.1203 3.54367 59.7667
786979 7.7624 14.9897 11.1959 25.7387 9.11851 3.56422 59.6867
786989 7.73605 14.8612 11.3196 25.7484 9.03122 3.63798 59.6653
787000 7.73605 14.8612 11.3196 25.7484 9.03122 3.63798 59.6653
787009 7.77996 14.8521 11.2887 25.7582 9.02397 3.6231 59.6788
787019 7.75362 14.8153 11.3505 25.7192 8.98344 3.64715 59.6387
787029 7.75362 14.8153 11.3505 25.7192 8.98344 3.64715 59.6387
787039 7.77118 14.7603 11.3402 25.7874 8.98283 3.66989 59.659
787049 7.77118 14.7603 11.3402 25.7874 8.98283 3.66989 59.659
787059 7.67459 14.7327 11.4433 25.8264 8.98219 3.7357 59.677
787071 7.65702 14.8245 11.4227 25.914 9.05194 3.72508 59.8183
787079 7.65702 14.8245 11.4227 25.914 9.05194 3.72508 59.8183
787089 7.60434 14.8888 11.3299 25.8848 9.14426 3.69841 59.7078
787099 7.49019 14.8704 11.1959 25.9822 9.30763 3.73308 59.5387
787111 7.49019 14.8704 11.1959 25.9822 9.30763 3.73308 59.5387
787121 7.47262 14.9714 11.1649 26.0894 9.39021 3.72129 59.6984
787131 7.47262 14.9714 11.1649 26.0894 9.39021 3.72129 59.6984
787142 7.34091 14.9622 11.0825 26.0017 9.48879 3.73339 59.3873
787153 7.2531 15.054 11.0619 26.1284 9.60859 3.75222 59.4973
787171 7.24432 15.1274 11.0619 26.0991 9.62512 3.72633 59.5327
787181 7.15651 15.1274 11.0412 26.1673 9.70585 3.76299 59.4925
787201 7.2531 15.2468 11.0619 26.1284 9.65829 3.69166 59.6901
787222 7.23554 15.2284 11 26.1089 9.69475 3.68749 59.5728
787232 7.19163 15.3202 11.0412 26.0115 9.69486 3.66179 59.5645
787242 7.19163 15.3202 11.0412 26.0115 9.69486 3.66179 59.5645
787252 7.34091 15.3569 10.9588 25.8751 9.6303 3.56181 59.5317
787264 7.27944 15.3386 10.9381 25.7484 9.64065 3.55839 59.3046
787272 7.27944 15.3386 10.9381 25.7484 9.64065 3.55839 59.3046
787282 7.26188 15.3386 10.9897 25.651 9.59552 3.55503 59.2411
787292 7.26188 15.3386 10.9897 25.651 9.59552 3.55503 59.2411
787303 7.37603 15.3202 11.0928 25.4562 9.41323 3.5073 59.2452
787315 7.36725 15.3294 11.2784 25.3393 9.28235 3.52048 59.3142
787323 7.36725 15.3294 11.2784 25.3393 9.28235 3.52048 59.3142
787334 7.45506 15.2835 11.3608 25.2418 9.14602 3.50451 59.3412
787343 7.61312 15.2376 11.5773 25.1054 8.88265 3.48511 59.5335
787354 7.61312 15.2376 11.5773 25.1054 8.88265 3.48511 59.5335
787363 7.69215 15.2468 11.732 24.8716 8.68887 3.44242 59.5425
787375 7.69215 15.2468 11.732 24.8716 8.68887 3.44242 59.5425
787383 7.78874 15.1183 11.8557 24.6573 8.46986 3.4347 59.42
787394 7.85021 15.1641 12.0928 24.4819 8.26624 3.41347 59.5891
787403 7.85021 15.1641 12.0928 24.4819 8.26624 3.41347 59.5891
787414 7.96436 15.0907 12.3299 24.2871 7.99518 3.40911 59.6721
787424 8.03461 15.0815 12.4227 24.063 7.83838 3.36472 59.6019
787443 8.1751 14.9806 12.7113 23.9072 7.52887 3.37842 59.7742
787453 8.1751 14.9806 12.7113 23.9072 7.52887 3.37842 59.7742
787463 8.18388 14.8245 12.8557 23.7221 7.34526 3.41589 59.5861
787476 8.28926 14.8704 13.0515 23.459 7.11772 3.35617 59.6702
787485 8.28926 14.8704 13.0515 23.459 7.11772 3.35617 59.6702
787495 8.3156 14.797 13.1649 23.235 6.95291 3.34905 59.5125
787505 8.42097 14.6685 13.3711 22.894 6.64243 3.32974 59.3546
787514 8.42097 14.6685 13.3711 22.894 6.64243 3.32974 59.3546
787525 8.58781 14.6317 13.6186 22.5628 6.30804 3.27312 59.4009
787545 8.59659 14.4849 13.9485 22.2315 5.97832 3.31543 59.2614
787555 8.78977 14.3288 14.2887 21.8321 5.52103 3.29227 59.2394
787566 8.78977 14.3288 14.2887 21.8321 5.52103 3.29227 59.2394
787579 8.85124 14.2646 14.4948 21.647 5.30121 3.2973 59.2577
787586 8.95661 14.1911 14.8454 21.3937 4.96022 3.30662 59.3868
787596 8.95661 14.1911 14.8454 21.3937 4.96022 3.30662 59.3868
787606 9.13223 14.0443 15.1753 21.2476 4.60758 3.33384 59.5993
787618 9.17614 13.9892 15.5052 20.9748 4.30994 3.34845 59.6453
787638 9.29907 13.8882 15.732 20.6728 3.99801 3.32698 59.592
787647 9.29907 13.8882 15.732 20.6728 3.99801 3.32698 59.592
787657 9.34298 13.7322 16.0619 20.3318 3.64021 3.35937 59.4688
787672 9.48347 13.5945 16.4021 19.9032 3.20466 3.34116 59.3832
787682 9.48347 13.5945 16.4021 19.9032 3.20466 3.34116 59.3832
787691 9.61519 13.4568 16.7216 19.4648 2.77797 3.31963 59.2584
787697 9.80837 13.2824 17.2559 18.9192 2.16705 3.31161 59.2659
787719 9.99277 13.0254 17.8072 18.5977 1.60844 3.37918 59.423
787728 9.99277 13.0254 17.8072 18.5977 1.60844 3.37918 59.423
787739 10.186 12.7959 18.3387 18.0911 0.994051 3.39529 59.4117
787749 10.3879 12.5756 18.8506 17.6625 0.420138 3.4172 59.4766
787759 10.3879 12.5756 18.8506 17.6625 0.420138 3.4172 59.4766
787769 10.5372 12.3369 19.4609 17.0877 -0.241275 3.45183 59.4227
787778 10.7567 12.0707 20.1401 16.6304 -0.921033 3.50929 59.598
787791 10.7567 12.0707 20.1401 16.6304 -0.921033 3.50929 59.598
787798 10.8796 11.7311 20.78 16.1661 -1.57933 3.6105 59.5568
787808 10.8796 11.7311 20.78 16.1661 -1.57933 3.6105 59.5568
787820 11.0465 11.4649 21.3804 15.7018 -2.20671 3.66755 59.5936
787830 11.2045 11.2079 22.0203 15.1996 -2.85809 3.72468 59.6323
787839 11.2045 11.2079 22.0203 15.1996 -2.85809 3.72468 59.6323
787850 11.4065 10.9876 22.6306 14.6594 -3.51437 3.74369 59.6841
787859 11.626 10.7673 23.2015 14.0814 -4.18043 3.74259 59.6762
787880 11.8543 10.5929 23.7626 13.5033 -4.82336 3.72248 59.7132
787900 12.0212 10.3083 24.3237 13.0106 -5.45807 3.77234 59.6638
787910 12.2144 10.0697 24.7962 12.5652 -6.02547 3.79175 59.6454
787931 12.3022 9.89525 25.1899 12.0725 -6.52726 3.80046 59.4598
787941 12.5393 9.67495 25.5541 11.7692 -6.99106 3.80663 59.5376
787951 12.5393 9.67495 25.5541 11.7692 -6.99106 3.80663 59.5376
787961 12.7763 9.45464 26.0168 11.4091 -7.51353 3.82058 59.6569
787972 12.7763 9.45464 26.0168 11.4091 -7.51353 3.82058 59.6569
787981 12.9695 9.21598 26.4302 10.9922 -8.04908 3.83428 59.6079
787994 13.1978 9.04158 26.8535 10.6321 -8.52978 3.8291 59.725
788001 13.1978 9.04158 26.8535 10.6321 -8.52978 3.8291 59.725
788011 13.4437 8.78456 27.0996 10.3004 -8.99669 3.81659 59.6283
788021 13.6544 8.66523 27.454 9.98774 -9.3938 3.7956 59.7614
788031 13.6544 8.66523 27.454 9.98774 -9.3938 3.7956 59.7614
788041 13.8476 8.48164 27.6312 9.71293 -9.75486 3.77425 59.6734
788062 14.0496 8.34395 27.8674 9.41918 -10.1181 3.74322 59.6801
788072 14.2867 8.17873 28.0347 9.14437 -10.478 3.70035 59.6445
788082 14.2867 8.17873 28.0347 9.14437 -10.478 3.70035 59.6445
788093 14.4096 8.0135 28.1332 8.9359 -10.7549 3.69275 59.4922
788102 14.5501 7.86663 28.2808 8.81271 -10.9862 3.6994 59.5103
788112 14.5501 7.86663 28.2808 8.81271 -10.9862 3.6994 59.5103
788122 14.673 7.78402 28.3793 8.699 -11.1569 3.68383 59.5353
788132 14.673 7.78402 28.3793 8.699 -11.1569 3.68383 59.5353
788142 14.7433 7.71058 28.5466 8.49052 -11.3836 3.67701 59.491
788152 14.7872 7.7014 28.5269 8.45262 -11.4179 3.65514 59.4681
788172 14.8838 7.72894 28.5663 8.49052 -11.4089 3.63102 59.6695
788182 14.8838 7.75648 28.5466 8.39576 -11.4455 3.60057 59.5826
788194 14.8838 7.75648 28.5466 8.39576 -11.4455 3.60057 59.5826
788204 14.9892 7.76566 28.6057 8.37681 -11.4888 3.57256 59.7373
788224 14.9452 7.71058 28.5368 8.34838 -11.5144 3.58475 59.541
788233 14.9804 7.76566 28.5072 8.24415 -11.5458 3.53091 59.4974
788243 14.9804 7.76566 28.5072 8.24415 -11.5458 3.53091 59.4974
788255 14.954 7.7014 28.4974 8.27258 -11.5596 3.56275 59.4254
788265 14.9365 7.7014 28.4974 8.25362 -11.5673 3.56459 59.3889
788285 14.9101 7.73812 28.5171 8.29153 -11.5199 3.57243 59.4569
788295 14.8311 7.71058 28.6451 8.301 -11.5421 3.6321 59.4877
788315 14.875 7.67387 28.7238 8.25362 -11.6215 3.63584 59.5263
788333 14.875 7.67387 28.7238 8.25362 -11.6215 3.63584 59.5263
788335 14.8662 7.58207 28.773 8.33891 -11.6346 3.69297 59.5602
788345 14.8487 7.61879 28.8715 8.37681 -11.6069 3.7128 59.7157
788355 14.8487 7.61879 28.8715 8.37681 -11.6069 3.7128 59.7157
788365 14.8574 7.57289 28.9896 8.36734 -11.6692 3.74493 59.7872
788386 14.8574 7.60043 29.0486 8.31048 -11.7003 3.73671 59.817
788396 14.7082 7.4811 28.9797 8.35786 -11.696 3.81718 59.5269
788416 14.673 7.53618 28.8321 8.40524 -11.5918 3.79201 59.4465
788427 14.6467 7.62797 28.7829 8.4621 -11.4834 3.77278 59.5196
788436 14.6467 7.62797 28.7829 8.4621 -11.4834 3.77278 59.5196
788447 14.5852 7.71058 28.7238 8.50948 -11.3764 3.76391 59.5291
788457 14.515 7.7014 28.7336 8.5 -11.3739 3.78905 59.45
788467 14.515 7.7014 28.7336 8.5 -11.3739 3.78905 59.45
788477 14.515 7.72894 28.8222 8.57581 -11.3311 3.81127 59.642
788489 14.515 7.72894 28.8222 8.57581 -11.3311 3.81127 59.642
788497 14.436 7.7014 28.9404 8.62319 -11.328 3.87587 59.7009
788507 14.3833 7.64633 29.088 8.65162 -11.3659 3.94267 59.7692
788517 14.3833 7.64633 29.088 8.65162 -11.3659 3.94267 59.7692
788528 14.3306 7.66469 29.088 8.699 -11.3139 3.96231 59.7823
788537 14.3306 7.66469 28.9502 8.699 -11.2823 3.93681 59.6445
788547 14.3306 7.67387 28.9502 8.66109 -11.2998 3.92686 59.6157
788557 14.2867 7.71976 28.9896 8.7369 -11.2248 3.94758 59.7329
788567 14.2867 7.71976 28.9896 8.7369 -11.2248 3.94758 59.7329
788577 14.2164 7.69222 29.0683 8.72742 -11.2492 3.99144 59.7044
788587 14.2779 7.69222 29.0388 8.71795 -11.2623 3.96471 59.7269
788607 14.2691 7.68305 29.0191 8.70847 -11.2671 3.96502 59.6797
788619 14.234 7.68305 29.1077 8.70847 -11.2794 3.99254 59.7332
788628 14.234 7.67387 29.1077 8.71795 -11.2792 3.9972 59.7335
788637 14.2428 7.59125 29.1372 8.70847 -11.344 4.0244 59.6797
788648 14.2428 7.59125 29.1372 8.70847 -11.344 4.0244 59.6797
788659 14.2955 7.57289 29.2554 8.699 -11.3999 4.03342 59.8227
788669 14.4008 7.53618 29.216 8.60424 -11.495 3.98694 59.7572
788680 14.4008 7.53618 29.216 8.60424 -11.495 3.98694 59.7572
788690 14.3745 7.51782 29.1471 8.58528 -11.4963 3.98494 59.6247
788700 14.4272 7.42603 29.1668 8.55686 -11.5863 3.99579 59.5768
788710 14.4272 7.42603 29.1668 8.55686 -11.5863 3.99579 59.5768
788720 14.5325 7.38931 29.1569 8.48105 -11.677 3.95807 59.5598
788732 14.5325 7.38931 29.1569 8.48105 -11.677 3.95807 59.5598
788740 14.5764 7.27916 29.216 8.49052 -11.762 3.99186 59.5621
788751 14.6291 7.24244 29.1372 8.56633 -11.7321 3.98623 59.5751
788770 14.6994 7.3067 29.1569 8.55686 -11.7184 3.94535 59.7198
788779 14.7872 7.35259 29.1471 8.55686 -11.7075 3.9012 59.8437
788790 14.7872 7.35259 29.1471 8.55686 -11.7075 3.9012 59.8437
788799 14.8135 7.527 28.9896 8.58528 -11.5541 3.81396 59.9154
788811 14.8135 7.527 28.9896 8.58528 -11.5541 3.81396 59.9154
788819 14.7433 7.4352 28.8124 8.52843 -11.5895 3.8212 59.5193
788830 14.7257 7.49946 28.6057 8.47157 -11.5343 3.75669 59.3024
788841 14.7257 7.49946 28.6057 8.47157 -11.5343 3.75669 59.3024
788850 14.7345 7.59125 28.5368 8.58528 -11.3943 3.73343 59.4478
788860 14.6994 7.56371 28.5171 8.64214 -11.3638 3.76024 59.4223
788871 14.6994 7.56371 28.5171 8.64214 -11.3638 3.76024 59.4223
788881 14.6994 7.60961 28.4974 8.71795 -11.285 3.75637 59.5243
788891 14.6994 7.60961 28.4974 8.71795 -11.285 3.75637 59.5243
788902 14.6291 7.67387 28.399 8.84114 -11.1319 3.76293 59.5431
788912 14.6116 7.81155 28.3694 8.98328 -10.9518 3.74639 59.7758
788922 14.6116 7.81155 28.3694 8.98328 -10.9518 3.74639 59.7758
788931 14.6204 7.93089 28.3497 9.06856 -10.8266 3.71865 59.9695
788949 14.6204 8.02268 28.3202 9.13489 -10.7254 3.69697 60.0981
788962 14.6204 8.02268 28.3202 9.13489 -10.7254 3.69697 60.0981
788962 14.594 7.99514 28.3694 9.18227 -10.719 3.73188 60.1409
788982 14.5413 7.99514 28.2611 9.09699 -10.7315 3.71194 59.8946
788992 14.5062 7.93089 28.0938 9.07804 -10.7329 3.70786 59.6089
789002 14.5062 7.93089 28.0938 9.07804 -10.7329 3.70786 59.6089
789012 14.515 7.94924 28.0052 9.02118 -10.7369 3.67171 59.4906
789022 14.4711 7.92171 27.9265 8.9738 -10.7525 3.67011 59.293
789033 14.4711 7.92171 27.9265 8.9738 -10.7525 3.67011 59.293
789042 14.4623 7.91253 27.8969 9.04013 -10.7089 3.6828 59.3119
789062 14.3833 7.92171 27.9068 9.09699 -10.6525 3.71753 59.3087
789073 14.4008 7.91253 28.0446 9.18227 -10.6443 3.75717 59.5402
789083 14.4008 7.91253 28.0446 9.18227 -10.6443 3.75717 59.5402
789092 14.4096 7.94924 27.9954 9.24861 -10.573 3.74608 59.6028
789102 14.436 7.9676 28.1135 9.31494 -10.5574 3.76677 59.832
789122 14.4096 8.06857 28.0544 9.4476 -10.3984 3.7572 59.9802
789143 14.3657 8.09611 27.9757 9.48551 -10.3298 3.75466 59.923
789156 14.3394 8.17873 27.8379 9.4476 -10.2631 3.70397 59.8036
789163 14.3394 8.17873 27.8379 9.4476 -10.2631 3.70397 59.8036
789173 14.2603 8.15119 27.6213 9.49498 -10.1782 3.70535 59.5278
789183 14.2076 8.17873 27.5327 9.49498 -10.1267 3.69643 59.4141
789194 14.2076 8.17873 27.5327 9.49498 -10.1267 3.69643 59.4141
789203 14.1111 8.2797 27.3555 9.6087 -9.93101 3.68296 59.355
789223 13.9969 8.27052 27.2079 9.70346 -9.81383 3.71178 59.1787
789234 13.9618 8.37149 27.1193 9.83612 -9.64495 3.69939 59.2887
789243 13.9618 8.37149 27.1193 9.83612 -9.64495 3.69939 59.2887
789256 13.9179 8.44492 27.0307 9.97826 -9.48489 3.70028 59.3717
789264 13.8301 8.53672 26.9618 10.1867 -9.27005 3.72553 59.5153
789274 13.8301 8.53672 26.9618 10.1867 -9.27005 3.72553 59.5153
789285 13.7598 8.67441 26.8929 10.3004 -9.08885 3.71282 59.6275
789295 13.7598 8.67441 26.8929 10.3004 -9.08885 3.71282 59.6275
789306 13.6983 8.75702 26.6862 10.5184 -8.84559 3.70832 59.6599
789315 13.6369 8.83963 26.5188 10.6605 -8.65612 3.69691 59.6559
789326 13.6369 8.83963 26.5188 10.6605 -8.65612 3.69691 59.6559
789335 13.5579 8.95896 26.2334 10.7837 -8.41895 3.65345 59.5339
789345 13.4613 9.05994 25.9479 11.0111 -8.12794 3.641 59.4802
789365 13.3647 9.19762 25.7215 11.1722 -7.8698 3.61564 59.456
789374 13.3647 9.19762 25.7215 11.1722 -7.8698 3.61564 59.456
789385 13.233 9.36285 25.4262 11.3997 -7.5295 3.59213 59.4216
789394 13.1715 9.55562 24.9931 11.665 -7.13307 3.5188 59.3851
789405 13.1715 9.55562 24.9931 11.665 -7.13307 3.5188 59.3851
789415 13.0486 9.75756 24.6584 11.9208 -6.74768 3.47891 59.3853
789435 12.8993 9.85853 24.2843 12.2146 -6.37499 3.47837 59.2567
789445 12.8817 10.1523 23.9201 12.4894 -5.95529 3.37519 59.4435
789456 12.8817 10.1523 23.9201 12.4894 -5.95529 3.37519 59.4435
789466 12.7237 10.2808 23.5067 12.7832 -5.55128 3.36088 59.2943
789476 12.5832 10.5378 23.0932 13.1338 -5.05696 3.31251 59.348
789486 12.5832 10.5378 23.0932 13.1338 -5.05696 3.31251 59.348
789496 12.4514 10.8499 22.601 13.4749 -4.51674 3.22715 59.3773
789506 12.4514 10.8499 22.601 13.4749 -4.51674 3.22715 59.3773
789516 12.2934 11.0794 22.1778 13.7876 -4.04637 3.18327 59.3382
789526 12.1792 11.2905 21.8431 14.1572 -3.6046 3.16055 59.47
789536 12.1792 11.2905 21.8431 14.1572 -3.6046 3.16055 59.47
789546 11.9421 11.419 21.2721 14.432 -3.11659 3.13458 59.0653
789556 11.7841 11.7219 20.6126 14.9058 -2.44348 3.05274 59.0244
789576 11.5646 12.0432 19.9137 15.5786 -1.63134 3.01638 59.1001
789596 11.3011 12.4012 19.4215 16.2419 -0.875744 3.02223 59.3658
789606 11.0816 12.6582 18.9195 16.8484 -0.207761 3.0319 59.5077
789616 11.0816 12.6582 18.9195 16.8484 -0.207761 3.0319 59.5077
789627 10.7567 12.9611 18.4864 17.3312 0.440598 3.04855 59.5355
789636 10.5108 13.1172 18.0139 17.7112 0.970295 3.05723 59.3531
789659 10.3352 13.3742 17.6202 18.1009 1.48059 3.03168 59.4304
789678 10.142 13.4935 17.1969 18.51 1.96513 3.05127 59.3425
789688 10.0103 13.8148 16.6495 18.7828 2.50508 2.93816 59.2574
789697 10.0103 13.8148 16.6495 18.7828 2.50508 2.93816 59.2574
789709 9.86105 14.0443 16.1443 19.153 3.03698 2.88636 59.2027
789718 9.76446 14.2829 15.5876 19.4745 3.55499 2.79516 59.1095
789739 9.62397 14.6226 15.0515 19.9421 4.17334 2.72124 59.2402
789748 9.40444 14.8704 14.6907 20.4195 4.71277 2.73689 59.3851
789758 9.40444 14.8704 14.6907 20.4195 4.71277 2.73689 59.3851
789768 9.29907 15.0999 14.2165 20.8676 5.2334 2.6945 59.4831
789778 9.29907 15.0999 14.2165 20.8676 5.2334 2.6945 59.4831
789788 9.13223 15.2835 13.7526 21.2963 5.75761 2.68222 59.4646
789798 8.91271 15.4946 13.2371 21.6275 6.31509 2.64644 59.2719
789808 8.91271 15.4946 13.2371 21.6275 6.31509 2.64644 59.2719
789818 8.78977 15.7241 12.866 22.1341 6.80615 2.64297 59.5139
789829 8.78977 15.7241 12.866 22.1341 6.80615 2.64297 59.5139
789838 8.53512 15.8985 12.4742 22.4946 7.31607 2.66029 59.4024
789848 8.30682 16.128 12.1237 22.9232 7.82621 2.67615 59.4817
789869 8.04339 16.1739 11.7732 23.2252 8.26745 2.73099 59.2157
789878 7.85021 16.3391 11.433 23.7123 8.75047 2.76972 59.3346
789892 7.85021 16.3391 11.433 23.7123 8.75047 2.76972 59.3346
789899 7.65702 16.5319 11.2371 24.1799 9.15079 2.8256 59.6059
789910 7.41116 16.5319 10.9588 24.1799 9.4538 2.84242 59.0817
789920 7.41116 16.5594 10.9588 24.5599 9.56029 2.91181 59.4892
789930 7.27066 16.7338 10.7629 24.9106 9.89094 2.933 59.678
789940 7.27066 16.7338 10.7629 24.9106 9.89094 2.933 59.678
789950 7.05992 16.7889 10.5155 25.2223 10.2522 2.99288 59.5866
789960 6.84917 16.9174 10.3505 25.5244 10.5808 3.04528 59.6414
789970 6.84917 16.9174 10.3505 25.5244 10.5808 3.04528 59.6414
789980 6.62087 17.0875 10.1546 25.7971 10.9408 3.07828 59.6602
789990 6.62087 17.0875 10.1546 25.7971 10.9408 3.07828 59.6602
790001 6.375 16.9725 10 25.9335 11.1887 3.18468 59.281
790010 6.26963 17.0973 9.86598 26.0894 11.4 3.18308 59.3223
790020 6.26963 17.0973 9.86598 26.0894 11.4 3.18308 59.3223
790030 6.18182 17.1653 9.75258 26.2745 11.5814 3.20339 59.3742
790040 6.15548 17.3307 9.71134 26.5181 11.7147 3.20099 59.7155
790050 6.15548 17.3307 9.71134 26.5181 11.7147 3.20099 59.7155
790060 6.09401 17.4182 9.6701 26.8103 11.8616 3.24245 59.9926
790069 6.09401 17.4182 9.6701 26.8103 11.8616 3.24245 59.9926
790080 6.0062 17.5349 9.59794 26.859 11.9961 3.22907 59.9981
790090 5.97107 17.5738 9.46392 26.859 12.1091 3.20157 59.8678
790110 5.94473 17.7002 9.34021 26.7908 12.2148 3.13322 59.776
790121 6.01498 17.603 9.19588 26.6739 12.2151 3.08934 59.4878
790131 6.01498 17.603 9.19588 26.6739 12.2151 3.08934 59.4878
790141 5.97986 17.6905 9.14433 26.4499 12.2401 3.01795 59.2645
790161 5.95351 17.7002 9.10309 26.333 12.2596 2.99095 59.0898
790171 5.95351 17.8364 9.09278 26.3037 12.2891 2.94154 59.1864
790181 5.95351 17.8364 9.09278 26.3037 12.2891 2.94154 59.1864
790191 6.02376 17.885 9 26.2258 12.297 2.87066 59.1346
790202 6.10279 17.9142 8.96907 26.1381 12.2541 2.81362 59.1242
790212 6.10279 17.9142 8.96907 26.1381 12.2541 2.81362 59.1242
790223 6.1906 17.9336 9.02062 26.0699 12.1559 2.77793 59.2148
790232 6.1906 17.9336 9.02062 26.0699 12.1559 2.77793 59.2148
790253 6.30475 17.9434 9.10309 26.0894 12.0393 2.76184 59.4406
790256 6.40134 17.992 9.12371 25.9043 11.9365 2.68456 59.4213
790272 6.48037 17.8947 9.15464 25.7289 11.8078 2.65998 59.2587
790282 6.54184 17.7683 9.17526 25.6607 11.7133 2.66945 59.1461
790293 6.54184 17.7683 9.17526 25.6607 11.7133 2.66945 59.1461
790302 6.62087 17.7197 9.26804 25.5828 11.5784 2.66347 59.1914
790315 6.62087 17.7197 9.26804 25.5828 11.5784 2.66347 59.1914
790322 6.67355 17.5933 9.40206 25.4951 11.4144 2.69515 59.164
790334 6.79649 17.5835 9.54639 25.5731 11.2664 2.70745 59.4995
790342 6.79649 17.5835 9.54639 25.5731 11.2664 2.70745 59.4995
790352 6.90186 17.4668 9.57732 25.4659 11.1314 2.69505 59.4119
790362 6.94576 17.3598 9.62887 25.2808 11.0048 2.68615 59.2153
790373 6.94576 17.3598 9.62887 25.2808 11.0048 2.68615 59.2153
790382 7.05114 17.3404 9.72165 25.2418 10.8708 2.67171 59.355
790395 7.05114 17.3404 9.72165 25.2418 10.8708 2.67171 59.355
790403 7.10382 17.2042 9.79381 25.1542 10.7418 2.69338 59.256
790414 7.15651 17.1848 9.93814 25.2321 10.6375 2.72946 59.5115
790424 7.15651 17.1848 9.93814 25.2321 10.6375 2.72946 59.5115
790434 7.20919 17.0584 10.0309 25.1931 10.5105 2.76254 59.4916
790444 7.27944 17.0097 10.1649 25.2418 10.389 2.79356 59.6959
790454 7.27944 17.0097 10.1649 25.2418 10.389 2.79356 59.6959
790465 7.27066 16.9908 10.2062 25.2321 10.3627 2.80825 59.6998
790474 7.31457 16.9908 10.3093 25.2321 10.2759 2.81619 59.8468
790486 7.31457 16.8807 10.3093 25.2126 10.2439 2.84508 59.7171
790496 7.42872 16.8164 10.4021 25.1444 10.0892 2.83518 59.7916
790506 7.42872 16.8164 10.4021 25.1444 10.0892 2.83518 59.7916
790519 7.47262 16.7613 10.3093 24.9885 10.0652 2.78772 59.5318
790526 7.47262 16.6879 10.3196 24.8911 10.0161 2.7918 59.3712
790536 7.47262 16.6879 10.3196 24.8911 10.0161 2.7918 59.3712
790547 7.59556 16.6236 10.3608 24.7352 9.86361 2.75061 59.3153
790557 7.60434 16.6512 10.4021 24.6281 9.81387 2.72611 59.2857
790578 7.73605 16.6879 10.4433 24.4722 9.6819 2.65208 59.3395
790587 7.73605 16.6879 10.4433 24.4722 9.6819 2.65208 59.3395
790597 7.82386 16.5686 10.4124 24.4722 9.61778 2.65503 59.277
790609 7.92045 16.6053 10.4948 24.2968 9.47733 2.59602 59.3174
790619 7.92045 16.6053 10.4948 24.2968 9.47733 2.59602 59.3174
790629 7.99948 16.6236 10.4536 24.1507 9.42185 2.52785 59.2275
790638 8.08729 16.5319 10.5876 24.0241 9.23547 2.53058 59.2309
790648 8.08729 16.5319 10.5876 24.0241 9.23547 2.53058 59.2309
790660 8.1312 16.6145 10.5876 23.9656 9.21655 2.48088 59.2989
790669 8.26291 16.5043 10.5773 23.8487 9.08583 2.44761 59.1933
790680 8.26291 16.5043 10.5773 23.8487 9.08583 2.44761 59.1933
790689 8.32438 16.4401 10.701 23.7903 8.94635 2.46225 59.2557
790710 8.35072 16.3942 10.701 23.6831 8.88968 2.44531 59.129
790720 8.43853 16.4033 10.7423 23.6441 8.80773 2.41722 59.2283
790732 8.43853 16.4033 10.7423 23.6441 8.80773 2.41722 59.2283
790741 8.56147 16.3575 10.866 23.5564 8.63076 2.40225 59.3413
790751 8.57903 16.2473 10.9278 23.5564 8.55534 2.44255 59.3106
790763 8.57903 16.2473 10.9278 23.5564 8.55534 2.44255 59.3106
790771 8.64928 16.2198 11.0309 23.5272 8.44175 2.44563 59.4272
790782 8.64928 16.2198 11.0309 23.5272 8.44175 2.44563 59.4272
790791 8.6405 16.2381 11.0206 23.6246 8.48468 2.46119 59.5239
790801 8.63171 16.2657 11.0515 23.7415 8.51222 2.48676 59.6905
790821 8.52634 16.3391 11.0206 23.8097 8.62786 2.50393 59.6958
790831 8.5 16.4125 10.9278 23.8 8.71251 2.46862 59.6404
790842 8.5 16.4125 10.9278 23.8 8.71251 2.46862 59.6404
790851 8.44731 16.4676 10.6907 23.8487 8.90527 2.42821 59.4543
790881 8.3595 16.5135 10.6289 23.9656 9.03466 2.45213 59.4675
790887 8.20145 16.6879 10.4845 24.063 9.28083 2.43743 59.4369
790896 8.20145 16.6879 10.4845 24.063 9.28083 2.43743 59.4369
790902 8.06973 16.7613 10.299 24.1994 9.51975 2.44415 59.3295
790912 7.91167 16.844 10.1856 24.1897 9.6973 2.44025 59.1309
790922 7.91167 16.844 10.1856 24.1897 9.6973 2.44025 59.1309
790932 7.82386 16.9357 10.0722 24.4527 9.90666 2.47078 59.2845
790952 7.68337 16.9816 10.0619 24.5404 10.0295 2.51503 59.2673
790962 7.66581 17.1459 10.0412 24.6963 10.1324 2.50024 59.5492
790972 7.66581 17.1459 10.0412 24.6963 10.1324 2.50024 59.5492
790982 7.578 17.214 9.98969 24.8034 10.2583 2.5177 59.5851
790992 7.58678 17.3987 9.81443 24.9009 10.4263 2.44463 59.7008
791012 7.47262 17.5641 9.75258 24.9009 10.5711 2.41667 59.6901
791022 7.47262 17.5641 9.75258 24.9009 10.5711 2.41667 59.6901
791032 7.32335 17.6127 9.53608 24.8911 10.7998 2.39824 59.3632
791042 7.28822 17.7294 9.50515 24.9885 10.8906 2.38847 59.5113
791064 7.20919 17.8947 9.27835 24.8424 11.0805 2.28372 59.2247
791074 7.05992 18.0212 9.17526 24.667 11.2235 2.23032 58.9234
791094 7.02479 18.1087 9.06186 24.6768 11.3376 2.19251 58.8721
791103 7.02479 18.1087 9.06186 24.6768 11.3376 2.19251 58.8721
791114 6.93698 18.2546 9.04124 24.667 11.4361 2.16895 58.8998
791124 6.95455 18.2935 8.96907 24.5404 11.4497 2.10904 58.7575
791145 6.94576 18.3518 9.05155 24.4722 11.4018 2.09775 58.8214
791155 7.08626 18.5463 9.12371 24.5794 11.3405 2.04021 59.3357
791166 7.08626 18.5463 9.12371 24.5794 11.3405 2.04021 59.3357
791174 7.09504 18.5269 9.20619 24.5891 11.2824 2.06338 59.4172
791185 7.1126 18.5269 9.2268 24.443 11.2253 2.03095 59.3093
791206 7.17407 18.5852 9.31959 24.4138 11.1381 2.01051 59.4926
791216 7.17407 18.5852 9.31959 24.4138 11.1381 2.01051 59.4926
791226 7.12138 18.5463 9.37113 24.3261 11.1092 2.02885 59.3649
791236 7.17407 18.5463 9.46392 24.2579 11.0049 2.01912 59.4422
791246 7.17407 18.5463 9.46392 24.2579 11.0049 2.01912 59.4422
791256 7.27944 18.4296 9.54639 24.1702 10.843 2.02123 59.4257
791276 7.297 18.4296 9.63918 24.0825 10.7555 2.01731 59.4483
791287 7.40238 18.381 9.78351 23.9364 10.5589 2.00069 59.5033
791306 7.44628 18.2157 9.91753 23.7513 10.3669 2.02429 59.3308
791316 7.53409 18.167 10.0412 23.5564 10.1807 1.99748 59.2988
791326 7.53409 18.167 10.0412 23.5564 10.1807 1.99748 59.2988
791337 7.54287 18.0698 10.2474 23.4785 10.0095 2.05092 59.3386
791347 7.61312 17.8753 10.3402 23.196 9.79166 2.0452 59.0246
791357 7.61312 17.8753 10.3402 23.196 9.79166 2.0452 59.0246
791371 7.69215 17.8558 10.6289 22.9524 9.50766 2.0379 59.1293
791387 7.81508 17.6127 10.8247 22.6309 9.17228 2.04503 58.8835
791397 7.90289 17.4571 11.2165 22.4166 8.79523 2.10358 58.9931
791407 7.90289 17.4571 11.2165 22.4166 8.79523 2.10358 58.9931
791418 8.06095 17.1751 11.5979 21.988 8.28948 2.12928 58.8219
791429 8.24535 16.9174 12.2784 21.5398 7.6014 2.20125 58.9809
791438 8.24535 16.9174 12.2784 21.5398 7.6014 2.20125 58.9809
791449 8.54391 16.6512 13.0619 21.1501 6.8155 2.27672 59.4071
791469 8.77221 16.2106 13.8351 20.5948 5.97438 2.38512 59.4127
791479 9.06198 15.8251 14.6186 20.1175 5.14147 2.47782 59.6231
791489 9.06198 15.8251 14.6186 20.1175 5.14147 2.47782 59.6231
791498 9.36932 15.4762 15.3505 19.5622 4.3168 2.52696 59.7583
791514 9.61519 15.054 16 18.8997 3.49953 2.57614 59.5689
791522 9.61519 15.054 16 18.8997 3.49953 2.57614 59.5689
791531 9.9313 14.6685 16.7732 18.208 2.58975 2.61361 59.581
791540 9.9313 14.6685 16.7732 18.208 2.58975 2.61361 59.581
791550 10.2474 14.182 17.6202 17.4189 1.56945 2.67613 59.4684
791561 10.6338 13.7781 18.3978 16.6778 0.598574 2.68891 59.4875
791581 10.9938 13.3191 19.205 15.8534 -0.432138 2.71481 59.3713
791594 11.4241 12.9611 19.9728 15.0385 -1.42991 2.68351 59.3964
791601 11.4241 12.9611 19.9728 15.0385 -1.42991 2.68351 59.3964
791611 11.7665 12.3737 20.839 14.2235 -2.53721 2.76737 59.2027
791621 12.1968 11.9514 21.7545 13.4939 -3.58018 2.80323 59.3966
791631 12.1968 11.9514 21.7545 13.4939 -3.58018 2.80323 59.3966
791641 12.5393 11.5016 22.6404 12.859 -4.54276 2.88675 59.5403
791651 12.5393 11.5016 22.6404 12.859 -4.54276 2.88675 59.5403
791661 12.9344 11.0518 23.3393 12.3852 -5.37454 2.94878 59.7107
791671 13.2593 10.7122 24.0579 11.7882 -6.1925 2.9777 59.8176
791681 13.2593 10.7122 24.0579 11.7882 -6.1925 2.9777 59.8176
791693 13.6369 10.3634 24.4615 11.2954 -6.87765 2.95111 59.7572
791701 13.6369 10.3634 24.4615 11.2954 -6.87765 2.95111 59.7572
791711 13.8827 10.0238 24.7076 10.7363 -7.51057 2.91592 59.3504
791721 14.1286 9.89525 24.9635 10.4236 -7.89974 2.86899 59.411
791731 14.1286 9.89525 24.9635 10.4236 -7.89974 2.86899 59.411
791741 14.4008 9.68412 25.1506 10.0446 -8.35975 2.81128 59.2801
791751 14.6204 9.52808 25.4459 9.73188 -8.76774 2.78864 59.3262
791762 14.6204 9.52808 25.4459 9.73188 -8.76774 2.78864 59.3262
791772 14.7872 9.39957 25.5148 9.47603 -9.05173 2.73855 59.1776
791799 14.875 9.13337 25.7313 9.26756 -9.40791 2.79386 59.0073
791802 15.0067 9.02322 26.0463 9.09699 -9.68885 2.81716 59.1732
791812 15.0067 9.02322 26.0463 9.09699 -9.68885 2.81716 59.1732
791822 15.0945 8.84881 26.2137 8.94537 -9.9463 2.84651 59.1024
791832 15.0682 8.72948 26.4302 8.90747 -10.0876 2.92719 59.1354
791853 15.0682 8.61015 26.568 8.91695 -10.1875 2.9934 59.1633
791862 15.0682 8.61015 26.568 8.91695 -10.1875 2.9934 59.1633
791873 15.1296 8.52754 26.9224 8.95485 -10.3174 3.07891 59.5344
791883 15.156 8.44492 27.1685 8.84114 -10.5008 3.12245 59.6106
791893 15.156 8.44492 27.1685 8.84114 -10.5008 3.12245 59.6106
791903 15.1823 8.38985 27.326 8.86957 -10.5613 3.16811 59.7677
791913 15.1823 8.20626 27.3851 8.699 -10.7874 3.20201 59.4727
791934 15.1911 8.20626 27.5229 8.7369 -10.7996 3.23408 59.6572
791944 15.1911 8.20626 27.5229 8.7369 -10.7996 3.23408 59.6572
791954 15.0945 7.9676 27.7591 8.68952 -11.005 3.37414 59.5108
791964 15.1384 7.86663 28.1529 8.76533 -11.1223 3.48274 59.9233
791975 15.1384 7.86663 28.1529 8.76533 -11.1223 3.48274 59.9233
791984 15.2087 7.71058 28.5072 8.70847 -11.3482 3.56609 60.135
791995 15.1472 7.55454 28.6155 8.54738 -11.5514 3.62346 59.8646
792006 15.1472 7.55454 28.6155 8.54738 -11.5514 3.62346 59.8646
792015 15.1209 7.36177 28.6352 8.4621 -11.7205 3.67943 59.5799
792025 15.1209 7.36177 28.6352 8.4621 -11.7205 3.67943 59.5799
792035 15.0506 7.23326 28.773 8.44314 -11.8266 3.76444 59.5
792045 15.0857 7.16901 28.9502 8.47157 -11.8955 3.81231 59.6765
792054 15.0857 7.16901 28.9502 8.47157 -11.8955 3.81231 59.6765
792065 15.1033 7.23326 29.0782 8.44314 -11.9053 3.8052 59.8579
792076 15.1648 7.24244 29.1471 8.34838 -11.9865 3.77819 59.9027
792096 15.156 7.22408 29.1668 8.33891 -12.0061 3.78861 59.8857
792108 15.1384 7.20572 29.216 8.27258 -12.0654 3.79669 59.8327
792116 15.1384 7.20572 29.216 8.27258 -12.0654 3.79669 59.8327
792126 15.1736 7.15065 29.3046 8.14939 -12.2027 3.79648 59.7782
792136 15.1736 7.15065 29.3046 8.14939 -12.2027 3.79648 59.7782
792146 15.2262 7.05886 29.3735 8.11148 -12.3094 3.81459 59.7701
792156 15.2526 7.04968 29.3046 8.0262 -12.3595 3.78025 59.633
792171 15.2526 7.04968 29.3046 8.0262 -12.3595 3.78025 59.633
792177 15.2965 6.93952 29.3144 7.93144 -12.4996 3.78515 59.4819
792187 15.2614 6.83855 29.4424 7.93144 -12.5828 3.85227 59.4737
792197 15.2614 6.83855 29.4424 7.93144 -12.5828 3.85227 59.4737
792207 15.3053 6.83855 29.5014 7.95987 -12.5863 3.85474 59.6051
792217 15.3053 6.83855 29.5014 7.95987 -12.5863 3.85474 59.6051
792227 15.3843 6.79266 29.5605 7.88406 -12.6918 3.84113 59.6215
792237 15.358 6.71004 29.5507 7.89353 -12.7306 3.87556 59.5122
792258 15.437 6.71004 29.5802 7.83668 -12.789 3.84541 59.5639
792267 15.437 6.62743 29.6491 7.8272 -12.8616 3.88269 59.5407
792279 15.437 6.62743 29.6491 7.8272 -12.8616 3.88269 59.5407
792288 15.4985 6.70086 29.7475 7.92196 -12.7876 3.87602 59.8688
792298 15.4985 6.70086 29.7475 7.92196 -12.7876 3.87602 59.8688
792308 15.4458 6.71004 29.6589 7.79877 -12.8309 3.85028 59.6135
792319 15.5336 6.71922 29.6491 7.8272 -12.823 3.82314 59.7291
792328 15.5336 6.71922 29.6491 7.8272 -12.823 3.82314 59.7291
792339 15.5424 6.7284 29.5408 7.76087 -12.8389 3.7847 59.5724
792348 15.5599 6.7284 29.4621 7.7893 -12.8084 3.76968 59.5397
792359 15.5599 6.7284 29.4621 7.7893 -12.8084 3.76968 59.5397
792369 15.5511 6.81102 29.4424 7.81773 -12.7322 3.74809 59.6223
792379 15.5511 6.81102 29.4424 7.81773 -12.7322 3.74809 59.6223
792388 15.6038 6.82937 29.403 7.77982 -12.7473 3.71116 59.616
792399 15.6302 6.89363 29.2455 7.76087 -12.6915 3.64922 59.5302
792408 15.6302 6.89363 29.2455 7.76087 -12.6915 3.64922 59.5302
792419 15.6389 7.03132 29.0782 7.80825 -12.5416 3.58049 59.5567
792428 15.6389 7.03132 29.0782 7.80825 -12.5416 3.58049 59.5567
792439 15.516 7.06803 28.9404 7.75139 -12.4996 3.57002 59.2758
792449 15.5072 7.20572 28.8911 7.90301 -12.3051 3.54946 59.5071
792458 15.5072 7.20572 28.8911 7.90301 -12.3051 3.54946 59.5071
792469 15.4985 7.33423 28.8025 7.93144 -12.1861 3.50061 59.5667
792478 15.3931 7.49028 28.6549 7.99777 -11.9927 3.46915 59.536
792489 15.3931 7.49028 28.6549 7.99777 -11.9927 3.46915 59.536
792500 15.4019 7.64633 28.458 8.05463 -11.8194 3.39093 59.5608
792510 15.4019 7.64633 28.458 8.05463 -11.8194 3.39093 59.5608
792520 15.3404 7.76566 28.3596 8.12096 -11.6693 3.36682 59.5866
792531 15.2614 7.90335 28.1529 8.15886 -11.497 3.31569 59.4764
792540 15.2614 7.90335 28.1529 8.15886 -11.497 3.31569 59.4764
792549 15.1911 8.00432 28.0544 8.15886 -11.3966 3.28686 59.4087
792559 15.1999 8.09611 27.9363 8.18729 -11.298 3.23822 59.4196
792581 15.1648 8.11447 27.9855 8.25362 -11.2495 3.26619 59.5184
792591 15.2262 8.08693 27.9954 8.24415 -11.2885 3.25586 59.5527
792601 15.2262 8.08693 27.9954 8.24415 -11.2885 3.25586 59.5527
792611 15.2789 8.03186 28.0249 8.21572 -11.3584 3.25681 59.5514
792621 15.2789 8.03186 28.0249 8.21572 -11.3584 3.25681 59.5514
792633 15.3755 7.94006 28.0938 8.20624 -11.458 3.26705 59.6156
792643 15.4019 7.91253 28.0347 8.17781 -11.4848 3.25017 59.5269
792661 15.4809 7.86663 27.9954 8.07358 -11.586 3.21159 59.4165
792671 15.5511 7.73812 28.0446 8.07358 -11.6922 3.23922 59.4074
792692 15.5511 7.76566 27.9363 8.04515 -11.6684 3.20363 59.2983
792702 15.5511 7.76566 27.9363 8.04515 -11.6684 3.20363 59.2983
792712 15.5336 7.90335 27.6705 8.13991 -11.4608 3.13267 59.2474
792722 15.5511 8.05022 27.513 8.15886 -11.3268 3.05463 59.2732
792732 15.5511 8.05022 27.513 8.15886 -11.3268 3.05463 59.2732
792742 15.5248 8.2797 27.4047 8.20624 -11.1266 2.98066 59.4155
792752 15.4194 8.37149 27.2374 8.2631 -10.9722 2.96238 59.2914
792772 15.3931 8.47246 27.2276 8.33891 -10.8566 2.95319 59.432
792782 15.3931 8.47246 27.2276 8.33891 -10.8566 2.95319 59.432
792792 15.3316 8.49082 26.9519 8.36734 -10.7477 2.91592 59.1417
792811 15.2175 8.55508 26.8633 8.44314 -10.614 2.92844 59.079
792812 15.2175 8.55508 26.8633 8.44314 -10.614 2.92844 59.079
792822 15.1999 8.59179 26.9027 8.52843 -10.5459 2.94805 59.2228
792833 15.2438 8.65605 26.9716 8.60424 -10.4896 2.94473 59.4757
792846 15.2438 8.65605 26.9716 8.60424 -10.4896 2.94473 59.4757
792853 15.2701 8.61933 27.1783 8.68004 -10.523 3.00486 59.7479
792863 15.2701 8.61933 27.1783 8.68004 -10.523 3.00486 59.7479
792873 15.2526 8.59179 27.2276 8.68004 -10.5471 3.02833 59.752
792886 15.235 8.47246 27.3358 8.7369 -10.6061 3.10268 59.7802
792895 15.235 8.47246 27.3358 8.7369 -10.6061 3.10268 59.7802
792908 15.2701 8.38985 27.4244 8.62319 -10.753 3.11207 59.7076
792914 15.2262 8.17873 27.513 8.61371 -10.8962 3.20546 59.5317
792927 15.2262 8.17873 27.513 8.61371 -10.8962 3.20546 59.5317
792935 15.2614 8.05022 27.6902 8.61371 -11.0238 3.26904 59.6155
792947 15.2614 8.05022 27.6902 8.61371 -11.0238 3.26904 59.6155
792956 15.2701 7.77484 27.7985 8.59476 -11.2297 3.36861 59.4382
792964 15.3316 7.69222 27.9265 8.52843 -11.3643 3.38719 59.4787
792975 15.3316 7.69222 27.9265 8.52843 -11.3643 3.38719 59.4787
792986 15.4194 7.71058 28.0151 8.56633 -11.3703 3.3791 59.7114
792995 15.6126 7.73812 28.2021 8.50948 -11.4744 3.33674 60.0623
793005 15.6126 7.73812 28.2021 8.50948 -11.4744 3.33674 60.0623
793015 15.7531 7.72894 28.1529 8.36734 -11.5869 3.25942 60.0022
793036 15.7707 7.65551 28.0347 8.34838 -11.6209 3.24957 59.8093
793046 15.8673 7.60043 27.9954 8.20624 -11.7548 3.20113 59.6693
793056 15.8673 7.60043 27.9954 8.20624 -11.7548 3.20113 59.6693
793067 15.999 7.59125 27.8772 8.12096 -11.8161 3.12342 59.5884
793076 15.9726 7.51782 27.7887 7.95039 -11.9421 3.10199 59.2295
793086 15.9726 7.51782 27.7887 7.95039 -11.9421 3.10199 59.2295
793096 16.1395 7.49946 27.6607 7.89353 -11.9977 3.01943 59.1931
793106 16.1395 7.49946 27.6607 7.89353 -11.9977 3.01943 59.1931
793116 16.1658 7.45356 27.5426 7.86511 -12.024 2.99565 59.027
793126 16.1834 7.47192 27.5622 7.84615 -12.0326 2.98486 59.0637
793136 16.1834 7.47192 27.5622 7.84615 -12.0326 2.98486 59.0637
793146 16.2975 7.46274 27.4244 7.91249 -11.9916 2.93838 59.0972
793156 16.359 7.61879 27.4047 7.94091 -11.8857 2.87438 59.3234
793166 16.359 7.61879 27.4047 7.94091 -11.8857 2.87438 59.3234
793176 16.4731 7.75648 27.3162 8.0641 -11.7299 2.8059 59.6099
793196 16.438 7.92171 27.2768 8.0641 -11.6117 2.75906 59.7006
793206 16.5258 7.98596 27.0799 8.0641 -11.5478 2.67339 59.6558
793227 16.4029 8.00432 26.7944 8.10201 -11.4205 2.6531 59.3037
793237 16.3502 8.00432 26.6468 8.10201 -11.3744 2.63799 59.1033
793257 16.2712 8.10529 26.4794 8.18729 -11.2028 2.61426 59.0432
793269 16.2712 8.10529 26.4794 8.18729 -11.2028 2.61426 59.0432
793277 16.1921 8.12365 26.2826 8.31048 -11.0512 2.6169 58.9088
793287 16.2009 8.24298 26.1054 8.41472 -10.8747 2.56331 58.964
793297 16.2009 8.24298 26.1054 8.41472 -10.8747 2.56331 58.964
793307 16.1307 8.44492 25.7412 8.52843 -10.578 2.47106 58.8452
793318 15.999 8.5459 25.4655 8.74638 -10.2849 2.4679 58.7568
793327 15.999 8.5459 25.4655 8.74638 -10.2849 2.4679 58.7568
793338 15.9463 8.83045 25.1309 9.04961 -9.83641 2.39252 58.9572
793358 15.7882 9.12419 24.7863 9.38127 -9.33865 2.34983 59.08
793368 15.7443 9.42711 24.5206 9.81717 -8.83083 2.31048 59.5091
793379 15.7443 9.42711 24.5206 9.81717 -8.83083 2.31048 59.5091
793389 15.6126 9.74838 24.1071 10.1014 -8.33895 2.22788 59.5696
793400 15.4633 9.98704 23.5756 10.3763 -7.85981 2.14675 59.4022
793408 15.4633 9.98704 23.5756 10.3763 -7.85981 2.14675 59.4022
793420 15.2877 10.3909 22.9653 10.6605 -7.25136 2.01009 59.3044
793428 15.2877 10.3909 22.9653 10.6605 -7.25136 2.01009 59.3044
793448 15.0945 10.7765 22.2073 10.9732 -6.58413 1.85674 59.0515
793450 14.9013 11.162 21.4789 11.3997 -5.8611 1.73439 58.9419
793461 14.9013 11.162 21.4789 11.3997 -5.8611 1.73439 58.9419
793471 14.6467 11.5567 20.6225 11.8071 -5.07621 1.59284 58.633
793483 14.3394 12.0157 19.9925 12.4705 -4.18483 1.55766 58.8179
793491 14.3394 12.0157 19.9925 12.4705 -4.18483 1.55766 58.8179
793502 14.0759 12.3828 19.2837 12.9727 -3.40804 1.48113 58.7152
793511 14.0759 12.3828 19.2837 12.9727 -3.40804 1.48113 58.7152
793522 13.8301 12.7959 18.7423 13.4654 -2.68173 1.42312 58.8337
793531 13.5666 13.264 18.0533 14.0435 -1.82953 1.34048 58.9274
793542 13.5666 13.264 18.0533 14.0435 -1.82953 1.34048 58.9274
793551 13.4261 13.7689 17.4331 14.5931 -1.05421 1.22367 59.2212
793564 13.1978 14.182 16.7835 15.1332 -0.280854 1.14769 59.2965
793581 12.9432 14.6134 16.0722 15.5881 0.500751 1.03948 59.2168
793592 12.9432 14.6134 16.0722 15.5881 0.500751 1.03948 59.2168
793603 12.6885 14.8245 15.4124 15.9671 1.14222 0.984786 58.8925
793611 12.4163 15.155 14.8866 16.422 1.81472 0.952093 58.8798
793622 12.4163 15.155 14.8866 16.422 1.81472 0.952093 58.8798
793631 12.0739 15.3936 14.3299 16.8389 2.48514 0.94685 58.6363
793643 11.8192 15.5864 13.8763 17.4481 3.12405 1.00089 58.73
793651 11.8192 15.5864 13.8763 17.4481 3.12405 1.00089 58.73
793661 11.5031 15.8618 13.3711 18.208 3.90012 1.07245 58.944
793671 11.5031 15.8618 13.3711 18.208 3.90012 1.07245 58.944
793681 11.2133 16.0545 12.8557 18.8315 4.58699 1.12441 58.955
793691 10.827 16.3391 12.4845 19.5914 5.32519 1.24318 59.242
793704 10.827 16.3391 12.4845 19.5914 5.32519 1.24318 59.242
793712 10.5108 16.642 12 20.1467 6.01938 1.26321 59.2996
793724 10.2211 16.8898 11.5773 20.5072 6.58776 1.26029 59.1954
793744 9.87862 17.1653 11.2577 21.0235 7.18602 1.32421 59.3252
793765 9.50103 17.3404 10.7938 21.3547 7.79805 1.3495 58.99
793772 9.17614 17.5543 10.4845 21.9003 8.37091 1.43474 59.1153
793784 9.17614 17.5543 10.4845 21.9003 8.37091 1.43474 59.1153
793793 8.92149 17.8558 10.1443 22.2705 8.89497 1.42861 59.1921
793805 8.61415 18.0698 9.8866 22.6017 9.36704 1.47139 59.1723
793814 8.61415 18.0698 9.8866 22.6017 9.36704 1.47139 59.1723
793826 8.37707 18.2935 9.62887 22.816 9.77054 1.46519 59.1155
793844 8.14876 18.4685 9.45361 22.9135 10.0788 1.4622 58.9844
793854 8.06973 18.77 9.27835 23.0206 10.3327 1.38468 59.1387
793865 8.06973 18.77 9.27835 23.0206 10.3327 1.38468 59.1387
793875 8.06095 18.9937 9.16495 23.1181 10.4849 1.32168 59.3377
793885 7.97314 19.2174 9.06186 23.2447 10.6842 1.28982 59.4971
793904 7.95558 19.3438 8.90722 23.4493 10.8666 1.27157 59.6559
793915 7.79752 19.3438 8.82474 23.4493 11.0118 1.2958 59.4154
793924 7.79752 19.4216 8.82474 23.5662 11.0575 1.3014 59.6101
793935 7.63068 19.5189 8.69072 23.6734 11.2877 1.31428 59.5136
793944 7.63068 19.5189 8.69072 23.6734 11.2877 1.31428 59.5136
793954 7.51653 19.5967 8.58763 23.761 11.4584 1.32071 59.4619
793965 7.41116 19.6939 8.51546 23.839 11.6072 1.32426 59.4595
793975 7.41116 19.6939 8.51546 23.839 11.6072 1.32426 59.4595
793985 7.297 19.7815 8.37113 23.839 11.7865 1.2983 59.2886
794005 7.13895 19.8301 8.29897 23.8 11.9321 1.30272 59.068
794015 7.0687 19.9273 8.17526 24.0143 12.1219 1.31625 59.1856
794027 7.0687 19.9273 8.17526 24.0143 12.1219 1.31625 59.1856
794035 6.96333 20.0538 8.20619 24.0533 12.2045 1.32659 59.2766
794045 6.83161 20.0635 8.21649 24.1897 12.3122 1.394 59.3013
794055 6.83161 20.0635 8.21649 24.1897 12.3122 1.394 59.3013
794065 6.7438 20.0732 8.09278 24.2774 12.4664 1.40735 59.1872
794075 6.7438 20.0732 8.09278 24.2774 12.4664 1.40735 59.1872
794091 6.6999 20.0343 8.21649 24.2968 12.4118 1.46313 59.2476
794094 6.79649 20.0441 8.2268 24.2968 12.3465 1.436 59.3642
794115 6.91942 20.0732 8.27835 24.3066 12.2454 1.40799 59.5776
794125 7.03357 19.9954 8.30928 24.2676 12.1298 1.39615 59.6059
794136 7.03357 19.9954 8.30928 24.2676 12.1298 1.39615 59.6059
794146 7.05114 19.9857 8.39175 24.2481 12.0612 1.40835 59.6767
794166 7.04236 19.8884 8.38144 24.2189 12.0456 1.42855 59.5312
794176 7.05992 19.8301 8.40206 24.1897 12.0028 1.43785 59.4818
794189 7.05992 19.8301 8.40206 24.1897 12.0028 1.43785 59.4818
794197 7.01601 19.7134 8.29897 24.1507 12.0605 1.44991 59.1791
794210 7.04236 19.6842 8.30928 24.1117 12.0226 1.44413 59.1476
794217 7.04236 19.6842 8.30928 24.1117 12.0226 1.44413 59.1476
794227 7.02479 19.7328 8.36082 23.9656 11.9799 1.41379 59.0841
794237 7.02479 19.7328 8.36082 23.9656 11.9799 1.41379 59.0841
794247 7.04236 19.6453 8.37113 23.9072 11.9302 1.42217 58.966
794257 7.0687 19.6453 8.39175 23.9656 11.9138 1.43302 59.0714
794277 7.14773 19.5286 8.47423 24.0436 11.8045 1.48024 59.1941
794290 7.19163 19.5383 8.54639 24.102 11.7477 1.4951 59.3784
794298 7.19163 19.5383 8.54639 24.102 11.7477 1.4951 59.3784
794310 7.20919 19.4411 8.58763 24.1215 11.6939 1.53106 59.3594
794318 7.20919 19.4411 8.58763 24.1215 11.6939 1.53106 59.3594
794331 7.13895 19.2757 8.53608 24.1605 11.7411 1.59408 59.1112
794338 7.18285 19.266 8.64948 24.2092 11.6523 1.62116 59.3075
794350 7.18285 19.266 8.64948 24.2092 11.6523 1.62116 59.3075
794359 7.20919 19.2271 8.63918 24.3066 11.6556 1.6443 59.3821
794371 7.23554 19.1299 8.68041 24.3066 11.592 1.67346 59.3524
794378 7.23554 19.1299 8.68041 24.3066 11.592 1.67346 59.3524
794389 7.2531 19.0521 8.76289 24.3456 11.5216 1.71761 59.4136
794399 7.2531 19.0521 8.76289 24.3456 11.5216 1.71761 59.4136
794409 7.27944 18.8867 8.82474 24.443 11.452 1.7923 59.4339
794419 7.27944 18.8186 8.78351 24.5014 11.4751 1.81538 59.383
794433 7.27944 18.8186 8.78351 24.5014 11.4751 1.81538 59.383
794439 7.34091 18.7019 8.8866 24.404 11.3252 1.83229 59.3335
794449 7.41994 18.5074 8.91753 24.5112 11.2377 1.89568 59.3561
794460 7.41994 18.5074 8.91753 24.5112 11.2377 1.89568 59.3561
794470 7.47262 18.2838 9.09278 24.4917 11.0422 1.97876 59.3409
794479 7.47262 18.2838 9.09278 24.4917 11.0422 1.97876 59.3409
794489 7.49897 18.1087 9.13402 24.5794 10.9805 2.04962 59.3211
794500 7.578 17.8947 9.26804 24.6281 10.8124 2.12823 59.3689
794519 7.70093 17.7294 9.36082 24.6476 10.6476 2.16476 59.4387
794533 7.71849 17.5641 9.46392 24.706 10.5495 2.2423 59.4525
794539 7.71849 17.5641 9.46392 24.706 10.5495 2.2423 59.4525
794550 7.82386 17.4668 9.48454 24.667 10.441 2.23601 59.4423
794560 7.82386 17.4668 9.48454 24.667 10.441 2.23601 59.4423
794571 7.90289 17.3112 9.54639 24.6378 10.3116 2.26524 59.3983
794581 8.03461 17.2529 9.64948 24.5209 10.1289 2.24098 59.4579
794601 8.00826 17.0778 9.70103 24.4138 10.043 2.28765 59.2009
794611 8.06095 16.899 9.71134 24.404 9.95794 2.32467 59.0753
794622 8.06095 16.899 9.71134 24.404 9.95794 2.32467 59.0753
794632 8.07851 16.8715 9.70103 24.3845 9.94167 2.3212 59.0356
794643 8.13998 16.7246 9.75258 24.443 9.85226 2.36986 59.0602
794652 8.13998 16.7246 9.75258 24.443 9.85226 2.36986 59.0602
794663 8.19267 16.642 9.89691 24.5696 9.74772 2.43634 59.3012
794672 8.19267 16.642 9.89691 24.5696 9.74772 2.43634 59.3012
794682 8.27169 16.6145 9.93814 24.5112 9.65519 2.41756 59.3355
794692 8.28926 16.5961 9.98969 24.5599 9.62273 2.43902 59.4349
794704 8.28926 16.5961 9.98969 24.5599 9.62273 2.43902 59.4349
794712 8.3156 16.5961 9.97938 24.4235 9.57801 2.40021 59.3146
794732 8.32438 16.5686 9.89691 24.4819 9.62904 2.40061 59.2718
794734 8.32438 16.5686 9.89691 24.4819 9.62904 2.40061 59.2718
794747 8.22779 16.6328 9.87629 24.4332 9.70168 2.39536 59.1701
794753 8.22779 16.6328 9.87629 24.4332 9.70168 2.39536 59.1701
794766 8.18388 16.6236 9.83505 24.3261 9.7216 2.3793 58.9687
794774 8.16632 16.642 9.89691 24.4138 9.72299 2.41098 59.119
794793 8.22779 16.6328 9.83505 24.4138 9.72085 2.38241 59.1094
794805 8.19267 16.6879 9.93814 24.5112 9.72034 2.41921 59.3299
794815 8.19267 16.6879 9.93814 24.5112 9.72034 2.41921 59.3299
794826 8.1751 16.743 9.93814 24.5307 9.74979 2.41233 59.3869
794835 8.1751 16.743 9.93814 24.5307 9.74979 2.41233 59.3869
794847 8.08729 16.7246 9.86598 24.5307 9.83895 2.42821 59.2086
794855 8.06973 16.7889 9.79381 24.4917 9.89829 2.39083 59.1441
794864 8.06973 16.7889 9.79381 24.4917 9.89829 2.39083 59.1441
794876 7.9907 16.8348 9.80412 24.5209 9.95801 2.409 59.1505
794887 7.90289 16.8623 9.75258 24.6573 10.082 2.44478 59.1751
794896 7.90289 16.8623 9.75258 24.6573 10.082 2.44478 59.1751
794908 7.86777 16.9449 9.72165 24.667 10.1444 2.4263 59.2014
794916 7.86777 16.9449 9.72165 24.667 10.1444 2.4263 59.2014
794929 7.74483 17.0875 9.69072 24.706 10.2813 2.42221 59.2291
794936 7.68337 17.0292 9.74227 24.8424 10.3065 2.49728 59.2972
794946 7.68337 17.0292 9.74227 24.8424 10.3065 2.49728 59.2972
794957 7.68337 17.1264 9.68041 24.7645 10.3482 2.43907 59.2547
794968 7.70093 17.3015 9.63918 24.8034 10.415 2.38208 59.445
794976 7.70093 17.3015 9.63918 24.8034 10.415 2.38208 59.445
794989 7.74483 17.389 9.63918 24.8619 10.4246 2.35614 59.6349
794996 7.74483 17.389 9.63918 24.8619 10.4246 2.35614 59.6349
795006 7.70093 17.4863 9.60825 24.8327 10.4857 2.32786 59.6281
795016 7.66581 17.5154 9.57732 24.7547 10.5132 2.30641 59.5133
795026 7.66581 17.5154 9.57732 24.7547 10.5132 2.30641 59.5133
795037 7.63946 17.5933 9.4433 24.706 10.6162 2.25235 59.382
795049 7.578 17.6322 9.45361 24.5209 10.6115 2.22128 59.1847
795069 7.56921 17.6808 9.37113 24.5112 10.6759 2.18975 59.1323
795077 7.45506 17.7294 9.40206 24.5696 10.752 2.22814 59.1562
795089 7.45506 17.7294 9.40206 24.5696 10.752 2.22814 59.1562
795097 7.47262 17.7683 9.36082 24.4722 10.7522 2.1817 59.074
795110 7.47262 17.7683 9.36082 24.4722 10.7522 2.1817 59.074
795117 7.42872 17.8169 9.3299 24.4235 10.7976 2.16302 58.999
795131 7.46384 17.9239 9.38144 24.4819 10.7848 2.14569 59.2511
795137 7.46384 17.9239 9.38144 24.4819 10.7848 2.14569 59.2511
795147 7.53409 18.0503 9.37113 24.4625 10.7743 2.08249 59.418
795159 7.53409 18.0503 9.37113 24.4625 10.7743 2.08249 59.418
795167 7.52531 18.0309 9.39175 24.4235 10.7532 2.08662 59.3715
795177 7.56921 18.1573 9.49485 24.4819 10.7093 2.07281 59.7033
795187 7.56921 18.1573 9.49485 24.4819 10.7093 2.07281 59.7033
795197 7.58678 18.1768 9.41237 24.4235 10.7388 2.03164 59.5994
795207 7.578 18.2059 9.4433 24.2871 10.6998 2.00283 59.5144
795217 7.578 18.2059 9.4433 24.2871 10.6998 2.00283 59.5144
795227 7.65702 18.1768 9.48454 24.1117 10.5784 1.95923 59.4301
795241 7.65702 18.1768 9.48454 24.1117 10.5784 1.95923 59.4301
795257 7.67459 18.2935 9.4433 23.9266 10.576 1.87111 59.338
795269 7.67459 18.2935 9.4433 23.9266 10.576 1.87111 59.338
795277 7.66581 18.1768 9.48454 23.9364 10.5304 1.91813 59.2635
795288 7.67459 18.1573 9.53608 23.761 10.4465 1.89379 59.129
795308 7.75362 18.1768 9.57732 23.6539 10.3529 1.85107 59.1616
795319 7.75362 18.1768 9.57732 23.6539 10.3529 1.85107 59.1616
795329 7.77996 18.1087 9.70103 23.5662 10.2246 1.87096 59.1559
795338 7.88533 18.167 9.82474 23.4785 10.0814 1.8324 59.3556
795358 7.96436 18.0406 9.84536 23.2447 9.93129 1.7984 59.095
795368 7.9907 18.0406 10 23.2447 9.82464 1.82537 59.276
795378 7.9907 18.0114 10 23.0986 9.77962 1.8011 59.1007
795389 8.15754 17.8947 10.2165 22.9817 9.4946 1.80907 59.2504
795399 8.15754 17.8947 10.2165 22.9817 9.4946 1.80907 59.2504
795408 8.21901 17.7586 10.4742 22.816 9.22987 1.85075 59.2679
795419 8.34194 17.5349 10.7526 22.5335 8.86277 1.87852 59.1629
795428 8.34194 17.5349 10.7526 22.5335 8.86277 1.87852 59.1629
795442 8.48244 17.3307 11.0103 22.2218 8.49336 1.88474 59.0452
795449 8.48244 17.3307 11.0103 22.2218 8.49336 1.88474 59.0452
795458 8.56147 17.0875 11.3505 21.9003 8.09673 1.93595 58.8998
795469 8.70196 16.9082 11.8454 21.4716 7.56549 1.96178 58.9272
795480 8.70196 16.9082 11.8454 21.4716 7.56549 1.96178 58.9272
795489 8.97417 16.5961 12.3505 21.1891 6.96184 2.02234 59.1099
795498 9.10589 16.2932 12.9381 20.9066 6.3955 2.13836 59.2438
795508 9.10589 16.2932 12.9381 20.9066 6.3955 2.13836 59.2438
795518 9.28151 16.0086 13.6082 20.5461 5.74696 2.23677 59.4445
795529 9.28151 16.0086 13.6082 20.5461 5.74696 2.23677 59.4445
795538 9.49225 15.7149 14.2062 20.2928 5.15411 2.3344 59.7062
795549 9.65909 15.2743 14.8041 19.9811 4.51793 2.47456 59.7186
795558 9.65909 15.2743 14.8041 19.9811 4.51793 2.47456 59.7186
795568 9.77324 14.9714 15.4124 19.4453 3.87193 2.54513 59.6023
795578 9.96643 14.6685 16.1546 18.9095 3.12269 2.62045 59.699
795590 9.96643 14.6685 16.1546 18.9095 3.12269 2.62045 59.699
795599 10.2035 14.3747 16.7835 18.1885 2.34099 2.61808 59.5503
795610 10.2035 14.3747 16.7835 18.1885 2.34099 2.61808 59.5503
795619 10.3879 13.9249 17.4922 17.5066 1.49694 2.70248 59.3116
795632 10.5723 13.6037 18.1812 16.9716 0.767624 2.77525 59.3288
795639 10.5723 13.6037 18.1812 16.9716 0.767624 2.77525 59.3288
795649 10.7831 13.2824 18.9195 16.4504 0.0127107 2.85296 59.4354
795658 10.9675 12.9336 19.5298 15.9576 -0.676081 2.92643 59.3885
795680 11.2133 12.6123 20.2779 15.4744 -1.42863 3.00279 59.5779
795692 11.2133 12.6123 20.2779 15.4744 -1.42863 3.00279 59.5779
795700 11.4329 12.2451 21.0359 14.7447 -2.30366 3.05321 59.4586
795713 11.6787 11.9881 21.7742 14.2614 -3.01635 3.1076 59.7024
795734 11.8807 11.621 22.4042 13.7213 -3.74939 3.17569 59.6271
795741 12.03 11.318 22.9062 13.1717 -4.39474 3.21322 59.4259
795761 12.1792 11.1528 23.3787 12.7832 -4.88367 3.23474 59.4939
795771 12.1792 11.1528 23.3787 12.7832 -4.88367 3.23474 59.4939
795782 12.3549 10.8315 23.861 12.3378 -5.49234 3.28679 59.3852
795797 12.4866 10.7214 24.3434 12.0156 -5.91476 3.31166 59.5669
795802 12.4866 10.7214 24.3434 12.0156 -5.91476 3.31166 59.5669
795812 12.5832 10.4735 24.6977 11.665 -6.37097 3.35901 59.4194
795822 12.8027 10.2808 25.0226 11.3333 -6.81836 3.34941 59.4394
795832 12.8027 10.2808 25.0226 11.3333 -6.81836 3.34941 59.4394
795843 12.952 10.1247 25.4459 11.068 -7.21804 3.38237 59.5906
795858 13.1451 9.89525 25.8298 10.8311 -7.64161 3.42216 59.7013
795873 13.2944 9.72084 26.0759 10.5847 -7.98678 3.42986 59.6758
795883 13.2944 9.72084 26.0759 10.5847 -7.98678 3.42986 59.6758
795900 13.5052 9.61069 26.2826 10.3289 -8.30783 3.3893 59.7273
795905 13.6457 9.56479 26.3219 10.092 -8.51616 3.32166 59.6244
795914 13.6457 9.56479 26.3219 10.092 -8.51616 3.32166 59.6244
795925 13.7598 9.41793 26.4696 9.96879 -8.74038 3.33651 59.6161
795934 13.8827 9.36285 26.4893 9.74136 -8.93963 3.27485 59.4762
795956 14.1198 9.26188 26.5287 9.57079 -9.16922 3.20717 59.4812
795966 14.1198 9.26188 26.5287 9.57079 -9.16922 3.20717 59.4812
795976 14.2076 9.15173 26.6566 9.39075 -9.39363 3.20368 59.4067
795986 14.313 8.97732 26.7551 9.13489 -9.69743 3.19353 59.1803
795996 14.313 8.97732 26.7551 9.13489 -9.69743 3.19353 59.1803
796006 14.4096 8.92225 26.883 9.04013 -9.84316 3.1874 59.255
796017 14.5764 8.79374 27.1587 8.95485 -10.0811 3.21348 59.4837
796036 14.6818 8.67441 27.3949 8.86957 -10.287 3.24759 59.6207
796048 14.6818 8.67441 27.3949 8.86957 -10.287 3.24759 59.6207
796056 14.7872 8.55508 27.6213 8.77481 -10.4952 3.27775 59.7384
796068 14.9628 8.41739 27.828 8.58528 -10.7822 3.26953 59.7935
796076 14.9628 8.41739 27.828 8.58528 -10.7822 3.26953 59.7935
796088 15.1384 8.29806 27.8772 8.47157 -10.9751 3.23968 59.7853
796097 15.2438 8.17873 28.0347 8.31996 -11.1999 3.24509 59.7772
796110 15.2438 8.17873 28.0347 8.31996 -11.1999 3.24509 59.7772
796118 15.3843 8.05022 28.0741 8.22519 -11.3767 3.23053 59.7338
796130 15.4721 8.05022 28.1922 8.04515 -11.5333 3.19155 59.7597
796137 15.4721 7.89417 28.1922 8.04515 -11.6289 3.23918 59.6037
796147 15.6038 7.80238 28.3891 7.99777 -11.7876 3.2564 59.7931
796157 15.6038 7.80238 28.3891 7.99777 -11.7876 3.2564 59.7931
796170 15.6653 7.58207 28.3104 7.84615 -12.0141 3.25968 59.4039
796178 15.7443 7.4811 28.3694 7.75139 -12.1664 3.25936 59.3462
796198 15.7531 7.34341 28.4777 7.76087 -12.272 3.32233 59.3351
796212 15.7531 7.35259 28.6943 7.72297 -12.3363 3.35456 59.5229
796221 15.7531 7.35259 28.6943 7.72297 -12.3363 3.35456 59.5229
796232 15.718 7.2149 28.901 7.68506 -12.483 3.44088 59.5189
796249 15.7531 7.12311 28.96 7.58082 -12.6265 3.44968 59.4171
796259 15.7619 7.05886 29.029 7.59978 -12.6713 3.48397 59.4495
796269 15.7619 7.05886 29.029 7.59978 -12.6713 3.48397 59.4495
796280 15.9199 7.05886 29.088 7.50502 -12.7762 3.42802 59.5718
796290 16.0341 6.95788 29.0585 7.50502 -12.8576 3.41821 59.5555
796300 16.0341 6.95788 29.0585 7.50502 -12.8576 3.41821 59.5555
796309 16.0868 6.93952 29.1471 7.41026 -12.9583 3.4064 59.5836
796320 16.0868 6.93952 29.1471 7.41026 -12.9583 3.4064 59.5836
796329 16.1043 6.88445 29.0093 7.36288 -12.9994 3.38186 59.3609
796340 16.2448 6.97624 29.0683 7.38183 -12.969 3.32549 59.6712
796349 16.2448 6.97624 29.0683 7.38183 -12.969 3.32549 59.6712
796361 16.3414 6.92117 29.0782 7.37235 -13.0315 3.31282 59.7131
796369 16.4644 6.93035 28.9994 7.37235 -13.0345 3.25694 59.7665
796381 16.4644 6.93035 28.9994 7.37235 -13.0345 3.25694 59.7665
796389 16.4731 6.96706 28.9207 7.30602 -13.0394 3.21447 59.6669
796403 16.4731 6.96706 28.9207 7.30602 -13.0394 3.21447 59.6669
796410 16.4029 6.88445 28.773 7.26812 -13.0727 3.22454 59.3285
796423 16.5522 6.9487 28.6057 7.27759 -13.0218 3.1277 59.3841
796432 16.5522 6.9487 28.6057 7.27759 -13.0218 3.1277 59.3841
796439 16.6049 7.10475 28.5466 7.25864 -12.9329 3.04856 59.5149
796450 16.6049 7.10475 28.5466 7.25864 -12.9329 3.04856 59.5149
796461 16.6049 7.09557 28.4679 7.23021 -12.941 3.02979 59.3985
796471 16.64 7.13229 28.4777 7.26812 -12.9025 3.01762 59.5181
796491 16.6575 7.24244 28.3399 7.23021 -12.832 2.94353 59.4701
796506 16.6575 7.31587 28.2218 7.23969 -12.755 2.89932 59.4349
796512 16.6575 7.31587 28.2218 7.23969 -12.755 2.89932 59.4349
796522 16.6488 7.39849 28.0741 7.22074 -12.6823 2.84308 59.3421
796532 16.6927 7.4352 28.0151 7.21126 -12.6618 2.8048 59.3542
796542 16.6927 7.4352 28.0151 7.21126 -12.6618 2.8048 59.3542
796552 16.7278 7.54536 27.9068 7.26812 -12.5408 2.75074 59.448
796572 16.6751 7.59125 27.8674 7.21126 -12.5284 2.73291 59.345
796582 16.719 7.71058 27.7887 7.3155 -12.3802 2.68954 59.5337
796593 16.719 7.71058 27.7887 7.3155 -12.3802 2.68954 59.5337
796603 16.798 7.73812 27.6705 7.24916 -12.3963 2.61964 59.4558
796613 16.8332 7.67387 27.513 7.12598 -12.4887 2.56957 59.146
796624 16.8332 7.67387 27.513 7.12598 -12.4887 2.56957 59.146
796633 16.8419 7.7014 27.3654 7.14493 -12.4298 2.53167 59.0536
796652 16.8419 7.7014 27.3654 7.14493 -12.4298 2.53167 59.0536
796653 16.9298 7.71058 27.3358 7.05964 -12.4905 2.47862 59.0358
796665 16.9737 7.76566 27.2472 7.14493 -12.392 2.44866 59.1315
796675 16.9737 7.76566 27.2472 7.14493 -12.392 2.44866 59.1315
796685 17 7.82991 27.1193 7.14493 -12.3297 2.39473 59.0941
796695 17 7.99514 26.9519 7.18283 -12.1656 2.31853 59.1299
796705 17 7.99514 26.9519 7.18283 -12.1656 2.31853 59.1299
796715 17.0399 8.20626 26.9027 7.24916 -11.9899 2.24901 59.398
796724 17.0399 8.20626 26.9027 7.24916 -11.9899 2.24901 59.398
796736 17.01 8.29806 26.7157 7.32497 -11.8379 2.20712 59.3487
796746 17.0996 8.49082 26.6074 7.38183 -11.6795 2.1145 59.5797
796757 17.0996 8.49082 26.6074 7.38183 -11.6795 2.1145 59.5797
796764 17.0299 8.65605 26.4105 7.36288 -11.5295 2.04025 59.4594
796778 16.9912 8.7662 26.4499 7.47659 -11.3927 2.05309 59.6839
796784 16.9912 8.7662 26.4499 7.47659 -11.3927 2.05309 59.6839
796799 16.9912 9.00486 26.3416 7.44816 -11.24 1.95541 59.7859
796805 16.9912 9.00486 26.3416 7.44816 -11.24 1.95541 59.7859
796815 16.8858 9.01404 26.194 7.45764 -11.1702 1.95253 59.5515
796825 16.8595 9.01404 26.1152 7.42921 -11.1631 1.93651 59.418
796835 16.8595 9.01404 26.1152 7.42921 -11.1631 1.93651 59.418
796845 16.8332 8.92225 25.8987 7.3913 -11.1856 1.9141 59.0454
796854 16.8419 8.86717 25.8002 7.3155 -11.245 1.88864 58.8248
796876 16.8244 8.80292 25.8691 7.28707 -11.3142 1.92118 58.7835
796886 16.8244 8.80292 25.8691 7.28707 -11.3142 1.92118 58.7835
796896 16.798 8.67441 25.8691 7.29654 -11.3818 1.96798 58.6381
796906 16.8858 8.65605 26.0266 7.28707 -11.4557 1.98073 58.8556
796927 16.8946 8.59179 26.1251 7.26812 -11.5319 2.01431 58.8796
796936 16.921 8.53672 26.3023 7.37235 -11.5479 2.08437 59.1323
796946 16.921 8.53672 26.3023 7.37235 -11.5479 2.08437 59.1323
796957 17.0199 8.55508 26.4696 7.37235 -11.5969 2.08702 59.417
796966 17.0199 8.55508 26.4696 7.37235 -11.5969 2.08702 59.417
796976 17.0399 8.44492 26.4794 7.33445 -11.695 2.1069 59.2987
796989 17.0399 8.48164 26.4204 7.3534 -11.6473 2.08759 59.2953
796996 17.0399 8.48164 26.4204 7.3534 -11.6473 2.08759 59.2953
797006 17.1395 8.4541 26.4794 7.26812 -11.7527 2.06112 59.3412
797016 17.1295 8.31641 26.5188 7.3534 -11.7917 2.13078 59.3182
797026 17.1295 8.31641 26.5188 7.3534 -11.7917 2.13078 59.3182
797036 17.1993 8.27052 26.6173 7.25864 -11.9164 2.12469 59.3457
797050 17.1993 8.27052 26.6173 7.25864 -11.9164 2.12469 59.3457
797060 17.1594 8.19708 26.6271 7.20178 -11.991 2.14724 59.1854
797067 17.1395 8.15119 26.5779 7.24916 -11.9748 2.16594 59.1177
797077 17.1395 8.15119 26.5779 7.24916 -11.9748 2.16594 59.1177
797087 17.2989 8.21544 26.5188 7.27759 -11.9391 2.09457 59.3108
797097 17.3687 8.34395 26.3515 7.24916 -11.8553 1.99483 59.3133
797107 17.3687 8.34395 26.3515 7.24916 -11.8553 1.99483 59.3133
797117 17.4185 8.4541 26.3613 7.37235 -11.7242 1.97824 59.6063
797137 17.4584 8.49082 26.1251 7.36288 -11.6635 1.90253 59.4372
797147 17.5281 8.59179 25.9577 7.26812 -11.6377 1.79606 59.3458
797159 17.5281 8.59179 25.9577 7.26812 -11.6377 1.79606 59.3458
797169 17.4484 8.57343 25.7215 7.33445 -11.5365 1.78597 59.0778
797178 17.3787 8.61015 25.6132 7.36288 -11.4555 1.77748 58.9649
797189 17.3787 8.61015 25.6132 7.36288 -11.4555 1.77748 58.9649
797198 17.3388 8.75702 25.5049 7.48606 -11.2549 1.75043 59.0868
797208 17.3388 8.75702 25.5049 7.48606 -11.2549 1.75043 59.0868
797220 17.2591 8.77538 25.4163 7.54292 -11.1695 1.76073 58.9937
797230 17.2591 8.93143 25.3966 7.66611 -10.9944 1.73971 59.2533
797250 17.1694 9.07829 25.3671 7.74192 -10.8313 1.73392 59.3567
797262 17.1594 9.18845 25.1998 7.86511 -10.6482 1.69585 59.4128
797275 17.1594 9.18845 25.1998 7.86511 -10.6482 1.69585 59.4128
797284 17.1295 9.33531 25.1013 7.94091 -10.4839 1.65797 59.5071
797293 17.1295 9.33531 24.9438 7.94091 -10.4454 1.62256 59.3496
797300 17.01 9.38121 24.9438 8.07358 -10.3095 1.67305 59.4086
797309 16.8771 9.48218 24.7863 8.19677 -10.1043 1.67432 59.3424
797331 16.8419 9.61987 24.4221 8.2631 -9.88261 1.57829 59.147
797341 16.6663 9.74838 24.0579 8.40524 -9.58366 1.54093 58.8778
797351 16.6663 9.74838 24.0579 8.40524 -9.58366 1.54093 58.8778
797362 16.5083 9.87689 23.6642 8.55686 -9.2732 1.49366 58.6062
797371 16.5083 9.87689 23.6642 8.55686 -9.2732 1.49366 58.6062
797382 16.4117 10.088 23.4771 8.76533 -8.95246 1.46644 58.7421
797391 16.28 10.2716 23.2901 9.10647 -8.56346 1.48733 58.9481
797401 16.28 10.2716 23.2901 9.10647 -8.56346 1.48733 58.9481
797412 16.1131 10.4093 23.0637 9.37179 -8.2244 1.5044 58.9579
797421 16.0077 10.6755 22.8274 9.70346 -7.79217 1.48132 59.2141
797434 16.0077 10.6755 22.8274 9.70346 -7.79217 1.48132 59.2141
797441 15.8058 10.9968 22.4632 10.0825 -7.24105 1.45156 59.3483
797451 15.5863 10.9968 22.0498 10.3952 -6.87982 1.48963 59.028
797462 15.5863 11.263 22.0498 10.3952 -6.7367 1.4156 59.2942
797472 15.3404 11.5292 21.6068 10.7932 -6.16879 1.39966 59.2696
797485 15.3404 11.5292 21.6068 10.7932 -6.16879 1.39966 59.2696
797492 15.1736 11.7311 21.1442 11.1438 -5.67757 1.36419 59.1926
797502 14.9365 11.9698 20.6914 11.4755 -5.15573 1.33579 59.0731
797522 14.8048 12.1901 20.2681 11.8545 -4.66371 1.30109 59.1174
797532 14.5325 12.4563 19.7858 12.1483 -4.12139 1.25891 58.9228
797544 14.5325 12.4563 19.7858 12.1483 -4.12139 1.25891 58.9228
797553 14.3306 12.7225 19.3329 12.6031 -3.53368 1.24168 58.9891
797574 14.1023 13.0621 18.8211 13.0864 -2.86721 1.20441 59.0718
797583 13.8388 13.264 18.4076 13.5507 -2.29919 1.23317 59.0612
797593 13.8388 13.264 18.4076 13.5507 -2.29919 1.23317 59.0612
797603 13.6632 13.5945 18.0041 13.8919 -1.76698 1.17614 59.1536
797614 13.3998 13.8515 17.4627 14.3657 -1.11937 1.16208 59.0796
797623 13.3998 13.8515 17.4627 14.3657 -1.11937 1.16208 59.0796
797633 13.2505 14.0443 17.0492 14.6499 -0.680371 1.11987 58.994
797645 13.2505 14.0443 17.0492 14.6499 -0.680371 1.11987 58.994
797655 12.9871 14.3105 16.5979 15.0953 -0.0759587 1.11772 58.9908
797667 12.8115 14.5583 16.134 15.5596 0.496277 1.09811 59.0634
797675 12.8115 14.5583 16.134 15.5596 0.496277 1.09811 59.0634
797689 12.5568 14.7511 15.6701 15.9671 1.05661 1.1017 58.9451
797694 12.2934 14.9255 15.2268 16.3367 1.59145 1.10865 58.7824
797704 12.2934 14.9255 15.2268 16.3367 1.59145 1.10865 58.7824
797716 12.1441 15.0081 14.8557 16.6589 1.98885 1.11537 58.6667
797736 11.8719 15.1458 14.5773 17.1266 2.47916 1.19708 58.7217
797746 11.7402 15.3753 14.2268 17.5748 2.96309 1.19307 58.917
797757 11.7402 15.3753 14.2268 17.5748 2.96309 1.19307 58.917
797767 11.5207 15.5772 13.8557 18.0814 3.50735 1.22957 59.0349
797777 11.3275 15.8067 13.5052 18.4418 3.98431 1.22192 59.0812
797787 11.3275 15.8067 13.5052 18.4418 3.98431 1.22192 59.0812
797799 11.1519 16.0178 13.1134 18.9582 4.51996 1.24117 59.2412
797807 10.9236 16.183 12.7113 19.2115 4.98041 1.22385 59.0294
797827 10.6865 16.4401 12.3814 19.4745 5.44512 1.20275 58.9825
797837 10.6865 16.4401 12.3814 19.4745 5.44512 1.20275 58.9825
797849 10.5284 16.6512 11.9691 19.7668 5.90697 1.16003 58.9154
797859 10.3616 16.9082 11.6804 19.9811 6.29857 1.11784 58.9313
797868 10.3616 16.9082 11.6804 19.9811 6.29857 1.11784 58.9313
797879 10.2123 17.1751 11.3918 20.1467 6.66843 1.0567 58.9258
797888 10.0367 17.3696 11.0722 20.2928 7.04153 1.01038 58.7712
797899 10.0367 17.3696 11.0722 20.2928 7.04153 1.01038 58.7712
797908 9.89618 17.5446 10.8866 20.4779 7.32917 1.00086 58.8053
797936 9.72056 17.7878 10.6701 20.6436 7.66748 0.970386 58.822
797938 9.61519 18.0309 10.4021 20.7702 7.98384 0.899255 58.8183
797949 9.61519 18.0309 10.4021 20.7702 7.98384 0.899255 58.8183
797958 9.57128 18.1087 10.3505 20.8871 8.09351 0.90575 58.9176
797968 9.33419 18.2351 10.2371 21.1014 8.38821 0.959777 58.9079
797980 9.33419 18.2351 10.2371 21.1014 8.38821 0.959777 58.9079
797990 9.22882 18.3324 10.1031 21.3158 8.61148 0.981089 58.9801
798002 9.22882 18.3324 10.1031 21.3158 8.61148 0.981089 58.9801
798010 8.98295 18.4394 10.0928 21.5885 8.86247 1.0809 59.1036
798020 8.86002 18.6241 10.0722 21.7249 9.03189 1.09131 59.2813
798031 8.86002 18.6241 10.0722 21.7249 9.03189 1.09131 59.2813
798041 8.80733 18.7895 9.90722 21.91 9.25074 1.06551 59.4141
798051 8.75465 18.9256 9.85567 22.1731 9.41582 1.09241 59.709
798071 8.67562 19.1104 9.65979 22.2413 9.64038 1.03415 59.6871
798085 8.67562 19.1104 9.65979 22.2413 9.64038 1.03415 59.6871
798092 8.51756 19.2077 9.47423 22.4166 9.91029 1.04811 59.6161
798102 8.37707 19.3535 9.34021 22.5433 10.14 1.04494 59.6141
798113 8.37707 19.3535 9.34021 22.5433 10.14 1.04494 59.6141
798122 8.22779 19.48 9.15464 22.7381 10.4176 1.05326 59.6005
798132 8.04339 19.6939 8.96907 22.894 10.7279 1.03835 59.6004
798142 8.04339 19.6939 8.96907 22.894 10.7279 1.03835 59.6004
798152 7.85021 19.976 8.73196 22.9427 11.0656 0.970189 59.5008
798162 7.70093 19.976 8.51546 22.9037 11.2796 0.949881 59.0961
798172 7.70093 20.0149 8.51546 22.9037 11.2887 0.93939 59.135
798182 7.56921 20.2191 8.34021 22.8258 11.507 0.859396 58.9543
798192 7.56921 20.2191 8.34021 22.8258 11.507 0.859396 58.9543
798202 7.41116 20.3553 8.25773 22.8648 11.6962 0.854847 58.8889
798215 7.35847 20.6373 8.17526 22.9037 11.8525 0.782876 59.0748
798222 7.35847 20.6373 8.17526 22.9037 11.8525 0.782876 59.0748
798233 7.3936 20.8026 8.16495 22.816 11.8543 0.705872 59.1772
798242 7.3936 20.8026 8.16495 22.816 11.8543 0.705872 59.1772
798252 7.49897 20.9193 8.13402 22.9037 11.8533 0.660852 59.4561
798262 7.61312 21.0944 8.09278 23.0693 11.8833 0.614989 59.8696
798283 7.65702 21.1527 8.03093 23.1278 11.9198 0.587547 59.9685
798296 7.71849 21.2597 7.97938 22.9622 11.9009 0.491492 59.9198
798304 7.71849 21.2597 7.97938 22.9622 11.9009 0.491492 59.9198
798318 7.70971 21.3764 7.87629 22.8258 11.9657 0.405416 59.7882
798325 7.70971 21.3764 7.87629 22.8258 11.9657 0.405416 59.7882
798333 7.63068 21.4834 7.74227 22.6115 12.0746 0.312683 59.4678
798344 7.58678 21.5612 7.71134 22.3095 12.0725 0.221266 59.1688
798363 7.56043 21.5515 7.51546 22.0562 12.1549 0.117504 58.6835
798373 7.55165 21.464 7.50515 21.949 12.1243 0.112504 58.4698
798383 7.55165 21.464 7.50515 21.949 12.1243 0.112504 58.4698
798393 7.50775 21.4542 7.49485 21.9198 12.1502 0.116306 58.3766
798404 7.50775 21.4542 7.49485 21.9198 12.1502 0.116306 58.3766
798414 7.55165 21.4056 7.57732 21.9587 12.0678 0.148428 58.4933
798427 7.59556 21.4737 7.58763 21.9003 12.0356 0.107247 58.5572
798446 7.74483 21.4542 7.60825 21.9198 11.9284 0.0840193 58.7271
798455 7.77118 21.5126 7.70103 21.9393 11.8711 0.0907588 58.924
798468 7.77118 21.5126 7.70103 21.9393 11.8711 0.0907588 58.924
798476 7.9468 21.5612 7.74227 21.988 11.7577 0.0562692 59.2382
798490 7.91167 21.532 7.79381 22.0075 11.7453 0.0905281 59.245
798496 7.91167 21.532 7.79381 22.0075 11.7453 0.0905281 59.245
798506 8.06095 21.4737 7.85567 22.0172 11.6039 0.0854015 59.4075
798516 8.06095 21.4737 7.85567 22.0172 11.6039 0.0854015 59.4075
798532 8.09607 21.357 7.84536 21.8613 11.5268 0.0643086 59.1597
798537 8.15754 21.2986 7.95876 21.7834 11.3879 0.0724626 59.1983
798546 8.15754 21.2986 7.95876 21.7834 11.3879 0.0724626 59.1983
798556 8.19267 21.2111 7.95876 21.647 11.3146 0.0513464 59.0095
798575 8.32438 21.0847 8.01031 21.5885 11.1589 0.0482476 59.0079
798576 8.32438 21.0847 8.01031 21.5885 11.1589 0.0482476 59.0079
798586 8.44731 20.968 8.12371 21.3937 10.9407 0.0259942 58.9327
798597 8.44731 20.968 8.12371 21.3937 10.9407 0.0259942 58.9327
798607 8.5 20.7929 8.13402 21.2963 10.8369 0.0350958 58.7232
798619 8.63171 20.5789 8.29897 21.267 10.5974 0.0906873 58.7767
798630 8.63171 20.5789 8.29897 21.267 10.5974 0.0906873 58.7767
798641 8.71074 20.3844 8.48454 21.2963 10.397 0.17468 58.876
798647 8.78977 20.1413 8.6701 21.345 10.19 0.275847 58.9462
798667 9.01808 19.8398 8.82474 21.3547 9.88854 0.33578 59.0374
798677 9.01808 19.8398 8.82474 21.3547 9.88854 0.33578 59.0374
798688 9.08833 19.655 9.07216 21.4619 9.68178 0.453131 59.2774
798698 9.20248 19.4119 9.35052 21.5398 9.41048 0.573726 59.5047
798709 9.20248 19.4119 9.35052 21.5398 9.41048 0.573726 59.5047
798718 9.35176 19.1882 9.53608 21.5301 9.15613 0.635723 59.6061
798730 9.41322 19.0132 9.63918 21.5009 9.00743 0.683352 59.5664
798738 9.41322 19.0132 9.63918 21.5009 9.00743 0.683352 59.5664
798748 9.5625 18.7311 9.92784 21.3742 8.64786 0.757209 59.5957
798759 9.5625 18.7311 9.92784 21.3742 8.64786 0.757209 59.5957
798769 9.65031 18.5074 9.98969 21.267 8.47204 0.782382 59.4145
798779 9.71178 18.3032 10.134 21.345 8.32117 0.873372 59.494
798789 9.71178 18.3032 10.134 21.345 8.32117 0.873372 59.494
798798 9.77324 18.0698 10.3093 21.267 8.10103 0.942442 59.4194
798819 9.86105 17.8267 10.4742 21.1794 7.86583 1.00248 59.3413
798828 9.87862 17.6613 10.6082 21.2281 7.74827 1.08538 59.3763
798841 9.87862 17.6613 10.6082 21.2281 7.74827 1.08538 59.3763
798850 9.81715 17.3307 10.6082 21.0917 7.64556 1.16031 58.8477
798859 9.94886 17.1751 10.6804 21.004 7.46059 1.16323 58.8083
798869 9.94886 17.1751 10.6804 21.004 7.46059 1.16323 58.8083
798881 9.99277 17.0973 10.8454 21.004 7.32241 1.21125 58.9394
798889 10.0279 17.0292 10.9072 21.1794 7.30148 1.27559 59.1437
798902 10.0279 17.0292 10.9072 21.1794 7.30148 1.27559 59.1437
798910 10.063 17 11.0206 21.4034 7.27881 1.35182 59.4871
798923 10.063 17 11.0206 21.4034 7.27881 1.35182 59.4871
798930 10.0455 16.9357 11.0412 21.5691 7.3073 1.41692 59.5915
798939 9.9313 16.9908 11.0619 21.5983 7.38305 1.44456 59.5823
798959 9.91374 17.0973 10.8866 21.7736 7.57088 1.42009 59.6712
798970 9.91374 17.0973 10.7216 21.7736 7.66117 1.38245 59.5063
798979 9.76446 17.1167 10.7216 21.8613 7.7744 1.4383 59.4641
798990 9.60641 17.1751 10.6082 21.9295 7.96113 1.45559 59.3192
799000 9.60641 17.1751 10.6082 21.9295 7.96113 1.45559 59.3192
799012 9.41322 17.282 10.3505 22.0659 8.28271 1.45178 59.1117
799020 9.22882 17.2626 10.3093 22.212 8.44586 1.53269 59.0127
799033 9.22882 17.2626 10.3093 22.212 8.44586 1.53269 59.0127
799040 9.02686 17.3793 10.2474 22.3777 8.6745 1.58024 59.0312
799050 9.02686 17.3793 10.2474 22.3777 8.6745 1.58024 59.0312
799061 8.92149 17.2334 10.1237 22.5725 8.81916 1.66725 58.8511
799070 8.8688 17.3307 10.1649 22.7868 8.91094 1.7123 59.1512
799080 8.8688 17.3307 10.1649 22.7868 8.91094 1.7123 59.1512
799090 8.8249 17.2918 10.134 22.9914 8.99878 1.77461 59.2421
799099 8.73709 17.3209 10.1237 23.0693 9.08401 1.80631 59.2511
799110 8.73709 17.3209 10.1237 23.0693 9.08401 1.80631 59.2511
799121 8.67562 17.2334 10.1753 23.3421 9.13931 1.92045 59.4264
799130 8.67562 17.2334 10.1753 23.3421 9.13931 1.92045 59.4264
799142 8.49122 17.1556 10.0515 23.4493 9.32502 1.9918 59.1477
799150 8.45609 17.0973 10.0412 23.537 9.35917 2.03568 59.1315
799159 8.45609 17.0973 10.0412 23.537 9.35917 2.03568 59.1315
799171 8.33316 17.0292 10 23.5467 9.43944 2.08399 58.909
799181 8.3156 16.8348 10.0206 23.4395 9.35757 2.1267 58.6105
799190 8.3156 16.8348 10.0206 23.4395 9.35757 2.1267 58.6105
799210 8.37707 16.8072 10.1134 23.4006 9.24957 2.1286 58.6983
799211 8.37707 16.8072 10.1134 23.4006 9.24957 2.1286 58.6983
799221 8.39463 16.6787 10.1856 23.3519 9.1495 2.16617 58.6108
799232 8.56147 16.541 10.433 23.3421 8.86954 2.20948 58.8776
799241 8.56147 16.541 10.433 23.3421 8.86954 2.20948 58.8776
799253 8.69318 16.4951 10.7113 23.5954 8.69233 2.29895 59.4951
799261 8.69318 16.4951 10.7113 23.5954 8.69233 2.29895 59.4951
799274 8.66684 16.4951 10.8454 23.7221 8.66617 2.36201 59.7294
799281 8.71952 16.4676 10.9175 23.6831 8.5777 2.36173 59.7877
799301 8.71952 16.4309 10.8866 23.5857 8.55817 2.34521 59.6227
799311 8.72831 16.3942 10.9588 23.4688 8.47014 2.34384 59.55
799322 8.72831 16.3942 10.9588 23.4688 8.47014 2.34384 59.55
799332 8.78099 16.4033 10.9381 23.4006 8.43572 2.30693 59.5231
799342 8.73709 16.3299 10.8969 23.0888 8.37588 2.26545 59.0527
799352 8.73709 16.3299 10.8969 23.0888 8.37588 2.26545 59.0527
799362 8.79855 16.3024 10.9794 22.894 8.23173 2.23125 58.9743
799375 8.79855 16.3024 10.9794 22.894 8.23173 2.23125 58.9743
799383 8.78099 16.2657 10.9588 22.8453 8.22895 2.2321 58.8507
799393 8.8249 16.2657 11.0412 22.8355 8.15496 2.23502 58.9673
799405 8.8249 16.2657 11.0412 22.8355 8.15496 2.23502 58.9673
799413 8.87758 16.2748 11.1649 22.7089 8.02236 2.21632 59.0262
799427 8.88636 16.2657 11.1856 22.592 7.96956 2.19555 58.9296
799434 8.88636 16.2657 11.1856 22.592 7.96956 2.19555 58.9296
799448 8.91271 16.183 11.433 22.4848 7.76185 2.24238 59.0136
799453 8.91271 16.183 11.433 22.4848 7.76185 2.24238 59.0136
799463 9.01808 16.1188 11.6289 22.3095 7.52486 2.23481 59.0752
799473 9.12345 16.1739 11.7629 22.1438 7.36072 2.18129 59.204
799485 9.12345 16.1739 11.7629 22.1438 7.36072 2.18129 59.204
799493 9.27273 16.1647 12.0309 21.9003 7.05816 2.14603 59.3686
799503 9.32541 16.0086 12.3299 21.6275 6.73825 2.1816 59.2915
799524 9.48347 15.8801 12.5773 21.3158 6.3854 2.15912 59.2567
799534 9.48347 15.8801 12.5773 21.3158 6.3854 2.15912 59.2567
799545 9.58006 15.6965 12.866 20.9553 6.00944 2.16878 59.0979
799555 9.67665 15.5956 13.1959 20.6533 5.6563 2.1761 59.1214
799564 9.67665 15.5956 13.1959 20.6533 5.6563 2.1761 59.1214
799574 9.82593 15.4303 13.5567 20.3026 5.22295 2.18293 59.1156
799586 9.95764 15.2468 14.0825 19.9811 4.71913 2.24214 59.268
799598 9.95764 15.2468 14.0825 19.9811 4.71913 2.24214 59.268
799605 10.0894 14.9989 14.4639 19.5524 4.22897 2.26583 59.1046
799625 10.2123 14.8062 14.9175 19.1822 3.74613 2.30419 59.1182
799635 10.4669 14.6593 15.5155 18.7925 3.14189 2.3173 59.4342
799645 10.4669 14.6593 15.5155 18.7925 3.14189 2.3173 59.4342
799655 10.6513 14.3931 16.0928 18.247 2.48212 2.34793 59.3842
799664 10.8445 14.182 16.5567 17.8183 1.93559 2.36068 59.4015
799675 10.8445 14.182 16.5567 17.8183 1.93559 2.36068 59.4015
799686 11.0289 13.8882 17.0984 17.3117 1.29477 2.40017 59.3273
799708 11.187 13.6037 17.63 16.9147 0.716862 2.46583 59.3354
799716 11.4241 13.3467 18.1714 16.403 0.0649571 2.47797 59.3451
799731 11.4241 13.3467 18.1714 16.403 0.0649571 2.47797 59.3451
799737 11.5909 13.1539 18.6242 15.9292 -0.477257 2.48118 59.2982
799746 11.8631 12.8234 19.3625 15.3227 -1.29667 2.52612 59.3718
799766 12.0914 12.5756 19.8842 14.8868 -1.89827 2.54988 59.4381
799776 12.0914 12.5756 19.8842 14.8868 -1.89827 2.54988 59.4381
799786 12.3197 12.291 20.3862 14.3751 -2.54319 2.56449 59.3721
799800 12.6622 12.0524 20.8981 13.8634 -3.21325 2.53386 59.4761
799806 12.6622 12.0524 20.8981 13.8634 -3.21325 2.53386 59.4761
799816 12.952 11.7862 21.469 13.2664 -3.93803 2.52145 59.4736
799826 13.3208 11.5108 22.0104 12.7358 -4.65132 2.49623 59.5778
799836 13.3208 11.5108 22.0104 12.7358 -4.65132 2.49623 59.5778
799851 13.6808 11.3089 22.4632 12.1767 -5.30712 2.42756 59.6296
799857 13.6808 11.3089 22.4632 12.1767 -5.30712 2.42756 59.6296
799867 14.032 10.9692 22.9948 11.5702 -6.08035 2.40836 59.5663
799877 14.4008 10.6388 23.4279 11.0585 -6.77495 2.38052 59.526
799888 14.4008 10.6388 23.4279 11.0585 -6.77495 2.38052 59.526
799898 14.7257 10.4276 23.7823 10.4805 -7.40534 2.29973 59.4161
799913 14.9979 10.0788 24.1268 10.0635 -8.00712 2.30657 59.2671
799928 15.2877 9.83099 24.4517 9.6466 -8.55404 2.27457 59.2169
799949 15.516 9.54644 24.7371 9.33389 -9.03583 2.28514 59.1335
799958 15.6829 9.30778 24.8848 9.04013 -9.42863 2.27468 58.9155
799969 15.6829 9.30778 24.8848 9.04013 -9.42863 2.27468 58.9155
799980 15.8848 9.16091 25.0915 8.82219 -9.74959 2.25612 58.9594
799989 16.0077 9.04158 25.3671 8.58528 -10.0624 2.26343 59.0017
800010 16.157 8.90389 25.5738 8.49052 -10.2902 2.28416 59.1253
800024 16.157 8.90389 25.5738 8.49052 -10.2902 2.28416 59.1253
800030 16.1307 8.75702 25.6034 8.43367 -10.413 2.32907 58.9247
800039 16.1307 8.79374 25.7215 8.38629 -10.4486 2.33348 59.0322
800050 16.1307 8.79374 25.7215 8.38629 -10.4486 2.33348 59.0322
800061 16.2448 8.7662 25.8593 8.35786 -10.544 2.33152 59.2282
800071 16.3151 8.73866 26.0562 8.39576 -10.6027 2.36907 59.5057
800081 16.3151 8.73866 26.0562 8.39576 -10.6027 2.36907 59.5057
800092 16.3853 8.60097 26.1251 8.31048 -10.77 2.3853 59.4219
800101 16.3853 8.60097 26.1251 8.31048 -10.77 2.3853 59.4219
800115 16.2975 8.58261 26.1349 8.28205 -10.7795 2.41247 59.2971
800121 16.2624 8.58261 26.2235 8.301 -10.7809 2.44557 59.3695
800141 16.28 8.55508 26.2629 8.29153 -10.8168 2.45482 59.3894
800151 16.2097 8.55508 26.4204 8.27258 -10.8491 2.50468 59.4577
800161 16.2097 8.55508 26.4204 8.27258 -10.8491 2.50468 59.4577
800171 16.3063 8.5 26.5188 8.24415 -10.9456 2.50716 59.5693
800183 16.3063 8.5 26.5188 8.24415 -10.9456 2.50716 59.5693
800191 16.2009 8.40821 26.5385 8.18729 -11.0154 2.55751 59.3349
800204 16.2536 8.31641 26.7157 8.22519 -11.102 2.61402 59.5109
800212 16.2536 8.31641 26.7157 8.22519 -11.102 2.61402 59.5109
800226 16.2448 8.31641 26.8141 8.13043 -11.1805 2.61739 59.5058
800232 16.2273 8.18791 27.0701 8.13991 -11.3079 2.71567 59.6252
800243 16.2273 8.18791 27.0701 8.13991 -11.3079 2.71567 59.6252
800262 16.2097 8.17873 27.1193 8.14939 -11.315 2.73569 59.6571
800272 16.2009 8.09611 27.198 8.03567 -11.4509 2.75572 59.5308
800284 16.1043 8.03186 27.3162 8.08305 -11.4661 2.83773 59.5354
800293 16.1043 8.03186 27.3162 8.08305 -11.4661 2.83773 59.5354
800304 16.1043 8.00432 27.3063 7.98829 -11.5389 2.82458 59.4033
800315 16.0429 7.97678 27.3063 8.00725 -11.5303 2.85521 59.3332
800324 16.0429 7.97678 27.3063 8.00725 -11.5303 2.85521 59.3332
800338 16.0077 7.93089 27.3457 7.95039 -11.5946 2.87605 59.2347
800343 15.9112 8.04104 27.3162 8.0262 -11.4513 2.88142 59.2945
800353 15.9112 8.04104 27.3162 8.0262 -11.4513 2.88142 59.2945
800364 15.9375 7.99514 27.4146 8.08305 -11.4731 2.91897 59.4303
800373 15.9375 7.99514 27.4146 8.08305 -11.4731 2.91897 59.4303
800384 15.8936 8.0135 27.4343 8.08305 -11.4563 2.93067 59.4244
800393 15.8673 8.00432 27.4343 8.10201 -11.4443 2.94524 59.4079
800404 15.8673 8.00432 27.4343 8.10201 -11.4443 2.94524 59.4079
800413 15.8409 8.05939 27.4244 8.11148 -11.3964 2.9365 59.4362
800424 15.8409 8.05939 27.4244 8.11148 -11.3964 2.9365 59.4362
800434 15.7531 7.98596 27.5622 8.15886 -11.4238 3.02271 59.4602
800448 15.7619 8.05939 27.5524 8.25362 -11.3208 3.01492 59.6273
800453 15.7619 8.05939 27.5524 8.25362 -11.3208 3.01492 59.6273
800469 15.7619 8.0135 27.5426 8.18729 -11.3871 3.01347 59.5052
800474 15.718 7.98596 27.6016 8.24415 -11.3726 3.05841 59.5497
800494 15.7619 8.05022 27.5032 8.18729 -11.3556 2.99442 59.5026
800505 15.7619 8.05022 27.5032 8.18729 -11.3556 2.99442 59.5026
800515 15.7443 7.97678 27.513 8.17781 -11.4046 3.02205 59.4119
800526 15.7707 8.08693 27.513 8.22519 -11.3144 2.9903 59.5958
800535 15.7707 8.08693 27.513 8.22519 -11.3144 2.9903 59.5958
800545 15.8146 8.05939 27.3654 8.22519 -11.3073 2.95553 59.4645
800557 15.7882 8.15119 27.3457 8.24415 -11.2292 2.93564 59.5292
800565 15.7882 8.15119 27.3457 8.24415 -11.2292 2.93564 59.5292
800580 15.7531 8.10529 27.2079 8.20624 -11.2402 2.92439 59.2725
800585 15.7531 8.10529 27.2079 8.20624 -11.2402 2.92439 59.2725
800595 15.8233 8.18791 27.139 8.24415 -11.167 2.87196 59.3944
800605 15.8321 8.2338 27.1488 8.22519 -11.1549 2.85366 59.4399
800614 15.8321 8.2338 27.1488 8.22519 -11.1549 2.85366 59.4399
800625 15.8146 8.2338 26.9716 8.20624 -11.121 2.81873 59.2262
800635 15.797 8.27052 26.883 8.21572 -11.0679 2.79667 59.1663
800644 15.797 8.27052 26.883 8.21572 -11.0679 2.79667 59.1663
800655 15.7882 8.38067 26.7157 8.25362 -10.9361 2.73945 59.1382
800668 15.7882 8.38067 26.7157 8.25362 -10.9361 2.73945 59.1382
800675 15.7707 8.36231 26.5976 8.29153 -10.8919 2.73359 59.0221
800685 15.8058 8.50918 26.5976 8.37681 -10.7597 2.69679 59.2893
800695 15.8058 8.50918 26.5976 8.37681 -10.7597 2.69679 59.2893
800705 15.8497 8.57343 26.568 8.40524 -10.7073 2.66434 59.3964
800715 15.8673 8.58261 26.6173 8.45262 -10.6894 2.67643 59.5197
800725 15.8673 8.58261 26.6173 8.45262 -10.6894 2.67643 59.5197
800736 15.9199 8.66523 26.7058 8.59476 -10.5892 2.68397 59.8858
800746 15.9199 8.66523 26.7058 8.59476 -10.5892 2.68397 59.8858
800759 15.8585 8.61933 26.6271 8.4621 -10.662 2.67213 59.567
800766 15.8497 8.66523 26.5582 8.47157 -10.6101 2.64881 59.5447
800776 15.8497 8.66523 26.5582 8.47157 -10.6101 2.64881 59.5447
800786 15.9112 8.61015 26.4893 8.47157 -10.6413 2.63261 59.4822
800796 15.8233 8.68359 26.3712 8.49052 -10.536 2.61622 59.3686
800806 15.8233 8.68359 26.3712 8.49052 -10.536 2.61622 59.3686
800816 15.7794 8.71112 26.3416 8.5 -10.496 2.61689 59.3322
800836 15.7443 8.72948 26.2826 8.54738 -10.4336 2.61943 59.3037
800848 15.7355 8.7203 26.2727 8.56633 -10.4232 2.62667 59.2949
800856 15.7355 8.7203 26.2727 8.56633 -10.4232 2.62667 59.2949
800871 15.6477 8.80292 26.2038 8.64214 -10.29 2.62966 59.2966
800886 15.5248 8.80292 26.1644 8.7369 -10.1932 2.67782 59.2291
800896 15.5511 8.77538 26.2334 8.75585 -10.2221 2.69642 59.3157
800907 15.5511 8.77538 26.2334 8.75585 -10.2221 2.69642 59.3157
800917 15.4458 8.88553 26.2137 8.83166 -10.0807 2.70663 59.3766
800927 15.3931 8.90389 26.3219 8.87904 -10.0558 2.74901 59.498
800947 15.4019 8.91307 26.3219 8.9359 -10.0192 2.75535 59.5728
800961 15.3755 8.91307 26.3909 8.95485 -10.0188 2.78123 59.6343
800967 15.3755 8.83963 26.3909 8.95485 -10.0619 2.80316 59.5608
800977 15.3755 8.81209 26.4302 8.90747 -10.1159 2.80975 59.5253
800988 15.3755 8.81209 26.4302 8.90747 -10.1159 2.80975 59.5253
800997 15.2965 8.82127 26.4696 8.87904 -10.1174 2.83291 59.4664
801007 15.3667 8.7662 26.4794 8.96433 -10.1196 2.8478 59.5767
801027 15.3667 8.74784 26.5582 8.86957 -10.206 2.85003 59.5423
801040 15.3316 8.74784 26.5582 8.82219 -10.2253 2.8509 59.4598
801048 15.3316 8.66523 26.5582 8.82219 -10.2743 2.87573 59.3772
801057 15.3843 8.58261 26.5483 8.78428 -10.3566 2.87499 59.2995
801070 15.3843 8.58261 26.5483 8.78428 -10.3566 2.87499 59.2995
801077 15.358 8.56425 26.5483 8.71795 -10.4007 2.8749 59.1885
801087 15.4019 8.48164 26.6763 8.81271 -10.4357 2.93204 59.3725
801097 15.4019 8.48164 26.6763 8.81271 -10.4357 2.93204 59.3725
801116 15.4458 8.5 26.7944 8.76533 -10.4927 2.92763 59.5055
801121 15.4458 8.5 26.7944 8.76533 -10.4927 2.92763 59.5055
801129 15.5336 8.46328 26.9519 8.83166 -10.5346 2.95751 59.7805
801138 15.5599 8.4541 26.9913 8.76533 -10.5954 2.94692 59.7707
801149 15.5599 8.4541 26.9913 8.76533 -10.5954 2.94692 59.7707
801161 15.5072 8.38067 26.9716 8.7369 -10.6388 2.97517 59.5964
801169 15.5336 8.35313 26.9421 8.67057 -10.6942 2.95615 59.4994
801183 15.5336 8.35313 26.9421 8.67057 -10.6942 2.95615 59.4994
801189 15.595 8.31641 26.8338 8.67057 -10.705 2.92673 59.4158
801199 15.595 8.31641 26.8338 8.67057 -10.705 2.92673 59.4158
801208 15.5863 8.27052 26.8141 8.65162 -10.7372 2.93539 59.3225
801219 15.5687 8.31641 26.7649 8.59476 -10.7277 2.90521 59.2448
801229 15.5687 8.31641 26.7649 8.59476 -10.7277 2.90521 59.2448
801238 15.516 8.31641 26.7157 8.71795 -10.6289 2.93622 59.2661
801251 15.4809 8.30724 26.6763 8.68952 -10.6335 2.93583 59.154
801258 15.4809 8.30724 26.6763 8.68952 -10.6335 2.93583 59.154
801277 15.4985 8.26134 26.7551 8.74638 -10.6502 2.97201 59.2612
801280 15.4985 8.26134 26.7551 8.74638 -10.6502 2.97201 59.2612
801290 15.437 8.37149 26.7748 8.82219 -10.5285 2.97661 59.4054
801300 15.4721 8.41739 26.8535 8.92642 -10.4668 2.98908 59.6694
801309 15.4721 8.41739 26.8535 8.92642 -10.4668 2.98908 59.6694
801324 15.4897 8.43575 26.7157 8.95485 -10.4096 2.95619 59.596
801330 15.5599 8.42657 26.6763 8.94537 -10.4282 2.92792 59.6082
801350 15.5424 8.53672 26.5779 8.9738 -10.3175 2.88591 59.6308
801361 15.5424 8.53672 26.5779 8.9738 -10.3175 2.88591 59.6308
801369 15.5424 8.5 26.4204 8.88852 -10.3512 2.84742 59.3513
801379 15.5687 8.49082 26.3023 8.9359 -10.3057 2.82776 59.2977
801390 15.5687 8.49082 26.3023 8.9359 -10.3057 2.82776 59.2977
801399 15.6214 8.55508 26.1841 8.94537 -10.2456 2.77031 59.306
801414 15.5687 8.64687 26.0857 8.94537 -10.1534 2.73826 59.2466
801420 15.5687 8.64687 26.0857 8.94537 -10.1534 2.73826 59.2466
801431 15.5775 8.70194 25.9676 8.9738 -10.0764 2.70056 59.2208
801441 15.5775 8.70194 25.9676 8.9738 -10.0764 2.70056 59.2208
801451 15.5687 8.69276 25.9282 9.09699 -9.99683 2.72331 59.2867
801462 15.6038 8.77538 25.9774 9.22965 -9.89163 2.72576 59.5863
801483 15.5424 8.87635 25.8593 9.16332 -9.82565 2.67589 59.4413
801491 15.5599 8.86717 25.7904 9.28651 -9.74583 2.68465 59.504
801506 15.5599 8.86717 25.7904 9.28651 -9.74583 2.68465 59.504
801512 15.5336 9.01404 25.6526 9.34337 -9.58489 2.63211 59.5436
801522 15.5336 9.01404 25.6526 9.34337 -9.58489 2.63211 59.5436
801532 15.4282 9.0324 25.5049 9.38127 -9.48638 2.63508 59.3468
801542 15.4282 9.14255 25.4163 9.41918 -9.3773 2.59184 59.4063
801562 15.358 9.15173 25.2195 9.51394 -9.24654 2.58858 59.2431
801576 15.3316 9.2068 25.0915 9.52341 -9.16808 2.55518 59.1533
801582 15.3316 9.2068 25.0915 9.52341 -9.16808 2.55518 59.1533
801592 15.314 9.32613 24.8946 9.62765 -8.98158 2.50549 59.1624
801602 15.314 9.32613 24.8946 9.62765 -8.98158 2.50549 59.1624
801612 15.2701 9.473 24.7174 9.6845 -8.80465 2.4496 59.1451
801622 15.2262 9.56479 24.5895 9.90245 -8.58107 2.45455 59.283
801632 15.2262 9.56479 24.5895 9.90245 -8.58107 2.45455 59.283
801644 15.1736 9.66577 24.4615 9.93088 -8.45763 2.41924 59.2317
801652 15.0506 9.73002 24.2056 10.1014 -8.2186 2.41837 59.0876
801666 15.0506 9.73002 24.2056 10.1014 -8.2186 2.41837 59.0876
801674 15.077 9.84935 24.1367 10.2815 -8.03899 2.39917 59.3445
801682 15.077 9.84935 24.1367 10.2815 -8.03899 2.39917 59.3445
801692 14.9979 9.94114 23.9496 10.4142 -7.83784 2.38387 59.3029
801703 14.9101 10.0697 23.6149 10.6132 -7.53373 2.34301 59.2079
801712 14.9101 10.0697 23.6149 10.6132 -7.53373 2.34301 59.2079
801723 14.8574 10.2073 23.1228 10.8311 -7.17644 2.25922 59.0186
801733 14.7169 10.4644 22.6601 11.1438 -6.6834 2.19274 58.9852
801742 14.7169 10.4644 22.6601 11.1438 -6.6834 2.19274 58.9852
801755 14.515 10.6847 22.2073 11.4944 -6.17269 2.16516 58.9014
801771 14.515 10.6847 22.2073 11.4944 -6.17269 2.16516 58.9014
801779 14.4008 10.9784 21.784 11.9493 -5.60675 2.11987 59.1125
801783 14.2428 11.2721 21.3903 12.3473 -5.06883 2.08159 59.2524
801794 14.2428 11.2721 21.3903 12.3473 -5.06883 2.08159 59.2524
801803 14.0671 11.5292 20.8193 12.7074 -4.50331 2.01201 59.123
801814 13.9618 11.7678 20.2681 13.1906 -3.91607 1.95878 59.1883
801826 13.9618 11.7678 20.2681 13.1906 -3.91607 1.95878 59.1883
801833 13.7335 12.0248 19.7169 13.655 -3.28535 1.93138 59.1301
801847 13.7335 12.0248 19.7169 13.655 -3.28535 1.93138 59.1301
801853 13.5139 12.2819 19.1951 14.1193 -2.66787 1.90795 59.1102
801863 13.3208 12.5205 18.6734 14.5836 -2.06861 1.88223 59.0983
801874 13.3208 12.5205 18.6734 14.5836 -2.06861 1.88223 59.0983
801883 13.1364 12.75 18.2305 14.9437 -1.55481 1.85093 59.0605
801894 12.9256 12.9519 17.8662 15.3796 -1.04033 1.86938 59.1234
801903 12.9256 12.9519 17.8662 15.3796 -1.04033 1.86938 59.1234
801913 12.6885 13.0713 17.5414 15.825 -0.563915 1.92974 59.1262
801923 12.6885 13.0713 17.5414 15.825 -0.563915 1.92974 59.1262
801935 12.469 13.264 17.0492 16.2514 -0.00118315 1.92286 59.0337
801943 12.2319 13.4384 16.6701 16.7726 0.553599 1.97223 59.113
801957 12.2319 13.4384 16.6701 16.7726 0.553599 1.97223 59.113
801965 12.0387 13.6496 16.1959 17.2436 1.12405 1.96637 59.1277
801981 11.7402 13.9066 15.732 17.8281 1.79985 2.00482 59.2068
801985 11.7402 13.9066 15.732 17.8281 1.79985 2.00482 59.2068
801995 11.5382 14.237 15.299 18.4321 2.45014 2.00545 59.5063
802005 11.5382 14.237 15.299 18.4321 2.45014 2.00545 59.5063
802015 11.2133 14.4023 14.7216 19.0458 3.16299 2.05915 59.3831
802028 10.9148 14.6226 14.1237 19.6011 3.87483 2.07236 59.2622
802035 10.9148 14.6226 14.1237 19.6011 3.87483 2.07236 59.2622
802050 10.6338 14.8337 13.6495 20.0785 4.48892 2.0932 59.1955
802055 10.3352 14.9989 13.1546 20.5559 5.10839 2.12797 59.0447
802065 10.3352 14.9989 13.1546 20.5559 5.10839 2.12797 59.0447
802077 10.1069 15.0999 12.7732 20.965 5.59199 2.17103 58.9451
802084 10.1069 15.0999 12.7732 20.965 5.59199 2.17103 58.9451
802097 9.8874 15.311 12.4845 21.3255 6.04345 2.18908 59.0084
802106 9.65909 15.4028 12.3093 21.6567 6.39154 2.26269 59.0279
802117 9.65909 15.4028 12.3093 21.6567 6.39154 2.26269 59.0279
802126 9.48347 15.5221 11.9794 21.9782 6.79979 2.27735 58.9632
802141 9.48347 15.5221 11.9794 21.9782 6.79979 2.27735 58.9632
802146 9.33419 15.513 11.8866 22.3289 7.03536 2.37926 59.0627
802156 9.16736 15.5956 11.7113 22.6991 7.35804 2.44558 59.1734
802166 9.16736 15.5956 11.7113 22.6991 7.35804 2.44558 59.1734
802176 9.00052 15.6506 11.5258 22.9817 7.65147 2.49911 59.1586
802187 8.90393 15.6782 11.4742 23.2739 7.82651 2.5702 59.3303
802196 8.90393 15.6782 11.4742 23.2739 7.82651 2.5702 59.3303
802208 8.73709 15.8251 11.3505 23.5564 8.11089 2.60929 59.4691
802216 8.73709 15.8251 11.3505 23.5564 8.11089 2.60929 59.4691
802226 8.54391 15.9077 11.1753 23.8195 8.41431 2.66034 59.4463
802237 8.44731 15.9719 11.0412 24.0046 8.61345 2.68055 59.4651
802256 8.36829 16.0362 10.9278 24.141 8.77748 2.6897 59.4733
802266 8.24535 16.1555 10.8144 24.2287 8.96827 2.68544 59.4439
802276 8.24535 16.1555 10.8144 24.2287 8.96827 2.68544 59.4439
802289 8.13998 16.2106 10.6289 24.2968 9.16833 2.67606 59.2763
802297 8.13998 16.2106 10.6289 24.2968 9.16833 2.67606 59.2763
802307 8.01705 16.2932 10.5258 24.365 9.33912 2.68084 59.2011
802322 7.98192 16.3483 10.4227 24.4235 9.44936 2.66559 59.1764
802327 7.98192 16.3483 10.4227 24.4235 9.44936 2.66559 59.1764
802337 7.9468 16.5778 10.299 24.4332 9.60449 2.58392 59.2568
802347 7.9468 16.7522 10.1649 24.4917 9.74302 2.51645 59.3556
802357 7.9468 16.7522 10.1649 24.4917 9.74302 2.51645 59.3556
802368 7.92924 16.9174 10 24.5501 9.90723 2.45052 59.3968
802377 7.92924 16.9174 10 24.5501 9.90723 2.45052 59.3968
802392 7.82386 17.0875 9.87629 24.4819 10.0681 2.39081 59.2696
802401 7.77118 17.3696 9.74227 24.3845 10.2251 2.27428 59.2675
802410 7.77118 17.3696 9.74227 24.3845 10.2251 2.27428 59.2675
802417 7.70093 17.496 9.58763 24.4138 10.3978 2.23092 59.1983
802433 7.58678 17.7294 9.50515 24.4527 10.5823 2.18688 59.2741
802437 7.58678 17.7294 9.50515 24.4527 10.5823 2.18688 59.2741
802447 7.54287 17.9142 9.45361 24.5209 10.7008 2.14973 59.4316
802457 7.54287 17.9142 9.45361 24.5209 10.7008 2.14973 59.4316
802467 7.3936 18.0017 9.34021 24.4917 10.8732 2.13667 59.2272
802477 7.38481 18.0503 9.27835 24.5112 10.9322 2.11593 59.2247
802487 7.38481 18.0503 9.27835 24.5112 10.9322 2.11593 59.2247
802499 7.3936 18.1865 9.2268 24.4722 10.9812 2.05441 59.2791
802507 7.4375 18.2449 9.24742 24.4332 10.9467 2.02103 59.363
802521 7.4375 18.2449 9.24742 24.4332 10.9467 2.02103 59.363
802527 7.50775 18.3616 9.23711 24.3553 10.9196 1.94826 59.4617
802537 7.50775 18.3616 9.23711 24.3553 10.9196 1.94826 59.4617
802547 7.51653 18.4005 9.18557 24.1799 10.9131 1.88467 59.2825
802557 7.578 18.3616 9.09278 24.0143 10.8834 1.82082 59.0467
802579 7.70093 18.4102 9.08247 23.9266 10.8057 1.75016 59.1202
802591 7.67459 18.4102 9.10309 23.7805 10.774 1.72945 58.9684
802600 7.67459 18.3227 9.10309 23.7805 10.7529 1.75431 58.8809
802613 7.75362 18.3032 9.09278 23.761 10.7017 1.73067 58.9106
802619 7.75362 18.3032 9.09278 23.761 10.7017 1.73067 58.9106
802628 7.77996 18.2643 9.17526 23.6441 10.5979 1.72648 58.8636
802638 7.83264 18.2157 9.27835 23.5564 10.4704 1.7288 58.8831
802659 7.95558 18.1865 9.40206 23.5662 10.3176 1.73223 59.1103
802668 8.05217 18.1379 9.69072 23.4395 10.0448 1.75494 59.3203
802682 8.05217 18.1379 9.69072 23.4395 10.0448 1.75494 59.3203
802688 8.21901 18.1087 9.71134 23.3226 9.89737 1.69459 59.3617
802699 8.21901 18.1087 9.71134 23.3226 9.89737 1.69459 59.3617
802710 8.25413 17.9823 9.7732 23.1668 9.76813 1.69922 59.1764
802719 8.33316 17.9725 9.95876 23.1278 9.60075 1.71256 59.3923
802730 8.33316 17.9725 9.95876 23.1278 9.60075 1.71256 59.3923
802740 8.54391 17.9336 10.0825 22.9037 9.33804 1.64184 59.4637
802760 8.55269 17.9336 10.1959 22.7673 9.23153 1.63421 59.4495
802770 8.71952 17.7975 10.2268 22.6407 9.04775 1.60408 59.3845
802791 8.77221 17.8072 10.2887 22.5433 8.95856 1.57861 59.4113
802801 8.85124 17.7683 10.4742 22.3777 8.75231 1.57193 59.4714
802812 8.85124 17.7683 10.4742 22.3777 8.75231 1.57193 59.4714
802821 8.99174 17.7294 10.4227 22.2607 8.65915 1.50551 59.4046
802832 9.01808 17.6419 10.433 22.0756 8.56301 1.48272 59.1686
802852 9.03564 17.5835 10.4433 21.9198 8.48745 1.46075 58.9822
802864 9.03564 17.5835 10.4433 21.9198 8.48745 1.46075 58.9822
802872 9.10589 17.5349 10.4948 21.8516 8.38561 1.4509 58.9872
802887 9.1937 17.5252 10.5258 21.7736 8.29376 1.41834 59.0183
802892 9.1937 17.5252 10.5258 21.7736 8.29376 1.41834 59.0183
802902 9.31663 17.4863 10.5979 21.7249 8.15914 1.4004 59.1258
802914 9.29029 17.4571 10.6495 21.6665 8.12001 1.41422 59.0633
802922 9.29029 17.4571 10.6495 21.6665 8.12001 1.41422 59.0633
802932 9.29907 17.4474 10.7113 21.7152 8.0916 1.43987 59.173
802942 9.29907 17.4474 10.7113 21.7152 8.0916 1.43987 59.173
802955 9.33419 17.4085 10.7629 21.7639 8.046 1.46385 59.2694
802962 9.28151 17.4085 10.8144 21.7931 8.055 1.49692 59.2975
802972 9.28151 17.4085 10.8144 21.7931 8.055 1.49692 59.2975
802982 9.26395 17.389 10.7732 21.8418 8.09615 1.50892 59.268
802992 9.22882 17.2723 10.8247 21.8223 8.04804 1.55862 59.1482
803002 9.22882 17.2723 10.8247 21.8223 8.04804 1.55862 59.1482
803014 9.25517 17.3307 10.866 21.8321 8.02984 1.54652 59.2839
803024 9.25517 17.3307 10.866 21.8321 8.02984 1.54652 59.2839
803033 9.21126 17.282 10.8454 21.8126 8.04633 1.56328 59.1513
803051 9.15857 17.2334 10.9072 21.7834 8.01886 1.5991 59.0826
803069 9.2376 17.2237 10.866 21.7444 7.98374 1.56143 59.0717
803074 9.2376 17.1459 10.9175 21.9393 7.98866 1.63908 59.2403
803093 9.2376 17.107 10.9072 21.9685 7.99162 1.65428 59.2203
803117 9.08833 17.107 10.9485 22.1731 8.11037 1.7515 59.3168
803124 9.00052 17.0973 10.8866 22.29 8.22451 1.79137 59.2743
803135 9.00052 17.0973 10.8866 22.29 8.22451 1.79137 59.2743
803145 8.98295 17.0778 10.8969 22.4166 8.25886 1.8323 59.3743
803155 8.96539 17.0778 10.9381 22.5433 8.28125 1.87441 59.5246
803165 8.96539 17.0778 10.9381 22.5433 8.28125 1.87441 59.5246
803175 8.8249 17.0681 10.8247 22.7381 8.47543 1.93502 59.4558
803188 8.8249 17.0681 10.8247 22.7381 8.47543 1.93502 59.4558
803195 8.6844 17.1362 10.6804 22.894 8.69826 1.95821 59.395
803204 8.54391 17.1653 10.5876 23.0791 8.88949 2.01028 59.3759
803215 8.54391 17.1653 10.5876 23.0791 8.88949 2.01028 59.3759
803232 8.36829 17.2431 10.4845 23.2739 9.12257 2.05838 59.3699
803234 8.28048 17.3112 10.4227 23.3908 9.25798 2.07604 59.4052
803245 8.28048 17.3112 10.4227 23.3908 9.25798 2.07604 59.4052
803255 8.19267 17.4085 10.3093 23.6246 9.4613 2.09947 59.535
803265 8.19267 17.4085 10.3093 23.6246 9.4613 2.09947 59.535
803277 8.08729 17.4474 10.2165 23.7221 9.61174 2.11958 59.4732
803285 7.99948 17.5446 10.1237 23.8487 9.77466 2.1242 59.5165
803300 7.99948 17.5446 10.1237 23.8487 9.77466 2.1242 59.5165
803305 7.88533 17.5738 9.92784 23.7805 9.94683 2.09132 59.1675
803315 7.79752 17.5349 9.86598 23.8292 10.0379 2.12514 59.0276
803325 7.79752 17.5349 9.86598 23.8292 10.0379 2.12514 59.0276
803336 7.70971 17.6516 9.81443 23.9072 10.1699 2.12251 59.0829
803345 7.70971 17.6516 9.81443 23.9072 10.1699 2.12251 59.0829
803355 7.73605 17.6905 9.78351 23.8682 10.1726 2.08837 59.0783
803368 7.6219 17.7683 9.75258 23.7805 10.2567 2.07292 58.9233
803374 7.6219 17.7683 9.75258 23.7805 10.2567 2.07292 58.9233
803391 7.68337 17.8656 9.73196 23.8974 10.2857 2.04816 59.1783
803395 7.68337 17.8656 9.73196 23.8974 10.2857 2.04816 59.1783
803405 7.68337 17.8558 9.83505 23.9948 10.2462 2.0947 59.3691
803415 7.64824 17.8753 9.94845 24.063 10.2216 2.13856 59.535
803424 7.64824 17.8753 9.94845 24.063 10.2216 2.13856 59.535
803437 7.68337 17.8461 9.92784 24.063 10.2057 2.1324 59.5204
803446 7.70093 17.7683 9.89691 24.0533 10.1919 2.14096 59.4194
803461 7.70093 17.7683 9.89691 24.0533 10.1919 2.14096 59.4194
803466 7.70093 17.7878 10.0206 23.9754 10.1041 2.14525 59.4847
803476 7.70093 17.7878 10.0206 23.9754 10.1041 2.14525 59.4847
803486 7.70971 17.7391 10.0309 23.9559 10.0758 2.15476 59.4356
803496 7.77996 17.6224 10.1134 23.9461 9.95393 2.18387 59.4619
803506 7.77996 17.6224 10.1134 23.9461 9.95393 2.18387 59.4619
803516 7.78874 17.5641 10.0206 23.7318 9.9342 2.13169 59.1052
803528 7.79752 17.4182 10.1546 23.6636 9.79505 2.18583 59.034
803546 7.88533 17.3598 10.2784 23.4883 9.61012 2.16603 59.0118
803556 7.88533 17.3598 10.2784 23.4883 9.61012 2.16603 59.0118
803566 7.85899 17.1362 10.4536 23.4006 9.44111 2.25806 58.8493
803577 7.93802 16.9816 10.6186 23.3129 9.2343 2.29693 58.8511
803586 7.93802 16.9816 10.6186 23.3129 9.2343 2.29693 58.8511
803597 8.04339 16.8348 10.866 23.1375 8.94291 2.32467 58.8817
803606 8.12242 16.6328 11.2371 23.0109 8.59452 2.41328 59.0032
803619 8.12242 16.6328 11.2371 23.0109 8.59452 2.41328 59.0032
803626 8.28048 16.5778 11.5979 22.9232 8.26151 2.44098 59.3794
803636 8.28048 16.5778 11.5979 22.9232 8.26151 2.44098 59.3794
803646 8.32438 16.3299 11.9278 22.6797 7.91292 2.5193 59.2618
803656 8.52634 16.1739 12.3505 22.4264 7.44966 2.54131 59.4771
803670 8.52634 16.1739 12.3505 22.4264 7.44966 2.54131 59.4771
803681 8.65806 15.9536 12.701 22.0854 7.02037 2.56948 59.398
803692 8.65806 15.9536 12.701 22.0854 7.02037 2.56948 59.398
803700 8.77221 15.6598 13.1031 21.686 6.53082 2.62331 59.2211
803711 9.01808 15.4579 13.6289 21.2573 5.92476 2.63052 59.3621
803717 9.01808 15.4579 13.6289 21.2573 5.92476 2.63052 59.3621
803728 9.13223 15.2376 14.0515 20.8189 5.43242 2.65883 59.2403
803737 9.35176 15.0265 14.5979 20.3903 4.82892 2.68081 59.3664
803749 9.35176 15.0265 14.5979 20.3903 4.82892 2.68081 59.3664
803757 9.53616 14.8612 15 19.9226 4.31882 2.66148 59.32
803768 9.69421 14.5491 15.5979 19.4745 3.68008 2.7385 59.3158
803781 9.69421 14.5491 15.5979 19.4745 3.68008 2.7385 59.3158
803787 9.97521 14.338 16.268 18.812 2.90723 2.71921 59.3933
803798 9.97521 14.338 16.268 18.812 2.90723 2.71921 59.3933
803807 10.2299 14.0259 16.8454 18.1983 2.17075 2.72883 59.2994
803818 10.4845 13.6771 17.5217 17.5748 1.36929 2.76795 59.2581
803827 10.4845 13.6771 17.5217 17.5748 1.36929 2.76795 59.2581
803837 10.7655 13.3099 18.2009 16.9052 0.52751 2.79582 59.1816
803848 10.7655 13.3099 18.2009 16.9052 0.52751 2.79582 59.1816
803857 11.0904 12.9152 18.9294 16.2703 -0.352238 2.83608 59.2053
803873 11.3977 12.5664 19.8251 15.6734 -1.25418 2.90965 59.4626
803877 11.3977 12.5664 19.8251 15.6734 -1.25418 2.90965 59.4626
803887 11.828 12.2268 20.3665 15.0669 -2.05959 2.86913 59.4882
803898 12.1441 11.933 20.9867 14.4036 -2.85626 2.8536 59.4674
803919 12.469 11.6301 21.5675 13.7876 -3.62409 2.83982 59.4542
803928 12.469 11.6301 21.5675 13.7876 -3.62409 2.83982 59.4542
803943 12.7851 11.3548 22.1384 13.1622 -4.37688 2.81644 59.4405
803948 13.031 11.1161 22.5912 12.5463 -5.0434 2.78075 59.2845
803964 13.031 11.1161 22.5912 12.5463 -5.0434 2.78075 59.2845
803968 13.3032 10.8591 22.9653 12.0725 -5.63215 2.7556 59.2
803979 13.5491 10.6112 23.5263 11.5987 -6.26864 2.77422 59.2853
803999 13.7949 10.4093 23.9988 11.2007 -6.81095 2.77641 59.4037
804009 13.7949 10.4093 24.3926 11.2007 -6.93071 2.8569 59.7975
804020 13.953 10.1982 24.3926 10.8311 -7.2911 2.79728 59.3749
804033 14.1198 9.90443 24.8946 10.4805 -7.8408 2.86641 59.3994
804039 14.1198 9.90443 24.8946 10.4805 -7.8408 2.86641 59.3994
804049 14.2867 9.72084 25.308 10.1867 -8.27159 2.89584 59.5023
804059 14.4711 9.50972 25.7904 9.97826 -8.69191 2.95932 59.7494
804073 14.4711 9.50972 25.7904 9.97826 -8.69191 2.95932 59.7494
804080 14.5677 9.26188 26.2629 9.69398 -9.14702 3.04266 59.7864
804090 14.6994 9.0324 26.7058 9.32441 -9.64175 3.08686 59.762
804110 14.7696 8.81209 27.198 9.14437 -10.0173 3.19421 59.9241
804126 14.7696 8.81209 27.198 9.14437 -10.0173 3.19421 59.9241
804131 14.7872 8.48164 27.5032 8.96433 -10.3975 3.31423 59.7363
804141 14.8311 8.28888 27.7985 8.68952 -10.7583 3.36399 59.608
804151 14.8311 8.28888 27.7985 8.68952 -10.7583 3.36399 59.608
804161 14.9101 8.04104 28.1529 8.55686 -11.0898 3.45919 59.6609
804174 14.8223 7.81155 28.3104 8.36734 -11.3611 3.55171 59.3116
804181 14.8223 7.81155 28.3104 8.36734 -11.3611 3.55171 59.3116
804191 14.8662 7.60961 28.6549 8.29153 -11.6202 3.65282 59.4222
804201 14.8662 7.60961 28.6549 8.29153 -11.6202 3.65282 59.4222
804211 14.9013 7.42603 29.0388 8.19677 -11.8855 3.7544 59.5629
804221 14.9101 7.15983 29.3636 8.16834 -12.1412 3.89132 59.6019
804243 14.9628 7.01296 29.8657 8.0641 -12.416 3.99479 59.9055
804251 17.1295 7.01296 30.1905 8.0641 -12.9185 3.39249 62.3971
804266 14.8662 6.71004 30.1905 8.0641 -12.6534 4.18137 59.8309
804272 14.9452 6.57235 30.3677 7.94091 -12.8705 4.20995 59.8262
804282 14.9452 6.57235 30.3677 7.94091 -12.8705 4.20995 59.8262
804292 14.9716 6.42549 30.4169 7.8272 -13.0513 4.2371 59.6412
804302 14.9979 6.29698 30.3775 7.70401 -13.21 4.24073 59.3765
804335 15.0506 6.18683 30.4071 7.69454 -13.3033 4.263 59.339
804337 15.156 6.10421 30.4268 7.70401 -13.3751 4.26089 59.391
804358 15.235 6.03078 30.5449 7.61873 -13.5162 4.26501 59.4294
804362 15.235 6.03078 30.5449 7.61873 -13.5162 4.26501 59.4294
804373 15.2789 5.9757 30.5843 7.61873 -13.568 4.27574 59.4576
804383 15.3316 5.91145 30.7516 7.72297 -13.5843 4.32825 59.7176
804393 15.3316 5.91145 30.7516 7.72297 -13.5843 4.32825 59.7176
804404 15.358 5.99406 30.7614 7.70401 -13.5501 4.29141 59.8175
804413 15.358 5.9757 30.7516 7.68506 -13.5723 4.29218 59.7703
804427 15.358 5.9757 30.7516 7.68506 -13.5723 4.29218 59.7703
804434 15.4019 5.99406 30.7713 7.74192 -13.536 4.28581 59.9091
804451 15.4019 5.99406 30.7713 7.74192 -13.536 4.28581 59.9091
804454 15.4019 5.98488 30.7319 7.70401 -13.5588 4.27493 59.8227
804463 15.5248 6.03078 30.7221 7.58082 -13.6302 4.19673 59.8585
804476 15.5248 6.03078 30.7221 7.58082 -13.6302 4.19673 59.8585
804483 15.5424 6.04914 30.5941 7.60925 -13.579 4.16721 59.7948
804497 15.6214 6.01242 30.5547 7.58082 -13.6286 4.14136 59.7693
804503 15.6214 6.01242 30.5547 7.58082 -13.6286 4.14136 59.7693
804513 15.7092 6.10421 30.5252 7.53344 -13.611 4.06999 59.872
804524 15.7092 6.10421 30.5252 7.53344 -13.611 4.06999 59.872
804533 15.7443 6.05832 30.3578 7.46711 -13.6584 4.0306 59.6276
804544 15.8058 6.06749 30.3874 7.49554 -13.6514 4.01874 59.7562
804565 15.8233 6.01242 30.2102 7.42921 -13.6998 3.98577 59.4752
804587 15.7882 5.95734 30.1807 7.41026 -13.7358 4.00563 59.3365
804595 15.8673 6.05832 30.1216 7.40078 -13.6799 3.93541 59.4479
804609 15.8673 6.05832 30.1216 7.40078 -13.6799 3.93541 59.4479
804615 15.9112 6.15929 30.0133 7.47659 -13.5529 3.88332 59.5604
804625 15.9551 6.2419 29.8755 7.46711 -13.4875 3.81569 59.5396
804634 15.9551 6.2419 29.8755 7.46711 -13.4875 3.81569 59.5396
804645 15.9726 6.37041 29.7968 7.48606 -13.3805 3.75838 59.6259
804655 15.9726 6.37041 29.7968 7.48606 -13.3805 3.75838 59.6259
804665 15.9199 6.49892 29.6786 7.43868 -13.2948 3.70324 59.5362
804677 15.8936 6.56317 29.4916 7.53344 -13.1505 3.6738 59.4818
804700 15.8497 6.66415 29.3046 7.54292 -13.0334 3.62197 59.3613
804705 15.8321 6.74676 29.2455 7.57135 -12.9469 3.5957 59.3958
804725 15.797 6.9487 29.2258 7.65663 -12.753 3.55623 59.6282
804735 15.797 6.9487 29.2258 7.65663 -12.753 3.55623 59.6282
804748 15.7004 6.9946 29.2061 7.76087 -12.6341 3.58821 59.662
804756 15.6214 7.08639 29.2554 7.79877 -12.5463 3.60088 59.7619
804776 15.5072 7.06803 29.1865 7.80825 -12.5136 3.63088 59.57
804786 15.4458 7.14147 29.216 7.90301 -12.4012 3.65081 59.7062
804797 15.4458 7.14147 29.216 7.90301 -12.4012 3.65081 59.7062
804807 15.3755 7.14147 29.1569 7.89353 -12.3798 3.65975 59.5674
804819 15.2614 7.05886 29.2258 7.99777 -12.3567 3.75439 59.5438
804827 15.2614 7.05886 29.2258 7.99777 -12.3567 3.75439 59.5438
804842 15.1999 7.08639 29.3341 8.09253 -12.2901 3.80328 59.7129
804857 15.156 7.11393 29.3341 8.16834 -12.2163 3.82263 59.7724
804867 15.1296 7.11393 29.4227 8.13043 -12.2532 3.8404 59.7967
804878 15.1296 7.11393 29.4227 8.13043 -12.2532 3.8404 59.7967
804889 15.1472 7.09557 29.3932 8.09253 -12.2857 3.82805 59.7285
804900 15.0331 7.09557 29.403 8.11148 -12.2516 3.86948 59.6431
804912 15.0331 7.09557 29.403 8.11148 -12.2516 3.86948 59.6431
804919 15.0506 7.03132 29.5113 8.14939 -12.2949 3.91146 59.7426
804934 15.0506 7.03132 29.5113 8.14939 -12.2949 3.91146 59.7426
804938 14.9979 6.9487 29.6097 8.12096 -12.374 3.96735 59.6773
804956 15.1209 6.95788 29.7475 8.18729 -12.3819 3.96312 60.0136
804962 15.1209 6.95788 29.7475 8.18729 -12.3819 3.96312 60.0136
804971 15.1384 6.87527 29.8657 8.14939 -12.4854 3.99842 60.0287
804979 15.1736 6.83855 29.8755 8.12096 -12.5355 3.99552 60.0086
804990 15.1736 6.83855 29.8755 8.12096 -12.5355 3.99552 60.0086
805004 15.2175 6.71004 29.9543 8.08305 -12.6652 4.02982 59.9648
805010 15.2175 6.71004 29.9543 8.08305 -12.6652 4.02982 59.9648
805020 15.1999 6.63661 30.0232 7.97882 -12.7876 4.05228 59.8385
805030 15.2789 6.59071 30.0133 7.96934 -12.8367 4.03819 59.8523
805040 15.2789 6.59071 30.0133 7.96934 -12.8367 4.03819 59.8523
805050 15.2262 6.5081 29.846 7.89353 -12.8925 4.03669 59.4739
805060 15.3492 6.45302 29.8952 7.84615 -12.9927 4.01534 59.5435
805073 15.3492 6.45302 29.8952 7.84615 -12.9927 4.01534 59.5435
805080 15.358 6.44384 29.9936 7.84615 -13.0201 4.03359 59.6416
805090 15.358 6.44384 29.9936 7.84615 -13.0201 4.03359 59.6416
805099 15.3755 6.38877 29.9247 7.81773 -13.0631 4.02765 59.5067
805110 15.4106 6.37959 30.0822 7.8272 -13.1014 4.05007 59.6997
805120 15.4106 6.37959 30.0822 7.8272 -13.1014 4.05007 59.6997
805130 15.437 6.37041 30.2397 7.83668 -13.1378 4.07514 59.8838
805142 15.4545 6.34287 30.4464 7.84615 -13.1935 4.11762 60.09
805167 15.4282 6.35205 30.5744 7.83668 -13.2136 4.14449 60.1913
805181 15.3931 6.30616 30.476 7.77035 -13.2589 4.14053 59.9455
805191 15.3053 6.26944 30.3283 7.76087 -13.2422 4.15188 59.6639
805201 15.3053 6.26944 30.3283 7.76087 -13.2422 4.15188 59.6639
805216 15.3228 6.27862 30.1905 7.66611 -13.2735 4.10083 59.4581
805221 15.3228 6.37041 29.9641 7.60925 -13.2061 4.01916 59.2666
805231 15.3228 6.37041 29.9641 7.60925 -13.2061 4.01916 59.2666
805244 15.2789 6.44384 29.8164 7.62821 -13.1083 3.98578 59.1674
805262 15.1472 6.48056 29.6885 7.64716 -13.0199 3.996 58.9634
805272 15.1033 6.63661 29.6589 7.70401 -12.8681 3.96505 59.1029
805286 15.1033 6.63661 29.6589 7.70401 -12.8681 3.96505 59.1029
805292 15.0067 6.7284 29.4719 7.74192 -12.7264 3.93868 58.9489
805302 14.9716 6.7743 29.59 7.85563 -12.6419 3.97855 59.1916
805314 14.9716 6.7743 29.59 7.85563 -12.6419 3.97855 59.1916
805322 14.8838 6.96706 29.718 7.99777 -12.4386 3.99509 59.5666
805333 14.8838 6.96706 29.718 7.99777 -12.4386 3.99509 59.5666
