1485394 9.47469 33.0372 6.04124 23.0109 14.1594 -2.8212 71.564
1485405 9.53616 33.4165 6.02062 22.9719 14.1885 -2.91057 71.9452
1485413 9.53616 33.4165 6.02062 22.9719 14.1885 -2.91057 71.9452
1485423 9.49225 33.7082 5.98969 22.9427 14.2685 -2.96705 72.1329
1485433 9.49225 33.7082 5.98969 22.9427 14.2685 -2.96705 72.1329
1485443 9.46591 33.9027 5.84536 23.0693 14.4089 -2.99943 72.2834
1485453 9.47469 34 5.93814 23.0109 14.3593 -3.00847 72.4237
1485463 9.47469 34 5.93814 23.0109 14.3593 -3.00847 72.4237
1485473 9.45713 34 5.83505 22.9524 14.4164 -3.04583 72.2446
1485483 9.45713 34 5.86598 22.8745 14.3881 -3.05758 72.1976
1485494 9.45713 34 5.86598 22.8745 14.3881 -3.05758 72.1976
1485503 9.54494 34 5.87629 22.8745 14.3346 -3.06951 72.2957
1485523 9.49225 34 5.89691 22.9817 14.3678 -3.02892 72.3708
1485533 9.60641 34 5.93814 23.0304 14.2907 -3.0254 72.5749
1485553 9.63275 34 5.95876 23.0401 14.2667 -3.02221 72.6316
1485563 9.68543 34 6.05155 22.9817 14.1795 -3.02238 72.7186
1485573 9.68543 34 6.05155 22.9817 14.1795 -3.02238 72.7186
1485583 9.76446 33.9125 6.07217 22.9817 14.1128 -3.01587 72.7308
1485605 9.86105 33.8541 6.05155 22.6894 14.0191 -3.09999 72.4561
1485617 10.0894 33.7277 6.23711 22.4556 13.7419 -3.12875 72.5098
1485626 10.0894 33.7277 6.23711 22.4556 13.7419 -3.12875 72.5098
1485634 10.1508 33.5526 6.14433 22.3095 13.7086 -3.17009 72.1572
1485645 10.2825 33.3484 6.24742 22.2413 13.5399 -3.1494 72.1196
1485664 10.5196 33.1442 6.39175 22.1536 13.29 -3.14056 72.2091
1485674 10.5196 33.1442 6.39175 22.1536 13.29 -3.14056 72.2091
1485684 10.7392 33.0372 6.45361 22.0367 13.1046 -3.17285 72.2666
1485694 10.9587 32.9205 6.48454 21.8321 12.9195 -3.2334 72.1958
1485704 10.9587 32.9205 6.48454 21.8321 12.9195 -3.2334 72.1958
1485714 11.187 32.8621 6.61856 21.6567 12.6905 -3.27147 72.3244
1485725 11.2309 32.619 6.59794 21.4619 12.6033 -3.29373 71.9097
1485735 11.2309 32.619 6.59794 21.4619 12.6033 -3.29373 71.9097
1485744 11.3538 32.6968 6.64948 21.4716 12.5275 -3.31075 72.1717
1485755 11.3538 32.6968 6.64948 21.4716 12.5275 -3.31075 72.1717
1485765 11.4855 32.833 6.62887 21.2281 12.4511 -3.42115 72.1754
1485774 11.5909 32.9983 6.61856 21.0332 12.3967 -3.51685 72.241
1485795 11.7577 33.0761 6.54639 20.7312 12.3084 -3.65189 72.1115
1485806 11.8104 33.1733 6.5567 20.5461 12.2604 -3.72072 72.0866
1485815 11.8104 33.1733 6.5567 20.5461 12.2604 -3.72072 72.0866
1485825 11.9773 33.2803 6.56701 20.3123 12.1465 -3.82154 72.1369
1485837 11.9773 33.2803 6.56701 20.3123 12.1465 -3.82154 72.1369
1485847 12.0739 33.3289 6.43299 19.9908 12.117 -3.9635 71.8266
1485856 12.0914 33.4067 6.41237 19.7375 12.087 -4.05069 71.6481
1485865 12.0914 33.4067 6.41237 19.7375 12.087 -4.05069 71.6481
1485875 12.109 33.4554 6.36082 19.5719 12.0835 -4.11869 71.4971
1485885 12.1353 33.5429 6.30928 19.533 12.1054 -4.16021 71.5205
1485912 12.2319 33.7374 6.43299 19.4355 12.009 -4.19712 71.8379
1485930 12.3549 33.9805 6.4433 19.3868 11.9757 -4.26214 72.1655
1485937 12.5041 34 6.43299 19.1628 11.8674 -4.34988 72.0999
1485947 12.5041 34 6.43299 19.1628 11.8674 -4.34988 72.0999
1485957 12.6271 34 6.34021 19.0069 11.8236 -4.43492 71.9742
1485967 12.6446 34 6.3299 18.9289 11.8056 -4.46135 71.9035
1485977 12.6446 34 6.3299 18.9289 11.8056 -4.46135 71.9035
1485987 12.6446 34 6.30928 18.8802 11.8072 -4.48014 71.8341
1485998 12.6446 34 6.30928 18.8802 11.8072 -4.48014 71.8341
1486007 12.5832 34 6.2165 18.7633 11.865 -4.52818 71.563
1486017 12.5744 34 6.26804 18.7828 11.8465 -4.50753 71.6252
1486027 12.5744 34 6.26804 18.7828 11.8465 -4.50753 71.6252
1486037 12.5919 34 6.12371 18.7633 11.9083 -4.55482 71.479
1486057 12.548 34 6.18557 18.549 11.8596 -4.59021 71.2826
1486067 12.5919 34 6.12371 18.4223 11.8455 -4.64854 71.138
1486077 12.5919 34 6.12371 18.4223 11.8455 -4.64854 71.138
1486087 12.6271 34 6.06186 18.3736 11.8504 -4.68423 71.0626
1486097 12.5832 34 6.07217 18.286 11.8516 -4.69932 70.9413
1486107 12.5832 34 6.07217 18.286 11.8516 -4.69932 70.9413
1486117 12.5305 34 6.04124 18.4029 11.9166 -4.66781 70.9746
1486127 12.5305 34 6.04124 18.4029 11.9166 -4.66781 70.9746
1486137 12.4427 34 6.01031 18.3347 11.966 -4.68253 70.7876
1486148 12.4514 34 6.10309 18.5003 11.9435 -4.61223 71.0548
1486158 12.4514 34 6.10309 18.5003 11.9435 -4.61223 71.0548
1486168 12.4251 34 5.97938 18.3834 12.0003 -4.67503 70.7879
1486178 12.311 34 5.90722 18.3639 12.0943 -4.68387 70.5821
1486188 12.311 34 5.90722 18.3639 12.0943 -4.68387 70.5821
1486198 12.3373 34 5.90722 18.3054 12.0698 -4.70404 70.55
1486218 12.2144 34 5.79381 18.2762 12.1891 -4.72601 70.2844
1486228 12.1178 34 5.75258 18.3054 12.2674 -4.71525 70.1758
1486241 12.1178 34 5.75258 18.3054 12.2674 -4.71525 70.1758
1486248 12.0212 34 5.61856 18.2762 12.385 -4.74707 69.916
1486258 11.7841 34 5.5567 18.286 12.5473 -4.72694 69.6268
1486279 11.5821 34 5.48454 18.2957 12.6975 -4.71478 69.3624
1486289 11.5821 34 5.48454 18.2957 12.6975 -4.71478 69.3624
1486300 11.2133 34 5.39175 18.3931 12.967 -4.65848 68.9982
1486309 11.0992 34 5.43299 18.6075 13.0444 -4.56874 69.1396
1486329 11.187 34 5.53608 18.9387 12.997 -4.45988 69.6617
1486339 11.2485 34 5.59794 19.2017 12.9751 -4.37888 70.0481
1486349 11.2485 34 5.59794 19.2017 12.9751 -4.37888 70.0481
1486360 11.345 34 5.58763 19.494 12.9785 -4.31586 70.4267
1486369 11.345 34 5.58763 19.494 12.9785 -4.31586 70.4267
1486379 11.2924 34 5.60825 19.6401 13.0207 -4.26222 70.5407
1486389 11.266 34 5.63918 19.6888 13.0265 -4.23648 70.594
1486399 11.266 34 5.63918 19.6888 13.0265 -4.23648 70.594
1486410 11.0904 34 5.64948 19.7473 13.1256 -4.1909 70.4872
1486419 10.9938 34 5.63918 19.7278 13.1802 -4.18418 70.3608
1486441 10.8972 34 5.5567 19.757 13.2825 -4.18385 70.2109
1486450 10.8972 34 5.5567 19.757 13.2825 -4.18385 70.2109
1486462 10.8709 34 5.58763 19.7862 13.2849 -4.16337 70.2447
1486471 10.906 34 5.54639 19.7278 13.2785 -4.19601 70.1802
1486481 10.906 34 5.54639 19.7278 13.2785 -4.19601 70.1802
1486492 10.9499 34 5.5567 19.6596 13.2375 -4.21861 70.1662
1486502 10.9587 34 5.63918 19.6304 13.1829 -4.20539 70.2282
1486512 10.9587 34 5.63918 19.6304 13.1829 -4.20539 70.2282
1486523 10.9499 34 5.62887 19.6888 13.2031 -4.19088 70.2676
1486532 10.9499 34 5.62887 19.6888 13.2031 -4.19088 70.2676
1486542 10.9587 34 5.65979 19.796 13.1995 -4.15459 70.4145
1486552 11.0465 34 5.7835 19.7862 13.0835 -4.13717 70.6162
1486578 11.1782 34 5.79381 19.9129 13.0285 -4.12038 70.8849
1486582 11.3889 34 5.86598 19.8837 12.8723 -4.14107 71.1386
1486592 11.3889 34 5.86598 19.8837 12.8723 -4.14107 71.1386
1486602 11.6085 34 5.92783 19.8642 12.7198 -4.16309 71.4005
1486612 11.6085 34 5.92783 19.8642 12.7198 -4.16309 71.4005
1486622 11.6612 34 5.97938 19.7375 12.6429 -4.19125 71.3781
1486632 11.8368 34 6.05155 19.6011 12.4888 -4.23505 71.4895
1486642 11.8368 34 6.05155 19.6011 12.4888 -4.23505 71.4895
1486652 12.109 34 6.04124 19.3186 12.302 -4.35486 71.4688
1486662 12.267 34 6.10309 19.1238 12.1527 -4.4144 71.4939
1486672 12.267 34 6.10309 19.1238 12.1527 -4.4144 71.4939
1486682 12.4778 34 6.13402 18.812 11.9709 -4.52196 71.4238
1486702 12.7324 34 6.18557 18.4613 11.7483 -4.64117 71.3793
1486712 13.0046 34 6.35052 18.1885 11.4732 -4.71018 71.5437
1486732 13.4174 34 6.38144 17.8963 11.1924 -4.84126 71.6951
1486742 13.7159 33.7374 6.57732 17.565 10.8279 -4.88387 71.5957
1486752 13.7159 33.7374 6.57732 17.565 10.8279 -4.88387 71.5957
1486763 14.1462 33.4651 6.70103 17.341 10.4527 -4.93403 71.6533
1486783 14.5677 32.9788 6.86598 16.9621 9.9851 -4.98464 71.3746
1486793 15.0594 32.6287 7.06186 16.5831 9.49438 -5.05584 71.333
1486803 15.0594 32.6287 7.06186 16.5831 9.49438 -5.05584 71.333
1486813 15.6038 32.1814 7.26804 16.3177 8.97677 -5.08598 71.3709
1486823 16.1043 31.7437 7.4433 15.9861 8.4817 -5.1388 71.2774
1486833 16.1043 31.7437 7.4433 15.9861 8.4817 -5.1388 71.2774
1486843 16.7278 31.2283 7.74227 15.5596 7.82995 -5.18976 71.258
1486853 16.7278 31.2283 7.74227 15.5596 7.82995 -5.18976 71.258
1486863 17.4385 30.5669 8.1134 15.1427 7.07176 -5.20954 71.2615
1486877 18.2157 29.8473 8.4433 14.8679 6.32447 -5.20184 71.3742
1486894 18.9033 29.1567 8.7732 14.631 5.63613 -5.17514 71.4642
1486903 19.6108 28.4468 9.14433 14.4225 4.92646 -5.12899 71.6244
1486915 19.6108 28.4468 9.14433 14.4225 4.92646 -5.12899 71.6244
1486923 20.0791 27.7855 9.54639 14.2804 4.33815 -5.02944 71.6914
1486944 20.6272 27.163 9.84536 13.9961 3.7297 -5.01498 71.6317
1486954 21.1454 26.4725 10.2165 13.8634 3.12914 -4.92441 71.6978
1486964 21.1454 26.4725 10.2165 13.8634 3.12914 -4.92441 71.6978
1486974 21.6536 25.9571 10.6392 13.6644 2.54775 -4.86143 71.9143
1486985 22.112 25.3055 11.2268 13.4465 1.87722 -4.7324 72.0907
1486994 22.112 25.3055 11.2268 13.4465 1.87722 -4.7324 72.0907
1487004 22.6899 24.5275 11.9485 13.2285 1.07661 -4.56673 72.3944
1487014 22.6899 24.5275 11.9485 13.2285 1.07661 -4.56673 72.3944
1487024 23.1682 23.6035 12.732 12.9158 0.213751 -4.37533 72.4196
1487034 23.7063 22.6213 13.8454 12.7547 -0.745833 -4.05762 72.9277
1487044 23.7063 22.6213 13.8454 12.7547 -0.745833 -4.05762 72.9277
1487054 24.1547 21.6487 15.1237 12.5747 -1.71935 -3.69482 73.5019
1487064 24.5234 20.7346 16.4433 12.4326 -2.63026 -3.31471 74.1339
1487074 24.5234 20.7346 16.4433 12.4326 -2.63026 -3.31471 74.1339
1487086 24.922 20.0441 17.8662 12.1957 -3.51488 -2.97973 75.028
1487097 24.922 20.0441 17.8662 12.1957 -3.51488 -2.97973 75.028
1487106 25.1213 19.1979 19.018 11.7503 -4.3919 -2.70705 75.0875
1487117 25.3007 18.4977 20.1401 11.2386 -5.22252 -2.47809 75.1771
1487136 25.3804 17.6711 20.9079 10.689 -6.00426 -2.30171 74.6484
1487146 25.3605 16.8715 21.784 10.1678 -6.77549 -2.07866 74.1838
1487165 25.3904 16.0086 22.601 9.78874 -7.51945 -1.83143 73.7888
1487175 25.3904 16.0086 22.601 9.78874 -7.51945 -1.83143 73.7888
1487187 25.3505 15.2009 23.1818 9.36232 -8.19789 -1.64318 73.0955
1487195 25.3206 14.5675 23.5657 9.08751 -8.6955 -1.49602 72.5414
1487215 25.2011 14.1085 23.9988 8.86957 -9.08234 -1.3386 72.178
1487225 25.0715 14.1085 24.3335 8.86957 -9.12745 -1.23861 72.3831
1487235 25.0715 13.7873 24.3335 8.9738 -9.23009 -1.15389 72.1661
1487245 25.0217 13.5578 24.806 8.98328 -9.42626 -0.992866 72.3688
1487267 24.9719 13.3834 25.0915 8.94537 -9.57791 -0.894787 72.3921
1487277 24.932 13.2549 25.2785 8.86957 -9.70696 -0.837518 72.335
1487297 24.9021 13.0437 25.5148 8.86957 -9.8519 -0.738595 72.3302
1487307 24.9021 13.0437 25.5148 8.86957 -9.8519 -0.738595 72.3302
1487317 24.8822 12.8143 25.7116 8.75585 -10.0548 -0.671168 72.1639
1487327 24.932 12.6031 25.9282 8.77481 -10.2032 -0.588083 72.2381
1487337 24.932 12.6031 25.9282 8.77481 -10.2032 -0.588083 72.2381
1487347 24.922 12.3737 26.0562 8.75585 -10.3487 -0.516659 72.1077
1487357 24.932 12.236 26.1054 8.699 -10.4562 -0.492601 71.9723
1487377 25.0117 12.0616 26.4105 8.66109 -10.6382 -0.416171 72.1449
1487387 25.0117 12.0616 26.4105 8.66109 -10.6382 -0.416171 72.1449
1487398 25.0217 11.9698 26.6763 8.71795 -10.7101 -0.330975 72.3857
1487408 25.0715 11.7678 27.0012 8.7369 -10.8739 -0.227607 72.5774
1487418 25.0715 11.7678 27.0012 8.7369 -10.8739 -0.227607 72.5774
1487428 25.0615 11.5842 27.1488 8.68004 -11.0197 -0.169078 72.4746
1487438 25.0615 11.3272 27.4146 8.68004 -11.1987 -0.0608683 72.4834
1487448 25.0615 11.3272 27.4146 8.68004 -11.1987 -0.0608683 72.4834
1487458 25.0914 11.1436 27.7788 8.63266 -11.3887 0.0364226 72.6465
1487468 25.0914 11.1436 27.7788 8.63266 -11.3887 0.0364226 72.6465
1487478 25.1512 10.8499 28.1135 8.67057 -11.5904 0.161353 72.7852
1487488 25.1612 10.5929 28.4186 8.54738 -11.8398 0.249991 72.7201
1487498 25.1612 10.5929 28.4186 8.54738 -11.8398 0.249991 72.7201
1487508 25.1413 10.4001 28.6451 8.54738 -11.9748 0.340499 72.7338
1487518 25.0018 10.1614 29.0191 8.51895 -12.1526 0.48999 72.7013
1487528 25.0018 10.1614 29.0191 8.51895 -12.1526 0.48999 72.7013
1487538 25.0516 9.98704 29.1668 8.41472 -12.3301 0.525237 72.6201
1487558 24.942 9.73002 29.2554 8.40524 -12.464 0.619762 72.3326
1487568 24.9619 9.65659 29.3046 8.47157 -12.4796 0.654261 72.3946
1487578 24.9619 9.65659 29.3046 8.47157 -12.4796 0.654261 72.3946
1487588 24.8124 9.71166 29.1963 8.54738 -12.3671 0.668263 72.2678
1487598 24.6928 9.93197 29.1471 8.65162 -12.1702 0.657358 72.4235
1487619 24.663 10.2808 29.1077 8.86957 -11.8691 0.624002 72.921
1487630 24.663 10.2808 29.1077 8.86957 -11.8691 0.624002 72.921
1487640 24.6331 10.5653 29.0683 8.92642 -11.6847 0.573075 73.1931
1487650 24.5932 10.8315 28.9207 9.01171 -11.4749 0.512761 73.3571
1487660 24.5932 10.8315 28.9207 9.01171 -11.4749 0.512761 73.3571
1487669 24.5533 10.9876 28.6549 8.9738 -11.3595 0.427998 73.1696
1487680 24.4836 11.3089 28.143 9.04013 -11.0577 0.285859 72.9756
1487690 24.4836 11.3089 28.143 9.04013 -11.0577 0.285859 72.9756
1487700 24.4039 11.7311 27.7394 9.11594 -10.7193 0.148049 72.9903
1487709 24.4039 11.7311 27.7394 9.11594 -10.7193 0.148049 72.9903
1487719 24.3341 12.2819 27.3358 9.24861 -10.2935 -0.00645876 73.2004
1487729 24.354 12.7867 27.0208 9.31494 -9.96006 -0.164334 73.4765
1487739 24.354 12.7867 27.0208 9.31494 -9.96006 -0.164334 73.4765
1487749 24.3341 13.2273 26.4302 9.28651 -9.6381 -0.377609 73.2782
1487759 24.3042 13.466 25.7805 9.20123 -9.42159 -0.57492 72.752
1487769 24.3042 13.466 25.7805 9.20123 -9.42159 -0.57492 72.752
1487779 24.374 13.6496 25.1899 9.08751 -9.27609 -0.777189 72.301
1487791 24.374 13.6496 25.1899 9.08751 -9.27609 -0.777189 72.301
1487799 24.5234 13.7505 24.7568 8.89799 -9.25628 -0.963285 71.9288
1487812 24.653 13.8515 24.4221 8.79376 -9.21281 -1.10609 71.7204
1487821 24.653 13.8515 24.4221 8.79376 -9.21281 -1.10609 71.7204
1487832 24.8523 13.8423 24.1071 8.66109 -9.25516 -1.24395 71.4628
1487852 25.0117 13.9341 23.8118 8.61371 -9.20387 -1.37036 71.3714
1487863 25.2907 14.2003 23.5263 8.57581 -9.09337 -1.5481 71.5932
1487870 25.2907 14.2003 23.5263 8.57581 -9.09337 -1.5481 71.5932
1487879 25.4402 14.3839 23.3492 8.5 -9.03596 -1.66902 71.6733
1487890 25.6794 14.3931 23.2999 8.43367 -9.10527 -1.74195 71.8061
1487899 25.6794 14.3931 23.2999 8.43367 -9.10527 -1.74195 71.8061
1487912 25.8986 14.3472 23.3688 8.36734 -9.22207 -1.77328 71.982
1487930 26.1178 14.2095 23.3984 8.28205 -9.38255 -1.80124 72.0078
1487941 26.2573 14.1085 23.5165 8.28205 -9.48641 -1.78079 72.1644
1487950 26.2573 14.1085 23.5165 8.28205 -9.48641 -1.78079 72.1644
1487960 26.2673 14.1728 23.5756 8.29153 -9.46605 -1.77845 72.3072
1487971 26.4267 14.1452 23.7331 8.29153 -9.54694 -1.76607 72.5966
1487990 26.4666 14.1544 23.9004 8.34838 -9.55958 -1.72339 72.8698
1488001 26.4666 14.1544 23.9004 8.34838 -9.55958 -1.72339 72.8698
1488013 26.4766 14.0994 24.1465 8.38629 -9.62177 -1.65024 73.1087
1488021 26.5264 14.0076 24.304 8.45262 -9.6773 -1.59175 73.2906
1488030 26.5264 14.0076 24.304 8.45262 -9.6773 -1.59175 73.2906
1488040 26.4865 13.8882 24.3138 8.40524 -9.7501 -1.57106 73.0938
1488051 26.4467 13.6863 24.3827 8.34838 -9.87961 -1.52376 72.8641
1488061 26.4467 13.6863 24.3827 8.34838 -9.87961 -1.52376 72.8641
1488070 26.3869 13.567 24.4713 8.34838 -9.94279 -1.47047 72.7735
1488093 26.2075 13.3742 24.5206 8.31048 -10.027 -1.39837 72.4127
1488102 26.1776 13.2916 24.5993 8.31048 -10.0771 -1.35939 72.379
1488112 26.1776 13.2916 24.5993 8.31048 -10.0771 -1.35939 72.379
1488123 26.078 13.1814 24.6584 8.29153 -10.1314 -1.31067 72.2093
1488132 26.078 13.0896 24.7962 8.32943 -10.186 -1.25364 72.2932
1488142 26.078 13.0896 24.7962 8.32943 -10.186 -1.25364 72.2932
1488152 26.1079 13.0805 25.0127 8.42419 -10.1948 -1.18789 72.6252
1488162 26.1079 13.0805 25.0127 8.42419 -10.1948 -1.18789 72.6252
1488172 25.9683 12.9336 25.2884 8.38629 -10.3122 -1.08037 72.5766
1488182 26.0182 12.8418 25.4163 8.5379 -10.319 -1.0106 72.8142
1488192 26.0182 12.8418 25.4163 8.5379 -10.319 -1.0106 72.8142
1488202 26.0082 12.8234 25.4951 8.4621 -10.3786 -1.00451 72.7888
1488212 25.8886 12.7684 25.6132 8.50948 -10.382 -0.934528 72.7797
1488221 25.8886 12.7684 25.6132 8.50948 -10.382 -0.934528 72.7797
1488233 25.8986 12.7225 25.692 8.4621 -10.4452 -0.920714 72.7751
1488243 25.8986 12.7225 25.692 8.4621 -10.4452 -0.920714 72.7751
1488254 25.8288 12.6582 25.7215 8.47157 -10.4638 -0.886211 72.6801
1488263 25.8388 12.6857 25.7116 8.5379 -10.4181 -0.881153 72.7741
1488273 25.8388 12.6857 25.7116 8.5379 -10.4181 -0.881153 72.7741
1488283 25.7093 12.649 25.8494 8.47157 -10.47 -0.833236 72.6793
1488293 25.6594 12.6031 25.9479 8.5 -10.4882 -0.78696 72.7105
1488303 25.6594 12.6031 25.9479 8.5 -10.4882 -0.78696 72.7105
1488313 25.5797 12.5389 25.9774 8.5379 -10.4911 -0.74413 72.6339
1488333 25.51 12.4838 26.0168 8.55686 -10.5027 -0.706953 72.5674
1488343 25.4801 12.4654 26.0562 8.50948 -10.5368 -0.699175 72.5112
1488353 25.4801 12.4654 26.0562 8.50948 -10.5368 -0.699175 72.5112
1488363 25.4103 12.4746 26.1743 8.51895 -10.5373 -0.659639 72.5782
1488373 25.3605 12.4838 26.2432 8.60424 -10.4949 -0.618404 72.6917
1488384 25.3605 12.4838 26.2432 8.60424 -10.4949 -0.618404 72.6917
1488393 25.2409 12.5297 26.3416 8.70847 -10.4175 -0.560384 72.8207
1488403 25.2409 12.5297 26.3416 8.70847 -10.4175 -0.560384 72.8207
1488413 25.2509 12.5848 26.3318 8.76533 -10.3632 -0.563231 72.9328
1488423 25.1114 12.7225 26.381 8.78428 -10.2692 -0.548337 72.9991
1488444 24.9719 12.8234 26.3515 8.87904 -10.1405 -0.526823 73.0258
1488454 24.7726 12.9244 26.4105 8.94537 -10.0315 -0.480692 73.0529
1488464 24.7726 12.9244 26.4105 8.94537 -10.0315 -0.480692 73.0529
1488475 24.5932 12.9887 26.381 8.98328 -9.93962 -0.456004 72.9462
1488492 24.5932 12.9887 26.381 8.98328 -9.93962 -0.456004 72.9462
1488496 24.4238 12.9519 26.3219 8.9738 -9.91448 -0.429328 72.6715
1488505 24.2644 13.0162 26.2629 8.96433 -9.84264 -0.424786 72.5078
1488515 24.2644 13.0162 26.2629 8.96433 -9.84264 -0.424786 72.5078
1488525 24.1547 13.108 26.2334 9.04961 -9.72852 -0.409351 72.5457
1488538 24.0651 13.1539 26.1054 9.09699 -9.6379 -0.417676 72.4213
1488555 24.0152 13.264 26.0857 9.07804 -9.57955 -0.438044 72.443
1488567 24.0152 13.264 26.0857 9.07804 -9.57955 -0.438044 72.443
1488575 23.8857 13.4201 25.9282 9.09699 -9.43469 -0.472949 72.331
1488585 23.8757 13.3008 25.9971 9.10647 -9.49972 -0.430185 72.2801
1488607 23.8359 13.4476 26.0463 9.2107 -9.3823 -0.419036 72.5405
1488617 23.8658 13.4384 26.1251 9.16332 -9.43246 -0.416534 72.5926
1488627 23.8658 13.4384 26.1251 9.16332 -9.43246 -0.416534 72.5926
1488637 23.9256 13.4384 26.2137 9.16332 -9.46421 -0.409744 72.741
1488648 23.9256 13.4384 26.2137 9.16332 -9.46421 -0.409744 72.741
1488657 23.9256 13.4017 26.2038 9.20123 -9.46155 -0.396433 72.7323
1488667 24.0053 13.3558 26.2038 9.15385 -9.52279 -0.413258 72.7188
1488677 24.0053 13.3558 26.2038 9.15385 -9.52279 -0.413258 72.7188
1488687 24.0252 13.4109 26.2826 9.16332 -9.51317 -0.409611 72.882
1488697 24.0352 13.2365 26.4105 9.15385 -9.62963 -0.351601 72.8361
1488707 24.0352 13.2365 26.4105 9.15385 -9.62963 -0.351601 72.8361
1488717 24.085 13.1722 26.4499 9.10647 -9.70155 -0.350386 72.8136
1488727 24.085 13.1722 26.4499 9.10647 -9.70155 -0.350386 72.8136
1488737 24.085 12.9887 26.4204 9.00223 -9.83309 -0.341612 72.4963
1488749 24.0352 12.7041 26.4499 8.95485 -9.98909 -0.277468 72.144
1488757 24.0352 12.7041 26.4499 8.95485 -9.98909 -0.277468 72.144
1488767 24.1448 12.4379 26.3909 8.699 -10.2545 -0.312428 71.6725
1488777 24.1846 12.034 26.5877 8.68952 -10.5072 -0.197511 71.4959
1488787 24.1846 12.034 26.5877 8.68952 -10.5072 -0.197511 71.4959
1488797 24.3142 11.7495 26.8535 8.65162 -10.7472 -0.117061 71.5688
1488807 24.3142 11.7495 26.8535 8.65162 -10.7472 -0.117061 71.5688
1488817 24.4836 11.5016 27.0898 8.63266 -10.9608 -0.0549719 71.7076
1488827 24.7327 11.3364 27.3654 8.57581 -11.1741 -0.0266451 72.0103
1488848 25.0715 11.1803 27.513 8.50948 -11.3784 -0.0476012 72.2744
1488860 25.3406 11.0059 27.7296 8.59476 -11.5141 -0.00457317 72.6709
1488878 25.6196 10.8774 27.9166 8.48105 -11.7216 -0.020442 72.8947
1488890 25.6196 10.8774 27.9166 8.48105 -11.7216 -0.020442 72.8947
1488898 25.9285 10.7489 28.1529 8.32943 -11.9612 -0.0400025 73.1597
1488909 26.2474 10.6388 28.2119 8.38629 -12.055 -0.0587699 73.4843
1488931 26.5762 10.5011 28.1332 8.19677 -12.2643 -0.152712 73.4072
1488947 26.7556 10.3542 27.8969 8.0262 -12.4164 -0.243723 73.0329
1488960 26.9648 10.2165 27.7296 7.91249 -12.5528 -0.317055 72.8234
1488970 26.9648 10.2165 27.7296 7.91249 -12.5528 -0.317055 72.8234
1488979 27.2339 10.1431 27.5819 7.76087 -12.6898 -0.41959 72.7198
1488989 27.3734 10.1156 27.454 7.70401 -12.7355 -0.481291 72.6469
1488999 27.3734 10.1156 27.454 7.70401 -12.7355 -0.481291 72.6469
1489010 27.5727 10.0146 27.3654 7.64716 -12.8362 -0.531971 72.5998
1489019 27.5926 9.9595 27.2177 7.57135 -12.8832 -0.572922 72.3412
1489039 27.762 9.96868 27.0898 7.54292 -12.9002 -0.642181 72.3634
1489050 27.762 9.96868 27.0898 7.54292 -12.9002 -0.642181 72.3634
1489060 27.8517 9.92279 27.0504 7.44816 -12.9824 -0.67991 72.273
1489069 27.9115 9.98704 27.1587 7.5524 -12.9221 -0.658484 72.6096
1489079 27.9115 9.98704 27.1587 7.5524 -12.9221 -0.658484 72.6096
1489089 28.0012 10.0238 27.1882 7.62821 -12.8833 -0.660726 72.8413
1489101 28.061 10.1614 27.0898 7.72297 -12.7563 -0.700285 73.0351
1489123 28.041 10.4185 26.7452 7.7893 -12.5279 -0.806567 72.994
1489141 28.061 10.6847 26.3121 7.89353 -12.2667 -0.933497 72.9513
1489150 28.0012 11.0059 25.8987 8.05463 -11.9377 -1.03902 72.9604
1489161 28.0012 11.0059 25.8987 8.05463 -11.9377 -1.03902 72.9604
1489172 27.9912 11.4282 25.377 8.28205 -11.5143 -1.18237 73.0784
1489181 27.8517 12.0707 24.7174 8.56633 -10.9048 -1.36027 73.2062
1489190 27.8517 12.0707 24.7174 8.56633 -10.9048 -1.36027 73.2062
1489201 27.7222 12.6766 23.9004 8.85061 -10.2855 -1.56823 73.1497
1489222 27.3136 13.2549 22.8176 9.14437 -9.55874 -1.77991 72.5304
1489232 26.9748 13.9525 21.7151 9.59922 -8.69935 -1.996 72.2416
1489242 26.9748 13.9525 21.7151 9.59922 -8.69935 -1.996 72.2416
1489252 26.4666 14.8245 20.5929 10.3004 -7.5967 -2.16066 72.1845
1489262 26.0082 15.8342 19.6578 10.9922 -6.49708 -2.31592 72.4924
1489274 26.0082 15.8342 19.6578 10.9922 -6.49708 -2.31592 72.4924
1489282 25.5299 16.7246 18.7325 11.7313 -5.43413 -2.43213 72.7183
1489302 24.9121 17.603 17.7383 12.3473 -4.37328 -2.56806 72.6006
1489312 24.2843 18.7311 16.6907 12.9253 -3.20749 -2.76727 72.6314
1489323 24.2843 18.7311 16.6907 12.9253 -3.20749 -2.76727 72.6314
1489333 23.507 19.5772 15.6907 13.4275 -2.14431 -2.90142 72.2025
1489342 22.66 20.4331 14.8351 14.1288 -1.01769 -2.94128 72.0569
1489352 22.66 20.4331 14.8351 14.1288 -1.01769 -2.94128 72.0569
1489362 21.7034 21.4834 13.8557 15.0479 0.337175 -2.97194 72.0904
1489373 21.7034 21.4834 13.8557 15.0479 0.337175 -2.97194 72.0904
1489383 20.5375 22.3781 12.9897 15.8724 1.64511 -2.9369 71.7777
1489393 19.1923 23.4188 12.1959 17.0195 3.15 -2.79751 71.8264
1489403 19.1923 23.4188 12.1959 17.0195 3.15 -2.79751 71.8264
1489413 17.8968 24.5858 11.3711 18.2957 4.71713 -2.66443 72.1495
1489423 16.5434 25.7237 10.6392 19.455 6.21746 -2.52336 72.3613
1489443 15.4545 26.9783 9.89691 20.1662 7.51525 -2.5594 72.4959
1489453 15.4545 26.9783 9.89691 20.1662 7.51525 -2.5594 72.4959
1489463 14.4711 28.1064 9.31959 20.6825 8.61064 -2.59895 72.5796
1489473 13.8476 29.2054 8.68041 20.9261 9.49753 -2.77593 72.6595
1489484 13.8476 29.2054 8.68041 20.9261 9.49753 -2.77593 72.6595
1489496 13.3208 30.1098 8.17526 21.1209 10.2214 -2.91525 72.7268
1489504 12.75 30.9365 7.75258 21.2281 10.8928 -3.03559 72.6672
1489524 12.3022 31.627 7.3299 21.2865 11.4692 -3.16616 72.5456
1489534 12.3022 31.627 7.3299 21.2865 11.4692 -3.16616 72.5456
1489546 11.8368 32.3467 7.07217 21.2573 11.9617 -3.27955 72.5129
1489555 11.4943 32.9691 6.83505 21.2865 12.3739 -3.37711 72.585
1489566 11.4943 32.9691 6.83505 21.2865 12.3739 -3.37711 72.585
1489574 11.1606 33.5526 6.57732 21.2963 12.7816 -3.4799 72.5869
1489584 10.7743 34 6.41237 21.4327 13.1666 -3.49685 72.6193
1489597 10.7743 34 6.41237 21.4327 13.1666 -3.49685 72.6193
1489604 10.546 34 6.20619 21.4521 13.3995 -3.5083 72.2043
1489625 10.2562 34 5.98969 21.3158 13.649 -3.55304 71.5616
1489636 10.0718 34 5.91753 21.1891 13.7681 -3.5752 71.1784
1489646 10.0718 34 5.91753 21.1891 13.7681 -3.5752 71.1784
1489656 9.81715 34 5.75258 21.0527 13.9768 -3.61327 70.6225
1489665 9.78202 34 5.63918 20.9261 14.0392 -3.6711 70.3473
1489675 9.78202 34 5.63918 20.9261 14.0392 -3.6711 70.3473
1489685 9.69421 34 5.56701 20.7507 14.101 -3.7229 70.0119
1489696 9.69421 34 5.56701 20.7507 14.101 -3.7229 70.0119
1489707 9.55372 34 5.31959 20.4292 14.2693 -3.85374 69.3025
1489716 9.59762 34 5.19588 20.0395 14.2541 -4.00147 68.833
1489726 9.59762 34 5.19588 20.0395 14.2541 -4.00147 68.833
1489736 9.5625 34 5.10309 19.9032 14.3059 -4.05934 68.5687
1489746 9.58884 34 5.03093 19.7668 14.3109 -4.12168 68.3865
1489772 9.58884 34 5.03093 19.7668 14.3109 -4.12168 68.3865
1489773 9.58006 34 4.97938 19.5135 14.306 -4.2059 68.0729
1489777 9.58006 34 4.97938 19.5135 14.306 -4.2059 68.0729
1489787 9.67665 34 4.93814 19.3576 14.2495 -4.27694 67.9724
1489797 9.79081 34 4.94845 19.2017 14.1529 -4.33626 67.941
1489808 9.79081 34 4.94845 19.2017 14.1529 -4.33626 67.941
1489819 9.90496 34 5.02062 19.1628 14.0395 -4.34471 68.0883
1489827 9.94008 34 5.09278 19.2894 13.9986 -4.29389 68.3223
1489838 9.94008 34 5.09278 19.2894 13.9986 -4.29389 68.3223
1489847 10.0542 34 5.17526 19.2212 13.8756 -4.30772 68.4507
1489867 10.0981 34 5.09278 19.114 13.8801 -4.3682 68.305
1489879 10.186 34 5.07217 18.9095 13.8084 -4.44588 68.1676
1489898 10.3528 34 5.06186 18.5977 13.6678 -4.56385 68.0124
1489909 10.4143 34 5.14433 18.4418 13.5599 -4.5944 68.0004
1489918 10.4143 34 5.14433 18.4418 13.5599 -4.5944 68.0004
1489928 10.5899 34 5.13402 18.4321 13.4648 -4.62698 68.156
1489938 10.5899 34 5.13402 18.4321 13.4648 -4.62698 68.156
1489948 10.5899 34 5.18557 18.3249 13.4175 -4.64301 68.1004
1489958 10.7655 34 5.26804 18.3347 13.2741 -4.64312 68.3682
1489968 10.7655 34 5.26804 18.3347 13.2741 -4.64312 68.3682
1489978 10.7655 34 5.19588 18.286 13.3062 -4.67791 68.2473
1489988 10.8445 34 5.26804 18.2275 13.2115 -4.6859 68.3401
1490008 10.9323 34 5.28866 18.3347 13.1695 -4.66242 68.5557
1490018 10.9323 34 5.28866 18.3347 13.1695 -4.66242 68.5557
1490028 11.0201 34 5.28866 18.2178 13.1004 -4.70921 68.5266
1490038 11.0728 34 5.40206 18.2665 13.0168 -4.67061 68.7414
1490060 11.1958 34 5.40206 18.2275 12.9421 -4.7002 68.8253
1490069 11.2133 34 5.4433 18.4029 12.9404 -4.64103 69.0595
1490079 11.2133 34 5.4433 18.4029 12.9404 -4.64103 69.0595
1490089 11.187 34 5.45361 18.5003 12.9662 -4.60648 69.1409
1490111 11.1255 34 5.43299 18.5977 13.0282 -4.57547 69.1562
1490120 11.0465 34 5.41237 18.5685 13.078 -4.57767 69.0273
1490129 11.0465 34 5.41237 18.5685 13.078 -4.57767 69.0273
1490139 11.0992 34 5.49485 18.5003 12.9918 -4.58157 69.0943
1490151 11.1343 34 5.53608 18.5685 12.9617 -4.55591 69.2389
1490160 11.1343 34 5.53608 18.5685 12.9617 -4.55591 69.2389
1490169 11.2133 34 5.58763 18.6367 12.9021 -4.53407 69.4376
1490179 11.2133 34 5.58763 18.6367 12.9021 -4.53407 69.4376
1490191 11.3275 34 5.60825 18.6756 12.8355 -4.53452 69.6114
1490199 11.2748 34 5.7732 18.9289 12.8188 -4.40988 69.9769
1490220 11.3889 34 5.83505 19.1238 12.758 -4.35624 70.3478
1490232 11.4504 34 5.92783 19.2894 12.7042 -4.29472 70.6676
1490243 11.4504 34 5.92783 19.2894 12.7042 -4.29472 70.6676
1490260 11.5646 34 6.06186 19.3771 12.5876 -4.25169 71.0035
1490271 11.6699 34 6.14433 19.5427 12.5175 -4.20062 71.357
1490280 11.7665 34 6.25773 19.6596 12.4279 -4.15349 71.6839
1490290 11.7665 34 6.25773 19.6596 12.4279 -4.15349 71.6839
1490300 11.8456 34 6.3299 19.757 12.3663 -4.12025 71.9325
1490311 11.9246 34 6.4433 19.8642 12.2855 -4.07377 72.2321
1490321 11.9246 34 6.4433 19.8642 12.2855 -4.07377 72.2321
1490332 12.0475 33.9027 6.56701 19.9129 12.15 -4.03223 72.4302
1490342 12.0475 33.9027 6.56701 19.9129 12.15 -4.03223 72.4302
1490352 12.0387 33.4943 6.60825 19.9421 12.0657 -3.95014 72.0834
1490362 12.0739 33.1247 6.6701 20.098 11.9773 -3.84146 71.9667
1490372 12.0739 33.1247 6.6701 20.098 11.9773 -3.84146 71.9667
1490381 12.1441 32.8621 6.75258 20.2441 11.8778 -3.75183 72.0029
1490391 12.2231 32.6773 6.85567 20.2539 11.7527 -3.70593 72.01
1490413 12.3988 32.4926 6.94845 20.2344 11.5783 -3.68547 72.0742
1490422 12.3988 32.4926 6.94845 20.2344 11.5783 -3.68547 72.0742
1490433 12.5305 32.5315 7 20.1759 11.4818 -3.71398 72.2379
1490442 12.6534 32.4537 7.06186 20.0785 11.3557 -3.73024 72.2474
1490453 12.6534 32.4537 7.06186 20.0785 11.3557 -3.73024 72.2474
1490462 12.8729 32.4634 7.03093 19.7765 11.2054 -3.85249 72.1438
1490472 13.0661 32.3564 7.10309 19.494 10.9974 -3.9209 72.0196
1490482 13.0661 32.3564 7.10309 19.494 10.9974 -3.9209 72.0196
1490492 13.2856 32.2689 7.14433 19.2212 10.7967 -4.00215 71.9201
1490502 13.2856 32.2689 7.14433 19.2212 10.7967 -4.00215 71.9201
1490512 13.5139 32.1327 7.16495 18.9387 10.5897 -4.08564 71.7503
1490522 13.751 31.9674 7.28866 18.8607 10.3622 -4.08438 71.8678
1490533 13.751 31.9674 7.28866 18.8607 10.3622 -4.08438 71.8678
1490543 13.9881 31.7437 7.42268 18.6854 10.0983 -4.09739 71.8399
1490553 14.2076 31.5686 7.38144 18.4613 9.92783 -4.17491 71.6191
1490573 14.515 31.3936 7.53608 18.2567 9.62299 -4.20823 71.7014
1490593 14.7169 31.0824 7.61856 17.984 9.3593 -4.24292 71.4018
1490603 15.1033 30.9559 7.71134 17.7989 9.06118 -4.30681 71.5695
1490627 15.437 30.9073 7.75258 17.5456 8.81577 -4.4065 71.6424
1490636 15.7355 30.7517 7.81443 17.2241 8.53742 -4.49812 71.5258
1490644 15.7355 30.7517 7.81443 17.2241 8.53742 -4.49812 71.5258
1490654 15.9902 30.635 7.8866 16.9526 8.29463 -4.57276 71.4644
1490666 15.9902 30.635 7.8866 16.9526 8.29463 -4.57276 71.4644
1490674 16.2448 30.4405 7.97938 16.6399 8.01358 -4.64192 71.3046
1490686 16.6136 30.2849 8.09278 16.4125 7.6995 -4.70422 71.4038
1490694 16.6136 30.2849 8.09278 16.4125 7.6995 -4.70422 71.4038
1490705 16.8156 30.1098 8.13402 16.3841 7.53892 -4.70456 71.4435
1490714 17.0698 30.0029 8.18557 16.2893 7.35066 -4.73764 71.5475
1490725 17.0698 30.0029 8.18557 16.2893 7.35066 -4.73764 71.5475
1490735 17.2491 29.7889 8.19588 16.2988 7.21442 -4.72722 71.5327
1490756 17.3886 29.468 8.40206 16.223 6.95992 -4.66516 71.4816
1490766 17.4484 29.2443 8.45361 16.3177 6.87758 -4.6012 71.464
1490775 17.4484 29.2443 8.45361 16.3177 6.87758 -4.6012 71.464
1490786 17.5281 28.9914 8.51546 16.3177 6.7501 -4.55898 71.3527
1490796 17.6876 28.6413 8.65979 16.2988 6.52033 -4.49665 71.2874
1490805 17.6876 28.6413 8.65979 16.2988 6.52033 -4.49665 71.2874
1490815 17.8968 28.4662 8.87629 16.3556 6.30238 -4.42723 71.595
1490826 17.8968 28.4662 8.87629 16.3556 6.30238 -4.42723 71.595
1490837 18.0363 28.155 9.01031 16.4125 6.11641 -4.3501 71.6142
1490845 18.2257 27.8924 9.13402 16.4599 5.92391 -4.29305 71.712
1490856 18.2257 27.8924 9.13402 16.4599 5.92391 -4.29305 71.712
1490865 18.405 27.6785 9.30928 16.5831 5.74749 -4.20791 71.9759
1490878 18.4947 27.3381 9.4433 16.6589 5.58106 -4.11427 71.935
1490885 18.4947 27.3381 9.4433 16.6589 5.58106 -4.11427 71.935
1490896 18.6143 27.1047 9.56701 16.6115 5.40174 -4.07674 71.8975
1490905 18.6143 27.1047 9.56701 16.6115 5.40174 -4.07674 71.8975
1490916 18.8236 26.7351 9.68041 16.5167 5.13821 -4.04738 71.7558
1490925 18.993 26.4045 9.92784 16.3935 4.83736 -3.98976 71.7188
1490945 19.3019 26.1127 10.0722 16.2703 4.53231 -3.9868 71.7571
1490956 19.4912 26.1127 10.268 16.2703 4.37462 -3.96415 72.1423
1490965 19.4912 25.8209 10.268 15.9766 4.20585 -3.997 71.5568
1490976 19.7304 25.4805 10.4742 15.7397 3.85568 -3.98958 71.4248
1490986 19.7304 25.4805 10.4742 15.7397 3.85568 -3.98958 71.4248
1490995 20.119 25.1402 10.7732 15.3891 3.3733 -4.01075 71.4214
1491005 20.5574 24.7998 11.1856 15.029 2.82435 -4.01192 71.5718
1491034 21.1753 24.3524 11.732 14.6499 2.11903 -3.99372 71.9096
1491044 21.1753 24.3524 11.732 14.6499 2.11903 -3.99372 71.9096
1491053 21.7433 23.7883 12.3608 14.1951 1.34536 -3.94847 72.0875
1491064 22.4109 23.1951 13.1237 13.7402 0.483206 -3.87927 72.4699
1491069 22.4109 23.1951 13.1237 13.7402 0.483206 -3.87927 72.4699
1491077 23.1383 22.417 13.9072 13.3328 -0.444987 -3.77401 72.7954
1491087 23.7562 21.4737 14.7526 12.8874 -1.42296 -3.62081 72.8698
1491097 23.7562 21.4737 14.7526 12.8874 -1.42296 -3.62081 72.8698
1491107 24.3441 20.8707 15.6082 12.4894 -2.24798 -3.50223 73.3124
1491117 24.3441 20.8707 15.6082 12.4894 -2.24798 -3.50223 73.3124
1491127 24.9021 20.3747 16.3711 12.1293 -2.97151 -3.41088 73.7773
1491137 25.4302 19.8787 17.1673 11.5134 -3.78617 -3.37106 73.9897
1491147 25.4302 19.8787 17.1673 11.5134 -3.78617 -3.37106 73.9897
1491158 25.7989 19.3633 17.758 10.9732 -4.47279 -3.33541 73.8934
1491169 26.1477 18.6922 18.2895 10.4615 -5.19203 -3.27938 73.591
1491178 26.1477 18.6922 18.2895 10.4615 -5.19203 -3.27938 73.591
1491189 26.4766 18.0309 18.7325 10.0446 -5.84487 -3.21972 73.2845
1491198 26.4766 18.0309 18.7325 10.0446 -5.84487 -3.21972 73.2845
1491209 26.6161 17.389 19.0672 9.59922 -6.43134 -3.16603 72.6715
1491218 26.8154 16.7338 19.579 9.28651 -7.03382 -3.04157 72.4147
1491228 26.8154 16.7338 19.579 9.28651 -7.03382 -3.04157 72.4147
1491238 26.9449 16.1647 20.1204 8.9738 -7.592 -2.91162 72.2038
1491248 27.0445 15.568 20.7898 8.86957 -8.0933 -2.68843 72.272
1491260 27.0445 15.568 20.7898 8.86957 -8.0933 -2.68843 72.272
1491268 27.1841 15.0907 21.5773 8.82219 -8.54789 -2.45106 72.6743
1491288 27.1841 14.6868 22.286 8.85061 -8.88013 -2.20543 73.0075
1491299 27.1841 14.338 22.9849 8.84114 -9.19923 -1.98287 73.3481
1491318 27.1741 14.0076 23.6346 8.80323 -9.50764 -1.78155 73.6195
1491328 27.204 13.6496 24.0185 8.71795 -9.80262 -1.65452 73.59
1491338 27.204 13.6496 24.0185 8.71795 -9.80262 -1.65452 73.59
1491348 27.2837 13.2824 24.3729 8.51895 -10.1607 -1.56707 73.458
1491369 27.2339 12.9795 24.491 8.44314 -10.3566 -1.49271 73.1475
1491378 27.2638 12.6031 24.7371 8.36734 -10.631 -1.39009 72.9714
1491388 27.2638 12.6031 24.7371 8.36734 -10.631 -1.39009 72.9714
1491398 27.3634 12.3828 24.8159 8.21572 -10.8483 -1.38394 72.7778
1491409 27.3036 12.1442 24.9045 8.0262 -11.066 -1.35064 72.3785
1491419 27.3036 12.1442 24.9045 8.0262 -11.066 -1.35064 72.3785
1491429 27.3136 11.8688 25.0029 7.96934 -11.253 -1.29101 72.1546
1491439 27.3136 11.8688 25.0029 7.96934 -11.253 -1.29101 72.1546
1491448 27.4132 11.6026 25.121 7.84615 -11.4907 -1.26044 71.983
1491458 27.3535 11.3915 25.4065 7.88406 -11.6208 -1.13577 72.0355
1491469 27.3535 11.3915 25.4065 7.88406 -11.6208 -1.13577 72.0355
1491480 27.4033 11.263 25.6526 7.91249 -11.7264 -1.05934 72.2313
1491489 27.3535 11.1161 25.9676 7.99777 -11.8062 -0.932742 72.4349
1491499 27.3535 11.1161 25.9676 7.99777 -11.8062 -0.932742 72.4349
1491509 27.2837 11.0059 26.381 8.05463 -11.8955 -0.794912 72.7253
1491529 27.194 10.9325 26.4893 8.09253 -11.9169 -0.731286 72.7083
1491539 27.1542 10.7765 26.5976 8.07358 -12.0182 -0.673428 72.6018
1491549 27.1542 10.7765 26.5976 8.07358 -12.0182 -0.673428 72.6018
1491560 27.0944 10.6663 26.8141 8.08305 -12.0975 -0.59116 72.6579
1491569 27.0944 10.6663 26.8141 8.08305 -12.0975 -0.59116 72.6579
1491581 26.9449 10.5103 27.0701 8.12096 -12.1767 -0.467498 72.6462
1491590 26.8154 10.4185 27.3654 8.13043 -12.248 -0.358454 72.7296
1491601 26.8154 10.4185 27.3654 8.13043 -12.248 -0.358454 72.7296
1491609 26.7057 10.2441 27.4244 8.15886 -12.3141 -0.282596 72.5331
1491620 26.5363 10.1339 27.5229 8.12096 -12.3781 -0.212909 72.3141
1491629 26.5363 10.1339 27.5229 8.12096 -12.3781 -0.212909 72.3141
1491639 26.3769 10.0697 27.769 8.24415 -12.3628 -0.0897288 72.4597
1491649 26.3769 10.0697 27.769 8.24415 -12.3628 -0.0897288 72.4597
1491659 26.1178 9.93197 27.8477 8.21572 -12.4172 0.00283778 72.1132
1491674 26.0182 9.85853 28.1922 8.34838 -12.4292 0.137522 72.4173
1491683 26.0182 9.85853 28.1922 8.34838 -12.4292 0.137522 72.4173
1491692 25.9285 9.82181 28.5761 8.48105 -12.4306 0.269247 72.8075
1491701 25.9285 9.84017 28.7533 8.49052 -12.4469 0.30307 73.0125
1491721 25.8189 9.88607 28.7927 8.47157 -12.421 0.320545 72.9692
1491741 25.7691 9.75756 28.7632 8.52843 -12.4441 0.363575 72.8182
1491751 25.7292 9.87689 28.6746 8.57581 -12.3363 0.338539 72.8565
1491761 25.7292 9.87689 28.6746 8.57581 -12.3363 0.338539 72.8565
1491771 25.5498 9.9595 28.7927 8.68004 -12.2301 0.40354 72.9821
1491785 25.3904 10.1982 28.9797 8.90747 -11.9987 0.469267 73.4758
1491802 25.2409 10.3542 29.1668 8.98328 -11.889 0.519678 73.7452
1491812 25.2409 10.3542 29.1668 8.98328 -11.889 0.519678 73.7452
1491822 25.1014 10.3634 29.1372 9.00223 -11.8448 0.545077 73.6043
1491832 25.0018 10.4644 28.9896 9.00223 -11.7498 0.515741 73.4579
1491842 25.0018 10.4644 28.9896 9.00223 -11.7498 0.515741 73.4579
1491852 24.9121 10.4093 28.8419 8.94537 -11.7631 0.505945 73.1087
1491863 24.8324 10.345 28.4974 8.79376 -11.7951 0.437522 72.4685
1491872 24.8324 10.345 28.4974 8.79376 -11.7951 0.437522 72.4685
1491884 24.7626 10.3542 28.3202 8.71795 -11.7839 0.399422 72.155
1491892 24.7626 10.3542 28.3202 8.71795 -11.7839 0.399422 72.155
1491902 24.7825 10.2991 28.2415 8.61371 -11.8545 0.369803 71.9368
1491912 24.8722 10.2441 28.1922 8.62319 -11.8853 0.354327 71.9317
1491923 24.8722 10.2441 28.1922 8.62319 -11.8853 0.354327 71.9317
1491933 24.942 10.2257 28.2611 8.64214 -11.9102 0.361229 72.071
1491943 25.0416 10.2441 28.3497 8.63266 -11.9398 0.352172 72.2681
1491955 25.0416 10.2441 28.3497 8.63266 -11.9398 0.352172 72.2681
1491963 25.1911 10.2349 28.3793 8.59476 -11.9961 0.32073 72.4
1491973 25.1911 10.2349 28.3793 8.59476 -11.9961 0.32073 72.4
1491983 25.211 10.2991 28.3891 8.62319 -11.9542 0.310693 72.5225
1491995 25.2509 10.3542 28.4482 8.72742 -11.891 0.32368 72.7807
1492013 25.3904 10.4552 28.5368 8.68952 -11.9001 0.283431 73.0719
1492024 25.3406 10.6388 28.5072 8.82219 -11.7267 0.276246 73.3088
1492045 25.3007 10.8407 28.399 8.83166 -11.5941 0.222673 73.372
1492054 25.2509 11.0059 28.1824 8.87904 -11.4393 0.164614 73.3183
1492065 25.2509 11.0059 28.1824 8.87904 -11.4393 0.164614 73.3183
1492074 25.1712 11.0977 27.9363 8.88852 -11.3283 0.114085 73.0937
1492085 25.1712 11.0977 27.9363 8.88852 -11.3283 0.114085 73.0937
1492097 25.0018 11.2354 27.7099 8.92642 -11.1665 0.0821579 72.8735
1492106 24.9021 11.3731 27.5819 9.02118 -11.008 0.067488 72.8783
1492126 24.8224 11.5567 27.4146 8.99275 -10.8837 0.00582397 72.7864
1492136 24.6928 11.7036 27.2472 8.98328 -10.7582 -0.0342616 72.6269
1492146 24.6928 11.7036 27.2472 8.98328 -10.7582 -0.0342616 72.6269
1492155 24.6032 11.7862 27.0307 8.94537 -10.6758 -0.0856644 72.3654
1492165 24.6032 11.7862 27.0307 8.94537 -10.6758 -0.0856644 72.3654
1492175 24.6032 11.8045 26.883 8.87904 -10.6702 -0.134188 72.1698
1492185 24.6829 11.777 26.9519 8.89799 -10.7039 -0.12653 72.3098
1492195 24.6829 11.777 26.9519 8.89799 -10.7039 -0.12653 72.3098
1492206 24.7526 11.7586 27.0208 8.87904 -10.7497 -0.126649 72.4112
1492216 24.7925 11.7219 26.9618 8.88852 -10.7593 -0.13766 72.3647
1492227 24.7925 11.7219 26.9618 8.88852 -10.7593 -0.13766 72.3647
1492236 24.922 11.777 26.9224 8.83166 -10.7779 -0.195638 72.4531
1492246 24.922 11.777 26.9224 8.83166 -10.7779 -0.195638 72.4531
1492256 25.0317 11.7678 26.8633 8.81271 -10.8017 -0.232509 72.4755
1492268 25.1612 11.777 26.9126 8.75585 -10.8602 -0.262326 72.6066
1492287 25.4302 11.7586 26.8732 8.64214 -10.97 -0.34528 72.7042
1492306 25.7192 11.6577 26.6566 8.45262 -11.1282 -0.469258 72.4861
1492316 25.7192 11.6577 26.6566 8.45262 -11.1282 -0.469258 72.4861
1492316 25.9484 11.3548 26.4696 8.28205 -11.3737 -0.531162 72.0548
1492327 25.9484 11.3548 26.4696 8.28205 -11.3737 -0.531162 72.0548
1492337 26.1079 11.0427 26.3613 8.11148 -11.6286 -0.560791 71.6233
1492348 26.3171 10.7673 26.4401 7.99777 -11.8817 -0.55505 71.5222
1492357 26.3171 10.7673 26.4401 7.99777 -11.8817 -0.55505 71.5222
1492367 26.5264 10.5837 26.6665 7.96934 -12.0703 -0.517296 71.7459
1492377 26.5961 10.446 26.9618 7.95987 -12.2117 -0.441991 71.9638
1492387 26.5961 10.446 26.9618 7.95987 -12.2117 -0.441991 71.9638
1492397 26.6858 10.2532 27.2866 8.00725 -12.36 -0.341642 72.2329
1492418 26.7257 10.1431 27.4146 7.92196 -12.4905 -0.318301 72.2053
1492428 26.8353 10.0697 27.5918 7.98829 -12.5437 -0.274169 72.485
1492438 26.8353 10.0697 27.5918 7.98829 -12.5437 -0.274169 72.485
1492448 26.9748 10.0421 27.7296 7.97882 -12.6103 -0.269887 72.7253
1492458 27.0545 9.91361 27.9461 7.97882 -12.7269 -0.214661 72.8931
1492468 27.0545 9.91361 27.9461 7.97882 -12.7269 -0.214661 72.8931
1492478 27.1043 9.89525 27.956 8.0262 -12.722 -0.209106 72.9818
1492488 27.1043 9.89525 27.956 8.0262 -12.722 -0.209106 72.9818
1492498 27.0944 9.80346 27.9855 8.01672 -12.7777 -0.184275 72.9001
1492508 27.0844 9.87689 27.8871 7.99777 -12.7312 -0.221655 72.8462
1492528 27.1741 9.87689 27.9461 8.05463 -12.7268 -0.215642 73.0518
1492548 27.1243 9.99622 28.0052 8.18729 -12.5987 -0.18987 73.313
1492558 27.0545 10.0788 27.9855 8.33891 -12.4637 -0.165178 73.4578
1492568 27.0545 10.0788 27.9855 8.33891 -12.4637 -0.165178 73.4578
1492578 26.8253 10.2716 28.1135 8.63266 -12.1997 -0.0712529 73.8431
1492588 26.636 10.4827 28.1233 8.82219 -11.9675 -0.0350779 74.0642
1492598 26.636 10.4827 28.1233 8.82219 -11.9675 -0.0350779 74.0642
1492608 26.3171 10.703 27.9658 9.05909 -11.6553 0.000969172 74.0451
1492621 26.3171 10.703 27.9658 9.05909 -11.6553 0.000969172 74.0451
1492630 25.8388 10.9141 27.7001 9.4476 -11.2236 0.0801158 73.9006
1492640 25.3306 11.3089 27.4737 9.76031 -10.7397 0.120715 73.8734
1492650 25.3306 11.3089 27.4737 9.76031 -10.7397 0.120715 73.8734
1492661 24.7128 11.5567 27.1882 10.1394 -10.2602 0.215648 73.597
1492670 24.1149 11.9698 26.7748 10.5468 -9.66303 0.252755 73.4062
1492679 24.1149 11.9698 26.7748 10.5468 -9.66303 0.252755 73.4062
1492689 23.4174 12.3186 26.3121 10.9922 -9.04251 0.322092 73.0402
1492699 23.4174 12.3186 26.3121 10.9922 -9.04251 0.322092 73.0402
1492710 22.5803 12.6398 25.7116 11.4281 -8.36928 0.397924 72.3599
1492719 21.8329 13.209 25.1899 12.0535 -7.52587 0.456841 72.2853
1492729 21.8329 13.209 25.1899 12.0535 -7.52587 0.456841 72.2853
1492741 20.9959 13.7597 24.491 12.7358 -6.59585 0.514959 71.9824
1492749 20.2087 14.4298 23.5559 13.4275 -5.5525 0.491107 71.6219
1492761 20.2087 14.4298 23.5559 13.4275 -5.5525 0.491107 71.6219
1492769 19.4912 15.2835 22.5814 14.2804 -4.36534 0.437009 71.6364
1492781 19.4912 15.2835 22.5814 14.2804 -4.36534 0.437009 71.6364
1492789 18.6043 16.0178 21.6561 15.1616 -3.17782 0.460993 71.4399
1492800 17.8072 16.9174 20.6323 16.4125 -1.77986 0.484942 71.7693
1492810 17.8072 16.9174 20.6323 16.4125 -1.77986 0.484942 71.7693
1492822 17 17.9142 19.6184 17.604 -0.381294 0.479972 72.1366
1492829 16.2009 18.877 18.575 18.8023 1.00178 0.476019 72.4552
1492839 16.2009 18.877 18.575 18.8023 1.00178 0.476019 72.4552
1492849 15.4106 19.7426 17.5316 19.8544 2.29352 0.461708 72.5392
1492870 14.6379 20.6567 16.4536 20.6825 3.53709 0.38136 72.4308
1492880 13.9354 21.4834 15.4742 21.6567 4.7314 0.353989 72.5498
1492891 13.9354 21.4834 15.4742 21.6567 4.7314 0.353989 72.5498
1492900 13.2505 22.5727 14.4433 22.5725 5.9897 0.245601 72.839
1492911 12.8027 23.4577 13.3505 23.2447 7.05134 0.0689435 72.8556
1492920 12.8027 23.4577 13.3505 23.2447 7.05134 0.0689435 72.8556
1492930 12.3373 24.3135 12.3402 23.9656 8.08755 -0.0709265 72.9566
1492940 12.3373 24.3135 12.3402 23.9656 8.08755 -0.0709265 72.9566
1492960 11.9246 25.1304 11.299 24.5696 9.07679 -0.244041 72.9236
1492962 11.4592 25.8793 10.4845 25.2321 9.98139 -0.333007 73.0551
1492971 11.4592 25.8793 10.4845 25.2321 9.98139 -0.333007 73.0551
1492982 11.108 26.5601 9.78351 25.6997 10.7204 -0.448005 73.1512
1492994 10.7304 27.1728 9.19588 26.1284 11.3943 -0.528265 73.2274
1493002 10.7304 27.1728 9.19588 26.1284 11.3943 -0.528265 73.2274
1493012 10.4143 27.766 8.69072 26.5278 11.9855 -0.605274 73.3988
1493022 10.4143 27.766 8.69072 26.5278 11.9855 -0.605274 73.3988
1493036 10.0981 28.1161 8.30928 26.8493 12.4562 -0.624695 73.3728
1493042 9.82593 28.5927 7.98969 27.1805 12.8952 -0.662141 73.5888
1493063 9.49225 28.7872 7.72165 27.3656 13.2686 -0.652647 73.3667
1493073 9.22882 29.0303 7.49485 27.3851 13.5672 -0.693034 73.1391
1493083 9.22882 29.0303 7.49485 27.3851 13.5672 -0.693034 73.1391
1493093 9.04442 29.2637 7.28866 27.2877 13.7952 -0.768027 72.8845
1493103 9.04442 29.2637 7.28866 27.2877 13.7952 -0.768027 72.8845
1493113 8.79855 29.3999 7.1134 27.2195 14.031 -0.799424 72.5313
1493123 8.71074 29.6722 7.09278 27.239 14.1332 -0.835701 72.7147
1493136 8.71074 29.6722 7.09278 27.239 14.1332 -0.835701 72.7147
1493144 8.73709 29.9737 6.91753 26.9954 14.2221 -0.990964 72.6237
1493155 8.73709 30.3335 6.85567 26.6642 14.2598 -1.147 72.5905
1493175 8.78099 30.528 6.71134 26.2745 14.2853 -1.31196 72.2949
1493184 8.78099 30.528 6.71134 26.2745 14.2853 -1.31196 72.2949
1493193 8.71952 30.7225 6.61856 25.914 14.3448 -1.43998 71.9747
1493203 8.93027 31.0629 6.59794 25.5341 14.2352 -1.6349 72.1252
1493213 8.93027 31.0629 6.59794 25.5341 14.2352 -1.6349 72.1252
1493223 9.29029 31.2477 6.56701 25.2029 14.0349 -1.81892 72.3079
1493233 9.51859 31.5492 6.58763 24.7158 13.8725 -2.02382 72.3712
1493244 9.51859 31.5492 6.58763 24.7158 13.8725 -2.02382 72.3712
1493255 9.65909 31.7729 6.50515 24.3358 13.8172 -2.19813 72.2729
1493274 9.7469 31.8701 6.43299 24.0338 13.777 -2.32026 72.0838
1493284 9.87862 31.9577 6.50515 23.8585 13.6539 -2.38352 72.1999
1493295 9.87862 31.9577 6.50515 23.8585 13.6539 -2.38352 72.1999
1493307 9.90496 32.0452 6.4433 23.7318 13.6668 -2.44888 72.1253
1493316 9.9313 32.1911 6.40206 23.6149 13.6793 -2.51709 72.1393
1493325 9.9313 32.1911 6.40206 23.6149 13.6793 -2.51709 72.1393
1493335 9.86983 32.4148 6.26804 23.4395 13.7919 -2.62049 71.9922
1493344 9.86983 32.4148 6.26804 23.4395 13.7919 -2.62049 71.9922
1493354 9.76446 32.6093 6.13402 23.2447 13.9213 -2.71663 71.7524
1493364 9.77324 32.8719 6.17526 23.2057 13.9287 -2.76236 72.0261
1493374 9.77324 32.8719 6.17526 23.2057 13.9287 -2.76236 72.0261
1493384 9.7469 33.1733 6.14433 23.2837 14.0175 -2.79735 72.3482
1493394 9.65031 33.4165 6.07217 23.2252 14.1366 -2.85419 72.3642
1493417 9.62397 33.5721 6.08247 23.1765 14.1613 -2.88532 72.455
1493436 9.58006 33.7471 5.85567 23.0888 14.321 -2.98513 72.2717
1493446 9.51859 33.8541 5.87629 22.9427 14.3375 -3.02398 72.1917
1493457 9.51859 33.8541 5.87629 22.9427 14.3375 -3.02398 72.1917
1493466 9.31663 34 5.76289 22.9232 14.5285 -3.04791 72.0027
1493476 9.14979 34 5.71134 22.8453 14.6375 -3.05269 71.7064
1493497 9.12345 34 5.74227 22.8648 14.6378 -3.03562 71.7305
1493507 9.12345 34 5.74227 22.8648 14.6378 -3.03562 71.7305
1493517 9.10589 34 5.71134 22.8648 14.6646 -3.04047 71.682
1493527 9.17614 34 5.81443 23.0596 14.5971 -2.97753 72.0502
1493547 9.16736 33.9611 5.7732 23.1278 14.6289 -2.96284 72.0294
1493560 9.20248 33.9514 5.8866 23.0596 14.536 -2.95582 72.1
1493578 9.2376 33.8736 5.90722 22.9817 14.4828 -2.96297 72
1493590 9.15857 33.8736 5.92783 22.9817 14.5148 -2.9446 71.9416
1493599 9.15857 33.8055 5.92783 23.0401 14.5134 -2.91861 71.932
1493608 9.25517 33.6888 5.92783 23.1083 14.4533 -2.89826 71.9801
1493631 9.22882 33.4943 5.95876 23.1473 14.428 -2.84364 71.8291
1493640 9.13223 33.397 6.08247 23.3713 14.4317 -2.72469 71.9831
1493648 9.13223 33.397 6.08247 23.3713 14.4317 -2.72469 71.9831
1493658 9.1937 33.2511 6.18557 23.6831 14.3663 -2.60868 72.3135
1493669 9.18492 33.0761 6.24742 23.9364 14.3489 -2.50063 72.4448
1493680 9.18492 33.0761 6.24742 23.9364 14.3489 -2.50063 72.4448
1493689 9.22004 32.8621 6.47423 24.2774 14.226 -2.33351 72.8338
1493700 9.22004 32.8621 6.47423 24.2774 14.226 -2.33351 72.8338
1493710 9.20248 32.7162 6.53608 24.5307 14.218 -2.23031 72.9855
1493719 9.16736 32.5023 6.53608 24.6768 14.2269 -2.15212 72.8825
1493729 9.16736 32.5023 6.53608 24.6768 14.2269 -2.15212 72.8825
1493740 9.10589 32.3175 6.60825 24.8327 14.2168 -2.05501 72.8643
1493749 9.10589 32.3175 6.60825 24.8327 14.2168 -2.05501 72.8643
1493759 9.01808 32.1133 6.64948 24.9203 14.2247 -1.97277 72.7012
1493769 9.0532 32.016 6.65979 25.1542 14.2204 -1.90482 72.8832
1493781 9.0532 32.016 6.65979 25.1542 14.2204 -1.90482 72.8832
1493789 8.93027 31.9188 6.70103 25.1834 14.2544 -1.8488 72.7334
1493800 8.87758 31.841 6.71134 25.3587 14.2916 -1.78224 72.7886
1493810 8.87758 31.841 6.71134 25.3587 14.2916 -1.78224 72.7886
1493819 8.87758 31.734 6.72165 25.3977 14.2761 -1.75143 72.7309
1493829 8.87758 31.734 6.72165 25.3977 14.2761 -1.75143 72.7309
1493839 8.90393 31.6465 6.7732 25.3977 14.2211 -1.72841 72.7213
1493849 9.03564 31.5395 6.8866 25.4562 14.0821 -1.69349 72.9179
1493860 9.03564 31.5395 6.8866 25.4562 14.0821 -1.69349 72.9179
1493869 9.15857 31.5589 6.93814 25.4756 13.9946 -1.70318 73.1313
1493881 9.25517 31.4325 6.92783 25.4659 13.9281 -1.70233 73.0814
1493891 9.25517 31.4325 6.92783 25.4659 13.9281 -1.70233 73.0814
1493901 9.34298 31.3936 6.97938 25.4854 13.851 -1.69501 73.2013
1493910 9.34298 31.3936 6.97938 25.4854 13.851 -1.69501 73.2013
1493921 9.3781 31.1018 7.05155 25.3977 13.7359 -1.65174 72.9292
1493930 9.52738 30.8976 7.12371 25.3198 13.5746 -1.64299 72.8685
1493941 9.52738 30.8976 7.12371 25.3198 13.5746 -1.64299 72.8685
1493950 9.64153 30.7323 7.08247 25.2418 13.4976 -1.66087 72.6981
1493961 9.71178 30.5086 7.18557 25.2029 13.3641 -1.61797 72.6088
1493971 9.71178 30.5086 7.18557 25.2029 13.3641 -1.61797 72.6088
1493982 9.80837 30.246 7.27835 25.1931 13.2203 -1.56831 72.5258
1493991 9.80837 30.246 7.27835 25.1931 13.2203 -1.56831 72.5258
1494000 9.9313 29.9834 7.31959 25.0957 13.0749 -1.55525 72.33
1494010 10.0806 29.7889 7.37113 24.9009 12.9045 -1.57971 72.1415
1494020 10.0806 29.7889 7.37113 24.9009 12.9045 -1.57971 72.1415
1494031 10.2211 29.6722 7.38144 24.706 12.7728 -1.62665 71.9807
1494041 10.4143 29.5555 7.48454 24.5209 12.566 -1.6598 71.9752
1494054 10.4143 29.5555 7.48454 24.5209 12.566 -1.6598 71.9752
1494060 10.5811 29.4485 7.54639 24.404 12.408 -1.68364 71.98
1494082 10.7304 29.361 7.56701 24.2287 12.2735 -1.73099 71.887
1494094 10.8972 29.3513 7.61856 24.1702 12.1485 -1.76153 72.0372
1494102 10.8972 29.3513 7.61856 24.1702 12.1485 -1.76153 72.0372
1494114 11.1519 29.2735 7.69072 24.102 11.9544 -1.79303 72.218
1494122 11.345 29.1957 7.79381 23.9169 11.7554 -1.83318 72.2514
1494134 11.345 29.1957 7.79381 23.9169 11.7554 -1.83318 72.2514
1494142 11.6085 29.1859 7.87629 23.8195 11.5604 -1.88273 72.4902
1494152 11.6085 29.1859 7.87629 23.8195 11.5604 -1.88273 72.4902
1494162 11.8982 29.0887 7.95876 23.6441 11.3225 -1.93912 72.5898
1494175 12.1178 29.1081 7.95876 23.4493 11.1796 -2.02753 72.6339
1494184 12.1178 29.1081 7.95876 23.4493 11.1796 -2.02753 72.6339
1494192 12.3373 29.0206 8 23.1181 10.9696 -2.11929 72.4759
1494202 12.5217 28.8261 8.07216 22.9037 10.7627 -2.15114 72.3237
1494212 12.5217 28.8261 8.07216 22.9037 10.7627 -2.15114 72.3237
1494221 12.7149 28.6705 8.13402 22.6504 10.5557 -2.20333 72.1698
1494239 12.7149 28.6705 8.13402 22.6504 10.5557 -2.20333 72.1698
1494257 12.9783 28.4857 8.21649 22.29 10.2753 -2.28376 71.9705
1494258 13.2066 28.3495 8.31959 22.0854 10.0432 -2.32442 71.9611
1494263 13.2066 28.3495 8.31959 22.0854 10.0432 -2.32442 71.9611
1494275 13.5139 28.2037 8.3299 21.7542 9.78877 -2.43035 71.8017
1494284 13.7159 28.0675 8.46392 21.5691 9.55796 -2.45427 71.8164
1494295 13.7159 28.0675 8.46392 21.5691 9.55796 -2.45427 71.8164
1494305 13.9706 27.9119 8.58763 21.3937 9.3049 -2.4841 71.8638
1494315 13.9706 27.9119 8.58763 21.3937 9.3049 -2.4841 71.8638
1494325 14.1813 27.659 8.70103 21.345 9.08437 -2.46103 71.8864
1494334 14.4272 27.4451 8.81443 21.1307 8.81894 -2.49115 71.8173
1494344 14.4272 27.4451 8.81443 21.1307 8.81894 -2.49115 71.8173
1494354 14.6818 27.27 8.94845 20.7897 8.51912 -2.55553 71.69
1494365 14.8838 27.1436 9.04124 20.439 8.27099 -2.63199 71.5076
1494384 15.2175 26.9102 9.30928 20.2734 7.89873 -2.6241 71.7103
1494395 15.2175 26.9102 9.30928 20.2734 7.89873 -2.6241 71.7103
1494405 15.4194 26.7351 9.60825 20.1175 7.59073 -2.59365 71.8803
1494414 15.6565 26.5017 9.81443 19.8642 7.27167 -2.60582 71.8368
1494424 15.6565 26.5017 9.81443 19.8642 7.27167 -2.60582 71.8368
1494434 15.9551 26.3267 10.1959 19.5135 6.83737 -2.61957 71.9911
1494444 16.2975 26.0543 10.8144 19.1725 6.26043 -2.56396 72.3388
1494455 16.2975 26.0543 10.8144 19.1725 6.26043 -2.56396 72.3388
1494464 16.6312 25.7431 11.5052 18.8705 5.6623 -2.47396 72.75
1494474 16.6312 25.7431 11.5052 18.8705 5.6623 -2.47396 72.75
1494484 16.9385 25.4027 12.3814 18.4711 4.97099 -2.35446 73.1938
1494494 17.4086 24.8484 13.4742 17.984 4.05262 -2.1974 73.7151
1494516 17.9168 24.2454 14.5052 17.302 3.08422 -2.09986 73.9693
1494526 18.2556 23.4868 15.6082 16.5641 2.09266 -1.94212 73.9148
1494535 18.2556 23.4868 15.6082 16.5641 2.09266 -1.94212 73.9148
1494546 18.6741 22.6505 16.6495 15.7302 1.03695 -1.82042 73.7042
1494556 18.6741 22.6505 16.6495 15.7302 1.03695 -1.82042 73.7042
1494565 19.1225 21.8238 17.6398 14.8679 -0.0240475 -1.72324 73.454
1494576 19.5809 20.9874 18.4765 13.9487 -1.06903 -1.67337 72.9936
1494596 20.0791 20.1219 19.1262 13.0295 -2.09171 -1.66782 72.3568
1494608 20.5475 19.2757 19.9039 12.3283 -3.06962 -1.58025 72.0554
1494617 20.5475 19.2757 19.9039 12.3283 -3.06962 -1.58025 72.0554
1494628 20.956 18.5852 20.6126 11.7787 -3.89417 -1.49097 71.9326
1494649 21.4742 17.9142 21.3312 11.3144 -4.71196 -1.40409 72.034
1494657 21.9625 17.3112 22.2073 11.0396 -5.45328 -1.24658 72.5206
1494669 21.9625 17.3112 22.2073 11.0396 -5.45328 -1.24658 72.5206
1494677 22.6301 16.6787 23.0834 10.5942 -6.31644 -1.15732 72.9864
1494687 23.1483 16.0454 23.7823 10.3384 -7.00643 -1.03793 73.3143
1494709 23.7063 15.4028 24.6387 9.96879 -7.79113 -0.91601 73.7166
1494731 24.1946 14.7144 25.3179 9.72241 -8.47734 -0.784728 73.9493
1494738 24.643 14.1269 25.8101 9.39075 -9.10342 -0.723751 73.9707
1494751 24.643 14.1269 25.8101 9.39075 -9.10342 -0.723751 73.9707
1494758 24.9519 13.3834 26.1644 9.12542 -9.71393 -0.620464 73.6252
1494768 25.1213 12.7959 26.509 8.88852 -10.2114 -0.515533 73.3147
1494778 25.1213 12.7959 26.509 8.88852 -10.2114 -0.515533 73.3147
1494790 25.4203 12.2176 26.7551 8.699 -10.6916 -0.448165 73.0919
1494798 25.4203 12.2176 26.7551 8.699 -10.6916 -0.448165 73.0919
1494808 25.5199 11.5292 27.0012 8.33891 -11.2769 -0.354132 72.3892
1494818 25.7591 11.0518 27.0898 8.14939 -11.6751 -0.327226 72.0501
1494828 25.7591 11.0518 27.0898 8.14939 -11.6751 -0.327226 72.0501
1494838 25.8089 10.5745 27.2374 8.0641 -11.9996 -0.22639 71.6849
1494850 25.9484 10.3267 27.5032 7.95039 -12.2596 -0.171797 71.7287
1494858 25.9484 10.3267 27.5032 7.95039 -12.2596 -0.171797 71.7287
1494873 26.1477 10.1982 27.7394 7.89353 -12.4326 -0.148566 71.9788
1494882 26.1477 10.1982 27.7394 7.89353 -12.4326 -0.148566 71.9788
1494890 26.2972 10.0329 27.9265 7.91249 -12.5671 -0.102088 72.1691
1494898 26.4267 10.0054 27.956 7.92196 -12.6038 -0.114957 72.3101
1494911 26.4267 10.0054 27.956 7.92196 -12.6038 -0.114957 72.3101
1494920 26.626 9.98704 27.8969 7.81773 -12.6916 -0.18632 72.3277
1494928 26.7257 9.98704 27.6607 7.81773 -12.6683 -0.256467 72.1911
1494939 26.7257 9.88607 27.6607 7.74192 -12.7608 -0.251857 72.0144
1494948 26.7456 9.98704 27.4047 7.80825 -12.6328 -0.316832 71.9456
1494960 26.7456 9.98704 27.4047 7.80825 -12.6328 -0.316832 71.9456
1494972 26.6958 10.2716 27.0701 7.79877 -12.4225 -0.438192 71.8362
1494979 26.5662 10.4185 27.0799 7.88406 -12.2808 -0.421286 71.9487
1494992 26.5662 10.4185 27.0799 7.88406 -12.2808 -0.421286 71.9487
1494999 26.5264 10.5745 27.0996 7.96934 -12.1526 -0.422329 72.1698
1495011 26.357 10.5562 27.0307 7.97882 -12.1146 -0.397015 71.9226
1495022 26.357 10.5562 27.0307 7.97882 -12.1146 -0.397015 71.9226
1495033 26.357 10.6388 26.8732 8.03567 -12.0144 -0.435342 71.9046
1495052 26.1876 10.703 26.7551 7.99777 -11.9487 -0.447583 71.6434
1495059 26.2175 10.8224 26.8633 8.0262 -11.8979 -0.448414 71.9294
1495072 26.2175 10.8224 26.8633 8.0262 -11.8979 -0.448414 71.9294
1495080 26.1676 10.7948 27.1291 8.12096 -11.9027 -0.355694 72.2125
1495090 26.1278 10.7581 27.3358 8.19677 -11.913 -0.280304 72.4185
1495099 26.1278 10.7581 27.3358 8.19677 -11.913 -0.280304 72.4185
1495115 26.1278 10.7581 27.7099 8.35786 -11.8986 -0.168214 72.9536
1495119 26.1278 10.7581 27.7099 8.35786 -11.8986 -0.168214 72.9536
1495131 26.1278 10.7489 27.8083 8.32943 -11.9352 -0.151805 73.0145
1495141 26.0281 10.6571 27.956 8.37681 -11.9663 -0.0724044 73.0181
1495151 26.0281 10.6571 27.956 8.37681 -11.9663 -0.0724044 73.0181
1495161 26.0381 10.7397 28.143 8.38629 -11.9549 -0.050852 73.3071
1495171 26.0979 10.7397 28.3301 8.38629 -11.9986 -0.0247353 73.554
1495181 26.0979 10.5562 28.3301 8.32943 -12.12 0.00111222 73.3135
1495191 26.2175 10.446 28.3104 8.301 -12.2077 -0.0106654 73.2748
1495210 26.3171 10.3083 28.1135 8.14939 -12.3384 -0.0746101 72.8883
1495223 26.3869 10.3175 28.0446 8.0641 -12.3775 -0.122713 72.813
1495230 26.3869 10.3175 28.0446 8.0641 -12.3775 -0.122713 72.813
1495243 26.4766 10.2532 27.9658 8.01672 -12.4368 -0.154149 72.7124
1495261 26.626 10.1706 27.9757 7.97882 -12.5264 -0.173639 72.7512
1495271 26.7456 10.2716 27.8576 7.92196 -12.5039 -0.255028 72.7967
1495281 26.7456 10.2716 27.8576 7.92196 -12.5039 -0.255028 72.7967
1495291 26.8851 10.2624 27.6705 7.84615 -12.5396 -0.336654 72.6642
1495300 27.0445 10.2532 27.4933 7.76087 -12.5854 -0.422506 72.552
1495322 27.194 10.2808 27.4047 7.73244 -12.5962 -0.482899 72.612
1495342 27.2737 10.2991 27.3162 7.79877 -12.5509 -0.507227 72.6878
1495352 27.3634 10.4185 27.2472 7.8272 -12.4783 -0.557421 72.8563
1495373 27.3435 10.6571 27.2079 7.86511 -12.3263 -0.600964 73.0736
1495382 27.3435 10.8774 27.1094 7.90301 -12.1777 -0.657174 73.2334
1495403 27.3335 11.0427 26.9126 7.90301 -12.0575 -0.729715 73.1918
1495413 27.3834 11.1253 26.7944 7.89353 -12.0084 -0.782956 73.1966
1495433 27.4033 11.263 26.6074 7.83668 -11.9378 -0.866256 73.1103
1495444 27.4033 11.263 26.6074 7.83668 -11.9378 -0.866256 73.1103
1495453 27.3535 11.1803 26.2629 7.79877 -11.9282 -0.924056 72.5955
1495463 27.4132 11.2262 26.1349 7.7893 -11.8973 -0.974718 72.5637
1495473 27.4132 11.2262 26.1349 7.7893 -11.8973 -0.974718 72.5637
1495485 27.4232 11.2813 25.9774 7.75139 -11.8619 -1.03041 72.4333
1495495 27.5029 11.3272 25.9577 7.65663 -11.8977 -1.07995 72.4445
1495504 27.5029 11.3272 25.9577 7.65663 -11.8977 -1.07995 72.4445
1495514 27.6225 11.3731 25.8593 7.65663 -11.8781 -1.13355 72.5116
1495534 27.7521 11.4282 25.692 7.61873 -11.8626 -1.21454 72.4909
1495547 27.9414 11.419 25.6132 7.5524 -11.921 -1.28122 72.526
1495554 27.9414 11.419 25.6132 7.5524 -11.921 -1.28122 72.526
1495564 28.1208 11.4006 25.5541 7.50502 -11.9761 -1.33553 72.5806
1495576 28.2304 11.4006 25.4852 7.46711 -12.0027 -1.3802 72.5834
1495596 28.32 11.3915 25.436 7.40078 -12.0485 -1.42141 72.5483
1495616 28.4894 11.3089 25.4262 7.3155 -12.1627 -1.45919 72.54
1495625 28.6887 11.1436 25.2982 7.18283 -12.3285 -1.52489 72.3134
1495635 28.6887 11.1436 25.2982 7.18283 -12.3285 -1.52489 72.3134
1495646 28.8283 11.0059 25.1998 7.10702 -12.4461 -1.56514 72.141
1495657 29.0275 10.9141 25.121 7.17336 -12.4803 -1.58798 72.2361
1495677 29.1272 10.9784 25.121 7.12598 -12.4888 -1.62923 72.3526
1495686 29.1272 10.9784 25.121 7.12598 -12.4888 -1.62923 72.3526
1495699 29.2468 11.0427 25.0718 7.17336 -12.4432 -1.66354 72.5346
1495705 29.3763 11.1253 25.0226 7.1544 -12.4243 -1.7181 72.6786
1495727 29.5557 11.2446 25.0521 7.16388 -12.3943 -1.7635 73.0163
1495740 29.6055 11.318 24.7962 7.16388 -12.3209 -1.84475 72.8836
1495747 29.6055 11.318 24.7962 7.16388 -12.3209 -1.84475 72.8836
1495757 29.755 11.4557 24.619 7.12598 -12.2651 -1.9462 72.9557
1495767 29.755 11.4557 24.619 7.12598 -12.2651 -1.9462 72.9557
1495777 29.8048 11.6118 24.304 7.05017 -12.1776 -2.07413 72.7707
1495787 29.8447 11.7862 24.0382 7.1544 -11.9956 -2.15004 72.8235
1495797 29.8447 11.7862 24.0382 7.1544 -11.9956 -2.15004 72.8235
1495807 29.8746 12.0799 23.8512 7.0786 -11.8569 -2.26895 72.8843
1495817 29.8447 12.1809 23.6543 7.18283 -11.7122 -2.30332 72.8627
1495837 29.8347 12.3461 23.4181 7.21126 -11.5696 -2.37978 72.8101
1495847 29.8347 12.3461 23.4181 7.21126 -11.5696 -2.37978 72.8101
1495857 29.7151 12.5205 23.2113 7.21126 -11.4215 -2.43875 72.6582
1495867 29.6055 12.7775 22.9653 7.24916 -11.207 -2.51427 72.5975
1495877 29.6055 12.7775 22.9653 7.24916 -11.207 -2.51427 72.5975
1495887 29.466 13.0805 22.7979 7.3913 -10.9273 -2.54839 72.7357
1495897 29.2667 13.3283 22.6404 7.48606 -10.689 -2.57184 72.7215
1495907 29.2667 13.3283 22.6404 7.48606 -10.689 -2.57184 72.7215
1495917 29.2368 13.6771 22.4731 7.52397 -10.461 -2.65739 72.911
1495938 29.0574 13.9158 22.2073 7.59978 -10.2188 -2.71354 72.7803
1495949 28.8283 14.1452 21.8431 7.63768 -9.96781 -2.79336 72.4543
1495958 28.8283 14.1452 21.8431 7.63768 -9.96781 -2.79336 72.4543
1495971 28.6688 14.595 21.4592 7.67559 -9.61944 -2.92735 72.3986
1495978 28.3998 14.8888 20.9375 7.79877 -9.25018 -3.03069 72.0248
1495990 28.3998 14.8888 20.9375 7.79877 -9.25018 -3.03069 72.0248
1495998 28.2403 15.2835 20.5634 7.86511 -8.91394 -3.14694 71.9523
1496011 28.2403 15.2835 20.5634 7.86511 -8.91394 -3.14694 71.9523
1496018 27.9613 15.6965 20.2189 7.93144 -8.54785 -3.23937 71.8082
1496031 27.772 16.1463 19.8054 8.07358 -8.13314 -3.35095 71.7973
1496038 27.772 16.1463 19.8054 8.07358 -8.13314 -3.35095 71.7973
1496052 27.5328 16.6145 19.3526 8.19677 -7.69709 -3.47252 71.6967
1496060 27.3335 17.1945 18.8309 8.29153 -7.21503 -3.64385 71.6505
1496073 27.3335 17.1945 18.8309 8.29153 -7.21503 -3.64385 71.6505
1496079 27.1043 17.71 18.3683 8.51895 -6.70966 -3.75035 71.7015
1496089 27.1043 17.71 18.3683 8.51895 -6.70966 -3.75035 71.7015
1496100 26.7855 18.2059 17.945 8.68952 -6.22505 -3.84433 71.6259
1496109 26.636 18.7019 17.63 8.9738 -5.76517 -3.90611 71.9417
1496120 26.636 18.7019 17.63 8.9738 -5.76517 -3.90611 71.9417
1496129 26.4467 19.4022 17.2166 9.42865 -5.11504 -3.97349 72.494
1496139 26.4467 19.4022 17.2166 9.42865 -5.11504 -3.97349 72.494
1496157 26.2573 19.9273 16.7732 9.89298 -4.5333 -4.01886 72.8508
1496163 26.0381 20.4428 16.3608 10.3099 -3.98016 -4.06214 73.1516
1496181 25.7093 20.9096 15.7835 10.7458 -3.36213 -4.11963 73.1482
1496189 25.4701 21.2403 15.299 11.1438 -2.86556 -4.15585 73.1532
1496201 25.4701 21.2403 15.299 11.1438 -2.86556 -4.15585 73.1532
1496210 25.0317 21.6293 14.7423 11.6934 -2.2064 -4.15038 73.0966
1496222 24.6032 21.853 14.1856 12.0725 -1.67206 -4.16661 72.7142
1496231 24.6032 21.853 14.1856 12.0725 -1.67206 -4.16661 72.7142
1496242 24.1747 22.1836 13.732 12.5842 -1.07976 -4.13671 72.6744
1496264 23.5967 22.4657 13.2062 13.1054 -0.425526 -4.0935 72.3739
1496270 23.0686 22.8352 12.7113 13.6644 0.248948 -4.0526 72.2796
1496285 23.0686 22.8352 12.7113 13.6644 0.248948 -4.0526 72.2796
1496290 22.5703 23.2048 12.268 14.1572 0.873822 -4.02004 72.2004
1496300 21.9426 23.7008 11.8144 14.8395 1.65403 -3.93987 72.2973
1496312 21.9426 23.7008 11.8144 14.8395 1.65403 -3.93987 72.2973
1496324 21.3447 24.2843 11.3608 15.4838 2.43629 -3.88783 72.4736
1496331 21.3447 24.2843 11.3608 15.4838 2.43629 -3.88783 72.4736
1496344 20.687 24.9457 10.8969 15.8724 3.18849 -3.90806 72.4019
1496352 19.9795 25.5 10.4227 16.2514 3.93232 -3.90945 72.1536
1496364 19.9795 25.5 10.4227 16.2514 3.93232 -3.90945 72.1536
1496372 19.1524 26.1516 9.92784 16.6304 4.76669 -3.91285 71.8623
1496383 18.3054 26.7157 9.51546 17.1169 5.58651 -3.84951 71.6534
1496392 18.3054 26.7157 9.51546 17.1169 5.58651 -3.84951 71.6534
1496404 17.5182 27.3478 9.13402 17.6332 6.39678 -3.78988 71.6333
1496412 17.5182 27.3478 9.13402 17.6332 6.39678 -3.78988 71.6333
1496425 16.7629 27.8827 8.75258 18.0521 7.1446 -3.74545 71.4504
1496432 16.0692 28.4662 8.45361 18.4808 7.84395 -3.69408 71.4699
1496442 16.0692 28.4662 8.45361 18.4808 7.84395 -3.69408 71.4699
1496452 15.4545 29.0303 8.26804 18.9874 8.46634 -3.60246 71.7403
1496467 15.4545 29.0303 8.26804 18.9874 8.46634 -3.60246 71.7403
1496472 14.8926 29.6722 8.03093 19.2797 9.0533 -3.60085 71.8753
1496482 14.392 30.2752 7.83505 19.5817 9.58249 -3.58967 72.0839
1496492 14.392 30.2752 7.83505 19.5817 9.58249 -3.58967 72.0839
1496502 13.8827 30.7906 7.58763 19.6888 10.0796 -3.62688 71.9498
1496512 13.4876 31.1894 7.45361 19.796 10.4426 -3.63441 71.9266
1496522 13.4876 31.1894 7.45361 19.796 10.4426 -3.63441 71.9266
1496532 13.1451 31.5978 7.23711 19.9032 10.8227 -3.67319 71.8832
1496542 13.1451 31.5978 7.23711 19.9032 10.8227 -3.67319 71.8832
1496552 12.7939 31.6854 7.12371 20.0395 11.0993 -3.6255 71.6425
1496562 12.5919 31.7048 7.15464 20.3513 11.2494 -3.5077 71.8027
1496583 12.469 31.6173 7.14433 20.6046 11.3484 -3.41143 71.8352
1496593 12.2319 31.4519 7.25773 21.043 11.4626 -3.20551 71.9846
1496613 12.2231 31.345 7.35052 21.3937 11.4659 -3.07497 72.3123
1496623 12.2231 31.345 7.35052 21.3937 11.4659 -3.07497 72.3123
1496634 12.03 31.2185 7.39175 21.7444 11.5844 -2.92445 72.3847
1496643 12.0387 31.024 7.49485 21.949 11.5298 -2.81745 72.5066
1496655 12.0387 31.024 7.49485 21.949 11.5298 -2.81745 72.5066
1496663 12.0651 30.7323 7.6701 22.1828 11.4177 -2.67262 72.6503
1496673 11.9509 30.4113 7.80412 22.3192 11.3731 -2.5327 72.4856
1496683 11.9509 30.4113 7.80412 22.3192 11.3731 -2.5327 72.4856
1496697 11.8895 29.9931 7.91753 22.6699 11.3344 -2.3379 72.47
1496706 11.8895 29.9931 7.91753 22.6699 11.3344 -2.3379 72.47
1496713 11.7314 29.6041 8.07216 23.0206 11.3288 -2.12128 72.4283
1496723 11.6173 29.2929 8.10309 23.3421 11.3726 -1.96218 72.3554
1496744 11.468 29.0692 8.18557 23.5564 11.4044 -1.82525 72.2792
1496753 11.2836 29.1567 8.08247 23.5272 11.5607 -1.83844 72.05
1496765 11.2836 29.1567 8.08247 23.5272 11.5607 -1.83844 72.05
1496774 11.1431 29.361 7.93814 23.3421 11.7093 -1.9274 71.7843
1496797 11.0289 29.7695 7.80412 23.2155 11.8883 -2.04241 71.818
1496807 10.8709 30.139 7.69072 23.1083 12.0757 -2.13292 71.8089
1496818 10.8709 30.139 7.69072 23.1083 12.0757 -2.13292 71.8089
1496827 10.704 30.635 7.43299 22.9622 12.3582 -2.28842 71.7342
1496834 10.5548 31.0435 7.25773 22.8648 12.5821 -2.40009 71.7207
1496844 10.5548 31.0435 7.25773 22.8648 12.5821 -2.40009 71.7207
1496856 10.4582 31.5006 7.14433 22.855 12.7689 -2.49299 71.9581
1496866 10.4582 31.5006 7.14433 22.855 12.7689 -2.49299 71.9581
1496876 10.3352 31.7729 6.95876 22.7868 12.9658 -2.58077 71.8537
1496886 10.2474 32.0452 6.95876 22.8258 13.0641 -2.60306 72.0772
1496906 10.1772 32.405 6.79381 22.8745 13.2555 -2.68107 72.2505
1496920 10.1684 32.726 6.7732 22.7479 13.3025 -2.77012 72.4154
1496936 10.1772 33.0761 6.64948 22.592 13.3946 -2.8992 72.4947
1496946 10.1772 33.0761 6.64948 22.592 13.3946 -2.8992 72.4947
1496957 10.2474 33.4067 6.5567 22.5433 13.4514 -3.0007 72.7541
1496966 10.2386 33.6888 6.51546 22.5238 13.5193 -3.06061 72.9667
1496977 10.2386 33.6888 6.51546 22.5238 13.5193 -3.06061 72.9667
1496988 10.1508 34 6.38144 22.3095 13.6519 -3.1836 72.8417
1496997 10.0542 34 6.31959 22.2413 13.7256 -3.20045 72.6151
1497007 10.0542 34 6.31959 22.2413 13.7256 -3.20045 72.6151
1497018 9.96643 34 6.16495 22.1341 13.8388 -3.25205 72.2655
1497027 9.96643 34 6.16495 22.1341 13.8388 -3.25205 72.2655
1497037 9.7469 34 6.13402 22.2413 13.9903 -3.197 72.1222
1497047 9.58884 34 6.06186 22.3874 14.1372 -3.15242 72.0381
1497057 9.58884 34 6.06186 22.3874 14.1372 -3.15242 72.0381
1497067 9.36932 34 6.05155 22.4458 14.2712 -3.10406 71.8667
1497077 9.21126 34 6 22.4264 14.3832 -3.09577 71.6376
1497097 9.22882 34 5.92783 22.4361 14.4147 -3.11447 71.5928
1497107 9.22882 34 5.92783 22.4361 14.4147 -3.11447 71.5928
1497117 9.27273 34 5.8866 22.3679 14.4031 -3.14948 71.5272
1497129 9.3781 34 5.90722 22.1828 14.3062 -3.20872 71.4681
1497137 9.3781 34 5.90722 22.1828 14.3062 -3.20872 71.4681
1497149 9.3781 34 5.81443 21.988 14.3282 -3.2823 71.1805
1497158 9.41322 34 5.81443 21.8711 14.2912 -3.31815 71.0987
1497178 9.50103 34 5.82474 21.8223 14.2297 -3.34245 71.1481
1497191 9.50103 34 5.82474 21.8223 14.2297 -3.34245 71.1481
1497198 9.53616 34 5.98969 21.9587 14.1404 -3.27086 71.4846
1497208 9.60641 34 6.08247 22.1049 14.0736 -3.22153 71.7938
1497218 9.60641 34 6.08247 22.1049 14.0736 -3.22153 71.7938
1497228 9.79081 34 5.96907 22.1146 14.0365 -3.27803 71.8745
1497239 9.84349 34 6.03093 22.0659 13.967 -3.28328 71.9403
1497258 9.95764 34 6.14433 22.0756 13.8456 -3.27061 72.1776
1497278 10.0367 34 6.13402 21.9587 13.7905 -3.31569 72.1294
1497288 10.1508 34 6.14433 21.8029 13.6993 -3.37117 72.098
1497298 10.1508 34 6.14433 21.8029 13.6993 -3.37117 72.098
1497309 10.2738 34 6.20619 21.5203 13.5556 -3.44733 72.0003
1497320 10.3352 34 6.10309 21.2573 13.536 -3.55144 71.6956
1497332 10.3352 34 6.10309 21.2573 13.536 -3.55144 71.6956
1497339 10.5548 34 6.23711 21.004 13.3058 -3.61726 71.7959
1497350 10.5548 34 6.23711 21.004 13.3058 -3.61726 71.7959
1497359 10.6162 34 6.17526 20.8189 13.2758 -3.69124 71.6104
1497369 10.827 34 6.34021 20.7702 13.068 -3.69416 71.9374
1497379 10.827 34 6.34021 20.7702 13.068 -3.69416 71.9374
1497389 11.0201 34 6.26804 20.6436 12.9829 -3.77619 71.9317
1497400 11.187 34 6.34021 20.5656 12.844 -3.80367 72.0928
1497409 11.187 34 6.34021 20.5656 12.844 -3.80367 72.0928
1497419 11.3011 34 6.30928 20.3708 12.7674 -3.88041 71.9812
1497443 11.3011 34 6.30928 20.3708 12.7674 -3.88041 71.9812
1497444 11.3714 34 6.35052 20.137 12.669 -3.94187 71.8589
1497453 11.4504 34 6.24742 19.6791 12.6026 -4.10299 71.3769
1497470 11.7665 34 6.2165 19.2699 12.3809 -4.26932 71.2529
1497482 12.0212 34 6.19588 18.9192 12.1957 -4.40832 71.1363
1497491 12.0212 34 6.19588 18.9192 12.1957 -4.40832 71.1363
1497500 12.267 34 6.18557 18.5295 12.0019 -4.55438 70.9821
1497509 12.267 34 6.18557 18.5295 12.0019 -4.55438 70.9821
1497524 12.4514 34 6.09278 18.2665 11.9058 -4.67984 70.8107
1497531 12.671 34 6.16495 17.9255 11.6905 -4.78662 70.7614
1497550 12.8554 34 6.23711 17.8086 11.5358 -4.82566 70.9011
1497562 12.8554 34 6.23711 17.8086 11.5358 -4.82566 70.9011
1497570 13.0398 34 6.31959 17.7014 11.3783 -4.85896 71.0608
1497580 13.1627 34 6.36082 17.6625 11.287 -4.87584 71.186
1497589 13.1627 34 6.36082 17.6625 11.287 -4.87584 71.186
1497599 13.3032 34 6.39175 17.5943 11.1866 -4.90618 71.2892
1497610 13.4876 34 6.45361 17.4871 11.0411 -4.94486 71.4283
1497622 13.4876 34 6.45361 17.4871 11.0411 -4.94486 71.4283
1497630 13.6369 34 6.57732 17.4676 10.9001 -4.9368 71.6818
1497641 13.6369 34 6.57732 17.4676 10.9001 -4.9368 71.6818
1497652 13.7686 34 6.63918 17.3799 10.786 -4.96244 71.7877
1497660 13.9267 34 6.69072 17.3799 10.6818 -4.97018 71.9973
1497671 13.9267 34 6.69072 17.3799 10.6818 -4.97018 71.9973
1497681 14.0671 33.7082 6.72165 17.2923 10.521 -4.96484 71.7893
1497691 14.1901 33.5235 6.7835 17.2436 10.3823 -4.95253 71.7406
1497700 14.1901 33.5235 6.7835 17.2436 10.3823 -4.95253 71.7406
1497711 14.4272 33.2706 6.95876 17.1851 10.1159 -4.91788 71.8416
1497722 14.4272 33.2706 6.95876 17.1851 10.1159 -4.91788 71.8416
1497732 14.5325 33.0177 6.96907 17.0877 9.98638 -4.92134 71.607
1497742 14.7608 32.7649 7.12371 17.0292 9.73426 -4.89116 71.6787
1497762 14.8662 32.4828 7.24742 16.9526 9.54653 -4.8531 71.5491
1497774 15.0857 32.1522 7.3299 16.8579 9.30842 -4.84073 71.4257
1497794 15.3755 31.841 7.41237 16.8294 9.05511 -4.82268 71.4583
1497802 15.3755 31.841 7.41237 16.8294 9.05511 -4.82268 71.4583
1497812 15.6126 31.5492 7.60825 16.6683 8.74764 -4.80523 71.4384
1497822 15.9287 31.2185 7.73196 16.5831 8.44533 -4.79251 71.4623
1497836 15.9287 31.2185 7.73196 16.5831 8.44533 -4.79251 71.4623
1497843 16.2185 30.7517 7.97938 16.3841 8.03895 -4.75374 71.3336
1497852 16.5873 30.4113 8.10309 16.1756 7.68005 -4.78131 71.2773
1497862 16.5873 30.4113 8.10309 16.1756 7.68005 -4.78131 71.2773
1497876 16.8946 29.964 8.36082 15.8913 7.24216 -4.76858 71.1107
1497883 16.8946 29.964 8.36082 15.8913 7.24216 -4.76858 71.1107
1497898 17.2491 29.5458 8.58763 15.6828 6.82184 -4.7543 71.0653
1497903 17.6377 29.1373 8.83505 15.5975 6.41155 -4.70647 71.2076
1497923 18.1061 28.6024 9.09278 15.4459 5.91232 -4.6675 71.2472
1497933 18.5545 28.1453 9.50515 15.3701 5.39845 -4.57377 71.5751
1497943 18.5545 28.1453 9.50515 15.3701 5.39845 -4.57377 71.5751
1497953 18.973 27.6979 9.83505 15.2943 4.93875 -4.50031 71.8003
1497963 18.973 27.6979 9.83505 15.2943 4.93875 -4.50031 71.8003
1497973 19.2819 27.2311 10.2268 15.1237 4.46892 -4.41722 71.8636
1497983 19.6208 26.6962 10.5567 14.9627 3.99569 -4.34271 71.8363
1497993 19.6208 26.6962 10.5567 14.9627 3.99569 -4.34271 71.8363
1498006 19.9596 25.9863 11.134 14.8679 3.39155 -4.158 71.9477
1498013 20.2087 25.1013 11.7526 14.7447 2.7451 -3.92982 71.8072
1498023 20.2087 25.1013 11.7526 14.7447 2.7451 -3.92982 71.8072
1498033 20.4777 24.2843 12.6495 14.8016 2.06288 -3.59582 72.2131
1498043 20.4777 24.2843 12.6495 14.8016 2.06288 -3.59582 72.2131
1498053 20.6571 23.3993 13.7423 14.8868 1.33685 -3.18371 72.6855
1498063 20.7767 22.5921 14.9381 15.0006 0.640401 -2.74803 73.3075
1498073 20.7767 22.5921 14.9381 15.0006 0.640401 -2.74803 73.3075
1498083 21.0258 21.9308 16.2474 14.9721 -0.124808 -2.37348 74.1761
1498093 21.0955 21.2014 17.4233 14.6878 -0.883509 -2.05337 74.4081
1498105 21.0955 21.2014 17.4233 14.6878 -0.883509 -2.05337 74.4081
1498115 21.2151 20.5595 18.4667 14.2425 -1.63789 -1.82565 74.4838
1498135 21.3646 19.8204 19.3329 13.5602 -2.46935 -1.679 74.0781
1498144 21.4543 19.1396 20.1008 13.039 -3.17916 -1.51642 73.7336
1498156 21.4543 19.1396 20.1008 13.039 -3.17916 -1.51642 73.7336
1498166 21.534 18.3421 20.7307 12.4231 -3.93659 -1.38072 73.0299
1498174 21.5141 17.5641 21.3804 11.9967 -4.60069 -1.18026 72.4552
1498185 21.5141 17.5641 21.3804 11.9967 -4.60069 -1.18026 72.4552
1498195 21.6137 16.9266 22.1876 11.5418 -5.30407 -0.998524 72.2697
1498205 21.6137 16.9266 22.1876 11.5418 -5.30407 -0.998524 72.2697
1498215 21.7034 16.2473 22.8964 11.1628 -5.96783 -0.810637 72.0098
1498225 21.9426 15.6231 23.674 10.869 -6.63042 -0.628771 72.1087
1498245 22.1717 15.0815 24.3827 10.5468 -7.24761 -0.482881 72.1828
1498255 22.5604 14.5675 24.9143 10.1962 -7.85973 -0.418896 72.2384
1498266 22.5604 14.5675 24.9143 10.1962 -7.85973 -0.418896 72.2384
1498277 22.8892 14.0443 25.5345 9.97826 -8.42043 -0.294172 72.4462
1498295 23.2181 13.6312 26.0562 9.76979 -8.90029 -0.211209 72.6752
1498305 23.4971 13.3742 26.6665 9.65608 -9.26761 -0.112451 73.1938
1498317 23.4971 13.3742 26.6665 9.65608 -9.26761 -0.112451 73.1938
1498329 23.7661 13.1172 27.1488 9.63712 -9.55645 -0.0198215 73.6692
1498337 23.9455 12.8234 27.4244 9.4476 -9.87863 0.0210053 73.641
1498351 23.9455 12.8234 27.4244 9.4476 -9.87863 0.0210053 73.641
1498357 24.1149 12.5297 27.5721 9.27703 -10.1642 0.0417459 73.4937
1498373 24.1149 12.5297 27.5721 9.27703 -10.1642 0.0417459 73.4937
1498377 24.1846 12.2084 27.5229 9.06856 -10.4236 0.0407696 72.9845
1498387 24.2943 11.9422 27.6902 9.06856 -10.6081 0.107328 72.9953
1498407 24.3042 11.676 27.7985 8.86957 -10.8596 0.142016 72.6483
1498418 24.3341 11.4374 27.9461 8.86009 -11.0167 0.21386 72.5777
1498437 24.3839 11.162 27.8969 8.699 -11.2348 0.218321 72.1419
1498447 24.3839 11.162 27.8969 8.699 -11.2348 0.218321 72.1419
1498457 24.4537 10.9784 27.9166 8.58528 -11.4016 0.223081 71.934
1498467 24.663 10.804 27.9461 8.49052 -11.5831 0.202298 71.9036
1498488 24.922 10.6938 28.0347 8.47157 -11.7132 0.18519 72.1222
1498498 25.1712 10.5194 28.084 8.32943 -11.9294 0.150363 72.104
1498508 25.1712 10.5194 28.084 8.32943 -11.9294 0.150363 72.104
1498518 25.4601 10.4735 28.0249 8.13043 -12.0965 0.0461215 72.089
1498529 25.4601 10.4735 28.0249 8.13043 -12.0965 0.0461215 72.089
1498538 25.6794 10.345 27.8772 8.05463 -12.2147 -0.0192887 71.9563
1498549 25.9185 10.3817 27.8871 8.01672 -12.2594 -0.0823626 72.2041
1498558 25.9185 10.3817 27.8871 8.01672 -12.2594 -0.0823626 72.2041
1498572 26.1377 10.4919 27.769 8.03567 -12.2108 -0.170847 72.4343
1498578 26.2175 10.5745 27.8477 8.10201 -12.1624 -0.17368 72.7417
1498588 26.2175 10.5745 27.8477 8.10201 -12.1624 -0.17368 72.7417
1498598 26.2872 10.6847 27.956 8.15886 -12.1088 -0.175894 73.0867
1498608 26.2872 10.6847 27.956 8.15886 -12.1088 -0.175894 73.0867
1498618 26.3869 10.703 27.8477 8.13043 -12.1124 -0.228227 73.068
1498628 26.4566 10.6847 27.5426 8.07358 -12.1091 -0.314433 72.7574
1498638 26.4566 10.6847 27.5426 8.07358 -12.1091 -0.314433 72.7574
1498648 26.5563 10.7673 27.2374 7.93144 -12.103 -0.445848 72.4924
1498668 26.6758 10.6755 27.0996 7.81773 -12.2052 -0.505201 72.2687
1498679 26.8453 10.6479 26.9126 7.8272 -12.2114 -0.571782 72.233
1498701 26.915 10.5562 26.7846 7.70401 -12.3122 -0.621712 71.9598
1498709 27.0645 10.6021 26.8437 7.68506 -12.335 -0.651942 72.1953
1498723 27.0645 10.6021 26.8437 7.68506 -12.335 -0.651942 72.1953
1498735 27.1143 10.5745 26.9716 7.71349 -12.3656 -0.622538 72.3739
1498739 27.1143 10.5745 27.1193 7.71349 -12.3913 -0.590731 72.5216
1498750 27.1143 10.5745 27.1193 7.75139 -12.3718 -0.582588 72.5595
1498759 27.2239 10.5378 27.2374 7.72297 -12.4448 -0.577816 72.7221
1498770 27.2239 10.5378 27.2374 7.72297 -12.4448 -0.577816 72.7221
1498779 27.3236 10.4276 27.4047 7.70401 -12.5572 -0.544013 72.86
1498790 27.483 10.3175 27.3162 7.72297 -12.6163 -0.568655 72.8396
1498800 27.483 10.3175 27.3162 7.72297 -12.6163 -0.568655 72.8396
1498812 27.6325 10.345 27.2374 7.5903 -12.6827 -0.648952 72.8052
1498819 27.6325 10.345 27.2374 7.5903 -12.6827 -0.648952 72.8052
1498833 27.7321 10.2441 27.2374 7.59978 -12.7469 -0.646653 72.8134
1498839 27.8716 10.1798 27.3555 7.50502 -12.8725 -0.656455 72.912
1498850 27.8716 10.1798 27.3555 7.50502 -12.8725 -0.656455 72.912
1498859 27.9215 10.1614 27.3358 7.49554 -12.892 -0.668907 72.9143
1498869 28.0709 10.1247 27.3063 7.44816 -12.9555 -0.707575 72.9501
1498879 28.0709 10.1247 27.3063 7.44816 -12.9555 -0.707575 72.9501
1498889 28.1008 10.0972 27.1291 7.42921 -12.9554 -0.750384 72.7563
1498899 28.1008 10.0972 27.1291 7.42921 -12.9554 -0.750384 72.7563
1498910 28.1407 10.1431 27.1488 7.44816 -12.9315 -0.7588 72.8807
1498920 28.1805 10.2165 27.2177 7.3913 -12.9408 -0.778298 73.0061
1498929 28.1805 10.2165 27.2177 7.3913 -12.9408 -0.778298 73.0061
1498941 28.2204 10.2441 27.139 7.45764 -12.8857 -0.794098 73.0611
1498950 28.3101 10.3175 26.9815 7.37235 -12.8806 -0.878391 72.9814
1498961 28.3101 10.3175 26.9815 7.37235 -12.8806 -0.878391 72.9814
1498970 28.3699 10.4735 26.7748 7.3534 -12.785 -0.969265 72.9716
1498989 28.33 10.4368 26.4499 7.27759 -12.7822 -1.0427 72.4943
1499004 28.4197 10.5103 26.3121 7.25864 -12.7457 -1.10879 72.5007
1499009 28.4197 10.5103 26.3121 7.25864 -12.7457 -1.10879 72.5007
1499019 28.4197 10.6296 26.2826 7.27759 -12.6688 -1.13397 72.6095
1499031 28.3898 10.804 26.1644 7.30602 -12.5386 -1.18146 72.6643
1499040 28.3898 10.804 26.1644 7.30602 -12.5386 -1.18146 72.6643
1499050 28.3998 10.8591 26.1152 7.38183 -12.4643 -1.1879 72.7559
1499061 28.3998 10.8591 26.1152 7.38183 -12.4643 -1.1879 72.7559
1499070 28.3599 10.9233 26.066 7.3534 -12.4305 -1.20982 72.7026
1499081 28.3599 10.9692 25.9774 7.40078 -12.3672 -1.22772 72.7073
1499091 28.3599 10.9692 25.9774 7.40078 -12.3672 -1.22772 72.7073
1499101 28.3798 11.0335 26.1152 7.3913 -12.3664 -1.21505 72.9198
1499112 28.3798 11.0335 26.1152 7.3913 -12.3664 -1.21505 72.9198
1499119 28.33 11.0794 26.2038 7.41026 -12.3399 -1.19043 73.0235
1499132 28.2902 11.1344 26.2235 7.48606 -12.2696 -1.17217 73.1342
1499154 28.2104 11.1161 26.1448 7.48606 -12.2513 -1.17103 72.9573
1499161 28.0809 11.1436 26.1743 7.47659 -12.2246 -1.14722 72.8754
1499171 28.0809 11.1436 26.1743 7.47659 -12.2246 -1.14722 72.8754
1499181 28.0311 11.2262 26.0955 7.53344 -12.1309 -1.15831 72.8863
1499190 28.0311 11.2262 26.0955 7.53344 -12.1309 -1.15831 72.8863
1499201 27.9215 11.1803 26.3023 7.54292 -12.1665 -1.08091 72.947
1499212 27.9015 11.2813 26.3613 7.64716 -12.0692 -1.06045 73.1913
1499221 27.9015 11.2813 26.3613 7.64716 -12.0692 -1.06045 73.1913
1499231 27.7321 11.3915 26.2826 7.67559 -11.955 -1.0602 73.0817
1499242 27.6923 11.4098 26.2038 7.64716 -11.9389 -1.07969 72.9531
1499252 27.6923 11.4098 26.2038 7.64716 -11.9389 -1.07969 72.9531
1499262 27.5727 11.4924 26.0955 7.68506 -11.8369 -1.08816 72.8457
1499282 27.4332 11.6301 26.066 7.70401 -11.7271 -1.09015 72.8333
1499292 27.3634 11.8321 25.9971 7.77982 -11.5621 -1.11383 72.9724
1499303 27.3634 11.8321 25.9971 7.77982 -11.5621 -1.11383 72.9724
1499315 27.2837 11.9789 25.7805 7.80825 -11.4195 -1.16824 72.8514
1499324 27.0944 12.0248 25.6821 7.80825 -11.3426 -1.16283 72.6096
1499333 27.0944 12.0248 25.6821 7.80825 -11.3426 -1.16283 72.6096
1499345 26.9748 12.034 25.4754 7.7893 -11.2859 -1.19216 72.2735
1499352 26.9748 12.034 25.4754 7.7893 -11.2859 -1.19216 72.2735
1499372 26.8751 12.1717 25.3376 7.79877 -11.1668 -1.22823 72.1832
1499373 26.8353 12.2176 25.3179 7.86511 -11.0992 -1.2189 72.2359
1499393 26.8154 12.3369 25.1702 7.92196 -10.9789 -1.25824 72.2445
1499403 26.7954 12.5389 25.1112 7.91249 -10.8679 -1.30821 72.358
1499413 26.7954 12.5389 25.1112 7.91249 -10.8679 -1.30821 72.358
1499424 26.8054 12.5297 25.1309 7.90301 -10.883 -1.30606 72.369
1499433 26.8552 12.594 25.1013 7.95987 -10.827 -1.32146 72.5104
1499443 26.8552 12.594 25.1013 7.95987 -10.827 -1.32146 72.5104
1499455 26.8951 12.649 25.062 7.94091 -10.8092 -1.35248 72.547
1499465 26.8951 12.649 25.062 7.94091 -10.8092 -1.35248 72.547
1499477 27.0047 12.6857 25.0127 7.8272 -10.8591 -1.41675 72.5304
1499483 27.1143 12.7775 24.8257 7.84615 -10.7893 -1.49248 72.5637
1499495 27.1143 12.7775 24.8257 7.84615 -10.7893 -1.49248 72.5637
1499504 27.2538 12.7959 24.6387 7.79877 -10.7943 -1.57523 72.4872
1499515 27.2538 12.7959 24.6387 7.79877 -10.7943 -1.57523 72.4872
1499526 27.2638 12.7775 24.5993 7.77982 -10.8069 -1.58702 72.4204
1499535 27.4531 12.7133 24.5402 7.69454 -10.9064 -1.64326 72.4012
1499544 27.4531 12.7133 24.5402 7.69454 -10.9064 -1.64326 72.4012
1499554 27.3834 12.5022 24.4713 7.66611 -10.9987 -1.61367 72.023
1499566 27.4132 12.3002 24.619 7.58082 -11.1771 -1.56723 71.9133
1499574 27.4132 12.3002 24.619 7.58082 -11.1771 -1.56723 71.9133
1499589 27.473 12.2268 24.6879 7.64716 -11.2053 -1.53358 72.0349
1499604 27.4631 12.2176 24.8848 7.73244 -11.2029 -1.46549 72.2979
1499614 27.5029 12.3737 24.9832 7.88406 -11.076 -1.44534 72.7438
1499635 27.5328 12.5022 25.121 7.84615 -11.0632 -1.45225 73.0022
1499645 27.6225 12.5205 25.0816 7.8272 -11.0731 -1.48542 73.0519
1499654 27.6225 12.5205 25.0816 7.8272 -11.0731 -1.48542 73.0519
1499664 27.5129 12.649 25.0127 7.90301 -10.9382 -1.48736 73.0777
1499675 27.5129 12.649 25.0127 7.90301 -10.9382 -1.48736 73.0777
1499685 27.473 12.8051 24.806 7.98829 -10.7721 -1.53624 73.0724
1499694 27.2937 12.9611 24.6387 8.00725 -10.6185 -1.5656 72.9007
1499705 27.2937 12.9611 24.6387 8.00725 -10.6185 -1.5656 72.9007
1499715 27.194 13.3008 24.304 8.00725 -10.3666 -1.68603 72.806
1499725 26.8851 13.3925 24.0382 8.11148 -10.1548 -1.68333 72.4274
1499736 26.8851 13.3925 24.0382 8.11148 -10.1548 -1.68333 72.4274
1499745 26.7257 13.7046 23.7921 8.09253 -9.929 -1.77259 72.315
1499758 26.7257 13.7046 23.7921 8.09253 -9.929 -1.77259 72.315
1499766 26.4267 13.9708 23.5165 8.31996 -9.57043 -1.77779 72.234
1499779 26.2274 14.3839 23.1424 8.32943 -9.24506 -1.90186 72.0832
1499786 26.2274 14.3839 23.1424 8.32943 -9.24506 -1.90186 72.0832
1499796 26.0381 14.8062 22.7389 8.54738 -8.81161 -1.98765 72.1305
1499805 25.7292 15.2743 22.2762 8.68952 -8.35134 -2.0921 71.9692
1499815 25.7292 15.2743 22.2762 8.68952 -8.35134 -2.0921 71.9692
1499826 25.4801 15.7149 21.971 8.9359 -7.90559 -2.14031 72.1019
1499845 25.1014 16.2106 21.4395 9.10647 -7.38396 -2.24736 71.8579
1499856 24.8224 16.899 20.8587 9.31494 -6.76929 -2.4093 71.8951
1499875 24.4736 17.496 20.4158 9.56132 -6.19628 -2.5003 71.9467
1499885 24.4736 17.496 22.3746 9.56132 -6.69467 -2.03645 73.9056
1499896 24.1149 18.1281 19.8547 9.85507 -5.55445 -2.61282 71.9528
1499907 23.806 18.7797 19.5101 10.1962 -4.9591 -2.67236 72.2921
1499916 23.806 18.7797 19.5101 10.1962 -4.9591 -2.67236 72.2921
1499928 23.4572 19.3924 19.1361 10.49 -4.38453 -2.73684 72.4757
1499935 23.2679 19.8106 18.703 10.6984 -3.95342 -2.83053 72.4799
1499948 23.2679 19.8106 18.703 10.6984 -3.95342 -2.83053 72.4799
1499956 22.8095 20.151 18.2009 11.0964 -3.37782 -2.83633 72.2579
1499966 22.8095 20.151 18.2009 11.0964 -3.37782 -2.83633 72.2579
1499976 22.3611 20.6373 17.7087 11.447 -2.76681 -2.87771 72.1542
1499985 22.0123 21.1041 17.315 12.0061 -2.14566 -2.85666 72.4376
1499996 22.0123 21.1041 17.315 12.0061 -2.14566 -2.85666 72.4376
1500012 21.5141 21.6585 16.8969 12.4799 -1.4723 -2.85234 72.5494
1500017 21.1155 22.1058 16.4742 13.0011 -0.853805 -2.8363 72.6966
1500027 21.1155 22.1058 16.4742 13.0011 -0.853805 -2.8363 72.6966
1500038 20.6671 22.4851 16.0103 13.5507 -0.220564 -2.80372 72.7132
1500050 20.6671 22.4851 16.0103 13.5507 -0.220564 -2.80372 72.7132
1500058 20.2784 22.8741 15.4948 13.8919 0.342134 -2.84657 72.5393
1500067 19.8499 23.2145 14.8454 14.413 1.0136 -2.86342 72.3229
1500087 19.2819 23.5063 14.3093 14.811 1.64309 -2.8511 71.9086
1500097 18.9033 23.7689 13.732 15.3417 2.25634 -2.84306 71.7458
1500117 18.4449 24.2551 13.2474 15.8818 2.93914 -2.83397 71.8293
1500138 17.9666 24.6247 12.7113 16.3746 3.59995 -2.82629 71.6772
1500151 17.5281 25.1402 12.2371 17.0585 4.3193 -2.78738 71.9639
1500158 17.5281 25.1402 12.2371 17.0585 4.3193 -2.78738 71.9639
1500170 17.0897 25.5973 11.6907 17.6138 5.01122 -2.78834 71.9914
1500178 16.6312 26.0252 11.1856 18.3054 5.72226 -2.73718 72.1474
1500198 16.1658 26.5114 10.7423 19.0361 6.43134 -2.67037 72.4556
1500208 15.6741 26.8518 10.299 19.6499 7.08131 -2.60306 72.4747
1500218 15.6741 26.8518 10.299 19.6499 7.08131 -2.60306 72.4747
1500233 15.1648 27.2797 9.91753 20.2831 7.73642 -2.52816 72.6451
1500243 15.1648 27.2797 9.91753 20.2831 7.73642 -2.52816 72.6451
1500259 14.1725 28.1745 9.12371 21.345 9.00329 -2.44693 72.8157
1500269 14.1725 28.1745 9.12371 21.345 9.00329 -2.44693 72.8157
1500280 13.5754 28.5051 8.72165 21.7347 9.63054 -2.40379 72.5369
1500289 13.5754 28.5051 8.72165 21.7347 9.63054 -2.40379 72.5369
1500302 13.0661 28.9817 8.34021 21.91 10.1958 -2.4477 72.298
1500309 12.5041 29.4485 7.96907 22.1731 10.8012 -2.45729 72.0948
1500324 12.5041 29.4485 7.96907 22.1731 10.8012 -2.45729 72.0948
1500330 12.109 29.9542 7.65979 22.3095 11.2779 -2.51844 72.0325
1500340 11.7051 30.5767 7.42268 22.3777 11.732 -2.59733 72.0821
1500359 11.4065 31.0824 7.2165 22.2705 12.063 -2.70964 71.9759
1500370 11.4065 31.0824 7.2165 22.2705 12.063 -2.70964 71.9759
1500379 11.1343 31.6465 6.98969 22.0756 12.3869 -2.8635 71.8461
1500390 11.0904 32.1424 6.7835 21.9587 12.5833 -3.01992 71.9751
1500400 11.0904 32.1424 6.7835 21.9587 12.5833 -3.01992 71.9751
1500410 11.0377 32.5995 6.70103 21.8418 12.7122 -3.13682 72.1801
1500420 11.0114 32.833 6.63918 21.7542 12.783 -3.20837 72.2376
1500432 11.0114 32.833 6.63918 21.7542 12.783 -3.20837 72.2376
1500441 10.9411 33.0275 6.54639 21.7639 12.9028 -3.24956 72.2789
1500450 10.9411 33.0275 6.54639 21.7639 12.9028 -3.24956 72.2789
1500461 10.8533 32.9788 6.57732 21.8321 12.9359 -3.20232 72.2415
1500471 10.8006 32.9399 6.51546 21.8418 12.9913 -3.2005 72.0978
1500479 10.8006 32.9399 6.51546 21.8418 12.9913 -3.2005 72.0978
1500490 10.6952 32.8816 6.53608 21.7931 13.0182 -3.18074 71.906
1500500 10.7216 32.7941 6.57732 21.9003 12.9857 -3.13322 71.9933
1500510 10.7216 32.7941 6.57732 21.9003 12.9857 -3.13322 71.9933
1500522 10.704 32.8427 6.54639 21.9977 13.0356 -3.12161 72.0908
1500530 10.704 32.8427 6.54639 21.9977 13.0356 -3.12161 72.0908
1500543 10.6865 32.9788 6.51546 22.0075 13.0854 -3.14644 72.1882
1500550 10.6074 33.1733 6.43299 21.9685 13.1962 -3.19593 72.1823
1500560 10.6074 33.1733 6.43299 21.9685 13.1962 -3.19593 72.1823
1500570 10.5723 33.3289 6.43299 22.0659 13.256 -3.19109 72.4002
1500579 10.5723 33.3289 6.43299 22.0659 13.256 -3.19109 72.4002
1500591 10.3528 33.504 6.43299 22.2997 13.4379 -3.12527 72.5895
1500600 10.1508 33.7374 6.27835 22.6894 13.7249 -3.07191 72.856
1500611 10.1508 33.7374 6.27835 22.6894 13.7249 -3.07191 72.856
1500620 9.86105 33.9125 6.26804 22.8355 13.934 -3.01946 72.8771
1500636 9.64153 34 6.16495 23.1278 14.1639 -2.95104 72.9343
1500645 9.64153 34 6.16495 23.1278 14.1639 -2.95104 72.9343
1500653 9.29907 34 6.03093 23.3129 14.4484 -2.88162 72.6429
1500675 9.10589 34 5.90722 23.3129 14.6212 -2.87983 72.326
1500683 8.8688 34 5.7835 23.2544 14.8116 -2.88517 71.9067
1500690 8.8688 34 5.7835 23.2544 14.8116 -2.88517 71.9067
1500701 8.61415 34 5.57732 23.0888 15.0453 -2.93517 71.2803
1500710 8.44731 34 5.45361 23.1083 15.2119 -2.93315 71.0092
1500722 8.44731 34 5.45361 23.1083 15.2119 -2.93315 71.0092
1500736 8.21023 34 5.28866 23.1668 15.4488 -2.91969 70.6656
1500756 7.89411 34 5.25773 23.1862 15.651 -2.86832 70.3381
1500762 7.66581 34 5.1134 23.157 15.8637 -2.87306 69.9362
1500772 7.66581 34 5.1134 23.157 15.8637 -2.87306 69.9362
1500782 7.41994 34 5.01031 23.3713 16.096 -2.80186 69.8016
1500792 7.18285 34 5.04124 23.6734 16.2557 -2.67569 69.8974
1500802 7.18285 34 5.04124 23.6734 16.2557 -2.67569 69.8974
1500812 7.02479 34 4.93814 23.9461 16.4439 -2.60492 69.9091
1500822 7.02479 34 4.93814 23.9461 16.4439 -2.60492 69.9091
1500832 6.87552 34 4.86598 23.9559 16.5768 -2.59414 69.6974
1500842 6.75258 34 4.92783 23.9266 16.6097 -2.56399 69.6071
1500863 6.68233 34 4.85567 23.9948 16.7032 -2.55242 69.5329
1500872 6.65599 34 4.96907 24.1702 16.672 -2.47511 69.7953
1500884 6.65599 34 4.96907 24.1702 16.672 -2.47511 69.7953
1500894 6.86674 34 5.04124 24.1702 16.5038 -2.49478 70.0782
1500906 6.86674 34 5.04124 24.1702 16.5038 -2.49478 70.0782
1500913 7.04236 34 5.20619 24.3066 16.3199 -2.45118 70.5551
1500923 7.22676 34 5.28866 24.4138 16.1775 -2.43715 70.9292
1500943 7.34969 34 5.3299 24.2189 16.0579 -2.49671 70.8985
1500953 7.52531 34 5.39175 24.102 15.9059 -2.5412 71.0191
1500963 7.52531 34 5.39175 24.102 15.9059 -2.5412 71.0191
1500974 7.67459 34 5.39175 23.9461 15.8 -2.60589 71.0125
1500983 7.67459 34 5.39175 23.9461 15.8 -2.60589 71.0125
1500997 7.75362 34 5.48454 23.8682 15.6913 -2.61599 71.1063
1501003 7.96436 34 5.53608 23.8779 15.543 -2.63742 71.3784
1501013 7.96436 34 5.53608 23.8779 15.543 -2.63742 71.3784
1501023 8.1751 34 5.64948 23.7805 15.3466 -2.66987 71.6051
1501034 8.44731 34 5.73196 23.7708 15.1464 -2.69866 71.9501
1501044 8.44731 34 5.73196 23.7708 15.1464 -2.69866 71.9501
1501054 8.57025 34 5.81443 23.7221 15.0254 -2.71135 72.1067
1501065 8.59659 34 5.89691 23.8 14.9759 -2.67652 72.2935
1501074 8.59659 34 5.89691 23.8 14.9759 -2.67652 72.2935
1501084 8.59659 34 5.89691 23.7221 14.9651 -2.6956 72.2156
1501107 8.6405 34 5.85567 23.6734 14.9569 -2.72514 72.1695
1501114 8.62293 34 5.81443 23.5564 14.9732 -2.76108 71.9938
1501129 8.62293 34 5.81443 23.5564 14.9732 -2.76108 71.9938
1501134 8.66684 34 5.75258 23.4006 14.9614 -2.82241 71.82
1501144 8.66684 34 5.75258 23.4006 14.9614 -2.82241 71.82
1501154 8.63171 34 5.71134 23.2739 14.9863 -2.85822 71.617
1501164 8.6405 34 5.69072 23.235 14.9874 -2.87457 71.5662
1501175 8.6405 34 5.69072 23.235 14.9874 -2.87457 71.5662
1501184 8.6844 34 5.63918 23.1181 14.9753 -2.92417 71.4416
1501197 8.61415 34 5.69072 23.0791 14.9803 -2.90913 71.384
1501207 8.61415 34 5.69072 23.0791 14.9803 -2.90913 71.384
1501215 8.75465 34 5.71134 23.0693 14.8889 -2.93015 71.5353
1501225 8.75465 34 5.71134 23.0693 14.8889 -2.93015 71.5353
1501237 8.8249 34 5.7732 23.1473 14.8265 -2.90704 71.7454
1501245 8.8688 34 5.81443 23.1862 14.7848 -2.89444 71.8695
1501256 8.8688 34 5.81443 23.1862 14.7848 -2.89444 71.8695
1501266 8.99174 34 5.76289 23.0011 14.7189 -2.97419 71.7558
1501275 9.09711 34 5.70103 22.7479 14.6583 -3.07108 71.546
1501295 9.18492 34 5.70103 22.4751 14.57 -3.15484 71.361
1501316 9.2376 34 5.61856 22.2023 14.5465 -3.25438 71.0585
1501325 9.33419 34 5.65979 21.9782 14.4367 -3.31739 70.9722
1501335 9.33419 34 5.65979 21.9782 14.4367 -3.31739 70.9722
1501347 9.44835 34 5.60825 21.7444 14.367 -3.41006 70.801
1501357 9.48347 34 5.63918 21.6957 14.3229 -3.42043 70.8183
1501377 9.59762 34 5.71134 21.5398 14.196 -3.46085 70.8488
1501387 9.59762 34 5.71134 21.5398 14.196 -3.46085 70.8488
1501400 9.65031 34 5.63918 21.3742 14.1815 -3.53157 70.6637
1501410 9.67665 34 5.68041 21.3352 14.1381 -3.53525 70.6923
1501417 9.67665 34 5.68041 21.3352 14.1381 -3.53525 70.6923
1501427 9.69421 34 5.53608 21.267 14.198 -3.59398 70.4973
1501438 9.72934 34 5.62887 21.2086 14.118 -3.59062 70.5668
1501448 9.72934 34 5.62887 21.2086 14.118 -3.59062 70.5668
1501458 9.73812 34 5.57732 21.1599 14.1342 -3.61848 70.4753
1501468 9.73812 34 5.57732 21.1599 14.1342 -3.61848 70.4753
1501478 9.67665 34 5.56701 21.1696 14.1756 -3.6087 70.4133
1501489 9.65909 34 5.5567 21.1307 14.1851 -3.61889 70.3465
1501498 9.65909 34 5.5567 21.1307 14.1851 -3.61889 70.3465
1501512 9.5625 34 5.48454 21.0819 14.2719 -3.63531 70.129
1501518 9.38688 34 5.4433 21.0625 14.3907 -3.62294 69.8926
1501528 9.38688 34 5.4433 21.0625 14.3907 -3.62294 69.8926
1501539 9.43957 34 5.53608 21.2476 14.3371 -3.55778 70.2232
1501560 9.44835 34 5.50515 21.2963 14.3569 -3.55451 70.2498
1501569 9.61519 34 5.62887 21.3645 14.2052 -3.53113 70.6085
1501590 9.66787 34 5.58763 21.3255 14.1929 -3.56075 70.581
1501602 9.7469 34 5.57732 21.2183 14.1383 -3.60447 70.5426
1501610 9.7469 34 5.57732 21.2183 14.1383 -3.60447 70.5426
1501623 9.87862 34 5.72165 21.1891 13.9812 -3.59542 70.7894
1501629 9.87862 34 5.72165 21.1891 13.9812 -3.59542 70.7894
1501641 9.90496 34 5.72165 21.1112 13.9546 -3.62016 70.7378
1501651 10.1596 34 5.85567 21.0138 13.7262 -3.65136 71.029
1501661 10.1596 34 5.85567 21.0138 13.7262 -3.65136 71.029
1501671 10.3264 34 5.85567 20.7799 13.5981 -3.7395 70.9621
1501680 10.5723 34 6.12371 20.5851 13.2886 -3.7591 71.2811
1501690 10.5723 34 6.12371 20.5851 13.2886 -3.7591 71.2811
1501700 10.8182 34 6.09278 20.3513 13.1347 -3.86757 71.2623
1501711 10.8182 34 6.09278 20.3513 13.1347 -3.86757 71.2623
1501721 11.0114 34 6.20619 20.2344 12.9517 -3.89859 71.4519
1501735 11.2836 34 6.43299 20.0883 12.6634 -3.91944 71.8048
1501741 11.2836 34 6.43299 20.0883 12.6634 -3.91944 71.8048
1501751 11.5294 33.8347 6.47423 19.8642 12.4456 -3.98013 71.7025
1501761 11.8456 33.4651 6.68041 19.6791 12.0755 -3.96633 71.6702
1501770 11.8456 33.4651 6.68041 19.6791 12.0755 -3.96633 71.6702
1501780 12.3022 33.0664 6.8866 19.5914 11.646 -3.94393 71.8465
1501800 12.5568 32.5898 7.08247 19.4453 11.2996 -3.89656 71.6744
1501810 12.8905 32.1424 7.30928 19.4063 10.9232 -3.82949 71.7485
1501830 13.2066 31.8021 7.45361 19.2797 10.601 -3.82107 71.7419
1501846 13.4876 31.4325 7.68041 19.2602 10.2715 -3.75299 71.8607
1501852 13.4876 31.4325 7.68041 19.2602 10.2715 -3.75299 71.8607
1501868 13.9003 31.0727 7.83505 19.2212 9.91212 -3.73113 72.0292
1501872 14.1637 30.7225 8 19.2212 9.63145 -3.67474 72.1075
1501882 14.1637 30.7225 8 19.2212 9.63145 -3.67474 72.1075
1501892 14.4799 30.3919 8.1134 19.0848 9.32547 -3.67841 72.0699
1501913 14.4799 30.3919 8.1134 19.0848 9.32547 -3.67841 72.0699
1501914 14.7696 30.0223 8.34021 18.9095 8.96077 -3.65253 72.0416
1501924 14.954 29.7305 8.43299 18.8315 8.74752 -3.63175 71.9491
1501936 14.954 29.7305 8.43299 18.8315 8.74752 -3.63175 71.9491
1501943 15.2175 29.2929 8.52577 18.7049 8.45212 -3.61294 71.741
1501958 15.4106 29.0498 8.51546 18.6269 8.29248 -3.62793 71.6028
1501975 15.6126 28.7872 8.4433 18.5295 8.14766 -3.66253 71.3726
1501984 15.6126 28.7872 8.4433 18.5295 8.14766 -3.66253 71.3726
1501995 15.7355 28.5635 8.58763 18.4418 7.9499 -3.6317 71.3285
1502005 15.8409 28.3009 8.61856 18.3736 7.80748 -3.61633 71.134
1502014 15.8409 28.3009 8.61856 18.3736 7.80748 -3.61633 71.134
1502026 15.9551 28.0772 8.61856 18.4223 7.71246 -3.58603 71.0732
1502034 16.1482 27.8438 8.7732 18.4321 7.49834 -3.53667 71.1974
1502050 16.1482 27.8438 8.7732 18.4321 7.49834 -3.53667 71.1974
1502056 16.4819 27.7271 9.01031 18.4321 7.21094 -3.51004 71.6514
1502065 16.4819 27.7271 9.01031 18.4321 7.21094 -3.51004 71.6514
1502074 16.6136 27.484 9.20619 18.4029 6.99622 -3.44917 71.7067
1502084 16.8946 27.2797 9.52577 18.3736 6.67128 -3.38715 72.0738
1502106 17.2192 27.0561 9.78351 18.1203 6.29464 -3.40225 72.1791
1502121 17.558 26.7546 10.134 18.0132 5.89144 -3.34642 72.4598
1502126 17.558 26.7546 10.134 18.0132 5.89144 -3.34642 72.4598
1502136 17.9267 26.4336 10.567 17.6819 5.37874 -3.32838 72.6093
1502145 17.9267 26.4336 10.567 17.6819 5.37874 -3.32838 72.6093
1502155 18.3453 25.9376 11.1546 17.2338 4.70321 -3.28075 72.6713
1502166 18.8136 25.4222 11.8144 16.7631 3.96812 -3.2257 72.8133
1502175 18.8136 25.4222 11.8144 16.7631 3.96812 -3.2257 72.8133
1502187 19.2122 24.7706 12.6289 16.2703 3.15574 -3.10438 72.882
1502195 19.6307 24.119 13.5876 15.7113 2.26285 -2.96737 73.0486
1502210 19.6307 24.119 13.5876 15.7113 2.26285 -2.96737 73.0486
1502215 20.0791 23.5549 14.732 15.0858 1.30346 -2.82149 73.4519
1502225 20.0791 23.5549 14.732 15.0858 1.30346 -2.82149 73.4519
1502235 20.398 22.9228 15.6289 14.4983 0.47456 -2.69448 73.448
1502245 20.8962 22.1836 16.6392 13.8161 -0.522107 -2.57523 73.5351
1502256 20.8962 22.1836 16.6392 13.8161 -0.522107 -2.57523 73.5351
1502267 21.2749 21.3667 17.6005 13.058 -1.51797 -2.45222 73.3
1502276 21.7233 20.5789 18.4765 12.3852 -2.47244 -2.34553 73.164
1502299 22.1618 19.7037 19.205 11.864 -3.35888 -2.22045 72.9344
1502305 22.1618 19.7037 19.205 11.864 -3.35888 -2.22045 72.9344
1502320 22.5903 18.8576 19.8645 11.2101 -4.27008 -2.14551 72.5225
1502327 23.0188 18.0601 20.6028 10.6416 -5.15736 -2.03969 72.3232
1502337 23.0188 18.0601 20.6028 10.6416 -5.15736 -2.03969 72.3232
1502347 23.4572 17.0973 21.3706 10.2057 -6.07399 -1.86707 72.1307
1502365 23.8458 17.0973 22.0104 9.82664 -6.50327 -1.87675 72.7802
1502367 23.8458 16.1371 22.0104 9.82664 -6.92441 -1.70132 71.8201
1502377 24.1747 15.513 22.7585 9.67503 -7.53774 -1.50872 72.1212
1502387 24.1747 15.513 22.7585 9.67503 -7.53774 -1.50872 72.1212
1502399 24.4936 15.1366 23.3787 9.55184 -7.98772 -1.38497 72.5607
1502410 24.7427 14.9622 23.9595 9.52341 -8.27206 -1.27521 73.1878
1502417 24.7427 14.9622 23.9595 9.52341 -8.27206 -1.27521 73.1878
1502433 24.922 14.8429 24.2449 9.45708 -8.46198 -1.23788 73.4669
1502437 24.922 14.8429 24.2449 9.45708 -8.46198 -1.23788 73.4669
1502447 25.0117 14.5675 24.304 9.25808 -8.71264 -1.23401 73.1413
1502457 25.0914 14.3197 24.3729 9.11594 -8.92619 -1.21857 72.8999
1502467 25.0914 14.3197 24.3729 9.11594 -8.92619 -1.21857 72.8999
1502477 25.211 14.0535 24.4517 8.9359 -9.17845 -1.21337 72.652
1502487 25.3306 13.7781 24.5993 8.83166 -9.4156 -1.17406 72.5396
1502507 25.4302 13.5394 24.6977 8.68004 -9.64392 -1.15938 72.3475
1502521 25.4302 13.5394 24.6977 8.68004 -9.64392 -1.15938 72.3475
1502527 25.5598 13.2457 24.8159 8.7369 -9.80989 -1.08889 72.3582
1502537 25.6893 13.0896 24.7863 8.59476 -9.9748 -1.12206 72.1601
1502550 25.6893 13.0896 24.7863 8.59476 -9.9748 -1.12206 72.1601
1502567 25.7989 13.0437 24.8356 8.49052 -10.0806 -1.14661 72.1688
1502573 25.8089 13.0346 24.9931 8.55686 -10.0874 -1.09683 72.3934
1502589 25.8787 13.0437 25.1702 8.64214 -10.0925 -1.05383 72.7348
1502613 25.9185 12.9244 25.3474 8.61371 -10.2082 -1.00581 72.8041
1502618 26.0082 12.8051 25.5148 8.72742 -10.2629 -0.938552 73.0555
1502635 26.0082 12.8051 25.5148 8.72742 -10.2629 -0.938552 73.0555
1502638 26.1079 12.6215 25.692 8.5379 -10.4992 -0.92507 72.9592
1502648 26.2872 12.3278 25.7805 8.40524 -10.7605 -0.9126 72.8008
1502670 26.6659 12.1809 25.7904 8.24415 -10.9875 -0.990427 72.8813
1502680 26.6659 12.1809 25.7904 8.24415 -10.9875 -0.990427 72.8813
1502690 26.8054 11.8413 25.8396 8.05463 -11.2864 -0.982703 72.5409
1502702 26.9848 11.5934 25.938 7.94091 -11.5201 -0.972826 72.4571
1502711 26.9848 11.5934 25.938 7.94091 -11.5201 -0.972826 72.4571
1502725 27.0346 11.3456 26.0759 7.83668 -11.7329 -0.926986 72.2927
1502731 27.1542 11.0518 26.3909 7.79877 -11.9808 -0.832171 72.3956
1502741 27.1542 11.0518 26.3909 7.79877 -11.9808 -0.832171 72.3956
1502751 27.194 10.7856 26.6369 7.77035 -12.1828 -0.740267 72.387
1502761 27.194 10.7856 27.0012 7.77035 -12.247 -0.661466 72.7512
1502771 27.0445 10.4735 27.0012 7.75139 -12.3912 -0.573997 72.2706
1502782 27.0346 10.1982 27.4146 7.77035 -12.5938 -0.424167 72.4177
1502795 27.0346 10.1982 27.4146 7.77035 -12.5938 -0.424167 72.4177
1502800 26.8751 9.85853 27.8576 7.76087 -12.8238 -0.231214 72.3521
1502810 26.7954 9.64741 28.2808 7.80825 -12.9669 -0.0731581 72.5319
1502820 26.7954 9.64741 28.2808 7.80825 -12.9669 -0.0731581 72.5319
1502831 26.8951 9.43629 28.4482 7.77035 -13.1415 -0.0233316 72.5499
1502841 26.8951 9.43629 28.4482 7.77035 -13.1415 -0.0233316 72.5499
1502851 26.8253 9.18845 28.5466 7.69454 -13.3171 0.0472051 72.2549
1502864 26.8154 9.16091 28.7533 7.77982 -13.3183 0.115201 72.5094
1502885 26.915 9.15173 28.8222 7.75139 -13.3652 0.104671 72.6404
1502892 26.9748 9.16091 28.8419 7.7893 -13.3531 0.102146 72.7669
1502901 26.9748 9.16091 28.8419 7.7893 -13.3531 0.102146 72.7669
1502910 27.0346 9.13337 28.8222 7.81773 -13.359 0.0972444 72.8079
1502922 27.0346 9.13337 28.8222 7.81773 -13.359 0.0972444 72.8079
1502933 26.9549 9.11501 28.7927 7.72297 -13.4013 0.0921267 72.5855
1502942 26.9449 9.13337 28.96 7.84615 -13.3518 0.149812 72.8845
1502962 26.8652 9.13337 29.1865 7.92196 -13.3354 0.227721 73.107
1502978 26.8951 9.05994 29.216 7.94091 -13.3734 0.246584 73.1119
1502982 26.8951 9.05994 29.216 7.94091 -13.3734 0.246584 73.1119
1502993 26.9947 9.15173 29.0388 7.81773 -13.3776 0.145898 73.003
1503005 26.9947 9.15173 29.0388 7.81773 -13.3776 0.145898 73.003
1503012 27.0047 9.06911 28.6549 7.77982 -13.3814 0.074662 72.5085
1503026 27.1043 9.22516 28.3891 7.69454 -13.3172 -0.0509244 72.4131
1503032 27.1043 9.22516 28.3891 7.69454 -13.3172 -0.0509244 72.4131
1503042 27.194 9.38121 28.2611 7.68506 -13.2336 -0.130104 72.5214
1503053 27.3535 9.54644 28.1332 7.71349 -13.1369 -0.217171 72.7466
1503063 27.3535 9.54644 28.1332 7.71349 -13.1369 -0.217171 72.7466
1503073 27.493 9.70248 28.0052 7.74192 -13.0424 -0.297835 72.9426
1503083 27.493 9.70248 28.0052 7.74192 -13.0424 -0.297835 72.9426
1503095 27.6125 9.80346 27.8083 7.63768 -13.0314 -0.405556 72.862
1503103 27.7321 9.87689 27.5524 7.60925 -12.9854 -0.504465 72.7707
1503124 27.7819 9.87689 27.3358 7.53344 -12.9975 -0.576924 72.5281
1503138 27.8916 9.93197 27.3457 7.52397 -12.9934 -0.609522 72.6932
1503153 28.0809 10.0605 27.2276 7.44816 -12.9777 -0.713906 72.8171
1503163 28.0809 10.0605 27.2276 7.44816 -12.9777 -0.713906 72.8171
1503174 28.33 10.0146 26.9618 7.34392 -13.0534 -0.833901 72.6503
1503186 28.6987 10.088 26.7354 7.30602 -13.0582 -0.977369 72.8281
1503197 28.6987 10.088 26.7354 7.30602 -13.0582 -0.977369 72.8281
1503208 28.9877 10.1706 26.3023 7.1165 -13.0905 -1.18623 72.5771
1503217 29.3664 10.2624 25.9873 6.99331 -13.1174 -1.37342 72.6093
1503236 29.8347 10.3083 25.7707 6.85117 -13.209 -1.55043 72.7649
1503246 30.1436 10.3909 25.5738 6.89855 -13.159 -1.65645 73.0069
1503266 30.4226 10.345 25.5148 6.75641 -13.2929 -1.74492 73.0388
1503275 30.4226 10.345 25.5148 6.75641 -13.2929 -1.74492 73.0388
1503287 30.592 10.345 25.3966 6.69955 -13.3309 -1.81579 73.0333
1503297 30.8113 10.345 25.3474 6.65217 -13.3829 -1.8775 73.1559
1503319 30.9109 10.2808 25.2687 6.65217 -13.4199 -1.90203 73.1125
1503327 30.9209 10.2257 25.2982 6.55741 -13.5051 -1.90904 73.0022
1503342 30.9209 10.2257 25.2982 6.55741 -13.5051 -1.90904 73.0022
1503347 30.9508 10.1706 25.3179 6.49108 -13.577 -1.91534 72.9304
1503357 30.9508 10.1706 25.3179 6.49108 -13.577 -1.91534 72.9304
1503367 30.8312 10.1247 25.3179 6.52899 -13.5624 -1.87679 72.8028
1503377 30.8113 10.1247 25.2391 6.59532 -13.5118 -1.87608 72.7704
1503388 30.8113 10.1247 25.2391 6.59532 -13.5118 -1.87608 72.7704
1503397 30.7913 10.1982 25.1112 6.49108 -13.5047 -1.93973 72.5917
1503411 30.8312 10.2257 24.9931 6.52899 -13.4576 -1.97058 72.5789
1503417 30.8312 10.2257 24.9931 6.52899 -13.4576 -1.97058 72.5789
1503427 30.9607 10.2532 24.9537 6.51951 -13.4624 -2.01014 72.6871
1503437 30.9607 10.2532 24.9537 6.51951 -13.4624 -2.01014 72.6871
1503448 30.9906 10.2532 24.9537 6.45318 -13.5022 -2.03102 72.6507
1503461 31.0205 10.3175 24.9241 6.51951 -13.4332 -2.03919 72.7817
1503468 31.0205 10.3175 24.9241 6.51951 -13.4332 -2.03919 72.7817
1503484 30.9807 10.2716 24.8946 6.51003 -13.4515 -2.03304 72.6569
1503489 31.0703 10.3267 24.9931 6.46265 -13.4772 -2.04686 72.8527
1503509 31.0305 10.3817 25.0029 6.51951 -13.4134 -2.03398 72.9346
1503519 31.0305 10.3817 25.0029 6.51951 -13.4134 -2.03398 72.9346
1503530 31.0006 10.2441 25.1604 6.54794 -13.4912 -1.96078 72.953
1503539 31.0006 10.2257 25.2687 6.52899 -13.528 -1.93675 73.0239
1503559 30.9607 10.1523 25.2884 6.53846 -13.5586 -1.90969 72.9398
1503569 30.9707 10.1798 25.3474 6.53846 -13.5548 -1.90274 73.0364
1503580 30.9707 10.1798 25.3474 6.53846 -13.5548 -1.90274 73.0364
1503589 30.9607 10.0697 25.4163 6.57637 -13.6022 -1.85647 73.0231
1503599 30.9607 10.0697 25.4163 6.57637 -13.6022 -1.85647 73.0231
1503612 30.891 9.98704 25.5541 6.58584 -13.6515 -1.79504 73.018
1503619 30.7614 9.90443 25.7018 6.67113 -13.6529 -1.70312 73.0388
1503630 30.7614 9.90443 25.7018 6.67113 -13.6529 -1.70312 73.0388
1503644 30.6419 9.81264 25.8691 6.6427 -13.724 -1.63281 72.9663
1503651 30.5223 9.80346 25.9282 6.62375 -13.7296 -1.60004 72.8777
1503660 30.5223 9.80346 25.9282 6.62375 -13.7296 -1.60004 72.8777
1503671 30.4625 9.7851 25.9479 6.61427 -13.7382 -1.58332 72.8097
1503680 30.4625 9.7851 25.9479 6.61427 -13.7382 -1.58332 72.8097
1503691 30.313 9.68412 26.1546 6.6806 -13.7655 -1.47502 72.8323
1503701 30.1835 9.73002 26.3909 6.71851 -13.7374 -1.39767 73.0228
1503727 30.044 9.64741 26.5188 6.76589 -13.7543 -1.31687 72.9761
1503734 29.9045 9.56479 26.6271 6.79431 -13.7783 -1.24457 72.8907
1503740 29.9045 9.56479 26.6271 6.79431 -13.7783 -1.24457 72.8907
1503750 29.7849 9.56479 26.7157 6.85117 -13.7433 -1.18961 72.9165
1503772 29.6155 9.473 26.7748 6.88907 -13.7549 -1.11845 72.7523
1503780 29.5557 9.473 26.9421 6.93645 -13.7463 -1.05959 72.9072
1503790 29.5557 9.473 26.9421 6.93645 -13.7463 -1.05959 72.9072
1503804 29.466 9.35367 27.1488 6.95541 -13.8177 -0.96994 72.9239
1503810 29.2268 9.30778 27.2472 7.02174 -13.7852 -0.878864 72.8036
1503826 29.2268 9.30778 27.2472 7.02174 -13.7852 -0.878864 72.8036
1503830 29.177 9.30778 27.2965 7.0786 -13.7549 -0.846091 72.8599
1503840 29.177 9.30778 27.2965 7.0786 -13.7549 -0.846091 72.8599
1503852 28.898 9.28024 27.3851 7.05964 -13.7502 -0.771149 72.623
1503863 28.7685 9.26188 27.4835 7.1544 -13.7046 -0.70026 72.6682
1503882 28.6489 9.36285 27.7001 7.23969 -13.6208 -0.631649 72.9515
1503893 28.5193 9.49136 27.8182 7.45764 -13.4365 -0.559766 73.2865
1503916 28.33 9.63823 27.8576 7.5524 -13.2863 -0.522966 73.3782
1503922 28.33 9.63823 27.8576 7.5524 -13.2863 -0.522966 73.3782
1503933 28.1606 9.82181 27.8674 7.64716 -13.1159 -0.503667 73.497
1503942 27.9314 10.0329 27.7001 7.73244 -12.8977 -0.517432 73.3969
1503952 27.9314 10.0329 27.7001 7.73244 -12.8977 -0.517432 73.3969
1503962 27.7122 10.0972 27.5524 7.81773 -12.7596 -0.499987 73.1795
1503972 27.4033 10.3359 27.3654 7.81773 -12.5528 -0.525774 72.9222
1503992 27.1342 10.6021 27.2965 8.01672 -12.2561 -0.497558 73.0495
1504005 27.1342 10.6021 27.2965 8.01672 -12.2561 -0.497558 73.0495
1504012 26.8751 10.8774 27.1094 8.12096 -11.9844 -0.518377 72.983
1504023 26.5862 11.1253 26.8437 8.23467 -11.7015 -0.542613 72.7898
1504036 26.5862 11.1253 26.8437 8.23467 -11.7015 -0.542613 72.7898
1504043 26.3271 11.5292 26.5287 8.41472 -11.3022 -0.600181 72.7996
1504053 25.9883 11.9881 26.1054 8.55686 -10.8581 -0.68438 72.6386
1504063 25.9883 11.9881 26.1054 8.55686 -10.8581 -0.68438 72.6386
1504076 25.6893 12.5481 25.7116 8.74638 -10.3537 -0.779837 72.6954
1504083 25.6893 12.5481 25.7116 8.74638 -10.3537 -0.779837 72.6954
1504098 25.2808 13.0437 25.2293 8.89799 -9.85771 -0.868968 72.4518
1504103 25.0317 13.567 24.6091 9.03066 -9.35901 -1.02967 72.2384
1504113 25.0317 13.567 24.6091 9.03066 -9.35901 -1.02967 72.2384
1504123 24.7028 14.2187 24.0579 9.22965 -8.76358 -1.17034 72.2091
1504133 24.2943 14.7419 23.3885 9.46656 -8.16314 -1.28967 71.8912
1504143 24.2943 14.7419 23.3885 9.46656 -8.16314 -1.28967 71.8912
1504153 23.9355 15.3569 22.7192 9.73188 -7.51493 -1.43038 71.7435
1504173 23.4472 15.9719 22.1285 10.0541 -6.82588 -1.516 71.6018
1504187 23.0487 16.6695 21.6561 10.4331 -6.12822 -1.59365 71.8074
1504193 23.0487 16.6695 21.6561 10.4331 -6.12822 -1.59365 71.8074
1504203 22.7198 17.4668 21.0753 10.9259 -5.33414 -1.70087 72.1878
1504213 22.7198 17.4668 21.0753 10.9259 -5.33414 -1.70087 72.1878
1504223 22.2515 18.1184 20.4551 11.3049 -4.60394 -1.79049 72.1299
1504233 21.8728 18.9548 19.7365 11.8545 -3.72833 -1.91316 72.4187
1504256 21.4244 19.655 18.8998 12.3378 -2.88016 -2.04139 72.317
1504263 20.9461 20.4428 18.1911 12.9443 -1.98213 -2.12071 72.5242
1504279 20.9461 20.4428 18.1911 12.9443 -1.98213 -2.12071 72.5242
1504283 20.5076 21.1041 17.4331 13.4654 -1.16231 -2.2162 72.5103
1504303 19.9396 21.8335 16.5361 14.1098 -0.183782 -2.30476 72.419
1504314 19.4414 22.5921 15.6598 14.7637 0.777906 -2.4035 72.4569
1504325 19.4414 22.5921 15.6598 14.7637 0.777906 -2.4035 72.4569
1504335 18.9332 23.2437 14.7526 15.2943 1.67959 -2.51925 72.2238
1504348 18.3154 23.7592 13.8557 15.8818 2.60052 -2.57694 71.812
1504353 18.3154 23.7592 13.8557 15.8818 2.60052 -2.57694 71.812
1504364 17.7673 24.2649 13.1031 16.5262 3.46096 -2.59614 71.6615
1504374 17.7673 24.2649 13.1031 16.5262 3.46096 -2.59614 71.6615
1504384 17.1395 24.7414 12.3918 17.0682 4.3027 -2.61161 71.3409
1504395 16.6751 25.1499 11.7216 17.8281 5.10727 -2.57975 71.3747
1504416 16.2536 25.7237 11.1959 18.5003 5.85101 -2.57023 71.6735
1504424 15.8058 26.3072 10.6082 19.2017 6.63727 -2.56588 71.923
1504440 15.8058 26.3072 10.6082 19.2017 6.63727 -2.56588 71.923
1504444 15.4194 26.8421 10.1031 19.8837 7.33694 -2.54846 72.2483
1504454 15.4194 26.8421 10.1031 19.8837 7.33694 -2.54846 72.2483
1504466 15.0243 27.4548 9.6701 20.3805 7.97637 -2.57035 72.5297
1504476 14.673 28.0383 9.23711 20.8481 8.57743 -2.60166 72.7966
1504487 14.673 28.0383 9.23711 20.8481 8.57743 -2.60166 72.7966
1504495 14.2779 28.5441 8.82474 21.1112 9.12362 -2.65663 72.7579
1504510 13.8301 28.9817 8.52577 21.4814 9.6497 -2.63763 72.8189
1504516 13.8301 28.9817 8.52577 21.4814 9.6497 -2.63763 72.8189
1504526 13.391 29.4971 8.21649 21.7054 10.1617 -2.67124 72.8101
1504536 13.391 29.4971 8.21649 21.7054 10.1617 -2.67124 72.8101
1504546 13.0046 29.8862 7.94845 21.9003 10.5972 -2.68947 72.7395
1504556 12.6534 30.3043 7.76289 22.1146 10.9846 -2.6938 72.8353
1504566 12.6534 30.3043 7.76289 22.1146 10.9846 -2.6938 72.8353
1504578 12.2583 30.7614 7.52577 22.3387 11.4277 -2.70743 72.8842
1504586 11.9334 31.0532 7.35052 22.5822 11.7772 -2.68526 72.9193
1504600 11.9334 31.0532 7.35052 22.5822 11.7772 -2.68526 72.9193
1504606 11.5558 31.413 7.16495 22.6407 12.1378 -2.71315 72.7745
1504616 11.5558 31.413 7.16495 22.6407 12.1378 -2.71315 72.7745
1504626 11.3187 31.6756 7.05155 22.5433 12.3464 -2.76891 72.5891
1504637 11.1431 31.8604 6.91753 22.4751 12.5265 -2.82009 72.3961
1504647 11.1431 31.8604 6.91753 22.4751 12.5265 -2.82009 72.3961
1504656 11.0026 32.0355 6.80412 22.5335 12.6984 -2.83944 72.3757
1504669 11.0026 32.0355 6.80412 22.5335 12.6984 -2.83944 72.3757
1504676 10.7216 32.0938 6.72165 22.4946 12.892 -2.83192 72.0316
1504691 10.5987 32.1424 6.73196 22.5628 12.9708 -2.79994 72.0358
1504696 10.5987 32.1424 6.73196 22.5628 12.9708 -2.79994 72.0358
1504705 10.4494 32.1716 6.61856 22.4653 13.0985 -2.83184 71.7049
1504716 10.3616 32.0841 6.60825 22.4848 13.1394 -2.79973 71.5387
1504727 10.3616 32.0841 6.60825 22.4848 13.1394 -2.79973 71.5387
1504738 10.3001 32.1327 6.63918 22.5335 13.1718 -2.77774 71.6055
1504747 10.3001 32.1327 6.63918 22.5335 13.1718 -2.77774 71.6055
1504760 10.186 32.1424 6.56701 22.6017 13.2842 -2.76088 71.4971
1504769 10.1508 32.2203 6.64948 22.7479 13.2955 -2.71158 71.7684
1504777 10.1508 32.2203 6.64948 22.7479 13.2955 -2.71158 71.7684
1504787 10.0806 32.3953 6.58763 22.7966 13.4023 -2.73275 71.8601
1504797 9.98399 32.5995 6.5567 22.8258 13.508 -2.75151 71.966
1504807 9.98399 32.5995 6.5567 22.8258 13.508 -2.75151 71.966
1504817 9.97521 32.8621 6.46392 22.9037 13.6164 -2.79822 72.205
1504837 9.84349 33.1247 6.35052 22.7966 13.7721 -2.8748 72.1153
1504847 9.76446 33.4165 6.36082 22.7284 13.8437 -2.92481 72.2701
1504857 9.76446 33.4165 6.36082 22.7284 13.8437 -2.92481 72.2701
1504867 9.64153 33.5429 6.31959 22.7284 13.9516 -2.93563 72.2324
1504877 9.63275 33.6596 6.23711 22.7576 14.023 -2.96685 72.2871
1504888 9.63275 33.6596 6.23711 22.7576 14.023 -2.96685 72.2871
1504898 9.51859 33.6985 6.16495 22.8648 14.1459 -2.94561 72.2468
1504908 9.51859 33.6985 6.16495 22.8648 14.1459 -2.94561 72.2468
1504921 9.43079 33.6693 6.16495 23.0791 14.2212 -2.87295 72.3441
1504928 9.25517 33.7374 6.18557 23.2447 14.3399 -2.80898 72.4228
1504948 9.18492 33.7082 6.12371 23.4395 14.436 -2.75957 72.4564
1504958 9.03564 33.718 6.15464 23.4785 14.5076 -2.71882 72.3868
1504968 9.03564 33.718 6.15464 23.4785 14.5076 -2.71882 72.3868
1504978 9.00052 33.786 6.06186 23.5175 14.5929 -2.73759 72.3659
1504993 8.89514 33.786 6.07217 23.5759 14.6534 -2.70287 72.3293
1505000 8.89514 33.7763 6.07217 23.5759 14.652 -2.70121 72.3196
1505010 9.04442 33.6985 6.18557 23.6246 14.5043 -2.67378 72.5531
1505020 9.04442 33.6985 6.18557 23.6246 14.5043 -2.67378 72.5531
1505030 9.04442 33.611 6.23711 23.7708 14.4847 -2.61085 72.6633
1505040 9.15857 33.4554 6.41237 23.9656 14.3338 -2.51452 72.9919
1505062 9.22882 33.2998 6.39175 23.8877 14.2728 -2.52359 72.808
1505069 9.22882 33.2998 6.41237 23.8877 14.2616 -2.51863 72.8286
1505085 9.14979 33.115 6.41237 23.9461 14.2857 -2.45919 72.6233
1505089 9.12345 33.008 6.42268 23.9169 14.2742 -2.44067 72.471
1505099 9.12345 33.008 6.42268 23.9169 14.2742 -2.44067 72.471
1505115 9.15857 32.8135 6.41237 24.0728 14.2551 -2.37801 72.4572
1505123 9.20248 32.5898 6.56701 24.1605 14.1275 -2.28865 72.5198
1505132 9.20248 32.5898 6.56701 24.1605 14.1275 -2.28865 72.5198
1505141 9.26395 32.3467 6.61856 24.2481 14.0431 -2.22358 72.4773
1505154 9.24638 32.23 6.6701 24.2968 14.0145 -2.17606 72.4433
1505162 9.24638 32.23 6.6701 24.2968 14.0145 -2.17606 72.4433
1505178 9.2376 31.9479 6.79381 24.3943 13.9245 -2.07205 72.3736
1505185 9.2376 31.9479 6.79381 24.3943 13.9245 -2.07205 72.3736
1505192 9.25517 31.8118 6.80412 24.4917 13.9036 -2.02545 72.3628
1505202 9.30785 31.6854 6.94845 24.5501 13.7875 -1.96462 72.4918
1505213 9.30785 31.6854 6.94845 24.5501 13.7875 -1.96462 72.4918
1505226 9.422 31.6173 7.01031 24.5794 13.6875 -1.95162 72.629
1505233 9.53616 31.5686 6.98969 24.5404 13.624 -1.9773 72.6349
1505263 9.54494 31.5103 6.98969 24.5599 13.6133 -1.96385 72.6048
1505275 9.58006 31.5006 7.05155 24.6378 13.5725 -1.93581 72.77
1505283 9.57128 31.4519 7.09278 24.5989 13.5415 -1.92497 72.7149
1505298 9.57128 31.4519 7.09278 24.5989 13.5415 -1.92497 72.7149
1505303 9.58884 31.4033 7.1134 24.6378 13.5197 -1.90552 72.7434
1505313 9.703 31.4617 7.09278 24.4722 13.4533 -1.97987 72.7297
1505333 9.73812 31.4325 7.08247 24.4819 13.4371 -1.98107 72.735
1505345 9.73812 31.4325 7.08247 24.4819 13.4371 -1.98107 72.735
1505353 9.72056 31.3255 7.14433 24.5014 13.3997 -1.93976 72.6918
1505367 9.79959 31.2574 7.2165 24.7255 13.345 -1.87298 72.999
1505383 9.83471 31.2088 7.14433 24.7352 13.3583 -1.88499 72.9231
1505393 9.79081 31.0824 7.16495 24.7255 13.3487 -1.85176 72.7636
1505404 9.79081 31.0824 7.16495 24.7255 13.3487 -1.85176 72.7636
1505415 9.79081 31.0921 7.15464 24.667 13.3464 -1.86946 72.7046
1505424 9.79081 31.0921 7.15464 24.667 13.3464 -1.86946 72.7046
1505436 9.703 31.1116 7.08247 24.5307 13.4123 -1.90564 72.4277
1505444 9.65031 31.1699 7.06186 24.6281 13.476 -1.88876 72.5102
1505454 9.65031 31.1699 7.06186 24.6281 13.476 -1.88876 72.5102
1505464 9.65909 31.1602 7.1134 24.5989 13.4378 -1.88339 72.5315
1505475 9.61519 31.1018 7.06186 24.6378 13.4854 -1.8678 72.4167
1505484 9.61519 31.1018 7.06186 24.6378 13.4854 -1.8678 72.4167
1505494 9.64153 31.0532 7.12371 24.6963 13.4401 -1.83578 72.5147
1505508 9.64153 31.0532 7.12371 24.6963 13.4401 -1.83578 72.5147
1505514 9.5625 31.0435 7.08247 24.784 13.5163 -1.80887 72.4724
1505524 9.53616 31.0338 7.08247 24.7937 13.5303 -1.80004 72.4461
1505534 9.53616 31.0338 7.08247 24.7937 13.5303 -1.80004 72.4461
1505546 9.43957 31.0727 7.07217 24.8327 13.5996 -1.78288 72.4171
1505556 9.34298 31.0727 6.97938 24.8327 13.7008 -1.78676 72.2277
1505566 9.34298 31.0727 6.97938 24.8327 13.7008 -1.78676 72.2277
1505575 9.27273 31.2185 6.97938 24.9301 13.7763 -1.77798 72.4007
1505585 9.27273 31.2185 6.97938 24.9301 13.7763 -1.77798 72.4007
1505600 9.0532 31.1991 6.93814 24.9009 13.909 -1.75055 72.0913
1505605 8.94783 31.2283 6.89691 25.0275 14.012 -1.7167 72.1005
1505617 8.94783 31.2283 6.89691 25.0275 14.012 -1.7167 72.1005
1505627 9.0093 31.3352 7 25.1347 13.9559 -1.69908 72.4792
1505636 9.0532 31.3547 6.98969 25.2711 13.9616 -1.6817 72.6686
1505648 9.0532 31.3547 6.98969 25.2711 13.9616 -1.6817 72.6686
1505655 9.08833 31.3936 7.02062 25.349 13.944 -1.67031 72.8515
1505666 9.08833 31.3936 7.02062 25.349 13.944 -1.67031 72.8515
1505676 9.09711 31.345 7.01031 25.3685 13.9404 -1.66091 72.8209
1505686 9.08833 31.345 6.94845 25.2321 13.9575 -1.70479 72.6138
1505705 9.14979 31.3839 6.96907 25.1152 13.9016 -1.74531 72.6179
1505718 9.09711 31.3061 6.87629 25.0762 13.9619 -1.7519 72.3557
1505727 9.09711 31.3061 6.87629 25.0762 13.9619 -1.7519 72.3557
1505740 9.04442 31.2477 6.98969 25.1054 13.9248 -1.69857 72.3873
1505751 9.04442 31.2477 6.98969 25.1054 13.9248 -1.69857 72.3873
1505763 9.07076 31.2672 7.01031 25.2029 13.9174 -1.6798 72.5511
1505773 9.15857 31.238 7.01031 25.1542 13.8584 -1.70176 72.561
1505786 9.15857 31.238 7.01031 25.1542 13.8584 -1.70176 72.561
1505787 9.27273 31.3352 7 24.9691 13.7893 -1.78547 72.577
1505797 9.29029 31.3352 6.89691 24.8424 13.8156 -1.84196 72.3648
1505818 9.32541 31.3741 6.92783 24.6865 13.762 -1.88453 72.3139
1505838 9.30785 31.3839 6.92783 24.5794 13.7563 -1.90817 72.1989
1505848 9.26395 31.3936 6.90722 24.6183 13.7985 -1.89767 72.1831
1505868 9.20248 31.413 6.84536 24.6086 13.8664 -1.90682 72.0695
1505879 9.25517 31.4325 6.86598 24.443 13.8042 -1.95399 71.9966
1505888 9.25517 31.4325 6.86598 24.443 13.8042 -1.95399 71.9966
1505904 9.36054 31.5395 6.86598 24.404 13.7581 -2.00153 72.17
1505908 9.36054 31.5395 6.86598 24.404 13.7581 -2.00153 72.17
1505918 9.40444 31.6367 6.89691 24.3358 13.7225 -2.03568 72.2739
1505931 9.45713 31.7243 6.87629 24.2481 13.7053 -2.08634 72.3058
1505938 9.45713 31.7243 6.87629 24.2481 13.7053 -2.08634 72.3058
1505950 9.53616 31.7826 6.87629 24.1117 13.6508 -2.1431 72.3068
1505959 9.64153 31.8701 6.81443 23.9169 13.6107 -2.23835 72.243
1505975 9.64153 31.8701 6.81443 23.9169 13.6107 -2.23835 72.243
1505979 9.79959 31.8604 6.84536 23.7318 13.479 -2.30134 72.2372
1505990 9.79959 31.8604 6.84536 23.7318 13.479 -2.30134 72.2372
1505999 9.84349 32.016 6.82474 23.6441 13.4774 -2.36228 72.3284
1506009 10.0542 32.123 6.92783 23.4785 13.3017 -2.43255 72.5836
1506022 10.0542 32.123 6.92783 23.4785 13.3017 -2.43255 72.5836
1506032 10.2913 32.1522 6.90722 23.2934 13.1625 -2.52798 72.6441
1506045 10.5723 32.1716 7.02062 23.0206 12.9145 -2.61785 72.7852
1506050 10.5723 32.1716 7.02062 23.0206 12.9145 -2.61785 72.7852
1506060 10.9499 32.3078 7.04124 22.6407 12.6671 -2.79185 72.9396
1506070 10.9499 32.3078 7.04124 22.6407 12.6671 -2.79185 72.9396
1506080 11.3275 32.2494 7.08247 22.2218 12.3699 -2.93752 72.8812
1506093 11.6787 32.2981 7.17526 21.7736 12.0732 -3.09107 72.9257
1506100 11.6787 32.2981 7.17526 21.7736 12.0732 -3.09107 72.9257
1506110 12.2231 32.123 7.24742 21.2183 11.6295 -3.27152 72.8119
1506120 12.6095 31.8507 7.40206 20.7312 11.2167 -3.37363 72.5935
1506129 12.6095 31.8507 7.40206 20.7312 11.2167 -3.37363 72.5935
1506141 13.0486 31.6854 7.5567 20.1857 10.7848 -3.51664 72.4763
1506149 13.0486 31.6854 7.5567 20.1857 10.7848 -3.51664 72.4763
1506164 13.4174 31.4325 7.60825 19.7375 10.4385 -3.6368 72.1956
1506169 13.8125 31.1505 7.83505 19.114 9.94859 -3.75748 71.912
1506179 13.8125 31.1505 7.83505 19.114 9.94859 -3.75748 71.912
1506190 14.3394 30.8295 8.13402 18.549 9.36132 -3.85916 71.8519
