8165427 11.0016 8.61051 29.8066 27.0636 -1.67818 7.30721 76.4823
8165437 10.429 7.92904 30.1905 27.4338 -1.72957 7.75172 75.9824
8165449 9.83005 7.52384 30.7811 27.9209 -1.69823 8.15482 76.0559
8165460 9.83005 7.52384 30.7811 27.9209 -1.69823 8.15482 76.0559
8165467 9.33679 7.00813 31.4997 28.6516 -1.69185 8.58991 76.4962
8165481 8.67617 6.44637 32.4742 29.4407 -1.70805 9.11097 77.0375
8165487 8.67617 6.44637 32.4742 29.4407 -1.70805 9.11097 77.0375
8165497 7.90984 5.88462 33.5373 30.2201 -1.72224 9.66378 77.5519
8165507 7.90984 5.88462 33.5373 30.2201 -1.72224 9.66378 77.5519
8165517 7.09067 5.38732 34 30.7851 -1.59139 10.155 77.2631
8165528 6.28031 4.90845 34 31.4378 -1.28351 10.6195 76.6266
8165538 6.28031 4.90845 34 31.4378 -1.28351 10.6195 76.6266
8165548 5.47876 4.51246 34 31.8372 -1.03162 11.0472 75.8285
8165558 4.7829 4.08884 34 32.0905 -0.868276 11.4495 74.9623
8165569 4.7829 4.08884 34 32.0905 -0.868276 11.4495 74.9623
8165578 4.21917 3.79415 34 32.1977 -0.75033 11.7606 74.211
8165588 4.21917 3.79415 34 32.1977 -0.75033 11.7606 74.211
8165598 3.80518 3.6468 34 32.149 -0.682524 11.9625 73.601
8165608 3.54093 3.5455 34 32.0321 -0.671284 12.0925 73.1185
8165618 3.54093 3.5455 34 32.0321 -0.671284 12.0925 73.1185
8165628 3.47047 3.60076 34 31.8762 -0.683194 12.0919 72.9474
8165639 3.47047 3.62839 34 31.8762 -0.67347 12.0817 72.9751
8165648 3.47047 3.62839 34 31.8762 -0.67347 12.0817 72.9751
8165658 3.62021 3.70206 34 31.886 -0.693975 11.9994 73.2082
8165669 3.62021 3.70206 34 31.886 -0.693975 11.9994 73.2082
8165679 3.76995 3.85861 34 32.188 -0.583668 11.8997 73.8165
8165690 3.91969 3.89545 34 32.4802 -0.51955 11.8443 74.2954
8165699 3.91969 3.89545 34 32.4802 -0.51955 11.8443 74.2954
8165709 3.97254 3.93229 34 32.5679 -0.494257 11.8157 74.4727
8165720 4.05181 3.89545 34 32.5679 -0.532928 11.8004 74.5152
8165732 4.05181 3.89545 34 32.5679 -0.532928 11.8004 74.5152
8165739 4.02539 3.96912 34 32.6264 -0.479056 11.7859 74.6209
8165759 3.94611 3.90466 34 32.5582 -0.498356 11.8347 74.4089
8165773 3.95492 3.92308 34 32.3438 -0.568567 11.8158 74.2218
8165779 3.95492 3.92308 34 32.3438 -0.568567 11.8158 74.2218
8165789 3.89326 3.87703 34 32.2562 -0.594406 11.851 74.0265
8165799 3.8228 3.77573 34 32.1295 -0.650212 11.9082 73.728
8165809 3.8228 3.77573 34 32.1295 -0.650212 11.9082 73.728
8165819 3.73471 3.72048 34 32.0321 -0.674316 11.9565 73.4873
8165829 3.73471 3.72048 34 32.0321 -0.674316 11.9565 73.4873
8165839 3.60259 3.70206 34 32.0418 -0.633535 12.0123 73.3465
8165851 3.58497 3.6468 34 32.1587 -0.606152 12.0438 73.3905
8165859 3.58497 3.6468 34 32.1587 -0.606152 12.0438 73.3905
8165870 3.47047 3.61918 34 32.3049 -0.52675 12.1021 73.3945
8165879 3.47047 3.61918 34 32.3049 -0.52675 12.1021 73.3945
8165891 3.32953 3.56392 34 32.4218 -0.458239 12.1793 73.3152
8165899 3.2943 3.5455 34 32.3926 -0.462994 12.198 73.2324
8165911 3.2943 3.5455 34 32.3926 -0.462994 12.198 73.2324
8165919 3.25026 3.51788 34 32.3926 -0.45784 12.2247 73.1607
8165932 3.17979 3.43499 34 32.2075 -0.527774 12.275 72.8222
8165939 3.17979 3.43499 34 32.2075 -0.527774 12.275 72.8222
8165952 3.13575 3.32449 34 31.9931 -0.627348 12.3251 72.4534
8165959 3.13575 3.32449 34 31.9931 -0.627348 12.3251 72.4534
8165969 3.09171 3.37974 34 31.9444 -0.61021 12.319 72.4159
8165982 3.03005 3.36132 34 31.9542 -0.592496 12.3496 72.3455
8165999 3.02124 3.31528 34 31.9542 -0.605823 12.3704 72.2907
8166010 2.86269 3.23239 34 32.0418 -0.550503 12.4652 72.1369
8166020 2.86269 3.23239 34 32.0418 -0.550503 12.4652 72.1369
8166030 2.84508 3.20477 34 32.0126 -0.564687 12.4814 72.0625
8166040 2.84508 3.20477 34 32.0126 -0.564687 12.4814 72.0625
8166050 2.7658 3.22319 34 31.8957 -0.572762 12.5006 71.8847
8166060 2.81865 3.29686 34 31.9054 -0.561066 12.4526 72.021
8166070 2.81865 3.29686 34 31.9054 -0.561066 12.4526 72.021
8166083 2.81865 3.38895 34 31.8275 -0.556047 12.4148 72.0351
8166090 2.90674 3.35211 34 31.8275 -0.598976 12.3953 72.0864
8166100 2.90674 3.35211 34 31.8275 -0.598976 12.3953 72.0864
8166110 2.88031 3.37053 34 31.8372 -0.580031 12.3987 72.0881
8166120 2.88031 3.37053 34 31.8372 -0.580031 12.3987 72.0881
8166131 2.86269 3.36132 34 31.7398 -0.611955 12.4054 71.9638
8166140 2.95078 3.39816 34 31.8567 -0.587171 12.3621 72.2057
8166150 2.95078 3.39816 34 31.8567 -0.587171 12.3621 72.2057
8166160 2.95959 3.42579 34 31.9347 -0.552796 12.3512 72.32
8166171 2.95959 3.42579 34 31.9347 -0.552796 12.3512 72.32
8166183 2.98601 3.47183 34 31.9152 -0.552344 12.3231 72.373
8166190 3.02124 3.49025 34 31.9054 -0.561178 12.3025 72.4169
8166200 3.02124 3.49025 34 31.9054 -0.561178 12.3025 72.4169
8166211 3.03886 3.50867 34 31.8178 -0.591594 12.2856 72.3653
8166220 3.12694 3.52709 34 31.7983 -0.621642 12.2448 72.4523
8166231 3.12694 3.52709 34 31.7983 -0.621642 12.2448 72.4523
8166240 3.13575 3.60076 34 31.7593 -0.612339 12.2123 72.4958
8166260 3.17098 3.59155 34 31.7983 -0.613675 12.2041 72.5608
8166272 3.17098 3.60076 34 31.8275 -0.600117 12.2017 72.5993
8166284 3.17098 3.60076 34 31.8275 -0.600117 12.2017 72.5993
8166292 3.1886 3.66522 34 31.808 -0.590187 12.1702 72.6618
8166302 3.27668 3.68364 34 31.7593 -0.630412 12.1286 72.7196
8166312 3.27668 3.68364 34 31.7593 -0.630412 12.1286 72.7196
8166321 3.34715 3.73889 34 31.6814 -0.661999 12.0786 72.7674
8166337 3.34715 3.73889 34 31.6814 -0.661999 12.0786 72.7674
8166345 3.39119 3.77573 34 31.6716 -0.667168 12.0482 72.8386
8166354 3.47927 3.85861 34 31.5937 -0.694816 11.9816 72.9316
8166362 3.47927 3.85861 34 31.5937 -0.694816 11.9816 72.9316
8166372 3.59378 3.9415 34 31.4378 -0.758657 11.9022 72.9731
8166382 3.75233 4.12568 34 31.204 -0.828741 11.7661 73.082
8166393 3.75233 4.12568 34 31.204 -0.828741 11.7661 73.082
8166402 4.06062 4.39274 34 30.9117 -0.939184 11.5433 73.3651
8166412 4.06062 4.39274 34 30.9117 -0.939184 11.5433 73.3651
8166422 4.5715 4.87161 34 30.4441 -1.1016 11.1659 73.8872
8166432 5.28497 5.5623 34 29.4797 -1.42715 10.6218 74.3269
8166442 5.28497 5.5623 34 29.4797 -1.42715 10.6218 74.3269
8166452 6.59741 6.96208 33.1141 28.1158 -1.5489 9.56092 74.7893
8166462 8.74663 9.13543 30.9977 26.1576 -1.48303 7.85073 75.0373
8166473 8.74663 9.13543 30.9977 26.1576 -1.48303 7.85073 75.0373
8166482 11.4508 11.5574 28.6057 23.9559 -1.50297 5.86611 75.5697
8166492 11.4508 11.5574 28.6057 23.9559 -1.50297 5.86611 75.5697
8166503 13.3269 13.3256 26.3909 22.0075 -1.4606 4.34621 75.0508
8166512 14.8332 14.8174 24.5796 20.4 -1.40538 3.08099 74.6302
8166523 14.8332 14.8174 24.5796 20.4 -1.40538 3.08099 74.6302
8166532 16.3218 16.3093 22.9554 18.7244 -1.42762 1.82652 74.3109
8166542 17.7673 17.8072 21.4493 17.1559 -1.43353 0.612844 74.1797
8166563 19.0029 19.1104 20.1204 15.715 -1.45302 -0.462055 73.9488
8166573 19.0029 19.1104 20.1204 15.715 -1.45302 -0.462055 73.9488
8166583 20.0592 20.2677 18.9589 14.4395 -1.46179 -1.40966 73.7254
8166593 21.0258 21.2792 17.8859 13.4306 -1.42688 -2.23884 73.6215
8166604 21.0258 21.2792 17.8859 13.4306 -1.42688 -2.23884 73.6215
8166613 21.8927 21.9891 17.1477 12.6596 -1.48993 -2.865 73.6891
8166623 22.5305 22.524 16.345 12.0789 -1.45365 -3.395 73.4784
8166634 22.5305 22.524 16.345 12.0789 -1.45365 -3.395 73.4784
8166643 23.4074 23.0978 15.8875 11.5935 -1.55553 -3.85699 73.9862
8166654 23.4074 23.0978 15.8875 11.5935 -1.55553 -3.85699 73.9862
8166663 24.1249 23.6424 15.2324 11.1461 -1.54044 -4.32703 74.1459
8166675 24.9121 24.2551 14.7749 10.6892 -1.58867 -4.76402 74.6314
8166683 24.9121 24.2551 14.7749 10.6892 -1.58867 -4.76402 74.6314
8166693 25.7691 24.9067 14.2239 10.1277 -1.65223 -5.26294 75.0273
8166715 26.4865 24.9067 13.6624 9.54703 -1.90849 -5.66679 74.6027
8166731 26.4865 25.4708 13.6624 9.54703 -1.70656 -5.73683 75.1668
8166733 26.9648 25.782 13.1841 9.09966 -1.75503 -6.09013 75.0306
8166734 26.9648 25.782 13.1841 9.09966 -1.75503 -6.09013 75.0306
8166743 27.2638 26.0641 12.5394 8.6047 -1.72362 -6.48238 74.472
8166753 27.493 26.2683 12.0196 8.22396 -1.69592 -6.79369 74.0048
8166763 27.493 26.2683 12.0196 8.22396 -1.69592 -6.79369 74.0048
8166773 27.6823 26.3558 11.7388 7.93841 -1.73875 -6.99194 73.7154
8166783 27.6823 26.3558 11.7388 7.93841 -1.73875 -6.99194 73.7154
8166793 27.7222 26.4336 11.3957 7.70997 -1.69744 -7.17637 73.2615
8166803 27.6923 26.4823 11.3541 7.66237 -1.6743 -7.2054 73.191
8166814 27.6923 26.4823 11.3541 7.66237 -1.6743 -7.2054 73.191
8166825 27.5129 26.21 11.4373 7.70045 -1.72926 -7.12012 72.8606
8166834 27.3535 26.1224 11.718 7.8813 -1.73375 -6.95377 73.0752
8166854 27.2737 26.0446 12.1339 8.19541 -1.75418 -6.71895 73.6477
8166874 27.194 26.0835 12.6538 8.51904 -1.76133 -6.46834 74.4504
8166885 27.2837 26.2002 13.0073 8.83315 -1.745 -6.30143 75.3244
8166894 27.2837 26.2002 13.0073 8.83315 -1.745 -6.30143 75.3244
8166905 27.1641 26.0933 13.3505 9.05207 -1.77414 -6.11715 75.6599
8166917 27.1641 26.0738 13.548 9.18533 -1.79443 -6.02292 75.9713
8166924 27.1641 26.0738 13.548 9.18533 -1.79443 -6.02292 75.9713
8166934 27.0844 25.9474 13.7664 9.28051 -1.84772 -5.91196 76.0787
8166944 27.0844 25.9474 13.7664 9.28051 -1.84772 -5.91196 76.0787
8166954 27.0246 25.7723 13.8287 9.29003 -1.90706 -5.86403 75.9157
8166964 26.9549 25.6264 13.7664 9.18533 -1.95592 -5.88411 75.533
8166974 26.9549 25.6264 13.7664 9.18533 -1.95592 -5.88411 75.533
8166993 26.9947 25.5 13.6832 9.1187 -2.01178 -5.91517 75.2966
8166996 27.1143 25.5486 13.496 8.8617 -2.0661 -6.05937 75.0207
8167005 27.1143 25.5486 13.496 8.8617 -2.0661 -6.05937 75.0207
8167018 27.0744 25.5389 13.3713 8.69037 -2.08116 -6.13694 74.675
8167026 27.0744 25.5389 13.3713 8.69037 -2.08116 -6.13694 74.675
8167035 26.925 25.3152 13.2777 8.61422 -2.11555 -6.14072 74.1321
8167045 26.9947 25.1985 13.3193 8.58567 -2.2031 -6.13139 74.0982
8167065 27.0147 25.1304 13.4232 8.58567 -2.26616 -6.096 74.154
8167075 27.0346 25.004 13.5376 8.69989 -2.31175 -6.01831 74.2761
8167085 27.0346 25.004 13.5376 8.69989 -2.31175 -6.01831 74.2761
8167095 27.0346 24.9359 13.7872 8.87122 -2.34983 -5.89158 74.6289
8167115 26.7855 24.897 13.9847 9.02352 -2.29266 -5.7586 74.6907
8167126 26.636 24.7706 14.359 9.24244 -2.32707 -5.56043 75.008
8167136 26.636 24.7706 14.359 9.24244 -2.32707 -5.56043 75.008
8167146 26.337 24.5955 14.7021 9.39474 -2.34872 -5.36503 75.0295
8167156 26.0082 24.3135 15.0141 9.64222 -2.35621 -5.13459 74.978
8167167 26.0082 24.3135 15.0141 9.64222 -2.35621 -5.13459 74.978
8167177 25.6794 24.0801 15.3468 9.90873 -2.34531 -4.89981 75.015
8167187 25.6794 24.0801 15.3468 9.90873 -2.34531 -4.89981 75.015
8167197 25.2907 23.6424 15.8459 10.2324 -2.42023 -4.57029 75.0114
8167207 24.8224 23.2534 16.3969 10.6321 -2.44117 -4.20347 75.1049
8167217 24.8224 23.2534 16.3969 10.6321 -2.44117 -4.20347 75.1049
8167229 24.2544 22.7088 17.0394 11.0414 -2.51303 -3.77426 75.044
8167237 23.5469 22.0961 17.7875 11.5174 -2.57543 -3.2699 74.9479
8167251 23.5469 22.0961 17.7875 11.5174 -2.57543 -3.2699 74.9479
8167257 22.7198 21.4153 18.7226 12.2788 -2.57807 -2.62196 75.1366
8167267 22.7198 21.4153 18.7226 12.2788 -2.57807 -2.62196 75.1366
8167277 21.7632 20.6957 19.7464 13.0974 -2.56183 -1.91528 75.3027
8167287 20.7567 19.9565 20.7898 14.0302 -2.50214 -1.17032 75.5333
8167297 20.7567 19.9565 20.7898 14.0302 -2.50214 -1.17032 75.5333
8167307 19.8001 19.2174 21.9415 14.9155 -2.50703 -0.427127 75.8745
8167319 19.8001 19.2174 21.9415 14.9155 -2.50703 -0.427127 75.8745
8167327 18.983 18.3421 22.857 15.8292 -2.5222 0.268598 76.0113
8167342 18.1659 17.5252 23.7823 16.6669 -2.54667 0.937366 76.1402
8167347 18.1659 17.5252 23.7823 16.6669 -2.54667 0.937366 76.1402
8167357 17.3787 16.6224 24.5206 17.3215 -2.62229 1.55076 75.8431
8167367 16.6036 15.7107 25.3966 18.1106 -2.69677 2.21432 75.8216
8167377 16.6036 15.7107 25.3966 18.1106 -2.69677 2.21432 75.8216
8167388 15.9342 14.6793 26.2629 19.0458 -2.78967 2.90334 75.9222
8167397 15.9342 14.6793 26.2629 19.0458 -2.78967 2.90334 75.9222
8167411 15.1326 13.5926 27.139 20.1175 -2.81696 3.65835 75.9817
8167417 14.2694 12.5336 28.2415 21.1404 -2.89982 4.44554 76.1849
8167427 14.2694 12.5336 28.2415 21.1404 -2.89982 4.44554 76.1849
8167438 13.3093 11.4377 29.4818 22.1633 -3.00753 5.28158 76.3921
8167448 12.1554 10.3142 31.0174 23.5272 -3.02912 6.24721 77.0142
8167459 12.1554 10.3142 31.0174 23.5272 -3.02912 6.24721 77.0142
8167468 10.9575 9.19068 32.7203 24.706 -3.15218 7.20819 77.5745
8167488 9.60984 8.07638 34 25.8946 -3.10609 8.16085 77.5808
8167498 8.49119 7.06338 34 26.7908 -2.82826 8.88782 76.3454
8167509 8.49119 7.06338 34 26.7908 -2.82826 8.88782 76.3454
8167518 7.5487 6.32665 34 27.3461 -2.61758 9.4662 75.2215
8167530 6.70311 5.62676 34 27.7845 -2.45965 10.0091 74.1144
8167553 6.04249 5.13868 34 28.1352 -2.308 10.4248 73.3164
8167559 6.04249 5.13868 34 28.1352 -2.308 10.4248 73.3164
8167569 5.49637 4.77031 34 28.067 -2.30149 10.742 72.3337
8167581 5.24093 4.61376 34 28.0476 -2.28769 10.8883 71.9023
8167589 5.24093 4.61376 34 28.0476 -2.28769 10.8883 71.9023
8167599 5.28497 4.59534 34 28.0573 -2.30489 10.8796 71.9376
8167609 5.36425 4.60455 34 28.1352 -2.29684 10.8523 72.104
8167619 5.36425 4.60455 34 28.1352 -2.29684 10.8523 72.104
8167634 5.58446 4.73348 34 28.3398 -2.24035 10.7398 72.6578
8167639 5.58446 4.73348 34 28.3398 -2.24035 10.7398 72.6578
8167649 5.61969 4.69664 34 28.5152 -2.19955 10.7506 72.8315
8167660 5.76062 4.73348 34 28.6126 -2.19355 10.6937 73.1067
8167669 5.76062 4.73348 34 28.6126 -2.19355 10.6937 73.1067
8167679 5.8487 4.7519 34 28.7782 -2.15273 10.6661 73.3788
8167689 5.91036 4.77952 34 28.8659 -2.12931 10.6401 73.5558
8167700 5.91036 4.77952 34 28.8659 -2.12931 10.6401 73.5558
8167709 5.9456 4.80715 34 28.8562 -2.13367 10.6176 73.6089
8167721 5.9456 4.80715 34 28.8562 -2.13367 10.6176 73.6089
8167729 5.91036 4.72427 34 28.9244 -2.12814 10.6628 73.559
8167743 5.79586 4.66901 34 29.0023 -2.08411 10.7267 73.4672
8167767 5.7342 4.66901 34 29.1289 -2.01825 10.7556 73.5322
8167769 5.59326 4.51246 34 29.4407 -1.9172 10.8778 73.5464
8167779 5.59326 4.51246 34 29.4407 -1.9172 10.8778 73.5464
8167789 5.38187 4.40195 34 29.655 -1.8127 11.0033 73.4388
8167810 5.34663 4.40195 34 29.8986 -1.71293 11.0289 73.6471
8167819 5.24974 4.38353 34 30.0544 -1.63249 11.0781 73.6877
8167831 5.24974 4.38353 34 30.0544 -1.63249 11.0781 73.6877
8167840 5.12642 4.39274 34 30.1811 -1.5443 11.1252 73.7003
8167850 5.04715 4.33749 34 30.3175 -1.48984 11.18 73.7021
8167862 5.04715 4.33749 34 30.3175 -1.48984 11.18 73.7021
8167870 5.00311 4.29144 34 30.3564 -1.47833 11.2141 73.651
8167880 5.00311 4.29144 34 30.3564 -1.47833 11.2141 73.651
8167891 4.87979 4.27302 34 30.4246 -1.421 11.2681 73.5775
8167901 4.87979 4.23619 34 30.4734 -1.41673 11.2837 73.5893
8167910 4.87979 4.23619 34 30.4734 -1.41673 11.2837 73.5893
8167920 4.80052 4.21777 34 30.6487 -1.33508 11.3274 73.667
8167930 4.74767 4.21777 34 30.6779 -1.30764 11.3478 73.6434
8167941 4.74767 4.21777 34 30.6779 -1.30764 11.3478 73.6434
8167951 4.77409 4.22698 34 30.7559 -1.28504 11.3389 73.7569
8167961 4.77409 4.22698 34 30.7559 -1.28504 11.3389 73.7569
8167970 4.73005 4.23619 34 30.8338 -1.23986 11.3552 73.8
8167980 4.74767 4.27302 34 30.9117 -1.20478 11.3396 73.9324
8167991 4.74767 4.27302 34 30.9117 -1.20478 11.3396 73.9324
8168000 4.73886 4.38353 34 30.9799 -1.13876 11.3068 74.1023
8168010 4.73886 4.38353 34 30.9799 -1.13876 11.3068 74.1023
8168020 4.6772 4.23619 34 31.0481 -1.14684 11.3846 73.9615
8168031 4.70363 4.37432 34 31.0968 -1.08947 11.3284 74.1748
8168040 4.70363 4.37432 34 31.0968 -1.08947 11.3284 74.1748
8168050 4.69482 4.36511 34 31.1163 -1.08302 11.3358 74.1763
8168065 4.6772 4.3559 34 31.165 -1.06346 11.3477 74.1982
8168070 4.6772 4.3559 34 31.165 -1.06346 11.3477 74.1982
8168080 4.68601 4.448 34 31.165 -1.03399 11.3119 74.299
8168090 4.68601 4.448 34 31.165 -1.03399 11.3119 74.299
8168100 4.70363 4.42037 34 31.1456 -1.05619 11.3145 74.2695
8168110 4.75648 4.41116 34 31.2625 -1.03549 11.3049 74.4301
8168126 4.75648 4.41116 34 31.2625 -1.03549 11.3049 74.4301
8168131 4.87098 4.60455 34 31.2527 -1.00822 11.196 74.7283
8168140 4.92383 4.61376 34 31.1456 -1.05931 11.1688 74.6832
8168151 4.92383 4.61376 34 31.1456 -1.05931 11.1688 74.6832
8168163 5.00311 4.67822 34 31.165 -1.05544 11.1195 74.8464
8168172 5.00311 4.67822 34 31.165 -1.05544 11.1195 74.8464
8168180 5.10881 4.77952 34 31.0384 -1.09804 11.0408 74.9267
8168195 5.19689 4.89003 34 30.863 -1.14871 10.9625 74.95
8168202 5.19689 4.89003 34 30.863 -1.14871 10.9625 74.95
8168212 5.40829 4.93608 34 30.7364 -1.24394 10.8667 75.0808
8168222 5.54041 5.04659 34 30.6487 -1.27769 10.7785 75.2357
8168232 5.54041 5.04659 34 30.6487 -1.27769 10.7785 75.2357
8168242 5.76062 5.31365 34 30.3759 -1.34892 10.5967 75.4502
8168251 5.76062 5.31365 34 30.3759 -1.34892 10.5967 75.4502
8168269 6.11295 5.47941 34 30.0739 -1.50649 10.4039 75.6663
8168282 6.47409 5.8662 34 29.8109 -1.57483 10.1385 76.1512
8168284 6.47409 5.8662 34 29.8109 -1.57483 10.1385 76.1512
8168292 6.92332 6.26219 33.7441 29.4797 -1.61157 9.82307 76.4092
8168302 7.37254 4.31907 33.0944 28.9341 -2.44633 10.2422 73.7201
8168312 7.37254 6.6766 33.0944 28.9341 -1.59581 9.45995 76.0776
8168322 7.96269 7.21073 32.297 28.2229 -1.59396 8.98623 75.6934
8168332 7.96269 7.21073 32.297 28.2229 -1.59396 8.98623 75.6934
8168342 8.7114 7.92904 31.3619 27.3266 -1.59886 8.3729 75.329
8168352 9.72435 9.02492 30.1413 26.2258 -1.53593 7.51191 75.1163
8168372 10.9223 10.2589 28.9797 24.8716 -1.58979 6.53119 75.0326
8168383 10.9223 10.2589 28.9797 24.8716 -1.58979 6.53119 75.0326
8168392 12.1026 11.3364 27.7197 23.537 -1.65638 5.58621 74.6957
8168404 13.2301 12.4691 26.5779 22.4264 -1.64398 4.67952 74.7034
8168412 13.2301 12.4691 26.5779 22.4264 -1.64398 4.67952 74.7034
8168426 14.2959 13.5466 25.5246 21.2768 -1.67364 3.80988 74.6438
8168432 15.4057 14.6148 24.3434 20.0688 -1.70136 2.90026 74.4327
8168442 15.4057 14.6148 24.3434 20.0688 -1.70136 2.90026 74.4327
8168452 16.7974 15.8673 22.9751 18.6562 -1.76627 1.81031 74.296
8168462 16.7974 15.8673 22.9751 18.6562 -1.76627 1.81031 74.296
8168474 18.2356 17.3112 21.5182 17.0585 -1.81596 0.613132 74.1236
8168482 19.8101 18.7797 20.0515 15.4866 -1.88704 -0.617528 74.1279
8168492 19.8101 18.7797 20.0515 15.4866 -1.88704 -0.617528 74.1279
8168502 21.3048 20.365 18.6144 13.9541 -1.88585 -1.83895 74.2382
8168512 22.381 21.4153 17.3741 12.6501 -1.92686 -2.79846 73.8205
8168522 22.381 21.4153 17.3741 12.6501 -1.92686 -2.79846 73.8205
8168534 23.238 22.242 16.3969 11.6982 -1.935 -3.5443 73.5751
8168543 23.238 22.242 16.3969 11.6982 -1.935 -3.5443 73.5751
8168555 24.1249 23.0297 15.5755 10.9367 -1.94589 -4.20318 73.6669
8168563 25.1413 23.8759 14.8269 10.3656 -1.92923 -4.81567 74.2097
8168577 25.1413 23.8759 14.8269 10.3656 -1.92923 -4.81567 74.2097
8168583 26.0879 24.7025 14.1407 9.69933 -1.95187 -5.41678 74.6304
8168593 26.9449 25.5389 13.3713 9.02352 -1.92102 -6.02756 74.8786
8168613 27.8517 26.2683 12.685 8.47144 -1.92523 -6.5685 75.2765
8168623 27.8517 26.2683 12.685 8.47144 -1.92523 -6.5685 75.2765
8168633 28.4297 26.6379 12.1339 7.90034 -2.00574 -6.99715 75.1018
8168643 28.8382 26.8907 11.6349 7.50056 -2.03093 -7.33196 74.8644
8168653 28.8382 26.8907 11.6349 7.50056 -2.03093 -7.33196 74.8644
8168663 29.2169 27.0658 11.2294 7.16741 -2.0799 -7.6097 74.6794
8168673 29.2169 27.0658 11.2294 7.16741 -2.0799 -7.6097 74.6794
8168683 29.4162 27.2408 10.8343 6.93897 -2.03903 -7.83629 74.4302
8168693 29.7649 27.3381 10.6263 6.7486 -2.11625 -8.00132 74.478
8168705 29.7649 27.3381 10.6263 6.7486 -2.11625 -8.00132 74.478
8168713 30.0639 27.5132 10.3872 6.48208 -2.16794 -8.20212 74.4463
8168723 30.2333 27.6104 10.0752 6.31075 -2.15122 -8.37759 74.2297
8168733 30.2333 27.6104 10.0752 6.31075 -2.15122 -8.37759 74.2297
8168743 30.4426 27.6785 9.91927 6.11086 -2.2159 -8.51455 74.1512
8168753 30.4426 27.6785 9.91927 6.11086 -2.2159 -8.51455 74.1512
8168763 30.5821 27.4159 9.7945 5.91097 -2.39123 -8.6073 73.7034
8168774 30.7614 27.3284 9.73211 5.82531 -2.49156 -8.66273 73.6472
8168783 30.7614 27.3284 9.73211 5.82531 -2.49156 -8.66273 73.6472
8168793 30.8113 27.3478 9.62813 5.71109 -2.51042 -8.73895 73.4983
8168803 30.8511 27.2506 9.64893 5.74916 -2.55113 -8.71505 73.4998
8168816 30.8511 27.2506 9.64893 5.74916 -2.55113 -8.71505 73.4998
8168823 30.9308 27.27 9.82569 5.83483 -2.58987 -8.63923 73.8614
8168833 30.9308 27.27 9.82569 5.83483 -2.58987 -8.63923 73.8614
8168843 30.9906 27.3478 9.83609 5.78723 -2.59987 -8.66295 73.9618
8168853 30.9607 27.4645 9.87768 5.88242 -2.52457 -8.62674 74.1853
8168863 30.9607 27.4645 9.87768 5.88242 -2.52457 -8.62674 74.1853
8168873 31.0106 27.5229 9.95046 5.90146 -2.53298 -8.60684 74.3854
8168891 30.9906 27.5229 9.97125 5.90146 -2.53324 -8.59853 74.3862
8168900 30.9906 27.4743 9.97125 5.90146 -2.55125 -8.59434 74.3376
8168917 31.0903 27.5521 10.0544 6.04423 -2.52486 -8.53822 74.741
8168924 31.1999 27.6007 10.1376 6.03471 -2.56829 -8.52873 74.9729
8168934 31.2198 27.659 10.096 6.10134 -2.51593 -8.52763 75.0762
8168944 31.2198 27.659 10.096 6.10134 -2.51593 -8.52763 75.0762
8168954 31.3095 27.659 10.1272 6.12038 -2.5451 -8.51964 75.2161
8168966 31.3095 27.659 10.1272 6.12038 -2.5451 -8.51964 75.2161
8168975 31.2397 27.5618 10.0856 6.1299 -2.54398 -8.51526 75.0171
8168986 31.2896 27.4937 10.0232 6.07279 -2.58627 -8.55121 74.8793
8168995 31.2896 27.4937 10.0232 6.07279 -2.58627 -8.55121 74.8793
8169007 31.1999 27.3089 10.0544 5.98712 -2.66875 -8.54468 74.5504
8169014 31.0703 27.1922 10.0128 5.99664 -2.65724 -8.53344 74.272
8169026 31.0703 27.1922 10.0128 5.99664 -2.65724 -8.53344 74.272
8169034 31.0504 27.1047 9.94006 5.99664 -2.66195 -8.54718 74.0918
8169046 31.0504 27.1047 9.94006 5.99664 -2.66195 -8.54718 74.0918
8169059 31.0504 27.1241 9.97125 5.96809 -2.67475 -8.54804 74.1139
8169067 31.2298 27.1922 9.98165 6.00616 -2.6922 -8.55415 74.4098
8169074 31.2298 27.1922 9.98165 6.00616 -2.6922 -8.55415 74.4098
8169084 31.17 27.1922 10.0024 5.93953 -2.70533 -8.56349 74.3042
8169094 31.1401 27.1436 9.94006 6.00616 -2.67089 -8.55534 74.2299
8169105 31.1401 27.1436 9.94006 6.00616 -2.67089 -8.55534 74.2299
8169115 31.1401 27.0366 9.94006 5.99664 -2.71439 -8.54906 74.1134
8169125 31.1401 27.0366 9.94006 5.99664 -2.71439 -8.54906 74.1134
8169135 31.0504 26.9394 9.99205 6.04423 -2.72163 -8.50109 74.0261
8169145 31.1102 26.988 10.0336 6.07279 -2.72324 -8.48837 74.2046
8169158 31.1102 26.988 10.0336 6.07279 -2.72324 -8.48837 74.2046
8169165 30.9607 26.8518 10.0648 6.11086 -2.72437 -8.44125 73.9883
8169175 30.9308 26.8227 10.1168 6.21557 -2.70275 -8.38644 74.0859
8169186 30.9308 26.8227 10.1168 6.21557 -2.70275 -8.38644 74.0859
8169195 30.891 26.8227 10.2624 6.28219 -2.70964 -8.31606 74.2582
8169205 30.891 26.8227 10.2624 6.28219 -2.70964 -8.31606 74.2582
8169215 30.7216 26.7449 10.4183 6.40594 -2.68847 -8.20603 74.2907
8169225 30.5721 26.6281 10.6575 6.56775 -2.69857 -8.05672 74.4255
8169245 30.3329 26.4628 10.7927 6.75812 -2.65805 -7.91798 74.3465
8169257 29.8646 26.2391 11.0734 7.04367 -2.57852 -7.67709 74.2208
8169265 29.8646 26.2391 11.0734 7.04367 -2.57852 -7.67709 74.2208
8169278 29.5457 25.9765 11.5101 7.41489 -2.57376 -7.3738 74.4473
8169285 29.5457 25.9765 11.5101 7.41489 -2.57376 -7.3738 74.4473
8169296 29.1172 25.6945 11.9988 7.87178 -2.52728 -7.01796 74.6823
8169307 28.4894 25.2471 12.633 8.48096 -2.46971 -6.53754 74.8506
8169315 28.4894 25.2471 12.633 8.48096 -2.46971 -6.53754 74.8506
8169327 27.7022 24.7025 13.3401 9.24244 -2.36618 -5.96546 74.9873
8169335 26.8453 24.0412 14.4838 10.1753 -2.35375 -5.2076 75.5455
8169350 26.8453 24.0412 14.4838 10.1753 -2.35375 -5.2076 75.5455
8169356 26.0381 23.2923 15.7003 11.4031 -2.30361 -4.36201 76.4339
8169377 25.0615 22.5143 16.896 12.5929 -2.22226 -3.52045 77.0648
8169387 24.0551 21.532 17.9548 13.7066 -2.19139 -2.70407 77.2486
8169407 22.7796 20.3261 19.0081 14.8679 -2.14134 -1.79843 76.9817
8169418 21.3347 19.0326 20.1401 16.1433 -2.05441 -0.799179 76.6508
8169439 19.83 17.5933 21.3312 17.4871 -1.99395 0.274469 76.2416
8169448 19.83 17.5933 21.3312 17.4871 -1.99395 0.274469 76.2416
8169459 18.2655 16.2264 22.6601 18.9776 -1.87888 1.40795 76.1297
8169468 16.7974 14.8727 23.9102 20.4487 -1.77111 2.50342 76.0291
8169480 16.7974 14.8727 23.9102 20.4487 -1.77111 2.50342 76.0291
8169488 15.4762 13.4361 25.4852 21.9587 -1.82257 3.64052 76.3562
8169502 14.2078 12.1192 26.9519 23.498 -1.80476 4.71294 76.7769
8169510 14.2078 12.1192 26.9519 23.498 -1.80476 4.71294 76.7769
8169518 13.142 10.9772 28.2316 24.8716 -1.78857 5.62997 77.2225
8169528 13.142 10.9772 28.2316 24.8716 -1.78857 5.62997 77.2225
8169538 12.1995 9.93662 29.1766 25.9627 -1.77182 6.40629 77.2755
8169554 11.5389 9.17226 29.7771 26.8883 -1.698 6.96999 77.3764
8169559 11.5389 9.17226 29.7771 26.8883 -1.698 6.96999 77.3764
8169572 11.0104 8.54605 30.1118 27.3851 -1.68422 7.38589 77.0533
8169579 10.5347 8.13164 30.348 27.7066 -1.64378 7.70094 76.7209
8169594 10.5347 8.13164 30.348 27.7066 -1.64378 7.70094 76.7209
8169599 10.1648 7.82774 30.6728 28.067 -1.61041 7.96549 76.7324
8169609 10.1648 7.82774 30.6728 28.067 -1.61041 7.96549 76.7324
8169621 9.69793 7.43174 30.8894 28.2327 -1.61404 8.26061 76.2517
8169629 9.48653 7.21073 31.0567 28.3788 -1.62668 8.42047 76.1328
8169649 9.17824 7.10022 31.3816 28.4957 -1.62953 8.58743 76.1557
8169659 8.93161 6.93445 31.6671 28.6808 -1.63468 8.75466 76.2139
8169670 8.93161 6.93445 31.6671 28.6808 -1.63468 8.75466 76.2139
8169679 8.80829 6.82394 31.982 28.7685 -1.70127 8.8603 76.3828
8169689 8.80829 6.82394 31.982 28.7685 -1.70127 8.8603 76.3828
8169699 8.59689 6.70423 32.2281 28.8367 -1.72987 8.98903 76.3659
8169711 8.5 6.62134 32.7302 29.051 -1.80677 9.1011 76.9025
8169722 8.5 6.62134 32.7302 29.051 -1.80677 9.1011 76.9025
8169735 8.1829 6.38191 33.1239 29.2751 -1.83523 9.32273 76.9638
8169739 7.85699 6.08722 33.6259 29.5576 -1.89236 9.57619 77.1277
8169749 7.85699 6.08722 33.6259 29.5576 -1.89236 9.57619 77.1277
8169759 7.44301 5.73727 34 29.7524 -1.93458 9.86034 76.9327
8169780 6.99378 5.44258 34 29.9473 -1.83414 10.1156 76.3836
8169791 6.47409 5.17551 34 30.3077 -1.64265 10.3989 75.9573
8169804 6.47409 5.17551 34 30.3077 -1.64265 10.3989 75.9573
8169811 6.07772 4.82557 34 30.7364 -1.49252 10.6756 75.6397
8169826 5.5228 4.52167 34 31.1748 -1.27173 10.9939 75.2193
8169840 5.11762 4.23619 34 31.3989 -1.1647 11.2461 74.7527
8169851 5.11762 4.23619 34 31.3989 -1.1647 11.2461 74.7527
8169860 4.6772 4.00596 34 31.5352 -1.05634 11.4902 74.2184
8169874 4.40415 3.85861 34 31.6424 -0.982046 11.6459 73.9052
8169880 4.40415 3.85861 34 31.6424 -0.982046 11.6459 73.9052
8169896 4.06062 3.72048 34 31.6814 -0.904804 11.8224 73.4625
8169900 3.80518 3.66522 34 31.6619 -0.847118 11.9355 73.1323
8169910 3.80518 3.66522 34 31.6619 -0.847118 11.9355 73.1323
8169921 3.75233 3.61918 34 31.7496 -0.814946 11.9756 73.1211
8169930 3.75233 3.61918 34 31.7496 -0.814946 11.9756 73.1211
8169942 3.53212 3.51788 34 31.9152 -0.719199 12.1014 72.9652
8169952 3.45285 3.58234 34 32.1685 -0.581266 12.1169 73.2037
8169964 3.45285 3.58234 34 32.1685 -0.581266 12.1169 73.2037
8169972 3.4 3.56392 34 32.2367 -0.546238 12.146 73.2006
8169987 3.4 3.56392 34 32.2367 -0.546238 12.146 73.2006
8169994 3.45285 3.60997 34 32.3633 -0.503758 12.1143 73.4261
8170002 3.49689 3.60997 34 32.49 -0.47453 12.1031 73.5968
8170012 3.49689 3.60997 34 32.49 -0.47453 12.1031 73.5968
8170022 3.41762 3.61918 34 32.5874 -0.411227 12.1327 73.6242
8170032 3.47047 3.60997 34 32.5874 -0.432044 12.1166 73.6678
8170042 3.47047 3.60997 34 32.5874 -0.432044 12.1166 73.6678
8170052 3.54093 3.60076 34 32.5777 -0.462066 12.0937 73.7193
8170062 3.54093 3.60076 34 32.5777 -0.462066 12.0937 73.7193
8170072 3.47047 3.6468 34 32.5874 -0.419332 12.1031 73.7047
8170082 3.51451 3.68364 34 32.6166 -0.411248 12.0745 73.8148
8170092 3.51451 3.68364 34 32.6166 -0.411248 12.0745 73.8148
8170104 3.5057 3.66522 34 32.5971 -0.421368 12.0837 73.7681
8170122 3.51451 3.70206 34 32.5874 -0.414971 12.0666 73.804
8170132 3.54974 3.72048 34 32.6361 -0.403605 12.0489 73.9063
8170143 3.54974 3.72048 34 32.6361 -0.403605 12.0489 73.9063
8170159 3.56736 3.70206 34 32.49 -0.466153 12.0433 73.7594
8170167 3.59378 3.72969 34 32.5679 -0.438543 12.0267 73.8914
8170177 3.59378 3.72969 34 32.5679 -0.438543 12.0267 73.8914
8170192 3.59378 3.83099 34 32.4997 -0.427154 11.9869 73.9245
8170194 3.69067 3.79415 34 32.4802 -0.478707 11.9642 73.9651
8170203 3.69067 3.79415 34 32.4802 -0.478707 11.9642 73.9651
8170213 3.69067 3.83099 34 32.4705 -0.469373 11.9504 73.9921
8170223 3.69067 3.83099 34 32.4705 -0.469373 11.9504 73.9921
8170233 3.76995 3.82178 34 32.3731 -0.532383 11.9208 73.9648
8170244 3.8228 3.95991 34 32.3633 -0.505613 11.8511 74.146
8170254 3.8228 3.95991 34 32.3633 -0.505613 11.8511 74.146
8170264 3.96373 4.03359 34 32.4023 -0.513394 11.7753 74.3996
8170274 4.02539 4.17172 34 32.3633 -0.499712 11.7018 74.5604
8170284 4.02539 4.17172 34 32.3633 -0.499712 11.7018 74.5604
8170294 4.17513 4.2546 34 32.2367 -0.563791 11.613 74.6664
8170304 4.17513 4.2546 34 32.2367 -0.563791 11.613 74.6664
8170314 4.37772 4.2546 34 32.0321 -0.700139 11.5316 74.6644
8170324 4.5715 4.43879 34 31.8567 -0.760007 11.3895 74.867
8170334 4.5715 4.43879 34 31.8567 -0.760007 11.3895 74.867
8170345 4.92383 4.6598 34 31.4183 -0.948539 11.1666 75.002
8170354 5.4171 5.07421 34 30.7461 -1.19513 10.8167 75.2374
8170364 5.4171 5.07421 34 30.7461 -1.19513 10.8167 75.2374
8170374 6.14819 5.82936 33.5964 29.7914 -1.36795 10.2322 75.3654
8170384 6.14819 5.82936 33.5964 29.7914 -1.36795 10.2322 75.3654
8170394 7.12591 6.82394 32.4939 28.7685 -1.33868 9.43581 75.2122
8170405 8.33264 8.2974 31.3225 27.5702 -1.25378 8.39403 75.5228
8170414 8.33264 8.2974 31.3225 27.5702 -1.25378 8.39403 75.5228
8170424 9.66269 9.89057 30.033 26.0991 -1.22414 7.24952 75.6854
8170434 10.8694 11.2904 28.7238 24.5989 -1.22678 6.19274 75.4824
8170444 10.8694 11.2904 28.7238 24.5989 -1.22678 6.19274 75.4824
8170455 12.1819 12.6994 27.3752 22.9524 -1.29815 5.07515 75.2089
8170469 12.1819 12.6994 27.3752 22.9524 -1.29815 5.07515 75.2089
8170475 13.415 13.8873 26.0759 21.3742 -1.41445 4.04289 74.7524
8170485 14.5161 15.2779 24.8749 19.9032 -1.41137 3.01402 74.572
8170495 14.5161 15.2779 24.8749 19.9032 -1.41137 3.01402 74.572
8170506 15.7492 16.5211 23.5263 18.4126 -1.4627 1.95432 74.2093
8170517 16.7798 17.9142 22.1778 16.9334 -1.39218 0.897735 73.8051
8170525 16.7798 17.9142 22.1778 16.9334 -1.39218 0.897735 73.8051
8170535 18.0463 19.1785 20.9965 15.5056 -1.478 -0.14703 73.7269
8170545 18.0463 19.1785 20.9965 15.5056 -1.478 -0.14703 73.7269
8170557 19.3318 20.4136 19.707 14.2682 -1.47753 -1.17406 73.7206
8170566 20.6471 21.5709 18.6833 13.0594 -1.58872 -2.12453 73.9607
8170585 21.813 22.631 17.63 12.0789 -1.59571 -2.98068 74.153
8170597 22.8294 23.4868 16.7401 11.1176 -1.67345 -3.73284 74.1739
8170607 22.8294 23.4868 16.7401 11.1176 -1.67345 -3.73284 74.1739
8170617 23.806 24.2357 15.9187 10.4703 -1.68567 -4.36367 74.4307
8170637 24.7028 24.8873 15.1804 9.77548 -1.75075 -4.95685 74.546
8170648 25.7392 25.607 14.2239 9.13774 -1.74624 -5.6188 74.7077
8170657 25.7392 25.607 14.2239 9.13774 -1.74624 -5.6188 74.7077
8170667 26.7456 26.1711 13.4648 8.43337 -1.8733 -6.21904 74.8149
8170677 27.6624 26.6865 12.6954 7.90034 -1.92507 -6.75561 74.9446
8170690 27.6624 26.6865 12.6954 7.90034 -1.92507 -6.75561 74.9446
8170697 28.2802 26.9783 12.0924 7.40538 -2.00281 -7.17547 74.7562
8170714 28.2802 26.9783 12.0924 7.40538 -2.00281 -7.17547 74.7562
8170719 28.8781 27.27 11.5309 6.98656 -2.05998 -7.55984 74.6656
8170727 29.2767 27.3186 11.1046 6.54871 -2.19327 -7.86722 74.2486
8170739 29.2767 27.3186 11.1046 6.54871 -2.19327 -7.86722 74.2486
8170747 29.5358 27.2992 10.6575 6.29171 -2.23704 -8.1086 73.7842
8170766 29.5258 27.0852 10.4183 6.05375 -2.32788 -8.23834 73.0831
8170773 29.5258 27.0852 10.4183 6.05375 -2.32788 -8.23834 73.0831
8170779 29.7849 27.0074 10.2416 5.90146 -2.43969 -8.35999 72.9354
8170788 29.7849 27.0074 10.2416 5.90146 -2.43969 -8.35999 72.9354
8170798 29.9941 27.0658 10.0648 5.80627 -2.4636 -8.47146 72.931
8170808 30.2333 27.095 10.096 5.77772 -2.5466 -8.49455 73.202
8170818 30.2333 27.095 10.096 5.77772 -2.5466 -8.49455 73.202
8170834 30.4426 27.1533 10.0544 5.68253 -2.61177 -8.56211 73.3328
8170839 30.7116 27.2214 10.0856 5.68253 -2.67747 -8.58158 73.7012
8170850 30.7116 27.2214 10.0856 5.68253 -2.67747 -8.58158 73.7012
8170859 31.0604 27.3965 10.2416 5.7206 -2.7496 -8.56528 74.419
8170870 31.0604 27.3965 10.2416 5.7206 -2.7496 -8.56528 74.419
8170879 31.2696 27.4354 10.2416 5.73012 -2.79396 -8.58366 74.6767
8170890 31.4291 27.5715 10.2728 5.88242 -2.74361 -8.55131 75.1558
8170899 31.4291 27.5715 10.2728 5.88242 -2.74361 -8.55131 75.1558
8170914 31.5586 27.7466 10.2 5.81579 -2.72044 -8.62099 75.321
8170919 31.6782 27.7855 10.2936 5.80627 -2.77251 -8.60809 75.5635
8170929 31.6782 27.7855 10.2936 5.80627 -2.77251 -8.60809 75.5635
8170942 31.8476 27.9216 10.1792 5.79675 -2.74223 -8.67248 75.7452
8170949 31.8476 27.9216 10.1792 5.79675 -2.74223 -8.67248 75.7452
8170967 31.9472 27.9994 10.0128 5.65398 -2.74643 -8.78412 75.6135
8170970 32.0868 27.8827 9.92966 5.53024 -2.8515 -8.85124 75.4294
8170981 32.0868 27.8827 9.92966 5.53024 -2.8515 -8.85124 75.4294
8170992 32.1166 27.8827 9.7633 5.47312 -2.83246 -8.92453 75.2358
8170999 32.0369 27.6299 9.61774 5.32083 -2.91667 -8.99297 74.6054
8171014 32.0369 27.6299 9.61774 5.32083 -2.91667 -8.99297 74.6054
8171019 32.027 27.5715 9.58654 5.24468 -2.95491 -9.02205 74.4297
8171029 32.027 27.5715 9.58654 5.24468 -2.95491 -9.02205 74.4297
8171039 31.9572 27.484 9.44098 5.21613 -2.93464 -9.06581 74.0983
8171049 31.8277 27.3381 9.3474 5.13046 -2.95562 -9.10219 73.6436
8171059 31.8277 27.3381 9.3474 5.13046 -2.95562 -9.10219 73.6436
8171069 31.8077 27.2214 9.3578 5.24468 -2.95371 -9.05046 73.6316
8171081 31.7081 27.1533 9.48257 5.20661 -3.00158 -9.00854 73.5506
8171090 31.7081 27.1533 9.48257 5.20661 -3.00158 -9.00854 73.5506
8171100 31.7181 27.1241 9.59694 5.32083 -3.00638 -8.93257 73.76
8171110 31.7181 27.1241 9.59694 5.32083 -3.00638 -8.93257 73.76
8171121 31.6184 27.0172 9.7529 5.41601 -3.02764 -8.83415 73.8045
8171130 31.5586 27.0269 9.94006 5.64446 -2.97537 -8.69643 74.17
8171140 31.5586 27.0269 9.94006 5.64446 -2.97537 -8.69643 74.17
8171150 31.5885 26.9005 10.1584 5.86338 -3.01402 -8.5492 74.5108
8171160 31.5885 26.9005 10.1584 5.86338 -3.01402 -8.5492 74.5108
8171170 31.4291 26.9296 10.2936 6.0252 -2.93523 -8.4443 74.6775
8171182 31.2896 26.9394 10.5639 6.30123 -2.86736 -8.26239 75.0941
8171190 31.2896 26.9394 10.5639 6.30123 -2.86736 -8.26239 75.0941
8171201 31.0006 26.8616 10.8239 6.52016 -2.80653 -8.08141 75.2062
8171213 30.592 26.7449 11.1254 6.79619 -2.7161 -7.85599 75.2585
8171222 30.592 26.7449 11.1254 6.79619 -2.7161 -7.85599 75.2585
8171230 30.1436 26.4142 11.4685 7.06271 -2.70852 -7.5963 75.089
8171240 30.1436 26.4142 11.4685 7.06271 -2.70852 -7.5963 75.089
8171250 29.5258 26.0252 11.8324 7.35778 -2.66762 -7.29734 74.7412
8171262 28.6887 25.3347 12.3627 7.92889 -2.61989 -6.80855 74.315
8171270 28.6887 25.3347 12.3627 7.92889 -2.61989 -6.80855 74.315
8171289 27.7819 24.5664 13.0489 8.70941 -2.54873 -6.19175 74.1066
8171294 26.6758 23.7397 14.1823 9.75644 -2.4753 -5.34136 74.3543
8171302 26.6758 23.7397 14.1823 9.75644 -2.4753 -5.34136 74.3543
8171316 25.6794 22.9519 15.4924 11.0605 -2.38059 -4.40488 75.1841
8171322 25.6794 22.9519 15.4924 11.0605 -2.38059 -4.40488 75.1841
8171335 24.6331 22.2614 17.0492 12.4692 -2.27436 -3.41096 76.4129
8171342 23.6465 21.639 18.4175 13.8684 -2.11308 -2.51374 77.5715
8171362 22.4508 20.5595 19.5987 15.0582 -2.0703 -1.61329 77.6672
8171372 21.1653 19.4508 20.7012 16.3242 -1.96143 -0.693706 77.6415
8171392 19.7902 18.1865 21.784 17.5163 -1.89945 0.256941 77.277
8171412 18.2356 16.8619 22.9062 18.6562 -1.83401 1.26497 76.6599
8171425 16.7446 15.4805 24.1465 19.9324 -1.79486 2.33025 76.3039
8171442 15.3176 14.0531 25.4557 21.306 -1.77789 3.42647 76.1324
8171461 14.0756 12.6349 26.7846 22.6894 -1.81663 4.4819 76.1845
8171473 14.0756 12.6349 26.7846 22.6894 -1.81663 4.4819 76.1845
8171478 12.8953 11.364 28.1824 24.1605 -1.81236 5.49922 76.6022
8171485 12.8953 11.364 28.1824 24.1605 -1.81236 5.49922 76.6022
8171494 11.7062 10.0287 29.5014 25.6023 -1.81441 6.51406 76.8387
8171503 10.6845 8.88678 30.7811 26.9175 -1.83167 7.40147 77.2698
8171516 10.6845 8.88678 30.7811 26.9175 -1.83167 7.40147 77.2698
8171523 9.75959 8.02113 31.7753 27.9794 -1.78448 8.12029 77.5354
8171533 8.98446 7.23835 32.6416 28.788 -1.80282 8.73252 77.6524
8171543 8.98446 7.23835 32.6416 28.788 -1.80282 8.73252 77.6524
8171553 8.41192 6.66739 33.1928 29.314 -1.81196 9.16933 77.5862
8171564 7.98912 6.66739 33.2519 29.4212 -1.66573 9.31401 77.3296
8171574 7.98912 6.21614 33.2519 29.4212 -1.82225 9.45673 76.8783
8171584 7.85699 6.03196 33.3011 29.4309 -1.85823 9.56195 76.621
8171595 7.85699 6.03196 33.3011 29.4309 -1.85823 9.56195 76.621
8171605 7.68083 5.82015 33.2125 29.3822 -1.86967 9.67737 76.0957
8171614 7.67202 5.68201 33.3109 29.5381 -1.89062 9.74272 76.2031
8171629 7.67202 5.68201 33.3109 29.5381 -1.89062 9.74272 76.2031
8171634 7.50466 5.60834 33.5767 29.7719 -1.86405 9.85507 76.4616
8171644 7.50466 5.60834 33.8917 29.7719 -1.95897 9.87617 76.7766
8171654 7.31088 5.41495 33.8917 30.1226 -1.84552 10.0251 76.7402
8171664 7.10829 5.2584 34 30.4734 -1.74926 10.1718 76.84
8171684 6.79119 5.08342 34 30.9117 -1.56148 10.3607 76.7864
8171697 6.43005 4.91766 34 31.2332 -1.39694 10.5546 76.5809
8171705 6.43005 4.91766 34 31.2332 -1.39694 10.5546 76.5809
8171716 6.11295 4.71506 34 31.584 -1.24782 10.7488 76.412
8171726 6.11295 4.71506 34 31.584 -1.24782 10.7488 76.412
8171735 5.71658 4.51246 34 31.7398 -1.14004 10.9606 75.9689
8171746 5.33782 4.39274 34 31.9249 -0.997996 11.1415 75.6555
8171755 5.33782 4.39274 34 31.9249 -0.997996 11.1415 75.6555
8171767 5.02953 4.28223 34 32.0516 -0.894246 11.2933 75.3633
8171775 4.8886 4.21777 34 32.0126 -0.88467 11.3632 75.119
8171802 4.91503 4.23619 34 32.149 -0.83992 11.3541 75.3002
8171815 4.9943 4.3467 34 32.3438 -0.760972 11.2974 75.6848
8171826 5.14404 4.43879 34 32.5679 -0.701685 11.2248 76.1507
8171836 5.14404 4.43879 34 32.5679 -0.701685 11.2248 76.1507
8171845 5.11762 4.4572 34 32.8407 -0.595342 11.241 76.4155
8171858 5.01192 4.47562 34 33.0842 -0.47408 11.2829 76.5718
8171865 5.01192 4.47562 34 33.0842 -0.47408 11.2829 76.5718
8171876 5.08238 4.47562 34 33.2206 -0.45134 11.2654 76.7786
8171895 4.95026 4.42037 34 33.3765 -0.37571 11.3371 76.7471
8171907 4.95907 4.4572 34 33.4447 -0.343856 11.3247 76.861
8171917 4.95907 4.4572 34 33.4447 -0.343856 11.3247 76.861
8171927 4.92383 4.42958 34 33.3668 -0.367405 11.3425 76.7202
8171937 4.92383 4.52167 34 33.3473 -0.343423 11.31 76.7928
8171949 4.92383 4.52167 34 33.3473 -0.343423 11.31 76.7928
8171957 4.95026 4.47562 34 33.3473 -0.367106 11.3167 76.7732
8171971 4.95026 4.47562 34 33.3473 -0.367106 11.3167 76.7732
8171977 4.86218 4.42958 34 33.3083 -0.366935 11.3609 76.6001
8171987 4.91503 4.46641 34 33.2888 -0.378172 11.3292 76.6703
8171997 4.91503 4.46641 34 33.2888 -0.378172 11.3292 76.6703
8172008 4.87979 4.4572 34 33.2304 -0.38927 11.3417 76.5674
8172017 4.92383 4.46641 34 33.2206 -0.403593 11.3229 76.6109
8172027 4.92383 4.46641 34 33.2206 -0.403593 11.3229 76.6109
8172037 4.9943 4.49404 34 33.1135 -0.452599 11.284 76.6018
8172047 4.9943 4.49404 34 33.1135 -0.452599 11.284 76.6018
8172057 5.01192 4.5493 33.9705 32.9576 -0.482255 11.25 76.4893
8172067 5.09119 4.63218 33.9212 32.8504 -0.499977 11.1867 76.495
8172079 5.09119 4.63218 33.9212 32.8504 -0.499977 11.1867 76.495
8172088 5.2057 4.77031 33.7638 32.8115 -0.453185 11.0905 76.5512
8172102 5.37306 4.84399 33.6555 32.714 -0.480014 10.9978 76.5866
8172109 5.37306 4.84399 33.6555 32.714 -0.480014 10.9978 76.5866
8172128 5.48756 5.01896 33.4783 32.5679 -0.450337 10.8826 76.5527
8172132 5.48756 5.01896 33.4783 32.5679 -0.450337 10.8826 76.5527
8172138 5.68135 5.12947 33.3503 32.5192 -0.450897 10.7704 76.6803
8172155 5.86632 5.21235 33.3109 32.3828 -0.515194 10.6708 76.7724
8172158 5.86632 5.21235 33.3109 32.3828 -0.515194 10.6708 76.7724
8172168 6.10415 5.32286 33.055 32.0613 -0.57973 10.5214 76.5433
8172181 6.35078 5.51625 32.6908 31.7009 -0.598116 10.3315 76.2587
8172188 6.35078 5.51625 32.6908 31.7009 -0.598116 10.3315 76.2587
8172198 6.75596 5.81094 32.2478 31.2819 -0.627786 10.0457 76.0967
8172208 6.75596 5.81094 32.2478 31.2819 -0.627786 10.0457 76.0967
8172219 7.1171 6.09642 31.8147 30.7851 -0.676097 9.77129 75.8133
8172228 7.60155 6.42795 31.4013 30.3564 -0.731793 9.44649 75.7872
8172238 7.60155 6.42795 31.4013 30.3564 -0.731793 9.44649 75.7872
8172251 8.11244 6.86999 31.0371 29.8109 -0.813863 9.07265 75.8304
8172258 8.11244 6.86999 31.0371 29.8109 -0.813863 9.07265 75.8304
8172273 8.58808 7.35807 30.4464 29.1192 -0.846642 8.66477 75.5118
8172278 9.36321 7.92904 29.6786 28.1547 -0.98438 8.09467 75.1256
8172298 10.3938 9.05255 28.4088 26.7616 -1.00126 7.18151 74.6167
8172308 11.944 10.7562 27.0504 25.008 -1.0802 5.89058 74.7587
8172329 13.7585 12.6994 25.2687 23.0109 -1.10955 4.37966 74.7375
8172349 15.3528 14.3109 23.5559 21.0722 -1.18639 3.02138 74.2919
8172359 16.7181 15.812 22.1679 19.3576 -1.25461 1.82201 74.0557
8172369 16.7181 15.812 22.1679 19.3576 -1.25461 1.82201 74.0557
8172379 17.847 16.7974 21.1934 18.0034 -1.43537 0.924774 73.8412
8172390 18.983 17.8558 20.3173 16.762 -1.58366 0.0488073 73.9182
8172399 18.983 17.8558 20.3173 16.762 -1.58366 0.0488073 73.9182
8172411 20.1688 18.9743 19.392 15.6198 -1.67445 -0.835665 74.1549
8172419 20.1688 18.9743 19.392 15.6198 -1.67445 -0.835665 74.1549
8172435 21.2948 19.9273 18.5651 14.43 -1.85355 -1.66276 74.2173
8172439 22.4508 21.0166 17.6891 13.2783 -1.96312 -2.51899 74.4347
8172451 22.4508 21.0166 17.6891 13.2783 -1.96312 -2.51899 74.4347
8172461 23.5569 21.9016 16.6881 12.2408 -2.05094 -3.33315 74.3873
8172470 24.6032 22.8255 15.7419 11.1271 -2.15096 -4.15081 74.2977
8172482 24.6032 22.8255 15.7419 11.1271 -2.15096 -4.15081 74.2977
8172491 25.4502 23.4674 14.9309 10.2514 -2.24773 -4.80472 74.0999
8172503 25.4502 23.4674 14.9309 10.2514 -2.24773 -4.80472 74.0999
8172511 25.9484 23.8953 14.3382 9.66125 -2.2785 -5.24982 73.8432
8172525 26.4766 24.2454 13.9639 9.23292 -2.35465 -5.58555 73.9188
8172530 26.4766 24.2454 13.9639 9.23292 -2.35465 -5.58555 73.9188
8172540 27.0346 24.5761 13.6312 8.90929 -2.42087 -5.88059 74.1512
8172550 27.6624 24.9165 13.3505 8.59518 -2.51634 -6.16573 74.5245
8172570 28.2702 25.3833 12.945 8.25252 -2.53148 -6.50413 74.851
8172580 28.2702 25.3833 12.945 8.25252 -2.53148 -6.50413 74.851
8172593 28.9977 25.8598 12.5394 7.83371 -2.6065 -6.87572 75.2307
8172600 29.6653 26.385 12.0612 7.41489 -2.62377 -7.26387 75.5264
8172615 29.6653 26.385 12.0612 7.41489 -2.62377 -7.26387 75.5264
8172620 30.1934 26.7059 11.5205 6.98656 -2.65939 -7.63708 75.4064
8172635 30.6717 26.9588 11.0318 6.68197 -2.67531 -7.94687 75.3443
8172641 30.6717 26.9588 11.0318 6.68197 -2.67531 -7.94687 75.3443
8172650 31.0504 27.1436 10.5951 6.32979 -2.71973 -8.24076 75.1189
8172670 31.3494 27.3284 10.2936 5.98712 -2.77735 -8.48411 74.9584
8172682 31.7181 27.4451 9.86728 5.66349 -2.83716 -8.76223 74.6939
8172692 31.7181 27.4451 9.86728 5.66349 -2.83716 -8.76223 74.6939
8172702 31.9771 27.5229 9.62813 5.5112 -2.87087 -8.91501 74.6394
8172712 32.1465 27.7368 9.24343 5.34938 -2.78738 -9.12182 74.4762
8172722 32.1465 27.7368 9.24343 5.34938 -2.78738 -9.12182 74.4762
8172738 32.3857 27.8438 9.09786 5.12094 -2.86064 -9.27033 74.4483
8172745 32.3857 27.8438 9.09786 5.12094 -2.86064 -9.27033 74.4483
8172754 32.4355 27.8827 8.86911 5.00672 -2.83553 -9.38938 74.1941
8172763 32.5252 27.8924 8.60917 4.81635 -2.85253 -9.54566 73.8432
8172772 32.5252 27.8924 8.60917 4.81635 -2.85253 -9.54566 73.8432
8172787 32.5053 27.7466 8.42202 4.71165 -2.88513 -9.63096 73.3855
8172792 32.5252 27.7368 8.32844 4.58791 -2.91374 -9.70485 73.1784
8172812 32.5252 27.7368 8.32844 4.58791 -2.91374 -9.70485 73.1784
8172814 32.4156 27.7077 8.17248 4.46417 -2.89178 -9.78972 72.7599
8172822 32.4156 27.7077 8.17248 4.46417 -2.89178 -9.78972 72.7599
8172834 32.4156 27.6396 8.04771 4.43561 -2.89091 -9.83723 72.5385
8172842 32.4555 27.6882 8.04771 4.47368 -2.86976 -9.8305 72.6651
8172858 32.4555 27.6882 8.04771 4.47368 -2.86976 -9.8305 72.6651
8172863 32.5651 27.8244 8.02691 4.50224 -2.83377 -9.84528 72.9186
8172873 32.7345 27.9119 8.18287 4.50224 -2.89889 -9.8105 73.3315
8172893 32.9238 28.0772 8.30764 4.67357 -2.86577 -9.73608 73.9822
8172904 32.9238 28.0772 8.30764 4.67357 -2.86577 -9.73608 73.9822
8172913 33.0434 28.0286 8.42202 4.75924 -2.92161 -9.67447 74.2532
8172924 33.0832 28.1745 8.54679 4.80683 -2.89792 -9.63073 74.6113
8172933 33.0832 28.1745 8.54679 4.80683 -2.89792 -9.63073 74.6113
8172947 33.153 28.2328 8.67156 4.92105 -2.89105 -9.56139 74.9784
8172954 33.153 28.262 8.71315 4.94009 -2.88539 -9.54367 75.0682
8172973 33.2028 28.3398 8.85872 5.07335 -2.86466 -9.46222 75.4747
8172984 33.2028 28.3398 8.85872 5.07335 -2.86466 -9.46222 75.4747
8172994 33.0733 28.2523 8.9315 5.11142 -2.86627 -9.41029 75.3685
8173004 33.0035 28.1842 8.99388 5.17805 -2.86464 -9.35828 75.3597
8173015 33.0035 28.1842 8.99388 5.17805 -2.86464 -9.35828 75.3597
8173024 32.7843 28.0481 9.01468 5.15901 -2.86373 -9.33098 75.006
8173038 32.5352 27.8827 9.10826 5.32083 -2.81904 -9.21657 74.847
8173044 32.5352 27.8827 9.10826 5.32083 -2.81904 -9.21657 74.847
8173062 32.286 27.8049 9.18104 5.37794 -2.77436 -9.1491 74.6499
8173064 32.286 27.8049 9.18104 5.37794 -2.77436 -9.1491 74.6499
8173074 32.1067 27.5715 9.21223 5.38746 -2.81374 -9.10335 74.2779
8173084 31.8675 27.3965 9.40979 5.49216 -2.82768 -8.97219 74.1659
8173094 31.8675 27.3965 9.40979 5.49216 -2.82768 -8.97219 74.1659
8173106 31.6583 27.2603 9.49297 5.58735 -2.80531 -8.88627 73.9989
8173114 31.3892 27.0561 9.60734 5.7206 -2.78552 -8.76687 73.7732
8173124 31.3892 27.0561 9.60734 5.7206 -2.78552 -8.76687 73.7732
8173134 31.1202 26.9005 9.82569 5.91097 -2.75716 -8.59928 73.7573
8173144 31.1202 26.9005 9.82569 5.91097 -2.75716 -8.59928 73.7573
8173157 30.7515 26.7059 10.148 6.14894 -2.72682 -8.37112 73.7544
8173164 30.5023 26.6087 10.4911 6.57727 -2.63129 -8.09712 74.1794
8173176 30.5023 26.6087 10.4911 6.57727 -2.63129 -8.09712 74.1794
8173184 29.9742 26.3169 11.0838 7.03415 -2.58937 -7.69527 74.4091
8173204 29.3365 25.7334 11.77 7.67189 -2.58388 -7.17228 74.5118
8173219 28.5592 25.0235 12.7162 8.50952 -2.58742 -6.48796 74.8084
8173225 28.5592 25.0235 12.7162 8.50952 -2.58742 -6.48796 74.8084
8173235 27.5129 24.1482 14.0159 9.68981 -2.55113 -5.56386 75.3668
8173245 26.3968 22.9908 15.6691 11.1557 -2.59782 -4.44079 76.2124
8173255 26.3968 22.9908 15.6691 11.1557 -2.59782 -4.44079 76.2124
8173267 25.2808 21.6779 17.3445 12.888 -2.6102 -3.25027 77.1912
8173275 25.2808 21.6779 17.3445 12.888 -2.6102 -3.25027 77.1912
8173287 24.0451 20.0927 19.077 14.8488 -2.61987 -1.96224 78.0637
8173295 22.4408 18.3129 20.7603 17.0682 -2.48782 -0.55838 78.5822
8173305 22.4408 18.3129 20.7603 17.0682 -2.48782 -0.55838 78.5822
8173315 20.7468 16.5211 22.3451 19.0556 -2.38824 0.788013 78.6686
8173325 18.983 14.8543 23.7331 20.6923 -2.29021 2.02933 78.2626
8173335 18.983 14.8543 23.7331 20.6923 -2.29021 2.02933 78.2626
8173345 17.4683 13.4637 24.6879 21.9198 -2.18364 3.03244 77.5397
8173357 17.4683 13.4637 24.6879 21.9198 -2.18364 3.03244 77.5397
8173365 15.9606 12.1468 25.5148 22.9232 -2.09202 3.98402 76.5454
8173383 14.8244 11.0233 26.2826 23.8682 -2.04459 4.79677 75.9984
8173392 14.8244 11.0233 26.2826 23.8682 -2.04459 4.79677 75.9984
8173400 13.7497 9.96425 27.2177 25.0275 -1.96675 5.63419 75.9592
8173412 12.7544 9.06176 28.2316 25.9822 -1.95384 6.39176 76.03
8173417 12.7544 9.06176 28.2316 25.9822 -1.95384 6.39176 76.03
8173427 11.7238 8.24215 29.3932 26.9467 -1.94223 7.15028 76.3058
8173439 11.7238 8.24215 29.3932 26.9467 -1.94223 7.15028 76.3058
8173447 10.7197 7.45016 30.5547 27.9599 -1.91185 7.89171 76.6845
8173464 9.76839 6.75027 31.9328 29.0315 -1.90991 8.60427 77.483
8173467 9.76839 6.75027 31.9328 29.0315 -1.90991 8.60427 77.483
8173477 8.8171 6.0688 33.2027 29.9181 -1.93346 9.27514 78.0066
8173487 7.8658 5.47941 34 30.5026 -1.88952 9.85719 77.8478
8173497 7.8658 5.47941 34 30.5026 -1.88952 9.85719 77.8478
8173508 7.16114 5.13868 34 30.7559 -1.7087 10.2113 77.0557
8173530 6.79119 4.87161 34 30.8143 -1.66888 10.425 76.4771
8173537 6.6943 4.74269 34 30.6682 -1.73556 10.4916 76.1052
8173551 6.6943 4.74269 34 30.6682 -1.73556 10.4916 76.1052
8173557 6.54456 4.67822 34 30.7364 -1.68839 10.5676 75.9592
8173569 6.3772 4.63218 34 30.7851 -1.63598 10.6424 75.7945
8173578 6.3772 4.63218 34 30.7851 -1.63598 10.6424 75.7945
8173588 6.17461 4.6506 34 31.1553 -1.43744 10.7258 75.9805
8173598 6.17461 4.6506 34 31.1553 -1.43744 10.7258 75.9805
8173608 5.99845 4.50325 34 31.3989 -1.34925 10.8492 75.9005
8173620 5.79586 4.37432 34 31.7983 -1.19235 10.9838 75.9685
8173628 5.79586 4.37432 34 31.7983 -1.19235 10.9838 75.9685
8173642 5.54922 4.28223 34 32.0321 -1.06603 11.1122 75.8635
8173648 5.39948 4.19014 34 32.1977 -0.99345 11.204 75.7873
8173663 5.39948 4.19014 34 32.1977 -0.99345 11.204 75.7873
8173668 5.17927 4.11647 34 32.3633 -0.891989 11.3141 75.6591
8173683 5.17927 4.11647 34 32.3633 -0.891989 11.3141 75.6591
8173688 4.96788 3.98754 34 32.4802 -0.828554 11.4385 75.4356
8173698 4.91503 4.00596 34 32.49 -0.801969 11.4511 75.4109
8173708 4.91503 4.00596 34 32.49 -0.801969 11.4511 75.4109
8173718 4.75648 3.97833 34 32.6069 -0.720476 11.5219 75.3417
8173728 4.64197 3.91387 34 32.6069 -0.705543 11.5851 75.1627
8173738 4.64197 3.91387 34 32.6069 -0.705543 11.5851 75.1627
8173749 4.68601 4.00596 34 32.6653 -0.66839 11.5397 75.3573
8173758 4.68601 4.00596 34 32.6653 -0.66839 11.5397 75.3573
8173772 4.69482 3.90466 34 32.9381 -0.612956 11.5847 75.5376
8173779 4.63316 3.95991 34 33.2304 -0.475736 11.6001 75.8234
8173794 4.63316 3.95991 34 33.2304 -0.475736 11.6001 75.8234
8173799 4.52746 3.93229 34 33.4057 -0.391959 11.6547 75.8655
8173809 4.43057 3.90466 34 33.6103 -0.301398 11.7074 75.9455
8173820 4.43057 3.90466 34 33.6103 -0.301398 11.7074 75.9455
8173829 4.39534 3.95991 34 33.7662 -0.219789 11.7071 76.1214
8173840 4.39534 3.95991 34 33.7662 -0.219789 11.7071 76.1214
8173849 4.28964 3.87703 34 33.7662 -0.212827 11.7735 75.9329
8173862 4.2456 3.84019 34 33.7467 -0.217156 11.8012 75.8325
8173869 4.2456 3.84019 34 33.7467 -0.217156 11.8012 75.8325
8173879 4.29845 3.95991 34 33.7272 -0.201128 11.7395 75.9856
8173890 4.21036 3.90466 34 33.698 -0.200398 11.7888 75.813
8173911 4.23679 3.86782 34 33.5519 -0.270006 11.7863 75.6565
8173930 4.19275 3.86782 34 33.5324 -0.262111 11.8011 75.5929
8173940 4.19275 3.88624 34 33.5616 -0.246195 11.7958 75.6406
8173951 4.19275 3.88624 34 33.5616 -0.246195 11.7958 75.6406
8173960 4.20155 3.91387 34 33.6298 -0.21714 11.7858 75.7452
8173972 4.18394 3.88624 34 33.698 -0.197874 11.8047 75.7682
8173981 4.18394 3.88624 34 33.698 -0.197874 11.8047 75.7682
8173997 4.17513 3.89545 34 33.6785 -0.198407 11.8037 75.7491
8174016 4.17513 3.89545 34 33.6785 -0.198407 11.8037 75.7491
8174017 4.22798 3.93229 34 33.5908 -0.232625 11.7683 75.7511
8174025 4.23679 3.99675 34 33.5616 -0.223771 11.7411 75.7951
8174037 4.23679 3.99675 34 33.5616 -0.223771 11.7411 75.7951
8174048 4.31606 4.02438 34 33.4544 -0.276154 11.6988 75.7949
8174055 4.31606 4.08884 34 33.357 -0.28715 11.6719 75.7619
8174072 4.38653 4.12568 34 33.3668 -0.294577 11.6346 75.879
8174082 4.38653 4.12568 34 33.3668 -0.294577 11.6346 75.879
8174092 4.39534 4.18093 34 33.3083 -0.298512 11.6095 75.8846
8174104 4.43938 4.23619 34 33.2206 -0.323652 11.5707 75.8962
8174113 4.43938 4.23619 34 33.2206 -0.323652 11.5707 75.8962
8174125 4.53627 4.19014 34 33.0355 -0.432473 11.5445 75.7619
8174133 4.61554 4.2546 34 32.7725 -0.524984 11.4821 75.6426
8174147 4.61554 4.2546 34 32.7725 -0.524984 11.4821 75.6426
8174153 4.74767 4.39274 34 32.5582 -0.593393 11.3776 75.6986
8174163 4.74767 4.39274 34 32.5582 -0.593393 11.3776 75.6986
8174176 4.7829 4.40195 34 32.4413 -0.64121 11.3565 75.6261
8174183 4.97668 4.52167 34 32.1977 -0.745517 11.2356 75.6961
8174200 4.97668 4.52167 34 32.1977 -0.745517 11.2356 75.6961
8174203 5.22332 4.62297 34 31.9736 -0.866102 11.1041 75.8199
8174214 5.46995 4.77031 34 31.7301 -0.977208 10.9562 75.9704
8174225 5.46995 4.77031 34 31.7301 -0.977208 10.9562 75.9704
8174234 5.91036 5.00975 33.9606 31.4183 -1.12809 10.7063 76.2991
8174244 5.91036 5.00975 33.9606 31.4183 -1.12809 10.7063 76.2991
8174254 6.28912 5.1571 33.5373 30.941 -1.22766 10.4773 75.9245
8174267 6.8 5.60834 32.9467 30.5318 -1.18814 10.0947 75.8869
8174274 6.8 5.60834 32.9467 30.5318 -1.18814 10.0947 75.8869
8174284 7.41658 6.07801 32.1199 29.9473 -1.16168 9.64229 75.5617
8174294 8.36788 6.79632 30.9878 29.051 -1.16631 8.9507 75.203
8174305 8.36788 6.79632 30.9878 29.051 -1.16631 8.9507 75.203
8174314 9.6715 7.83694 29.5408 27.9891 -1.12818 8.0002 75.0384
8174324 9.6715 7.83694 29.5408 27.9891 -1.12818 8.0002 75.0384
8174335 11.3187 9.47616 27.8871 26.3622 -1.12181 6.68696 75.0441
8174344 13.1684 11.5574 26.0857 24.2871 -1.13503 5.12266 75.0986
8174359 13.1684 11.5574 26.0857 24.2871 -1.13503 5.12266 75.0986
8174364 14.8155 13.39 24.2843 22.1828 -1.18082 3.66832 74.6727
8174374 16.1456 14.8174 22.9062 20.5266 -1.24594 2.51421 74.3959
8174384 16.1456 14.8174 22.9062 20.5266 -1.24594 2.51421 74.3959
8174394 17.3986 15.7844 21.7643 19.153 -1.42561 1.56565 74.1003
8174404 17.3986 15.7844 21.7643 19.153 -1.42561 1.56565 74.1003
8174414 18.694 16.6869 20.7012 17.9158 -1.61917 0.655975 73.9979
8174425 19.9994 17.7489 19.579 16.7049 -1.73055 -0.296689 74.0322
8174436 19.9994 17.7489 19.579 16.7049 -1.73055 -0.296689 74.0322
8174445 21.3148 18.9159 18.3978 15.2772 -1.86708 -1.33056 73.9056
8174455 22.5703 20.0343 17.3248 14.0207 -1.97435 -2.28379 73.9502
8174468 22.5703 20.0343 17.3248 14.0207 -1.97435 -2.28379 73.9502
8174475 23.8857 21.1333 16.1994 12.7833 -2.0839 -3.25052 74.0017
8174495 23.8857 21.1333 16.1994 12.7833 -2.0839 -3.25052 74.0017
8174497 25.1014 22.3198 15.1076 11.5078 -2.15482 -4.21528 74.0367
8174507 26.2773 23.409 14.1615 10.3847 -2.23791 -5.08002 74.2324
8174525 27.1841 24.0801 13.3609 9.54703 -2.33167 -5.73456 74.172
8174536 28.1307 24.7317 12.5498 8.81411 -2.40304 -6.36535 74.2264
8174549 28.1307 24.7317 12.5498 8.81411 -2.40304 -6.36535 74.2264
8174555 28.7884 25.2374 12.0404 8.30011 -2.45112 -6.79448 74.3663
8174566 28.7884 25.2374 12.0404 8.30011 -2.45112 -6.79448 74.3663
8174576 29.4162 25.6459 11.4893 7.83371 -2.49576 -7.2069 74.3851
8174587 29.9642 26.0835 11.1462 7.38634 -2.56119 -7.54528 74.5803
8174599 29.9642 26.0835 11.1462 7.38634 -2.56119 -7.54528 74.5803
8174607 30.4725 26.5406 10.6887 6.98656 -2.55527 -7.9004 74.6883
8174617 31.0604 26.8713 10.3352 6.60582 -2.64397 -8.21208 74.8726
8174627 31.0604 26.8713 10.3352 6.60582 -2.64397 -8.21208 74.8726
8174637 31.5188 27.2019 9.97125 6.20605 -2.69767 -8.52027 74.898
8174647 31.5188 27.2019 9.97125 6.20605 -2.69767 -8.52027 74.898
8174656 31.8476 27.3867 9.68012 5.90146 -2.75327 -8.75203 74.8159
8174674 32.0768 27.5326 9.27462 5.56831 -2.77039 -9.01915 74.4523
8174677 32.0768 27.5326 9.27462 5.56831 -2.77039 -9.01915 74.4523
8174691 32.2462 27.5132 8.90031 5.33987 -2.80187 -9.22692 73.9995
8174698 32.3558 27.5521 8.61957 5.07335 -2.83624 -9.41871 73.6008
8174713 32.3558 27.5521 8.61957 5.07335 -2.83624 -9.41871 73.6008
8174718 32.4555 27.4937 8.44281 4.8925 -2.90377 -9.54101 73.2845
8174728 32.4555 27.4937 8.44281 4.8925 -2.90377 -9.54101 73.2845
8174739 32.5053 27.4548 8.29725 4.7402 -2.94788 -9.64196 72.9975
8174748 32.6249 27.5326 8.15168 4.66405 -2.93939 -9.73132 72.9732
8174768 32.7743 27.6396 8.0581 4.5308 -2.96634 -9.82668 73.0028
8174781 32.9338 27.7174 7.92294 4.42609 -2.98397 -9.92507 73.0002
8174798 33.0533 27.8244 8.02691 4.50224 -2.98121 -9.87957 73.4069
8174808 33.0533 27.8244 8.02691 4.50224 -2.98121 -9.87957 73.4069
8174820 33.2327 27.9508 8.0789 4.5308 -2.99147 -9.87364 73.7932
8174831 33.422 28.0481 8.26606 4.66405 -3.01612 -9.78626 74.4002
8174838 33.422 28.0481 8.26606 4.66405 -3.01612 -9.78626 74.4002
8174848 33.5018 28.2815 8.34924 4.76876 -2.93746 -9.74588 74.9012
8174858 33.5018 28.2815 8.46361 4.76876 -2.9711 -9.70815 75.0156
8174868 33.6512 28.3009 8.46361 4.74972 -3.01475 -9.7263 75.1655
8174879 33.8904 28.4468 8.54679 4.74972 -3.05441 -9.72596 75.6337
8174888 33.8904 28.4468 8.54679 4.74972 -3.05441 -9.72596 75.6337
8174903 33.9203 28.3787 8.47401 4.75924 -3.0637 -9.744 75.5322
8174908 34 28.5635 8.43242 4.67357 -3.038 -9.80399 75.6695
8174918 34 28.5635 8.43242 4.67357 -3.038 -9.80399 75.6695
8174930 34 28.5343 8.40122 4.61646 -3.06095 -9.83097 75.552
8174950 34 28.5051 8.29725 4.46417 -3.0983 -9.91351 75.2666
8174959 34 28.4176 8.20367 4.49272 -3.09307 -9.92915 75.114
8174979 33.9601 28.2328 8.04771 4.34994 -3.15893 -10.0137 74.5906
8174989 33.99 28.0092 7.93333 4.21669 -3.2696 -10.0842 74.1492
8175000 33.99 28.0092 7.93333 4.21669 -3.2696 -10.0842 74.1492
8175009 33.8605 27.8633 7.91254 4.25476 -3.26663 -10.06 73.8911
8175021 33.8605 27.8633 7.91254 4.25476 -3.26663 -10.06 73.8911
8175030 33.8007 27.6979 7.85015 4.16909 -3.32702 -10.0954 73.5179
8175043 33.7509 27.5618 7.93333 4.17861 -3.38572 -10.0513 73.4246
8175050 33.7509 27.5618 7.93333 4.17861 -3.38572 -10.0513 73.4246
8175065 33.7907 27.484 7.98532 4.1215 -3.46496 -10.0505 73.3815
8175070 33.8007 27.4548 8.19327 4.19765 -3.51053 -9.95254 73.6464
8175080 33.8007 27.4548 8.19327 4.19765 -3.51053 -9.95254 73.6464
8175091 33.9103 27.5423 8.26606 4.31187 -3.48578 -9.90295 74.0306
8175106 33.9103 27.5423 8.26606 4.31187 -3.48578 -9.90295 74.0306
8175122 34 27.5715 8.55719 4.54983 -3.49359 -9.73462 74.6785
8175130 34 27.5715 8.55719 4.54983 -3.49359 -9.73462 74.6785
8175142 33.9502 27.4451 8.71315 4.62598 -3.5433 -9.64538 74.7344
8175150 33.9402 27.3673 8.9315 4.68309 -3.61086 -9.5485 74.9221
8175161 33.9402 27.3673 8.9315 4.68309 -3.61086 -9.5485 74.9221
8175171 33.7509 27.1825 9.09786 4.85442 -3.60944 -9.41057 74.8857
8175185 33.7509 27.1825 9.09786 4.85442 -3.60944 -9.41057 74.8857
8175191 33.5815 27.095 9.26422 5.00672 -3.58385 -9.28762 74.9474
8175207 33.3124 26.8713 9.58654 5.21613 -3.60451 -9.07786 74.9864
8175211 33.3124 26.8713 9.58654 5.21613 -3.60451 -9.07786 74.9864
8175222 32.9238 26.6865 9.90887 5.36842 -3.59797 -8.87991 74.8876
8175234 32.6049 26.4628 10.2312 5.64446 -3.57898 -8.64494 74.9434
8175242 32.6049 26.4628 10.2312 5.64446 -3.57898 -8.64494 74.9434
8175252 32.1166 26.0543 10.6471 5.93953 -3.60159 -8.34384 74.7576
8175262 32.1166 26.0543 10.6471 5.93953 -3.60159 -8.34384 74.7576
8175272 31.4889 25.4027 11.219 6.26316 -3.71163 -7.94827 74.3737
8175281 30.6717 24.7706 12.1028 6.91041 -3.72487 -7.33912 74.4555
8175291 30.6717 24.7706 12.1028 6.91041 -3.72487 -7.33912 74.4555
8175302 29.7948 23.9828 13.2465 7.80515 -3.75967 -6.56014 74.8293
8175322 28.5791 23.0686 14.8165 8.9664 -3.76524 -5.54115 75.4307
8175323 28.5791 23.0686 14.8165 8.9664 -3.76524 -5.54115 75.4307
8175333 27.2438 21.6974 16.792 10.4703 -3.89358 -4.26729 76.2036
8175344 25.3107 20.0343 19.1361 12.4502 -3.88732 -2.68267 76.9312
8175354 25.3107 20.0343 19.1361 12.4502 -3.88732 -2.68267 76.9312
8175364 23.0686 18.0114 21.8628 14.8298 -3.88637 -0.846212 77.7726
8175374 23.0686 18.0114 21.8628 14.8298 -3.88637 -0.846212 77.7726
8175384 20.6671 16.0423 24.5895 17.2436 -3.81028 0.978523 78.5423
8175394 18.6741 14.357 26.8437 19.4063 -3.70658 2.50102 79.281
8175404 18.6741 14.357 26.8437 19.4063 -3.70658 2.50102 79.281
8175414 16.9295 12.8006 28.1233 20.7702 -3.65094 3.65602 78.6237
8175428 15.5202 11.4561 28.8715 21.686 -3.62732 4.56209 77.5337
8175444 14.2518 10.3326 29.718 22.4556 -3.64184 5.39146 76.758
8175455 14.2518 10.3326 29.718 22.4556 -3.64184 5.39146 76.758
8175464 13.2477 9.37486 30.4957 23.1375 -3.68199 6.1 76.2557
8175474 12.2523 8.61051 31.293 23.839 -3.6502 6.7641 75.9948
8175496 11.3979 8.03034 32.2085 24.4917 -3.64002 7.34388 76.1284
8175506 10.5964 7.40412 33.2322 25.1542 -3.68856 7.93053 76.3868
8175519 10.5964 7.40412 33.2322 25.1542 -3.68856 7.93053 76.3868
8175526 9.91813 6.86999 34 25.7874 -3.67636 8.42291 76.5755
8175536 9.91813 6.86999 34 25.7874 -3.67636 8.42291 76.5755
8175546 9.36321 6.50163 34 26.2745 -3.47622 8.74902 76.1393
8175557 8.95803 6.20693 34 26.6057 -3.34739 8.99572 75.7707
8175575 8.6057 6.05038 34 26.8395 -3.21733 9.17605 75.4956
8175589 8.43834 5.82936 34 27.0831 -3.16051 9.31949 75.3508
8175597 8.43834 5.82936 34 27.0831 -3.16051 9.31949 75.3508
8175605 8.25337 5.74648 34 27.3754 -3.02869 9.42794 75.3752
8175615 8.25337 5.74648 34 27.3754 -3.02869 9.42794 75.3752
8175627 7.99793 5.48862 34 27.6189 -2.9593 9.61296 75.1055
8175636 7.83057 5.35049 34 27.9112 -2.85279 9.73405 75.0922
8175645 7.83057 5.35049 34 27.9112 -2.85279 9.73405 75.0922
8175659 7.45181 5.09263 34 28.2911 -2.69527 9.97119 74.8356
8175665 7.08187 4.90845 34 28.5152 -2.56969 10.172 74.5055
8175677 7.08187 4.90845 34 28.5152 -2.56969 10.172 74.5055
8175687 6.73834 4.5493 34 28.8659 -2.46891 10.4334 74.1535
8175697 6.73834 4.5493 34 28.8659 -2.46891 10.4334 74.1535
8175707 6.40363 4.38353 34 29.1095 -2.33794 10.6207 73.8966
8175717 6.03368 4.19014 34 29.3335 -2.21256 10.8303 73.5573
8175730 6.03368 4.19014 34 29.3335 -2.21256 10.8303 73.5573
8175737 5.66373 4.10726 34 29.655 -2.00932 11.0078 73.426
8175757 5.27617 3.91387 34 29.8109 -1.90115 11.2233 73.0009
8175767 4.97668 3.75731 34 30.035 -1.78112 11.3993 72.769
8175779 4.97668 3.75731 34 30.035 -1.78112 11.3993 72.769
8175787 4.75648 3.60997 34 30.1324 -1.72904 11.538 72.4988
8175797 4.60674 3.52709 34 30.2688 -1.66116 11.6298 72.4026
8175807 4.60674 3.52709 34 30.2688 -1.66116 11.6298 72.4026
8175817 4.36891 3.53629 34 30.4246 -1.52357 11.7212 72.3298
8175830 4.36891 3.53629 34 30.4246 -1.52357 11.7212 72.3298
8175837 4.30725 3.40737 34 30.5805 -1.49366 11.7987 72.2951
8175847 4.23679 3.50867 34 30.8143 -1.34847 11.7976 72.5598
8175867 4.20155 3.43499 34 30.863 -1.34605 11.84 72.4996
8175880 4.2456 3.47183 34 30.9605 -1.31171 11.8144 72.6779
8175888 4.2456 3.47183 34 30.9605 -1.31171 11.8144 72.6779
8175898 4.23679 3.52709 34 31.0092 -1.27126 11.7994 72.773
8175908 4.23679 3.52709 34 31.0092 -1.27126 11.7994 72.773
8175918 4.27202 3.51788 34 31.0676 -1.26498 11.7924 72.8575
8175928 4.26321 3.63759 34 31.1358 -1.19454 11.7547 73.0366
8175938 4.26321 3.63759 34 31.1358 -1.19454 11.7547 73.0366
8175954 4.23679 3.58234 34 31.0579 -1.23378 11.7812 72.877
8175959 4.20155 3.6468 34 31.0092 -1.21662 11.7683 72.8575
8175969 4.20155 3.6468 34 31.0092 -1.21662 11.7683 72.8575
8175979 4.28964 3.68364 34 30.8825 -1.27769 11.7168 72.8558
8175989 4.38653 3.68364 34 30.8825 -1.30919 11.6813 72.9527
8175999 4.38653 3.69285 34 30.9215 -1.29183 11.6797 73.0009
8176009 4.50984 3.8494 34 30.9507 -1.26508 11.5792 73.31
8176032 4.55389 3.86782 34 30.9799 -1.26228 11.558 73.4016
8176039 4.65959 3.95991 34 30.863 -1.30529 11.481 73.4825
8176059 4.74767 4.13489 34 30.863 -1.27117 11.3865 73.7456
8176069 4.74767 4.13489 34 30.863 -1.27117 11.3865 73.7456
8176079 4.91503 4.18093 34 30.7948 -1.33279 11.307 73.8908
8176089 5.01192 4.23619 34 30.7948 -1.34411 11.2529 74.0429
8176109 5.13523 4.31907 34 30.6974 -1.38862 11.175 74.1517
8176123 5.32021 4.49404 34 30.639 -1.40598 11.0455 74.4532
8176130 5.32021 4.49404 34 30.639 -1.40598 11.0455 74.4532
8176146 5.42591 4.57692 34 30.5805 -1.43077 10.9765 74.5833
8176150 5.42591 4.57692 34 30.5805 -1.43077 10.9765 74.5833
8176160 5.54041 4.72427 34 30.5513 -1.42511 10.884 74.816
8176172 5.83109 4.83478 34 30.3857 -1.53583 10.7366 75.0515
8176180 5.83109 4.83478 34 30.3857 -1.53583 10.7366 75.0515
8176197 6.08653 4.96371 34 30.3272 -1.59053 10.602 75.3775
8176201 6.35078 5.12026 34 30.2395 -1.64804 10.4546 75.7106
8176211 6.35078 5.12026 34 30.2395 -1.64804 10.4546 75.7106
8176222 6.65026 5.2584 34 29.9668 -1.7875 10.2915 75.8754
8176231 6.65026 5.2584 34 29.9668 -1.7875 10.2915 75.8754
8176247 7.00259 5.54388 33.8523 29.733 -1.83172 10.056 76.1318
8176251 7.46062 5.91224 33.1633 29.314 -1.77904 9.71081 75.8502
8176261 7.46062 5.91224 33.1633 29.314 -1.77904 9.71081 75.8502
8176272 8.12124 6.474 32.1789 28.4567 -1.78432 9.17982 75.2309
8176282 9.26632 7.34886 30.9091 27.4436 -1.7951 8.35107 74.9678
8176300 10.7549 8.63814 29.4916 26.2258 -1.79156 7.25418 75.1105
8176318 10.7549 8.63814 29.4916 26.2258 -1.79156 7.25418 75.1105
8176322 12.4725 10.3418 27.5721 24.5891 -1.70512 5.87128 74.9756
8176332 14.1637 12.0363 25.7904 23.0693 -1.61487 4.52833 75.0598
8176343 14.1637 12.0363 25.7904 23.0693 -1.61487 4.52833 75.0598
8176352 15.5819 13.7308 23.9201 21.345 -1.48375 3.20855 74.5777
8176366 17.0598 15.5173 22.286 19.494 -1.45733 1.85649 74.3572
8176372 17.0598 15.5173 22.286 19.494 -1.45733 1.85649 74.3572
8176390 18.8435 17.2626 20.5634 17.643 -1.51432 0.423946 74.3125
8176392 18.8435 17.2626 20.5634 17.643 -1.51432 0.423946 74.3125
8176402 20.408 19.0132 18.89 15.7245 -1.53989 -0.973847 74.0356
8176414 22.1219 20.9193 17.2756 13.8779 -1.55007 -2.40334 74.1948
8176422 22.1219 20.9193 17.2756 13.8779 -1.55007 -2.40334 74.1948
8176438 23.6366 22.4754 15.7731 12.2027 -1.59661 -3.6719 74.0878
8176442 24.8722 23.4868 14.5254 10.7464 -1.75347 -4.70333 73.6308
8176464 25.8288 24.2065 13.6104 9.79451 -1.85123 -5.43921 73.4403
8176482 26.6559 24.7706 12.7994 9.03303 -1.92866 -6.05948 73.2589
8176493 27.4132 25.3444 12.3315 8.49048 -2.00798 -6.51043 73.5796
8176503 27.4132 25.3444 12.3315 8.49048 -2.00798 -6.51043 73.5796
8176514 28.2403 25.889 11.874 8.06215 -2.08031 -6.92492 74.0655
8176523 29.0176 26.4434 11.4789 7.65286 -2.14507 -7.30551 74.5927
8176537 29.0176 26.4434 11.4789 7.65286 -2.14507 -7.30551 74.5927
8176543 29.6155 26.8907 11.1462 7.2626 -2.20527 -7.62813 74.915
8176559 29.6155 26.8907 11.1462 7.2626 -2.20527 -7.62813 74.915
8176563 30.2333 27.1728 10.7407 6.82475 -2.32637 -7.97116 74.9715
8176584 30.6518 27.2311 10.3976 6.46305 -2.46015 -8.23262 74.7435
8176586 30.6518 27.2311 10.3976 6.46305 -2.46015 -8.23262 74.7435
8176596 30.9308 27.163 10.0336 6.09183 -2.5969 -8.48197 74.2193
8176613 31.0703 26.9977 9.69052 5.7682 -2.71838 -8.69262 73.5268
8176623 31.2597 26.9394 9.40979 5.62542 -2.7667 -8.84091 73.2342
8176633 31.2597 26.9394 9.40979 5.62542 -2.7667 -8.84091 73.2342
8176643 31.3593 26.9394 9.23303 5.42553 -2.81927 -8.9724 72.9572
8176653 31.5188 26.8227 9.21223 5.36842 -2.92775 -9.00155 72.9221
8176663 31.5188 26.8227 9.21223 5.36842 -2.92775 -9.00155 72.9221
8176673 31.6981 26.7935 9.22263 5.3589 -2.99986 -9.01359 73.0731
8176683 31.6981 26.7935 9.22263 5.3589 -2.99986 -9.01359 73.0731
8176695 31.9174 26.8129 9.31621 5.39698 -3.07163 -8.99 73.4435
8176703 32.306 26.9491 9.52416 5.53975 -3.1423 -8.91922 74.319
8176716 32.306 26.9491 9.52416 5.53975 -3.1423 -8.91922 74.319
8176723 32.6946 27.0755 9.74251 5.55879 -3.26449 -8.8853 75.0714
8176737 33.0135 27.1144 9.82569 5.7206 -3.30501 -8.83688 75.6742
8176743 33.0135 27.1144 9.82569 5.7206 -3.30501 -8.83688 75.6742
8176753 33.3124 27.3478 9.98165 5.67301 -3.36541 -8.84603 76.3149
8176763 33.3124 27.3478 9.98165 5.67301 -3.36541 -8.84603 76.3149
8176773 33.3921 27.4062 9.88807 5.58735 -3.37164 -8.91321 76.2737
8176783 33.5217 27.5034 9.83609 5.55879 -3.36808 -8.95647 76.42
8176793 33.5217 27.5034 9.83609 5.55879 -3.36808 -8.95647 76.42
8176803 33.4918 27.4743 9.65933 5.41601 -3.37344 -9.05245 76.0414
8176813 33.442 27.4354 9.49297 5.28275 -3.37621 -9.14073 75.653
8176834 33.2227 27.3673 9.27462 5.30179 -3.26884 -9.18235 75.1664
8176844 33.2227 27.3673 9.27462 5.30179 -3.26884 -9.18235 75.1664
8176854 33.0733 27.27 9.12905 5.24468 -3.24144 -9.22873 74.717
8176865 33.0234 27.1728 9.00428 5.03527 -3.30692 -9.32636 74.2358
8176874 33.0234 27.1728 9.00428 5.03527 -3.30692 -9.32636 74.2358
8176885 32.8939 27.1436 8.81713 4.96865 -3.2506 -9.39779 73.8233
8176894 32.8242 27.0561 8.77554 4.97816 -3.24764 -9.39645 73.6339
8176905 32.8242 27.0561 8.77554 4.97816 -3.24764 -9.39645 73.6339
8176916 32.7644 27.0755 8.73394 4.8449 -3.26139 -9.45148 73.4187
8176928 32.7644 27.0755 8.73394 4.8449 -3.26139 -9.45148 73.4187
8176935 32.7345 27.095 8.69236 4.94961 -3.19248 -9.42968 73.4714
8176946 32.6348 27.1436 8.65076 4.94009 -3.13547 -9.44283 73.3693
8176955 32.6348 27.1436 8.65076 4.94009 -3.13547 -9.44283 73.3693
8176967 32.5651 27.1728 8.64037 4.98768 -3.08215 -9.42736 73.3659
8176977 32.5053 27.163 8.72355 5.03527 -3.07465 -9.37858 73.4271
8176986 32.5053 27.163 8.72355 5.03527 -3.07465 -9.37858 73.4271
8177001 32.4853 27.2603 8.73394 5.09239 -3.0129 -9.36212 73.572
8177005 32.4853 27.2603 8.73394 5.09239 -3.0129 -9.36212 73.572
8177017 32.5451 27.3284 8.81713 5.24468 -2.97192 -9.29428 73.9353
8177027 32.595 27.4548 8.95229 5.30179 -2.95767 -9.24495 74.3038
8177035 32.595 27.4548 8.95229 5.30179 -2.95767 -9.24495 74.3038
8177046 32.6448 27.6104 9.01468 5.39698 -2.89689 -9.20962 74.6669
8177055 32.6249 27.659 9.08746 5.49216 -2.85891 -9.15752 74.8635
8177075 32.585 27.7563 9.14985 5.65398 -2.7695 -9.08991 75.1451
8177088 32.585 27.7563 9.14985 5.65398 -2.7695 -9.08991 75.1451
8177097 32.6049 27.7368 9.29541 5.66349 -2.82202 -9.04033 75.3007
8177113 32.585 27.7952 9.32661 5.74916 -2.77223 -9.00613 75.456
8177119 32.585 27.7952 9.32661 5.74916 -2.77223 -9.00613 75.456
8177127 32.4355 27.8341 9.32661 5.80627 -2.6928 -8.97916 75.4025
8177138 32.2562 27.7174 9.27462 5.82531 -2.66009 -8.96594 75.0735
8177147 32.2562 27.7174 9.27462 5.82531 -2.66009 -8.96594 75.0735
8177163 32.027 27.6104 9.24343 5.96809 -2.56914 -8.90311 74.8489
8177168 32.027 27.6104 9.29541 5.96809 -2.58471 -8.88652 74.9009
8177178 31.6882 27.3673 9.29541 5.95857 -2.5763 -8.8417 74.3094
8177189 31.4191 27.2214 9.3474 6.05375 -2.52944 -8.7598 74.0416
8177198 31.4191 27.2214 9.3474 6.05375 -2.52944 -8.7598 74.0416
8177213 31.1202 27.1047 9.337 6.14894 -2.44318 -8.69728 73.7108
8177218 30.9109 26.9588 9.48257 6.30123 -2.42128 -8.57106 73.6535
8177228 30.9109 26.9588 9.48257 6.30123 -2.42128 -8.57106 73.6535
8177244 30.6717 26.8907 9.66972 6.52016 -2.34927 -8.4145 73.7524
8177249 30.313 26.7351 9.90887 6.82475 -2.25733 -8.19604 73.7818
8177259 30.313 26.7351 9.90887 6.82475 -2.25733 -8.19604 73.7818
8177269 29.9343 26.4142 10.2208 7.20549 -2.21467 -7.91373 73.7748
8177289 29.3365 25.9376 10.7199 7.66237 -2.19137 -7.51297 73.6564
8177299 28.7286 25.3736 11.4373 8.56663 -2.10027 -6.90191 74.1061
8177309 28.7286 25.3736 11.4373 8.56663 -2.10027 -6.90191 74.1061
8177319 28.061 24.7609 12.5187 9.55655 -2.09027 -6.15778 74.897
8177332 27.3136 23.837 13.8391 10.9558 -2.09361 -5.20551 75.9455
8177339 27.3136 23.837 13.8391 10.9558 -2.09361 -5.20551 75.9455
8177355 26.2972 22.7769 15.378 12.5073 -2.0761 -4.12987 76.9593
8177359 26.2972 22.7769 15.378 12.5073 -2.0761 -4.12987 76.9593
8177369 24.9619 21.5029 16.948 14.2206 -1.9922 -2.95546 77.6334
8177380 23.9156 20.2191 18.3387 15.7626 -2.00439 -1.92367 78.236
8177389 23.9156 20.2191 18.3387 15.7626 -2.00439 -1.92367 78.236
8177406 22.66 18.877 19.4412 17.1461 -1.94501 -0.950344 78.1244
8177419 21.4742 17.5933 20.2779 18.247 -1.9048 -0.10488 77.5924
8177431 20.3482 16.4659 20.839 19.2212 -1.78868 0.633407 76.8743
8177442 20.3482 16.4659 20.839 19.2212 -1.78868 0.633407 76.8743
8177457 19.272 15.4529 21.3214 19.9908 -1.69314 1.2995 76.037
8177460 18.1559 14.357 21.8923 20.7994 -1.62617 2.03022 75.2046
8177470 18.1559 14.357 21.8923 20.7994 -1.62617 2.03022 75.2046
8177483 17.0598 13.4729 22.5912 21.7347 -1.48393 2.76384 74.8586
8177490 15.9959 12.377 23.7035 22.8842 -1.48015 3.64489 74.9607
8177507 15.9959 12.377 23.7035 22.8842 -1.48015 3.64489 74.9607
8177510 14.9565 11.585 24.9537 24.2287 -1.35243 4.48488 75.7239
8177520 14.9565 11.585 24.9537 24.2287 -1.35243 4.48488 75.7239
8177533 13.8731 10.6273 26.4204 25.4464 -1.38139 5.3753 76.3672
8177540 12.772 9.8169 27.8969 26.7421 -1.33045 6.2251 77.228
8177558 12.772 9.8169 27.8969 26.7421 -1.33045 6.2251 77.228
8177562 11.7943 8.96966 29.2849 27.7163 -1.41232 6.98975 77.7652
8177572 11.7943 8.96966 27.8379 27.7163 -0.965093 6.83787 76.3182
8177583 10.7285 8.14085 30.3578 28.4178 -1.45783 7.70937 77.645
8177592 9.81244 7.59751 31.2438 28.9049 -1.46787 8.26576 77.5586
8177612 8.99326 6.97129 31.8344 29.2556 -1.4927 8.78445 77.0545
8177622 8.29741 6.55688 32.5038 29.5479 -1.52668 9.20553 76.9059
8177634 8.29741 6.55688 32.5038 29.5479 -1.52668 9.20553 76.9059
8177643 7.6544 6.14247 33.0944 29.7817 -1.57313 9.60166 76.6729
8177658 6.97617 5.82936 33.6358 29.9862 -1.56892 9.97346 76.4276
8177663 6.97617 5.82936 33.6358 29.9862 -1.56892 9.97346 76.4276
8177673 6.40363 5.55309 34 30.4149 -1.45199 10.3032 76.3716
8177693 5.81347 5.21235 34 30.7461 -1.27191 10.6346 75.772
8177708 5.32902 4.93608 34 31.1066 -1.09005 10.9142 75.3717
8177713 5.32902 4.93608 34 31.1066 -1.09005 10.9142 75.3717
8177723 5.03834 4.77031 34 31.2138 -1.01779 11.0777 75.0224
8177733 5.03834 4.77031 34 31.2138 -1.01779 11.0777 75.0224
8177743 4.65078 4.61376 34 31.2917 -0.920556 11.2721 74.5562
8177755 4.58031 4.53088 34 31.2527 -0.940213 11.3244 74.3639
8177764 4.58031 4.53088 34 31.2527 -0.940213 11.3244 74.3639
8177778 4.51865 4.49404 34 31.0774 -0.994483 11.3506 74.0901
8177784 4.62435 4.54009 34 30.7948 -1.1119 11.2826 73.9593
8177794 4.62435 4.54009 34 30.7948 -1.1119 11.2826 73.9593
8177804 4.72124 4.66901 34 30.7851 -1.10115 11.2021 74.1754
8177814 4.80052 4.7519 34 30.8143 -1.08728 11.1465 74.3667
8177827 4.80052 4.7519 34 30.8143 -1.08728 11.1465 74.3667
8177834 4.79171 4.69664 34 30.9215 -1.06625 11.1746 74.4098
8177844 4.79171 4.69664 34 30.9215 -1.06625 11.1746 74.4098
8177854 4.72124 4.72427 34 31.0189 -0.999828 11.1946 74.4644
8177864 4.74767 4.7519 34 31.165 -0.947817 11.1831 74.6646
8177874 4.74767 4.7519 34 31.165 -0.947817 11.1831 74.6646
8177884 4.77409 4.71506 34 31.1845 -0.962353 11.1878 74.6737
8177898 4.77409 4.71506 34 31.1845 -0.962353 11.1878 74.6737
8177904 4.75648 4.64139 34 31.1553 -0.992508 11.2183 74.5532
8177914 4.80933 4.68743 34 31.1358 -1.00026 11.1826 74.6326
8177924 4.80933 4.68743 34 31.1358 -1.00026 11.1826 74.6326
8177934 4.86218 4.71506 34 30.9117 -1.08585 11.1428 74.489
8177948 4.89741 4.64139 34 30.8241 -1.15379 11.1518 74.3629
8177954 4.89741 4.64139 34 30.8241 -1.15379 11.1518 74.3629
8177970 4.91503 4.73348 34 30.7072 -1.16816 11.1072 74.3557
8177974 4.91503 4.73348 34 30.7072 -1.16816 11.1072 74.3557
8177984 5.00311 4.7519 34 30.6487 -1.21046 11.0667 74.4037
8177995 5.03834 4.76111 34 30.6195 -1.22877 11.0496 74.4189
8178004 5.03834 4.76111 34 30.6195 -1.22877 11.0496 74.4189
8178018 5.07358 4.83478 34 30.6 -1.22094 11.0105 74.5084
8178024 5.06477 4.8532 34 30.5805 -1.2185 11.0061 74.4985
8178034 5.06477 4.8532 34 30.5805 -1.2185 11.0061 74.4985
8178044 5.13523 4.89924 34 30.6682 -1.194 10.9702 74.7027
8178064 5.13523 4.88082 34 30.6682 -1.20046 10.9766 74.6842
8178081 5.18808 4.98212 34 30.7266 -1.16137 10.9263 74.8969
8178084 5.18808 4.98212 34 30.7266 -1.16137 10.9263 74.8969
8178094 5.23212 5.00054 34 30.6974 -1.17915 10.9031 74.9301
8178105 5.23212 5.02817 34 30.7169 -1.1627 10.8946 74.9772
8178114 5.23212 5.02817 34 30.7169 -1.1627 10.8946 74.9772
8178130 5.28497 5.02817 34 30.7559 -1.1659 10.8785 75.069
8178134 5.28497 5.02817 34 30.7559 -1.1659 10.8785 75.069
8178144 5.18808 5.03738 34 30.6487 -1.16929 10.9029 74.8742
8178154 5.23212 5.0558 34 30.6097 -1.19049 10.8792 74.8977
8178166 5.23212 5.0558 34 30.6097 -1.19049 10.8792 74.8977
8178179 5.27617 5.09263 34 30.5708 -1.20523 10.8491 74.9396
8178186 5.27617 5.09263 34 30.5708 -1.20523 10.8491 74.9396
8178202 5.26736 5.0558 34 30.5805 -1.2119 10.8654 74.9037
8178206 5.3114 5.11105 34 30.6 -1.19976 10.8323 75.0225
8178216 5.3114 5.11105 34 30.6 -1.19976 10.8323 75.0225
8178227 5.30259 5.09263 34 30.6195 -1.19659 10.8427 75.0147
8178235 5.32021 5.17551 34 30.5805 -1.18685 10.806 75.0762
8178252 5.32021 5.17551 34 30.5805 -1.18685 10.806 75.0762
8178256 5.43471 5.19393 34 30.561 -1.22349 10.7593 75.1897
8178267 5.43471 5.19393 34 30.561 -1.22349 10.7593 75.1897
8178276 5.49637 5.23998 34 30.4928 -1.2507 10.7185 75.2292
8178285 5.63731 5.24919 34 30.337 -1.34637 10.6583 75.2235
8178305 5.76943 5.34128 34 30.1032 -1.43757 10.5684 75.2139
8178316 6.02487 5.58992 34 29.8986 -1.50185 10.3857 75.5134
8178326 6.02487 5.58992 34 29.8986 -1.50185 10.3857 75.5134
8178335 6.35078 5.90303 33.9606 29.6063 -1.58336 10.1515 75.8207
8178352 6.35078 5.90303 33.9606 29.6063 -1.58336 10.1515 75.8207
8178356 6.82643 6.32665 33.3109 29.1971 -1.52442 9.78475 75.6612
8178368 7.5487 6.88841 32.4545 28.5054 -1.52837 9.25557 75.3971
8178376 7.5487 6.88841 32.4545 28.5054 -1.52837 9.25557 75.3971
8178385 8.63212 7.76327 31.2831 27.6871 -1.48108 8.47366 75.3656
8178400 9.97098 8.84074 29.7771 26.6252 -1.42331 7.49672 75.214
8178405 9.97098 8.84074 29.7771 26.6252 -1.42331 7.49672 75.214
8178416 11.4596 10.0655 28.458 25.349 -1.4944 6.42791 75.3321
8178435 12.728 11.4745 26.9913 23.7805 -1.48859 5.31568 74.9743
8178449 13.9611 13.0677 25.436 22.1438 -1.40252 4.13176 74.6087
8178457 13.9611 13.0677 25.436 22.1438 -1.40252 4.13176 74.6087
8178474 15.1503 14.3478 24.2056 20.8287 -1.40187 3.12674 74.5322
8178477 16.3482 15.6094 22.9062 19.2115 -1.49628 2.05738 74.0753
8178487 16.3482 15.6094 22.9062 19.2115 -1.49628 2.05738 74.0753
8178497 17.6676 17.0292 21.5084 17.6527 -1.52121 0.906665 73.8579
8178521 17.6676 17.0292 21.5084 17.6527 -1.52121 0.906665 73.8579
8178521 19.1125 18.4783 20.0811 16.21 -1.52452 -0.263889 73.8818
8178528 20.7069 19.7523 18.703 14.7727 -1.65176 -1.41684 73.9348
8178538 20.7069 19.7523 18.703 14.7727 -1.65176 -1.41684 73.9348
8178549 22.1518 21.1333 17.315 13.402 -1.666 -2.54751 74.0021
8178558 23.4273 22.0961 16.2306 12.1837 -1.81847 -3.471 73.9377
8178571 23.4273 22.0961 16.2306 12.1837 -1.81847 -3.471 73.9377
8178580 24.4736 22.8936 15.1908 11.2413 -1.87316 -4.25513 73.7994
8178598 25.4701 23.5549 14.4214 10.4513 -1.99103 -4.90252 73.8977
8178608 26.2972 24.2454 13.756 9.86114 -2.00466 -5.44612 74.1597
8178619 26.2972 24.2454 13.756 9.86114 -2.00466 -5.44612 74.1597
8178629 27.1143 24.8678 13.1425 9.25196 -2.06282 -5.96714 74.3766
8178639 27.8617 25.5875 12.5602 8.76652 -2.02868 -6.44374 74.776
8178649 27.8617 25.5875 12.5602 8.76652 -2.02868 -6.44374 74.776
8178659 28.6589 26.0835 11.9572 8.22396 -2.105 -6.9193 74.9235
8178669 28.6589 26.0835 11.9572 8.22396 -2.105 -6.9193 74.9235
8178679 29.177 26.6379 11.5413 7.75756 -2.10443 -7.29215 75.1137
8178690 29.6354 27.1436 11.115 7.32923 -2.08631 -7.64421 75.2232
8178700 29.6354 27.1436 11.115 7.32923 -2.08631 -7.64421 75.2232
8178709 29.8746 27.2019 10.6887 6.96753 -2.13888 -7.91226 74.7327
8178730 30.0739 27.2311 10.4391 6.72956 -2.19954 -8.08398 74.4737
8178732 30.0739 27.2311 10.4391 6.72956 -2.19954 -8.08398 74.4737
8178739 30.0938 27.1436 10.2208 6.57727 -2.22654 -8.19324 74.0354
8178749 30.0938 27.1436 10.2208 6.57727 -2.22654 -8.19324 74.0354
8178759 30.1038 27.1144 10.1168 6.48208 -2.24341 -8.25404 73.8171
8178769 30.1835 27.0366 10.0232 6.42497 -2.28902 -8.30178 73.6683
8178781 30.1835 27.0366 10.0232 6.42497 -2.28902 -8.30178 73.6683
8178792 30.2632 27.1728 9.98165 6.37738 -2.268 -8.34953 73.795
8178803 30.4027 27.2506 9.92966 6.33931 -2.28026 -8.39753 73.9222
8178812 30.4027 27.2506 9.92966 6.33931 -2.28026 -8.39753 73.9222
8178819 30.6419 27.5326 9.84648 6.25364 -2.25585 -8.49705 74.2746
8178830 30.6419 27.5326 9.84648 6.25364 -2.25585 -8.49705 74.2746
8178839 30.7614 27.6201 9.72171 6.19653 -2.2431 -8.5727 74.2998
8178852 30.9209 27.7855 9.68012 6.11086 -2.24997 -8.64098 74.4973
8178876 31.0703 27.8633 9.61774 6.0252 -2.2794 -8.7073 74.5765
8178880 31.0504 27.8633 9.52416 6.03471 -2.24129 -8.73237 74.4726
8178890 31.0504 27.8633 9.52416 6.03471 -2.24129 -8.73237 74.4726
8178902 31.18 27.9605 9.3682 5.86338 -2.26034 -8.85593 74.3721
8178910 31.18 27.9605 9.3682 5.86338 -2.26034 -8.85593 74.3721
8178923 31.17 28.0092 9.3578 5.82531 -2.25024 -8.87467 74.3623
8178930 31.3095 28.1648 9.21223 5.64446 -2.25764 -9.00383 74.3309
8178950 31.5287 28.3301 9.06667 5.63494 -2.22315 -9.08469 74.5604
8178961 31.5586 28.4468 8.86911 5.53024 -2.16743 -9.19418 74.4048
8178972 31.5586 28.4468 8.86911 5.53024 -2.16743 -9.19418 74.4048
8178980 31.6284 28.5246 8.79633 5.48264 -2.15548 -9.24482 74.4319
8178997 31.6284 28.5246 8.79633 5.48264 -2.15548 -9.24482 74.4319
8179002 31.6682 28.6121 8.73394 5.42553 -2.13747 -9.29359 74.4398
8179010 31.6383 28.6024 8.61957 5.34938 -2.12442 -9.35291 74.2097
8179032 31.6583 28.6899 8.4948 5.34938 -2.0601 -9.40205 74.1924
8179042 31.5586 28.5441 8.4844 5.3589 -2.07586 -9.38375 73.946
8179052 31.5586 28.5441 8.4844 5.3589 -2.07586 -9.38375 73.946
8179064 31.6184 28.583 8.46361 5.23516 -2.11904 -9.43894 73.9001
8179072 31.6184 28.583 8.46361 5.23516 -2.11904 -9.43894 73.9001
8179085 31.5387 28.4662 8.39083 5.24468 -2.11113 -9.4451 73.6404
8179092 31.5387 28.4954 8.5052 5.38746 -2.08348 -9.36226 73.9268
8179102 31.5387 28.4954 8.5052 5.38746 -2.08348 -9.36226 73.9268
8179112 31.4789 28.3982 8.55719 5.36842 -2.12373 -9.33939 73.8027
8179121 31.3992 28.3009 8.62997 5.47312 -2.11885 -9.26728 73.8032
8179137 31.3992 28.3009 8.62997 5.47312 -2.11885 -9.26728 73.8032
8179145 31.3195 28.3009 8.71315 5.59686 -2.07453 -9.19318 73.9304
8179154 31.3195 28.3009 8.71315 5.59686 -2.07453 -9.19318 73.9304
8179163 31.2597 28.1842 8.95229 5.62542 -2.16232 -9.09184 74.0216
8179173 31.1999 28.0675 8.98349 5.75868 -2.14742 -9.02422 74.0096
8179193 31.18 27.9314 9.30581 5.90146 -2.23799 -8.86132 74.3186
8179203 31.0305 27.8049 9.49297 6.1299 -2.21219 -8.70539 74.4583
8179216 31.0305 27.8049 9.49297 6.1299 -2.21219 -8.70539 74.4583
8179223 30.9009 27.6396 9.7841 6.35834 -2.2385 -8.51561 74.683
8179233 30.9009 27.6396 9.7841 6.35834 -2.2385 -8.51561 74.683
8179243 30.6219 27.3867 10.0856 6.55823 -2.26469 -8.31147 74.6525
8179253 30.2333 27.0463 10.5327 6.93897 -2.26776 -7.98807 74.7513
8179263 30.2333 27.0463 10.5327 6.93897 -2.26776 -7.98807 74.7513
8179273 29.8347 26.6573 11.1254 7.34826 -2.31923 -7.60716 74.9657
8179284 29.2468 26.6573 11.822 8.00504 -2.11486 -7.14575 75.7312
8179293 29.2468 26.1322 11.822 8.00504 -2.30421 -7.0909 75.206
8179306 28.6389 25.3833 12.633 8.79507 -2.35042 -6.47992 75.4503
8179313 28.6389 25.3833 12.633 8.79507 -2.35042 -6.47992 75.4503
8179328 27.8716 24.7122 13.6416 9.69933 -2.33838 -5.77735 75.9248
8179334 26.7855 23.8467 14.7437 10.9082 -2.2201 -4.91195 76.284
8179344 26.7855 23.8467 14.7437 10.9082 -2.2201 -4.91195 76.284
8179360 25.5897 22.7866 16.1474 12.0885 -2.2392 -3.94332 76.6122
8179364 25.5897 22.7866 16.1474 12.0885 -2.2392 -3.94332 76.6122
8179374 24.2145 21.5709 17.5217 13.4496 -2.18733 -2.89502 76.7568
8179390 22.7198 20.3164 19.0376 14.8679 -2.13578 -1.78005 76.9417
8179394 22.7198 20.3164 19.0376 14.8679 -2.13578 -1.78005 76.9417
8179404 21.3048 18.8576 20.5536 16.1909 -2.21368 -0.666624 76.9068
8179414 19.8798 17.5543 21.971 17.7014 -2.1383 0.43543 77.1067
8179425 19.8798 17.5543 21.971 17.7014 -2.1383 0.43543 77.1067
8179438 18.415 16.2449 23.2507 19.1335 -2.04018 1.50389 77.0441
8179444 18.415 16.2449 23.2507 19.1335 -2.04018 1.50389 77.0441
8179454 17 14.9372 24.4812 20.439 -1.98584 2.53385 76.8573
8179464 15.7492 13.6755 25.6624 21.686 -1.97015 3.50194 76.7731
8179474 15.7492 13.6755 25.6624 21.686 -1.97015 3.50194 76.7731
8179486 14.5601 12.4875 26.8732 22.8258 -1.99356 4.42717 76.7466
8179494 13.5295 11.3364 27.9855 23.8877 -2.04947 5.27904 76.7391
8179511 13.5295 11.3364 27.9855 23.8877 -2.04947 5.27904 76.7391
8179514 12.5959 10.4155 28.8813 24.7547 -2.05713 5.99329 76.6474
8179527 12.5959 10.4155 28.8813 24.7547 -2.05713 5.99329 76.6474
8179537 11.9088 9.73402 29.4227 25.2613 -2.07534 6.49336 76.3268
8179544 11.3098 9.15385 29.7672 25.6607 -2.06297 6.9107 75.8917
8179560 11.3098 9.15385 29.7672 25.6607 -2.06297 6.9107 75.8917
8179564 10.9399 8.78548 30.161 26.0797 -2.05215 7.21018 75.966
8179574 10.5611 8.34344 30.4957 26.3719 -2.09227 7.51522 75.7722
8179584 10.5611 8.34344 30.4957 26.3719 -2.09227 7.51522 75.7722
8179594 10.2528 8.03034 30.978 26.9564 -2.0481 7.80356 76.2176
8179608 10.2528 8.03034 30.978 26.9564 -2.0481 7.80356 76.2176
8179614 9.85648 7.64355 31.3816 27.4533 -2.01128 8.1224 76.3349
8179632 9.51295 7.33044 31.923 27.9599 -2.00245 8.41423 76.7263
8179635 9.51295 7.33044 31.923 27.9599 -2.00245 8.41423 76.7263
8179645 9.09016 6.90683 32.553 28.4567 -2.03865 8.76795 77.0067
8179657 8.61451 6.53846 33.1633 29.0413 -2.00306 9.12353 77.3575
8179665 8.61451 6.53846 33.1633 29.0413 -2.00306 9.12353 77.3575
8179675 7.96269 6.0688 33.9212 29.5479 -2.02169 9.5685 77.5006
8179686 7.96269 6.0688 33.9212 29.5479 -2.02169 9.5685 77.5006
8179696 7.27565 5.60834 34 29.9668 -1.85442 9.97051 76.8508
8179706 6.68549 5.23998 34 30.298 -1.6883 10.3064 76.2235
8179715 6.68549 5.23998 34 30.298 -1.6883 10.3064 76.2235
8179727 6.21865 4.91766 34 30.6097 -1.54835 10.5893 75.7461
8179736 6.21865 4.91766 34 30.6097 -1.54835 10.5893 75.7461
8179752 5.67254 4.6598 34 30.8728 -1.37622 10.8783 75.2051
8179755 5.29378 4.43879 34 30.9605 -1.30351 11.091 74.693
8179766 5.29378 4.43879 34 30.9605 -1.30351 11.091 74.693
8179779 5.1 4.30986 34 30.9994 -1.2736 11.2062 74.4093
8179794 4.89741 4.28223 34 31.1066 -1.18077 11.2929 74.2862
8179796 4.89741 4.28223 34 31.1066 -1.18077 11.2929 74.2862
8179806 4.73886 4.19935 34 31.3112 -1.08699 11.3886 74.2494
8179815 4.73886 4.19935 34 31.3112 -1.08699 11.3886 74.2494
8179832 4.65078 4.21777 34 31.3891 -1.02478 11.4171 74.2577
8179838 4.75648 4.2546 34 31.5255 -0.998293 11.3732 74.5366
8179845 4.75648 4.2546 34 31.5255 -0.998293 11.3732 74.5366
8179858 4.77409 4.19014 34 31.5937 -1.00266 11.393 74.5579
8179865 4.73005 4.13489 34 31.584 -1.01117 11.4278 74.4489
8179875 4.73005 4.13489 34 31.584 -1.01117 11.4278 74.4489
8179885 4.6772 4.1533 34 31.6911 -0.950322 11.4451 74.5216
8179906 4.64197 4.10726 34 31.6521 -0.968587 11.4721 74.4014
8179917 4.58912 4.11647 34 31.6716 -0.941491 11.4886 74.3772
8179933 4.58912 4.11647 34 31.6716 -0.941491 11.4886 74.3772
8179937 4.5715 4.11647 34 31.5547 -0.97663 11.4894 74.2427
8179948 4.55389 4.052 34 31.506 -1.01059 11.5164 74.1119
8179965 4.55389 4.052 34 31.506 -1.01059 11.5164 74.1119
8179967 4.58912 4.09805 34 31.5158 -1.00242 11.4878 74.2029
8179977 4.58912 4.09805 34 31.5158 -1.00242 11.4878 74.2029
8179995 4.65078 4.16251 34 31.5742 -0.979349 11.4457 74.3875
8179998 4.6772 4.16251 34 31.6814 -0.950508 11.4414 74.5211
8180007 4.6772 4.16251 34 31.6814 -0.950508 11.4414 74.5211
8180020 4.73886 4.2454 34 31.6911 -0.938176 11.3907 74.6754
8180027 4.75648 4.19935 34 31.7593 -0.936159 11.404 74.7151
8180037 4.75648 4.19935 34 31.7593 -0.936159 11.404 74.7151
8180049 4.79171 4.21777 34 31.8567 -0.907356 11.3898 74.8662
8180057 4.79171 4.21777 34 31.8567 -0.907356 11.3898 74.8662
8180072 4.73886 4.22698 34 31.7593 -0.920896 11.4005 74.7251
8180077 4.72124 4.30065 34 31.847 -0.859366 11.3849 74.8689
8180087 4.72124 4.30065 34 31.847 -0.859366 11.3849 74.8689
8180097 4.73886 4.30065 34 31.7788 -0.888625 11.3754 74.8183
8180124 4.77409 4.3467 34 31.808 -0.873955 11.3482 74.9288
8180127 4.74767 4.30065 34 31.8762 -0.857794 11.377 74.9245
8180138 4.74767 4.30065 34 31.8762 -0.857794 11.377 74.9245
8180151 4.77409 4.30065 34 31.8372 -0.879763 11.3658 74.912
8180158 4.7829 4.3559 34 32.0224 -0.79983 11.3523 75.1612
8180176 4.7829 4.3559 34 32.0224 -0.79983 11.3523 75.1612
8180178 4.80052 4.39274 34 31.9736 -0.80958 11.3309 75.1669
8180188 4.74767 4.39274 34 32.0126 -0.779182 11.3513 75.153
8180201 4.74767 4.30986 34 32.0126 -0.807643 11.3804 75.0701
8180208 4.7829 4.33749 34 31.9639 -0.826246 11.3559 75.0843
8180218 4.7829 4.33749 34 31.9639 -0.826246 11.3559 75.0843
8180228 4.7829 4.41116 34 31.8372 -0.844479 11.3239 75.0313
8180238 4.85337 4.42958 34 31.8178 -0.86751 11.2918 75.1007
8180252 4.85337 4.42958 34 31.8178 -0.86751 11.2918 75.1007
8180258 4.89741 4.46641 34 31.8567 -0.855573 11.2655 75.2206
8180268 4.89741 4.46641 34 31.8567 -0.855573 11.2655 75.2206
8180279 4.91503 4.5493 34 31.7496 -0.869572 11.225 75.2139
8180288 4.98549 4.57692 34 31.6521 -0.916187 11.1859 75.2146
8180300 4.98549 4.57692 34 31.6521 -0.916187 11.1859 75.2146
8180308 5.16166 4.70585 34 31.3696 -1.02548 11.0654 75.2371
8180323 5.32902 4.82557 34 31.0871 -1.13512 10.9512 75.2417
8180328 5.32902 4.82557 34 31.0871 -1.13512 10.9512 75.2417
8180338 5.67254 5.0558 34 30.6292 -1.32286 10.729 75.3576
8180349 5.67254 5.0558 34 30.6292 -1.32286 10.729 75.3576
8180358 6.11295 5.39653 34 30.2883 -1.46052 10.4447 75.7977
8180371 6.67668 5.80173 33.4586 29.6648 -1.54388 10.0484 75.6018
8180378 6.67668 5.80173 33.4586 29.6648 -1.54388 10.0484 75.6018
8180395 7.5487 6.49242 32.5038 28.9828 -1.51509 9.42279 75.5277
8180398 8.50881 4.88082 31.5096 28.0573 -2.42618 9.49413 72.9565
8180408 8.50881 7.23835 31.5096 28.0573 -1.56767 8.7274 75.314
8180419 9.70674 8.36186 30.3382 26.6544 -1.67483 7.77845 75.0612
8180445 11.1689 10.0471 28.8222 24.9106 -1.67895 6.50779 74.9489
8180449 12.7632 11.981 27.0504 22.9232 -1.64262 5.06492 74.7178
8180459 12.7632 11.981 27.0504 22.9232 -1.64262 5.06492 74.7178
8180473 14.4368 13.74 25.3671 21.1307 -1.65159 3.68017 74.6745
8180481 16.0311 15.3147 23.5854 19.2602 -1.69885 2.32502 74.1914
8180489 16.0311 15.3147 23.5854 19.2602 -1.69885 2.32502 74.1914
8180500 17.7474 16.8158 21.9415 17.5261 -1.80566 0.993724 74.0308
8180509 17.7474 16.8158 21.9415 17.5261 -1.80566 0.993724 74.0308
8180525 19.3019 18.0601 20.4551 16.0482 -1.91185 -0.174371 73.8652
8180529 20.677 19.1785 19.1656 14.9155 -1.94379 -1.1715 73.9366
8180539 20.677 19.1785 19.1656 14.9155 -1.94379 -1.1715 73.9366
8180549 21.9226 20.2483 18.0926 13.8779 -1.98575 -2.06369 74.1415
8180559 23.0287 21.2305 17.1378 12.8595 -2.04579 -2.88096 74.2565
8180574 23.0287 21.2305 17.1378 12.8595 -2.04579 -2.88096 74.2565
8180581 24.1647 22.1058 16.3138 11.9742 -2.14543 -3.6178 74.5585
8180589 24.1647 22.1058 16.3138 11.9742 -2.14543 -3.6178 74.5585
8180600 25.2309 23.0978 15.3052 11.0985 -2.12082 -4.4007 74.7325
8180610 26.347 23.9634 14.3694 10.28 -2.15885 -5.13496 74.9598
8180622 26.347 23.9634 14.3694 10.28 -2.15885 -5.13496 74.9598
8180630 27.2937 24.6831 13.5064 9.528 -2.19602 -5.7876 75.0112
8180641 28.061 25.3152 12.7578 8.82363 -2.2279 -6.36255 74.9576
8180661 28.7585 25.9279 12.0924 8.243 -2.226 -6.86822 75.0218
8180672 28.7585 25.9279 12.0924 8.243 -2.226 -6.86822 75.0218
8180681 29.3365 26.5212 11.5621 7.76708 -2.19796 -7.28754 75.1868
8180693 29.8646 26.9783 11.0526 7.32923 -2.19666 -7.66923 75.2247
8180702 29.8646 26.9783 11.0526 7.32923 -2.19666 -7.66923 75.2247
8180720 30.1735 27.3186 10.5639 6.99608 -2.13941 -7.98088 75.0521
8180722 30.4127 27.5326 10.2104 6.69149 -2.13734 -8.22544 74.8472
8180732 30.4127 27.5326 10.2104 6.69149 -2.13734 -8.22544 74.8472
8180747 30.602 27.7368 9.94006 6.47256 -2.1179 -8.41312 74.7515
8180752 30.602 27.7368 9.94006 6.47256 -2.1179 -8.41312 74.7515
8180762 30.6717 27.6785 9.69052 6.22508 -2.17418 -8.57082 74.2658
8180774 30.7116 27.591 9.49297 6.03471 -2.22771 -8.69052 73.8302
8180782 30.7116 27.591 9.49297 6.03471 -2.22771 -8.69052 73.8302
8180797 30.7016 27.5132 9.18104 5.91097 -2.20257 -8.82376 73.3068
8180803 30.8312 27.3089 9.01468 5.78723 -2.31338 -8.91219 72.942
8180813 30.8312 27.3089 9.01468 5.78723 -2.31338 -8.91219 72.942
8180823 30.9209 27.2019 8.87951 5.60638 -2.40744 -9.01481 72.6087
8180833 30.9209 27.2019 8.87951 5.60638 -2.40744 -9.01481 72.6087
8180845 31.0504 27.0269 8.76514 5.50168 -2.51817 -9.08377 72.3441
8180853 31.2397 26.9199 8.75474 5.43505 -2.6398 -9.11614 72.3494
8180873 31.3892 26.9102 8.71315 5.36842 -2.70229 -9.16356 72.381
8180883 31.6084 26.9005 8.75474 5.4065 -2.7715 -9.1539 72.6701
8180893 31.6084 26.9005 8.75474 5.4065 -2.7715 -9.1539 72.6701
8180903 31.8875 27.0658 8.9211 5.39698 -2.84756 -9.13765 73.2713
8180915 31.8875 27.0658 8.9211 5.39698 -2.84756 -9.13765 73.2713
8180923 32.0668 27.1047 9.04587 5.53975 -2.87032 -9.06744 73.7571
8180941 32.306 27.1922 9.19144 5.59686 -2.93066 -9.02786 74.2865
8180944 32.306 27.1922 9.19144 5.59686 -2.93066 -9.02786 74.2865
8180953 32.5252 27.2992 9.3474 5.67301 -2.97295 -8.97938 74.8448
8180967 32.585 27.2797 9.51376 5.7682 -3.01105 -8.89915 75.1467
8180973 32.585 27.2797 9.51376 5.7682 -3.01105 -8.89915 75.1467
8180993 32.6049 27.2506 9.68012 5.89194 -3.03024 -8.80648 75.4276
8180996 32.6049 27.2506 9.68012 5.89194 -3.03024 -8.80648 75.4276
8181005 32.595 27.2895 9.7633 5.95857 -3.01239 -8.76168 75.6063
8181018 32.5651 27.2797 9.82569 5.9776 -3.01838 -8.73284 75.6481
8181023 32.5651 27.2797 9.82569 5.9776 -3.01838 -8.73284 75.6481
8181033 32.575 27.1728 9.98165 6.09183 -3.06381 -8.64025 75.8213
8181043 32.575 27.1728 9.98165 6.09183 -3.06381 -8.64025 75.8213
8181058 32.3957 26.9977 9.99205 6.04423 -3.09751 -8.62203 75.4297
8181067 32.2263 26.9005 10.0128 6.1299 -3.05859 -8.56602 75.2695
8181075 32.2263 26.9005 10.0128 6.1299 -3.05859 -8.56602 75.2695
8181083 31.9971 26.6573 10.0336 6.13942 -3.08509 -8.51586 74.8275
8181094 31.6782 26.5017 10.0544 6.16797 -3.04525 -8.45891 74.4023
8181104 31.6782 26.5017 10.0544 6.16797 -3.04525 -8.45891 74.4023
8181116 31.4988 26.278 10.0856 6.20605 -3.07161 -8.40138 74.0685
8181124 31.4988 26.278 10.0856 6.20605 -3.07161 -8.40138 74.0685
8181138 31.2298 26.0349 10.252 6.25364 -3.11549 -8.28769 73.7703
8181144 30.9607 25.8987 10.3768 6.37738 -3.07734 -8.17213 73.6136
8181154 30.9607 25.8987 10.3768 6.37738 -3.07734 -8.17213 73.6136
8181166 30.7515 25.714 10.5847 6.4916 -3.10389 -8.03403 73.5417
8181174 30.4625 25.6556 10.7927 6.79619 -2.98593 -7.84103 73.7069
8181191 30.4625 25.6556 10.7927 6.79619 -2.98593 -7.84103 73.7069
8181194 30.1835 25.4708 11.1254 7.07223 -2.96736 -7.6078 73.8519
8181204 30.1835 25.4708 11.1254 7.07223 -2.96736 -7.6078 73.8519
8181217 29.6952 25.1304 11.5309 7.34826 -2.96703 -7.31563 73.7048
8181224 29.2567 24.7998 12.1131 7.90985 -2.92262 -6.89128 74.0795
8181241 29.2567 24.7998 12.1131 7.90985 -2.92262 -6.89128 74.0795
8181244 28.609 24.3524 12.8098 8.63326 -2.83355 -6.35413 74.4045
8181254 27.8716 23.8078 13.704 9.57559 -2.73224 -5.68308 74.959
8181274 27.0645 23.234 14.9517 10.832 -2.61236 -4.83321 76.0822
8181291 27.0645 23.234 14.9517 10.832 -2.61236 -4.83321 76.0822
8181295 26.2075 22.417 16.4073 12.1932 -2.59133 -3.88942 77.2251
8181306 25.2608 21.4737 17.8269 13.5353 -2.58614 -2.95257 78.0967
8181318 25.2608 21.4737 17.8269 13.5353 -2.58614 -2.95257 78.0967
8181325 23.9654 20.3553 18.8801 14.7727 -2.47444 -2.05221 77.9735
8181343 22.6501 19.1396 19.9629 15.9054 -2.43634 -1.14373 77.658
8181345 22.6501 19.1396 19.9629 15.9054 -2.43634 -1.14373 77.658
8181356 21.2052 17.8947 20.9867 17.0585 -2.34579 -0.205087 77.145
8181369 21.2052 17.8947 20.9867 17.0585 -2.34579 -0.205087 77.145
8181375 19.551 16.5119 22.1778 18.3152 -2.2538 0.868 76.5559
8181385 17.857 15.149 23.487 19.6888 -2.13508 2.00242 76.1817
8181396 17.857 15.149 23.487 19.6888 -2.13508 2.00242 76.1817
8181405 16.4539 13.9334 24.7568 21.0819 -2.03191 3.0406 76.226
8181418 15.2824 12.773 26.0562 22.5043 -1.9778 4.01452 76.6159
8181427 15.2824 12.773 26.0562 22.5043 -1.9778 4.01452 76.6159
8181436 13.9876 11.5943 27.326 23.8487 -1.91208 5.00144 76.7565
8181445 13.9876 11.5943 27.326 23.8487 -1.91208 5.00144 76.7565
8181455 12.913 10.5444 28.4482 25.0567 -1.87104 5.85629 76.9623
8181468 11.9705 9.65114 29.3932 26.2063 -1.78261 6.60012 77.2211
8181475 11.9705 9.65114 29.3932 26.2063 -1.78261 6.60012 77.2211
8181485 11.0632 8.8039 30.4169 27.2682 -1.74335 7.31468 77.5522
8181495 10.1031 7.88299 31.2044 28.0963 -1.72353 8.01843 77.2868
8181505 10.1031 7.88299 31.2044 28.0963 -1.72353 8.01843 77.2868
8181520 9.23109 7.23835 31.9328 28.7295 -1.68415 8.5943 77.1318
8181528 9.23109 7.23835 31.9328 28.7295 -1.68415 8.5943 77.1318
8181535 8.5 6.59372 32.5431 29.3043 -1.67177 9.11483 76.9411
8181545 7.82176 6.14247 33.0353 29.7427 -1.61968 9.54112 76.7422
8181556 7.82176 6.14247 33.0353 29.7427 -1.61968 9.54112 76.7422
8181573 7.16114 5.80173 33.5866 30.337 -1.49864 9.94207 76.8864
8181576 7.16114 5.80173 33.5866 30.337 -1.49864 9.94207 76.8864
8181586 6.51813 5.37811 34 30.8241 -1.40639 10.3482 76.7203
8181598 6.02487 5.11105 34 31.3112 -1.17815 10.6299 76.4471
8181606 6.02487 5.11105 34 31.3112 -1.17815 10.6299 76.4471
8181624 5.61969 4.86241 34 31.6229 -1.02962 10.868 76.105
8181625 5.3114 4.61376 34 32.0321 -0.877319 11.08 75.9573
8181638 5.3114 4.61376 34 32.0321 -0.877319 11.08 75.9573
8181649 4.93264 4.47562 34 32.3536 -0.694093 11.2745 75.7618
8181657 4.93264 4.47562 34 32.3536 -0.694093 11.2745 75.7618
8181675 4.5715 4.26381 34 32.6069 -0.563614 11.4866 75.4422
8181677 4.44819 4.2454 34 32.7627 -0.477111 11.5436 75.4563
8181687 4.44819 4.2454 34 32.7627 -0.477111 11.5436 75.4563
8181701 4.27202 4.26381 34 32.8309 -0.39051 11.6023 75.3668
8181714 4.15751 4.30065 34 33.0355 -0.271988 11.6389 75.4937
8181717 4.15751 4.30065 34 33.0355 -0.271988 11.6389 75.4937
8181727 4.09585 4.2454 34 33.3375 -0.169441 11.6934 75.6788
8181737 4.09585 4.2454 34 33.3375 -0.169441 11.6934 75.6788
8181752 3.84041 4.20856 34 33.659 0.0089705 11.8105 75.708
8181758 3.72591 4.1441 34 33.8734 0.0962257 11.8829 75.7434
8181768 3.72591 4.1441 34 33.8734 0.0962257 11.8829 75.7434
8181778 3.53212 3.95991 34 33.9903 0.138459 12.0223 75.4823
8181788 3.46166 3.92308 34 34 0.15302 12.0612 75.3847
8181802 3.46166 3.92308 34 34 0.15302 12.0612 75.3847
8181808 3.30311 3.88624 34 34 0.193891 12.1315 75.1893
8181818 3.30311 3.88624 34 34 0.193891 12.1315 75.1893
8181828 3.1886 3.76652 34 34 0.192755 12.2163 74.9551
8181838 3.17098 3.70206 34 34 0.177324 12.2461 74.873
8181851 3.17098 3.70206 34 34 0.177324 12.2461 74.873
8181858 3.10052 3.60076 34 34 0.167412 12.3088 74.7013
8181868 3.04767 3.65601 34 34 0.203586 12.3079 74.7037
8181878 3.04767 3.65601 34 34 0.203586 12.3079 74.7037
8181888 3.04767 3.60997 34 34 0.188291 12.3247 74.6576
8181910 3.04767 3.60997 34 34 0.188291 12.3247 74.6576
8181914 3.02124 3.57313 34 34 0.184962 12.3479 74.5944
8181919 3.01244 3.68364 34 34 0.224644 12.3107 74.6961
8181945 3.05648 3.71127 34 34 0.218943 12.2845 74.7677
8181948 3.05648 3.71127 34 34 0.218943 12.2845 74.7677
8181959 3.02124 3.71127 34 34 0.230831 12.2974 74.7325
8181975 3.04767 3.66522 34 34 0.206643 12.3045 74.7129
8181988 2.99482 3.62839 34 34 0.212258 12.3373 74.6232
8182000 3.02124 3.60997 34 34 0.197211 12.3344 74.6312
8182009 3.02124 3.60997 34 34 0.197211 12.3344 74.6312
8182023 2.98601 3.53629 34 33.9513 0.168371 12.3726 74.4736
8182029 2.89793 3.46262 34 33.9805 0.183347 12.4332 74.3411
8182039 2.89793 3.46262 34 33.9805 0.183347 12.4332 74.3411
8182049 2.85389 3.46262 34 33.9318 0.182006 12.4478 74.2483
8182059 2.85389 3.46262 34 33.9318 0.182006 12.4478 74.2483
8182072 2.81865 3.38895 34 33.7857 0.120273 12.4832 73.9933
8182079 2.80104 3.43499 34 33.7759 0.138453 12.4723 74.012
8182097 2.80104 3.43499 34 33.7759 0.138453 12.4723 74.012
8182100 2.80104 3.43499 34 33.6883 0.108963 12.4693 73.9243
8182109 2.80104 3.42579 34 33.4837 0.0367701 12.4657 73.7105
8182123 2.80104 3.42579 34 33.4837 0.0367701 12.4657 73.7105
8182131 2.83627 3.43499 34 33.396 -0.0017941 12.4461 73.6673
8182148 2.83627 3.43499 34 33.396 -0.0017941 12.4461 73.6673
8182150 2.83627 3.4442 34 33.2206 -0.0583097 12.4366 73.5011
8182161 2.95078 3.40737 34 33.1427 -0.136298 12.4049 73.5008
8182176 2.95078 3.40737 34 33.1427 -0.136298 12.4049 73.5008
8182180 2.94197 3.41658 34 33.1524 -0.126837 12.4051 73.511
8182191 2.94197 3.41658 34 33.1524 -0.126837 12.4051 73.511
8182204 2.88912 3.41658 34 33.1914 -0.0956282 12.4261 73.4971
8182210 2.93316 3.46262 34 33.0453 -0.144763 12.3874 73.4411
8182231 2.8715 3.40737 34 32.9576 -0.172915 12.428 73.2365
8182240 2.93316 3.45341 34 32.9479 -0.181326 12.3874 73.3344
8182256 2.93316 3.45341 34 32.9479 -0.181326 12.3874 73.3344
8182260 2.95959 3.49946 34 32.8894 -0.194527 12.3582 73.3484
8182271 2.95959 3.49946 34 32.8894 -0.194527 12.3582 73.3484
8182282 2.95078 3.45341 34 32.7335 -0.261097 12.3731 73.1377
8182292 3.07409 3.49946 34 32.6166 -0.327235 12.3056 73.1902
8182307 3.07409 3.49946 34 32.6166 -0.327235 12.3056 73.1902
8182312 3.16218 3.50867 34 32.4413 -0.414518 12.2628 73.1121
8182321 3.32953 3.5455 34 32.1977 -0.54272 12.1775 73.0727
8182337 3.32953 3.5455 34 32.1977 -0.54272 12.1775 73.0727
8182346 3.47047 3.71127 34 32.0321 -0.589745 12.0572 73.2138
8182357 3.47047 3.71127 34 32.0321 -0.589745 12.0572 73.2138
8182362 3.54093 3.73889 34 31.808 -0.68206 12.0119 73.0878
8182372 3.84922 3.8494 34 31.5742 -0.827596 11.848 73.2728
8182382 3.84922 3.8494 34 31.5742 -0.827596 11.848 73.2728
8182392 4.06062 4.11647 34 31.243 -0.919768 11.6588 73.4201
8182410 4.41295 4.39274 34 31.0287 -1.01293 11.4221 73.8344
8182412 4.41295 4.39274 34 31.0287 -1.01293 11.4221 73.8344
8182422 4.8886 4.76111 34 30.5513 -1.2049 11.0986 74.201
8182435 4.8886 4.76111 34 30.5513 -1.2049 11.0986 74.201
8182442 5.4171 5.14789 34 29.9375 -1.45354 10.7458 74.5025
8182452 6.28912 5.89382 34 28.9049 -1.828 10.1325 75.0878
8182462 6.28912 5.89382 34 28.9049 -1.828 10.1325 75.0878
8182474 7.49585 6.91603 32.9664 27.6579 -1.96184 9.23802 75.0362
8182490 9.32798 8.36186 31.2339 26.1381 -2.01898 7.9299 75.0619
8182493 9.32798 8.36186 31.2339 26.1381 -2.01898 7.9299 75.0619
8182502 11.4772 10.2958 28.9896 24.0825 -2.0337 6.27278 74.8451
8182520 11.4772 10.2958 28.9896 24.0825 -2.0337 6.27278 74.8451
8182522 13.5912 12.4507 26.4893 21.7639 -1.97385 4.48441 74.2951
8182532 15.7228 14.6793 24.2252 19.416 -1.9761 2.68205 74.0434
8182546 15.7228 14.6793 24.2252 19.416 -1.9761 2.68205 74.0434
8182552 17.9566 16.7606 22.0596 17.1851 -2.05193 0.91822 73.9619
8182562 20.129 18.663 20.1008 15.2867 -2.11649 -0.688446 74.1794
8182572 20.129 18.663 20.1008 15.2867 -2.11649 -0.688446 74.1794
8182584 22.2415 20.5011 18.388 13.5448 -2.20405 -2.17138 74.6754
8182595 22.2415 20.5011 18.388 13.5448 -2.20405 -2.17138 74.6754
8182602 24.0551 22.028 16.6881 12.0599 -2.22342 -3.47485 74.8311
8182612 25.6295 23.2437 15.2428 10.6988 -2.31568 -4.59769 74.8148
8182622 25.6295 23.2437 15.2428 10.6988 -2.31568 -4.59769 74.8148
8182632 26.8552 24.2357 14.0367 9.72788 -2.3139 -5.47582 74.8555
8182646 27.6923 24.7317 13.0281 8.83315 -2.40813 -6.17135 74.2852
8182653 27.6923 24.7317 13.0281 8.83315 -2.40813 -6.17135 74.2852
8182663 28.3001 25.2958 12.2795 8.27156 -2.36433 -6.685 74.147
8182673 28.3001 25.2958 12.2795 8.27156 -2.36433 -6.685 74.147
8182685 28.7585 25.6362 11.6972 7.70997 -2.40835 -7.11109 73.8019
8182697 29.0674 25.8987 11.2294 7.42441 -2.36811 -7.39862 73.6199
8182703 29.0674 25.8987 11.2294 7.42441 -2.36811 -7.39862 73.6199
8182713 29.3365 26.1905 10.9798 7.16741 -2.36119 -7.61048 73.6742
8182723 29.5955 26.3947 10.7407 6.95801 -2.36924 -7.79457 73.689
8182733 29.5955 26.3947 10.7407 6.95801 -2.36924 -7.79457 73.689
8182747 29.8148 26.5698 10.5743 6.82475 -2.36995 -7.92564 73.7836
8182753 29.8148 26.5698 10.5743 6.82475 -2.36995 -7.92564 73.7836
8182763 30.044 26.667 10.408 6.69149 -2.40257 -8.04999 73.8105
8182773 30.1934 26.881 10.3664 6.67245 -2.36339 -8.10293 74.1133
8182783 30.1934 26.881 10.3664 6.67245 -2.36339 -8.10293 74.1133
8182797 30.3728 26.9977 10.2312 6.54871 -2.37948 -8.21114 74.1504
8182803 30.3728 26.9977 10.2312 6.54871 -2.37948 -8.21114 74.1504
8182823 30.4824 27.0463 10.2312 6.53919 -2.39844 -8.22857 74.2991
8182824 30.6219 27.1728 10.1896 6.48208 -2.40265 -8.28354 74.4664
8182834 30.6219 27.1728 10.1896 6.48208 -2.40265 -8.28354 74.4664
8182850 30.7315 27.2603 10.0856 6.35834 -2.4177 -8.37256 74.4358
8182854 30.8611 27.2992 10.0128 6.34882 -2.42409 -8.41335 74.5219
8182864 30.8611 27.2992 10.0128 6.34882 -2.42409 -8.41335 74.5219
8182878 30.9906 27.2603 10.0232 6.21557 -2.52988 -8.45998 74.4897
8182905 31.0404 27.1339 9.94006 6.1299 -2.59843 -8.50659 74.2443
8182907 31.1401 27.0755 9.90887 6.10134 -2.6514 -8.52912 74.2258
8182932 31.2597 27.0755 9.92966 6.08231 -2.70068 -8.53897 74.3472
8182935 31.3195 27.1825 9.83609 6.07279 -2.65427 -8.58607 74.4108
8182944 31.3195 27.1825 9.83609 6.07279 -2.65427 -8.58607 74.4108
8182960 31.3494 27.3186 9.87768 6.03471 -2.63932 -8.59923 74.5804
8182964 31.3494 27.3186 9.87768 6.03471 -2.63932 -8.59923 74.5804
8182974 31.3195 27.1728 9.82569 6.06327 -2.6583 -8.59154 74.3812
8182993 31.1999 26.9685 9.87768 6.08231 -2.70703 -8.54094 74.1284
8182998 31.1999 26.9685 9.87768 6.08231 -2.70703 -8.54094 74.1284
8183012 31.0305 26.881 9.98165 6.06327 -2.72723 -8.49147 73.9564
8183015 30.9009 26.7157 10.0544 6.14894 -2.74003 -8.41505 73.82
8183026 30.9009 26.7157 10.0544 6.14894 -2.74003 -8.41505 73.82
8183037 30.6518 26.6476 10.2 6.21557 -2.70931 -8.31931 73.715
8183045 30.6518 26.6476 10.2 6.21557 -2.70931 -8.31931 73.715
8183060 30.3628 26.492 10.3976 6.32979 -2.69719 -8.18014 73.5822
8183065 30.2433 26.5212 10.6367 6.57727 -2.62966 -8.01933 73.9784
8183076 30.2433 26.5212 10.6367 6.57727 -2.62966 -8.01933 73.9784
8183086 30.1835 26.5795 10.8966 6.7486 -2.60455 -7.88577 74.4082
8183095 30.0141 26.492 11.0734 6.99608 -2.54755 -7.73107 74.5755
8183110 30.0141 26.492 11.0734 6.99608 -2.54755 -7.73107 74.5755
8183117 29.6952 26.3753 11.4685 7.21501 -2.53278 -7.502 74.754
8183127 29.6952 26.3753 11.4685 7.21501 -2.53278 -7.502 74.754
8183137 29.4062 26.2878 11.6453 7.40538 -2.46116 -7.35371 74.7446
8183147 29.0774 26.1516 11.9364 7.60526 -2.42639 -7.15936 74.7706
8183161 29.0774 26.1516 11.9364 7.60526 -2.42639 -7.15936 74.7706
8183167 28.7186 25.9376 12.1235 7.81467 -2.37614 -6.98136 74.5945
8183177 28.3898 25.7334 12.4979 8.11926 -2.35315 -6.7245 74.7403
8183187 28.3898 25.7334 12.4979 8.11926 -2.35315 -6.7245 74.7403
8183197 28.041 25.5486 12.9034 8.49048 -2.30227 -6.44058 74.9835
8183210 28.041 25.5486 12.9034 8.49048 -2.30227 -6.44058 74.9835
8183217 27.6524 25.4027 13.3089 8.78555 -2.25316 -6.17982 75.1496
8183227 27.3036 25.2277 13.8183 9.19485 -2.21705 -5.86107 75.5445
8183237 27.3036 25.2277 13.8183 9.19485 -2.21705 -5.86107 75.5445
8183247 26.8154 24.9943 14.1927 9.61366 -2.11598 -5.55504 75.616
8183260 26.1079 24.4108 14.7333 9.94681 -2.15549 -5.15403 75.1987
8183267 26.1079 24.4108 14.7333 9.94681 -2.15549 -5.15403 75.1987
8183277 25.4103 23.9148 15.3884 10.4989 -2.12234 -4.67433 75.2123
8183287 25.4103 23.9148 15.3884 10.4989 -2.12234 -4.67433 75.2123
8183297 24.6032 23.3701 16.1578 11.0319 -2.11504 -4.1477 75.163
8183310 23.5768 22.6018 17.128 11.7839 -2.10381 -3.44919 75.0905
8183317 23.5768 22.6018 17.128 11.7839 -2.10381 -3.44919 75.0905
8183327 22.68 21.7946 18.1616 12.6881 -2.11046 -2.71325 75.3243
8183337 21.7732 20.7735 19.4215 13.6971 -2.22168 -1.86902 75.6652
8183347 21.7732 20.7735 19.4215 13.6971 -2.22168 -1.86902 75.6652
8183359 20.956 19.6259 20.6323 14.9726 -2.29368 -0.979899 76.1868
8183377 20.0094 18.3616 21.8529 16.3147 -2.34721 -0.0398505 76.5385
8183388 19.0229 17.1167 22.9948 17.8768 -2.28024 0.921687 77.0111
8183398 19.0229 17.1167 22.9948 17.8768 -2.28024 0.921687 77.0111
8183411 17.9467 15.8949 24.2646 19.2991 -2.26639 1.88402 77.4053
8183419 16.8238 14.5964 25.3573 20.5948 -2.2585 2.81726 77.3724
8183435 16.8238 14.5964 25.3573 20.5948 -2.2585 2.81726 77.3724
8183438 15.758 13.2611 26.4794 21.8516 -2.30277 3.74502 77.3502
8183448 15.758 13.2611 26.4794 21.8516 -2.30277 3.74502 77.3502
8183459 14.4368 11.8337 27.513 23.2739 -2.21983 4.77238 77.0574
8183468 13.0539 10.2405 28.9305 24.8619 -2.2319 5.93448 77.0868
8183483 13.0539 10.2405 28.9305 24.8619 -2.2319 5.93448 77.0868
8183488 11.3891 8.77627 30.85 26.4596 -2.25985 7.19152 77.475
8183498 9.95337 7.487 32.6022 27.9014 -2.29881 8.28735 77.944
8183509 9.95337 7.487 32.6022 27.9014 -2.29881 8.28735 77.944
8183520 8.63212 6.44637 34 28.9828 -2.30682 9.20513 78.0613
8183538 7.48705 5.58072 34 29.7037 -2.01983 9.89351 76.7715
8183549 6.55337 4.9545 34 30.2395 -1.76882 10.4423 75.7474
8183569 5.91036 4.53088 34 30.6 -1.59228 10.8258 75.0412
8183584 5.36425 4.53088 34 30.4928 -1.45875 11.0094 74.388
8183589 5.36425 4.21777 34 30.4928 -1.57059 11.1193 74.0749
8183599 5.1 4.0428 34 30.3175 -1.61302 11.2662 73.4603
8183612 5.1 4.0428 34 30.3175 -1.61302 11.2662 73.4603
8183619 5.12642 4.06121 34 30.1616 -1.67132 11.2422 73.3492
8183639 5.46114 4.2454 34 30.3467 -1.64376 11.0677 74.0532
8183641 5.46114 4.2454 34 30.3467 -1.64376 11.0677 74.0532
8183650 5.64611 4.29144 34 30.7948 -1.52539 11.0107 74.7324
8183666 5.63731 4.31907 34 31.1553 -1.38558 11.0234 75.1117
8183670 5.63731 4.31907 34 31.1553 -1.38558 11.0234 75.1117
8183680 5.58446 4.28223 34 31.3891 -1.29994 11.0667 75.2558
8183694 5.58446 4.28223 34 31.3891 -1.29994 11.0667 75.2558
8183700 5.47876 4.17172 34 31.5352 -1.25416 11.1493 75.1857
8183720 5.38187 4.10726 34 31.6327 -1.21201 11.2105 75.1218
8183722 5.38187 4.10726 34 31.6327 -1.21201 11.2105 75.1218
8183730 5.32902 4.09805 34 31.506 -1.24276 11.2258 74.9331
8183748 5.32902 4.09805 34 31.506 -1.24276 11.2258 74.9331
8183750 5.22332 4.02438 34 31.3501 -1.28985 11.281 74.5978
8183760 5.24974 4.07042 34 31.2917 -1.30262 11.2525 74.6119
8183774 5.24974 4.07042 34 31.2917 -1.30262 11.2525 74.6119
8183781 5.23212 4.052 34 31.2332 -1.32415 11.2623 74.5174
8183798 5.17047 3.98754 34 31.3404 -1.28946 11.3121 74.4984
8183800 5.17047 3.98754 34 31.3404 -1.28946 11.3121 74.4984
8183810 5.10881 3.98754 34 31.545 -1.19782 11.344 74.6413
8183823 5.10881 3.98754 34 31.545 -1.19782 11.344 74.6413
8183830 4.9943 3.9415 34 31.7301 -1.11253 11.4097 74.6659
8183849 4.8886 3.9415 34 31.8957 -1.02087 11.455 74.7258
8183852 4.8886 3.9415 34 31.8957 -1.02087 11.455 74.7258
8183862 4.81813 3.96912 34 32.1295 -0.907506 11.4812 74.9168
8183874 4.76529 3.95991 34 32.2659 -0.846592 11.5095 74.9911
8183882 4.76529 3.95991 34 32.2659 -0.846592 11.5095 74.9911
8183898 4.6772 3.95991 34 32.3438 -0.791349 11.5443 74.981
8183902 4.6772 3.95991 34 32.3438 -0.791349 11.5443 74.981
8183912 4.61554 3.9415 34 32.2464 -0.811335 11.5682 74.8035
8183923 4.52746 3.93229 34 32.3828 -0.739008 11.609 74.8426
8183932 4.52746 3.93229 34 32.3828 -0.739008 11.609 74.8426
8183949 4.48342 3.86782 34 32.4218 -0.733495 11.6494 74.773
8183953 4.47461 3.87703 34 32.4997 -0.700676 11.6527 74.8514
8183962 4.47461 3.87703 34 32.4997 -0.700676 11.6527 74.8514
8183974 4.43938 3.8494 34 32.4997 -0.698724 11.6751 74.7885
8183982 4.43938 3.8494 34 32.4997 -0.698724 11.6751 74.7885
8183999 4.39534 3.86782 34 32.4802 -0.684774 11.6834 74.7434
8184002 4.43057 3.87703 34 32.2951 -0.756814 11.6593 74.6027
8184012 4.43057 3.87703 34 32.2951 -0.756814 11.6593 74.6027
8184024 4.4658 3.87703 34 32.3438 -0.751451 11.6489 74.6867
8184032 4.49223 3.9415 34 32.4218 -0.711024 11.62 74.8555
8184049 4.49223 3.9415 34 32.4218 -0.711024 11.62 74.8555
8184054 4.457 3.9507 34 32.4315 -0.693078 11.6297 74.8392
8184062 4.457 3.9507 34 32.4315 -0.693078 11.6297 74.8392
8184074 4.41295 3.9415 34 32.4413 -0.678581 11.6491 74.7957
8184082 4.37772 3.95991 34 32.4413 -0.660795 11.6551 74.7789
8184100 4.37772 3.95991 34 32.4413 -0.660795 11.6551 74.7789
8184103 4.457 4.00596 34 32.3633 -0.69752 11.607 74.8263
8184113 4.4658 3.98754 34 32.4023 -0.693326 11.6121 74.8556
8184128 4.4658 3.98754 34 32.4023 -0.693326 11.6121 74.8556
8184134 4.43938 4.10726 34 32.4607 -0.623731 11.5817 75.0074
8184143 4.43938 4.10726 34 32.4607 -0.623731 11.5817 75.0074
8184157 4.48342 4.10726 34 32.4218 -0.651354 11.5643 75.0125
8184164 4.5715 4.19014 34 32.2951 -0.694886 11.498 75.0568
8184173 4.5715 4.19014 34 32.2951 -0.694886 11.498 75.0568
8184187 4.54508 4.22698 34 32.1587 -0.720452 11.4879 74.9308
8184193 4.61554 4.22698 34 32.1587 -0.743264 11.4631 75.0013
8184211 4.61554 4.2546 34 32.0905 -0.757195 11.4501 74.9607
8184213 4.75648 4.3467 34 31.9444 -0.821269 11.361 75.0476
8184223 4.75648 4.3467 34 31.9444 -0.821269 11.361 75.0476
8184237 4.98549 4.47562 34 31.8275 -0.890692 11.2301 75.2886
8184243 5.18808 4.6506 34 31.6619 -0.952174 11.0906 75.5006
8184253 5.18808 4.6506 34 31.6619 -0.952174 11.0906 75.5006
8184263 5.48756 4.82557 34 31.3891 -1.08084 10.913 75.7022
8184273 5.48756 4.82557 34 31.3891 -1.08084 10.913 75.7022
8184285 5.82228 5.06501 34 31.1553 -1.1842 10.7048 76.0426
8184293 6.26269 5.37811 33.8031 30.8436 -1.25976 10.4223 76.2875
8184310 6.26269 5.37811 33.8031 30.8436 -1.25976 10.4223 76.2875
8184313 6.85285 5.77411 33.0944 30.1713 -1.31824 10.0086 75.8927
8184323 7.61036 6.31744 32.0805 29.353 -1.33371 9.45559 75.3613
8184340 7.61036 6.31744 32.0805 29.353 -1.33371 9.45559 75.3613
8184343 8.85233 7.25677 30.8008 28.1255 -1.42295 8.5594 75.0354
8184353 8.85233 7.25677 30.8008 28.1255 -1.42295 8.5594 75.0354
8184370 10.3321 8.81311 28.9994 26.3817 -1.38769 7.29323 74.5263
8184374 12.2523 10.9036 27.0307 24.404 -1.33242 5.6868 74.5906
8184383 12.2523 10.9036 27.0307 24.404 -1.33242 5.6868 74.5906
8184398 14.3223 12.9019 25.0521 22.3289 -1.38848 4.05269 74.6053
8184403 16.3306 14.8911 23.1031 20.1759 -1.46529 2.42762 74.5007
8184423 18.3253 16.6777 21.3312 18.1106 -1.63485 0.894381 74.4448
8184433 18.3253 16.6777 21.3312 18.1106 -1.63485 0.894381 74.4448
8184445 20.3083 18.3227 19.6381 16.2195 -1.8138 -0.558487 74.4886
8184453 22.092 19.7426 17.9647 14.5823 -1.9265 -1.87297 74.3816
8184474 22.092 19.7426 17.9647 14.5823 -1.9265 -1.87297 74.3816
8184476 23.6964 21.2014 16.5425 13.0308 -2.01645 -3.08666 74.471
8184484 24.9121 22.1836 15.2532 11.7363 -2.10749 -4.0709 74.0852
8184504 24.9121 22.1836 15.2532 11.7363 -2.10749 -4.0709 74.0852
8184506 26.0182 23.1465 14.1615 10.7273 -2.12882 -4.91723 74.0534
8184514 26.0182 23.1465 14.1615 10.7273 -2.12882 -4.91723 74.0534
8184535 26.8154 23.8175 13.3297 9.76596 -2.22491 -5.60243 73.7285
8184537 27.6026 24.5177 12.685 9.07111 -2.26687 -6.1652 73.8764
8184544 27.6026 24.5177 12.685 9.07111 -2.26687 -6.1652 73.8764
8184563 28.051 24.9554 12.1547 8.61422 -2.24877 -6.55451 73.7753
8184565 28.051 24.9554 12.1547 8.61422 -2.24877 -6.55451 73.7753
8184574 28.6788 25.4805 11.822 8.21445 -2.29319 -6.89854 74.1958
8184590 29.197 25.9765 11.5517 7.95745 -2.2812 -7.16319 74.6826
8184594 29.197 25.9765 11.5517 7.95745 -2.2812 -7.16319 74.6826
8184604 29.5856 26.2391 11.2398 7.74804 -2.2851 -7.38585 74.8125
8184617 29.9443 26.5698 10.9694 7.52912 -2.27123 -7.60183 75.0126
8184624 29.9443 26.5698 10.9694 7.52912 -2.27123 -7.60183 75.0126
8184634 30.1934 26.8421 10.8031 7.38634 -2.24927 -7.746 75.2249
8184644 30.3728 26.8421 10.5743 7.19597 -2.30347 -7.89048 74.9852
8184655 30.3728 27.1533 10.5743 7.19597 -2.19062 -7.91987 75.2964
8184672 30.5821 27.2992 10.356 6.96753 -2.21771 -8.08947 75.2048
8184675 30.5821 27.2992 10.356 6.96753 -2.21771 -8.08947 75.2048
8184687 30.8511 27.484 10.1376 6.75812 -2.24198 -8.26244 75.2308
8184698 31.0006 27.4743 9.94006 6.63438 -2.27584 -8.37458 75.0493
8184706 31.0006 27.4743 9.94006 6.63438 -2.27584 -8.37458 75.0493
8184715 31.1002 27.4256 9.7633 6.42497 -2.34659 -8.49992 74.7141
8184725 31.18 27.2992 9.53456 6.31075 -2.38971 -8.60427 74.3245
8184759 31.1999 27.1922 9.39939 6.17749 -2.44344 -8.6824 73.969
8184761 31.1999 27.1922 9.39939 6.17749 -2.44344 -8.6824 73.969
8184767 31.2198 27.1436 9.23303 5.93001 -2.50904 -8.81323 73.5264
8184789 31.2597 27.0463 9.14985 5.92049 -2.53579 -8.83848 73.3764
8184797 31.3294 26.8907 9.02508 5.84435 -2.60619 -8.89677 73.0896
8184815 31.2995 26.6865 9.02508 5.78723 -2.6961 -8.89589 72.7983
8184817 31.2995 26.6865 9.02508 5.78723 -2.6961 -8.89589 72.7983
8184827 31.2198 26.667 9.05627 5.74916 -2.70313 -8.88982 72.6923
8184840 31.2198 26.667 9.05627 5.74916 -2.70313 -8.88982 72.6923
8184847 31.2397 26.7351 9.09786 5.83483 -2.66353 -8.8555 72.9076
8184857 31.3095 26.8713 9.13945 5.85386 -2.63885 -8.85302 73.1741
8184868 31.3095 26.8713 9.13945 5.85386 -2.63885 -8.85302 73.1741
8184877 31.4689 27.0366 9.26422 5.93953 -2.63095 -8.81201 73.7093
8184894 31.4689 27.0366 9.26422 5.93953 -2.63095 -8.81201 73.7093
8184896 31.5586 27.095 9.3682 6.03471 -2.63216 -8.76034 74.0565
8184921 31.5487 27.1533 9.48257 6.12038 -2.61003 -8.70044 74.3049
8184923 31.5487 27.1533 9.48257 6.12038 -2.61003 -8.70044 74.3049
8184928 31.5686 27.163 9.54495 6.19653 -2.60294 -8.65886 74.4731
8184946 31.5088 27.2117 9.72171 6.32979 -2.57083 -8.55982 74.772
8184948 31.5088 27.2117 9.72171 6.32979 -2.57083 -8.55982 74.772
8184958 31.4689 27.27 9.82569 6.47256 -2.5161 -8.48393 75.0372
8184972 31.4689 27.27 10.0128 6.47256 -2.57204 -8.4255 75.2244
8184978 31.4191 27.2019 10.0128 6.51064 -2.56817 -8.40332 75.1445
8184988 31.2896 27.0561 10.1688 6.63438 -2.58418 -8.29204 75.1488
8185000 31.2896 27.0561 10.1688 6.63438 -2.58418 -8.29204 75.1488
8185008 31.18 26.9296 10.304 6.80571 -2.57533 -8.17608 75.2193
8185023 30.9408 26.8421 10.4495 6.83427 -2.56904 -8.09262 75.0667
8185038 30.9109 26.7643 10.4391 6.86282 -2.57509 -8.07711 74.9772
8185049 30.6419 26.6768 10.5015 6.96753 -2.50679 -7.99254 74.7877
8185059 30.6419 26.6768 10.5015 6.96753 -2.50679 -7.99254 74.7877
8185074 30.4725 26.492 10.6159 6.94849 -2.5654 -7.92983 74.5288
8185079 30.4725 26.492 10.6159 6.94849 -2.5654 -7.92983 74.5288
8185089 30.2931 26.4142 10.6575 7.10078 -2.49632 -7.84571 74.4655
8185108 30.024 26.3364 10.7303 7.14838 -2.44802 -7.77524 74.2391
8185128 29.8546 26.21 10.8446 7.22452 -2.4499 -7.68788 74.1338
8185130 29.6852 26.0835 11.0318 7.29115 -2.47746 -7.58097 74.0917
8185141 29.6852 26.0835 11.0318 7.29115 -2.47746 -7.58097 74.0917
8185155 29.5955 25.9863 11.2502 7.40538 -2.51021 -7.46113 74.2373
8185160 29.5955 25.9863 11.2502 7.40538 -2.51021 -7.46113 74.2373
8185171 29.5557 25.9376 11.2398 7.42441 -2.50595 -7.44952 74.1575
8185183 29.5358 25.8307 11.4165 7.5196 -2.55779 -7.35445 74.3025
8185209 29.4361 25.8696 11.6141 7.59574 -2.54473 -7.26611 74.5155
8185212 29.4361 25.714 11.7076 7.65286 -2.60934 -7.20493 74.5106
8185236 29.3664 25.6945 11.9156 7.79563 -2.60519 -7.09148 74.7721
8185251 29.2169 25.607 12.03 7.85274 -2.6059 -7.01568 74.7066
8185262 29.1471 25.3833 12.2795 7.986 -2.69311 -6.87168 74.7959
8185272 29.1471 25.3833 12.2795 7.986 -2.69311 -6.87168 74.7959
8185289 28.898 25.2666 12.4043 8.10974 -2.65336 -6.75908 74.6786
8185292 28.6887 24.9457 12.7162 8.26204 -2.74661 -6.56514 74.6126
8185302 28.6887 24.9457 12.7162 8.26204 -2.74661 -6.56514 74.6126
8185316 28.33 24.6247 13.0177 8.45241 -2.77818 -6.34558 74.4249
8185322 28.33 24.6247 13.0177 8.45241 -2.77818 -6.34558 74.4249
8185332 27.8118 24.0509 13.496 8.79507 -2.85281 -5.98182 74.1539
8185345 27.214 23.4285 14.0783 9.271 -2.90328 -5.53301 73.9917
8185353 27.214 23.4285 14.0783 9.271 -2.90328 -5.53301 73.9917
8185371 26.2773 22.4365 14.9933 10.061 -2.97317 -4.81091 73.7681
8185372 26.2773 22.4365 16.5113 10.061 -3.41731 -4.41145 75.2861
8185382 25.2608 21.2792 16.5113 11.2984 -3.09165 -3.77882 74.3498
8185398 24.3939 20.3942 18.3781 13.0594 -3.05623 -2.62719 76.2255
8185402 24.3939 20.3942 18.3781 13.0594 -3.05623 -2.62719 76.2255
8185412 23.4572 19.5189 20.1598 14.944 -2.93102 -1.51235 78.0799
8185424 22.4508 18.5463 21.8332 16.6288 -2.8659 -0.478564 79.4591
8185432 22.4508 18.5463 21.8332 16.6288 -2.8659 -0.478564 79.4591
8185442 21.2649 17.2918 23.0046 17.9352 -2.8437 0.449674 79.4966
8185452 21.2649 17.2918 23.0046 17.9352 -2.8437 0.449674 79.4966
8185462 20.1389 15.9778 23.8217 18.8315 -2.90443 1.24473 78.7699
8185478 19.0029 14.8727 24.2745 19.6986 -2.79585 1.94558 77.8487
8185482 19.0029 14.8727 24.2745 19.6986 -2.79585 1.94558 77.8487
8185492 17.7573 13.6847 24.7568 20.3513 -2.76881 2.67786 76.5501
8185504 16.7181 12.5704 25.3179 20.9845 -2.80492 3.37617 75.591
8185512 16.7181 12.5704 25.3179 20.9845 -2.80492 3.37617 75.591
8185530 15.8021 11.4653 26.0365 21.8711 -2.82746 4.11842 75.1749
8185546 14.7275 10.3787 27.2177 23.0499 -2.82481 5.00734 75.3737
8185555 13.6881 9.39328 28.4974 24.2384 -2.82053 5.86696 75.8172
8185562 13.6881 9.39328 28.4974 24.2384 -2.82053 5.86696 75.8172
8185580 12.543 8.56446 29.9247 25.3977 -2.78214 6.71497 76.4299
8185582 11.3979 8.56446 31.5489 25.3977 -2.92055 7.21325 76.909
8185592 11.3979 7.6896 31.5489 26.557 -2.81767 7.58194 77.1935
