11084922 6.50052 7.31203 33.2125 32.0126 -0.12285 9.75723 79.0377
11084932 6.00725 6.85157 33.685 32.4997 -0.107846 10.1196 79.0435
11084942 7.7513 6.85157 34 32.4997 -0.739808 9.59837 81.1026
11084953 5.49637 6.40953 34 32.9381 -0.0471592 10.4698 78.844
11084962 5.08238 6.02275 34 33.5129 0.144133 10.7624 78.618
11084972 5.08238 6.02275 34 33.5129 0.144133 10.7624 78.618
11084983 4.73886 5.67281 34 33.9415 0.279343 11.0136 78.3532
11084992 4.36891 5.38732 34 34 0.327438 11.2358 77.7562
11085002 4.36891 5.38732 34 34 0.327438 11.2358 77.7562
11085012 4.12228 5.14789 34 34 0.331828 11.4009 77.2702
11085022 4.12228 5.14789 34 34 0.331828 11.4009 77.2702
11085046 3.76114 4.90845 34 34 0.374112 11.6077 76.6696
11085048 3.62902 4.84399 34 34 0.397187 11.6761 76.473
11085062 3.49689 4.67822 34 34 0.387704 11.7804 76.1751
11085072 3.36477 4.67822 34 34 0.431812 11.8269 76.043
11085082 3.36477 4.67822 34 34 0.431812 11.8269 76.043
11085092 3.31192 4.60455 34 34 0.425676 11.8716 75.9165
11085104 3.31192 4.60455 34 34 0.425676 11.8716 75.9165
11085122 3.14456 4.52167 34 34 0.454992 11.9605 75.6662
11085132 3.14456 4.52167 34 34 0.454992 11.9605 75.6662
11085143 3.0829 4.52167 34 34 0.475752 11.9825 75.6046
11085152 2.96839 4.47562 34 34 0.499454 12.0399 75.444
11085162 2.96839 4.47562 34 34 0.499454 12.0399 75.444
11085172 2.98601 4.42037 34 34 0.475541 12.0534 75.4064
11085182 2.98601 4.42037 34 34 0.475541 12.0534 75.4064
11085192 2.8715 4.38353 34 34 0.502303 12.1078 75.255
11085202 2.96839 4.42037 34 34 0.481495 12.0597 75.3888
11085212 2.96839 4.42037 34 34 0.481495 12.0597 75.3888
11085222 3.06528 4.50325 34 34 0.475717 11.9954 75.5685
11085232 3.06528 4.50325 34 34 0.475717 11.9954 75.5685
11085243 3.04767 4.50325 34 34 0.481656 12.0017 75.5509
11085256 3.06528 4.60455 34 34 0.508547 11.9592 75.6698
11085263 3.06528 4.60455 34 34 0.508547 11.9592 75.6698
11085273 3.0829 4.57692 34 34 0.493667 11.9628 75.6598
11085283 3.06528 4.53088 34 34 0.484678 11.9855 75.5962
11085293 3.06528 4.53088 34 34 0.484678 11.9855 75.5962
11085303 3.0829 4.48483 34 34 0.463799 11.9956 75.5677
11085313 3.04767 4.48483 34 34 0.475678 12.0082 75.5325
11085323 3.04767 4.43879 34 34 0.46072 12.0247 75.4865
11085333 3.06528 4.42958 34 34 0.451785 12.0217 75.4949
11085346 3.06528 4.42958 34 34 0.451785 12.0217 75.4949
11085356 3.00363 4.40195 34 34 0.463602 12.0537 75.4056
11085365 3.04767 4.42958 34 34 0.457722 12.028 75.4772
11085378 3.04767 4.42958 34 34 0.457722 12.028 75.4772
11085389 3.0829 4.48483 34 34 0.463799 11.9956 75.5677
11085398 3.10933 4.48483 34 34 0.454897 11.9862 75.5942
11085407 3.10933 4.46641 34 34 0.448915 11.9928 75.5757
11085414 3.13575 4.448 34 34 0.434035 11.9899 75.5837
11085425 3.13575 4.448 34 34 0.434035 11.9899 75.5837
11085435 3.15337 4.49404 34 34 0.443068 11.9672 75.6474
11085456 3.1886 4.47562 34 34 0.425243 11.9612 75.6642
11085457 3.1886 4.47562 34 34 0.425243 11.9612 75.6642
11085465 3.19741 4.53088 34 34 0.440213 11.9384 75.7283
11085476 3.32073 4.61376 34 34 0.425705 11.8653 75.9345
11085486 3.32073 4.61376 34 34 0.425705 11.8653 75.9345
11085496 3.39119 4.70585 34 34 0.431898 11.8079 76.097
11085506 3.39119 4.70585 34 34 0.431898 11.8079 76.097
11085516 3.48808 4.74269 34 34 0.411448 11.7608 76.2308
11085526 3.57617 4.78873 34 34 0.396967 11.7138 76.3649
11085536 3.57617 4.78873 34 34 0.396967 11.7138 76.3649
11085546 3.63782 4.8532 34 34 0.397226 11.6698 76.491
11085556 3.63782 4.8532 34 34 0.397226 11.6698 76.491
11085566 3.72591 4.9545 34 34 0.400555 11.6039 76.6804
11085576 3.84922 5.12026 34 34 0.41284 11.504 76.9695
11085587 3.84922 5.12026 34 34 0.41284 11.504 76.9695
11085596 4.043 5.23077 34 34 0.384271 11.3996 77.2738
11085607 4.28964 5.41495 34 34 0.362048 11.2533 77.7046
11085616 4.28964 5.41495 34 34 0.362048 11.2533 77.7046
11085627 4.59793 5.70964 34 34 0.354919 11.0511 78.3076
11085636 4.59793 5.70964 34 34 0.354919 11.0511 78.3076
11085648 4.73005 5.88462 33.8819 34 0.405332 10.9433 78.4965
11085656 5.17927 6.2714 33.3405 33.3278 0.345448 10.6026 78.1189
11085668 5.17927 6.2714 33.3405 33.3278 0.345448 10.6026 78.1189
11085677 5.89275 6.99892 32.4053 32.3341 0.333288 10.0181 77.6311
11085687 6.89689 8.15926 31.0272 30.863 0.356805 9.12988 76.9464
11085697 6.89689 8.15926 31.0272 30.863 0.356805 9.12988 76.9464
11085708 8.30622 9.64193 29.531 29.5186 0.429675 8.00701 76.9977
11085717 8.30622 9.64193 29.531 29.5186 0.429675 8.00701 76.9977
11085727 9.54819 11.0049 28.3793 28.3106 0.449237 7.0175 77.2429
11085737 10.7549 12.1652 27.2571 27.1903 0.434119 6.11249 77.3675
11085747 10.7549 12.1652 27.2571 27.1903 0.434119 6.11249 77.3675
11085757 11.7767 13.2243 26.2137 26.0504 0.415567 5.29278 77.265
11085769 12.7104 14.3294 25.377 25.008 0.40364 4.52283 77.4247
11085778 12.7104 14.3294 25.377 25.008 0.40364 4.52283 77.4247
11085788 13.6969 15.2595 24.5206 23.8779 0.29732 3.77005 77.3549
11085798 14.6922 16.1436 23.6346 22.7868 0.195298 3.02606 77.2572
11085808 14.6922 16.1436 23.6346 22.7868 0.195298 3.02606 77.2572
11085818 15.5466 16.9632 22.7389 21.647 0.105554 2.31665 76.8956
11085828 15.5466 16.9632 22.7389 21.647 0.105554 2.31665 76.8956
11085838 16.3218 17.7002 21.6561 20.4585 0.0593901 1.59434 76.1365
11085848 17.1395 18.4296 20.7504 19.4648 0.00146627 0.919594 75.7843
11085858 17.1395 18.4296 20.7504 19.4648 0.00146627 0.919594 75.7843
11085868 17.9766 19.2368 19.9039 18.5295 -0.037697 0.241914 75.6468
11085879 18.5744 19.8884 19.0967 17.6722 -0.036718 -0.337753 75.2318
11085899 19.262 20.5692 18.4273 17.0779 -0.0140011 -0.86133 75.3365
11085909 19.262 20.5692 18.4273 17.0779 -0.0140011 -0.86133 75.3365
11085919 19.84 21.0944 17.8859 16.486 -0.0483051 -1.30715 75.3063
11085929 20.3482 21.6876 17.4725 16.1338 0.0002563 -1.67159 75.6421
11085939 20.3482 21.6876 17.4725 16.1338 0.0002563 -1.67159 75.6421
11085950 20.9261 22.3295 17.0886 15.715 0.00979304 -2.0613 76.0593
11085959 21.3646 22.8061 16.6569 15.4485 0.0763923 -2.37269 76.276
11085971 21.3646 22.8061 16.6569 15.4485 0.0763923 -2.37269 76.276
11085979 21.7333 23.2923 16.4281 15.1629 0.09588 -2.63022 76.6167
11085990 21.7333 23.2923 16.4281 15.1629 0.09588 -2.63022 76.6167
11085999 22.0422 23.7397 16.1058 14.9345 0.171235 -2.87839 76.8222
11086009 22.3411 24.1773 15.7939 14.5918 0.206146 -3.14667 76.9042
11086019 22.3411 24.1773 15.7939 14.5918 0.206146 -3.14667 76.9042
11086030 22.6102 24.6344 15.3884 14.3348 0.315291 -3.41469 76.9678
11086048 23.0088 24.6344 14.9309 16.3623 0.968191 -3.10695 78.9364
11086051 23.0088 25.111 14.9309 13.9255 0.356227 -3.75376 76.9762
11086072 23.3974 25.6167 14.4422 13.4972 0.413978 -4.10795 76.9535
11086074 23.3974 25.6167 14.4422 13.4972 0.413978 -4.10795 76.9535
11086082 23.806 26.0543 13.9119 12.9166 0.408474 -4.50493 76.6888
11086091 24.2644 26.492 13.392 12.4597 0.422692 -4.87637 76.6081
11086101 24.2644 26.492 13.392 12.4597 0.422692 -4.87637 76.6081
11086111 24.6032 26.9199 12.8722 12.0694 0.495002 -5.21446 76.4647
11086121 24.9021 26.9199 12.4875 11.7839 0.431773 -5.43096 76.0934
11086131 24.9021 27.2214 12.4875 11.7839 0.528732 -5.46873 76.3948
11086142 25.2309 27.6299 12.0924 11.4698 0.581083 -5.75064 76.4229
11086162 25.5 27.8827 11.8116 11.2984 0.611016 -5.93638 76.4928
11086172 25.8986 28.0967 11.5725 11.0129 0.534886 -6.15232 76.5806
11086192 26.1577 28.3593 11.3229 10.9082 0.582042 -6.3101 76.7481
11086203 26.1776 28.6024 11.0838 10.7464 0.681165 -6.45147 76.6102
11086223 26.347 28.6997 10.9798 10.6702 0.665948 -6.53157 76.6967
11086233 26.347 28.6997 10.9798 10.6702 0.665948 -6.53157 76.6967
11086243 26.3769 28.8066 10.855 10.5941 0.707516 -6.60314 76.6327
11086253 26.4766 28.9136 10.7303 10.4989 0.719684 -6.68781 76.6193
11086264 26.4766 28.9136 10.7303 10.4989 0.719684 -6.68781 76.6193
11086274 26.5862 28.9914 10.6055 10.4418 0.731328 -6.75962 76.6249
11086288 26.6559 29.1081 10.5327 10.4323 0.766245 -6.80298 76.729
11086294 26.6559 29.1081 10.5327 10.4323 0.766245 -6.80298 76.729
11086304 26.7556 29.1567 10.4495 10.3561 0.75202 -6.8641 76.718
11086314 26.6958 29.1567 10.3768 10.3561 0.796598 -6.87853 76.5854
11086324 26.6958 29.1081 10.3768 10.4037 0.79627 -6.85978 76.5844
11086334 26.636 29.147 10.356 10.4703 0.856751 -6.84448 76.6093
11086344 26.636 29.147 10.356 10.4703 0.856751 -6.84448 76.6093
11086356 26.6559 29.0595 10.2728 10.4513 0.844491 -6.86648 76.4395
11086366 26.4865 29.0595 10.3976 10.4989 0.874615 -6.79915 76.4425
11086376 26.4865 29.0595 10.3976 10.4989 0.874615 -6.79915 76.4425
11086391 26.347 29.0206 10.4599 10.6512 0.936478 -6.71883 76.4787
11086396 26.2274 28.8747 10.5847 10.832 0.945714 -6.60335 76.5189
11086406 26.2274 28.8747 10.5847 10.832 0.945714 -6.60335 76.5189
11086416 26.068 28.758 10.8343 11.07 0.95326 -6.43588 76.7302
11086426 26.068 28.758 10.8343 11.07 0.95326 -6.43588 76.7302
11086436 25.8189 28.5635 10.959 11.2984 1.00602 -6.28751 76.6398
11086446 25.5897 28.3982 11.2086 11.6792 1.06637 -6.06827 76.8756
11086470 25.1413 27.8924 11.4685 12.1361 1.11522 -5.76001 76.6383
11086482 25.1413 27.8924 11.4685 12.1361 1.11522 -5.76001 76.6383
11086486 24.7726 27.6007 11.77 12.8024 1.25428 -5.41958 76.9456
11086498 24.374 27.1922 12.1235 13.2973 1.29633 -5.0941 76.9871
11086506 24.374 27.1922 12.1235 13.2973 1.29633 -5.0941 76.9871
11086516 24.0252 26.8227 12.3835 13.7542 1.35356 -4.81457 76.9855
11086526 23.6266 26.4823 12.6538 14.1254 1.40699 -4.55135 76.8881
11086536 23.6266 26.4823 12.6538 14.1254 1.40699 -4.55135 76.8881
11086545 23.3077 26.0835 13.0593 14.7632 1.45039 -4.19008 77.2137
11086557 23.3077 26.0835 13.0593 14.7632 1.45039 -4.19008 77.2137
11086566 22.8394 25.5389 13.496 15.1915 1.42572 -3.83259 77.0658
11086576 22.4209 25.0332 13.9639 15.7531 1.42588 -3.44761 77.171
11086587 22.4209 25.0332 13.9639 15.7531 1.42588 -3.44761 77.171
11086597 21.7732 24.4302 14.463 16.3718 1.48168 -2.9924 77.0381
11086608 21.0059 23.6133 15.222 17.2241 1.49531 -2.36937 77.0652
11086617 21.0059 23.6133 15.222 17.2241 1.49531 -2.36937 77.0652
11086627 20.0891 22.6699 16.293 18.208 1.45479 -1.60329 77.26
11086637 20.0891 22.6699 16.293 18.208 1.45479 -1.60329 77.26
11086647 18.8335 21.5029 17.7186 19.4745 1.42695 -0.608152 77.5295
11086657 17.3488 20.0441 19.6479 21.1112 1.33027 0.646107 78.1519
11086666 17.3488 20.0441 19.6479 21.1112 1.33027 0.646107 78.1519
11086685 16.0311 18.4977 21.5182 22.855 1.2051 1.87152 78.9021
11086688 14.842 16.9908 23.1424 24.5014 1.10341 2.98411 79.4766
11086708 13.7057 15.6186 24.3926 25.8264 1.05185 3.94023 79.5433
11086728 12.5606 14.3294 25.4655 26.8395 0.992087 4.81377 79.1951
11086738 11.5477 13.2151 26.5877 27.8722 0.931513 5.62286 79.2227
11086752 11.5477 13.2151 26.5877 27.8722 0.931513 5.62286 79.2227
11086759 10.5611 12.2297 27.6016 28.749 0.889522 6.36072 79.1414
11086770 9.75078 11.318 28.4285 29.4991 0.834802 6.99884 78.9964
11086779 9.75078 11.318 28.4285 29.4991 0.834802 6.99884 78.9964
11086789 8.98446 10.6273 29.0585 30.1421 0.864866 7.53477 78.8124
11086810 8.47358 9.97346 29.531 30.6682 0.838277 7.96328 78.6462
11086821 7.98912 9.53142 29.9936 31.1163 0.847319 8.31536 78.6305
11086829 7.98912 9.53142 29.9936 31.1163 0.847319 8.31536 78.6305
11086842 7.53109 9.03413 30.4563 31.4768 0.803694 8.66921 78.4983
11086849 7.25803 8.67497 30.8008 31.8762 0.792632 8.91948 78.61
11086863 7.25803 8.67497 30.8008 31.8762 0.792632 8.91948 78.61
11086869 6.97617 8.34344 31.2438 32.2367 0.748786 9.16766 78.8001
11086884 6.5886 7.92904 31.7458 32.7238 0.733793 9.48608 78.9872
11086901 6.28031 7.57909 32.1986 33.1914 0.7229 9.7535 79.2494
11086911 6.28031 7.57909 32.1986 33.1914 0.7229 9.7535 79.2494
11086922 5.89275 7.21993 32.553 33.5713 0.740042 10.0354 79.237
11086932 5.63731 6.93445 32.8778 33.8344 0.710642 10.243 79.284
11086942 5.63731 6.93445 32.8778 33.8344 0.710642 10.243 79.284
11086953 5.39948 6.68581 33.1141 34 0.685692 10.4222 79.1994
11086962 5.10881 6.3727 33.3306 34 0.613248 10.6295 78.8121
11086982 4.80933 6.12405 33.5669 34 0.556639 10.8217 78.5003
11086996 4.80933 6.12405 33.5669 34 0.556639 10.8217 78.5003
11087002 4.50984 5.80173 33.8819 34 0.450811 11.0438 78.1935
11087012 4.2456 5.49783 34 34 0.402683 11.2402 77.7434
11087023 4.2456 5.49783 34 34 0.402683 11.2402 77.7434
11087032 3.96373 5.22156 34 34 0.407407 11.4299 77.1853
11087042 3.69948 4.90845 34 34 0.394532 11.6291 76.6079
11087053 3.69948 4.90845 34 34 0.394532 11.6291 76.6079
11087063 3.39119 4.6506 34 34 0.41405 11.8274 76.0418
11087073 3.39119 4.6506 34 34 0.41405 11.8274 76.0418
11087086 3.16218 4.36511 34 34 0.39818 12.0101 75.5273
11087098 2.94197 4.18093 34 34 0.412312 12.1555 75.1229
11087113 2.80104 3.96912 34 34 0.390559 12.2836 74.7702
11087126 2.66891 3.89545 34 34 0.411236 12.3589 74.5644
11087143 2.57202 3.83099 34 34 0.423023 12.4182 74.403
11087156 2.57202 3.83099 34 34 0.423023 12.4182 74.403
11087164 2.49275 3.79415 34 34 0.437966 12.4611 74.2869
11087174 2.45751 3.72969 34 34 0.428706 12.498 74.1872
11087184 2.45751 3.72969 34 34 0.428706 12.498 74.1872
11087194 2.37824 3.72048 34 34 0.452855 12.5308 74.0987
11087205 2.36943 3.71127 34 34 0.452831 12.5375 74.0807
11087214 2.36943 3.71127 34 34 0.452831 12.5375 74.0807
11087224 2.41347 3.78494 34 34 0.462094 12.4939 74.1984
11087236 2.41347 3.78494 34 34 0.462094 12.4939 74.1984
11087247 2.36062 3.61918 34 34 0.425303 12.5751 73.9798
11087254 2.38705 3.68364 34 34 0.43762 12.5413 74.0707
11087269 2.38705 3.68364 34 34 0.43762 12.5413 74.0707
11087274 2.39585 3.70206 34 34 0.440699 12.5311 74.0979
11087289 2.39585 3.73889 34 34 0.452906 12.5175 74.1348
11087294 2.39585 3.73889 34 34 0.452906 12.5175 74.1348
11087306 2.46632 3.77573 34 34 0.440925 12.4777 74.2421
11087332 2.45751 3.7481 34 34 0.434804 12.4912 74.2056
11087337 2.45751 3.78494 34 34 0.44699 12.4775 74.2425
11087344 2.45751 3.78494 34 34 0.44699 12.4775 74.2425
11087355 2.50155 3.8494 34 34 0.453204 12.4374 74.351
11087366 2.52798 3.92308 34 34 0.46846 12.4006 74.4511
11087376 2.52798 3.92308 34 34 0.46846 12.4006 74.4511
11087386 2.53679 3.93229 34 34 0.468484 12.3939 74.4691
11087396 2.53679 3.93229 34 34 0.468484 12.3939 74.4691
11087406 2.62487 3.97833 34 34 0.453553 12.3447 74.6032
11087416 2.6513 4.07963 34 34 0.477827 12.2979 74.7309
11087426 2.6513 4.07963 34 34 0.477827 12.2979 74.7309
11087436 2.78342 4.10726 34 34 0.441924 12.2397 74.8907
11087447 2.84508 4.19014 34 34 0.448143 12.1872 75.0352
11087467 2.94197 4.32828 34 34 0.460443 12.1023 75.2702
11087477 2.94197 4.32828 34 34 0.460443 12.1023 75.2702
11087487 3.09171 4.42958 34 34 0.442877 12.0123 75.5213
11087497 3.25026 4.53088 34 34 0.422472 11.9196 75.7811
11087517 3.47927 4.67822 34 34 0.393572 11.7866 76.1575
11087527 3.65544 4.87161 34 34 0.397301 11.6572 76.5271
11087538 3.65544 4.87161 34 34 0.397301 11.6572 76.5271
11087548 3.93731 5.19393 34 34 0.407299 11.4484 77.1312
11087558 3.93731 5.19393 34 34 0.407299 11.4484 77.1312
11087568 4.32487 5.64518 33.3405 34 0.640222 11.1312 77.3105
11087578 4.95907 6.25298 32.5431 34 0.884435 10.6741 77.7552
11087588 4.95907 6.25298 32.5431 34 0.884435 10.6741 77.7552
11087599 5.69896 6.86078 31.7852 33.6883 0.981918 10.1714 78.0332
11087608 6.42124 7.50542 31.4406 33.0355 0.85426 9.67111 78.4028
11087619 6.42124 7.50542 31.4406 33.0355 0.85426 9.67111 78.4028
11087628 6.95855 8.34344 31.0075 32.1393 0.801995 9.14828 78.4488
11087640 6.95855 8.34344 31.0075 32.1393 0.801995 9.14828 78.4488
11087648 7.47824 9.18147 30.4268 30.9702 0.719568 8.59707 78.0567
11087658 8.08601 10.1392 29.905 29.8499 0.640559 7.98851 77.9801
11087668 8.08601 10.1392 29.905 29.8499 0.640559 7.98851 77.9801
11087682 8.78187 11.0049 29.1766 28.8562 0.61121 7.37207 77.8195
11087688 9.54819 11.7416 28.399 27.765 0.503361 6.75387 77.4538
11087698 9.54819 11.7416 28.399 27.765 0.503361 6.75387 77.4538
11087708 10.2617 12.4875 27.7493 26.937 0.456369 6.18651 77.4354
11087720 10.2617 12.4875 27.7493 26.937 0.456369 6.18651 77.4354
11087730 10.9487 13.0309 27.198 26.0991 0.318104 5.69077 77.2767
11087740 11.5653 13.6479 26.7452 25.4074 0.240684 5.22314 77.3658
11087749 11.5653 13.6479 26.7452 25.4074 0.240684 5.22314 77.3658
11087761 12.0762 14.1176 26.194 24.7352 0.188869 4.81092 77.1229
11087769 12.6575 14.4859 25.7215 24.141 0.0804782 4.42545 77.0059
11087789 13.1772 15.0569 25.1998 23.4785 0.0514925 3.98717 76.9124
11087799 13.1772 15.0569 25.1998 23.4785 0.0514925 3.98717 76.9124
11087809 13.785 15.4713 24.6781 22.7966 -0.0635907 3.56148 76.7309
11087819 14.3311 16.0515 24.2154 22.1633 -0.10803 3.12583 76.7613
11087843 14.842 16.5488 23.5756 21.5009 -0.120287 2.68462 76.4671
11087853 15.4497 17.1653 22.8865 20.741 -0.14098 2.16659 76.2426
11087860 15.4497 17.1653 22.8865 20.741 -0.14098 2.16659 76.2426
11087870 16.1016 17.8072 22.2762 20.098 -0.154868 1.66461 76.283
11087882 16.1016 17.8072 21.6265 20.098 0.0585496 1.55006 75.6333
11087891 16.586 18.488 21.6265 19.3186 -0.133494 1.15849 76.0191
11087901 17.2989 19.2271 21.095 18.5977 -0.186661 0.623195 76.2187
11087922 18.0961 20.0441 20.4551 17.8573 -0.212516 0.0337958 76.4526
11087931 18.8236 20.8804 19.6381 16.9714 -0.199763 -0.608237 76.3135
11087942 18.8236 20.8804 19.6381 16.9714 -0.199763 -0.608237 76.3135
11087950 19.7403 21.6974 18.7226 16.1433 -0.203879 -1.29189 76.3037
11087968 19.7403 21.6974 18.7226 16.1433 -0.203879 -1.29189 76.3037
11087974 20.398 22.3879 18.073 15.458 -0.204766 -1.81904 76.3168
11087982 21.1354 23.0297 17.4823 14.8108 -0.254141 -2.32913 76.4582
11087992 21.1354 23.0297 17.4823 14.8108 -0.254141 -2.32913 76.4582
11088003 21.7831 23.6911 16.896 14.1635 -0.269349 -2.82516 76.5337
11088012 22.4807 24.2551 16.293 13.64 -0.286458 -3.28743 76.6687
11088022 22.4807 24.2551 16.293 13.64 -0.286458 -3.28743 76.6687
11088032 22.959 24.7511 15.7315 13.0403 -0.293863 -3.71427 76.4819
11088042 22.959 24.7511 15.7315 13.0403 -0.293863 -3.71427 76.4819
11088052 23.3775 25.0624 15.1804 12.5549 -0.308725 -4.07703 76.1751
11088063 23.7661 25.4903 14.8581 12.2598 -0.286138 -4.34803 76.3743
11088072 23.7661 25.4903 14.8581 12.2598 -0.286138 -4.34803 76.3743
11088083 24.0152 25.7918 14.4526 11.8124 -0.283825 -4.64204 76.072
11088092 24.3341 26.1516 14.1407 11.5935 -0.239335 -4.87108 76.2199
11088112 24.7227 26.4628 13.756 11.3365 -0.22267 -5.13118 76.278
11088122 24.7227 26.4628 13.756 11.3365 -0.22267 -5.13118 76.278
11088132 25.0018 26.6865 13.5896 11.1652 -0.241907 -5.28501 76.443
11088142 25.2708 26.9588 13.3713 11.0605 -0.203097 -5.4391 76.6613
11088154 25.2708 26.9588 13.3713 11.0605 -0.203097 -5.4391 76.6613
11088162 25.5498 27.27 13.0593 10.8701 -0.152779 -5.64639 76.7493
11088178 25.7591 27.4645 12.8098 10.7844 -0.10411 -5.78565 76.8178
11088183 25.7591 27.4645 12.8098 10.7844 -0.10411 -5.78565 76.8178
11088193 25.9484 27.6201 12.5602 10.5845 -0.0990659 -5.94885 76.7133
11088204 25.9484 27.6201 12.5602 10.5845 -0.0990659 -5.94885 76.7133
11088213 26.1776 27.8924 12.3731 10.4703 -0.0610813 -6.08996 76.9135
11088225 26.2872 27.9994 12.2067 10.299 -0.0636563 -6.20783 76.7924
11088233 26.2872 27.9994 12.2067 10.299 -0.0636563 -6.20783 76.7924
11088249 26.4965 28.1259 12.0092 10.2324 -0.0479519 -6.31912 76.8639
11088253 26.6559 28.3787 11.77 10.0705 0.00758171 -6.47687 76.8752
11088263 26.6559 28.3787 11.77 10.0705 0.00758171 -6.47687 76.8752
11088273 26.7456 28.5732 11.5413 9.95633 0.0789762 -6.60429 76.8164
11088285 26.7456 28.5732 11.5413 9.95633 0.0789762 -6.60429 76.8164
11088295 26.7855 28.7191 11.3541 9.93729 0.16824 -6.6826 76.796
11088303 26.8552 28.8553 11.2502 9.86114 0.198847 -6.75574 76.8218
11088313 26.8552 28.8553 11.2502 9.86114 0.198847 -6.75574 76.8218
11088324 26.8851 29.0887 11.115 9.94681 0.336009 -6.7979 77.0356
11088333 26.915 29.2443 10.9798 9.91825 0.411287 -6.86396 77.0574
11088343 26.915 29.2443 10.9798 9.91825 0.411287 -6.86396 77.0574
11088353 26.9748 29.3707 10.8758 9.90873 0.463113 -6.91577 77.1301
11088367 26.9748 29.3707 10.8758 9.90873 0.463113 -6.91577 77.1301
11088373 26.8652 29.5263 10.6471 9.8897 0.618675 -6.99119 76.9283
11088384 26.8154 29.6819 10.5431 9.95633 0.740218 -7.01286 76.9967
11088404 26.6958 29.7305 10.4807 9.86114 0.786513 -7.05066 76.7682
11088414 26.5164 29.6916 10.3872 9.86114 0.866252 -7.05496 76.4564
11088424 26.5164 29.6916 10.3872 9.86114 0.866252 -7.05496 76.4564
11088435 26.337 29.6722 10.4287 9.94681 0.933829 -6.99754 76.3848
11088444 26.337 29.6722 10.4287 9.94681 0.933829 -6.99754 76.3848
11088454 26.078 29.5263 10.5327 10.023 0.964609 -6.90296 76.16
11088464 25.8687 29.4388 10.6887 10.1848 1.00622 -6.78005 76.1809
11088475 25.8687 29.4388 10.6887 10.1848 1.00622 -6.78005 76.1809
11088486 25.5498 29.2248 10.9174 10.4323 1.04757 -6.58626 76.1243
11088498 25.3007 29.0109 11.219 10.813 1.08202 -6.34231 76.3435
11088506 25.3007 29.0109 11.219 10.813 1.08202 -6.34231 76.3435
11088529 25.0217 28.7775 11.6869 11.1176 1.03993 -6.06918 76.6036
11088531 25.0217 28.7775 11.6869 11.1176 1.03993 -6.06918 76.6036
11088536 24.5533 28.3884 12.1028 11.6506 1.10273 -5.70866 76.6952
11088546 24.1049 28.087 12.7162 12.1456 1.10683 -5.32034 77.0537
11088556 24.1049 28.087 12.7162 12.1456 1.10683 -5.32034 77.0537
11088566 23.5469 27.5812 13.3401 12.6881 1.09596 -4.87969 77.1563
11088575 22.8294 27.0366 14.1199 13.4877 1.15362 -4.30956 77.4736
11088593 22.8294 27.0366 14.1199 13.4877 1.15362 -4.30956 77.4736
11088612 21.9824 26.3461 15.0972 14.3158 1.15197 -3.64969 77.7416
11088613 21.9824 26.3461 15.0972 14.3158 1.15197 -3.64969 77.7416
11088617 20.9162 25.4708 16.1058 15.3343 1.21523 -2.8808 77.8271
11088626 19.6208 24.4108 17.5316 16.5146 1.20809 -1.91836 78.0776
11088636 19.6208 24.4108 17.5316 16.5146 1.20809 -1.91836 78.0776
11088647 18.1858 23.2145 19.0081 17.7112 1.19425 -0.898827 78.1196
11088656 16.815 23.2145 20.652 19.1238 1.52599 -0.0476995 79.8053
11088667 16.815 21.746 20.652 19.1238 1.08594 0.232603 78.3368
11088677 15.4762 20.3164 22.286 20.663 1.02144 1.3633 78.7416
11088688 15.4762 20.3164 22.286 20.663 1.02144 1.3633 78.7416
11088697 14.2078 18.9159 23.9004 21.9685 0.878629 2.42021 78.9926
11088710 13.0187 17.6808 25.2785 23.1473 0.799644 3.36044 79.1252
11088719 13.0187 17.6808 25.2785 23.1473 0.799644 3.36044 79.1252
11088731 11.9264 16.429 26.3416 24.1117 0.720963 4.20599 78.8088
11088737 10.8959 15.2042 27.4441 25.1834 0.650224 5.05428 78.7276
11088758 10.0062 14.1176 28.3793 26.3037 0.645819 5.81661 78.8068
11088778 9.15181 13.0769 29.2652 27.2974 0.621051 6.53636 78.7914
11088791 8.42953 12.0823 30.0724 28.3885 0.623304 7.208 78.9728
11088799 8.42953 12.0823 30.0724 28.3885 0.623304 7.208 78.9728
11088808 7.77772 11.1522 30.8008 29.1484 0.545809 7.8004 78.8792
11088820 7.2228 10.3694 31.4406 29.8499 0.493094 8.30947 78.8828
11088828 7.2228 10.3694 31.4406 29.8499 0.493094 8.30947 78.8828
11088839 6.82643 9.72481 31.9427 30.4246 0.437272 8.70823 78.9185
11088848 6.82643 9.72481 31.9427 30.4246 0.437272 8.70823 78.9185
11088860 6.50933 9.23673 32.2478 30.8825 0.431719 9.01112 78.8764
11088868 6.2715 8.87757 32.4152 31.243 0.45487 9.23312 78.8072
11088882 6.2715 8.87757 32.4152 31.243 0.45487 9.23312 78.8072
11088888 6.13938 8.5 32.6219 31.506 0.395072 9.42432 78.7673
11088899 5.93679 8.20531 32.8384 31.808 0.392851 9.61517 78.7886
11088909 5.93679 8.20531 32.8384 31.808 0.392851 9.61517 78.7886
11088919 5.78705 8.03034 33.055 32.1393 0.420046 9.75366 79.0116
11088930 5.78705 8.03034 33.055 32.1393 0.420046 9.75366 79.0116
11088939 5.59326 7.93824 33.1436 32.3536 0.491899 9.86332 79.0287
11088951 5.48756 7.72644 33.37 32.7238 0.502047 10.0015 79.3078
11088961 5.48756 7.72644 33.37 32.7238 0.502047 10.0015 79.3078
11088974 5.3114 7.54225 33.5275 33.016 0.541389 10.1433 79.3972
11088981 5.08238 7.2844 33.7834 33.3278 0.549325 10.332 79.478
11089001 4.90622 7.03575 34 33.7467 0.588614 10.5043 79.6887
11089011 4.90622 7.03575 34 33.7467 0.588614 10.5043 79.6887
11089021 4.56269 6.68581 34 34 0.669762 10.7418 79.2485
11089031 4.21036 6.26219 34 34 0.653675 10.9964 78.4725
11089041 4.21036 6.26219 34 34 0.653675 10.9964 78.4725
11089051 3.86684 5.9675 34 34 0.674722 11.2095 77.8343
11089061 3.56736 5.48862 34 34 0.623333 11.4743 77.056
11089081 3.20622 5.07421 34 34 0.612214 11.7434 76.2804
11089091 3.20622 5.07421 34 34 0.612214 11.7434 76.2804
11089102 2.88912 4.63218 34 34 0.577009 12.0122 75.5213
11089112 2.56321 4.23619 34 34 0.559154 12.2729 74.7994
11089122 2.56321 4.23619 34 34 0.559154 12.2729 74.7994
11089132 2.32539 3.8494 34 34 0.513658 12.5026 74.1748
11089142 2.1228 3.59155 34 34 0.498122 12.6744 73.7143
11089153 2.1228 3.59155 34 34 0.498122 12.6744 73.7143
11089163 1.95544 3.45341 34 34 0.510147 12.7896 73.4089
11089173 1.81451 3.15872 34 34 0.460517 12.9555 72.9732
11089183 1.81451 3.15872 34 34 0.460517 12.9555 72.9732
11089193 1.75285 3.039 34 34 0.441721 13.0251 72.7919
11089203 1.75285 3.039 34 34 0.441721 13.0251 72.7919
11089214 1.63834 2.95612 34 34 0.453815 13.1013 72.5945
11089223 1.5943 2.95612 34 34 0.469267 13.1184 72.5504
11089249 1.65596 3.00217 34 34 0.4632 13.0767 72.6581
11089253 1.58549 3.00217 34 34 0.487918 13.104 72.5877
11089263 1.58549 2.92849 34 34 0.463015 13.1325 72.514
11089273 1.65596 2.96533 34 34 0.450754 13.0909 72.6213
11089284 1.65596 2.96533 34 34 0.450754 13.0909 72.6213
11089293 1.60311 3.02059 34 34 0.48795 13.09 72.6237
11089306 1.7 3.00217 34 34 0.447777 13.0597 72.7022
11089313 1.7 3.00217 34 34 0.447777 13.0597 72.7022
11089323 1.69119 3.14951 34 34 0.500518 13.0063 72.8407
11089349 1.69119 3.14951 34 34 0.500518 13.0063 72.8407
11089351 1.70881 3.15872 34 34 0.497448 12.996 72.8675
11089354 1.79689 3.19556 34 34 0.479046 12.9481 72.9924
11089374 1.87617 3.23239 34 34 0.463772 12.9037 73.1086
11089384 1.93782 3.30607 34 34 0.467014 12.8521 73.2439
11089394 1.93782 3.30607 34 34 0.467014 12.8521 73.2439
11089405 1.94663 3.35211 34 34 0.479367 12.8313 73.2987
11089414 1.94663 3.35211 34 34 0.479367 12.8313 73.2987
11089426 2.0171 3.46262 34 34 0.49181 12.7628 73.4797
11089437 2.14922 3.48104 34 34 0.452197 12.706 73.6303
11089446 2.14922 3.48104 34 34 0.452197 12.706 73.6303
11089454 2.15803 3.57313 34 34 0.479817 12.6681 73.7312
11089464 2.30777 3.66522 34 34 0.458765 12.5776 73.973
11089475 2.30777 3.66522 34 34 0.458765 12.5776 73.973
11089485 2.4399 3.70206 34 34 0.425589 12.5148 74.142
11089504 2.57202 3.85861 34 34 0.432146 12.4081 74.4306
11089515 2.66891 3.95991 34 34 0.432473 12.3353 74.6288
11089526 2.66891 3.95991 34 34 0.432473 12.3353 74.6288
11089539 2.92435 4.11647 34 34 0.397155 12.1852 75.0408
11089553 3.12694 4.18093 34 34 0.349891 12.0888 75.3079
11089555 3.12694 4.18093 34 34 0.349891 12.0888 75.3079
11089565 3.37358 4.48483 34 34 0.366229 11.8922 75.8584
11089587 3.69948 4.70585 34 34 0.329283 11.6997 76.4053
11089596 3.95492 4.91766 34 34 0.313094 11.5374 76.8726
11089608 3.95492 4.91766 34 34 0.313094 11.5374 76.8726
11089616 4.41295 5.45179 34 34 0.333539 11.1993 77.8647
11089629 5.05596 6.02275 33.557 33.5616 0.310546 10.7497 78.1974
11089637 5.05596 6.02275 33.557 33.5616 0.310546 10.7497 78.1974
11089646 5.75181 6.80553 32.9566 32.792 0.283858 10.1891 78.3059
11089656 5.75181 6.80553 32.9566 32.792 0.283858 10.1891 78.3059
11089667 6.51813 7.47779 32.0411 31.8665 0.251919 9.61028 77.9035
11089677 7.46943 8.36186 31.0666 30.8143 0.205943 8.88849 77.7122
11089697 8.54404 9.31961 29.7771 29.5186 0.167549 8.05451 77.1593
11089707 9.59223 10.4984 28.5368 28.1742 0.176945 7.15227 76.8016
11089717 9.59223 10.4984 28.5368 28.1742 0.176945 7.15227 76.8016
11089727 10.6052 11.8153 27.3949 26.8298 0.210384 6.22432 76.6452
11089737 10.6052 11.8153 27.3949 26.8298 0.210384 6.22432 76.6452
11089748 11.6093 12.8375 26.4696 25.5731 0.108391 5.4117 76.4895
11089759 12.5254 13.7952 25.7609 24.6086 0.0383317 4.70377 76.6901
11089768 12.5254 13.7952 25.7609 24.6086 0.0383317 4.70377 76.6901
11089778 13.4062 14.6885 24.9734 23.7513 0.019598 4.02826 76.8194
11089788 14.1285 15.5265 24.3335 22.8063 -0.0420511 3.41523 76.7949
11089798 14.1285 15.5265 24.3335 22.8063 -0.0420511 3.41523 76.7949
11089808 14.9124 16.3369 23.5165 21.9295 -0.0529632 2.77656 76.6954
11089828 15.5466 17.0681 22.7881 21.0917 -0.0571728 2.20899 76.4945
11089841 16.1544 17.8753 22.3057 20.2734 -0.101653 1.67397 76.6088
11089867 16.7358 18.595 21.597 19.416 -0.105356 1.11646 76.3438
11089868 17.279 19.1493 20.9965 18.7341 -0.128722 0.650407 76.159
11089887 17.279 19.1493 20.9965 18.7341 -0.128722 0.650407 76.159
11089889 17.8869 19.8106 20.3567 18.0327 -0.131512 0.13639 76.0869
11089901 18.4748 20.3261 19.7365 17.5261 -0.118047 -0.303352 76.0635
11089909 18.4748 20.3261 19.7365 17.5261 -0.118047 -0.303352 76.0635
11089919 19.1125 20.9388 19.1361 16.9048 -0.133067 -0.790576 76.0922
11089929 19.1125 20.9388 19.1361 16.9048 -0.133067 -0.790576 76.0922
11089939 19.6706 21.4348 18.5455 16.4479 -0.109503 -1.20475 76.0987
11089951 20.1887 21.9211 18.0139 15.8959 -0.126854 -1.61801 76.0196
11089971 20.7368 22.4462 17.5709 15.5056 -0.116681 -1.98792 76.2596
11089981 21.1952 22.7574 17.2166 15.0868 -0.18606 -2.29148 76.256
11089991 21.1952 22.7574 17.2166 15.0868 -0.18606 -2.29148 76.256
11090000 21.7632 23.2534 16.7505 14.7156 -0.178032 -2.65758 76.4827
11090021 22.2216 23.6133 16.2514 14.3634 -0.162295 -2.9863 76.4496
11090031 22.7497 24.0801 15.8043 13.9731 -0.163421 -3.33893 76.6072
11090041 22.7497 24.0801 15.8043 13.9731 -0.163421 -3.33893 76.6072
11090050 23.238 24.4497 15.2948 13.5924 -0.160217 -3.68276 76.5748
11090063 23.6864 24.9651 14.9205 13.1831 -0.149405 -4.01562 76.7551
11090082 24.1249 25.286 14.411 12.8975 -0.114797 -4.3214 76.7194
11090094 24.1249 25.286 14.411 12.8975 -0.114797 -4.3214 76.7194
11090105 24.5832 25.7237 13.9223 12.4787 -0.0988007 -4.67472 76.708
11090123 24.9619 26.0835 13.444 12.2217 -0.0328124 -4.9627 76.7112
11090133 25.2509 26.4434 13.0177 11.841 0.00513494 -5.25823 76.553
11090143 25.4801 26.8032 12.685 11.5554 0.0632346 -5.49689 76.5237
11090154 25.4801 26.8032 12.685 11.5554 0.0632346 -5.49689 76.5237
11090164 25.8089 27.1144 12.3107 11.2889 0.0926912 -5.74802 76.5229
11090173 25.8089 27.1144 12.3107 11.2889 0.0926912 -5.74802 76.5229
11090186 26.068 27.377 11.9988 11.051 0.118041 -5.96027 76.4947
11090193 26.2872 27.6688 11.7284 10.8796 0.17395 -6.14151 76.564
11090207 26.2872 27.6688 11.7284 10.8796 0.17395 -6.14151 76.564
11090213 26.3271 27.9411 11.4165 10.7273 0.302568 -6.30614 76.412
11090223 26.4168 28.1648 11.2294 10.7083 0.400856 -6.39916 76.5192
11090244 26.4965 28.4662 11.115 10.6226 0.481549 -6.49771 76.7003
11090256 26.4965 28.4662 11.115 10.6226 0.481549 -6.49771 76.7003
11090264 26.5463 28.5635 11.011 10.556 0.509337 -6.56186 76.6768
11090274 26.5862 28.7775 10.959 10.5655 0.584549 -6.60162 76.8882
11090284 26.5862 28.7775 10.959 10.5655 0.584549 -6.60162 76.8882
11090294 26.5563 28.8553 10.8239 10.537 0.65521 -6.65293 76.7723
11090304 26.5164 28.972 10.7927 10.556 0.721943 -6.6647 76.837
11090317 26.5164 28.972 10.7927 10.556 0.721943 -6.6647 76.837
11090324 26.4168 29.0303 10.6783 10.5179 0.800198 -6.7033 76.6433
11090339 26.4168 29.0303 10.6783 10.5179 0.800198 -6.7033 76.6433
11090344 26.2474 29.04 10.7095 10.5941 0.873885 -6.65559 76.591
11090354 26.2075 29.0789 10.7303 10.7083 0.928459 -6.61738 76.725
11090373 26.2075 29.0789 10.7303 10.7083 0.928459 -6.61738 76.725
11090374 26.058 29.147 10.8135 10.7178 0.975206 -6.58237 76.7363
11090386 25.9285 29.0498 10.7511 10.9653 1.08727 -6.50539 76.6946
11090394 25.9285 29.0498 10.7511 10.9653 1.08727 -6.50539 76.6946
11090408 25.7591 29.1276 10.8758 11.0224 1.14444 -6.44432 76.7849
11090414 25.7591 29.1276 10.8758 11.0224 1.14444 -6.44432 76.7849
11090424 25.5399 28.9817 10.9174 11.1652 1.2041 -6.35193 76.6042
11090434 25.4203 28.972 11.1254 11.4317 1.25342 -6.20574 76.9493
11090444 25.4203 28.972 11.1254 11.4317 1.25342 -6.20574 76.9493
11090454 25.2509 28.9233 11.2086 11.5364 1.30016 -6.12902 76.9192
11090464 25.0117 28.7872 11.3749 11.7934 1.36225 -5.96954 76.9672
11090476 25.0117 28.7872 11.3749 11.7934 1.36225 -5.96954 76.9672
11090486 24.8324 28.6121 11.5517 12.0694 1.39411 -5.8048 77.0656
11090495 24.8324 28.6121 11.5517 12.0694 1.39411 -5.8048 77.0656
11090511 24.5633 28.4079 11.6869 12.3264 1.45619 -5.64229 76.9845
11090519 24.3242 28.0772 11.8428 12.6786 1.49139 -5.43661 76.9228
11090538 24.095 27.7466 12.0924 13.1736 1.53449 -5.16985 77.1075
11090546 23.7462 27.3867 12.3211 13.6209 1.60246 -4.90254 77.075
11090566 23.4871 27.095 12.4979 14.1254 1.69529 -4.65488 77.2054
11090587 23.0487 26.6865 12.7162 14.4681 1.75174 -4.39763 76.9194
11090597 22.67 26.21 12.9865 14.944 1.78928 -4.09112 76.8105
11090608 22.67 26.21 12.9865 14.944 1.78928 -4.09112 76.8105
11090617 22.2515 25.7626 13.3193 15.3343 1.80197 -3.78788 76.6676
11090632 21.7333 25.218 13.7664 15.953 1.84924 -3.37129 76.6706
11090637 21.7333 25.218 13.7664 15.953 1.84924 -3.37129 76.6706
11090647 21.0756 24.615 14.4734 16.7049 1.87686 -2.83189 76.8689
11090657 21.0756 24.615 14.4734 16.7049 1.87686 -2.83189 76.8689
11090667 20.2784 23.8953 15.1908 17.4481 1.91185 -2.25251 76.8127
11090678 19.2819 23.1465 16.3865 18.4029 1.90398 -1.48392 77.2178
11090688 19.2819 23.1465 16.3865 18.4029 1.90398 -1.48392 77.2178
11090700 18.136 22.1156 17.7776 19.4063 1.81061 -0.594223 77.4355
11090708 16.9736 20.9582 19.3625 20.6728 1.69782 0.404679 77.9671
11090718 16.9736 20.9582 19.3625 20.6728 1.69782 0.404679 77.9671
11090728 15.9959 19.7523 20.7012 21.91 1.58412 1.31377 78.3594
11090738 15.9959 19.7523 20.7012 21.91 1.58412 1.31377 78.3594
11090748 15.0358 18.5561 21.8726 23.0304 1.48993 2.16151 78.4948
11090758 14.1461 17.496 22.7979 23.9364 1.43166 2.88841 78.3764
11090769 14.1461 17.496 22.7979 23.9364 1.43166 2.88841 78.3764
11090779 13.4503 16.7237 23.5067 24.6086 1.39719 3.4375 78.2892
11090792 12.8249 16.1067 23.9792 25.1152 1.41551 3.87616 78.0259
11090808 12.2611 15.5818 24.5796 25.6218 1.39755 4.29726 78.0443
11090818 12.2611 15.5818 24.5796 25.6218 1.39755 4.29726 78.0443
11090828 11.671 14.8359 25.377 26.3719 1.32893 4.83837 78.2557
11090838 10.9751 14.0899 26.2924 27.1708 1.27124 5.42444 78.5282
11090848 10.9751 14.0899 26.2924 27.1708 1.27124 5.42444 78.5282
11090858 10.3938 13.3348 27.1587 27.9696 1.18949 5.9728 78.8568
11090871 9.74197 12.552 27.9658 28.5736 1.08388 6.51605 78.8335
11090879 9.74197 12.552 27.9658 28.5736 1.08388 6.51605 78.8335
11090889 9.20466 11.7784 28.773 29.2653 0.970021 7.0339 79.0214
11090901 9.20466 11.7784 28.773 29.2653 0.970021 7.0339 79.0214
11090909 8.47358 10.9496 29.5802 29.957 0.903255 7.6204 78.9604
11090924 7.93627 10.2958 30.2397 30.6195 0.865859 8.08443 79.0912
11090930 7.93627 10.2958 30.2397 30.6195 0.865859 8.08443 79.0912
11090940 7.50466 9.66956 30.8697 31.243 0.800306 8.50174 79.2869
11090949 6.94974 9.0065 31.3619 31.8372 0.799724 8.95256 79.1554
11090969 6.4829 8.43554 31.8738 32.4218 0.789204 9.35007 79.214
11090988 6.4829 8.43554 31.8738 32.4218 0.789204 9.35007 79.214
11090991 5.97202 7.84615 32.3955 33.0063 0.784191 9.76716 79.22
11090999 5.63731 7.32124 32.74 33.5226 0.778374 10.0928 79.2212
11091010 5.63731 7.32124 32.74 33.5226 0.778374 10.0928 79.2212
11091019 5.23212 6.95287 33.1338 34 0.815377 10.3914 79.3188
11091033 4.82694 6.53846 33.5078 34 0.698495 10.6771 78.8732
11091039 4.82694 6.53846 33.5078 34 0.698495 10.6771 78.8732
11091049 4.5715 6.08722 33.9508 34 0.497693 10.9323 78.6095
11091071 4.15751 5.69122 34 34 0.492528 11.2047 77.8487
11091081 3.79637 5.41495 34 34 0.524074 11.421 77.2113
11091101 3.56736 5.12026 34 34 0.506243 11.6014 76.6876
11091111 3.36477 4.8532 34 34 0.488213 11.7653 76.218
11091121 3.36477 4.8532 34 34 0.488213 11.7653 76.218
11091131 3.10933 4.59534 34 34 0.490728 11.9468 75.7047
11091151 2.85389 4.37432 34 34 0.505275 12.1175 75.2282
11091168 2.78342 4.17172 34 34 0.463045 12.2163 74.9551
11091172 2.78342 4.17172 34 34 0.463045 12.2163 74.9551
11091185 2.67772 4.17172 34 34 0.499004 12.2547 74.8494
11091192 2.5544 4.03359 34 34 0.495782 12.3502 74.588
11091202 2.5544 4.03359 34 34 0.495782 12.3502 74.588
11091212 2.5544 4.02438 34 34 0.492758 12.3536 74.5788
11091222 2.5544 4.02438 34 34 0.492758 12.3536 74.5788
11091232 2.49275 3.97833 34 34 0.498712 12.3932 74.4711
11091242 2.51917 4.02438 34 34 0.504807 12.3666 74.5435
11091252 2.51917 4.02438 34 34 0.504807 12.3666 74.5435
11091262 2.52798 3.99675 34 34 0.492713 12.3735 74.5247
11091272 2.5456 3.99675 34 34 0.48669 12.367 74.5423
11091282 2.5456 4.0428 34 34 0.501817 12.3501 74.5884
11091294 2.59845 4.03359 34 34 0.480738 12.3341 74.632
11091303 2.59845 4.03359 34 34 0.480738 12.3341 74.632
11091315 2.58964 4.07963 34 34 0.498867 12.3205 74.6693
11091322 2.64249 4.0428 34 34 0.468734 12.3146 74.6853
11091342 2.70415 4.17172 34 34 0.490004 12.2451 74.8759
11091352 2.69534 4.20856 34 34 0.505051 12.2349 74.9039
11091373 2.77461 4.2454 34 34 0.490132 12.1927 75.02
11091391 2.77461 4.2454 34 34 0.490132 12.1927 75.02
11091394 2.81865 4.2546 34 34 0.478184 12.1735 75.0733
11091404 2.90674 4.28223 34 34 0.457346 12.1316 75.189
11091418 2.90674 4.28223 34 34 0.457346 12.1316 75.189
11091423 2.88031 4.40195 34 34 0.505313 12.098 75.2823
11091443 2.88912 4.36511 34 34 0.490335 12.1081 75.2542
11091446 2.88912 4.36511 34 34 0.490335 12.1081 75.2542
11091454 2.9772 4.42037 34 34 0.478521 12.0566 75.3976
11091475 2.93316 4.40195 34 34 0.487417 12.079 75.3351
11091486 2.98601 4.42958 34 34 0.478536 12.0501 75.4156
11091496 2.98601 4.42958 34 34 0.478536 12.0501 75.4156
11091507 3.06528 4.40195 34 34 0.442797 12.0316 75.4672
11091520 3.04767 4.42037 34 34 0.45473 12.0313 75.468
11091524 3.04767 4.42037 34 34 0.45473 12.0313 75.468
11091535 3.12694 4.51246 34 34 0.457934 11.9701 75.6394
11091547 3.12694 4.51246 34 34 0.457934 11.9701 75.6394
11091554 3.17098 4.48483 34 34 0.434154 11.9642 75.6558
11091565 3.21503 4.55851 34 34 0.443256 11.9223 75.7735
11091574 3.21503 4.55851 34 34 0.443256 11.9223 75.7735
11091587 3.35596 4.54009 34 34 0.39005 11.8789 75.896
11091597 3.40881 4.69664 34 34 0.423041 11.8049 76.1055
11091606 3.40881 4.69664 34 34 0.423041 11.8049 76.1055
11091618 3.60259 4.79794 34 34 0.39115 11.7014 76.4005
11091626 3.60259 4.79794 34 34 0.39115 11.7014 76.4005
11091640 3.69067 4.94529 34 34 0.409278 11.6194 76.636
11091646 3.93731 5.01896 34 34 0.351384 11.5086 76.9563
11091656 3.93731 5.01896 34 34 0.351384 11.5086 76.9563
11091666 4.27202 5.33207 33.9902 34 0.344709 11.2868 77.5942
11091676 4.79171 5.82936 33.0648 33.7759 0.564384 10.8866 77.4619
11091686 4.79171 5.82936 33.0648 33.7759 0.564384 10.8866 77.4619
11091696 5.81347 6.78711 31.8836 32.5777 0.541019 10.0946 77.0618
11091711 5.81347 6.78711 31.8836 32.5777 0.541019 10.0946 77.0618
11091716 6.84404 8.07638 30.85 31.5645 0.629336 9.21202 77.3349
11091727 7.7601 9.30119 29.9838 30.5903 0.691554 8.40714 77.6353
11091736 7.7601 9.30119 29.9838 30.5903 0.691554 8.40714 77.6353
11091746 8.66736 10.305 28.9994 29.7037 0.753754 7.67246 77.6755
11091759 9.38083 11.1154 28.271 28.9731 0.783581 7.0905 77.7403
11091766 9.38083 11.1154 28.271 28.9731 0.783581 7.0905 77.7403
11091775 10.0855 11.8061 27.8477 28.3398 0.708479 6.5887 78.0791
11091793 10.0855 11.8061 27.8477 28.3398 0.708479 6.5887 78.0791
11091797 10.6756 12.4231 27.3851 27.6481 0.643301 6.13087 78.1319
11091808 11.257 13.0033 27.0898 26.9467 0.5119 5.70449 78.2967
11091819 11.257 13.0033 27.0898 26.9467 0.5119 5.70449 78.2967
11091828 11.8207 13.565 26.6271 26.0504 0.37393 5.24417 78.0633
11091837 12.3492 13.9886 26.1644 25.3685 0.270781 4.85325 77.8708
11091850 12.3492 13.9886 26.1644 25.3685 0.270781 4.85325 77.8708
11091857 12.728 14.2833 25.6427 24.6476 0.181162 4.51718 77.3016
11091867 12.728 14.2833 25.6427 24.6476 0.181162 4.51718 77.3016
11091877 13.1332 14.7254 25.0324 23.7805 0.110954 4.09952 76.6715
11091887 13.6088 15.2042 24.491 22.9817 0.0282019 3.66903 76.2857
11091897 13.6088 15.2042 24.491 22.9817 0.0282019 3.66903 76.2857
11091907 14.1373 15.7107 23.8807 22.2607 -0.0153139 3.21625 75.9895
11091920 14.613 15.7107 23.3492 24.1215 0.600976 3.30621 77.7943
11091927 14.613 16.2172 23.3492 21.6275 -0.0387073 2.79919 75.8068
11091944 15.071 16.825 22.9554 21.0332 -0.0553891 2.39033 75.8847
11091948 15.071 16.825 22.9554 21.0332 -0.0553891 2.39033 75.8847
11091958 15.6083 17.4085 22.4337 20.5364 -0.0319585 1.96481 75.9868
11091970 16.1192 18.099 21.9612 20.0006 0.00628829 1.52474 76.1799
11091978 16.1192 18.099 21.9612 20.0006 0.00628829 1.52474 76.1799
11091991 16.7534 18.8478 21.3312 19.3673 0.0427872 1.0021 76.2997
11092012 16.7534 18.8478 21.3312 19.3673 0.0427872 1.0021 76.2997
11092013 17.5182 19.6064 20.6323 18.7438 0.065282 0.441481 76.5007
11092018 18.3751 20.4331 19.8743 17.8573 0.0133514 -0.210981 76.5399
11092032 18.3751 20.4331 19.8743 17.8573 0.0133514 -0.210981 76.5399
11092038 19.0826 21.0944 19.1361 17.0585 -0.0215635 -0.782198 76.3716
11092048 19.8101 21.8238 18.319 16.3527 0.015536 -1.36859 76.3057
11092058 19.8101 21.8238 18.319 16.3527 0.015536 -1.36859 76.3057
11092068 20.4877 22.4949 17.6792 15.6674 -0.00151992 -1.89362 76.3292
11092078 20.4877 22.4949 17.6792 15.6674 -0.00151992 -1.89362 76.3292
11092088 21.1454 23.1367 16.9792 15.0677 0.0261694 -2.40442 76.329
11092099 21.803 23.7689 16.3346 14.43 0.0200719 -2.90962 76.3365
11092109 21.803 23.7689 16.3346 14.43 0.0200719 -2.90962 76.3365
11092121 22.3611 24.4302 15.7315 13.8303 0.0550002 -3.38482 76.3531
11092129 22.9091 24.9457 15.0972 13.3163 0.0837862 -3.82358 76.2684
11092139 22.9091 24.9457 15.0972 13.3163 0.0837862 -3.82358 76.2684
11092149 23.3077 25.4708 14.6917 12.8785 0.114551 -4.16673 76.3488
11092169 23.6764 25.782 14.3694 12.5644 0.0983626 -4.42283 76.3923
11092183 23.9853 26.103 14.1095 12.3359 0.112399 -4.63382 76.5337
11092190 23.9853 26.103 14.1095 12.3359 0.112399 -4.63382 76.5337
11092205 24.2743 26.3656 13.8911 12.098 0.0972539 -4.82535 76.629
11092211 24.5633 26.6768 13.6104 11.86 0.11833 -5.03901 76.7105
11092221 24.5633 26.6768 13.6104 11.86 0.11833 -5.03901 76.7105
11092231 24.8623 26.8616 13.4544 11.6506 0.0636101 -5.19702 76.8289
11092241 25.0815 26.8616 13.1841 11.3365 -0.0220731 -5.3795 76.4636
11092251 25.0815 27.0561 13.1841 11.3365 0.0414163 -5.40391 76.6581
11092261 25.2309 27.1825 13.0801 11.2508 0.0398278 -5.48883 76.7444
11092274 25.2309 27.1825 13.0801 11.2508 0.0398278 -5.48883 76.7444
11092281 25.4801 27.3478 12.8618 11.089 0.0309348 -5.64162 76.7787
11092295 25.6096 27.4159 12.7578 10.9367 -0.00481606 -5.73468 76.72
11092301 25.6096 27.4159 12.7578 10.9367 -0.00481606 -5.73468 76.72
11092311 25.789 27.591 12.737 10.7844 -0.0489533 -5.82405 76.9014
11092321 25.789 27.591 12.737 10.7844 -0.0489533 -5.82405 76.9014
11092331 25.8288 27.5812 12.6122 10.7178 -0.0462696 -5.87959 76.7401
11092341 25.8886 27.6201 12.581 10.7178 -0.0428766 -5.89979 76.8076
11092352 25.8886 27.6201 12.581 10.7178 -0.0428766 -5.89979 76.8076
11092362 25.8587 27.591 12.4459 10.7178 0.00135601 -5.92965 76.6134
11092372 25.8886 27.6201 12.3939 10.6702 0.00255704 -5.96386 76.5729
11092382 25.8886 27.6201 12.3939 10.6702 0.00255704 -5.96386 76.5729
11092392 25.9185 27.5812 12.4043 10.7368 -0.00154078 -5.94173 76.6409
11092404 25.9185 27.5812 12.4043 10.7368 -0.00154078 -5.94173 76.6409
11092412 25.8886 27.6104 12.4459 10.794 0.022763 -5.91471 76.7389
11092427 25.7491 27.5521 12.5602 10.8891 0.0429422 -5.83418 76.7506
11092448 25.7292 27.4354 12.633 11.0034 0.0249028 -5.76715 76.8009
11092454 25.5996 27.3381 12.789 11.1366 0.0279993 -5.66176 76.8634
11092472 25.51 27.2603 12.9034 11.2794 0.0410497 -5.57239 76.953
11092482 25.51 27.2603 13.0489 11.2794 -0.0062272 -5.53355 77.0986
11092492 25.2907 27.1241 13.0489 11.4507 0.0764489 -5.44407 76.9145
11092502 25.1413 26.988 13.3297 11.6792 0.0635982 -5.27374 77.1381
11092517 25.1413 26.988 13.3297 11.6792 0.0635982 -5.27374 77.1381
11092522 24.8423 26.7351 13.4856 11.8981 0.0991672 -5.10525 76.9612
11092532 24.5832 26.5212 13.6416 12.2027 0.162128 -4.92409 76.9487
11092544 24.5832 26.5212 13.6416 12.2027 0.162128 -4.92409 76.9487
11092556 24.2345 26.2002 14.0159 12.5644 0.166929 -4.64606 77.015
11092567 24.2345 26.2002 14.0159 12.5644 0.166929 -4.64606 77.015
11092573 23.7661 25.8404 14.3798 12.9071 0.195569 -4.35401 76.8934
11092583 23.1882 25.393 14.9101 13.4115 0.229609 -3.95166 76.9028
11092593 23.1882 25.393 14.9101 13.4115 0.229609 -3.95166 76.9028
11092603 22.5604 24.9165 15.5443 13.9636 0.251791 -3.50113 76.9848
11092615 21.9824 24.4205 16.2826 14.6013 0.244817 -3.01196 77.2868
11092624 21.9824 24.4205 16.2826 14.6013 0.244817 -3.01196 77.2868
11092637 21.3845 23.9439 17.0098 15.2581 0.260219 -2.5247 77.5964
11092644 20.697 23.9439 17.6891 15.8197 0.440705 -2.13669 78.1497
11092660 20.697 23.3701 17.6891 15.8197 0.259051 -2.04155 77.5759
11092666 20.0193 22.8255 18.2994 16.4003 0.292462 -1.57558 77.5446
11092684 19.1823 22.0961 19.0081 17.1072 0.327179 -1.00069 77.3937
11092694 18.3154 21.3862 19.9236 17.945 0.35201 -0.354447 77.5701
11092716 17.289 20.5498 20.9079 18.7828 0.366205 0.358313 77.5295
11092731 16.3834 19.6842 22.04 19.8057 0.342229 1.1124 77.9133
11092736 16.3834 19.6842 22.04 19.8057 0.342229 1.1124 77.9133
11092746 15.4057 18.5561 23.2507 20.8968 0.254926 1.95607 78.1093
11092777 14.4808 17.6516 24.3335 21.7931 0.201374 2.68229 78.2591
11092778 13.7057 16.8066 25.121 22.5335 0.164205 3.28955 78.1669
11092786 13.7057 16.8066 25.121 22.5335 0.164205 3.28955 78.1669
11092799 12.9834 16.0699 25.9184 23.3713 0.172144 3.87458 78.343
11092806 14.3311 16.0699 26.9716 23.3713 -0.576356 3.70467 80.7439
11092816 12.0762 15.195 26.9716 24.1897 0.107387 4.56892 78.4325
11092826 11.1777 14.2925 28.0249 25.1931 0.0899225 5.28944 78.6883
11092836 11.1777 14.2925 28.0249 25.1931 0.0899225 5.28944 78.6883
11092846 10.2176 13.3808 28.9502 26.1576 0.117713 6.00512 78.7062
11092856 9.47772 12.5428 29.7475 27.0539 0.1178 6.61889 78.8219
11092870 9.47772 12.5428 29.7475 27.0539 0.1178 6.61889 78.8219
11092876 8.79067 11.6679 30.5153 27.9014 0.0834674 7.21864 78.8754
11092886 8.79067 11.6679 31.1847 27.9014 -0.127611 7.28411 79.5448
11092896 8.10363 10.8391 31.1847 28.6516 0.0642151 7.78638 78.779
11092906 7.6456 10.1853 31.736 29.3822 0.0588834 8.22442 78.9491
11092917 7.6456 10.1853 31.736 29.3822 0.0588834 8.22442 78.9491
11092927 7.12591 9.56826 32.2872 30.2006 0.112313 8.67501 79.1819
11092939 6.65026 8.87757 32.7794 31.0287 0.150177 9.12832 79.3359
11092947 6.65026 8.87757 32.7794 31.0287 0.150177 9.12832 79.3359
11092962 6.14819 8.38949 33.055 31.7593 0.297916 9.50385 79.352
11092967 6.14819 8.38949 33.055 31.7593 0.297916 9.50385 79.352
11092978 5.66373 7.77248 33.3405 32.3731 0.360501 9.9073 79.1497
11092987 5.37306 7.42254 33.5964 32.8991 0.42634 10.1588 79.2911
11092998 5.37306 7.42254 33.5964 32.8991 0.42634 10.1588 79.2911
11093008 4.9943 7.06338 33.8917 33.5811 0.552762 10.4517 79.5305
11093030 4.62435 6.48321 34 34 0.587445 10.7877 79.1076
11093031 4.62435 6.48321 34 34 0.587445 10.7877 79.1076
11093038 4.2544 6.09642 34 34 0.587747 11.0367 78.3508
11093052 3.94611 5.79252 34 34 0.593787 11.2418 77.7386
11093068 3.75233 5.60834 34 34 0.599793 11.37 77.3607
11093087 3.75233 5.60834 34 34 0.599793 11.37 77.3607
11093091 3.46166 5.29523 34 34 0.597203 11.5774 76.7569
11093099 3.2943 5.10184 34 34 0.591502 11.7029 76.3961
11093109 3.2943 5.10184 34 34 0.591502 11.7029 76.3961
11093119 3.17098 4.97291 34 34 0.591621 11.7914 76.1439
11093129 3.02124 4.8532 34 34 0.603613 11.8865 75.8744
11093140 3.02124 4.8532 34 34 0.603613 11.8865 75.8744
11093149 2.95959 4.73348 34 34 0.585884 11.951 75.6931
11093161 2.95959 4.73348 34 34 0.585884 11.951 75.6931
11093170 2.8715 4.59534 34 34 0.571057 12.0317 75.4668
11093183 2.72176 4.54009 34 34 0.603998 12.1054 75.2618
11093192 2.72176 4.54009 34 34 0.603998 12.1054 75.2618
11093199 2.73938 4.5493 34 34 0.600994 12.0957 75.2887
11093209 2.71295 4.49404 34 34 0.592062 12.1251 75.207
11093219 2.71295 4.49404 34 34 0.592062 12.1251 75.207
11093231 2.69534 4.57692 34 34 0.624925 12.1016 75.2723
11093251 2.63368 4.53088 34 34 0.631014 12.1405 75.1646
11093261 2.69534 4.63218 34 34 0.642806 12.0817 75.3275
11093272 2.69534 4.63218 34 34 0.642806 12.0817 75.3275
11093281 2.68653 4.58613 34 34 0.630909 12.1015 75.2727
11093292 2.6513 4.59534 34 34 0.645891 12.1108 75.2466
11093302 2.6513 4.59534 34 34 0.645891 12.1108 75.2466
11093314 2.67772 4.58613 34 34 0.633907 12.1046 75.2639
11093331 2.6601 4.53088 34 34 0.622007 12.1309 75.191
11093342 2.71295 4.55851 34 34 0.612968 12.1019 75.2715
11093352 2.71295 4.55851 34 34 0.612968 12.1019 75.2715
11093362 2.71295 4.57692 34 34 0.618932 12.0953 75.2899
11093372 2.68653 4.58613 34 34 0.630909 12.1015 75.2727
11093392 2.80104 4.6506 34 34 0.612831 12.0372 75.4516
11093404 2.80104 4.6506 34 34 0.612831 12.0372 75.4516
11093412 2.79223 4.58613 34 34 0.594968 12.0635 75.3784
11093423 2.79223 4.61376 34 34 0.603905 12.0536 75.406
11093433 2.79223 4.61376 34 34 0.603905 12.0536 75.406
11093447 2.81865 4.62297 34 34 0.597921 12.0408 75.4416
11093453 2.92435 4.6598 34 34 0.574017 11.9898 75.5842
11093463 2.92435 4.6598 34 34 0.574017 11.9898 75.5842
11093473 3.00363 4.7519 34 34 0.576943 11.9287 75.7555
11093483 3.00363 4.7519 34 34 0.576943 11.9287 75.7555
11093493 3.05648 4.76111 34 34 0.562081 11.9067 75.8176
11093503 3.11813 4.81636 34 34 0.559109 11.8653 75.9345
11093514 3.11813 4.81636 34 34 0.559109 11.8653 75.9345
11093523 3.1886 4.89003 34 34 0.559106 11.8144 76.0786
11093533 3.27668 4.92687 34 34 0.541374 11.7704 76.2036
11093543 3.27668 4.92687 34 34 0.541374 11.7704 76.2036
11093555 3.4 5.09263 34 34 0.553203 11.6692 76.4926
11093563 3.4 5.09263 34 34 0.553203 11.6692 76.4926
11093573 3.58497 5.35049 33.7834 34 0.645888 11.5059 76.7189
11093583 3.88446 5.82015 33.3897 34 0.825614 11.2236 77.0943
11093593 3.88446 5.82015 33.3897 34 0.825614 11.2236 77.0943
11093606 4.23679 6.49242 33.242 34 0.966251 10.8719 77.9712
11093613 4.49223 7.06338 33.2519 34 1.05297 10.6011 78.8075
11093624 4.49223 7.06338 33.2519 34 1.05297 10.6011 78.8075
11093635 4.74767 7.31203 33.0747 33.8831 1.06709 10.4214 79.0175
11093647 4.74767 7.31203 33.0747 33.8831 1.06709 10.4214 79.0175
11093653 5.00311 7.55146 32.7597 33.435 1.02338 10.2173 78.7492
11093663 5.37306 7.8922 32.3463 32.8699 0.969273 9.92928 78.4814
11093685 5.75181 8.50921 31.7163 32.1295 1.01484 9.52249 78.1068
11093694 6.42124 9.30119 31.0075 31.204 0.986871 8.94779 77.934
11093706 6.42124 9.30119 31.0075 31.204 0.986871 8.94779 77.934
11093721 6.98497 10.2221 30.4366 30.1713 0.954789 8.36616 77.815
11093728 6.98497 10.2221 30.4366 30.1713 0.954789 8.36616 77.815
11093745 7.61917 10.9496 29.7377 29.2556 0.918084 7.81783 77.5621
11093749 8.27979 11.8245 29.0486 28.3106 0.9058 7.21404 77.4635
11093773 9.06373 12.552 28.1922 27.2779 0.834772 6.58767 77.0859
11093775 10.0591 13.3808 27.2276 26.333 0.78803 5.86762 77.0004
11093784 10.0591 13.3808 27.2276 26.333 0.78803 5.86762 77.0004
11093797 11.1337 14.2465 26.194 25.3977 0.752395 5.10801 76.9718
11093804 11.1337 14.2465 26.194 25.3977 0.752395 5.10801 76.9718
11093823 11.9969 15.0845 25.2391 24.3066 0.703099 4.39746 76.6271
11093826 12.772 15.9225 24.5206 23.3324 0.64089 3.75422 76.5475
11093835 12.772 15.9225 24.5206 23.3324 0.64089 3.75422 76.5475
11093849 13.5648 16.6777 23.9496 22.3971 0.509349 3.15403 76.5892
11093856 14.1902 17.3696 23.4181 21.6372 0.456369 2.64222 76.615
11093874 14.1902 17.3696 23.4181 21.6372 0.456369 2.64222 76.615
11093877 14.7715 18.0698 22.9456 20.8774 0.401127 2.14865 76.6642
11093901 15.3969 18.7603 22.3943 20.1175 0.354302 1.63455 76.669
11093906 16.0839 19.4897 21.6856 19.416 0.37047 1.08144 76.6753
11093917 16.0839 19.4897 21.6856 19.416 0.37047 1.08144 76.6753
11093930 16.7622 20.1802 20.9965 18.549 0.317207 0.510501 76.4879
11093937 17.4982 20.754 20.3764 17.8378 0.234485 -0.00746548 76.4664
11093953 17.4982 20.754 20.3764 17.8378 0.234485 -0.00746548 76.4664
11093957 18.0563 21.2986 19.8054 17.1461 0.191018 -0.472434 76.3065
11093967 18.0563 21.2986 19.8054 17.1461 0.191018 -0.472434 76.3065
11093979 18.714 21.7849 19.2444 16.5526 0.124261 -0.924402 76.2958
11093987 19.3417 22.3976 18.6636 15.8578 0.0819743 -1.41973 76.2607
11094005 19.3417 22.3976 18.6636 15.8578 0.0819743 -1.41973 76.2607
11094007 19.9894 22.8255 18.0533 15.2962 0.025925 -1.86416 76.1644
11094017 20.677 23.3701 17.5217 14.6489 -0.0589281 -2.33735 76.2178
11094028 20.677 23.3701 17.5217 14.6489 -0.0589281 -2.33735 76.2178
11094038 21.2948 24.012 16.8856 14.1825 0.00460744 -2.79647 76.375
11094053 21.2948 24.012 16.8856 14.1825 0.00460744 -2.79647 76.375
11094058 21.813 24.4497 16.4073 13.6876 -0.027217 -3.17606 76.3576
11094068 22.4009 24.9457 15.9083 13.2116 -0.0496596 -3.57543 76.4665
11094078 22.4009 24.9457 15.9083 13.2116 -0.0496596 -3.57543 76.4665
11094088 22.9091 25.4319 15.3156 12.8975 0.0341982 -3.94386 76.5542
11094104 23.4074 25.9863 14.7541 12.5168 0.111377 -4.32848 76.6646
11094108 23.4074 25.9863 14.7541 12.5168 0.111377 -4.32848 76.6646
11094118 23.9056 26.4045 14.4318 12.1265 0.0629544 -4.63488 76.8684
11094131 23.9056 26.4045 14.4318 12.1265 0.0629544 -4.63488 76.8684
11094138 24.2444 26.667 14.0055 11.8124 0.0747919 -4.90559 76.7294
11094148 24.5832 26.988 13.6208 11.5078 0.0951082 -5.17131 76.6999
11094159 24.5832 26.988 13.6208 11.5078 0.0951082 -5.17131 76.6999
11094168 24.7227 27.1728 13.2985 11.1366 0.094381 -5.39635 76.3306
11094183 24.7327 27.2992 13.1633 10.9367 0.111622 -5.50332 76.1319
11094188 24.7327 27.2992 13.1633 10.9367 0.111622 -5.50332 76.1319
11094198 24.8523 27.4743 13.0281 10.8701 0.152162 -5.5943 76.2248
11094210 24.8523 27.4743 13.0281 10.8701 0.152162 -5.5943 76.2248
11094218 24.8423 27.5132 12.945 10.7844 0.167683 -5.64358 76.0849
11094228 25.0317 27.7368 12.9554 10.7368 0.15913 -5.70417 76.4607
11094238 25.0317 27.7368 12.9554 10.7368 0.15913 -5.70417 76.4607
11094249 25.1313 27.8438 12.9346 10.813 0.192562 -5.71426 76.7227
11094259 25.1313 27.8438 12.9346 10.813 0.192562 -5.71426 76.7227
11094268 25.2309 27.7952 12.8306 10.9177 0.2121 -5.72024 76.7744
11094288 25.1911 27.8924 12.9242 10.9462 0.235027 -5.69428 76.9539
11094290 25.1911 27.8924 12.9242 10.9462 0.235027 -5.69428 76.9539
11094298 25.3306 27.7952 12.9242 10.9462 0.158024 -5.69938 76.9962
11094315 25.3605 27.7466 12.9657 11.0129 0.140494 -5.66806 77.0857
11094318 25.3605 27.7466 12.9657 11.0129 0.140494 -5.66806 77.0857
11094328 25.3406 27.6882 12.9969 11.07 0.13642 -5.63491 77.0957
11094343 25.3406 27.6882 12.9969 11.07 0.13642 -5.63491 77.0957
11094348 25.221 27.4743 13.0385 11.0224 0.0772327 -5.59583 76.7562
11094370 25.1911 27.3965 13.1633 11.2223 0.0858545 -5.49581 76.9731
11094378 25.1213 27.2214 13.2465 11.2223 0.0246912 -5.44332 76.8115
11094398 25.0018 27.095 13.392 11.3651 0.0215411 -5.33603 76.8538
11094401 25.0018 27.095 13.392 11.3651 0.0215411 -5.33603 76.8538
11094408 24.8623 26.881 13.5896 11.5078 -0.020498 -5.2015 76.8407
11094426 24.8623 26.881 13.5896 11.5078 -0.020498 -5.2015 76.8407
11094431 24.6729 26.6476 13.8703 11.6125 -0.0921577 -5.04619 76.8034
11094438 24.4637 26.4336 14.1823 11.8791 -0.108247 -4.84078 76.9586
11094453 24.4637 26.4336 14.1823 11.8791 -0.108247 -4.84078 76.9586
11094460 24.3341 26.1613 14.5878 12.1551 -0.195971 -4.61285 77.2383
11094470 23.9953 25.889 15.0765 12.4692 -0.230384 -4.32752 77.43
11094489 23.6067 25.3736 15.6379 12.8785 -0.320187 -3.96091 77.4967
11094508 23.6067 25.3736 15.6379 12.8785 -0.320187 -3.96091 77.4967
11094513 23.0985 24.8873 16.1474 13.2878 -0.345767 -3.5941 77.421
11094521 22.5903 24.3232 16.7401 13.7542 -0.404643 -3.1817 77.4078
11094541 22.1419 23.623 17.0295 14.1349 -0.459334 -2.84684 76.9293
11094552 21.6436 23.0881 17.4036 14.706 -0.407675 -2.46392 76.8413
11094565 21.6436 23.0881 17.4036 14.706 -0.407675 -2.46392 76.8413
11094571 21.1952 22.7088 17.7383 15.1915 -0.336169 -2.14246 76.8338
11094581 21.1952 22.7088 17.7383 15.1915 -0.336169 -2.14246 76.8338
11094591 20.7567 22.2809 18.1222 15.6769 -0.299691 -1.80354 76.8367
11094601 20.2884 21.9211 18.575 16.2671 -0.219092 -1.43425 77.0515
11094622 19.6905 21.3959 19.1459 16.9143 -0.170521 -0.977257 77.1466
11094638 18.9332 20.8318 19.835 17.6138 -0.104445 -0.449969 77.2137
11094642 18.9332 20.8318 19.835 17.6138 -0.104445 -0.449969 77.2137
11094652 18.136 20.1705 20.4945 18.4808 0.00672638 0.129817 77.2818
11094662 18.136 20.1705 20.4945 18.4808 0.00672638 0.129817 77.2818
11094672 17.3488 19.4897 21.2131 19.3868 0.101587 0.728599 77.4384
11094686 16.6301 18.6922 22.0104 20.2344 0.0922203 1.33869 77.5671
11094693 16.6301 18.6922 22.0104 20.2344 0.0922203 1.33869 77.5671
11094710 15.8461 17.8461 22.7585 21.1014 0.110531 1.96663 77.5522
11094713 15.071 17.1556 23.5067 22.0269 0.194475 2.56693 77.7602
11094723 15.071 17.1556 23.5067 22.0269 0.194475 2.56693 77.7602
11094735 14.4192 16.2817 24.1859 22.8842 0.180301 3.1572 77.771
11094743 13.7057 15.6371 24.8946 23.8682 0.289652 3.72958 78.1056
11094759 13.7057 15.6371 24.8946 23.8682 0.289652 3.72958 78.1056
11094763 13.001 14.9372 25.692 24.7158 0.306311 4.30198 78.3459
11094773 13.001 14.9372 25.692 24.7158 0.306311 4.30198 78.3459
11094783 12.3228 14.1268 26.2826 25.6315 0.367808 4.8743 78.3636
11094793 11.6358 13.5098 26.9519 26.5278 0.461 5.40556 78.6252
11094808 11.6358 13.5098 26.9519 26.5278 0.461 5.40556 78.6252
11094813 10.9399 12.8099 27.6016 27.4923 0.558257 5.96322 78.8436
11094825 10.2 12.0547 28.1529 28.3496 0.651187 6.52278 78.7571
11094834 10.2 12.0547 28.1529 28.3496 0.651187 6.52278 78.7571
11094844 9.5658 11.3824 28.9404 29.2653 0.676408 7.06044 79.1539
11094856 9.5658 11.3824 28.9404 29.2653 0.676408 7.06044 79.1539
11094865 8.83471 10.5536 29.6393 30.1713 0.710553 7.65583 79.199
11094880 8.23575 9.86295 30.2594 31.0579 0.763595 8.16308 79.416
11094884 8.23575 9.86295 30.2594 31.0579 0.763595 8.16308 79.416
11094894 7.61917 9.1078 30.8008 31.6814 0.747764 8.66476 79.2092
11094905 7.07306 8.54605 31.2635 32.2562 0.778913 9.07909 79.1387
11094914 7.07306 8.54605 31.2635 32.2562 0.778913 9.07909 79.1387
11094930 6.57098 7.91062 31.8344 32.8115 0.731954 9.50952 79.1275
11094934 6.57098 7.91062 31.8344 32.8115 0.731954 9.50952 79.1275
11094944 6.08653 7.43174 32.2774 33.3181 0.753951 9.87386 79.1137
11094954 5.63731 7.02654 32.681 33.7272 0.770026 10.1953 79.072
11094966 5.63731 7.02654 32.681 33.7272 0.770026 10.1953 79.072
11094978 5.25855 6.5753 33.2027 34 0.668705 10.5082 79.0365
11094984 5.25855 6.5753 33.2027 34 0.668705 10.5082 79.0365
11095003 4.96788 6.19772 33.5767 34 0.524852 10.746 78.7423
11095011 4.61554 5.94908 34 34 0.424343 10.9659 78.5646
11095016 4.61554 5.94908 34 34 0.424343 10.9659 78.5646
11095029 4.43938 5.72806 34 34 0.412157 11.0978 78.1674
11095036 4.15751 5.50704 34 34 0.434411 11.2668 77.6646
11095046 4.15751 5.50704 34 34 0.434411 11.2668 77.6646
11095056 4.05181 5.34128 34 34 0.416529 11.3589 77.3931
11095068 3.89326 5.19393 34 34 0.421816 11.4635 77.0872
11095077 3.89326 5.19393 34 34 0.421816 11.4635 77.0872
11095087 3.8228 5.13868 34 34 0.427449 11.5068 76.9615
11095108 3.8228 5.13868 34 34 0.427449 11.5068 76.9615
11095110 3.72591 5.11105 34 34 0.450674 11.5497 76.837
11095131 3.72591 5.0558 34 34 0.43301 11.5688 76.7817
11095137 3.69948 5.12947 34 34 0.465316 11.5525 76.8289
11095154 3.73471 5.0558 34 34 0.430092 11.5658 76.7905
11095167 3.77876 5.18472 34 34 0.4567 11.5061 76.9635
11095180 3.77876 5.18472 34 34 0.4567 11.5061 76.9635
11095188 3.74352 5.11105 34 34 0.444841 11.5436 76.8546
11095203 3.74352 5.1571 34 34 0.459546 11.5277 76.9006
11095208 3.74352 5.1571 34 34 0.459546 11.5277 76.9006
11095218 3.69067 5.09263 34 34 0.456464 11.5683 76.7833
11095229 3.67306 5.08342 34 34 0.459364 11.5776 76.7565
11095239 3.67306 5.08342 34 34 0.459364 11.5776 76.7565
11095253 3.58497 4.99133 34 34 0.459135 11.6401 76.5763
11095259 3.58497 4.99133 34 34 0.459135 11.6401 76.5763
11095269 3.54093 4.88082 34 34 0.438324 11.694 76.4218
11095282 3.41762 4.84399 34 34 0.467589 11.75 76.2616
11095289 3.41762 4.84399 34 34 0.467589 11.75 76.2616
11095303 3.33834 4.74269 34 34 0.461465 11.8135 76.081
11095311 3.24145 4.67822 34 34 0.473121 11.8705 75.9197
11095321 3.24145 4.67822 34 34 0.473121 11.8705 75.9197
11095331 3.24145 4.58613 34 34 0.443336 11.9031 75.8276
11095341 3.10052 4.58613 34 34 0.490713 11.9532 75.6866
11095355 3.10052 4.46641 34 34 0.451884 11.9959 75.5669
11095361 3.05648 4.40195 34 34 0.445765 12.0348 75.4584
11095371 3.05648 4.40195 34 34 0.445765 12.0348 75.4584
11095382 2.94197 4.31907 34 34 0.457442 12.1057 75.261
11095391 2.90674 4.3467 34 34 0.478369 12.1084 75.2534
11095403 2.90674 4.3467 34 34 0.478369 12.1084 75.2534
11095411 2.80984 4.27302 34 34 0.487185 12.17 75.0829
11095428 2.80984 4.27302 34 34 0.487185 12.17 75.0829
11095431 2.77461 4.17172 34 34 0.466037 12.2195 74.9463
11095441 2.71295 4.19014 34 34 0.493032 12.2352 74.9031
11095452 2.71295 4.19014 34 34 0.493032 12.2352 74.9031
11095461 2.75699 4.19935 34 34 0.481063 12.2158 74.9563
11095477 2.63368 4.19014 34 34 0.520042 12.264 74.8238
11095481 2.63368 4.19014 34 34 0.520042 12.264 74.8238
11095491 2.70415 4.19935 34 34 0.499043 12.235 74.9035
11095502 2.70415 4.19935 34 34 0.499043 12.235 74.9035
11095511 2.6601 4.19935 34 34 0.514045 12.2511 74.8595
11095521 2.74819 4.19935 34 34 0.484058 12.219 74.9475
11095531 2.74819 4.19935 34 34 0.484058 12.219 74.9475
11095541 2.81865 4.23619 34 34 0.472167 12.1801 75.0548
11095552 2.82746 4.18093 34 34 0.451106 12.197 75.0084
11095563 2.82746 4.18093 34 34 0.451106 12.197 75.0084
11095572 2.94197 4.28223 34 34 0.445423 12.1189 75.2242
11095584 2.94197 4.28223 34 34 0.445423 12.1189 75.2242
11095593 2.99482 4.26381 34 34 0.421542 12.1065 75.2586
11095610 3.02124 4.30986 34 34 0.427651 12.0804 75.3311
11095613 3.02124 4.30986 34 34 0.427651 12.0804 75.3311
11095626 3.24145 4.51246 34 34 0.419453 11.9293 75.7539
11095637 3.42642 4.57692 34 34 0.378436 11.8409 76.0033
11095648 3.42642 4.57692 34 34 0.378436 11.8409 76.0033
11095661 3.72591 4.72427 34 34 0.326473 11.684 76.4502
11095663 3.72591 4.72427 34 34 0.326473 11.684 76.4502
11095673 4.12228 5.00975 34 34 0.287646 11.4482 77.132
11095685 4.42176 5.28602 34 34 0.278047 11.2522 77.7078
11095693 4.42176 5.28602 34 34 0.278047 11.2522 77.7078
11095705 4.87098 5.72806 33.9114 33.6103 0.177926 10.9297 78.1208
11095714 5.37306 6.35428 33.5964 32.9381 0.103155 10.5046 78.2619
11095734 6.07772 7.06338 33.0156 31.9542 -0.0242651 9.95291 78.1109
11095744 6.83523 7.88299 32.2872 30.902 -0.108282 9.33242 77.9074
11095755 6.83523 7.88299 32.2872 30.902 -0.108282 9.33242 77.9074
11095764 7.63679 8.78548 31.5588 29.6648 -0.239973 8.65493 77.6458
11095780 7.63679 8.78548 31.5588 29.6648 -0.239973 8.65493 77.6458
11095786 8.32383 9.66956 30.9583 28.5347 -0.347777 8.03359 77.4864
11095794 9.04611 10.5628 30.3874 27.4825 -0.447907 7.40737 77.4789
11095815 9.7772 11.4285 29.6885 26.4011 -0.529152 6.76961 77.2953
11095835 10.4731 12.2941 28.773 25.2418 -0.556803 6.10448 76.7821
11095844 11.3363 13.2887 27.769 24.1994 -0.527811 5.35491 76.5934
11095855 11.3363 13.2887 27.769 24.1994 -0.527811 5.35491 76.5934
11095864 12.085 14.1083 26.8732 23.3713 -0.483556 4.71976 76.4379
11095877 12.7456 14.8819 26.2727 22.6504 -0.485297 4.17286 76.5507
11095884 12.7456 14.8819 26.2727 22.6504 -0.485297 4.17286 76.5507
11095900 13.3974 15.7291 25.6132 21.9198 -0.444072 3.60159 76.6595
11095906 14.058 15.7291 24.9537 21.9198 -0.444424 3.34323 76.6606
11095923 14.058 16.429 24.9537 21.1404 -0.470832 3.05695 76.5811
11095926 14.8244 17.2529 24.0382 20.2539 -0.443842 2.39917 76.3693
11095936 14.8244 17.2529 24.0382 20.2539 -0.443842 2.39917 76.3693
11095948 15.5114 18.0114 23.1326 19.4453 -0.390038 1.78481 76.1007
11095956 16.4098 18.8478 21.9907 18.5685 -0.324556 1.04889 75.8169
11095966 16.4098 18.8478 21.9907 18.5685 -0.324556 1.04889 75.8169
11095977 17.3388 19.7815 21.0261 17.8281 -0.248544 0.342327 75.9744
11095987 18.3453 20.5011 20.2484 17.0487 -0.342709 -0.305201 76.1435
11095999 18.3453 20.5011 20.2484 17.0487 -0.342709 -0.305201 76.1435
11096007 19.2122 21.1722 19.5594 16.2956 -0.427505 -0.891154 76.2394
11096021 19.2122 21.1722 19.5594 16.2956 -0.427505 -0.891154 76.2394
11096028 19.8998 21.7363 18.9687 15.6865 -0.473768 -1.37254 76.2912
11096038 20.7767 22.4559 18.2895 15.0868 -0.497152 -1.92986 76.6089
11096048 20.7767 22.4559 18.2895 15.0868 -0.497152 -1.92986 76.6089
11096058 21.6835 23.0395 17.63 14.411 -0.606738 -2.47811 76.7639
11096070 22.4009 23.5841 17.0295 13.8399 -0.652698 -2.95018 76.8544
11096078 22.4009 23.5841 17.0295 13.8399 -0.652698 -2.95018 76.8544
11096093 23.0487 24.1384 16.3865 13.2973 -0.650257 -3.41545 76.8709
11096107 23.0487 24.1384 16.3865 13.2973 -0.650257 -3.41545 76.8709
11096109 23.6366 24.5566 15.7835 12.8595 -0.652026 -3.81661 76.8362
11096118 24.1846 24.9846 15.3468 12.4502 -0.681047 -4.16525 76.9661
11096129 24.1846 24.9846 15.3468 12.4502 -0.681047 -4.16525 76.9661
11096139 24.5932 25.3638 14.8165 12.0028 -0.665265 -4.52048 76.7764
11096148 24.9818 25.6653 14.3902 11.6221 -0.679843 -4.82032 76.6594
11096163 24.9818 25.6653 14.3902 11.6221 -0.679843 -4.82032 76.6594
11096168 25.3107 25.9085 14.0471 11.2508 -0.71829 -5.08145 76.5171
11096178 25.3107 25.9085 14.0471 11.2508 -0.71829 -5.08145 76.5171
11096188 25.6594 26.1322 13.704 10.9748 -0.737689 -5.3183 76.4704
11096198 25.8787 26.3461 13.444 10.6988 -0.745678 -5.51582 76.3676
11096210 25.8787 26.3461 13.444 10.6988 -0.745678 -5.51582 76.3676
11096219 26.058 26.492 13.2049 10.4894 -0.748111 -5.67697 76.2443
11096234 26.3171 26.6087 13.0073 10.4418 -0.744352 -5.78921 76.3749
11096239 26.3171 26.6087 13.0073 10.4418 -0.744352 -5.78921 76.3749
11096249 26.4566 26.8129 12.8826 10.3085 -0.725128 -5.90078 76.4606
11096261 26.4566 26.8129 12.8826 10.3085 -0.725128 -5.90078 76.4606
11096272 26.5961 26.9102 12.7994 10.2609 -0.726302 -5.96461 76.5666
11096283 26.7456 27.0463 12.7578 10.2133 -0.730734 -6.02259 76.7631
11096294 26.7456 27.0463 12.7578 10.2133 -0.730734 -6.02259 76.7631
11096304 26.8253 27.1436 12.7058 10.1943 -0.713308 -6.06268 76.869
11096311 27.0545 27.2117 12.5914 10.1277 -0.749047 -6.14671 76.9853
11096321 27.0545 27.2117 12.5914 10.1277 -0.749047 -6.14671 76.9853
11096332 27.1542 27.2797 12.5394 10.1372 -0.738125 -6.17761 77.1105
11096341 27.1542 27.2797 12.5394 10.1372 -0.738125 -6.17761 77.1105
11096353 27.3036 27.3186 12.4667 10.023 -0.787394 -6.25053 77.1119
11096361 27.3435 27.3867 12.3939 9.98488 -0.767024 -6.29332 77.109
11096371 27.3435 27.3867 12.3939 9.98488 -0.767024 -6.29332 77.109
11096381 27.3834 27.4256 12.2899 9.95633 -0.743397 -6.33885 77.0552
11096391 27.4132 27.5132 12.1651 9.86114 -0.716053 -6.41306 76.9527
11096402 27.4132 27.5132 12.1651 9.86114 -0.716053 -6.41306 76.9527
11096412 27.483 27.5521 12.0924 9.74692 -0.740291 -6.47728 76.8743
11096426 27.483 27.5521 12.0924 9.74692 -0.740291 -6.47728 76.8743
11096432 27.5029 27.5423 12.0508 9.7374 -0.739898 -6.4927 76.8334
11096450 27.483 27.5521 12.082 9.69933 -0.752954 -6.4935 76.8163
11096462 27.3933 27.4548 11.9468 9.69933 -0.714421 -6.51069 76.4942
11096475 27.3535 27.4937 11.9468 9.80403 -0.653578 -6.48118 76.598
11096482 27.3535 27.4937 11.9468 9.80403 -0.653578 -6.48118 76.598
11096499 27.0545 27.484 11.9156 9.83259 -0.541884 -6.44745 76.2867
11096503 26.7655 27.484 11.9884 9.83259 -0.472371 -6.39444 76.0705
11096513 26.7655 27.377 11.9884 9.96585 -0.463574 -6.34488 76.0968
11096524 26.5463 27.4354 12.1443 10.1657 -0.357035 -6.22707 76.2917
11096548 26.4666 27.3284 12.3419 10.4418 -0.338978 -6.0744 76.5786
11096553 26.3769 27.2797 12.5602 10.6607 -0.324123 -5.93848 76.8776
11096563 26.3769 27.2797 12.5602 10.6607 -0.324123 -5.93848 76.8776
11096573 26.2175 27.2797 12.7682 10.8701 -0.270891 -5.80645 77.1355
11096583 26.2175 27.2797 12.7682 10.8701 -0.270891 -5.80645 77.1355
11096598 25.9883 27.1241 12.8618 11.0985 -0.203495 -5.67362 77.0727
11096604 25.789 26.9685 13.1529 11.3175 -0.212318 -5.49422 77.2279
11096623 25.6196 26.6865 13.3089 11.4793 -0.247316 -5.35408 77.0942
11096633 25.2907 26.4142 13.5168 11.6506 -0.241554 -5.17822 76.8724
11096646 25.2907 26.4142 13.5168 11.6506 -0.241554 -5.17822 76.8724
11096653 25.0018 26.2002 13.7352 11.9552 -0.18906 -4.97675 76.8924
11096663 25.0018 26.2002 13.7352 11.9552 -0.18906 -4.97675 76.8924
11096674 24.4836 25.7334 14.1407 12.3455 -0.177759 -4.64079 76.7031
11096688 23.7562 25.0818 14.8373 12.8404 -0.219311 -4.14821 76.5157
11096711 22.959 24.3524 15.7627 13.5924 -0.25333 -3.5132 76.6665
11096714 21.9924 23.4868 17.0492 14.687 -0.280951 -2.66974 77.2155
11096725 21.9924 23.4868 17.0492 14.687 -0.280951 -2.66974 77.2155
11096742 20.7966 22.4268 18.4765 15.8102 -0.334211 -1.72944 77.5101
11096747 20.7966 22.4268 18.4765 15.8102 -0.334211 -1.72944 77.5101
11096756 19.4015 21.25 20.1795 17.1851 -0.367208 -0.63197 78.0161
11096772 17.9267 20.0149 21.971 18.549 -0.425017 0.492938 78.4616
11096786 16.5948 18.7797 23.6149 19.9129 -0.480694 1.55 78.9024
11096803 15.4145 17.7002 25.0029 21.0138 -0.538163 2.44566 79.1314
11096807 15.4145 17.7002 25.0029 21.0138 -0.538163 2.44566 79.1314
11096817 14.287 16.6961 26.0759 21.9198 -0.553007 3.23109 78.9788
11096827 13.2477 15.812 26.9815 22.6504 -0.561269 3.92142 78.6916
11096848 12.4285 15.0753 27.7197 23.3811 -0.53809 4.50299 78.6046
11096867 11.6358 14.357 28.2611 23.9461 -0.50952 5.02836 78.2
11096877 10.8606 13.6111 28.9699 24.6865 -0.490518 5.60325 78.1281
11096897 10.1648 12.9388 29.6097 25.5146 -0.422193 6.13991 78.2279
11096907 9.40725 12.2665 30.2791 26.294 -0.35971 6.69023 78.2469
11096926 9.40725 12.2665 30.2791 26.294 -0.35971 6.69023 78.2469
11096928 8.83471 11.7232 30.9091 27.0246 -0.317225 7.14264 78.4916
11096942 8.83471 11.7232 30.9091 27.0246 -0.317225 7.14264 78.4916
11096951 8.19171 11.1338 31.4406 27.6774 -0.261717 7.60914 78.4435
11096958 7.7601 10.6733 32.0116 28.3301 -0.243811 7.97997 78.7751
11096968 7.7601 10.6733 32.0116 28.3301 -0.243811 7.97997 78.7751
11096978 7.34611 10.1484 32.4841 28.9731 -0.22441 8.35244 78.9517
11096990 6.87927 9.64193 32.927 29.8011 -0.114587 8.74587 79.2494
11096999 6.87927 9.64193 32.927 29.8011 -0.114587 8.74587 79.2494
11097013 6.44767 9.14464 33.3503 30.561 -0.0290304 9.11638 79.5037
11097019 6.44767 9.14464 33.3503 30.561 -0.0290304 9.11638 79.5037
11097036 6.03368 8.61051 33.6948 31.2917 0.0545263 9.48297 79.6307
11097041 5.60207 8.16847 33.9212 31.9347 0.182045 9.81182 79.6265
11097051 5.60207 8.16847 33.9212 31.9347 0.182045 9.81182 79.6265
11097061 5.22332 7.63434 34 32.5484 0.302073 10.1423 79.4061
11097071 4.83575 7.16468 34 33.2888 0.510079 10.4595 79.2893
11097083 4.83575 7.16468 34 33.2888 0.510079 10.4595 79.2893
11097091 4.4658 6.60293 34 33.9221 0.651714 10.7962 78.9908
11097107 4.06062 6.09642 34 34 0.65119 11.1013 78.157
11097111 4.06062 6.09642 34 34 0.65119 11.1013 78.157
11097131 3.75233 5.77411 34 34 0.651962 11.3136 77.5264
11097132 3.75233 5.77411 34 34 0.651962 11.3136 77.5264
11097141 3.38238 5.36891 34 34 0.647065 11.5794 76.7513
11097154 3.13575 5.10184 34 34 0.644723 11.7585 76.2376
11097163 3.13575 5.10184 34 34 0.644723 11.7585 76.2376
11097178 2.94197 4.89003 34 34 0.642231 11.9016 75.832
11097182 2.74819 4.72427 34 34 0.654569 12.0297 75.4725
11097202 2.73938 4.66901 34 34 0.639728 12.0527 75.4084
11097212 2.73938 4.66901 34 34 0.639728 12.0527 75.4084
11097229 2.61606 4.49404 34 34 0.625074 12.1601 75.1101
11097233 2.72176 4.4572 34 34 0.577104 12.1352 75.179
11097243 2.72176 4.4572 34 34 0.577104 12.1352 75.179
11097254 2.6513 4.41116 34 34 0.586134 12.1774 75.0625
11097263 2.56321 4.33749 34 34 0.592211 12.2361 74.9007
11097283 2.64249 4.37432 34 34 0.577146 12.1939 75.0168
11097293 2.64249 4.37432 34 34 0.577146 12.1939 75.0168
11097306 2.61606 4.3559 34 34 0.580162 12.2102 74.972
11097313 2.60725 4.32828 34 34 0.574169 12.2234 74.9355
11097331 2.60725 4.32828 34 34 0.574169 12.2234 74.9355
11097335 2.6601 4.3559 34 34 0.565147 12.1942 75.016
11097344 2.6601 4.3559 34 34 0.565147 12.1942 75.016
11097356 2.6601 4.3559 34 34 0.565147 12.1942 75.016
11097364 2.73057 4.42037 34 34 0.562134 12.1454 75.1509
11097384 2.64249 4.40195 34 34 0.586143 12.1839 75.0444
11097395 2.70415 4.41116 34 34 0.568131 12.1582 75.1153
11097406 2.70415 4.41116 34 34 0.568131 12.1582 75.1153
11097414 2.75699 4.4572 34 34 0.565124 12.1225 75.2142
11097431 2.82746 4.4572 34 34 0.541195 12.0972 75.2847
11097434 2.82746 4.4572 34 34 0.541195 12.0972 75.2847
11097444 2.84508 4.50325 34 34 0.550169 12.0743 75.3483
11097457 2.84508 4.50325 34 34 0.550169 12.0743 75.3483
11097464 2.93316 4.53088 34 34 0.529298 12.0327 75.464
11097482 3.03886 4.63218 34 34 0.526398 11.9588 75.671
11097495 3.12694 4.64139 34 34 0.499699 11.9242 75.7683
11097505 3.19741 4.76111 34 34 0.514656 11.8568 75.9585
11097526 3.28549 4.80715 34 34 0.499937 11.8094 76.0926
11097534 3.28549 4.80715 34 34 0.499937 11.8094 76.0926
11097546 3.34715 4.84399 34 34 0.491145 11.7748 76.1911
11097554 3.44404 4.88082 34 34 0.470614 11.7279 76.3249
11097569 3.44404 4.88082 34 34 0.470614 11.7279 76.3249
11097576 3.54093 4.9545 34 34 0.461978 11.6683 76.4954
11097585 3.68187 5.0558 34 34 0.447607 11.5841 76.7377
11097606 3.76114 5.23077 34 34 0.477201 11.4963 76.9919
11097618 3.76114 5.23077 34 34 0.477201 11.4963 76.9919
11097626 3.90207 5.2584 34 34 0.43945 11.4384 77.1605
11097636 4.06062 5.47941 34 34 0.457439 11.309 77.54
11097648 4.06062 5.47941 34 34 0.457439 11.309 77.54
11097656 4.26321 5.63597 34 33.9318 0.419039 11.1844 77.831
11097672 4.55389 5.63597 34 33.5811 0.213179 11.0693 77.771
11097676 4.55389 5.83857 34 33.5811 0.277588 11.0015 77.9735
11097686 4.85337 6.04117 34 33.2986 0.155503 10.8201 78.1931
11097697 4.85337 6.04117 34 33.2986 0.155503 10.8201 78.1931
11097706 5.12642 6.45558 34 32.7238 0.0168979 10.5628 78.3058
11097716 5.56684 6.99892 33.4881 32.0029 -0.0170335 10.1705 78.0567
11097726 5.56684 6.99892 33.4881 32.0029 -0.0170335 10.1705 78.0567
11097738 6.20984 7.72644 32.7695 31.1163 -0.0438884 9.62764 77.8222
11097746 7.09067 8.61051 31.608 30.298 0.0675976 8.93052 77.6072
11097767 8.13005 9.56826 30.535 29.5089 0.132507 8.17039 77.7422
11097777 8.13005 9.56826 30.535 29.5089 0.132507 8.17039 77.7422
11097787 9.09896 10.4523 29.4818 28.6711 0.174594 7.45164 77.7041
11097797 10.0767 11.4745 28.4876 27.6189 0.170371 6.67453 77.6577
11097812 10.0767 11.4745 28.4876 27.6189 0.170371 6.67453 77.6577
11097817 10.9927 12.5796 27.2768 26.3817 0.223929 5.8434 77.2308
11097843 11.8736 13.5742 26.3023 25.31 0.229824 5.09301 77.0601
11097847 12.6927 14.5412 25.3376 24.3845 0.290871 4.38332 76.956
11097858 12.6927 14.5412 25.3376 24.3845 0.290871 4.38332 76.956
11097872 13.4415 15.3239 24.432 23.4395 0.290352 3.7396 76.6369
11097878 14.0668 15.9594 23.802 22.7089 0.261128 3.23072 76.5371
11097903 14.5953 16.5395 23.1917 21.9295 0.223607 2.75118 76.2561
11097909 15.0534 17.1653 22.6798 21.1209 0.181893 2.28534 76.0194
11097918 15.0534 17.1653 22.6798 21.1209 0.181893 2.28534 76.0194
11097936 15.5819 17.7683 22.2959 20.3708 0.085941 1.83837 76.0168
11097949 15.5819 17.7683 22.2959 20.3708 0.085941 1.83837 76.0168
11097951 15.9694 18.1865 21.9415 19.7375 0.0043124 1.48806 75.835
11097965 16.4539 18.7895 21.5379 19.1043 -0.0322998 1.06717 75.8856
11097979 17.0698 19.4119 20.967 18.3444 -0.0925019 0.560029 75.7931
11097996 17.857 20.1413 20.4059 17.6332 -0.160557 0.00806272 76.0374
11097999 17.857 20.1413 20.4059 17.6332 -0.160557 0.00806272 76.0374
11098011 18.5645 20.8026 19.7365 16.981 -0.170016 -0.522368 76.0846
11098029 19.2819 21.4931 19.1459 16.2671 -0.219078 -1.05569 76.1881
11098040 20.0293 22.135 18.4864 15.5913 -0.258857 -1.59099 76.242
11098051 20.0293 22.135 18.4864 15.5913 -0.258857 -1.59099 76.242
11098061 20.8066 22.8936 17.7776 14.8583 -0.272569 -2.1741 76.3362
11098071 21.534 23.5063 17.0787 14.2396 -0.283797 -2.69555 76.3587
11098081 21.534 23.5063 17.0787 14.2396 -0.283797 -2.69555 76.3587
11098091 22.3212 24.2357 16.3865 13.6209 -0.277913 -3.24226 76.5644
11098102 22.3212 24.2357 16.3865 13.6209 -0.277913 -3.24226 76.5644
11098111 23.0088 24.8095 15.5859 13.0308 -0.246759 -3.76821 76.435
11098127 23.7263 25.3347 14.9621 12.5263 -0.270203 -4.22718 76.5493
11098131 23.7263 25.3347 14.9621 12.5263 -0.270203 -4.22718 76.5493
11098154 24.3839 25.9085 14.2966 11.9933 -0.254244 -4.70131 76.5823
11098157 24.8822 26.4142 13.756 11.4793 -0.24326 -5.10791 76.5316
11098161 24.8822 26.4142 13.756 11.4793 -0.24326 -5.10791 76.5316
11098177 25.4103 26.8713 13.2153 11.1557 -0.195254 -5.46179 76.6525
11098180 25.4103 26.8713 13.2153 11.1557 -0.195254 -5.46179 76.6525
11098203 25.779 27.163 12.8306 10.8511 -0.19429 -5.72807 76.6237
11098209 26.1975 27.4937 12.5291 10.6607 -0.186066 -5.95105 76.881
11098218 26.1975 27.4937 12.5291 10.6607 -0.186066 -5.95105 76.881
11098229 26.4367 27.7563 12.1755 10.3751 -0.156622 -6.18468 76.7437
11098233 26.5862 27.98 11.9364 10.1753 -0.119765 -6.34887 76.6778
11098243 26.5862 27.98 11.9364 10.1753 -0.119765 -6.34887 76.6778
11098254 26.7356 28.1939 11.6661 9.9944 -0.0696421 -6.51569 76.59
11098263 26.7855 28.1939 11.5933 9.9944 -0.0621676 -6.54166 76.5671
11098281 26.7855 28.2523 11.5933 9.86114 -0.0867099 -6.58564 76.4922
11098283 26.8652 28.2815 11.5205 9.80403 -0.0981346 -6.63429 76.4712
11098306 26.8154 28.4079 11.4373 9.72788 -0.0382558 -6.6878 76.3884
11098313 26.7655 28.369 11.4269 9.80403 -0.00635833 -6.65947 76.3655
11098330 26.7655 28.369 11.4269 9.80403 -0.00635833 -6.65947 76.3655
11098334 26.7257 28.3398 11.4581 9.8421 -0.000606477 -6.63229 76.3657
11098346 26.636 28.155 11.5933 9.89922 -0.0573561 -6.54765 76.2835
11098364 26.5264 28.1453 11.874 10.1467 -0.0353277 -6.38609 76.6924
11098381 26.5264 28.1453 11.874 10.1467 -0.0353277 -6.38609 76.6924
11098384 26.4068 27.9994 12.03 10.2895 -0.0481799 -6.27302 76.7257
11098394 26.2773 27.8535 12.2171 10.537 -0.0337809 -6.1215 76.8849
11098405 26.2773 27.8535 12.2171 10.537 -0.0337809 -6.1215 76.8849
11098414 26.0879 27.659 12.4875 10.7844 -0.0428185 -5.93525 77.0189
11098431 25.8288 27.4451 12.7266 11.0129 -0.0316471 -5.75246 77.0134
11098434 25.8288 27.4451 12.7266 11.0129 -0.0316471 -5.75246 77.0134
11098456 25.4801 27.1436 13.1217 11.3841 -0.0240177 -5.46831 77.1295
11098457 25.4801 27.1436 13.1217 11.3841 -0.0240177 -5.46831 77.1295
11098466 25.1413 26.7935 13.4544 11.7648 -0.0121161 -5.19392 77.154
11098481 24.7128 26.5212 13.8911 12.2217 0.044924 -4.87178 77.3468
11098486 24.7128 26.5212 13.8911 12.2217 0.044924 -4.87178 77.3468
11098505 24.2444 26.0057 14.3798 12.7262 0.0348002 -4.48784 77.3562
11098507 23.786 25.4903 14.9621 13.2116 -0.0149161 -4.08701 77.4501
11098531 23.1583 24.9846 15.482 13.8684 0.0686347 -3.63757 77.4932
11098547 22.5604 24.3232 16.0642 14.3729 0.0231296 -3.19057 77.3207
11098558 21.8429 23.6911 16.7505 14.9535 0.016582 -2.68585 77.238
11098568 21.8429 23.6911 16.7505 14.9535 0.016582 -2.68585 77.238
11098580 21.1553 23.0978 17.3741 15.5722 0.0455528 -2.19695 77.1994
11098588 20.4379 22.5046 18.132 16.1909 0.0406444 -1.67335 77.2654
11098606 20.4379 22.5046 18.132 16.1909 0.0406444 -1.67335 77.2654
11098608 19.6606 21.9794 18.8014 16.8763 0.127286 -1.15673 77.3177
11098618 19.6606 21.9794 18.8014 16.8763 0.127286 -1.15673 77.3177
11098631 18.8834 21.25 19.6283 17.6819 0.13569 -0.546815 77.4436
11098638 18.0662 20.4817 20.4453 18.5782 0.17674 0.0919622 77.5714
11098655 18.0662 20.4817 20.4453 18.5782 0.17674 0.0919622 77.5714
11098660 17.1594 19.8106 21.4395 19.3966 0.195444 0.745309 77.8061
11098670 16.2689 18.9062 22.3451 20.4195 0.228265 1.46065 77.9397
11098689 15.4762 18.0601 23.3196 21.345 0.194773 2.13458 78.2009
11098704 14.6746 17.2237 24.2449 22.1633 0.149241 2.77945 78.3066
11098709 14.6746 17.2237 24.2449 22.1633 0.149241 2.77945 78.3066
11098719 13.8378 16.4106 25.2391 22.933 0.0849873 3.42837 78.4205
11098729 13.8378 16.4106 25.2391 22.933 0.0849873 3.42837 78.4205
11098741 12.9482 15.6647 26.1743 23.7415 0.0903338 4.06914 78.5287
11098751 12.0674 14.7714 27.1587 24.5599 0.0335008 4.75063 78.5573
11098774 11.2306 13.8781 28.1135 25.5633 0.030899 5.4391 78.7855
11098781 10.244 12.773 29.2849 26.8201 0.0202686 6.27282 79.122
11098801 9.3544 11.7232 30.2889 27.9112 -0.0028342 7.02389 79.2777
11098811 9.3544 11.7232 30.2889 27.9112 -0.0028342 7.02389 79.2777
11098822 8.5 10.6641 31.2733 29.0413 -0.0213608 7.76631 79.4787
11098830 7.73368 9.66035 31.9722 30.1324 0.0273079 8.4361 79.4986
11098848 7.73368 9.66035 31.9722 30.1324 0.0273079 8.4361 79.4986
11098852 7.00259 8.87757 32.4152 30.8436 0.0958323 8.98014 79.1389
11098862 6.3772 8.07638 32.7105 31.6619 0.206336 9.49918 78.826
11098873 6.3772 8.07638 32.7105 31.6619 0.206336 9.49918 78.826
11098883 5.87513 7.49621 33.055 32.4607 0.325409 9.91501 78.8871
11098895 5.35544 6.95287 33.2322 33.094 0.463924 10.3042 78.6345
11098903 5.35544 6.95287 33.2322 33.094 0.463924 10.3042 78.6345
11098920 5.06477 6.52004 33.4291 33.7467 0.562754 10.5873 78.7606
11098923 5.06477 6.52004 33.4291 33.7467 0.562754 10.5873 78.7606
11098933 4.76529 6.23456 33.6358 34 0.582907 10.8035 78.6356
11098946 4.50984 5.95829 33.7638 34 0.538364 10.9857 78.2319
11098954 4.50984 5.95829 33.7638 34 0.538364 10.9857 78.2319
11098970 4.23679 5.62676 34 34 0.446287 11.1997 77.8635
11098973 4.0342 5.41495 34 34 0.445697 11.3399 77.4492
11098983 4.0342 5.41495 34 34 0.445697 11.3399 77.4492
11098998 3.84922 5.18472 34 34 0.433412 11.4818 77.034
11099003 3.84922 5.18472 34 34 0.433412 11.4818 77.034
11099013 3.58497 4.88082 34 34 0.42367 11.6786 76.4658
11099023 3.39119 4.73348 34 34 0.440821 11.7981 76.1247
11099033 3.39119 4.73348 34 34 0.440821 11.7981 76.1247
11099048 3.1886 4.52167 34 34 0.440186 11.9448 75.7103
11099054 2.98601 6.62134 34 34 1.17107 11.2862 77.6074
11099064 2.98601 4.26381 34 34 0.424519 12.1097 75.2498
11099074 2.7658 4.1441 34 34 0.459984 12.2327 74.9099
11099084 2.7658 4.1441 34 34 0.459984 12.2327 74.9099
11099099 2.5544 3.83099 34 34 0.429043 12.4247 74.3854
11099104 2.37824 3.69285 34 34 0.443697 12.5411 74.0711
11099114 2.37824 3.69285 34 34 0.443697 12.5411 74.0711
11099126 2.18446 3.52709 34 34 0.455365 12.6754 73.7115
11099136 2.09637 3.3429 34 34 0.42434 12.7781 73.4393
11099156 1.97306 3.19556 34 34 0.417697 12.8808 73.1686
11099180 1.97306 3.19556 34 34 0.417697 12.8808 73.1686
11099181 1.83212 3.039 34 34 0.414047 12.9946 72.8711
11099186 1.74404 2.91929 34 34 0.404343 13.0747 72.6633
11099204 1.74404 2.91929 34 34 0.404343 13.0747 72.6633
11099206 1.60311 2.80878 34 34 0.416255 13.1722 72.4119
11099216 1.55907 2.68906 34 34 0.391009 13.236 72.2481
11099228 1.55907 2.68906 34 34 0.391009 13.236 72.2481
11099236 1.52383 2.68906 34 34 0.403398 13.2498 72.2129
11099252 1.52383 2.68906 34 34 0.403398 13.2498 72.2129
11099256 1.46218 2.67985 34 34 0.421968 13.2776 72.142
11099267 1.50622 2.67985 34 34 0.406459 13.2603 72.1861
11099287 1.55907 2.67985 34 34 0.387874 13.2396 72.2389
11099302 1.47979 2.82719 34 34 0.465861 13.213 72.307
11099307 1.47979 2.82719 34 34 0.465861 13.213 72.307
11099317 1.58549 2.92849 34 34 0.463015 13.1325 72.514
11099327 1.58549 2.92849 34 34 0.463015 13.1325 72.514
11099337 1.66477 2.94691 34 34 0.441438 13.0947 72.6117
11099360 1.68238 3.02059 34 34 0.46016 13.0594 72.703
11099369 1.71762 3.06663 34 34 0.463361 13.028 72.7842
11099377 1.67358 3.06663 34 34 0.47878 13.045 72.7402
11099388 1.67358 3.05742 34 34 0.475675 13.0486 72.731
11099397 1.72642 3.07584 34 34 0.463384 13.0211 72.8023
11099419 1.72642 3.07584 34 34 0.463384 13.0211 72.8023
11099421 1.82332 3.10347 34 34 0.438845 12.9733 72.9268
11099428 1.78808 3.10347 34 34 0.451145 12.9868 72.8915
11099444 1.78808 3.10347 34 34 0.451145 12.9868 72.8915
11099448 1.86736 3.13109 34 34 0.432798 12.9458 72.9985
11099458 1.84093 3.16793 34 34 0.454396 12.9418 73.0089
11099468 1.84093 3.16793 34 34 0.454396 12.9418 73.0089
11099478 1.9114 3.21398 34 34 0.445324 12.8973 73.1254
11099493 1.9114 3.21398 34 34 0.445324 12.8973 73.1254
11099498 1.95544 3.20477 34 34 0.426915 12.884 73.1602
11099508 2.02591 3.27844 34 34 0.427166 12.8292 73.3044
11099518 2.02591 3.27844 34 34 0.427166 12.8292 73.3044
11099528 2.1228 3.38895 34 34 0.430596 12.7507 73.5117
11099550 2.14922 3.40737 34 34 0.42761 12.7337 73.5566
11099551 2.14922 3.40737 34 34 0.42761 12.7337 73.5566
11099558 2.29016 3.43499 34 34 0.388211 12.6703 73.7252
11099577 2.29016 3.43499 34 34 0.388211 12.6703 73.7252
11099582 2.35181 3.58234 34 34 0.416088 12.5921 73.9342
11099589 2.39585 3.69285 34 34 0.43765 12.5346 74.0887
11099601 2.39585 3.69285 34 34 0.43765 12.5346 74.0887
11099611 2.57202 3.82178 34 34 0.41998 12.4216 74.3938
11099626 2.70415 3.90466 34 34 0.402269 12.3426 74.6088
11099641 2.80104 4.052 34 34 0.417808 12.2534 74.853
11099652 2.80104 4.052 34 34 0.417808 12.2534 74.853
11099661 2.88912 4.13489 34 34 0.415125 12.1913 75.024
11099684 3.03886 4.40195 34 34 0.451708 12.0411 75.4408
11099688 3.03886 4.40195 34 34 0.451708 12.0411 75.4408
11099693 3.25907 4.63218 34 34 0.452331 11.8806 75.8912
11099717 3.62902 5.00054 34 34 0.447455 11.6216 76.6296
11099720 3.62902 5.00054 34 34 0.447455 11.6216 76.6296
11099722 3.97254 5.27681 34 34 0.422099 11.408 77.2494
11099732 4.2544 5.45179 34 33.5616 0.245571 11.2315 77.2678
11099751 4.2544 5.45179 34 33.5616 0.245571 11.2315 77.2678
11099754 4.7829 5.8662 34 33.0063 0.0288427 10.886 77.6554
11099778 5.46995 6.26219 33.5078 32.1782 -0.173523 10.4537 77.4182
11099783 6.35078 7.06338 32.8975 31.7009 -0.155118 9.84154 78.0125
11099796 6.35078 7.06338 32.8975 31.7009 -0.155118 9.84154 78.0125
11099803 7.07306 7.65276 32.3955 31.3794 -0.138985 9.37235 78.5007
11099813 7.51347 8.0948 31.923 30.9799 -0.11518 9.03591 78.5112
11099827 7.51347 8.0948 31.923 30.9799 -0.11518 9.03591 78.5112
11099834 7.90984 8.45395 31.4899 30.6 -0.110179 8.74262 78.4537
11099844 7.90984 8.45395 31.4899 30.6 -0.110179 8.74262 78.4537
11099854 8.35026 8.76706 31.1257 30.0057 -0.224642 8.43734 78.2487
11099865 8.97565 9.36566 30.5646 29.1387 -0.331821 7.94968 78.0446
11099876 8.97565 9.36566 30.5646 29.1387 -0.331821 7.94968 78.0446
11099885 9.68912 10.1668 29.8558 27.9989 -0.443709 7.33465 77.7106
11099901 10.3145 10.9496 29.4129 27.0344 -0.560842 6.79111 77.7114
11099906 10.3145 10.9496 29.4129 27.0344 -0.560842 6.79111 77.7114
11099914 10.8694 11.585 28.9502 26.4011 -0.589108 6.34211 77.8058
11099926 10.8694 11.585 28.9502 26.4011 -0.589108 6.34211 77.8058
11099934 11.3803 12.0823 28.3596 25.6218 -0.657178 5.91112 77.444
11099951 11.9528 12.6441 27.7099 24.784 -0.724699 5.42806 77.0908
11099964 12.543 13.1322 27.139 23.9169 -0.857833 4.96162 76.7311
11099974 13.0979 13.786 26.6271 23.1083 -0.92362 4.4737 76.6194
11100001 13.0979 13.786 26.6271 23.1083 -0.92362 4.4737 76.6194
11100002 13.6264 14.3846 25.9282 22.4264 -0.898196 3.99595 76.3656
11100004 13.6264 14.3846 25.9282 22.4264 -0.898196 3.99595 76.3656
11100016 14.2342 15.0753 25.4262 21.647 -0.961632 3.48842 76.3827
11100026 14.8684 15.6739 24.747 21.0235 -0.955924 2.99324 76.3127
11100036 14.8684 15.6739 24.747 21.0235 -0.955924 2.99324 76.3127
11100049 15.5819 16.3093 24.1071 20.361 -0.9883 2.47062 76.3593
11100056 16.1808 16.8895 23.4082 19.7862 -0.955001 1.99125 76.2648
11100073 16.1808 16.8895 23.4082 19.7862 -0.955001 1.99125 76.2648
11100076 16.8062 17.6613 22.7585 19.1628 -0.896952 1.46365 76.3888
11100098 17.4683 18.2935 22.0695 18.3931 -0.935145 0.925055 76.2244
11100116 18.3253 19.1201 21.282 17.6625 -0.924437 0.294347 76.3899
11100138 19.9496 20.5789 19.7267 16.1814 -0.953704 -0.906718 76.4366
11100150 19.9496 20.5789 19.7267 16.1814 -0.953704 -0.906718 76.4366
11100157 20.8365 21.3181 18.8112 15.5532 -0.907102 -1.52709 76.519
11100177 21.534 21.8919 18.0041 14.7822 -0.939475 -2.09408 76.2121
11100203 22.3611 22.5338 17.2658 14.1349 -0.969312 -2.65299 76.2955
11100205 22.3611 22.5338 17.2658 14.1349 -0.969312 -2.65299 76.2955
11100211 23.0088 23.2145 16.5321 13.5924 -0.895241 -3.16292 76.3478
11100224 23.5668 23.7592 15.9706 13.1545 -0.857989 -3.57106 76.4511
11100227 23.5668 23.7592 15.9706 13.1545 -0.857989 -3.57106 76.4511
11100237 24.085 24.2551 15.3364 12.7357 -0.795199 -3.97869 76.4123
11100248 24.085 24.2551 15.3364 12.7357 -0.795199 -3.97869 76.4123
11100258 24.5234 24.7706 14.8165 12.3264 -0.73359 -4.34693 76.437
11100272 24.9619 25.218 14.4006 11.9647 -0.711937 -4.66676 76.5452
11100288 25.2708 25.6362 13.9015 11.6506 -0.616525 -4.97419 76.4591
11100299 25.5299 25.8598 13.6416 11.4983 -0.59236 -5.14503 76.5296
11100308 25.5299 25.8598 13.6416 11.4983 -0.59236 -5.14503 76.5296
11100326 25.7192 26.2586 13.3817 11.2889 -0.506662 -5.344 76.6484
11100339 25.8388 26.4725 13.1425 11.2889 -0.397387 -5.44936 76.7428
11100355 25.8886 26.6573 12.9346 11.089 -0.35159 -5.58754 76.5695
11100359 25.8886 26.6573 12.9346 11.089 -0.35159 -5.58754 76.5695
11100369 25.9584 26.8907 12.841 10.9748 -0.304517 -5.68057 76.6649
11100381 26.068 26.9783 12.737 10.8606 -0.315145 -5.76341 76.6438
11100389 26.068 26.9783 12.737 10.8606 -0.315145 -5.76341 76.6438
11100405 26.058 27.1047 12.5602 10.8796 -0.206901 -5.82021 76.6026
11100409 26.058 27.1047 12.5602 10.8796 -0.206901 -5.82021 76.6026
11100419 26.0281 27.2214 12.5291 10.8796 -0.14877 -5.83907 76.6582
11100431 25.9883 27.3965 12.4979 10.8796 -0.0684127 -5.86368 76.7622
11100441 25.9883 27.3965 12.4979 10.8796 -0.0684127 -5.86368 76.7622
11100452 25.9883 27.4062 12.4355 10.832 -0.0605062 -5.89476 76.6619
11100461 25.8587 27.5423 12.3835 11.0129 0.101891 -5.86049 76.7974
11100486 25.8587 27.5423 12.3835 11.0129 0.101891 -5.86049 76.7974
11100489 25.8488 27.5423 12.4771 11.0224 0.0776738 -5.83134 76.8906
11100492 25.6993 27.5618 12.4667 11.0985 0.160873 -5.79799 76.8263
11100502 25.6993 27.5618 12.4667 11.0985 0.160873 -5.79799 76.8263
11100514 25.6495 27.484 12.581 11.2032 0.148442 -5.72348 76.9177
11100535 25.4402 27.3673 12.633 11.2699 0.183782 -5.65202 76.7104
11100542 25.2808 27.2992 12.8722 11.5269 0.218606 -5.49129 76.979
11100555 25.2808 27.2992 12.8722 11.5269 0.218606 -5.49129 76.979
11100562 25.0715 27.0852 13.1217 11.5935 0.157899 -5.35466 76.872
11100572 25.0715 27.0852 13.1217 11.5935 0.157899 -5.35466 76.872
11100582 24.8124 26.8907 13.3505 11.8315 0.181866 -5.1742 76.8851
11100592 24.6331 26.7449 13.6208 12.1075 0.194049 -4.98979 77.1062
11100603 24.6331 26.7449 13.6208 12.1075 0.194049 -4.98979 77.1062
11100612 24.4338 26.4336 13.808 12.3169 0.165224 -4.82046 76.9923
11100628 24.1249 26.1711 14.1095 12.5834 0.168902 -4.59866 76.9888
11100633 24.1249 26.1711 14.1095 12.5834 0.168902 -4.59866 76.9888
11100643 23.8558 25.9085 14.4942 12.8595 0.135487 -4.35903 77.1179
11100654 23.4672 25.5389 14.8269 13.1831 0.1389 -4.08929 77.0161
11100663 23.4672 25.5389 14.8269 13.1831 0.1389 -4.08929 77.0161
11100681 22.9291 24.9651 15.4404 13.6876 0.0919312 -3.65471 77.0221
11100683 22.9291 24.9651 15.4404 13.6876 0.0919312 -3.65471 77.0221
11100693 22.2415 24.401 16.1266 14.173 0.0669122 -3.18608 76.9422
11100703 21.3746 23.6327 17.0886 14.9155 0.0275999 -2.53273 77.0113
11100713 21.3746 23.6327 17.0886 14.9155 0.0275999 -2.53273 77.0113
11100723 20.2286 22.5921 18.2797 15.8673 -0.0158742 -1.6904 76.9677
11100735 20.2286 22.5921 18.2797 15.8673 -0.0158742 -1.6904 76.9677
11100746 18.9132 21.4445 19.6086 17.0877 0.00336468 -0.712781 77.054
11100753 17.6975 20.3844 21.1836 18.5198 0.00742972 0.312658 77.7853
11100772 17.6975 20.3844 21.1836 18.5198 0.00742972 0.312658 77.7853
11100773 16.5244 19.2855 22.542 19.8934 0.0359595 1.27015 78.2452
11100783 15.4762 18.2935 23.8315 20.9845 -0.00943393 2.10847 78.5857
11100797 15.4762 18.2935 23.8315 20.9845 -0.00943393 2.10847 78.5857
11100803 14.5777 17.3987 24.9045 21.8321 -0.0798285 2.81277 78.713
11100813 14.5777 17.3987 24.9045 21.8321 -0.0798285 2.81277 78.713
11100823 13.6617 16.4382 25.6624 22.5238 -0.115617 3.46542 78.2861
11100835 12.9482 15.6094 26.194 23.2642 -0.0860602 4.01852 78.0158
11100849 12.9482 15.6094 26.194 23.2642 -0.0860602 4.01852 78.0158
11100854 12.3492 15.0385 26.6468 23.7318 -0.0725701 4.43462 77.7663
11100865 11.9 14.5135 26.9716 24.2189 -0.0448346 4.78911 77.6041
11100875 11.9 14.5135 26.9716 24.2189 -0.0448346 4.78911 77.6041
11100885 11.5653 14.1544 27.2768 24.4625 -0.0726879 5.03872 77.4589
11100906 11.2041 13.8044 27.4737 24.7645 -0.0352368 5.28751 77.2467
11100914 10.9663 13.5926 27.6115 25.0762 0.0294715 5.46213 77.2466
11100926 10.9663 13.5926 27.6115 25.0762 0.0294715 5.46213 77.2466
11100936 10.7813 13.4913 27.8477 25.5049 0.118244 5.61929 77.6253
11100952 10.7109 13.4729 27.8674 25.7484 0.20664 5.67458 77.7996
11100954 10.7109 13.4729 27.8674 25.7484 0.20664 5.67458 77.7996
11100965 10.614 13.4545 28.0249 26.1284 0.301698 5.76913 78.2217
11100977 10.614 13.4545 28.0249 26.1284 0.301698 5.76913 78.2217
11100985 10.3233 13.3164 28.3399 26.596 0.397432 5.97442 78.5756
11101005 10.0679 13.1966 28.7041 27.0539 0.467753 6.16789 79.0225
11101016 9.79482 12.9388 28.9305 27.4338 0.520641 6.37767 79.0979
11101029 9.4601 12.5704 29.216 27.9014 0.567222 6.64962 79.1479
11101037 9.4601 12.5704 29.216 27.9014 0.567222 6.64962 79.1479
11101046 9.07254 12.1928 29.6589 28.3983 0.586101 6.95738 79.3226
11101056 8.5 12.1928 30.161 29.0023 0.793356 7.2262 79.8561
11101066 8.5 11.6587 30.161 29.0023 0.630355 7.37586 79.322
11101076 8.03316 11.0785 30.6138 29.6063 0.64221 7.77274 79.3318
11101086 8.03316 11.0785 30.6138 29.6063 0.64221 7.77274 79.3318
11101096 7.49585 10.4892 31.106 30.2103 0.661296 8.19619 79.3013
11101106 6.89689 9.82611 31.7261 31.0774 0.716889 8.69153 79.5265
11101127 6.30674 9.05255 32.366 31.9347 0.726378 9.21568 79.6599
11101140 5.71658 8.35265 32.9861 32.6848 0.731999 9.70684 79.7402
11101147 5.71658 8.35265 32.9861 32.6848 0.731999 9.70684 79.7402
11101162 5.24093 7.61593 33.4684 33.5324 0.763524 10.1701 79.8577
11101177 4.77409 6.9805 33.8228 34 0.748828 10.5686 79.5774
11101187 4.27202 6.41874 34 34 0.682011 10.9243 78.6908
11101197 4.27202 6.41874 34 34 0.682011 10.9243 78.6908
11101219 3.95492 5.93987 34 34 0.63706 11.1892 77.8948
11101221 3.63782 5.47021 34 34 0.594094 11.4564 77.108
11101228 3.63782 5.47021 34 34 0.594094 11.4564 77.108
11101252 3.45285 5.21235 34 34 0.57376 11.6092 76.6652
11101254 3.45285 5.21235 34 34 0.57376 11.6092 76.6652
11101258 3.22383 4.88082 34 34 0.544313 11.8052 76.1047
11101268 3.13575 4.70585 34 34 0.517559 11.8982 75.8416
11101283 3.13575 4.70585 34 34 0.517559 11.8982 75.8416
11101288 3.0829 4.69664 34 34 0.53238 11.9202 75.7795
11101298 3.09171 4.61376 34 34 0.502622 11.9465 75.7055
11101319 3.1886 4.71506 34 34 0.502765 11.8762 75.9037
11101343 3.25026 4.82557 34 34 0.517678 11.8154 76.0758
11101349 3.34715 4.96371 34 34 0.529596 11.7328 76.3109
11101359 3.34715 4.96371 34 34 0.529596 11.7328 76.3109
11101370 3.43523 5.03738 34 34 0.523764 11.6762 76.4726
11101379 3.47927 5.07421 34 34 0.520858 11.648 76.5535
11101398 3.47927 5.07421 34 34 0.520858 11.648 76.5535
11101407 3.54974 5.22156 34 34 0.544417 11.5724 76.7713
11101428 3.64663 5.26761 34 34 0.526875 11.523 76.9142
11101429 3.78756 5.42416 34 34 0.529906 11.4209 77.2117
11101439 3.78756 5.42416 34 34 0.529906 11.4209 77.2117
11101455 3.97254 5.62676 34 34 0.532937 11.2889 77.5993
11101461 4.06943 5.80173 34 34 0.556144 11.1971 77.8712
11101471 4.06943 5.80173 34 34 0.556144 11.1971 77.8712
11101483 4.30725 6.05038 33.8523 34 0.604394 11.027 78.21
11101491 4.30725 6.05038 33.8523 34 0.604394 11.027 78.21
11101501 4.59793 6.39112 33.4586 34 0.743994 10.7976 78.4476
11101511 4.97668 6.82394 33.0944 33.737 0.791612 10.4978 78.632
11101521 4.97668 6.82394 33.0944 33.737 0.791612 10.4978 78.632
11101535 5.44352 7.40412 32.5727 33.1135 0.796279 10.0922 78.5338
11101541 5.44352 7.40412 32.5727 33.1135 0.796279 10.0922 78.5338
11101560 5.98964 7.97508 32.238 32.5582 0.731847 9.68084 78.7609
11101562 6.47409 8.42633 31.9033 32.2075 0.713944 9.34241 79.0112
11101571 6.47409 8.42633 31.9033 32.2075 0.713944 9.34241 79.0112
11101585 6.9057 8.69339 31.6867 31.7009 0.570288 9.0753 78.9867
11101592 7.1171 8.97887 31.6277 31.2722 0.476706 8.88729 78.9958
11101612 7.47824 9.27356 31.4603 30.7559 0.345349 8.63598 78.968
11101622 7.69845 9.55905 31.1946 30.2688 0.296876 8.42328 78.7208
11101635 7.69845 9.55905 31.1946 30.2688 0.296876 8.42328 78.7208
11101642 7.93627 9.83532 31.0075 29.6355 0.168034 8.20092 78.4146
11101652 7.93627 9.83532 31.0075 29.6355 0.168034 8.20092 78.4146
11101663 8.20052 10.0195 30.8303 29.1192 0.0344902 8.0075 78.1696
11101672 8.3943 10.2497 30.6532 28.788 -0.00312477 7.83704 78.0852
11101686 8.3943 10.2497 30.6532 28.788 -0.00312477 7.83704 78.0852
11101692 8.59689 10.4339 30.5449 28.4567 -0.0804543 7.6835 78.0324
11101702 8.80829 10.6918 30.3382 28.0378 -0.133823 7.48804 77.876
11101712 8.80829 10.6918 30.3382 28.0378 -0.133823 7.48804 77.876
11101722 9.16943 11.0601 29.8558 27.3948 -0.184008 7.1672 77.4802
11101732 9.16943 11.0601 29.8558 27.3948 -0.184008 7.1672 77.4802
11101742 9.66269 11.6127 29.1569 26.6447 -0.182363 6.71917 77.077
11101753 10.3409 12.3862 28.3399 25.8458 -0.145862 6.13523 76.9129
11101777 11.0544 13.1598 27.6312 25.2711 -0.0825673 5.58014 77.1164
11101783 11.6446 13.8505 27.0898 24.6378 -0.0796437 5.0955 77.2226
11101793 11.6446 13.8505 27.0898 24.6378 -0.0796437 5.0955 77.2226
11101803 12.2259 14.4215 26.5582 24.1215 -0.0779673 4.66182 77.327
11101813 12.2259 14.4215 26.5582 24.1215 -0.0779673 4.66182 77.327
11101823 12.8073 15.1213 25.8002 23.3616 -0.0403866 4.13149 77.0904
11101833 13.4767 15.8765 25.062 22.5822 -0.0259489 3.56331 76.9974
11101855 14.1902 16.5672 24.1662 21.7347 -0.0177726 2.96319 76.6582
11101869 14.7715 17.2334 23.3885 21.0722 0.0475973 2.44342 76.4657
11101875 14.7715 17.2334 23.3885 21.0722 0.0475973 2.44342 76.4657
11101884 15.4321 17.885 22.7487 20.3708 0.0245154 1.92362 76.4366
11101906 16.0223 18.595 21.8628 19.7765 0.159469 1.38127 76.2565
11101916 16.7446 19.2855 21.1147 19.0751 0.164437 0.818624 76.2197
11101926 16.7446 19.2855 21.1147 19.0751 0.164437 0.818624 76.2197
11101936 17.4086 19.9565 20.2779 18.3054 0.189427 0.240617 75.9485
11101946 18.0961 20.5887 19.7169 17.7404 0.16945 -0.241827 76.1421
11101957 18.0961 20.5887 19.7169 17.7404 0.16945 -0.241827 76.1421
11101967 18.8535 21.0652 19.018 17.0974 0.0957549 -0.750317 76.034
11101979 19.5012 21.5126 18.4962 16.5812 0.031662 -1.17024 76.0912
11101987 19.5012 21.5126 18.4962 16.5812 0.031662 -1.17024 76.0912
11101997 20.0492 21.9405 18.1025 16.1529 -0.0191376 -1.52162 76.2451
11102007 20.0492 21.9405 18.1025 16.1529 -0.0191376 -1.52162 76.2451
11102017 20.4777 22.2809 17.7087 15.7531 -0.0500202 -1.82959 76.2204
11102027 20.9959 22.5629 17.2559 15.4009 -0.0944719 -2.14562 76.2157
11102050 20.9959 22.5629 17.2559 15.4009 -0.0944719 -2.14562 76.2157
11102051 21.4742 22.913 16.8544 15.1249 -0.0951797 -2.43718 76.3665
11102060 21.823 23.1659 16.5633 14.8108 -0.134106 -2.67437 76.3629
11102072 21.823 23.1659 16.5633 14.8108 -0.134106 -2.67437 76.3629
11102078 22.1917 23.3896 16.2722 14.6109 -0.151506 -2.88335 76.4643
11102095 22.1917 23.3896 16.2722 14.6109 -0.151506 -2.88335 76.4643
11102098 22.5006 23.5452 16.0122 14.3634 -0.197667 -3.07574 76.4214
11102109 22.7198 23.7592 15.7939 14.2206 -0.174503 -3.22861 76.4935
11102119 22.7198 23.7592 15.7939 14.2206 -0.174503 -3.22861 76.4935
11102128 22.7995 23.8953 15.5963 14.0873 -0.13525 -3.34083 76.3785
11102142 22.9789 24.0217 15.4196 14.0493 -0.107054 -3.43898 76.4695
11102148 22.9789 24.0217 15.4196 14.0493 -0.107054 -3.43898 76.4695
11102158 23.0088 24.0898 15.3468 14.0588 -0.0676364 -3.46903 76.5042
11102174 23.0088 24.0898 15.3468 14.0588 -0.0676364 -3.46903 76.5042
11102179 22.9988 24.1384 15.2428 14.0302 -0.0238717 -3.5069 76.4103
11102189 23.0785 24.2746 15.2116 14.0017 -0.00453442 -3.55375 76.5664
11102205 23.0785 24.2746 15.2116 14.0017 -0.00453442 -3.55375 76.5664
11102210 23.1483 24.3913 15.2116 14.0207 0.0169665 -3.57694 76.7719
11102220 23.1284 24.6442 15.222 14.1159 0.13282 -3.58602 77.1105
11102236 23.1284 24.6442 15.222 14.1159 0.13282 -3.58602 77.1105
11102239 23.1981 24.7511 15.118 14.0207 0.147784 -3.6602 77.088
11102249 23.1981 24.7511 15.118 14.0207 0.147784 -3.6602 77.088
11102261 23.1682 24.9359 14.9413 13.9351 0.247291 -3.74663 76.9805
11102271 23.2579 25.111 14.8789 13.8589 0.270104 -3.81895 77.1067
11102284 23.2579 25.111 14.8789 13.8589 0.270104 -3.81895 77.1067
11102293 23.2978 25.2958 14.7229 13.6876 0.312525 -3.93155 77.004
11102307 23.3576 25.4319 14.567 13.5638 0.34816 -4.02859 76.9203
11102311 23.3576 25.4319 14.567 13.5638 0.34816 -4.02859 76.9203
11102322 23.4672 25.4805 14.463 13.5067 0.343579 -4.09101 76.9174
11102333 23.4672 25.4805 14.463 13.5067 0.343579 -4.09101 76.9174
11102342 23.3775 25.5486 14.2966 13.4401 0.428692 -4.14596 76.6628
11102354 23.3376 25.6167 14.2966 13.4496 0.466767 -4.14757 76.7006
11102362 23.3376 25.6167 14.2966 13.4496 0.466767 -4.14757 76.7006
11102378 23.1782 25.6945 14.2031 13.4686 0.581986 -4.15465 76.5444
11102382 23.0885 25.6653 14.1927 13.6209 0.654685 -4.10231 76.5674
11102392 23.0885 25.6653 14.1927 13.6209 0.654685 -4.10231 76.5674
11102402 22.9889 25.6945 14.3902 13.7447 0.670448 -4.01242 76.8183
11102412 22.9889 25.6945 14.3902 13.7447 0.670448 -4.01242 76.8183
11102426 22.9689 25.6362 14.3798 13.8494 0.695261 -3.97789 76.8343
11102432 22.7796 25.6362 14.5982 14.0778 0.757608 -3.84083 77.0918
11102442 22.7796 25.6362 14.5982 14.0778 0.757608 -3.84083 77.0918
11102452 22.6002 25.607 14.7125 14.1254 0.78513 -3.77102 77.0452
11102462 22.3611 25.4514 14.8581 14.3063 0.824425 -3.63384 76.9768
11102474 22.3611 25.4514 14.8581 14.3063 0.824425 -3.63384 76.9768
11102482 22.1219 25.3833 15.0349 14.6013 0.916451 -3.47459 77.1414
11102499 22.1219 25.3833 15.0349 14.6013 0.916451 -3.47459 77.1414
11102502 21.8429 25.1791 15.1388 14.7727 0.965118 -3.33609 76.9335
11102512 21.5539 24.9554 15.4508 15.0582 0.976688 -3.1162 77.0183
11102534 21.5539 24.9554 15.4508 15.0582 0.976688 -3.1162 77.0183
11102537 21.2052 24.79 15.7003 15.4104 1.06834 -2.89559 77.1059
11102545 20.7069 24.4108 16.137 15.7626 1.08074 -2.57437 77.0173
11102571 20.129 23.9926 16.7193 16.3052 1.11784 -2.15768 77.1459
11102583 19.3716 23.4868 17.4134 16.7906 1.13297 -1.68456 77.0625
11102600 18.6243 22.8741 18.2797 17.4579 1.10961 -1.11881 77.236
11102613 17.8669 22.2906 19.0869 18.1203 1.11716 -0.572037 77.3648
11102628 17.2691 21.6974 19.9728 18.7828 1.04164 -0.0406891 77.722
11102633 17.2691 21.6974 19.9728 18.7828 1.04164 -0.0406891 77.722
11102643 16.6036 21.0555 20.8193 19.4453 0.98744 0.501546 77.9237
11102656 16.6036 21.0555 20.8193 19.4453 0.98744 0.501546 77.9237
11102668 15.9782 20.3844 21.5281 19.9908 0.920933 0.993091 77.8816
11102682 15.2912 19.7231 22.4534 20.6338 0.836203 1.55046 78.1015
11102694 14.5953 18.984 23.3098 21.2963 0.759456 2.1155 78.1854
11102708 13.8819 18.1865 24.0579 21.949 0.703081 2.6779 78.0753
11102724 13.2389 17.496 24.6781 22.5335 0.677583 3.17078 77.9464
11102734 13.2389 17.496 24.6781 22.5335 0.677583 3.17078 77.9464
11102744 12.6487 16.8895 25.2096 22.9622 0.64128 3.59676 77.71
11102759 11.9969 16.2633 25.8199 23.5759 0.651073 4.08256 77.656
11102764 11.9969 16.2633 25.8199 23.5759 0.651073 4.08256 77.656
11102774 11.3451 15.6739 26.5188 24.3066 0.679749 4.58731 77.8444
11102784 10.6845 14.974 27.1882 25.2321 0.747144 5.14132 78.0787
11102811 10.0591 14.2649 27.9658 26.1284 0.755042 5.69452 78.4182
11102814 10.0591 14.2649 27.9658 26.1284 0.755042 5.69452 78.4182
11102824 9.3544 13.4361 28.714 26.9954 0.752592 6.29025 78.4998
11102835 8.7114 12.6994 29.4227 27.9891 0.810161 6.85103 78.8226
11102861 8.05078 11.9074 29.9936 28.9536 0.89238 7.41187 78.9054
11102866 7.41658 11.1522 30.6236 29.8499 0.9368 7.95233 79.0423
11102876 7.41658 11.1522 30.6236 29.8499 0.9368 7.95233 79.0423
11102886 6.8 10.3971 31.2241 30.7559 0.987935 8.48407 79.177
11102896 6.8 10.3971 31.2241 30.7559 0.987935 8.48407 79.177
11102913 6.2715 9.67877 31.4997 31.5158 1.0838 8.94031 78.9657
11102916 5.82228 9.13543 31.8246 32.0516 1.12267 9.30789 78.8338
11102926 5.82228 9.13543 31.8246 32.0516 1.12267 9.30789 78.8338
11102940 5.46114 8.68418 31.8442 32.5387 1.24716 9.59609 78.5282
11102947 5.09119 8.30661 32.0411 33.0063 1.33233 9.87624 78.4452
11102967 4.94145 8.00271 32.1888 33.435 1.37061 10.0575 78.5679
11102977 4.94145 8.00271 32.1888 33.435 1.37061 10.0575 78.5679
11102994 4.73005 7.73564 32.2774 33.8441 1.45455 10.2413 78.5872
11102997 4.58031 7.55146 32.4644 34 1.43352 10.3693 78.5962
11103010 4.58031 7.55146 32.4644 34 1.43352 10.3693 78.5962
11103019 4.4658 7.46858 32.5333 34 1.42399 10.4372 78.4677
11103028 4.36891 7.37649 32.553 34 1.42231 10.4998 78.2984
11103048 4.31606 7.33965 32.553 34 1.42907 10.529 78.2087
11103072 4.29845 7.31203 32.4742 34 1.45334 10.5393 78.0847
11103078 4.29845 7.3857 32.5727 34 1.44224 10.5208 78.2568
11103088 4.29845 7.3857 32.5727 34 1.44224 10.5208 78.2568
11103099 4.23679 7.33044 32.4742 34 1.4798 10.5534 78.0415
11103108 4.27202 7.41333 32.5235 34 1.47613 10.5176 78.2088
11103124 4.27202 7.41333 32.5235 34 1.47613 10.5176 78.2088
11103129 4.21917 7.46858 32.553 34 1.50063 10.5185 78.2407
11103139 4.17513 7.46858 32.6022 34 1.49888 10.5357 78.2459
11103149 4.17513 7.40412 32.6022 34 1.4795 10.5568 78.1814
11103159 4.1399 7.30282 32.6317 34 1.45092 10.6032 78.0744
11103174 4.1399 7.30282 32.6317 34 1.45092 10.6032 78.0744
11103180 4.1487 7.25677 32.553 34 1.46074 10.6109 77.9585
11103189 4.13109 7.1831 32.6317 34 1.41774 10.6454 77.9459
11103200 4.13109 7.1831 32.6317 34 1.41774 10.6454 77.9459
11103209 4.07824 7.24756 32.681 34 1.43846 10.6443 78.0068
11103225 4.07824 7.24756 32.681 34 1.43846 10.6443 78.0068
11103229 4.05181 7.15547 32.7499 34 1.39622 10.6871 77.9571
11103239 4.08705 7.14626 32.7105 34 1.39483 10.6764 77.9438
11103250 4.08705 7.14626 32.7105 34 1.39483 10.6764 77.9438
11103261 4.1399 7.15547 32.7302 34 1.37308 10.657 78.0255
11103273 4.13109 7.0818 32.7105 34 1.36038 10.6831 77.9234
11103280 4.13109 7.0818 32.7105 34 1.36038 10.6831 77.9234
11103296 4.18394 7.13705 32.681 34 1.36925 10.6459 78.0019
11103300 4.18394 7.13705 32.681 34 1.36925 10.6459 78.0019
11103309 4.18394 7.06338 32.5825 34 1.38023 10.6646 77.8298
11103327 4.23679 7.12784 32.612 34 1.37189 10.6277 77.9767
11103331 4.23679 7.12784 32.612 34 1.37189 10.6277 77.9767
11103348 4.2544 7.21073 32.5628 34 1.40767 10.5919 78.028
11103351 4.28083 7.20152 32.3856 34 1.456 10.5762 77.868
11103363 4.28083 7.20152 32.3856 34 1.456 10.5762 77.868
11103373 4.3601 7.2844 32.3364 34 1.47083 10.5202 77.9809
11103381 4.3601 7.2844 32.3364 34 1.47083 10.5202 77.9809
11103398 4.457 7.3857 32.2872 34 1.48519 10.4527 78.1299
11103401 4.5715 7.43174 32.2085 34 1.48692 10.3959 78.2117
11103411 4.5715 7.43174 32.2085 34 1.48692 10.3959 78.2117
11103424 4.64197 7.5883 32.238 34 1.50008 10.3241 78.4682
11103431 4.7829 7.64355 32.0313 34 1.53885 10.2485 78.4577
11103448 4.7829 7.64355 32.0313 34 1.53885 10.2485 78.4577
11103451 4.91503 7.82774 31.8639 34 1.60571 10.1368 78.6067
11103471 5.04715 8.03034 31.6966 34 1.67777 10.0196 78.7741
11103481 5.29378 8.37107 31.421 33.6395 1.68175 9.79271 78.7254
11103501 5.53161 8.75785 31.1257 33.2011 1.68596 9.54713 78.6163
11103511 5.8399 9.15385 30.7713 32.7238 1.67745 9.26909 78.4888
11103523 5.8399 9.15385 30.7713 32.7238 1.67745 9.26909 78.4888
11103532 6.15699 9.55905 30.5055 32.3536 1.67042 8.99961 78.5751
11103552 6.44767 9.78006 30.3874 31.9444 1.55596 8.80302 78.5595
11103567 6.72953 10.0748 30.1019 31.4573 1.49962 8.56679 78.3635
11103573 6.72953 10.0748 30.1019 31.4573 1.49962 8.56679 78.3635
11103583 7.10829 10.3787 29.7082 30.7948 1.39667 8.27338 77.99
11103593 7.48705 10.8391 29.3735 30.0057 1.28187 7.92475 77.7054
11103603 7.48705 10.8391 29.3735 30.0057 1.28187 7.92475 77.7054
11103615 7.91865 11.3548 28.8813 29.2166 1.21863 7.5269 77.3714
11103623 7.91865 11.3548 28.8813 29.2166 1.21863 7.5269 77.3714
11103640 8.1829 11.8429 28.6451 28.6613 1.18847 7.23125 77.3322
11103643 8.53523 12.2665 28.4679 28.3788 1.17266 6.9631 77.6484
11103653 8.53523 12.2665 28.4679 28.3788 1.17266 6.9631 77.6484
11103665 8.69378 12.5244 28.3497 27.9989 1.12152 6.79359 77.5667
11103673 9.01969 13.0493 27.9855 27.5605 1.16103 6.46982 77.615
11103689 9.01969 13.0493 27.9855 27.5605 1.16103 6.46982 77.615
11103693 9.54819 13.4913 27.4933 26.9662 1.10195 6.08137 77.4991
11103715 10.1031 14.0807 26.7551 26.2453 1.12323 5.60021 77.1842
11103724 10.7373 14.7622 26.1448 25.6315 1.13607 5.10059 77.2758
11103739 10.7373 14.7622 26.1448 25.6315 1.13607 5.10059 77.2758
11103745 11.3891 15.4621 25.3966 24.9301 1.16821 4.56261 77.1779
11103755 12.0674 16.1988 24.6682 24.1702 1.17809 4.00214 77.1046
11103765 12.0674 16.1988 24.6682 24.1702 1.17809 4.00214 77.1046
11103776 12.6927 17.0389 23.8807 23.3421 1.23695 3.40939 76.9545
11103788 13.3534 17.6322 23.2803 22.6991 1.20109 2.92222 76.9649
11103796 13.3534 17.6322 23.2803 22.6991 1.20109 2.92222 76.9649
11103812 14.0316 18.2935 22.6503 21.9393 1.15416 2.39183 76.9146
11103816 14.0316 18.2935 22.6503 21.9393 1.15416 2.39183 76.9146
11103826 14.613 18.984 21.9021 21.1112 1.16827 1.84369 76.6103
11103837 15.3705 19.7231 21.1836 20.2831 1.12728 1.24864 76.5602
11103846 15.3705 19.7231 21.1836 20.2831 1.12728 1.24864 76.5602
11103862 16.0751 20.4136 20.4453 19.3868 1.07442 0.657098 76.3208
11103866 16.8238 21.0555 19.8054 18.6172 0.997159 0.106809 76.302
11103876 16.8238 21.0555 19.8054 18.6172 0.997159 0.106809 76.302
11103887 17.558 21.6196 19.264 17.9158 0.888339 -0.392456 76.3574
11103896 17.558 21.6196 19.264 17.9158 0.888339 -0.392456 76.3574
11103911 18.2954 22.1058 18.6734 17.1948 0.764337 -0.89151 76.2695
11103916 18.983 22.6505 18.1419 16.5146 0.66855 -1.37182 76.2899
11103938 19.6805 23.1756 17.4725 15.972 0.653529 -1.85025 76.3007
11103947 20.2784 23.1756 16.8752 15.4866 0.497434 -2.19458 75.8158
11103962 20.2784 23.6133 16.8752 15.4866 0.638062 -2.26808 76.2535
11103973 20.8763 24.1871 16.2826 15.0487 0.679657 -2.69628 76.3947
11103977 20.8763 24.1871 16.2826 15.0487 0.679657 -2.69628 76.3947
11103988 21.3347 24.5858 15.7003 14.5442 0.687662 -3.08724 76.1651
11103997 21.7831 25.0818 15.1908 14.1064 0.726819 -3.45993 76.1621
11104012 21.7831 25.0818 15.1908 14.1064 0.726819 -3.45993 76.1621
11104017 22.1219 25.4222 14.7957 13.8018 0.757253 -3.73251 76.1416
11104027 22.1219 25.4222 14.7957 13.8018 0.757253 -3.73251 76.1416
11104038 22.5106 25.8793 14.3278 13.5162 0.838587 -4.04264 76.2339
11104048 22.7796 26.2489 13.9535 13.3259 0.930965 -4.27526 76.3078
11104057 22.7796 26.2489 13.9535 13.3259 0.930965 -4.27526 76.3078
11104067 22.939 26.5114 13.704 13.126 0.981382 -4.44816 76.2804
11104077 23.1184 26.7546 13.4024 12.9071 1.03067 -4.63955 76.1825
11104089 23.1184 26.7546 13.4024 12.9071 1.03067 -4.63955 76.1825
11104098 23.2978 27.0172 13.1945 12.8595 1.1079 -4.76522 76.3689
11104114 23.2978 27.0172 13.1945 12.8595 1.1079 -4.76522 76.3689
11104118 23.2878 27.3284 12.9554 12.8499 1.28732 -4.86988 76.4215
11104128 23.3177 27.4354 12.893 12.8024 1.31691 -4.9166 76.4484
11104148 23.3177 27.4354 12.893 12.8024 1.31691 -4.9166 76.4484
11104150 23.2878 27.6493 12.737 12.8119 1.45006 -4.979 76.486
11104158 23.3675 27.7757 12.7682 12.7643 1.43601 -5.01021 76.6757
11104183 23.4074 27.8244 12.7786 12.7928 1.44239 -5.01158 76.8032
11104198 23.3974 27.8146 12.7578 12.7738 1.44416 -5.0194 76.7437
11104217 23.4273 27.9605 12.6954 12.6976 1.47675 -5.07837 76.7809
11104221 23.4273 27.9605 12.6954 12.6976 1.47675 -5.07837 76.7809
11104230 23.4572 27.98 12.7058 12.6881 1.4659 -5.08451 76.8311
11104248 23.4174 28.0481 12.7162 12.7357 1.51143 -5.07301 76.9173
11104260 23.3775 28.1356 12.6642 12.6976 1.55822 -5.10268 76.8749
11104273 23.3476 28.1939 12.6226 12.6786 1.59492 -5.1222 76.8428
11104279 23.3476 28.1939 12.6226 12.6786 1.59492 -5.1222 76.8428
11104289 23.3277 28.2523 12.5706 12.7167 1.64917 -5.13078 76.8673
11104300 23.3277 28.2523 12.5706 12.7167 1.64917 -5.13078 76.8673
11104309 23.2978 28.2815 12.5706 12.6881 1.65972 -5.13817 76.838
11104322 23.1981 28.3593 12.4563 12.7167 1.76643 -5.15789 76.7303
11104330 23.1981 28.3593 12.4563 12.7167 1.76643 -5.15789 76.7303
11104340 23.1084 28.3593 12.4251 12.7262 1.81155 -5.15207 76.619
11104361 22.949 28.3301 12.4667 12.8499 1.88143 -5.08432 76.5957
11104371 22.7696 28.2134 12.633 13.0879 1.92253 -4.94018 76.704
11104396 22.5803 28.2134 12.6642 13.2402 2.02387 -4.86764 76.6981
11104401 22.3212 28.1064 12.8514 13.4972 2.09408 -4.7044 76.7762
11104411 22.3212 28.1064 12.8514 13.4972 2.09408 -4.7044 76.7762
11104431 22.0821 27.8827 13.0801 13.8589 2.13886 -4.49115 76.9038
11104434 22.0821 27.8827 13.0801 13.8589 2.13886 -4.49115 76.9038
11104441 21.6735 27.6396 13.3193 14.1254 2.20571 -4.27352 76.7578
11104464 21.3347 27.3576 13.5688 14.6299 2.30324 -3.99791 76.891
11104471 20.7767 26.9102 13.8599 15.2296 2.44318 -3.63341 76.7764
11104497 20.0193 26.2197 14.5774 16.0957 2.50894 -3.03578 76.9121
11104502 19.0926 25.5097 15.4404 17.1364 2.62802 -2.33721 77.1791
11104512 18.3154 24.7122 16.6049 18.2762 2.589 -1.56847 77.9087
11104532 17.5281 23.8661 17.5709 19.2894 2.5738 -0.869075 78.2546
11104553 16.7798 22.9908 18.3486 20.0201 2.52195 -0.269135 78.1393
11104564 16.2337 22.2906 19.0672 20.5266 2.40546 0.205366 78.1181
11104584 15.5731 21.6487 19.4609 20.8968 2.42062 0.60634 77.5796
11104593 14.9301 20.9193 20.0811 21.3352 2.34368 1.08074 77.2657
11104609 14.9301 20.9193 20.0811 21.3352 2.34368 1.08074 77.2657
11104615 14.2959 20.1608 20.6618 21.949 2.32006 1.5871 77.0675
11104634 13.7409 19.4216 21.4887 22.4946 2.16685 2.10394 77.1458
11104644 13.1684 18.6533 22.3746 23.196 2.03711 2.66478 77.3923
11104655 13.1684 18.6533 22.3746 23.196 2.03711 2.66478 77.3923
11104666 12.6223 17.8267 23.2507 23.8779 1.87928 3.2251 77.5776
11104681 12.0057 16.9447 24.3434 24.667 1.68762 3.85963 77.9609
11104684 12.0057 16.9447 24.3434 24.667 1.68762 3.85963 77.9609
11104695 11.442 16.0146 25.2687 25.4269 1.51337 4.46034 78.1522
11104706 11.0016 16.0146 26.0955 26.1186 1.58909 4.77052 79.2303
11104716 11.0016 15.1858 26.0955 26.1186 1.3416 4.97952 78.4015
11104732 10.4642 14.4399 26.8043 26.7421 1.24711 5.4765 78.4505
11104736 10.4642 14.4399 26.8043 26.7421 1.24711 5.4765 78.4505
11104746 10.0062 13.7768 27.326 27.3072 1.1961 5.90123 78.4162
11104759 9.61865 13.123 27.8477 27.6871 1.06792 6.28411 78.2764
11104767 9.61865 13.123 27.8477 27.6871 1.06792 6.28411 78.2764
11104776 9.14301 12.5704 28.3891 28.1742 1.02601 6.67821 78.2768
11104788 9.14301 12.5704 28.3891 28.1742 1.02601 6.67821 78.2768
11104797 8.70259 12.0179 28.8715 28.6029 0.974074 7.05044 78.1948
11104815 8.35026 11.5114 29.3636 29.2069 0.957629 7.403 78.4322
11104817 8.35026 11.5114 29.3636 29.2069 0.957629 7.403 78.4322
11104827 7.87461 11.0509 29.8558 29.655 0.948381 7.76145 78.4364
11104845 7.5487 10.572 30.3677 30.1421 0.889531 8.08637 78.6306
11104847 7.5487 10.572 30.3677 30.1421 0.889531 8.08637 78.6306
11104857 7.19637 10.1392 30.8008 30.6487 0.885555 8.39891 78.7851
11104873 6.75596 9.59588 31.2142 31.1748 0.889137 8.77 78.7409
11104878 6.75596 9.59588 31.2142 31.1748 0.889137 8.77 78.7409
11104888 6.4829 9.21831 31.6572 31.6521 0.863919 9.03831 79.0106
11104908 6.10415 8.71181 32.0017 32.1977 0.887054 9.37479 79.0154
11104929 5.82228 8.36186 32.3758 32.5289 0.851169 9.61967 79.0889
11104930 5.82228 8.36186 32.3758 32.5289 0.851169 9.61967 79.0889
11104938 5.49637 7.9935 32.7695 32.7335 0.778902 9.87681 78.9929
11104954 5.24093 7.73564 33.0058 33.016 0.792727 10.0721 78.9984
11104958 5.24093 7.73564 33.0058 33.016 0.792727 10.0721 78.9984
11104968 5.07358 7.487 33.2125 33.1719 0.751421 10.2268 78.945
11104980 5.07358 7.487 33.2125 33.1719 0.751421 10.2268 78.945
11104988 4.95907 7.36728 33.3405 33.3765 0.773069 10.3217 79.0433
11105005 4.7829 7.26598 33.557 33.5519 0.782585 10.4336 79.1578
11105008 4.7829 7.26598 33.557 33.5519 0.782585 10.4336 79.1578
11105018 4.73005 7.1831 33.7047 33.7272 0.780001 10.4957 79.3451
11105030 4.62435 7.05417 33.813 33.8149 0.766566 10.5822 79.3064
11105040 4.62435 7.05417 33.813 33.8149 0.766566 10.5822 79.3064
11105057 4.47461 6.91603 33.9409 34 0.787985 10.6925 79.3316
11105070 4.43938 6.84236 34 34 0.757736 10.731 79.2817
11105085 4.36891 6.6766 34 34 0.729859 10.8079 79.0455
11105089 4.36891 6.6766 34 34 0.729859 10.8079 79.0455
11105099 4.23679 6.58451 34 34 0.744632 10.8813 78.8213
11105122 4.17513 6.40032 34 34 0.707981 10.9623 78.5755
11105144 4.17513 6.40032 34 34 0.707981 10.9623 78.5755
11105153 4.06062 6.28982 34 34 0.711292 11.0369 78.3504
11105154 3.88446 6.07801 34 34 0.7034 11.1664 77.9625
11105159 3.8228 5.93987 34 34 0.680619 11.2337 77.7627
11105172 3.8228 5.93987 34 34 0.680619 11.2337 77.7627
11105181 3.67306 5.82936 34 34 0.695559 11.3218 77.5024
11105196 3.62021 5.74648 34 34 0.687078 11.3679 77.3667
11105201 3.62021 5.74648 34 34 0.687078 11.3679 77.3667
11105211 3.59378 5.6636 34 34 0.66978 11.4052 77.2574
11105231 3.54974 5.62676 34 34 0.672817 11.4329 77.1765
11105248 3.47047 5.58072 34 34 0.68469 11.4759 77.0512
11105251 3.47047 5.58072 34 34 0.68469 11.4759 77.0512
11105262 3.52332 5.61755 34 34 0.678703 11.4451 77.1409
11105278 3.40881 5.48862 34 34 0.676167 11.5288 76.8974
11105281 3.40881 5.48862 34 34 0.676167 11.5288 76.8974
11105291 3.38238 5.47941 34 34 0.682077 11.5411 76.8618
11105305 3.38238 5.47941 34 34 0.682077 11.5411 76.8618
11105311 3.32953 5.38732 34 34 0.670579 11.5913 76.7169
11105321 3.31192 5.38732 34 34 0.676477 11.5974 76.6992
11105333 3.31192 5.38732 34 34 0.676477 11.5974 76.6992
11105341 3.34715 5.41495 34 34 0.673446 11.5756 76.7621
11105363 3.32953 5.27681 34 34 0.635484 11.6296 76.6063
11105364 3.32953 5.27681 34 34 0.635484 11.6296 76.6063
11105372 3.38238 5.30444 34 34 0.626594 11.6017 76.6868
11105390 3.38238 5.30444 34 34 0.626594 11.6017 76.6868
11105393 3.37358 5.28602 34 34 0.623682 11.6111 76.6596
11105402 3.42642 5.32286 34 34 0.61774 11.5801 76.7493
11105417 3.42642 5.32286 34 34 0.61774 11.5801 76.7493
11105423 3.42642 5.40574 34 34 0.64404 11.5514 76.8322
11105433 3.51451 5.48862 34 34 0.640923 11.4924 77.0031
11105445 3.51451 5.48862 34 34 0.640923 11.4924 77.0031
11105453 3.58497 5.54388 34 34 0.634944 11.4492 77.1289
11105469 3.58497 5.54388 34 34 0.634944 11.4492 77.1289
11105473 3.68187 5.61755 34 34 0.626034 11.3909 77.2994
11105483 3.86684 5.71885 34 34 0.596765 11.2935 77.5857
11105496 3.86684 5.71885 34 34 0.596765 11.2935 77.5857
11105503 3.97254 5.75569 34 34 0.573522 11.2453 77.7282
11105517 4.12228 5.84778 34 34 0.553256 11.1639 77.9701
11105523 4.12228 5.84778 34 34 0.553256 11.1639 77.9701
11105533 4.38653 6.12405 34 33.7954 0.489408 10.9733 78.306
11105548 4.38653 6.12405 34 33.7954 0.489408 10.9733 78.306
11105553 4.76529 6.44637 33.9409 33.2791 0.324878 10.7116 78.4317
11105563 5.35544 6.93445 33.0353 32.4413 0.316635 10.2589 77.7665
11105583 6.00725 7.63434 32.3561 31.7788 0.337437 9.73815 77.7765
11105595 6.57098 8.26056 31.9033 31.3599 0.366914 9.30248 78.0947
11105608 6.57098 8.26056 31.9033 31.3599 0.366914 9.30248 78.0947
11105616 7.05544 8.57367 31.5292 30.9117 0.288439 8.9942 78.0701
11105635 7.35492 8.83153 31.2635 30.4928 0.226441 8.76987 77.9427
11105644 7.83938 9.30119 30.8205 30.035 0.216767 8.40714 77.996
11105660 7.83938 9.30119 30.8205 30.035 0.216767 8.40714 77.996
11105664 8.38549 9.89978 30.0133 29.2653 0.24699 7.92766 77.5639
11105674 8.38549 9.89978 30.0133 29.2653 0.24699 7.92766 77.5639
11105686 9.12539 10.5352 29.0388 28.5639 0.302511 7.36613 77.2633
11105694 10.0415 11.3732 28.084 27.8332 0.349489 6.69242 77.3319
11105709 10.0415 11.3732 28.084 27.8332 0.349489 6.69242 77.3319
11105718 10.843 12.1192 27.2768 27.2097 0.390303 6.10553 77.4487
11105725 11.442 12.7638 26.5582 26.5278 0.417718 5.60478 77.2918
11105734 11.442 12.7638 26.5582 26.5278 0.417718 5.60478 77.2918
11105744 12.1466 13.4269 25.7904 25.9238 0.457263 5.07338 77.2877
11105760 12.8161 13.4269 25.062 25.9238 0.476712 4.80576 77.2287
