3222868 3.75233 5.03738 34 33.7175 0.32759 11.5534 76.5072
3222876 3.75233 5.03738 34 33.7175 0.32759 11.5534 76.5072
3222886 3.81399 5.19393 34 33.4642 0.275958 11.4662 76.4721
3222896 3.99016 5.33207 34 33.3375 0.22158 11.3518 76.6598
3222906 3.99016 5.33207 34 33.3375 0.22158 11.3518 76.6598
3222916 4.07824 5.52546 34 33.1524 0.195312 11.2464 76.7561
3222926 4.07824 5.52546 34 33.1524 0.195312 11.2464 76.7561
3222936 4.26321 5.69122 34 32.8602 0.0937939 11.1123 76.8146
3222946 4.457 6.03196 34 32.5484 0.0400394 10.9154 77.0374
3222955 4.457 6.03196 34 32.5484 0.0400394 10.9154 77.0374
3222973 4.65078 6.31744 34 32.0711 -0.085108 10.7288 77.0393
3222977 4.93264 6.74106 34 31.3112 -0.285903 10.4509 76.9849
3222987 4.93264 6.74106 34 31.3112 -0.285903 10.4509 76.9849
3222997 5.42591 7.59751 33.9902 30.0447 -0.575492 9.92978 77.0583
3223009 6.09534 8.8039 33.0845 28.788 -0.517121 9.17784 76.7717
3223018 6.09534 8.8039 33.0845 28.788 -0.517121 9.17784 76.7717
3223030 7.09067 10.2497 32.1789 27.6287 -0.450826 8.25696 77.148
3223038 7.09067 10.2497 32.1789 27.6287 -0.450826 8.25696 77.148
3223048 8.36788 11.8613 30.7614 26.3232 -0.305504 7.15049 77.3138
3223058 9.80363 13.7308 29.2554 24.6768 -0.210229 5.88598 77.4665
3223071 9.80363 13.7308 29.2554 24.6768 -0.210229 5.88598 77.4665
3223078 11.2922 15.195 27.5032 22.9232 -0.220113 4.66871 76.9136
3223088 12.913 16.7237 25.7805 21.2086 -0.248344 3.39685 76.6258
3223098 12.913 16.7237 25.7805 21.2086 -0.248344 3.39685 76.6258
3223109 14.5161 18.3129 24.0284 19.5232 -0.231832 2.10576 76.3806
3223130 15.9518 19.6939 22.4829 18.0229 -0.235672 0.95732 76.1516
3223138 17.1794 20.968 20.9867 16.5717 -0.206858 -0.116698 75.7057
3223151 17.1794 20.968 20.9867 16.5717 -0.206858 -0.116698 75.7057
3223159 18.415 22.0572 19.8645 15.3438 -0.290206 -1.04332 75.6805
3223171 19.4812 22.9033 18.89 14.43 -0.342745 -1.79604 75.7046
3223180 19.4812 22.9033 18.89 14.43 -0.342745 -1.79604 75.7046
3223192 20.5674 23.6716 17.9647 13.6305 -0.405489 -2.50096 75.8342
3223200 20.5674 23.6716 17.9647 13.6305 -0.405489 -2.50096 75.8342
3223211 21.4543 24.2065 17.2855 12.9546 -0.519943 -3.04753 75.9009
3223220 22.2714 24.7706 16.5945 12.3931 -0.559732 -3.56199 76.0295
3223232 22.2714 24.7706 16.5945 12.3931 -0.559732 -3.56199 76.0295
3223240 22.959 25.1693 16.0746 11.9838 -0.617065 -3.95146 76.1867
3223252 23.6565 25.6459 15.6379 11.5459 -0.687258 -4.33775 76.4862
3223260 23.6565 25.6459 15.6379 11.5459 -0.687258 -4.33775 76.4862
3223272 24.1149 25.9765 15.2116 11.2699 -0.679119 -4.62499 76.5729
3223293 24.5035 26.3169 14.7229 10.832 -0.680026 -4.9621 76.3754
3223301 24.9918 26.6573 14.3486 10.5941 -0.68187 -5.23028 76.5918
3223311 24.9918 26.6573 14.3486 10.5941 -0.68187 -5.23028 76.5918
3223321 25.1712 26.9977 13.9951 10.3085 -0.608078 -5.46574 76.4725
3223331 25.2708 27.2603 13.704 10.0325 -0.55135 -5.66322 76.2675
3223341 25.2708 27.2603 13.704 10.0325 -0.55135 -5.66322 76.2675
3223351 25.4801 27.3478 13.4648 9.86114 -0.569877 -5.81098 76.1539
3223361 25.4801 27.3478 13.4648 9.86114 -0.569877 -5.81098 76.1539
3223371 25.5498 27.5812 13.3089 9.64222 -0.537327 -5.95014 76.0821
3223386 25.6893 27.6785 13.2985 9.57559 -0.568496 -5.99941 76.2419
3223391 25.6893 27.6785 13.2985 9.57559 -0.568496 -5.99941 76.2419
3223401 25.8488 27.8438 13.2153 9.4804 -0.569403 -6.08671 76.3883
3223413 25.8886 27.873 13.1425 9.4804 -0.549108 -6.11486 76.3845
3223433 25.9086 27.9314 13.2049 9.46137 -0.562286 -6.11199 76.5062
3223442 25.9086 27.9314 13.2049 9.46137 -0.562286 -6.11199 76.5062
3223455 25.8388 28.0286 13.1217 9.43281 -0.490402 -6.14605 76.4219
3223462 25.7989 28.1161 13.1425 9.54703 -0.417171 -6.11429 76.6046
3223473 25.7989 28.1161 13.1425 9.54703 -0.417171 -6.11429 76.6046
3223482 25.7292 28.2231 13.1737 9.54703 -0.369342 -6.11002 76.673
3223493 25.7491 28.2717 13.1737 9.62318 -0.334524 -6.09702 76.8177
3223502 25.7491 28.2717 13.1737 9.62318 -0.334524 -6.09702 76.8177
3223513 25.7392 28.3009 13.2153 9.64222 -0.328787 -6.08262 76.8976
3223522 25.7392 28.3009 13.2153 9.64222 -0.328787 -6.08262 76.8976
3223534 25.7292 28.262 13.1217 9.56607 -0.333475 -6.1236 76.679
3223542 25.5996 28.3495 13.1633 9.59462 -0.266853 -6.09942 76.7071
3223554 25.5996 28.3495 13.1633 9.59462 -0.266853 -6.09942 76.7071
3223562 25.5897 28.2328 13.1737 9.64222 -0.289781 -6.06874 76.6384
3223575 25.5498 28.2328 13.2153 9.64222 -0.29034 -6.05267 76.6402
3223582 25.5498 28.1356 13.2153 9.67077 -0.313026 -6.03345 76.5715
3223598 25.4402 28.1356 13.2673 9.70885 -0.281857 -5.99587 76.5519
3223606 25.4402 28.1356 13.2673 9.70885 -0.281857 -5.99587 76.5519
3223615 25.3306 27.9605 13.4128 9.82307 -0.313565 -5.8911 76.527
3223623 25.1911 27.8924 13.4544 9.88018 -0.285564 -5.83937 76.4182
3223645 24.9719 27.659 13.652 10.0896 -0.2865 -5.67403 76.3725
3223653 24.6729 27.659 13.9119 10.0896 -0.27387 -5.56711 76.3335
3223663 24.6729 27.4451 13.9119 10.28 -0.281681 -5.48935 76.3099
3223674 24.4637 27.3478 14.2343 10.5274 -0.268584 -5.29881 76.5732
3223693 24.1647 27.1825 14.5254 10.7749 -0.238977 -5.09741 76.6475
3223704 23.9355 26.8421 14.9725 11.07 -0.324105 -4.82982 76.8201
3223715 23.9355 26.8421 14.9725 11.07 -0.324105 -4.82982 76.8201
3223725 23.5768 26.5017 15.3884 11.4412 -0.332294 -4.53442 76.9081
3223735 23.1483 26.0252 15.8459 11.8029 -0.379474 -4.20282 76.8223
3223755 22.6999 25.607 16.4281 12.3931 -0.365621 -3.78961 77.1281
3223765 22.6999 25.607 16.4281 12.3931 -0.365621 -3.78961 77.1281
3223775 22.102 25.1207 17.0591 12.8309 -0.392102 -3.37157 77.1127
3223785 21.5141 24.6442 17.7875 13.4877 -0.377652 -2.88307 77.4334
3223797 21.5141 24.6442 17.7875 13.4877 -0.377652 -2.88307 77.4334
3223804 20.7767 24.0801 18.4864 13.9731 -0.3912 -2.40517 77.3163
3223816 19.9097 23.2826 19.2837 14.687 -0.396511 -1.79262 77.1631
3223826 19.9097 23.2826 19.2837 14.687 -0.396511 -1.79262 77.1631
3223836 18.9631 22.4268 20.3173 15.5437 -0.423926 -1.07355 77.2508
3223846 18.9631 22.4268 20.3173 15.5437 -0.423926 -1.07355 77.2508
3223856 17.7773 21.3375 21.4395 16.6478 -0.398758 -0.199633 77.2021
3223866 16.6565 20.0927 22.7881 18.0814 -0.40921 0.796257 77.6186
3223876 16.6565 20.0927 22.7881 18.0814 -0.40921 0.796257 77.6186
3223886 15.6259 18.9743 24.1662 19.533 -0.410247 1.74311 78.2993
3223897 15.6259 18.9743 24.1662 19.533 -0.410247 1.74311 78.2993
3223906 14.5337 17.7878 25.4065 20.9553 -0.380358 2.67662 78.6832
3223916 13.5736 16.5948 26.5483 22.2023 -0.419679 3.5319 78.919
3223926 13.5736 16.5948 26.5483 22.2023 -0.419679 3.5319 78.919
3223936 12.6751 15.6739 27.3555 23.157 -0.380336 4.21565 78.8616
3223946 11.9705 14.8359 28.0249 23.7708 -0.441696 4.76884 78.602
3223957 11.9705 14.8359 28.0249 23.7708 -0.441696 4.76884 78.602
3223966 11.442 14.0807 28.5466 24.4235 -0.472774 5.24521 78.4928
3223977 11.442 14.0807 28.5466 24.4235 -0.472774 5.24521 78.4928
3223986 10.8078 13.3164 29.0486 25.1054 -0.458176 5.75447 78.2782
3223998 10.3409 12.727 29.3735 25.612 -0.44053 6.1338 78.0534
3224006 10.3409 12.727 29.3735 25.612 -0.44053 6.1338 78.0534
3224020 9.9886 12.2481 29.6294 26.0699 -0.417009 6.4404 77.936
3224027 9.70674 11.8982 29.9838 26.4401 -0.433253 6.69349 78.0288
3224037 9.70674 11.8982 29.9838 26.4401 -0.433253 6.69349 78.0288
3224047 9.49534 11.6219 30.2594 26.7616 -0.438727 6.89236 78.1382
3224058 9.49534 11.6219 30.2594 26.7616 -0.438727 6.89236 78.1382
3224067 9.2487 11.2443 30.5252 27.1513 -0.440803 7.13516 78.1695
3224078 9.03731 10.8852 30.8894 27.6287 -0.45031 7.38055 78.4405
3224088 9.03731 10.8852 30.8894 27.6287 -0.45031 7.38055 78.4405
3224099 8.69378 10.48 31.2044 28.1255 -0.411679 7.6728 78.5036
3224108 8.37668 10.1576 31.4997 28.4762 -0.395662 7.91774 78.5103
3224122 8.37668 10.1576 31.4997 28.4762 -0.395662 7.91774 78.5103
3224128 8.05959 9.82611 31.795 28.7685 -0.401539 8.16027 78.4492
3224138 7.81295 9.43933 32.1789 29.2458 -0.41521 8.42161 78.677
3224148 7.81295 9.43933 32.1789 29.2458 -0.41521 8.42161 78.677
3224160 7.40777 9.09859 32.6514 29.6355 -0.420424 8.71532 78.7933
3224169 7.40777 9.09859 32.6514 29.6355 -0.420424 8.71532 78.7933
3224180 7.02021 8.61051 33.0353 29.9668 -0.469987 9.03657 78.6328
3224190 6.65907 8.26056 33.3995 30.4539 -0.426598 9.31799 78.773
3224210 6.34197 7.97508 33.5767 30.7169 -0.390121 9.53622 78.6107
3224220 6.03368 7.6896 33.9016 31.0189 -0.389965 9.76502 78.6438
3224231 6.03368 7.6896 33.9016 31.0189 -0.389965 9.76502 78.6438
3224242 5.85751 7.47779 34 31.3014 -0.342806 9.91257 78.6367
3224251 5.85751 7.47779 34 31.3014 -0.342806 9.91257 78.6367
3224262 5.58446 7.21993 34 31.4281 -0.299247 10.0899 78.2325
3224271 5.4171 7.07259 34 31.6034 -0.237238 10.202 78.0931
3224281 5.4171 7.07259 34 31.6034 -0.237238 10.202 78.0931
3224291 5.30259 6.94366 34 31.8372 -0.167027 10.2949 78.0835
3224301 5.13523 6.83315 34 31.8957 -0.130478 10.3887 77.8641
3224312 5.13523 6.83315 34 31.8957 -0.130478 10.3887 77.8641
3224321 5.08238 6.71343 34 32.0321 -0.108205 10.4531 77.8279
3224335 5.08238 6.71343 34 32.0321 -0.108205 10.4531 77.8279
3224341 4.97668 6.66739 34 32.188 -0.0389725 10.5118 77.832
3224351 4.94145 6.66739 34 32.2562 -0.00574887 10.5273 77.865
3224361 4.94145 6.66739 34 32.2562 -0.00574887 10.5273 77.865
3224372 4.90622 6.61213 34 32.2756 -0.00592619 10.5581 77.794
3224382 4.82694 6.54767 34 32.2756 -0.00116676 10.6054 77.6503
3224392 4.82694 6.54767 34 32.2756 -0.00116676 10.6054 77.6503
3224402 4.84456 6.54767 34 32.2464 -0.0162512 10.598 77.6386
3224412 4.84456 6.54767 34 32.2464 -0.0162512 10.598 77.6386
3224422 4.79171 6.5753 34 32.0905 -0.0406235 10.5975 77.4576
3224432 4.87979 6.66739 34 32.0711 -0.0455245 10.5369 77.6182
3224442 4.87979 6.66739 34 32.0711 -0.0455245 10.5369 77.6182
3224452 4.84456 6.6766 34 32.11 -0.0186563 10.5477 77.6312
3224463 4.84456 6.66739 34 32.1393 -0.0122055 10.5524 77.6512
3224472 4.84456 6.66739 34 32.1393 -0.0122055 10.5524 77.6512
3224484 4.85337 6.63976 34 32.0418 -0.0553846 10.5531 77.535
3224492 4.85337 6.63976 34 32.0418 -0.0553846 10.5531 77.535
3224502 4.82694 6.6766 34 32.0224 -0.0412762 10.5485 77.5259
3224512 4.8886 6.71343 34 31.9249 -0.0806928 10.5105 77.527
3224522 4.8886 6.71343 34 31.9249 -0.0806928 10.5105 77.527
3224532 4.9943 6.82394 34 31.9054 -0.0852108 10.4384 77.7237
3224543 5.04715 6.82394 34 31.808 -0.133622 10.4153 77.6791
3224554 5.04715 6.89762 34 31.808 -0.109808 10.3913 77.7528
3224562 5.11762 7.07259 34 31.7106 -0.107324 10.3055 77.9008
3224572 5.11762 7.07259 34 31.7106 -0.107324 10.3055 77.9008
3224582 5.18808 7.09101 34 31.6229 -0.152163 10.2713 77.902
3224592 5.2057 7.24756 34 31.4865 -0.151272 10.2066 77.9398
3224602 5.2057 7.24756 34 31.4865 -0.151272 10.2066 77.9398
3224613 5.34663 7.34886 34 31.3307 -0.213747 10.1188 78.0262
3224622 5.34663 7.34886 34 31.3307 -0.213747 10.1188 78.0262
3224632 5.45233 7.487 34 31.2332 -0.234127 10.0343 78.1726
3224646 5.56684 7.60672 34 31.1261 -0.266302 9.95263 78.2996
3224654 5.56684 7.60672 34 31.1261 -0.266302 9.95263 78.2996
3224663 5.70777 7.74485 34 30.9507 -0.322753 9.85253 78.4033
3224674 5.75181 7.86457 33.9705 30.8241 -0.329559 9.79038 78.4109
3224683 5.75181 7.86457 33.9705 30.8241 -0.329559 9.79038 78.4109
3224694 5.86632 7.9935 33.8523 30.6779 -0.333981 9.69583 78.3901
3224703 5.97202 7.9935 33.6259 30.6779 -0.29594 9.64713 78.2694
3224714 5.97202 8.10401 33.6259 30.5318 -0.307457 9.60232 78.2338
3224723 6.09534 8.28819 33.4586 30.4052 -0.274955 9.48536 78.2473
3224737 6.09534 8.28819 33.4586 30.4052 -0.274955 9.48536 78.2473
3224743 6.2715 8.45395 33.2913 30.2006 -0.290293 9.3521 78.2173
3224757 6.44767 8.67497 33.1042 29.9375 -0.300452 9.19583 78.1644
3224765 6.44767 8.67497 33.1042 29.9375 -0.300452 9.19583 78.1644
3224775 6.64145 8.93283 32.927 29.7719 -0.275876 9.0308 78.2732
3224785 6.64145 8.93283 32.927 29.7719 -0.275876 9.0308 78.2732
3224795 6.86166 9.2091 32.6219 29.4212 -0.273076 8.82795 78.1138
3224805 7.07306 9.52221 32.3069 29.1777 -0.217755 8.62373 78.0798
3224815 7.07306 9.52221 32.3069 29.1777 -0.217755 8.62373 78.0798
3224825 7.31969 9.75244 31.9427 28.8659 -0.206736 8.42374 77.8807
3224834 7.6456 10.1392 31.6474 28.4957 -0.211106 8.15335 77.9279
3224855 7.96269 10.5444 31.2241 27.9794 -0.213289 7.85537 77.7106
3224865 7.96269 10.5444 31.2241 27.9794 -0.213289 7.85537 77.7106
3224874 8.27979 11.0417 30.6433 27.4728 -0.131917 7.51468 77.4376
3224893 8.75544 11.7232 30.1118 26.7811 -0.117266 7.05962 77.3715
3224895 8.75544 11.7232 30.1118 26.7811 -0.117266 7.05962 77.3715
3224905 9.32798 12.4139 29.4129 26.0699 -0.083217 6.55379 77.2246
3224915 9.95337 13.2059 28.7041 25.1444 -0.099732 5.97784 77.0077
3224936 10.5611 14.1083 27.9855 24.3066 -0.0427902 5.38372 76.9616
3224946 10.5611 14.1083 27.9855 24.3066 -0.0427902 5.38372 76.9616
3224958 11.257 14.8543 27.2079 23.5077 -0.033471 4.80385 76.8269
3224967 11.9352 15.6739 26.381 22.6017 -0.0132635 4.18588 76.5919
3224988 12.6927 16.4659 25.4951 21.7639 0.013721 3.55292 76.4176
3224997 13.5912 17.3307 24.619 20.7994 -0.026229 2.84841 76.3403
3225008 13.5912 17.3307 24.619 20.7994 -0.026229 2.84841 76.3403
3225016 14.5249 18.3907 23.5756 19.8057 0.0314653 2.05756 76.2969
3225037 15.5554 19.3633 22.5518 18.7731 0.00953376 1.26034 76.2436
3225047 16.5596 20.3747 21.5379 17.6527 -0.0230163 0.444601 76.125
3225057 16.5596 20.3747 21.5379 17.6527 -0.0230163 0.444601 76.125
3225068 17.5979 21.3959 20.4945 16.5812 -0.0379011 -0.378225 76.0695
3225092 18.7638 22.3003 19.5298 15.6198 -0.122496 -1.16406 76.2138
3225094 18.7638 22.3003 19.5298 15.6198 -0.122496 -1.16406 76.2138
3225097 19.8599 23.0784 18.6833 14.6299 -0.27373 -1.89343 76.2514
3225117 20.9461 23.8467 17.7875 13.8399 -0.342521 -2.58415 76.4201
3225127 21.8728 24.5664 16.9688 12.9546 -0.432345 -3.2442 76.3626
3225137 21.8728 24.5664 16.9688 12.9546 -0.432345 -3.2442 76.3626
3225148 22.7995 25.1693 16.1578 12.2598 -0.500152 -3.83928 76.3865
3225157 23.5967 25.782 15.4404 11.5935 -0.543609 -4.38636 76.4126
3225169 23.5967 25.782 15.4404 11.5935 -0.543609 -4.38636 76.4126
3225177 24.3242 26.2878 14.8477 11.0129 -0.611731 -4.85495 76.4725
3225189 24.3242 26.2878 14.8477 11.0129 -0.611731 -4.85495 76.4725
3225198 25.0217 26.6865 14.2654 10.3371 -0.741565 -5.32802 76.3107
3225209 25.5897 27.1339 13.8495 9.93729 -0.77377 -5.6731 76.5104
3225218 25.5897 27.1339 13.8495 9.93729 -0.77377 -5.6731 76.5104
3225230 25.9783 27.2895 13.444 9.48992 -0.867091 -5.97109 76.2017
3225238 26.347 27.3965 13.1841 9.19485 -0.965488 -6.18041 76.1224
3225250 26.347 27.3965 13.1841 9.19485 -0.965488 -6.18041 76.1224
3225258 26.6958 27.3965 13.0073 8.94737 -1.10435 -6.33902 76.0469
3225271 26.6958 27.3965 13.0073 8.94737 -1.10435 -6.33902 76.0469
3225279 26.7954 27.4354 13.0177 8.77604 -1.18441 -6.39997 76.0246
3225289 26.9947 27.3089 12.9969 8.69989 -1.31014 -6.43552 76.0005
3225298 26.9947 27.3089 12.9969 8.69989 -1.31014 -6.43552 76.0005
3225308 27.0744 27.3673 13.0073 8.6523 -1.33447 -6.46153 76.1014
3225319 27.0246 27.2214 13.1633 8.67133 -1.4114 -6.3902 76.0807
3225338 27.0246 27.163 13.3193 8.72844 -1.46008 -6.32383 76.2354
3225348 27.0246 27.163 13.3193 8.72844 -1.46008 -6.32383 76.2354
3225358 26.8851 27.0172 13.5376 8.82363 -1.50201 -6.20369 76.2635
3225370 26.6958 26.8616 13.808 9.05207 -1.50166 -6.02559 76.4174
3225380 26.6958 26.8616 13.808 9.05207 -1.50166 -6.02559 76.4174
3225390 26.6161 26.7449 14.1615 9.20437 -1.57322 -5.86401 76.7267
3225400 26.4666 26.6573 14.5358 9.43281 -1.59297 -5.67279 77.0925
3225410 26.4666 26.6573 14.5358 9.43281 -1.59297 -5.67279 77.0925
3225420 26.3769 26.5406 14.8061 9.57559 -1.6387 -5.53741 77.2992
3225430 26.3769 26.5406 14.8061 9.57559 -1.6387 -5.53741 77.2992
3225440 26.1676 26.492 14.9621 9.68029 -1.60327 -5.43659 77.302
3225449 25.9385 26.385 15.0765 9.75644 -1.57908 -5.34445 77.1564
3225461 25.9385 26.385 15.0765 9.75644 -1.57908 -5.34445 77.1564
3225470 25.7691 26.2683 15.1076 9.82307 -1.55432 -5.28271 76.9681
3225490 25.51 26.1224 15.2636 9.91825 -1.54037 -5.16516 76.8142
3225503 25.2907 25.9571 15.4612 10.0325 -1.55142 -5.03395 76.7415
3225515 25.2907 25.9571 15.4612 10.0325 -1.55142 -5.03395 76.7415
3225523 25.1413 25.8404 15.5963 10.0705 -1.57428 -4.95406 76.6485
3225532 24.9719 25.7918 15.7419 10.2133 -1.53439 -4.85052 76.7188
3225540 24.9719 25.7918 15.7419 10.2133 -1.53439 -4.85052 76.7188
3225550 24.8822 25.6556 15.8355 10.2895 -1.55635 -4.77667 76.6627
3225560 24.8822 25.6556 15.8355 10.2895 -1.55635 -4.77667 76.6627
3225570 24.5633 25.5389 16.0434 10.537 -1.47715 -4.60114 76.6826
3225581 24.4637 25.4319 16.345 10.7273 -1.51016 -4.44795 76.9679
3225590 24.4637 25.4319 16.345 10.7273 -1.51016 -4.44795 76.9679
3225600 24.3839 25.3249 16.4697 10.794 -1.53781 -4.374 76.9726
3225611 24.1946 25.286 16.5321 11.0129 -1.43712 -4.27176 77.0256
3225621 24.1946 25.286 16.5321 11.0129 -1.43712 -4.27176 77.0256
3225631 23.9754 25.0429 16.7713 11.1842 -1.46788 -4.10455 76.9738
3225641 23.9754 25.0429 16.7713 11.1842 -1.46788 -4.10455 76.9738
3225652 23.7163 24.8289 16.9168 11.4317 -1.4216 -3.93986 76.8938
3225661 23.3077 24.5566 17.2067 11.6411 -1.40679 -3.71842 76.7122
3225671 23.3077 24.5566 17.2067 11.6411 -1.40679 -3.71842 76.7122
3225681 22.8992 24.2551 17.5512 12.0218 -1.35983 -3.43709 76.7274
3225692 22.3113 23.7203 18.0041 12.5073 -1.33513 -3.04147 76.5428
3225701 22.3113 23.7203 18.0041 12.5073 -1.33513 -3.04147 76.5428
3225713 21.6635 23.127 18.6439 13.1831 -1.30432 -2.53798 76.6175
3225721 21.6635 23.127 18.6439 13.1831 -1.30432 -2.53798 76.6175
3225734 21.1055 22.5629 19.3625 13.9636 -1.27979 -2.01489 76.9945
3225741 20.3781 22.0475 20.0909 14.8964 -1.1384 -1.44128 77.4129
3225751 20.3781 22.0475 20.0909 14.8964 -1.1384 -1.44128 77.4129
3225761 19.6805 21.5515 20.8292 15.715 -1.04249 -0.904101 77.7762
3225771 18.8335 20.968 21.469 16.5241 -0.90318 -0.348686 77.7946
3225781 18.8335 20.968 21.469 16.5241 -0.90318 -0.348686 77.7946
3225792 17.9467 20.3553 22.1285 17.3117 -0.774416 0.219644 77.7422
3225802 17.9467 20.3553 22.1285 17.3117 -0.774416 0.219644 77.7422
3225812 17.0299 19.6161 22.8078 18.0034 -0.715904 0.806606 77.4572
3225822 16.2777 18.8867 23.5756 18.7925 -0.701 1.39367 77.5326
3225832 16.2777 18.8867 23.5756 18.7925 -0.701 1.39367 77.5326
3225842 15.6347 18.2449 24.0874 19.6206 -0.598249 1.90014 77.5876
3225852 15.0622 17.6224 24.5501 20.2734 -0.55365 2.34921 77.508
3225863 15.0622 17.6224 24.5501 20.2734 -0.55365 2.34921 77.508
3225872 14.6306 16.9908 24.9635 20.8579 -0.563456 2.75042 77.4428
3225892 14.0756 16.429 25.3868 21.5398 -0.482227 3.18126 77.4313
3225903 13.7057 15.9502 25.8494 22.0854 -0.489621 3.53373 77.5907
3225912 13.7057 15.9502 25.8494 22.0854 -0.489621 3.53373 77.5907
3225924 13.1948 15.3608 26.4007 22.6991 -0.494361 3.96835 77.6554
3225932 12.6399 14.8359 27.0208 23.4785 -0.431669 4.42903 77.9751
3225945 12.6399 14.8359 27.0208 23.4785 -0.431669 4.42903 77.9751
3225952 12.1642 14.2004 27.5426 24.1799 -0.424664 4.87106 78.0872
3225966 12.1642 14.2004 27.5426 24.1799 -0.424664 4.87106 78.0872
3225972 11.6622 13.7124 28.0249 24.7547 -0.390252 5.25982 78.1542
3225982 11.2394 13.1138 28.5368 25.2321 -0.457713 5.64804 78.122
3226002 10.7813 12.6165 29.0388 25.7192 -0.474846 6.01878 78.1558
3226013 10.4026 12.0731 29.4818 26.1479 -0.532413 6.36715 78.1053
3226023 10.4026 12.0731 29.4818 26.1479 -0.532413 6.36715 78.1053
3226034 9.9886 11.7876 29.9444 26.6544 -0.475572 6.6646 78.3751
3226043 9.9886 11.7876 29.9444 26.6544 -0.475572 6.6646 78.3751
3226057 9.58342 11.2996 30.3382 27.0636 -0.497673 6.9973 78.2848
3226065 9.18705 10.9404 30.7614 27.4436 -0.499319 7.29153 78.3324
3226073 9.18705 10.9404 30.7614 27.4436 -0.499319 7.29153 78.3324
3226083 8.88756 10.5628 31.0863 27.7845 -0.51917 7.54976 78.3212
3226096 8.88756 10.5628 31.0863 27.7845 -0.51917 7.54976 78.3212
3226103 8.62332 10.2313 31.3127 28.0086 -0.542396 7.76454 78.1759
3226117 8.40311 9.96425 31.6277 28.2911 -0.566965 7.96146 78.2861
3226125 8.40311 9.96425 31.6277 28.2911 -0.566965 7.96146 78.2861
3226133 8.0772 9.70639 31.8935 28.5736 -0.540131 8.18207 78.2507
3226143 7.85699 9.43012 32.2281 28.7587 -0.605655 8.37438 78.274
3226155 7.85699 9.43012 32.2281 28.7587 -0.605655 8.37438 78.274
3226172 7.68964 9.22752 32.4447 28.9244 -0.63308 8.51719 78.2862
3226175 7.68964 9.22752 32.4447 28.9244 -0.63308 8.51719 78.2862
3226186 7.47824 9.05255 32.6219 29.1095 -0.619113 8.6633 78.2621
3226196 7.36373 8.83153 32.7892 29.2848 -0.650518 8.79249 78.2693
3226205 7.36373 8.83153 32.7892 29.2848 -0.650518 8.79249 78.2693
3226216 7.20518 8.73023 32.8483 29.3335 -0.636774 8.88019 78.1172
3226225 7.09948 8.6013 33.0747 29.4115 -0.691105 8.97568 78.1869
3226235 7.09948 8.6013 33.0747 29.4115 -0.691105 8.97568 78.1869
3226245 7.07306 8.57367 33.2617 29.4115 -0.750016 9.00661 78.3199
3226256 7.07306 8.57367 33.3011 29.4115 -0.762202 9.00962 78.3593
3226265 7.02021 8.54605 33.3011 29.5381 -0.713331 9.04394 78.4055
3226275 7.00259 8.57367 33.3602 29.5576 -0.710718 9.04683 78.494
3226296 6.93212 8.48158 33.4488 29.7135 -0.695451 9.1151 78.5759
3226317 6.93212 8.40791 33.5177 29.8499 -0.696254 9.15303 78.7076
3226319 6.93212 8.40791 33.5177 29.8499 -0.696254 9.15303 78.7076
3226326 6.86166 8.42633 33.5767 29.7817 -0.708994 9.16833 78.6464
3226336 6.86166 8.42633 33.5767 29.7817 -0.708994 9.16833 78.6464
3226346 6.78238 8.25135 33.5767 29.8011 -0.735416 9.24815 78.4116
3226356 6.73834 8.23294 33.6948 29.8304 -0.754771 9.27824 78.4965
3226366 6.73834 8.23294 33.6948 29.8304 -0.754771 9.27824 78.4965
3226376 6.65907 8.16847 33.7047 29.8986 -0.732084 9.32842 78.4308
3226387 6.63264 8.18689 33.6752 29.9862 -0.679992 9.33511 78.4809
3226396 6.63264 8.18689 33.6752 29.9862 -0.679992 9.33511 78.4809
3226406 6.65026 8.14085 33.7441 29.9473 -0.734623 9.34608 78.4824
3226416 6.65026 8.14085 33.7441 29.9473 -0.734623 9.34608 78.4824
3226426 6.64145 8.12243 33.7441 30.0934 -0.690089 9.36503 78.6013
3226436 6.56218 8.15005 33.7539 30.1908 -0.627789 9.38871 78.657
3226446 6.56218 8.15005 33.7539 30.1908 -0.627789 9.38871 78.657
3226457 6.51813 8.08559 33.8228 30.0739 -0.69472 9.41899 78.5005
3226467 6.46528 7.94745 33.8228 30.1421 -0.701261 9.48335 78.3777
3226476 6.46528 7.94745 33.8228 30.1421 -0.701261 9.48335 78.3777
3226486 6.43005 7.98429 33.8327 30.1811 -0.668551 9.48629 78.4281
3226496 6.43005 7.98429 33.8327 30.1811 -0.668551 9.48629 78.4281
3226506 6.41244 7.98429 33.8327 30.2688 -0.634421 9.49794 78.4982
3226518 6.43005 7.9935 33.8228 30.2493 -0.64019 9.48751 78.4957
3226527 6.43005 7.9935 33.8228 30.2493 -0.64019 9.48751 78.4957
3226537 6.38601 7.9935 33.872 30.298 -0.625895 9.50811 78.5495
3226547 6.38601 7.93824 33.8425 30.3467 -0.618862 9.5267 78.5135
3226558 6.38601 7.93824 33.8425 30.3467 -0.618862 9.5267 78.5135
3226567 6.38601 7.8922 33.8425 30.3467 -0.633897 9.54109 78.4674
3226578 6.38601 7.8922 33.8425 30.3467 -0.633897 9.54109 78.4674
3226587 6.34197 7.90141 33.7834 30.3077 -0.611563 9.54517 78.3345
3226600 6.29793 7.86457 33.7933 30.337 -0.603399 9.57325 78.2927
3226607 6.29793 7.86457 33.7933 30.337 -0.603399 9.57325 78.2927
3226617 6.28912 7.95666 33.7539 30.259 -0.583747 9.53897 78.2587
3226628 6.34197 8.00271 33.7638 30.259 -0.58825 9.50869 78.3675
3226637 6.34197 8.00271 33.7638 30.259 -0.58825 9.50869 78.3675
3226648 6.41244 8.04875 33.7834 30.2103 -0.617169 9.47026 78.4549
3226657 6.41244 8.04875 33.7834 30.2103 -0.617169 9.47026 78.4549
3226667 6.46528 8.16847 33.685 30.1713 -0.576656 9.40678 78.4901
3226677 6.49171 8.18689 33.5866 30.1226 -0.564103 9.38232 78.3878
3226687 6.49171 8.18689 33.5866 30.1226 -0.564103 9.38232 78.3878
3226697 6.60622 8.26056 33.4586 29.9765 -0.583556 9.30405 78.3019
3226707 6.60622 8.26056 33.4192 29.9765 -0.571275 9.30119 78.2625
3226728 6.59741 8.36186 33.4192 29.8986 -0.560893 9.2668 78.2771
3226729 6.71192 8.47237 33.2027 29.8693 -0.502473 9.17902 78.2563
3226748 6.75596 8.59209 33.0944 29.6745 -0.506851 9.10574 78.1169
3226758 6.85285 8.73023 33.0452 29.4991 -0.533949 9.01628 78.1274
3226771 6.85285 8.73023 33.0452 29.4991 -0.533949 9.01628 78.1274
3226779 6.94093 8.95125 32.7991 29.3043 -0.475815 8.88727 77.9956
3226809 7.03782 9.13543 32.5235 29.0023 -0.458035 8.75542 77.699
3226811 7.34611 9.45775 32.1789 28.6516 -0.455894 8.50654 77.6344
3226818 7.34611 9.45775 32.1789 28.6516 -0.455894 8.50654 77.6344
3226831 7.6456 9.96425 31.8639 28.0963 -0.466996 8.18944 77.57
3226840 8.05078 10.4984 31.4997 27.5215 -0.4933 7.8262 77.5704
3226851 8.05078 10.4984 31.4997 27.5215 -0.4933 7.8262 77.5704
3226860 8.57927 11.1983 30.9386 26.6934 -0.5252 7.33523 77.4096
3226873 9.06373 12.0731 30.3677 25.9238 -0.463173 6.81041 77.4283
3226879 9.06373 12.0731 30.3677 25.9238 -0.463173 6.81041 77.4283
3226889 9.68912 13.0033 29.59 24.8814 -0.451811 6.17758 77.1638
3226899 9.68912 13.0033 29.59 24.8814 -0.451811 6.17758 77.1638
3226910 10.4554 13.9978 28.4088 23.8292 -0.338101 5.4344 76.6913
3226921 11.6093 15.2042 27.1094 22.5628 -0.3111 4.48292 76.4857
3226930 11.6093 15.2042 27.1094 22.5628 -0.3111 4.48292 76.4857
3226941 12.8513 16.4106 25.7116 21.1794 -0.319405 3.47244 76.1529
3226950 12.8513 16.4106 25.7116 21.1794 -0.319405 3.47244 76.1529
3226960 14.1725 17.6711 24.3926 19.9129 -0.322124 2.45477 76.1491
3226970 15.3969 18.9937 23.1424 18.6075 -0.308043 1.44981 76.1405
3226981 15.3969 18.9937 23.1424 18.6075 -0.308043 1.44981 76.1405
3226990 16.5596 20.2872 21.8726 17.302 -0.277227 0.459314 76.0214
3227000 17.8968 21.3862 20.7012 16.0862 -0.369944 -0.492087 76.0704
3227010 17.8968 21.3862 20.7012 16.0862 -0.369944 -0.492087 76.0704
3227022 19.1723 22.5435 19.5101 14.9345 -0.395381 -1.43208 76.1604
3227030 19.1723 22.5435 19.5101 14.9345 -0.395381 -1.43208 76.1604
3227043 20.2884 23.3896 18.4372 13.9446 -0.457342 -2.22777 76.0597
3227051 21.524 24.3913 17.3741 12.9737 -0.502571 -3.06195 76.2631
3227064 21.524 24.3913 17.3741 12.9737 -0.502571 -3.06195 76.2631
3227072 22.6002 25.0915 16.4801 12.0789 -0.626184 -3.76377 76.2508
3227081 23.6465 25.7626 15.5235 11.3651 -0.669232 -4.42749 76.2977
3227091 23.6465 25.7626 15.5235 11.3651 -0.669232 -4.42749 76.2977
3227101 24.4437 26.2975 14.8061 10.7654 -0.716449 -4.94735 76.3127
3227111 24.4437 26.2975 14.8061 10.7654 -0.716449 -4.94735 76.3127
3227121 25.0615 26.6768 14.1199 10.3085 -0.720835 -5.37832 76.1667
3227132 25.6196 26.9977 13.6312 9.8897 -0.776012 -5.73229 76.1382
3227148 25.6196 26.9977 13.6312 9.8897 -0.776012 -5.73229 76.1382
3227152 26.0082 27.2506 13.2361 9.54703 -0.80439 -6.01162 76.0419
3227162 26.2673 27.4743 12.841 9.30907 -0.765879 -6.24407 75.8916
3227173 26.2673 27.4743 12.841 9.30907 -0.765879 -6.24407 75.8916
3227182 26.5563 27.6979 12.6018 9.13774 -0.764021 -6.41789 75.9938
3227193 26.5563 27.6979 12.6018 9.13774 -0.764021 -6.41789 75.9938
3227202 26.7257 27.9216 12.3939 8.9664 -0.733982 -6.56915 76.0076
3227212 26.905 28.155 12.2587 8.84266 -0.71101 -6.68817 76.1615
3227222 26.905 28.155 12.2587 8.84266 -0.71101 -6.68817 76.1615
3227233 26.9848 28.3398 12.0404 8.69037 -0.655754 -6.82277 76.0553
3227242 27.0346 28.4468 12.03 8.62374 -0.654763 -6.86169 76.1351
3227253 27.0346 28.4468 12.03 8.62374 -0.654763 -6.86169 76.1351
3227262 27.0246 28.4857 12.0196 8.61422 -0.638351 -6.8705 76.1441
3227272 27.0246 28.4857 12.0196 8.61422 -0.638351 -6.8705 76.1441
3227282 26.9449 28.5246 11.9364 8.62374 -0.569829 -6.88732 76.0296
3227293 26.8353 28.476 12.1028 8.67133 -0.588396 -6.8089 76.0853
3227314 26.7954 28.4857 12.2379 8.73796 -0.593287 -6.74795 76.257
3227323 26.7655 28.4954 12.4251 8.80459 -0.617917 -6.67362 76.4906
3227340 26.7655 28.4954 12.4251 8.80459 -0.617917 -6.67362 76.4906
3227344 26.8353 28.5246 12.5914 8.89026 -0.654551 -6.61325 76.8416
3227356 26.8353 28.5246 12.5914 8.89026 -0.654551 -6.61325 76.8416
3227365 26.7855 28.4468 12.685 8.9664 -0.668959 -6.55162 76.8837
3227377 26.8253 28.4565 12.7994 9.00448 -0.70172 -6.51443 77.0857
3227385 26.8253 28.4565 12.7994 9.00448 -0.70172 -6.51443 77.0857
3227398 26.6061 28.3301 12.7786 9.12822 -0.626725 -6.44744 76.843
3227405 26.5264 28.2815 12.8514 9.17581 -0.624871 -6.39955 76.835
3227417 26.5264 28.2815 12.8514 9.17581 -0.624871 -6.39955 76.835
3227425 26.4766 28.2134 12.9969 9.19485 -0.671571 -6.34055 76.8817
3227434 26.4766 28.2134 12.9969 9.19485 -0.671571 -6.34055 76.8817
3227453 26.337 28.0286 13.0177 9.25196 -0.676653 -6.28221 76.6353
3227455 26.2972 27.9994 13.0489 9.20437 -0.699648 -6.27891 76.5499
3227466 26.2972 27.9994 13.0489 9.20437 -0.699648 -6.27891 76.5499
3227475 26.1676 27.8341 13.1529 9.28051 -0.72151 -6.19512 76.4352
3227485 26.0979 27.7174 13.2985 9.40425 -0.743195 -6.09907 76.518
3227494 26.0979 27.7174 13.2985 9.40425 -0.743195 -6.09907 76.518
3227504 25.9683 27.6201 13.4128 9.47088 -0.748695 -6.02273 76.4722
3227515 25.9683 27.6201 13.4128 9.47088 -0.748695 -6.02273 76.4722
3227525 25.8388 27.3965 13.6104 9.6327 -0.791091 -5.88248 76.4784
3227536 25.6794 27.2019 13.8495 9.88018 -0.798444 -5.70772 76.611
3227556 25.4701 26.9977 14.0887 10.0325 -0.825381 -5.55171 76.589
3227566 25.3206 26.8713 14.4214 10.28 -0.842336 -5.36273 76.8933
3227576 25.3206 26.8713 14.4214 10.28 -0.842336 -5.36273 76.8933
3227586 25.1911 26.7254 14.6294 10.5655 -0.820093 -5.19799 77.1114
3227606 24.8921 26.4239 14.9309 10.7844 -0.848575 -4.98512 77.0314
3227616 24.6231 26.2294 15.2012 11.0414 -0.828032 -4.78821 77.0952
3227627 24.6231 26.2294 15.2012 11.0414 -0.828032 -4.78821 77.0952
3227638 24.3042 25.9474 15.4612 11.2794 -0.824308 -4.58054 76.9921
3227647 23.9455 25.5681 15.8251 11.5078 -0.876634 -4.32954 76.8465
3227657 23.9455 25.5681 15.8251 11.5078 -0.876634 -4.32954 76.8465
3227670 23.4174 25.2569 16.1994 12.0123 -0.763327 -3.99212 76.8859
3227677 22.8494 24.7803 16.7297 12.4502 -0.764401 -3.60304 76.8095
3227690 22.8494 24.7803 16.7297 12.4502 -0.764401 -3.60304 76.8095
3227697 22.1917 24.333 17.3052 12.9546 -0.719295 -3.17737 76.7844
3227711 22.1917 24.333 17.3052 12.9546 -0.719295 -3.17737 76.7844
3227717 21.6038 23.9148 17.9548 13.6114 -0.659145 -2.71498 77.0848
3227727 20.8863 23.3604 18.6144 14.3253 -0.587836 -2.19735 77.1864
3227737 20.8863 23.3604 18.6144 14.3253 -0.587836 -2.19735 77.1864
3227755 20.1987 22.7185 19.4019 15.1058 -0.573525 -1.62924 77.4249
3227768 19.4215 22.0864 20.1401 15.9625 -0.487277 -1.04468 77.6105
3227778 18.6342 21.4834 20.78 16.8572 -0.345175 -0.478514 77.7548
3227788 18.6342 21.4834 20.78 16.8572 -0.345175 -0.478514 77.7548
3227798 17.8072 20.9096 21.4395 17.6138 -0.232504 0.0649005 77.77
3227809 16.9383 20.0927 22.1975 18.3347 -0.228344 0.677083 77.5631
3227818 16.9383 20.0927 22.1975 18.3347 -0.228344 0.677083 77.5631
3227828 16.2425 19.3924 23.0243 19.114 -0.244401 1.2543 77.7733
3227840 15.4057 18.5172 23.6937 19.9226 -0.212663 1.87521 77.5392
3227849 15.4057 18.5172 23.6937 19.9226 -0.212663 1.87521 77.5392
3227861 14.701 17.6905 24.6879 20.7799 -0.294919 2.51921 77.8594
3227870 14.701 17.6905 24.6879 20.7799 -0.294919 2.51921 77.8594
3227883 13.9259 16.9079 25.377 21.686 -0.227542 3.12512 77.8967
3227891 13.2477 16.0791 26.2629 22.6504 -0.249562 3.75509 78.2401
3227900 13.2477 16.0791 26.2629 22.6504 -0.249562 3.75509 78.2401
3227910 12.4725 15.1582 26.9913 23.4883 -0.261624 4.38781 78.1103
3227921 11.8119 14.532 27.6804 24.1117 -0.27151 4.88537 78.136
3227931 11.8119 14.532 27.6804 24.1117 -0.27151 4.88537 78.136
3227941 11.2658 13.8321 28.2021 24.6963 -0.301151 5.34651 77.9962
3227952 11.2658 13.8321 28.2021 24.6963 -0.301151 5.34651 77.9962
3227961 10.7373 13.1966 28.7435 25.2613 -0.328089 5.7874 77.9388
3227972 10.2352 12.6349 29.2061 25.6997 -0.355755 6.17846 77.776
3227981 10.2352 12.6349 29.2061 25.6997 -0.355755 6.17846 77.776
3227992 9.90933 12.1652 29.6491 26.1284 -0.406168 6.49365 77.852
3228001 9.54819 11.714 30.1314 26.6642 -0.416829 6.8283 78.0578
3228011 9.54819 11.714 30.1314 26.6642 -0.416829 6.8283 78.0578
3228021 9.20466 11.2259 30.5547 27.2195 -0.420052 7.16267 78.2048
3228031 9.20466 11.2259 30.5547 27.2195 -0.420052 7.16267 78.2048
3228041 8.86114 10.8299 30.9091 27.6189 -0.422345 7.44773 78.219
3228053 8.50881 10.3787 31.3127 28.184 -0.40151 7.77119 78.3841
3228079 8.50881 10.3787 31.3127 28.184 -0.40151 7.77119 78.3841
3228080 8.16529 9.99187 31.6966 28.6126 -0.400615 8.05798 78.4664
3228081 8.16529 9.99187 31.6966 28.6126 -0.400615 8.05798 78.4664
3228098 7.73368 9.49458 31.9624 29.051 -0.367595 8.39421 78.2416
3228109 7.41658 9.21831 32.3266 29.3725 -0.367767 8.62924 78.334
3228114 7.41658 9.21831 32.3266 29.3725 -0.367767 8.62924 78.334
3228122 7.13472 8.84074 32.6416 29.6745 -0.402679 8.87848 78.2915
3228132 6.91451 8.66576 32.9861 30.035 -0.381638 9.05343 78.6013
3228142 6.91451 8.66576 32.9861 30.035 -0.381638 9.05343 78.6013
3228152 6.6943 8.38028 33.1731 30.337 -0.365905 9.24522 78.5847
3228162 6.6943 8.38028 33.1731 30.337 -0.365905 9.24522 78.5847
3228172 6.50933 8.17768 33.3799 30.6097 -0.350092 9.39973 78.6766
3228182 6.28031 7.91062 33.5866 30.7948 -0.36954 9.58171 78.5723
3228192 6.28031 7.91062 33.5866 30.7948 -0.36954 9.58171 78.5723
3228203 6.20104 7.80932 33.6752 30.8143 -0.398901 9.64571 78.4998
3228212 6.09534 7.68039 33.7834 30.9605 -0.394145 9.73671 78.5196
3228225 6.09534 7.68039 33.7834 30.9605 -0.394145 9.73671 78.5196
3228232 6.03368 7.70802 33.8819 31.0092 -0.381 9.75726 78.6327
3228248 5.9456 7.70802 33.9803 31.0092 -0.384244 9.79155 78.6431
3228253 5.9456 7.66197 33.9803 31.1163 -0.364529 9.81315 78.7042
3228263 5.90155 7.59751 34 31.1553 -0.365123 9.85125 78.6544
3228275 5.90155 7.59751 34 31.1553 -0.365123 9.85125 78.6544
3228283 5.86632 7.57909 34 31.1553 -0.360024 9.86821 78.6007
3228293 5.76943 7.56067 34 31.1748 -0.329268 9.90601 78.5049
3228303 5.76943 7.56067 34 31.1748 -0.329268 9.90601 78.5049
3228315 5.77824 7.56988 34 31.165 -0.332211 9.89966 78.5132
3228323 5.77824 7.56988 34 31.165 -0.332211 9.89966 78.5132
3228333 5.63731 7.487 34 31.2138 -0.298882 9.97397 78.3381
3228343 5.60207 7.45937 34 31.2527 -0.284104 9.99652 78.3142
3228357 5.60207 7.45937 34 31.2527 -0.284104 9.99652 78.3142
3228363 5.61088 7.50542 34 31.3014 -0.25633 9.98215 78.4177
3228377 5.64611 7.45937 34 31.3794 -0.257175 9.99057 78.4849
3228383 5.64611 7.45937 34 31.3794 -0.257175 9.99057 78.4849
3228393 5.60207 7.42254 34 31.506 -0.214414 10.0244 78.5306
3228404 5.60207 7.42254 34 31.506 -0.214414 10.0244 78.5306
3228416 5.57565 7.37649 34 31.506 -0.220862 10.0475 78.4582
3228424 5.56684 7.42254 34 31.5742 -0.181411 10.0399 78.5636
3228433 5.56684 7.42254 34 31.5742 -0.181411 10.0399 78.5636
3228444 5.58446 7.35807 34 31.5645 -0.210781 10.0543 78.507
3228453 5.54922 7.35807 34 31.4573 -0.234114 10.0588 78.3646
3228474 5.54041 7.36728 34 31.5158 -0.209561 10.0623 78.4235
3228489 5.54041 7.36728 34 31.5158 -0.209561 10.0623 78.4235
3228495 5.56684 7.37649 34 31.3989 -0.252575 10.0435 78.3422
3228506 5.60207 7.3857 34 31.467 -0.238775 10.0337 78.4548
3228515 5.60207 7.3857 34 31.467 -0.238775 10.0337 78.4548
3228526 5.58446 7.42254 34 31.4476 -0.227636 10.0263 78.4546
3228535 5.61969 7.44095 34 31.4768 -0.223441 10.0111 78.5374
3228545 5.61969 7.44095 34 31.4768 -0.223441 10.0111 78.5374
3228557 5.69896 7.54225 34 31.3209 -0.265965 9.94366 78.5621
3228565 5.69896 7.54225 34 31.3209 -0.265965 9.94366 78.5621
3228579 5.71658 7.5883 33.8917 31.2722 -0.238246 9.91331 78.4688
3228585 5.90155 7.80011 33.7638 31.1261 -0.235115 9.76979 78.5915
3228595 5.90155 7.80011 33.7638 31.1261 -0.235115 9.76979 78.5915
3228605 5.9544 7.84615 33.6752 30.9994 -0.249755 9.72423 78.4751
3228617 5.99845 7.94745 33.5964 30.8533 -0.253239 9.66326 78.3956
3228626 5.99845 7.94745 33.5964 30.8533 -0.253239 9.66326 78.3956
3228635 6.1658 8.10401 33.4192 30.8338 -0.206055 9.54816 78.5228
3228647 6.1658 8.10401 33.4192 30.8338 -0.206055 9.54816 78.5228
3228655 6.21865 8.18689 33.2913 30.5708 -0.240281 9.47835 78.2676
3228668 6.35959 8.37107 33.1731 30.4344 -0.232092 9.35882 78.3382
3228675 6.35959 8.37107 33.1731 30.4344 -0.232092 9.35882 78.3382
3228685 6.46528 8.51842 32.9566 30.2201 -0.218585 9.24886 78.1603
3228695 6.46528 8.51842 32.9566 30.2201 -0.218585 9.24886 78.1603
3228706 6.57098 8.61051 32.7794 30.0934 -0.207053 9.16503 78.0543
3228716 6.70311 8.78548 32.5333 29.9473 -0.16149 9.04049 77.9692
3228726 6.70311 8.78548 32.5333 29.9473 -0.16149 9.04049 77.9692
3228740 6.82643 8.96966 32.3463 29.694 -0.163497 8.91181 77.8363
3228746 7.09948 9.19989 32.1297 29.4309 -0.192124 8.71974 77.86
3228757 7.09948 9.19989 32.1297 29.4309 -0.192124 8.71974 77.86
3228776 7.38135 9.50379 31.8246 29.0315 -0.21565 8.4841 77.7412
3228777 7.38135 9.50379 31.8246 29.0315 -0.21565 8.4841 77.7412
3228786 7.72487 9.90899 31.4308 28.5736 -0.216724 8.18615 77.6383
3228797 8.1829 10.5352 30.9288 28.0183 -0.179659 7.76969 77.6652
3228806 8.1829 10.5352 30.9288 28.0183 -0.179659 7.76969 77.6652
3228819 8.73782 11.1614 30.2397 27.3364 -0.154801 7.29461 77.4754
3228826 9.43368 11.8429 29.5605 26.6252 -0.169782 6.7599 77.4623
3228842 9.43368 11.8429 29.5605 26.6252 -0.169782 6.7599 77.4623
3228846 10.0855 12.6165 28.8025 25.8946 -0.121777 6.20068 77.3991
3228856 10.0855 12.6165 28.8025 25.8946 -0.121777 6.20068 77.3991
3228867 10.6756 13.3072 28.0052 24.9398 -0.141004 5.64729 76.9278
3228877 11.4067 14.0991 27.0602 24.1215 -0.0803038 5.02216 76.6876
3228887 11.4067 14.0991 27.0602 24.1215 -0.0803038 5.02216 76.6876
3228897 12.2083 14.9924 26.194 23.1765 -0.0761852 4.34297 76.5712
3228909 13.1155 15.8949 25.2785 22.2607 -0.0778586 3.63074 76.5497
3228917 13.1155 15.8949 25.2785 22.2607 -0.0778586 3.63074 76.5497
3228932 14.0228 16.8158 24.3237 21.2963 -0.0766367 2.89987 76.4586
3228947 14.7363 17.6419 23.4378 20.3903 -0.0465468 2.25373 76.2062
3228957 15.5114 18.4102 22.6503 19.5719 -0.0589535 1.63518 76.1438
3228977 16.2073 19.2271 21.9021 18.7049 -0.0583261 1.02036 76.0414
3228987 16.9472 19.9857 21.0851 17.8086 -0.0784576 0.387899 75.8266
3229008 17.7374 20.7929 20.3862 17.039 -0.0960231 -0.218243 75.9555
3229022 17.7374 20.7929 20.3862 17.039 -0.0960231 -0.218243 75.9555
3229028 18.4549 21.5029 19.6676 16.2861 -0.109838 -0.791181 75.9115
3229038 19.272 22.2323 19.077 15.5151 -0.197648 -1.36251 76.0964
3229048 19.272 22.2323 19.077 15.5151 -0.197648 -1.36251 76.0964
3229058 20.0891 22.9033 18.3683 14.7632 -0.259739 -1.94308 76.1238
3229068 20.8165 23.5549 17.7973 14.0969 -0.315373 -2.45404 76.2657
3229078 20.8165 23.5549 17.7973 14.0969 -0.315373 -2.45404 76.2657
3229090 21.5041 23.9828 17.3347 13.5543 -0.426064 -2.86699 76.3759
3229110 21.9725 24.3524 16.8232 12.9356 -0.4954 -3.26601 76.0837
3229120 22.4209 24.8289 16.4177 12.612 -0.458077 -3.58289 76.2795
3229130 22.4209 24.8289 16.4177 12.612 -0.458077 -3.58289 76.2795
3229139 22.8593 25.1402 15.9914 12.2312 -0.485212 -3.89194 76.2222
3229152 23.2679 25.5486 15.5963 11.841 -0.483452 -4.20553 76.2538
3229160 23.2679 25.5486 15.5963 11.841 -0.483452 -4.20553 76.2538
3229169 23.6266 25.8112 15.2636 11.584 -0.489943 -4.44192 76.2854
3229180 23.9355 25.8112 14.9517 11.2223 -0.610408 -4.65738 75.9207
3229189 23.9355 26.1419 14.9517 11.2223 -0.499351 -4.70223 76.2514
3229200 24.2644 26.4725 14.7541 11.0414 -0.491464 -4.88838 76.5325
3229222 24.4736 26.6281 14.5774 10.7749 -0.538865 -5.05195 76.4541
3229231 24.6231 26.8518 14.411 10.6131 -0.512809 -5.1865 76.499
3229251 24.8423 27.1144 14.2343 10.4989 -0.47701 -5.32475 76.6899
3229261 24.9818 27.2117 14.0263 10.2609 -0.501937 -5.4732 76.4807
3229271 24.9818 27.2117 14.0263 10.2609 -0.501937 -5.4732 76.4807
3229282 25.1612 27.3284 13.9015 10.1657 -0.512238 -5.56886 76.5568
3229291 25.1612 27.3284 13.9015 10.1657 -0.512238 -5.56886 76.5568
3229301 25.2708 27.377 13.704 9.94681 -0.54096 -5.7007 76.2986
3229311 25.3107 27.5521 13.652 9.93729 -0.481777 -5.7435 76.452
3229322 25.3107 27.5521 13.652 9.93729 -0.481777 -5.7435 76.452
3229331 25.4601 27.6785 13.6312 9.76596 -0.537947 -5.82894 76.5358
3229342 25.4601 27.6785 13.6312 9.76596 -0.537947 -5.82894 76.5358
3229356 25.4502 27.6979 13.5792 9.72788 -0.524347 -5.85461 76.4552
3229365 25.3904 27.6785 13.5792 9.76596 -0.498977 -5.83474 76.414
3229373 25.3904 27.6785 13.5792 9.76596 -0.498977 -5.83474 76.414
3229386 25.2907 27.6299 13.6624 9.71836 -0.52584 -5.80721 76.3013
3229393 25.1911 27.5715 13.7872 9.8421 -0.51204 -5.72051 76.3919
3229404 25.1911 27.5715 13.7872 9.8421 -0.51204 -5.72051 76.3919
3229412 25.0715 27.4256 13.9119 10.0039 -0.508384 -5.61056 76.413
3229422 25.0715 27.4256 13.9119 10.0039 -0.508384 -5.61056 76.413
3229433 25.1213 27.4937 13.9951 10.0705 -0.506057 -5.58473 76.6807
3229442 25.0516 27.4451 14.0575 10.2514 -0.459796 -5.50503 76.8056
3229455 25.0516 27.4451 14.0575 10.2514 -0.459796 -5.50503 76.8056
3229462 25.0317 27.3576 14.1823 10.2228 -0.531787 -5.46605 76.7943
3229472 24.8324 27.27 14.2343 10.4132 -0.450613 -5.36579 76.7498
3229482 24.8324 27.27 14.2343 10.4132 -0.450613 -5.36579 76.7498
3229492 24.7726 27.1144 14.4526 10.4132 -0.552924 -5.28082 76.7528
3229504 24.7726 27.1144 14.4526 10.4132 -0.552924 -5.28082 76.7528
3229512 24.5434 26.9394 14.4942 10.5465 -0.506945 -5.18313 76.5234
3229525 24.4836 26.8032 14.7541 10.6512 -0.581329 -5.06209 76.6921
3229532 24.4836 26.8032 14.7541 10.6512 -0.581329 -5.06209 76.6921
3229542 24.364 26.6476 14.8477 10.7749 -0.583681 -4.96951 76.6342
3229552 24.2145 26.6476 14.9829 10.9462 -0.522052 -4.87028 76.7913
3229562 24.2145 26.4725 14.9829 10.9462 -0.580369 -4.84714 76.6162
3229572 24.0152 26.2878 15.3468 11.1557 -0.624506 -4.64822 76.8054
3229583 24.0152 26.2878 15.3468 11.1557 -0.624506 -4.64822 76.8054
3229592 23.8558 26.1127 15.482 11.3841 -0.599003 -4.51017 76.8346
3229602 23.6764 25.9376 15.7627 11.6411 -0.603883 -4.32568 77.0179
3229612 23.6764 25.9376 15.7627 11.6411 -0.603883 -4.32568 77.0179
3229622 23.4373 25.8501 16.085 11.8886 -0.577135 -4.13801 77.261
3229632 23.4373 25.8501 16.085 11.8886 -0.577135 -4.13801 77.261
3229642 23.1184 25.6556 16.3138 12.098 -0.543679 -3.95713 77.1858
3229652 22.8095 25.4222 16.6673 12.3264 -0.559452 -3.73672 77.2254
3229662 22.8095 25.4222 16.6673 12.3264 -0.559452 -3.73672 77.2254
3229672 22.5703 25.218 16.8856 12.4882 -0.566912 -3.57969 77.1622
3229683 22.3013 25.0429 17.1181 12.7357 -0.531356 -3.39847 77.198
3229692 22.3013 25.0429 17.1181 12.7357 -0.531356 -3.39847 77.198
3229702 21.9725 24.8387 17.4725 12.9832 -0.525148 -3.17512 77.2668
3229712 21.9725 24.8387 17.4725 12.9832 -0.525148 -3.17512 77.2668
3229722 21.6038 24.508 17.6989 13.1355 -0.53906 -2.97819 76.9462
3229733 21.1952 24.226 17.9942 13.4972 -0.476588 -2.71667 76.9126
3229752 20.7767 23.9439 18.2994 13.7352 -0.454995 -2.4792 76.7551
3229762 20.2286 23.5355 18.7719 14.2492 -0.395857 -2.09866 76.7851
3229772 20.2286 23.5355 18.7719 14.2492 -0.395857 -2.09866 76.7851
3229783 19.6706 23.0103 19.2444 14.706 -0.391021 -1.70892 76.6313
3229793 19.6706 23.0103 19.2444 14.706 -0.391021 -1.70892 76.6313
3229803 19.0328 22.5338 19.9039 15.3819 -0.332162 -1.22589 76.8523
3229813 18.3154 21.9891 20.6422 16.0577 -0.295672 -0.702168 77.0043
3229833 17.6477 21.3764 21.3804 16.8287 -0.266418 -0.158298 77.2332
3229843 16.9472 20.8026 22.1089 17.6722 -0.187401 0.392995 77.5309
3229854 16.9472 20.8026 22.1089 17.6722 -0.187401 0.392995 77.5309
3229863 16.3218 20.1219 22.8471 18.4613 -0.188331 0.938528 77.7521
3229883 15.6788 19.373 23.4574 19.2407 -0.168009 1.47519 77.7499
3229895 15.0269 18.7019 24.1071 20.0006 -0.138609 2.00011 77.8366
3229905 15.0269 18.7019 24.1071 20.0006 -0.138609 2.00011 77.8366
3229919 14.428 17.8461 24.6977 20.7605 -0.166969 2.54414 77.7323
3229925 13.8642 17.1848 25.2884 21.4132 -0.178343 3.01975 77.7506
3229935 13.8642 17.1848 25.2884 21.4132 -0.178343 3.01975 77.7506
3229946 13.3005 16.5027 25.8593 22.0854 -0.183837 3.50005 77.7479
3229955 13.3005 16.5027 25.8593 22.0854 -0.183837 3.50005 77.7479
3229969 12.8073 15.9225 26.4007 22.6894 -0.191475 3.92451 77.8199
3229975 12.3845 15.3516 26.9323 23.2739 -0.221708 4.32439 77.9422
3229985 12.3845 15.3516 26.9323 23.2739 -0.221708 4.32439 77.9422
3229995 11.9881 14.799 27.2965 23.7903 -0.223203 4.68057 77.8738
3230019 11.6093 14.2833 27.6804 24.2968 -0.227794 5.02465 77.8699
3230026 11.3098 13.6755 28.0938 24.8911 -0.268376 5.38658 77.9703
3230036 11.3098 13.6755 28.0938 24.8911 -0.268376 5.38658 77.9703
3230046 10.843 13.0769 28.5171 25.3295 -0.306575 5.77241 77.7665
3230056 10.5347 12.6441 28.8518 25.7289 -0.325826 6.0575 77.7595
3230068 10.5347 12.6441 28.8518 25.7289 -0.325826 6.0575 77.7595
3230076 10.156 12.2113 29.2357 26.1868 -0.319302 6.37397 77.7897
3230089 9.86528 11.8429 29.531 26.5083 -0.336041 6.62358 77.7475
3230096 9.86528 11.8429 29.531 26.5083 -0.336041 6.62358 77.7475
3230108 9.61865 11.539 29.846 26.9954 -0.298148 6.86234 77.999
3230126 9.45129 11.2075 30.1019 27.3169 -0.329423 7.06221 78.0776
3230138 9.19586 10.9036 30.4563 27.7456 -0.320236 7.2992 78.3013
3230146 9.19586 10.9036 30.4563 27.7456 -0.320236 7.2992 78.3013
3230160 8.94922 10.48 30.7713 28.0768 -0.371678 7.55371 78.2773
3230166 8.68497 10.2129 30.9977 28.408 -0.338981 7.75977 78.3036
3230187 8.44715 10.0011 31.165 28.6711 -0.300199 7.9303 78.2843
3230207 8.19171 9.78006 31.2831 28.8951 -0.255811 8.10105 78.1501
3230217 8.05078 9.66035 31.4111 29.09 -0.227448 8.20651 78.2122
3230228 8.05078 9.66035 31.4111 29.09 -0.227448 8.20651 78.2122
3230237 7.85699 9.47616 31.5194 29.2653 -0.203188 8.34346 78.1179
3230249 7.7601 9.24594 31.6769 29.4602 -0.233832 8.47119 78.1431
3230257 7.7601 9.24594 31.6769 29.4602 -0.233832 8.47119 78.1431
3230271 7.56632 9.08017 31.8442 29.7914 -0.172126 8.62058 78.2821
3230277 7.56632 9.08017 31.8442 29.7914 -0.172126 8.62058 78.2821
3230287 7.41658 8.88678 32.051 29.9668 -0.195985 8.75518 78.3211
3230301 7.26684 8.71181 32.2675 30.2201 -0.191957 8.89088 78.4662
3230307 7.26684 8.71181 32.2675 30.2201 -0.191957 8.89088 78.4662
3230317 7.08187 8.57367 32.3856 30.3759 -0.165111 9.01067 78.4171
3230327 7.08187 8.57367 32.3856 30.3759 -0.165111 9.01067 78.4171
3230340 6.91451 8.43554 32.6022 30.5415 -0.17187 9.13328 78.4938
3230347 6.78238 8.34344 32.7203 30.7656 -0.125186 9.22765 78.6118
3230357 6.78238 8.34344 32.7203 30.7656 -0.125186 9.22765 78.6118
3230367 6.64145 8.18689 32.8778 30.8046 -0.168067 9.33389 78.5107
3230377 6.56218 8.08559 33.1338 30.863 -0.237559 9.41242 78.6446
3230387 6.56218 8.08559 33.1338 30.863 -0.237559 9.41242 78.6446
3230397 6.46528 7.98429 33.3011 30.9897 -0.25159 9.49473 78.7404
3230417 6.28912 7.81853 33.4684 31.1066 -0.264494 9.62106 78.6827
3230431 6.23627 7.76327 33.557 31.2138 -0.259072 9.66822 78.7703
3230437 6.23627 7.76327 33.557 31.2138 -0.259072 9.66822 78.7703
3230447 6.13938 7.61593 33.6653 31.4281 -0.241184 9.76645 78.8487
3230457 6.04249 7.56067 33.7145 31.5547 -0.203374 9.82589 78.8724
3230478 5.91917 7.45937 33.8327 31.6424 -0.206095 9.91011 78.8536
3230488 5.91917 7.45937 33.8327 31.6424 -0.206095 9.91011 78.8536
3230498 5.76062 7.31203 33.8523 31.7009 -0.190803 10.0121 78.6259
3230511 5.69896 7.1831 33.872 31.7496 -0.20328 10.0771 78.5037
3230520 5.69896 7.1831 33.872 31.7496 -0.20328 10.0771 78.5037
3230528 5.59326 7.07259 33.9311 31.8665 -0.186487 10.1573 78.4634
3230538 5.56684 7.06338 33.9114 31.8372 -0.184238 10.1657 78.3789
3230548 5.56684 7.06338 33.9114 31.8372 -0.184238 10.1657 78.3789
3230558 5.60207 7.06338 34 31.9639 -0.182754 10.1677 78.6293
3230570 5.60207 7.06338 34 31.9639 -0.182754 10.1677 78.6293
3230578 5.55803 6.9805 34 31.9249 -0.207932 10.206 78.4635
3230588 5.63731 7.05417 34 31.8372 -0.237454 10.1515 78.5287
3230599 5.63731 7.05417 34 31.8372 -0.237454 10.1515 78.5287
3230609 5.65492 7.0818 34 31.7788 -0.25292 10.1334 78.5155
3230620 5.64611 7.10943 34 31.6619 -0.278893 10.1201 78.4174
3230638 5.77824 7.24756 33.9803 31.5255 -0.313723 10.024 78.5316
3230648 5.77824 7.24756 33.9803 31.5255 -0.313723 10.024 78.5316
3230660 5.89275 7.30282 33.8622 31.3599 -0.34821 9.95181 78.4176
3230670 5.96321 7.44095 33.7933 31.2722 -0.3324 9.87541 78.4697
3230679 5.96321 7.44095 33.7933 31.2722 -0.3324 9.87541 78.4697
3230690 6.01606 7.57909 33.7047 31.0774 -0.339478 9.79626 78.3772
3230700 6.09534 7.6896 33.6456 30.9799 -0.341608 9.72586 78.4105
3230711 6.09534 7.6896 33.6456 30.9799 -0.341608 9.72586 78.4105
3230719 6.20104 7.81853 33.3799 30.7559 -0.32195 9.61858 78.1553
3230731 6.20104 7.81853 33.3799 30.7559 -0.32195 9.61858 78.1553
3230741 6.31554 8.03034 33.1042 30.5318 -0.274944 9.48107 77.9819
3230751 6.45648 8.21452 32.8581 30.3564 -0.238697 9.34902 77.8856
3230761 6.45648 8.21452 32.8581 30.3564 -0.238697 9.34902 77.8856
3230771 6.72953 8.6013 32.553 30.0544 -0.201046 9.09885 77.9383
3230781 6.99378 8.81311 32.2085 29.5186 -0.280683 8.88389 77.534
3230791 6.99378 8.81311 32.2085 29.5186 -0.280683 8.88389 77.534
3230801 7.35492 9.37486 31.6375 28.8951 -0.233762 8.50404 77.2624
3230826 7.88342 10.0195 30.9977 28.2424 -0.200665 8.03777 77.143
3230831 8.63212 10.8759 30.2791 27.5799 -0.147133 7.43552 77.3671
3230844 8.63212 10.8759 30.2791 27.5799 -0.147133 7.43552 77.3671
3230851 9.28394 11.7048 29.5113 26.8785 -0.0684813 6.86258 77.3785
3230861 9.28394 11.7048 29.5113 26.8785 -0.0684813 6.86258 77.3785
3230871 9.9886 12.5704 28.6943 26.0504 -0.020054 6.2453 77.3037
3230881 10.6756 13.3256 27.9068 25.2516 -0.00170767 5.66822 77.1596
3230901 11.3715 14.1452 27.0898 24.2774 -0.012587 5.04341 76.8838
3230916 12.1731 15.0661 26.1251 23.3129 0.0263631 4.34266 76.6771
3230921 12.1731 15.0661 26.1251 23.3129 0.0263631 4.34266 76.6771
3230932 13.0891 16.0515 25.0127 22.2997 0.0815243 3.5653 76.453
3230942 13.0891 16.0515 25.0127 22.2997 0.0815243 3.5653 76.453
3230951 14.014 16.9816 23.9595 21.1989 0.0679463 2.78963 76.1539
3230961 15.0269 18.0601 22.8471 20.1564 0.11251 1.95489 76.0906
3230971 15.0269 18.0601 22.8471 20.1564 0.11251 1.95489 76.0906
3230986 15.8902 19.0423 21.9021 19.2017 0.148535 1.21745 76.0363
3230991 16.6741 20.0149 20.9572 18.3152 0.22999 0.510136 75.9613
3231001 16.6741 20.0149 20.9572 18.3152 0.22999 0.510136 75.9613
3231011 17.568 20.9874 20.1893 17.3799 0.200334 -0.194309 76.1247
3231022 17.568 20.9874 20.1893 17.3799 0.200334 -0.194309 76.1247
3231032 18.2755 21.8724 19.4511 16.486 0.207618 -0.83016 76.085
3231043 19.1325 22.7283 18.7226 15.7912 0.217447 -1.44294 76.3745
3231062 19.9097 23.4771 17.9647 15.0487 0.213158 -2.03667 76.4002
3231073 20.5076 24.1093 17.3445 14.3443 0.197056 -2.54136 76.3058
3231094 21.1254 24.6539 16.8232 13.8303 0.175172 -2.96843 76.4329
3231114 21.544 25.0429 16.3242 13.3639 0.176573 -3.32326 76.275
3231123 21.813 25.3638 16.0642 12.9927 0.157195 -3.56533 76.2338
3231136 21.813 25.3638 16.0642 12.9927 0.157195 -3.56533 76.2338
3231143 22.092 25.5778 15.7315 12.8024 0.182614 -3.76674 76.2037
3231156 22.2315 25.7529 15.6171 12.7072 0.200292 -3.86459 76.3087
3231163 22.2315 25.7529 15.6171 12.7072 0.200292 -3.86459 76.3087
3231177 22.2814 25.9182 15.6795 12.6025 0.18298 -3.90635 76.4815
3231183 22.2814 25.9182 15.6795 12.6025 0.18298 -3.90635 76.4815
3231193 22.2614 25.8307 15.7627 12.6976 0.164655 -3.84673 76.5524
3231203 22.2116 25.9474 15.7835 12.7072 0.215083 -3.849 76.6496
3231224 22.2016 26.0738 15.8563 12.7072 0.235254 -3.84805 76.8389
3231233 22.3013 26.1711 15.7835 12.6215 0.230166 -3.91546 76.8773
3231246 22.3013 26.1711 15.7835 12.6215 0.230166 -3.91546 76.8773
3231253 22.4607 26.3656 15.6067 12.4787 0.252509 -4.04506 76.9117
3231264 22.4607 26.3656 15.6067 12.4787 0.252509 -4.04506 76.9117
3231292 22.5404 26.5212 15.4716 12.2788 0.25647 -4.1617 76.812
3231294 22.68 26.599 15.326 12.0123 0.197524 -4.2955 76.6172
3231295 22.68 26.599 15.326 12.0123 0.197524 -4.2955 76.6172
3231306 22.9191 26.8616 15.1388 11.8029 0.197634 -4.46524 76.7224
3231315 23.0586 26.988 14.9621 11.4602 0.139776 -4.63409 76.4689
3231328 23.0586 26.988 14.9621 11.4602 0.139776 -4.63409 76.4689
3231335 23.1782 27.1436 14.8061 11.3175 0.155917 -4.74814 76.4454
3231345 23.1782 27.1436 14.8061 11.3175 0.155917 -4.74814 76.4454
3231356 23.3974 27.1728 14.619 11.0985 0.0835449 -4.88664 76.2877
3231365 23.5569 27.3478 14.5462 10.9462 0.0625134 -4.98951 76.3971
3231375 23.5569 27.3478 14.5462 10.9462 0.0625134 -4.98951 76.3971
3231385 23.7063 27.4256 14.4942 10.8035 0.00934899 -5.07021 76.4296
3231395 23.8259 27.4548 14.4526 10.6988 -0.0408664 -5.12795 76.4321
3231405 23.8259 27.4548 14.4526 10.6988 -0.0408664 -5.12795 76.4321
3231415 24.0252 27.5521 14.4526 10.6512 -0.0895157 -5.17863 76.681
3231441 24.0252 27.5521 14.4526 10.6512 -0.0895157 -5.17863 76.681
3231442 24.1448 27.5812 14.3486 10.575 -0.109962 -5.2451 76.6497
3231445 24.2644 27.6104 14.359 10.5845 -0.139429 -5.25875 76.8183
3231456 24.2644 27.6104 14.359 10.5845 -0.139429 -5.25875 76.8183
3231466 24.3142 27.5229 14.4526 10.5655 -0.220671 -5.23432 76.8552
3231477 24.1647 27.4062 14.6294 10.6131 -0.252168 -5.14138 76.8134
3231486 24.1647 27.4062 14.6294 10.6131 -0.252168 -5.14138 76.8134
3231498 24.2145 27.2895 14.7957 10.6797 -0.338092 -5.07185 76.9795
3231506 24.2145 27.2895 14.7957 10.6797 -0.338092 -5.07185 76.9795
3231519 24.1149 27.1922 14.9413 10.7273 -0.369154 -4.99609 76.9757
3231526 24.075 27.1144 15.0661 10.8035 -0.396839 -4.92868 77.059
3231540 24.075 27.1144 15.0661 10.8035 -0.396839 -4.92868 77.059
3231546 24.0451 27.0269 15.17 10.8511 -0.433636 -4.87416 77.0931
3231556 24.0451 27.0269 15.17 10.8511 -0.433636 -4.87416 77.0931
3231566 23.8658 26.7351 15.2844 10.8891 -0.496881 -4.77256 76.7744
3231577 23.7063 26.4725 15.4196 10.9748 -0.548024 -4.65917 76.5732
3231586 23.7063 26.4725 15.4196 10.9748 -0.548024 -4.65917 76.5732
3231596 23.3675 26.2294 15.7419 11.1557 -0.563559 -4.45118 76.4945
3231606 23.1483 25.9085 16.0122 11.4412 -0.591703 -4.23538 76.5102
3231616 23.1483 25.9085 16.0122 11.4412 -0.591703 -4.23538 76.5102
3231626 22.9291 25.6459 16.5113 11.7934 -0.650732 -3.95493 76.8797
3231636 22.9291 25.6459 16.5113 11.7934 -0.650732 -3.95493 76.8797
3231646 22.6202 25.3541 16.8752 12.1265 -0.654337 -3.69709 76.9761
3231658 22.371 25.0429 17.2461 12.4978 -0.672802 -3.43519 77.1578
3231667 22.371 25.0429 17.2461 12.4978 -0.672802 -3.43519 77.1578
3231677 22.0821 24.7511 17.7284 12.9166 -0.691412 -3.13408 77.4782
3231690 21.6536 24.4497 18.0926 13.3068 -0.641826 -2.84579 77.5027
3231697 21.6536 24.4497 18.0926 13.3068 -0.641826 -2.84579 77.5027
3231707 21.255 24.0995 18.4569 13.64 -0.636631 -2.56761 77.4514
3231718 20.7268 23.7203 18.89 13.9922 -0.615685 -2.24332 77.3292
3231727 20.7268 23.7203 18.89 13.9922 -0.615685 -2.24332 77.3292
3231744 20.2186 23.3312 19.3231 14.3348 -0.607347 -1.92182 77.2078
3231748 20.2186 23.3312 19.3231 14.3348 -0.607347 -1.92182 77.2078
3231758 19.5709 22.8936 19.8645 14.687 -0.602092 -1.54117 77.016
3231770 18.983 22.3392 20.3567 15.1915 -0.588313 -1.12671 76.8704
3231779 18.983 22.3392 20.3567 15.1915 -0.588313 -1.12671 76.8704
3231790 18.3453 21.7363 20.967 15.7055 -0.609249 -0.666228 76.754
3231799 17.7374 21.1236 21.6659 16.4099 -0.607601 -0.153092 76.9367
3231813 17.7374 21.1236 21.6659 16.4099 -0.607601 -0.153092 76.9367
3231819 17.1495 20.472 22.3648 17.1461 -0.614583 0.367448 77.1324
3231828 17.1495 20.472 22.3648 17.1461 -0.614583 0.367448 77.1324
3231851 16.5508 19.655 23.0342 17.9645 -0.636438 0.931195 77.2044
3231852 16.0135 18.9354 23.7134 18.8315 -0.632301 1.47032 77.4937
3231870 15.3528 18.0503 24.3729 19.6401 -0.657257 2.05574 77.4162
3231884 14.7363 17.0486 25.1309 20.6436 -0.701059 2.70558 77.5593
3231890 14.7363 17.0486 25.1309 20.6436 -0.701059 2.70558 77.5593
3231899 14.058 16.1067 25.7904 21.608 -0.687724 3.33283 77.5632
3231915 14.058 16.1067 25.7904 21.608 -0.687724 3.33283 77.5632
3231923 13.5207 15.2779 26.4105 22.514 -0.688122 3.88416 77.7232
3231932 13.001 14.5412 26.9224 23.2837 -0.67481 4.37255 77.7483
3231940 13.001 14.5412 26.9224 23.2837 -0.67481 4.37255 77.7483
3231953 12.5342 13.961 27.3654 23.9851 -0.627352 4.78934 77.8457
3231960 12.0762 13.4545 27.8379 24.5112 -0.62544 5.16535 77.8797
3231975 12.0762 13.4545 27.8379 24.5112 -0.62544 5.16535 77.8797
3231981 11.6358 13.0033 28.2907 25.0567 -0.598325 5.52181 77.9864
3231999 11.6358 13.0033 28.2907 25.0567 -0.598325 5.52181 77.9864
3232002 11.2746 12.5336 28.7238 25.5536 -0.611907 5.85304 78.0856
3232011 10.8606 12.0455 29.0782 26.0894 -0.577623 6.19827 78.0737
3232031 10.4819 11.6495 29.3735 26.5668 -0.524864 6.49574 78.0716
3232044 10.1472 11.2351 29.846 27.0052 -0.560139 6.80059 78.2334
3232051 10.1472 11.2351 29.846 27.0052 -0.560139 6.80059 78.2334
3232062 9.83005 10.9588 30.1708 27.3266 -0.547795 7.03352 78.2863
3232071 9.83005 10.9588 30.1708 27.3266 -0.547795 7.03352 78.2863
3232083 9.52176 10.5628 30.4563 27.6676 -0.558631 7.29575 78.2085
3232091 9.22228 10.3142 30.7811 28.0378 -0.52689 7.52005 78.3554
3232104 9.22228 10.3142 30.7811 28.0378 -0.52689 7.52005 78.3554
3232111 8.98446 10.0011 31.1158 28.4178 -0.535354 7.74614 78.5191
3232121 8.98446 10.0011 31.1158 28.4178 -0.535354 7.74614 78.5191
3232131 8.58808 9.59588 31.421 28.7587 -0.527802 8.03862 78.3637
3232141 8.32383 9.34724 31.7064 29.1095 -0.50122 8.2456 78.487
3232151 8.32383 9.34724 31.7064 29.1095 -0.50122 8.2456 78.487
3232161 8.05959 9.08938 31.9525 29.3822 -0.490701 8.4449 78.4837
3232171 7.78653 8.85915 32.1888 29.7135 -0.446439 8.64247 78.5479
3232181 7.78653 8.85915 32.1888 29.7135 -0.446439 8.64247 78.5479
3232192 7.49585 8.58288 32.4742 30.0837 -0.414419 8.86593 78.6366
3232202 7.49585 8.58288 32.4742 30.0837 -0.414419 8.86593 78.6366
3232213 7.20518 8.2974 32.7794 30.4636 -0.388452 9.09393 78.7456
3232222 6.89689 8.01192 33.0648 30.7851 -0.369713 9.32109 78.7588
3232236 6.89689 8.01192 33.0648 30.7851 -0.369713 9.32109 78.7588
3232242 6.62383 7.68039 33.242 31.1066 -0.342929 9.54404 78.6529
3232252 6.33316 7.45016 33.5373 31.3989 -0.324412 9.74718 78.7195
3232262 6.33316 7.45016 33.5373 31.3989 -0.324412 9.74718 78.7195
3232272 6.09534 7.21993 33.7441 31.7496 -0.275949 9.93131 78.8089
3232284 6.09534 7.21993 33.7441 31.7496 -0.275949 9.93131 78.8089
3232295 5.74301 6.81473 34 31.9542 -0.31018 10.2016 78.5119
3232305 5.58446 6.72264 34 32.3438 -0.164641 10.3057 78.6509
3232327 5.35544 6.48321 34 32.5679 -0.0970334 10.4703 78.4066
3232333 5.18808 6.32665 34 32.8504 -0.00350773 10.5919 78.3652
3232343 5.18808 6.32665 34 32.8504 -0.00350773 10.5919 78.3652
3232353 4.9943 6.21614 34 33.1037 0.103933 10.7056 78.3142
3232363 4.9943 6.21614 34 33.1037 0.103933 10.7056 78.3142
3232373 4.75648 6.05959 34 33.3278 0.201842 10.8476 78.1439
3232383 4.58031 5.83857 34 33.5226 0.250477 10.9897 77.9415
3232396 4.58031 5.83857 34 33.5226 0.250477 10.9897 77.9415
3232403 4.4658 5.78332 34 33.6006 0.294825 11.0504 77.8497
3232413 4.3601 5.60834 34 33.6785 0.298387 11.1486 77.647
3232424 4.3601 5.60834 34 33.6785 0.298387 11.1486 77.647
3232434 4.21917 5.5623 34 33.8441 0.382364 11.2198 77.6256
3232443 4.21917 5.5623 34 33.8441 0.382364 11.2198 77.6256
3232455 4.09585 5.43337 34 33.9415 0.412756 11.3099 77.4708
3232467 3.96373 5.26761 34 34 0.422066 11.4141 77.2313
3232475 3.96373 5.26761 34 34 0.422066 11.4141 77.2313
3232490 3.87565 5.22156 34 34 0.436434 11.4601 77.0972
3232494 3.77876 5.20314 34 34 0.462568 11.4997 76.9819
3232505 3.77876 5.20314 34 34 0.462568 11.4997 76.9819
3232516 3.76995 5.14789 34 34 0.447863 11.5218 76.9178
3232525 3.76995 5.14789 34 34 0.447863 11.5218 76.9178
3232535 3.7171 5.10184 34 34 0.450653 11.556 76.8189
3232545 3.75233 5.13868 34 34 0.450751 11.5311 76.891
3232558 3.75233 5.13868 34 34 0.450751 11.5311 76.891
3232573 3.73471 5.06501 34 34 0.43304 11.5626 76.7997
3232581 3.7171 5.10184 34 34 0.450653 11.556 76.8189
3232595 3.69948 5.17551 34 34 0.480008 11.5366 76.875
3232615 3.70829 5.12947 34 34 0.462398 11.5494 76.8378
3232628 3.76995 5.20314 34 34 0.465482 11.5028 76.9731
3232635 3.76995 5.20314 34 34 0.465482 11.5028 76.9731
3232650 3.88446 5.31365 34 34 0.462836 11.4255 77.1981
3232673 3.81399 5.38732 34 34 0.509495 11.4244 77.2013
3232676 3.81399 5.38732 34 34 0.509495 11.4244 77.2013
3232677 3.95492 5.5623 34 33.8928 0.484502 11.3116 77.4101
3232686 3.95492 5.5623 34 33.8928 0.484502 11.3116 77.4101
3232696 4.06062 5.67281 34 33.7857 0.450811 11.2332 77.5191
3232706 4.21036 5.77411 34 33.5908 0.372082 11.1388 77.5753
3232719 4.21036 5.77411 34 33.5908 0.372082 11.1388 77.5753
3232727 4.42176 5.93987 34 33.3278 0.272205 10.9988 77.6894
3232742 4.56269 6.12405 34 33.1427 0.226155 10.8807 77.8294
3232747 4.56269 6.12405 34 33.1427 0.226155 10.8807 77.8294
3232765 4.72124 6.41874 34 32.9284 0.200424 10.7191 78.0684
3232767 4.72124 6.41874 34 32.9284 0.200424 10.7191 78.0684
3232777 4.90622 6.61213 34 32.5777 0.0907749 10.5753 78.096
3232788 5.15285 6.96208 33.9803 32.0808 -0.028868 10.3509 78.176
3232797 5.15285 6.96208 33.9803 32.0808 -0.028868 10.3509 78.176
3232807 5.34663 7.30282 33.685 31.6034 -0.0402182 10.1309 77.9379
3232820 5.68135 7.81853 33.242 30.9605 -0.0464603 9.78785 77.7024
3232827 5.68135 7.81853 33.242 30.9605 -0.0464603 9.78785 77.7024
3232838 6.14819 8.40791 32.7006 30.3662 -0.0240684 9.3743 77.6229
3232847 6.14819 8.40791 32.7006 30.3662 -0.0240684 9.3743 77.6229
3232861 6.72953 9.13543 32.1002 29.5771 -0.0377849 8.86207 77.5422
3232876 7.39896 9.99187 31.2241 28.4957 -0.0439227 8.23407 77.1106
3232887 7.39896 9.99187 31.2241 28.4957 -0.0439227 8.23407 77.1106
3232888 8.23575 11.1246 30.4661 27.4825 -0.0306427 7.48716 77.309
3232898 9.16062 12.2941 29.4227 26.3037 0.00471473 6.66062 77.1812
3232918 9.99741 13.565 28.4482 25.0665 0.0602961 5.82902 77.0771
3232938 10.7813 14.6148 27.3457 23.9559 0.144622 5.06639 76.6977
3232954 11.8119 15.8212 26.2235 22.6699 0.148878 4.16723 76.5266
3232960 11.8119 15.8212 26.2235 22.6699 0.148878 4.16723 76.5266
3232970 13.0275 16.9724 24.8749 21.3742 0.145641 3.19663 76.249
3232980 14.3663 18.4005 23.5756 20.0298 0.159866 2.12877 76.3721
3232990 14.3663 18.4005 23.5756 20.0298 0.159866 2.12877 76.3721
3233001 15.6523 19.6745 22.3057 18.6269 0.11256 1.10265 76.2595
3233009 15.6523 19.6745 22.3057 18.6269 0.11256 1.10265 76.2595
3233025 16.7181 20.7929 21.1442 17.341 0.0893354 0.19227 75.9962
3233031 17.7972 21.8238 20.1401 16.2956 0.0598609 -0.628194 76.0567
3233040 17.7972 21.8238 20.1401 16.2956 0.0598609 -0.628194 76.0567
3233050 18.7638 22.7574 19.3329 15.2962 -0.0141472 -1.35759 76.1503
3233061 19.6407 23.5257 18.4765 14.5347 -0.0186309 -1.99963 76.1777
3233071 19.6407 23.5257 18.4765 14.5347 -0.0186309 -1.99963 76.1777
3233081 20.3581 24.1871 17.7875 13.8018 -0.051482 -2.55258 76.1345
3233094 20.3581 24.1871 17.7875 13.8018 -0.051482 -2.55258 76.1345
3233101 21.0856 24.7803 17.2067 13.1545 -0.11723 -3.05101 76.2271
3233117 21.7233 25.2958 16.5737 12.5549 -0.146553 -3.52418 76.1477
3233121 21.7233 25.2958 16.5737 12.5549 -0.146553 -3.52418 76.1477
3233131 22.3312 25.7529 16.0226 12.1741 -0.139885 -3.91067 76.2808
3233142 22.949 26.1905 15.5339 11.6411 -0.213374 -4.31722 76.3145
3233151 22.949 26.1905 15.5339 11.6411 -0.213374 -4.31722 76.3145
3233165 23.527 26.5114 15.0349 11.2413 -0.265044 -4.67058 76.3146
3233172 23.527 26.5114 15.0349 11.2413 -0.265044 -4.67058 76.3146
3233182 24.0053 26.8227 14.6917 10.8225 -0.344455 -4.97373 76.3422
3233192 24.4836 27.1825 14.3798 10.537 -0.373438 -5.23929 76.5829
3233202 24.4836 27.1825 14.3798 10.537 -0.373438 -5.23929 76.5829
3233212 24.9021 27.4451 14.0263 10.1562 -0.433528 -5.52034 76.5297
3233222 25.2011 27.659 13.7248 9.90873 -0.443846 -5.73118 76.4936
3233234 25.2011 27.659 13.7248 9.90873 -0.443846 -5.73118 76.4936
3233243 25.3904 27.8146 13.4128 9.78499 -0.39383 -5.89124 76.4029
3233256 25.3904 27.8146 13.4128 9.78499 -0.39383 -5.89124 76.4029
3233262 25.51 27.9897 13.2673 9.59462 -0.390549 -6.01829 76.3616
3233277 25.6096 28.0481 13.0801 9.53751 -0.361903 -6.10421 76.2753
3233282 25.6096 28.0481 13.0801 9.53751 -0.361903 -6.10421 76.2753
3233292 25.6295 28.1648 12.9346 9.4804 -0.301449 -6.17629 76.2093
3233302 25.7192 28.1648 12.9242 9.42329 -0.346096 -6.20542 76.2314
3233312 25.7192 28.1648 12.9242 9.42329 -0.346096 -6.20542 76.2314
3233322 25.7691 28.1745 12.841 9.36618 -0.35107 -6.25136 76.1507
3233332 25.7691 28.1745 12.841 9.36618 -0.35107 -6.25136 76.1507
3233343 25.7989 28.0675 12.8722 9.38522 -0.400132 -6.22848 76.1238
3233353 25.789 28.1064 12.9761 9.46137 -0.392149 -6.18171 76.3329
3233364 25.789 28.1064 12.9761 9.46137 -0.392149 -6.18171 76.3329
3233373 25.7591 28.1842 13.1321 9.59462 -0.362712 -6.10732 76.67
3233385 25.6794 28.1064 13.2465 9.64222 -0.383838 -6.04446 76.6745
3233393 25.6794 28.1064 13.2465 9.64222 -0.383838 -6.04446 76.6745
3233407 25.6694 28.1453 13.392 9.68029 -0.401841 -5.99757 76.8871
3233413 25.6694 28.1453 13.392 9.68029 -0.401841 -5.99757 76.8871
3233423 25.4801 27.9508 13.4544 9.82307 -0.37826 -5.89636 76.7084
3233433 25.3804 27.8244 13.5688 9.90873 -0.396481 -5.81501 76.6823
3233445 25.3804 27.8244 13.5688 9.90873 -0.396481 -5.81501 76.6823
3233453 25.0715 27.6785 13.7144 10.0134 -0.357603 -5.69228 76.4778
3233464 24.8423 27.4256 14.0575 10.1753 -0.424486 -5.49705 76.5007
3233487 24.8423 27.4256 14.0575 10.1753 -0.424486 -5.49705 76.5007
3233490 24.643 27.2603 14.2966 10.4132 -0.413163 -5.32418 76.6132
3233496 24.643 27.2603 14.2966 10.4132 -0.413163 -5.32418 76.6132
3233503 24.3839 27.0755 14.5358 10.6797 -0.379679 -5.13413 76.675
3233517 24.1747 26.8421 14.8269 10.8511 -0.426504 -4.95578 76.6948
3233523 24.1747 26.8421 14.8269 10.8511 -0.426504 -4.95578 76.6948
3233533 23.9853 26.7059 15.1076 11.1652 -0.396895 -4.75906 76.9641
3233543 23.7163 26.4045 15.378 11.4031 -0.418289 -4.55249 76.9019
3233565 23.2479 26.1905 15.7627 11.7553 -0.345914 -4.27263 76.9565
3233575 23.2479 26.1905 15.7627 11.7553 -0.345914 -4.27263 76.9565
3233585 22.8693 25.8598 16.085 12.0885 -0.327033 -4.00942 76.9026
3233595 22.4009 25.5195 16.5633 12.4597 -0.320072 -3.68402 76.9434
3233615 21.8429 25.0915 17.1083 12.9356 -0.300097 -3.29129 76.9783
3233630 21.2251 24.6831 17.7284 13.4306 -0.272451 -2.87071 77.0672
3233635 21.2251 24.6831 17.7284 13.4306 -0.272451 -2.87071 77.0672
3233645 20.5176 24.2843 18.447 14.0683 -0.197875 -2.38367 77.3172
3233657 20.5176 24.2843 18.447 14.0683 -0.197875 -2.38367 77.3172
3233665 19.8798 23.7494 19.1361 14.7727 -0.159216 -1.88047 77.538
3233676 19.2222 23.2243 19.7464 15.2962 -0.144565 -1.4332 77.489
3233690 19.2222 23.2243 19.7464 15.2962 -0.144565 -1.4332 77.489
3233699 18.5645 22.6018 20.4158 15.972 -0.131004 -0.924236 77.5541
3233705 18.5645 22.6018 20.4158 15.972 -0.131004 -0.924236 77.5541
3233716 17.8271 22.028 20.967 16.5241 -0.0782087 -0.458466 77.3462
3233726 17.1395 21.4834 21.5773 17.2143 -0.00615716 0.032689 77.4145
3233736 17.1395 21.4834 21.5773 17.2143 -0.00615716 0.032689 77.4145
3233746 16.5155 20.9193 22.1285 17.7599 0.0113577 0.475967 77.3233
3233756 15.9782 20.3066 22.6699 18.4321 0.029248 0.933716 77.3869
3233769 15.9782 20.3066 22.6699 18.4321 0.029248 0.933716 77.3869
3233776 15.3969 19.8009 23.2704 18.9874 0.0390559 1.36723 77.4556
3233786 15.3969 19.8009 23.2704 18.9874 0.0390559 1.36723 77.4556
3233796 14.8244 19.2563 23.7134 19.6888 0.131446 1.80457 77.4828
3233806 14.1725 18.6339 24.3729 20.4974 0.188553 2.32964 77.6767
3233816 14.1725 18.6339 24.3729 20.4974 0.188553 2.32964 77.6767
3233826 13.5472 17.8461 24.9832 21.2573 0.184539 2.86871 77.6338
3233836 12.957 17.0584 25.6427 22.0367 0.159374 3.41028 77.6948
3233853 12.957 17.0584 25.6427 22.0367 0.159374 3.41028 77.6948
3233860 12.3756 16.3462 26.2432 22.8453 0.183967 3.92622 77.8103
3233867 12.3756 16.3462 26.2432 22.8453 0.183967 3.92622 77.8103
3233885 11.8031 15.5818 26.7846 23.4493 0.142804 4.41561 77.6188
3233887 11.3627 14.9924 27.1488 24.141 0.200236 4.81706 77.6449
3233897 11.3627 14.9924 27.1488 24.141 0.200236 4.81706 77.6449
3233907 10.9927 14.5043 27.5819 24.6378 0.182545 5.1577 77.7168
3233917 10.6756 14.1728 27.8772 25.0957 0.229892 5.42097 77.8214
3233927 10.6756 14.1728 27.8772 25.0957 0.229892 5.42097 77.8214
3233937 10.3674 13.786 28.1135 25.5244 0.266588 5.68531 77.7912
3233947 10.3674 13.786 28.1135 25.5244 0.266588 5.68531 77.7912
3233957 10.0503 13.4361 28.399 25.8848 0.28021 5.94009 77.7701
3233968 9.7772 13.0861 28.7533 26.2745 0.26643 6.19412 77.8912
3233977 9.7772 13.0861 28.7533 26.2745 0.26643 6.19412 77.8912
3233988 9.58342 12.8099 28.9207 26.5473 0.273901 6.37185 77.8612
3233997 9.3544 12.5704 29.1963 26.7811 0.256994 6.55679 77.9022
3234011 9.3544 12.5704 29.1963 26.7811 0.256994 6.55679 77.9022
3234017 9.23109 12.3126 29.3341 27.1903 0.300261 6.7212 78.068
3234038 9.00207 12.1192 29.4227 27.3948 0.349393 6.87006 77.9388
3234048 8.84352 11.8982 29.6786 27.7553 0.361782 7.04035 78.1756
3234059 8.84352 11.8982 29.6786 27.7553 0.361782 7.04035 78.1756
3234071 8.65855 11.6495 29.8853 28.0573 0.371537 7.21423 78.2507
3234079 8.40311 11.4193 30.0724 28.4957 0.459081 7.41398 78.3905
3234090 8.40311 11.4193 30.0724 28.4957 0.459081 7.41398 78.3905
3234102 8.20052 11.1706 30.2889 28.8074 0.474283 7.59395 78.4675
3234108 8.20052 11.1706 30.2889 28.8074 0.474283 7.59395 78.4675
3234118 7.8658 10.747 30.5153 29.1387 0.480586 7.86563 78.2668
3234129 7.68964 10.5536 30.7516 29.392 0.479794 8.01799 78.3868
3234138 7.68964 10.5536 30.7516 29.392 0.479794 8.01799 78.3868
3234153 7.42539 10.305 31.0469 29.6258 0.465059 8.21568 78.4031
3234158 7.33731 10.0195 31.2831 29.9375 0.425243 8.37337 78.5775
3234168 7.33731 10.0195 31.2831 29.9375 0.425243 8.37337 78.5775
3234180 7.16995 9.88136 31.3422 30.1713 0.490215 8.48895 78.5649
3234192 7.16995 9.88136 31.3422 30.1713 0.490215 8.48895 78.5649
3234201 7.00259 9.68797 31.48 30.3564 0.497222 8.62364 78.527
3234210 6.93212 9.56826 31.5588 30.4734 0.493655 8.69673 78.5325
3234224 6.93212 9.56826 31.5588 30.4734 0.493655 8.69673 78.5325
3234230 6.82643 9.43012 31.6966 30.6195 0.485727 8.79305 78.5726
3234240 6.71192 9.33803 31.7556 30.6487 0.484097 8.86269 78.4543
3234249 6.71192 9.33803 31.7556 30.6487 0.484097 8.86269 78.4543
3234260 6.63264 9.35645 31.7852 30.6195 0.496888 8.88124 78.3937
3234270 6.63264 9.35645 31.7852 30.6195 0.496888 8.88124 78.3937
3234281 6.60622 9.22752 31.8541 30.6974 0.467131 8.94003 78.3852
3234290 6.67668 9.21831 31.923 30.7169 0.425142 8.92818 78.5349
3234300 6.67668 9.21831 31.923 30.7169 0.425142 8.92818 78.5349
3234312 6.60622 9.18147 31.9427 30.7461 0.439212 8.96468 78.4765
3234320 6.60622 9.18147 31.9427 30.7559 0.442261 8.96543 78.4862
3234333 6.60622 9.18147 31.9427 30.7559 0.442261 8.96543 78.4862
3234340 6.62383 9.18147 32.0116 30.7851 0.423384 8.96759 78.602
3234350 6.62383 9.18147 32.0116 30.7851 0.423384 8.96759 78.602
3234363 6.57979 9.08017 32.0214 30.8436 0.421047 9.0172 78.5249
3234370 6.53575 8.98808 32.1297 30.8046 0.359178 9.06416 78.4581
3234388 6.53575 8.98808 32.1297 30.8046 0.359178 9.06416 78.4581
3234392 6.59741 8.99729 32.0903 30.8923 0.38237 9.04611 78.5773
3234401 6.49171 8.96966 32.1199 30.9507 0.416648 9.0936 78.532
3234416 6.49171 8.96966 32.1199 30.9507 0.416648 9.0936 78.532
3234421 6.45648 8.95125 32.0608 31.0189 0.462776 9.11076 78.4874
3234431 6.45648 8.95125 32.0608 31.0189 0.462776 9.11076 78.4874
3234442 6.43886 8.86836 32.1395 30.9994 0.410914 9.1461 78.4462
3234451 6.3772 8.8039 32.2183 31.0481 0.400439 9.19442 78.4475
3234463 6.3772 8.8039 32.2183 31.0481 0.400439 9.19442 78.4475
3234476 6.38601 8.8039 32.238 31.0481 0.391218 9.19317 78.476
3234490 6.38601 8.8039 32.238 31.0481 0.391218 9.19317 78.476
3234493 6.38601 8.73944 32.2774 31.0676 0.364369 9.2174 78.4704
3234507 6.33316 8.72102 32.3266 31.0384 0.350577 9.24088 78.4192
3234519 6.33316 8.72102 32.3266 31.0384 0.350577 9.24088 78.4192
3234521 6.35078 8.7026 32.366 31.0871 0.341684 9.24759 78.5064
3234531 6.41244 8.71181 32.4053 31.0384 0.296703 9.22504 78.568
3234541 6.41244 8.71181 32.4053 31.0384 0.296703 9.22504 78.568
3234551 6.42124 8.69339 32.4447 31.0871 0.290716 9.23446 78.6464
3234564 6.42124 8.69339 32.4447 31.0871 0.290716 9.23446 78.6464
3234571 6.35078 8.66576 32.4545 30.9897 0.270876 9.25833 78.4608
3234581 6.42124 8.62893 32.3856 30.941 0.243381 9.2393 78.3768
3234591 6.42124 8.62893 32.3856 30.941 0.243381 9.2393 78.3768
3234601 6.43005 8.7026 32.366 30.9215 0.263992 9.21093 78.4201
3234611 6.45648 8.69339 32.3069 30.7754 0.225413 9.19042 78.2321
3234621 6.45648 8.69339 32.3069 30.7754 0.225413 9.19042 78.2321
3234631 6.55337 8.73944 32.2774 30.7461 0.209036 9.1419 78.3163
3234641 6.55337 8.73944 32.2774 30.7461 0.209036 9.1419 78.3163
3234651 6.59741 8.84995 32.1395 30.5026 0.197071 9.06552 78.0895
3234661 6.76477 8.97887 32.0411 30.3662 0.172481 8.95645 78.1509
3234682 6.87047 9.16306 31.8935 30.1421 0.173324 8.83872 78.0691
3234693 6.93212 9.29198 31.795 29.8693 0.139359 8.75102 77.8885
3234712 6.93212 9.29198 31.795 29.8693 0.139359 8.75102 77.8885
3234713 7.16114 9.45775 31.5588 29.5966 0.107488 8.58957 77.7742
3234722 7.16114 9.45775 31.5588 29.5966 0.107488 8.58957 77.7742
3234732 7.40777 9.70639 31.3521 29.2069 0.0493884 8.38993 77.6731
3234742 7.68964 10.1761 31.0469 28.6711 0.0356317 8.09171 77.5837
3234752 7.68964 10.1761 31.0469 28.6711 0.0356317 8.09171 77.5837
3234762 8.15648 10.7839 30.5744 28.0281 0.0261337 7.67231 77.5428
3234774 8.67617 11.364 30.0428 27.463 0.0348359 7.24711 77.5461
3234794 9.2487 12.1284 29.5408 26.8688 0.0667304 6.75549 77.7867
3234806 9.2487 12.1284 29.5408 26.8688 0.0667304 6.75549 77.7867
3234816 9.70674 12.7086 28.901 26.1673 0.0865251 6.32128 77.4836
3234823 10.2881 13.2703 28.2513 25.3977 0.0416517 5.84606 77.2074
3234833 10.2881 13.2703 28.2513 25.3977 0.0416517 5.84606 77.2074
3234843 10.8166 13.915 27.4047 24.5501 0.0794679 5.32494 76.6864
3234859 11.5917 14.6977 26.4696 23.5077 0.0472516 4.65889 76.2668
3234863 11.5917 14.6977 26.4696 23.5077 0.0472516 4.65889 76.2668
3234873 12.5078 15.6371 25.5049 22.4264 0.0166684 3.90131 76.0761
3234883 12.5078 15.6371 25.5049 22.4264 0.0166684 3.90131 76.0761
3234893 13.4326 16.6224 24.3631 21.306 0.0438243 3.09294 75.7241
3234908 14.5601 17.71 23.2507 20.1857 0.0280023 2.21243 75.7065
3234913 14.5601 17.71 23.2507 20.1857 0.0280023 2.21243 75.7065
3234926 15.6435 18.9159 22.1876 18.9971 0.0270337 1.31205 75.7442
3234933 15.6435 18.9159 22.1876 18.9971 0.0270337 1.31205 75.7442
3234943 16.6212 20.0538 21.2032 17.906 0.0446349 0.481811 75.7843
3234953 17.6975 21.0944 20.2681 16.7716 -0.0328645 -0.346615 75.8316
3234973 18.7339 22.1447 19.3231 15.8102 -0.0335664 -1.13377 76.0119
3234983 19.8001 23.2048 18.3683 14.7632 -0.065811 -1.94523 76.1364
3235003 20.7667 24.1871 17.4134 13.8494 -0.0471324 -2.69448 76.2166
3235025 21.7034 25.004 16.6673 12.9832 -0.12555 -3.35072 76.3579
3235035 22.4607 25.5973 15.9083 12.3264 -0.145918 -3.89748 76.2927
3235045 22.4607 25.5973 15.9083 12.3264 -0.145918 -3.89748 76.2927
3235056 23.0885 26.1905 15.326 11.7553 -0.153445 -4.36045 76.3603
3235065 23.6764 26.6768 14.6709 11.3175 -0.115643 -4.78732 76.3416
3235085 24.1747 27.1339 14.255 10.8225 -0.15492 -5.151 76.3861
3235133 24.1747 27.1339 14.255 10.8225 -0.15492 -5.151 76.3861
3235151 24.5434 27.3867 13.8183 10.556 -0.137281 -5.41694 76.3044
3235168 25.4601 28.2426 12.9034 9.70885 -0.135 -6.11096 76.3149
3235181 25.4601 28.2426 12.9034 9.70885 -0.135 -6.11096 76.3149
3235183 25.6694 28.4371 12.6018 9.51848 -0.103539 -6.29428 76.2268
3235184 25.779 28.5149 12.4563 9.41377 -0.100651 -6.38567 76.1639
3235202 26.058 28.6121 12.3419 9.28051 -0.16623 -6.49757 76.2926
3235207 26.058 28.6121 12.3419 9.28051 -0.16623 -6.49757 76.2926
3235217 26.1178 28.6219 12.1963 9.19485 -0.163351 -6.57063 76.1309
3235228 26.1975 28.6802 12.1443 9.15677 -0.165695 -6.61141 76.1789
3235237 26.1975 28.6802 12.1443 9.15677 -0.165695 -6.61141 76.1789
3235247 26.2474 28.5927 12.1131 9.06159 -0.232275 -6.64318 76.0148
3235257 26.2274 28.6219 12.082 9.02352 -0.218557 -6.66393 75.9548
3235271 26.2274 28.6219 12.082 9.02352 -0.218557 -6.66393 75.9548
3235277 26.2773 28.6316 12.2379 9.1187 -0.250733 -6.5991 76.2655
3235293 26.2773 28.6316 12.2379 9.1187 -0.250733 -6.5991 76.2655
3235297 26.2773 28.5732 12.2171 9.18533 -0.241247 -6.57969 76.2529
3235307 26.2573 28.6316 12.3731 9.19485 -0.262886 -6.53721 76.4568
3235319 26.2573 28.6316 12.3731 9.19485 -0.262886 -6.53721 76.4568
3235327 26.2274 28.6316 12.5083 9.32811 -0.252952 -6.45853 76.6954
3235340 26.1876 28.6219 12.633 9.42329 -0.252213 -6.39162 76.8657
3235349 26.1876 28.6219 12.633 9.42329 -0.252213 -6.39162 76.8657
3235359 26.1676 28.4857 12.7162 9.45185 -0.307958 -6.34302 76.8214
3235368 26.1676 28.4857 12.7162 9.45185 -0.307958 -6.34302 76.8214
3235380 26.1278 28.3982 12.7266 9.4804 -0.317925 -6.31781 76.733
3235388 26.0082 28.3204 12.8202 9.57559 -0.303829 -6.24303 76.7243
3235404 26.0082 28.3204 12.8202 9.57559 -0.303829 -6.24303 76.7243
3235409 25.9385 28.2523 12.8618 9.62318 -0.301515 -6.20257 76.6757
3235430 25.9385 28.2523 12.8618 9.62318 -0.301515 -6.20257 76.6757
3235432 25.7491 28.155 12.893 9.71836 -0.251156 -6.13461 76.5155
3235438 25.6594 28.0675 13.0489 9.78499 -0.279473 -6.05264 76.5609
3235455 25.6594 28.0675 13.0489 9.78499 -0.279473 -6.05264 76.5609
3235460 25.4701 27.873 13.2049 9.89922 -0.295232 -5.93331 76.4472
3235468 25.2509 27.8827 13.3193 10.042 -0.210936 -5.83811 76.4949
3235482 25.2509 27.8827 13.3193 10.042 -0.210936 -5.83811 76.4949
3235488 25.0914 27.7466 13.4856 10.2419 -0.192195 -5.70306 76.5655
3235498 25.0914 27.7466 13.4856 10.2419 -0.192195 -5.70306 76.5655
3235509 24.922 27.6299 13.7664 10.3371 -0.235298 -5.56683 76.6553
3235518 24.7227 27.4548 13.8807 10.6226 -0.171508 -5.41351 76.6809
3235530 24.7227 27.4548 13.8807 10.6226 -0.171508 -5.41351 76.6809
3235541 24.5832 27.3576 14.1511 10.7464 -0.205104 -5.27928 76.8382
3235552 24.364 27.2992 14.4214 10.9938 -0.159703 -5.10803 77.0785
3235560 24.364 27.2992 14.4214 10.9938 -0.159703 -5.10803 77.0785
3235578 24.2345 27.1436 14.515 11.1557 -0.146078 -5.00477 77.0487
3235580 24.2345 27.1436 14.6917 11.1557 -0.202964 -4.95899 77.2255
3235590 23.9654 26.9005 14.6917 11.3175 -0.14284 -4.85007 76.8751
3235601 23.7362 26.6573 14.9101 11.4888 -0.162835 -4.68692 76.7924
3235610 23.7362 26.6573 14.9101 11.4888 -0.162835 -4.68692 76.7924
3235625 23.4472 26.4434 15.0245 11.6506 -0.123335 -4.54816 76.5657
3235631 23.228 26.2586 15.274 11.9457 -0.0970423 -4.35432 76.7063
3235649 23.228 26.2586 15.274 11.9457 -0.0970423 -4.35432 76.7063
3235651 22.959 26.0543 15.5547 12.2503 -0.0680447 -4.14126 76.8183
3235661 22.959 26.0543 15.5547 12.2503 -0.0680447 -4.14126 76.8183
3235675 22.66 25.8015 15.8563 12.4882 -0.0737444 -3.92879 76.806
3235681 22.2315 25.5097 16.1786 12.8595 -0.0133321 -3.65395 76.7793
3235701 21.8529 25.1304 16.6257 13.2592 -0.0289068 -3.33656 76.8682
3235711 21.4343 24.8095 17.0886 13.7256 0.00395775 -3.0035 77.0581
3235731 20.9959 24.5177 17.5414 14.2016 0.0588983 -2.67369 77.2566
3235741 20.9959 24.5177 17.5414 14.2016 0.0588983 -2.67369 77.2566
3235751 20.4478 24.0995 17.9942 14.6109 0.0869602 -2.32182 77.1524
3235763 19.8499 23.7105 18.4765 15.0582 0.143418 -1.95064 77.0952
3235776 19.8499 23.7105 18.4765 15.0582 0.143418 -1.95064 77.0952
3235782 19.3417 23.2632 18.9687 15.6008 0.179294 -1.5618 77.1744
3235793 18.6542 22.7769 19.5298 16.1053 0.226483 -1.12812 77.0661
3235802 18.6542 22.7769 19.5298 16.1053 0.226483 -1.12812 77.0661
3235812 18.0363 22.2128 20.15 16.6954 0.234097 -0.662261 77.0945
3235827 18.0363 22.2128 20.15 16.6954 0.234097 -0.662261 77.0945
3235832 17.3787 21.6098 20.6815 17.3117 0.279739 -0.193921 76.9818
3235842 16.7181 21.0069 21.4395 18.0814 0.301188 0.34873 77.2459
3235863 16.0663 20.3942 22.04 18.8802 0.377393 0.864496 77.3807
3235873 15.3617 19.7523 22.8668 19.6401 0.374874 1.42867 77.6209
3235883 15.3617 19.7523 22.8668 19.6401 0.374874 1.42867 77.6209
3235896 14.7363 19.0034 23.6248 20.5169 0.372136 2.00343 77.8814
3235904 14.7363 19.0034 23.6248 20.5169 0.372136 2.00343 77.8814
3235913 14.0052 18.1184 24.4713 21.4521 0.350448 2.65222 78.0471
3235923 13.2829 17.1264 25.2982 22.4361 0.313979 3.3256 78.1436
3235935 13.2829 17.1264 25.2982 22.4361 0.313979 3.3256 78.1436
3235944 12.5782 16.2633 26.0168 23.3908 0.338367 3.94243 78.2491
3235953 11.944 15.4437 26.6566 24.2287 0.342277 4.50301 78.273
3235967 11.944 15.4437 26.6566 24.2287 0.342277 4.50301 78.273
3235973 11.3275 14.6977 27.454 24.9496 0.276005 5.04503 78.4287
3235993 10.614 13.8781 28.0052 25.6607 0.294164 5.59901 78.1581
3236003 10.0943 13.169 28.5171 26.333 0.285029 6.06556 78.1133
3236013 10.0943 13.169 28.5171 26.333 0.285029 6.06556 78.1133
3236023 9.60104 12.5612 28.9699 26.9272 0.293851 6.48254 78.0594
3236037 9.06373 12.0823 29.3636 27.463 0.358465 6.86406 77.9727
3236043 9.06373 12.0823 29.3636 27.463 0.358465 6.86406 77.9727
3236053 8.76425 11.6587 29.8066 27.9501 0.331932 7.16307 78.1797
3236065 8.76425 11.6587 29.8066 27.9501 0.331932 7.16307 78.1797
3236073 8.42953 11.2719 30.0724 28.2814 0.336748 7.42787 78.0552
3236085 8.1829 11.0233 30.4563 28.6516 0.330618 7.64263 78.3141
3236093 8.1829 11.0233 30.4563 28.6516 0.330618 7.64263 78.3141
3236109 8.00674 10.7931 30.6728 29.0413 0.367692 7.81664 78.5139
3236113 7.69845 10.526 31.0075 29.4407 0.400621 8.05053 78.6727
3236123 7.69845 10.526 31.0075 29.4407 0.400621 8.05053 78.6727
3236134 7.47824 10.2037 31.293 29.7135 0.364068 8.25876 78.6884
3236145 7.47824 10.2037 31.293 29.7135 0.364068 8.25876 78.6884
3236159 7.2228 10.0103 31.3521 29.8986 0.42493 8.41274 78.4837
3236167 7.10829 9.78006 31.421 30.0447 0.413352 8.53382 78.354
3236175 7.10829 9.78006 31.421 30.0447 0.413352 8.53382 78.354
3236186 6.95855 9.66035 31.4603 30.1908 0.457484 8.63017 78.2701
3236195 6.73834 9.46696 31.6867 30.4246 0.468135 8.7924 78.3167
3236215 6.57979 9.28277 31.8344 30.6195 0.475019 8.92367 78.3164
3236228 6.57979 9.28277 31.8344 30.6195 0.475019 8.92367 78.3164
3236235 6.46528 9.12622 31.982 30.863 0.491455 9.03664 78.4366
3236245 6.2715 8.93283 32.1986 31.1261 0.505796 9.19157 78.529
3236255 6.2715 8.93283 32.1986 31.1261 0.505796 9.19157 78.529
3236266 6.0513 8.75785 32.4152 31.4183 0.543514 9.35072 78.6427
3236276 5.80466 8.51842 32.5825 31.6229 0.558448 9.5282 78.5285
3236285 5.80466 8.51842 32.5825 31.6229 0.558448 9.5282 78.5285
3236297 5.70777 8.38949 32.7991 31.9542 0.582367 9.63646 78.8505
3236305 5.70777 8.38949 32.7991 31.9542 0.582367 9.63646 78.8505
3236321 5.58446 8.23294 32.8286 32.0905 0.606588 9.73533 78.7365
3236325 5.55803 8.10401 32.8778 32.2172 0.598469 9.79588 78.7571
3236335 5.55803 8.10401 32.8778 32.2172 0.598469 9.79588 78.7571
3236346 5.49637 8.05796 32.8483 32.2367 0.619912 9.82917 78.6393
3236356 5.49637 8.05796 32.8975 32.2367 0.603887 9.83241 78.6885
3236371 5.40829 8.04875 32.8975 32.2172 0.623679 9.86188 78.5717
3236379 5.34663 7.98429 33.0058 32.2951 0.612667 9.91392 78.6318
3236387 5.34663 7.98429 33.0058 32.2951 0.612667 9.91392 78.6318
3236396 5.29378 7.96587 32.9664 32.3146 0.643072 9.93524 78.5407
3236413 5.3114 8.02113 32.9074 32.2464 0.652593 9.90388 78.4863
3236420 5.3114 8.02113 32.9074 32.2464 0.652593 9.90388 78.4863
3236426 5.40829 8.01192 32.9467 32.3146 0.626421 9.88309 78.6815
3236436 5.40829 8.01192 32.9467 32.3146 0.626421 9.88309 78.6815
3236447 5.32021 8.00271 32.868 32.3438 0.687072 9.91069 78.5347
3236457 5.37306 8.02113 32.9172 32.2756 0.638309 9.88687 78.587
3236470 5.37306 8.02113 32.9172 32.2756 0.638309 9.88687 78.587
3236477 5.37306 7.98429 32.927 32.2464 0.614604 9.89729 78.5308
3236494 5.34663 8.02113 32.8975 32.2075 0.632206 9.88953 78.4727
3236497 5.34663 8.02113 32.8975 32.2075 0.632206 9.88953 78.4727
3236507 5.39067 8.08559 32.8384 32.1393 0.635955 9.84682 78.454
3236518 5.43471 8.17768 32.868 32.1685 0.649554 9.80766 78.6489
3236527 5.43471 8.17768 32.868 32.1685 0.649554 9.80766 78.6489
3236543 5.55803 8.15005 32.8384 32.1977 0.619501 9.77749 78.7442
3236547 5.55803 8.15005 32.8384 32.1977 0.619501 9.77749 78.7442
3236557 5.50518 8.16847 32.8483 32.0613 0.59692 9.77994 78.5833
3236567 5.5228 8.20531 32.7892 32.0711 0.624883 9.75949 78.5884
3236577 5.5228 8.20531 32.7892 32.0711 0.624883 9.75949 78.5884
3236588 5.58446 8.24215 32.7991 31.9736 0.582781 9.72262 78.5993
3236600 5.61969 8.32503 32.6514 31.9054 0.623986 9.67092 78.5016
3236610 5.61969 8.32503 32.6514 31.9054 0.623986 9.67092 78.5016
3236618 5.7342 8.38028 32.5924 31.8275 0.598854 9.60829 78.5343
3236634 5.7342 8.38028 32.5924 31.8275 0.598854 9.60829 78.5343
3236638 5.74301 8.42633 32.6022 31.7301 0.576806 9.58508 78.5016
3236650 5.76943 8.52763 32.4841 31.6132 0.601861 9.52879 78.3943
3236658 5.76943 8.52763 32.4841 31.6132 0.601861 9.52879 78.3943
3236670 5.96321 8.59209 32.3167 31.4183 0.552586 9.42257 78.2904
3236680 5.96321 8.59209 32.3167 31.4183 0.552586 9.42257 78.2904
3236690 6.04249 8.73944 32.1691 31.165 0.541794 9.32309 78.116
3236701 6.20104 8.88678 32.0608 31.0287 0.5288 9.21015 78.1773
3236708 6.20104 8.88678 32.0608 31.0287 0.5288 9.21015 78.1773
3236718 6.28031 9.03413 31.8541 30.7656 0.534216 9.10485 77.9341
3236728 6.47409 9.26436 31.7753 30.5221 0.4924 8.94953 78.0358
3236740 6.47409 9.26436 31.7753 30.5221 0.4924 8.94953 78.0358
3236772 6.60622 9.54984 31.5194 30.3175 0.558287 8.78557 77.9929
3236773 6.83523 9.54984 31.3127 30.3175 0.550985 8.69928 78.0152
3236774 6.83523 9.74323 31.3127 29.9765 0.504646 8.61283 77.8676
3236780 7.09067 9.99187 30.9977 29.5868 0.479719 8.40162 77.6671
3236796 7.09067 9.99187 30.9977 29.5868 0.479719 8.40162 77.6671
3236801 7.38135 10.3971 30.5941 29.0607 0.478601 8.1121 77.4333
3236811 7.89223 10.9957 30.0133 28.3788 0.475192 7.66774 77.28
3236821 7.89223 10.9957 30.0133 28.3788 0.475192 7.66774 77.28
3236831 8.46477 11.7969 29.3144 27.541 0.505283 7.11784 77.117
3236842 9.09896 12.4783 28.5958 26.6642 0.471035 6.57546 76.8373
3236851 9.09896 12.4783 28.5958 26.6642 0.471035 6.57546 76.8373
3236861 9.81244 13.3348 27.9954 25.7582 0.417793 5.96997 76.9007
3236871 9.81244 13.3348 27.9954 25.7582 0.417793 5.96997 76.9007
3236881 10.5083 14.2557 27.198 24.706 0.409356 5.30992 76.668
3236891 11.2218 15.3147 26.3712 23.5175 0.405392 4.58334 76.4251
3236902 11.2218 15.3147 26.3712 23.5175 0.405392 4.58334 76.4251
3236914 11.9881 16.604 25.4557 22.2413 0.459266 3.75641 76.2891
3236921 11.9881 16.604 25.4557 22.2413 0.459266 3.75641 76.2891
3236931 12.8249 17.9823 24.3926 20.8968 0.545901 2.85472 76.0966
3236942 13.8642 19.4508 23.3492 19.6304 0.612026 1.9001 76.2946
3236951 13.8642 19.4508 23.3492 19.6304 0.612026 1.9001 76.2946
3236963 14.9124 20.8026 22.286 18.3347 0.634965 0.963961 76.3358
3236971 15.9518 22.028 21.154 17.1461 0.677872 0.0629854 76.28
3236981 15.9518 22.028 21.154 17.1461 0.677872 0.0629854 76.28
3236992 17.0598 23.2145 20.1008 16.1338 0.714886 -0.792015 76.5089
3237001 17.0598 23.2145 20.1008 16.1338 0.714886 -0.792015 76.5089
3237012 18.0463 24.2649 19.0967 15.1629 0.745976 -1.57728 76.5708
3237021 19.0229 25.0624 18.26 14.3539 0.695369 -2.24345 76.6991
3237036 19.0229 25.0624 18.26 14.3539 0.695369 -2.24345 76.6991
3237045 19.8599 25.8209 17.3839 13.6305 0.719598 -2.86846 76.6952
3237056 19.8599 25.8209 17.3839 13.6305 0.719598 -2.86846 76.6952
3237061 20.6372 26.4045 16.5529 12.8975 0.690246 -3.44961 76.4921
3237071 21.3546 26.9199 15.8771 12.2408 0.631273 -3.95787 76.3924
3237081 21.3546 26.9199 15.8771 12.2408 0.631273 -3.95787 76.3924
3237091 21.9725 27.4256 15.1492 11.7363 0.66863 -4.42675 76.2836
3237101 22.6002 27.7466 14.6398 11.327 0.600669 -4.79208 76.3135
3237112 22.6002 27.7466 14.6398 11.327 0.600669 -4.79208 76.3135
3237124 23.1483 28.0189 14.1615 10.7749 0.4875 -5.17009 76.1036
3237132 23.507 28.2815 13.808 10.4703 0.472218 -5.42488 76.0668
3237147 23.507 28.2815 13.808 10.4703 0.472218 -5.42488 76.0668
3237152 23.9156 28.4371 13.444 10.2324 0.430694 -5.65763 76.0291
3237172 24.3042 28.651 13.1945 10.0515 0.394949 -5.84818 76.2013
3237182 24.5533 28.758 13.0281 9.86114 0.340441 -5.98855 76.2006
3237193 24.5533 28.758 13.0281 9.86114 0.340441 -5.98855 76.2006
3237202 24.8025 28.9331 12.8098 9.74692 0.349888 -6.13014 76.2922
3237214 24.8025 28.9331 12.8098 9.74692 0.349888 -6.13014 76.2922
3237222 25.1014 29.0011 12.6122 9.59462 0.288996 -6.26968 76.3094
3237232 25.3107 29.1567 12.5602 9.48992 0.253457 -6.35486 76.5176
3237242 25.3107 29.1567 12.5602 9.48992 0.253457 -6.35486 76.5176
3237252 25.5399 29.2346 12.2691 9.32811 0.246716 -6.51627 76.3716
3237268 25.8089 29.2637 12.1755 9.29003 0.185961 -6.58633 76.5382
3237272 25.8089 29.2637 12.1755 9.29003 0.185961 -6.58633 76.5382
3237282 25.9982 29.361 12.0508 9.09015 0.131413 -6.70946 76.5001
3237296 25.9982 29.361 12.0508 9.09015 0.131413 -6.70946 76.5001
3237302 26.1577 29.3902 11.9988 8.91881 0.0498623 -6.79332 76.4654
3237312 26.4168 29.4971 11.8428 8.84266 0.0261843 -6.89857 76.5994
3237325 26.4168 29.4971 11.8428 8.84266 0.0261843 -6.89857 76.5994
3237332 26.5563 29.5166 11.7076 8.73796 -0.00305921 -6.98405 76.5185
3237350 26.6559 29.4582 11.718 8.64278 -0.0892282 -7.01275 76.475
3237353 26.6559 29.4582 11.718 8.64278 -0.0892282 -7.01275 76.475
3237362 26.7356 29.4193 11.5621 8.6047 -0.0896469 -7.07299 76.3218
3237376 26.7356 29.4193 11.5621 8.6047 -0.0896469 -7.07299 76.3218
3237384 26.7655 29.3902 11.5413 8.52856 -0.127287 -7.10113 76.2255
3237393 26.7157 29.3804 11.6245 8.55711 -0.131963 -7.06259 76.2777
3237403 26.7157 29.3804 11.6245 8.55711 -0.131963 -7.06259 76.2777
3237416 26.7755 29.3221 11.5933 8.52856 -0.169946 -7.08004 76.2194
3237430 26.7954 29.2151 11.6869 8.51904 -0.2454 -7.04664 76.2164
3237433 26.7954 29.2151 11.6869 8.51904 -0.2454 -7.04664 76.2164
3237443 26.8453 29.1957 11.7596 8.58567 -0.26954 -7.00957 76.3862
3237455 26.8453 29.1957 11.7596 8.58567 -0.26954 -7.00957 76.3862
3237463 26.9748 29.0887 11.8324 8.66181 -0.345072 -6.9691 76.5577
3237482 27.1143 29.04 11.9572 8.78555 -0.405051 -6.9076 76.8971
3237483 27.1143 29.04 11.9572 8.78555 -0.405051 -6.9076 76.8971
3237493 27.0645 28.8942 12.0196 8.71892 -0.479469 -6.88816 76.6971
3237508 26.9449 28.7969 12.0924 8.83315 -0.458865 -6.81183 76.6673
3237513 26.9449 28.7969 12.0924 8.83315 -0.458865 -6.81183 76.6673
3237533 26.905 28.651 12.1859 8.82363 -0.527756 -6.76802 76.5656
3237535 26.905 28.651 12.1859 8.82363 -0.527756 -6.76802 76.5656
3237545 26.8154 28.4857 12.2795 8.89978 -0.55877 -6.69226 76.4803
3237561 26.6858 28.3982 12.4355 9.09966 -0.529715 -6.56798 76.6191
3237565 26.6858 28.3982 12.4355 9.09966 -0.529715 -6.56798 76.6191
3237575 26.5463 28.262 12.6018 9.12822 -0.574192 -6.48268 76.5384
3237585 26.4068 28.1161 12.8618 9.29003 -0.607242 -6.33281 76.6747
3237595 26.4068 28.1161 12.8618 9.29003 -0.607242 -6.33281 76.6747
3237606 26.2175 27.9216 12.9657 9.50896 -0.571905 -6.19948 76.6138
3237615 26.2175 27.9216 12.9657 9.50896 -0.571905 -6.19948 76.6138
3237629 26.0281 27.6882 13.1945 9.61366 -0.627498 -6.05849 76.5245
3237636 25.789 27.484 13.444 9.79451 -0.638637 -5.88822 76.5115
3237645 25.789 27.484 13.444 9.79451 -0.638637 -5.88822 76.5115
3237656 25.5498 27.27 13.6624 9.9944 -0.636725 -5.71999 76.4766
3237665 25.2309 27.1533 14.0783 10.3656 -0.582565 -5.4551 76.8282
3237682 25.2309 27.1533 14.0783 10.3656 -0.582565 -5.4551 76.8282
3237693 25.0317 27.0172 14.359 10.5941 -0.577727 -5.27826 77.0019
3237697 25.0317 27.0172 14.359 10.5941 -0.577727 -5.27826 77.0019
3237707 24.643 26.7935 14.7333 10.8606 -0.558965 -5.03228 77.0304
3237716 24.3242 26.5698 15.0869 11.2699 -0.508519 -4.76447 77.2507
3237736 23.8558 26.1419 15.3884 11.6125 -0.483701 -4.47997 76.9986
3237746 23.228 25.6751 15.9187 12.0599 -0.459054 -4.08248 76.8816
3237767 22.6401 25.2958 16.3865 12.612 -0.363585 -3.69224 76.9344
3237788 22.6401 25.2958 16.3865 12.612 -0.363585 -3.69224 76.9344
3237790 22.0023 24.8192 17.0492 13.2783 -0.309162 -3.20692 77.1491
3237797 21.3347 24.3232 17.63 13.9541 -0.222477 -2.73307 77.242
3237807 21.3347 24.3232 17.63 13.9541 -0.222477 -2.73307 77.242
3237817 20.6671 23.7981 18.2895 14.687 -0.152218 -2.22527 77.4416
3237829 19.9097 23.2437 18.8309 15.4009 -0.0310287 -1.72932 77.3853
3237838 19.9097 23.2437 18.8309 15.4009 -0.0310287 -1.72932 77.3853
3237852 19.2122 22.6407 19.4511 16.0386 0.00520647 -1.2341 77.3426
3237858 19.2122 22.6407 19.4511 16.0386 0.00520647 -1.2341 77.3426
3237868 18.415 21.9502 19.9925 16.7335 0.0895828 -0.708112 77.0912
3237878 17.6577 21.2305 20.652 17.4968 0.135556 -0.143968 77.0371
3237888 17.6577 21.2305 20.652 17.4968 0.135556 -0.143968 77.0371
3237900 16.9736 20.5887 21.2525 18.3054 0.216573 0.388159 77.1202
3237908 16.3746 20.0343 21.8628 19.114 0.294301 0.88541 77.3857
3237925 16.3746 20.0343 21.8628 19.114 0.294301 0.88541 77.3857
3237928 15.9166 19.4314 22.3254 19.8155 0.324187 1.31496 77.4888
3237948 15.4409 18.9062 22.7684 20.4 0.353754 1.707 77.5155
3237958 14.9829 18.4102 23.1818 21.0138 0.405732 2.08841 77.5887
3237971 14.9829 18.4102 23.1818 21.0138 0.405732 2.08841 77.5887
3237981 14.5513 17.8753 23.5362 21.5203 0.422072 2.44504 77.4831
3237988 14.1109 17.4571 23.9792 22.0659 0.461572 2.79794 77.613
3237999 14.1109 17.4571 23.9792 22.0659 0.461572 2.79794 77.613
3238008 13.6617 16.9908 24.3532 22.5238 0.483587 3.13904 77.5294
3238022 13.6617 16.9908 24.3532 22.5238 0.483587 3.13904 77.5294
3238028 13.1948 16.4567 24.8257 23.0304 0.473019 3.52313 77.5076
3238038 12.7104 15.8397 25.2982 23.6831 0.488248 3.95285 77.5313
3238060 12.2435 15.3055 25.7805 24.2579 0.496 4.34788 77.5875
3238071 11.7415 14.6977 26.3219 24.8424 0.475729 4.77913 77.6035
3238080 11.7415 14.6977 26.3219 24.8424 0.475729 4.77913 77.6035
3238094 11.257 14.1176 26.8633 25.5633 0.501451 5.21562 77.8012
3238101 11.257 14.1176 26.8633 25.5633 0.501451 5.21562 77.8012
3238110 10.6933 13.4085 27.5229 26.2648 0.467673 5.71694 77.8893
3238120 10.1119 12.8467 28.271 27.0246 0.475511 6.19845 78.2542
3238131 10.1119 12.8467 28.271 27.0246 0.475511 6.19845 78.2542
3238144 9.49534 12.1376 29.029 27.8138 0.45462 6.73007 78.4756
3238150 8.93161 11.3732 29.7475 28.5152 0.384793 7.24686 78.5676
3238168 8.93161 11.3732 29.7475 28.5152 0.384793 7.24686 78.5676
3238170 8.30622 10.7286 30.4563 29.2069 0.372618 7.74385 78.698
3238180 8.30622 10.7286 30.4563 29.2069 0.372618 7.74385 78.698
3238193 7.74249 10.1945 31.0371 29.8596 0.404182 8.17412 78.8336
3238201 7.29326 9.62351 31.4899 30.5026 0.425476 8.56852 78.9092
3238217 7.29326 9.62351 31.4899 30.5026 0.425476 8.56852 78.9092
3238221 6.94974 9.2091 31.6769 30.8436 0.453109 8.83872 78.6793
3238231 6.56218 8.89599 31.9624 31.0384 0.449231 9.08933 78.4589
3238241 6.56218 8.89599 31.9624 31.0384 0.449231 9.08933 78.4589
3238251 6.41244 8.68418 32.1691 31.3112 0.44983 9.23624 78.5769
3238264 6.41244 8.68418 32.1691 31.3112 0.44983 9.23624 78.5769
3238272 6.15699 8.49079 32.3069 31.6229 0.524905 9.40765 78.5776
3238281 6.00725 8.26977 32.5431 31.8372 0.494751 9.55473 78.6574
3238291 6.00725 8.26977 32.5431 31.8372 0.494751 9.55473 78.6574
3238317 5.86632 8.16847 32.74 32.1782 0.551075 9.66716 78.953
3238317 5.66373 7.97508 32.9172 32.3828 0.562766 9.81669 78.9388
3238342 5.66373 7.97508 32.9172 32.3828 0.562766 9.81669 78.9388
3238344 5.60207 7.77248 32.9664 32.6166 0.576451 9.91833 78.9576
3238345 5.60207 7.77248 32.9664 32.6166 0.576451 9.91833 78.9576
3238352 5.48756 7.68039 33.0845 32.6751 0.56487 9.99492 78.9276
3238369 5.37306 7.56988 33.2716 32.7725 0.537351 10.0842 78.987
3238373 5.37306 7.56988 33.2716 32.7725 0.537351 10.0842 78.987
3238383 5.33782 7.49621 33.3995 32.8407 0.50571 10.1309 79.0742
3238395 5.2057 7.35807 33.4488 32.8797 0.501719 10.2224 78.8922
3238403 5.2057 7.35807 33.4488 32.8797 0.501719 10.2224 78.8922
3238418 5.13523 7.22914 33.6063 32.9966 0.469887 10.3027 78.9672
3238423 5.13523 7.22914 33.6063 32.9966 0.469887 10.3027 78.9672
3238433 5.01192 7.12784 33.6358 33.0745 0.492913 10.3812 78.85
3238443 4.95026 7.04496 33.6948 33.0648 0.464928 10.4307 78.7548
3238453 4.95026 7.04496 33.6948 33.0648 0.464928 10.4307 78.7548
3238464 4.90622 6.91603 33.813 33.1524 0.428137 10.4984 78.7877
3238473 4.84456 6.88841 33.9114 33.2499 0.438023 10.5385 78.8942
3238493 4.77409 6.69502 34 33.2888 0.384009 10.6313 78.7579
3238505 4.77409 6.69502 34 33.2888 0.384009 10.6313 78.7579
3238513 4.64197 6.69502 34 33.3862 0.457075 10.6797 78.7232
3238528 4.65078 6.58451 34 33.4057 0.425816 10.714 78.641
3238535 4.65078 6.58451 34 33.4057 0.425816 10.714 78.641
3238543 4.65959 6.65818 34 33.435 0.455081 10.6886 78.7527
3238553 4.60674 6.51083 34 33.4837 0.441393 10.7567 78.6012
3238563 4.60674 6.51083 34 33.4837 0.441393 10.7567 78.6012
3238575 4.5715 6.44637 34 33.4739 0.429595 10.7889 78.4918
3238585 4.5715 6.44637 34 33.4739 0.429595 10.7889 78.4918
3238600 4.55389 6.44637 34 33.4837 0.438353 10.7952 78.4839
3238605 4.54508 6.40953 34 33.5032 0.435778 10.8113 78.4578
3238615 4.54508 6.40953 34 33.5032 0.435778 10.8113 78.4578
3238625 4.58031 6.44637 34 33.4057 0.405377 10.7824 78.4324
3238635 4.59793 6.44637 34 33.357 0.384387 10.7739 78.4013
3238649 4.59793 6.44637 34 33.357 0.384387 10.7739 78.4013
3238655 4.58031 6.43716 34 33.3862 0.396377 10.7843 78.4037
3238665 4.58031 6.43716 34 33.3862 0.396377 10.7843 78.4037
3238675 4.64197 6.52004 34 33.2401 0.356555 10.7289 78.4021
3238684 4.69482 6.56609 34 33.1719 0.33251 10.6928 78.4328
3238701 4.69482 6.56609 34 33.1719 0.33251 10.6928 78.4328
3238706 4.77409 6.72264 34 33.1329 0.343859 10.6136 78.6297
3238727 4.82694 6.80553 34 32.9576 0.297806 10.5596 78.5901
3238735 4.94145 7.00813 33.872 32.792 0.313756 10.4399 78.6136
3238751 4.94145 7.00813 33.872 32.792 0.313756 10.4399 78.6136
3238755 5.03834 7.11863 33.7145 32.6069 0.30984 10.3527 78.4784
3238765 5.18808 7.2844 33.5078 32.2951 0.282219 10.2198 78.2754
3238775 5.18808 7.2844 33.5078 32.2951 0.282219 10.2198 78.2754
3238786 5.34663 7.50542 33.3799 32.1198 0.286752 10.0791 78.3517
3238807 5.34663 7.50542 33.3799 32.1198 0.286752 10.0791 78.3517
3238812 5.46995 7.65276 33.1141 31.8275 0.287026 9.95696 78.0643
3238823 5.69016 7.96587 32.868 31.6034 0.323567 9.75625 78.1274
3238826 5.69016 7.96587 32.868 31.6034 0.323567 9.75625 78.1274
3238836 5.91917 8.20531 32.6613 31.2235 0.271881 9.56815 78.0092
3238848 6.17461 8.57367 32.3167 30.8046 0.284743 9.31809 77.8696
3238856 6.17461 8.57367 32.3167 30.8046 0.284743 9.31809 77.8696
3238873 6.52694 9.01571 31.8935 30.3759 0.312045 9.00762 77.812
3238876 6.52694 9.01571 31.8935 30.3759 0.312045 9.00762 77.812
3238886 6.92332 9.50379 31.3521 29.8011 0.331777 8.6477 77.5803
3238898 7.47824 10.3142 30.6039 29.0802 0.423431 8.11053 77.4766
3238907 7.47824 10.3142 30.6039 29.0802 0.423431 8.11053 77.4766
3238922 8.29741 11.3272 29.9444 28.2716 0.435826 7.43662 77.8407
3238926 8.98446 12.331 29.2849 27.3754 0.460723 6.7992 77.9757
3238936 8.98446 12.331 29.2849 27.3754 0.460723 6.7992 77.9757
3238948 9.55699 13.0953 28.6451 26.5278 0.4565 6.26799 77.8252
3238956 9.55699 13.0953 28.6451 26.5278 0.4565 6.26799 77.8252
3238975 9.97098 13.8597 27.9855 25.5828 0.479978 5.76318 77.399
3238977 10.4731 14.7622 27.2866 24.5989 0.519106 5.18348 77.1207
3238987 10.4731 14.7622 27.2866 24.5989 0.519106 5.18348 77.1207
3238998 11.0896 15.6371 26.4893 23.498 0.507119 4.54818 76.714
3239007 11.8471 16.6316 25.6329 22.3484 0.490457 3.82602 76.4601
3239027 12.6487 17.5933 24.6584 21.345 0.534841 3.10079 76.2453
3239044 12.6487 17.5933 24.6584 21.345 0.534841 3.10079 76.2453
3239048 13.3974 18.4199 23.8709 20.4487 0.525481 2.46312 76.1369
3239059 14.1109 19.266 23.1129 19.6888 0.568086 1.8558 76.1786
3239068 14.1109 19.266 23.1129 19.6888 0.568086 1.8558 76.1786
3239078 14.7275 20.0051 22.4632 18.9289 0.572547 1.31223 76.1248
3239090 15.2648 20.6373 21.784 18.3639 0.641817 0.837446 76.05
3239099 15.2648 20.6373 21.784 18.3639 0.641817 0.837446 76.05
3239115 15.8285 21.2695 21.2426 17.8086 0.658885 0.384759 76.1492
3239120 15.8285 21.2695 21.2426 17.8086 0.658885 0.384759 76.1492
3239128 16.3922 21.7265 20.6717 17.263 0.632998 -0.0363001 76.0535
3239139 17.0598 22.3587 20.1598 16.6669 0.592151 -0.509899 76.2452
3239148 17.0598 22.3587 20.1598 16.6669 0.592151 -0.509899 76.2452
3239162 17.7773 23.0686 19.5594 15.9815 0.560817 -1.04174 76.3868
3239168 18.5246 23.5549 18.89 15.4485 0.519776 -1.51948 76.418
3239178 18.5246 23.5549 18.89 15.4485 0.519776 -1.51948 76.418
3239188 19.2421 24.119 18.2698 14.8203 0.466752 -2.0152 76.4512
3239198 19.2421 24.119 18.2698 14.8203 0.466752 -2.0152 76.4512
3239210 19.9197 24.5566 17.5808 14.154 0.39697 -2.50782 76.2111
3239218 20.687 24.9651 16.9792 13.659 0.313911 -2.95199 76.2903
3239234 20.687 24.9651 16.9792 13.659 0.313911 -2.95199 76.2903
3239241 21.3447 25.2082 16.3242 13.1545 0.228179 -3.36851 76.0316
3239250 21.9725 25.4027 15.7627 12.7928 0.151595 -3.7178 75.9307
3239260 21.9725 25.4027 15.7627 12.7928 0.151595 -3.7178 75.9307
3239271 22.6501 25.7918 15.3052 12.4216 0.0847191 -4.07944 76.1686
3239281 22.6501 25.7918 15.3052 12.4216 0.0847191 -4.07944 76.1686
3239290 23.3277 26.0057 14.8789 12.0885 -0.0368193 -4.39695 76.3008
3239304 23.9355 26.4531 14.4006 11.6982 -0.0604123 -4.76349 76.4874
3239310 23.9355 26.4531 14.4006 11.6982 -0.0604123 -4.76349 76.4874
3239327 24.5035 26.8616 13.9743 11.3365 -0.091216 -5.09696 76.6759
3239330 25.0416 27.1728 13.5584 10.8796 -0.178613 -5.43552 76.6524
3239352 25.4302 27.5423 13.1945 10.537 -0.17778 -5.7183 76.704
3239360 25.4302 27.5423 13.1945 10.537 -0.17778 -5.7183 76.704
3239376 25.7989 27.766 12.8098 10.0896 -0.246236 -6.01567 76.4643
3239380 26.1278 27.9703 12.4147 9.82307 -0.245346 -6.26055 76.3358
3239390 26.1278 27.9703 12.4147 9.82307 -0.245346 -6.26055 76.3358
3239401 26.3669 28.1745 12.1443 9.49944 -0.274779 -6.47717 76.1852
3239410 26.4267 28.1745 11.9468 9.49944 -0.229988 -6.53967 76.0474
3239424 26.4267 28.3106 11.9468 9.33763 -0.238501 -6.60067 76.0218
3239431 26.5463 28.5051 11.7284 9.12822 -0.211236 -6.75714 75.9081
3239441 26.5463 28.5051 11.7284 9.12822 -0.211236 -6.75714 75.9081
3239451 26.626 28.6024 11.6245 9.00448 -0.212111 -6.84168 75.8574
3239461 26.7257 28.7677 11.6661 8.93785 -0.225416 -6.87728 76.0973
3239472 26.7257 28.7677 11.6661 8.93785 -0.225416 -6.87728 76.0973
3239481 26.8154 28.9136 11.5517 8.89026 -0.184835 -6.94892 76.1709
3239496 26.8154 28.9136 11.5517 8.89026 -0.184835 -6.94892 76.1709
3239501 26.7954 29.0109 11.5205 8.89026 -0.136057 -6.96607 76.217
3239511 26.8453 29.1665 11.5725 8.89978 -0.114883 -6.96998 76.484
3239521 26.8453 29.1665 11.5725 8.89978 -0.114883 -6.96998 76.484
3239534 26.905 29.2735 11.5517 8.89026 -0.0956029 -6.99615 76.6204
3239546 27.0047 29.2346 11.5517 8.84266 -0.156315 -7.01616 76.6336
3239552 27.0047 29.2346 11.5517 8.84266 -0.156315 -7.01616 76.6336
3239562 27.0246 29.3318 11.5829 8.87122 -0.131644 -7.01121 76.8105
3239572 27.0246 29.2832 11.5309 8.79507 -0.155692 -7.04295 76.6338
3239582 27.0246 29.2832 11.5309 8.79507 -0.155692 -7.04295 76.6338
3239597 27.0545 29.3318 11.5205 8.77604 -0.152303 -7.05956 76.6829
3239619 26.9947 29.361 11.5101 8.79507 -0.113733 -7.0539 76.6609
3239622 26.9549 29.2929 11.4165 8.74748 -0.108293 -7.08342 76.4118
3239632 26.9549 29.2929 11.4165 8.74748 -0.108293 -7.08342 76.4118
3239643 26.9549 29.254 11.3853 8.70941 -0.123444 -7.09943 76.3036
3239652 26.9549 29.254 11.3853 8.70941 -0.123444 -7.09943 76.3036
3239664 26.8751 29.1859 11.5101 8.69037 -0.166841 -7.05348 76.2615
3239672 26.8951 29.147 11.5517 8.78555 -0.168297 -7.01201 76.3793
3239687 26.8951 29.147 11.5517 8.78555 -0.168297 -7.01201 76.3793
3239692 26.8951 29.0887 11.5725 8.81411 -0.18488 -6.99169 76.3703
3239702 26.8552 29.0206 11.7076 8.83315 -0.23199 -6.936 76.4166
3239713 26.8552 29.0206 11.7076 8.83315 -0.23199 -6.936 76.4166
3239722 26.8851 28.9622 11.77 8.9664 -0.237159 -6.87696 76.5838
3239748 26.8951 28.8942 11.8532 9.014 -0.273991 -6.83348 76.6565
3239758 26.8552 28.865 11.9884 9.04255 -0.304903 -6.77956 76.7511
3239762 26.8552 28.865 11.9884 9.04255 -0.304903 -6.77956 76.7511
3239772 26.8552 28.6899 12.0508 9.1187 -0.357606 -6.72147 76.7146
3239784 26.6858 28.651 12.1235 9.19485 -0.314227 -6.65677 76.6552
3239793 26.6858 28.651 12.1235 9.19485 -0.314227 -6.65677 76.6552
3239804 26.4566 28.3982 12.3107 9.32811 -0.34024 -6.51348 76.4936
3239827 26.3072 28.1648 12.4563 9.48992 -0.362723 -6.38443 76.4181
3239834 26.1178 28.0286 12.7058 9.60414 -0.389399 -6.24601 76.4564
3239843 26.1178 28.0286 12.7058 9.60414 -0.389399 -6.24601 76.4564
3239855 25.9385 27.766 13.0073 9.88018 -0.424193 -6.03528 76.592
3239863 25.6295 27.5034 13.3193 10.1277 -0.430177 -5.81472 76.5799
3239873 25.6295 27.5034 13.3193 10.1277 -0.430177 -5.81472 76.5799
3239883 25.3306 27.2797 13.756 10.4798 -0.431699 -5.53857 76.8462
3239898 25.3306 27.2797 13.756 10.4798 -0.431699 -5.53857 76.8462
3239903 24.9519 26.9977 14.1511 10.8606 -0.404331 -5.2503 76.9613
3239913 24.7227 26.7449 14.4838 11.1747 -0.417173 -5.01953 77.1261
3239923 24.7227 26.7449 14.4838 11.1747 -0.417173 -5.01953 77.1261
3239933 24.2843 26.3461 14.9101 11.5364 -0.42551 -4.70645 77.0769
3239948 23.8658 25.8307 15.274 11.9171 -0.452603 -4.39056 76.8876
3239965 23.2181 25.3444 15.7627 12.4121 -0.398844 -3.98522 76.7372
3239985 22.6002 24.7414 16.4177 13.0022 -0.415021 -3.50208 76.7616
3240002 21.9326 24.119 17.1477 13.7923 -0.379579 -2.94415 76.9915
3240005 21.9326 24.119 17.1477 13.7923 -0.379579 -2.94415 76.9915
3240015 21.2151 23.516 17.9253 14.6299 -0.321698 -2.36315 77.2863
3240028 20.4877 22.6991 18.6144 15.5722 -0.268421 -1.74482 77.3734
3240036 20.4877 22.6991 18.6144 15.5722 -0.268421 -1.74482 77.3734
3240054 19.7104 21.8919 19.5397 16.7049 -0.209802 -1.03236 77.8469
3240066 18.7837 20.9582 20.2976 17.7599 -0.116712 -0.324765 77.7995
3240080 17.8669 20.1705 21.1639 18.7049 -0.0498861 0.3526 77.9062
3240086 17.8669 20.1705 21.1639 18.7049 -0.0498861 0.3526 77.9062
3240096 16.8591 19.2466 21.9907 19.5232 -0.0257775 1.04516 77.6196
3240113 15.9518 18.3616 22.7782 20.3221 -0.0149921 1.70259 77.4137
3240132 15.0798 17.5349 23.6445 21.1696 -0.00637323 2.36335 77.4288
3240136 15.0798 17.5349 23.6445 21.1696 -0.00637323 2.36335 77.4288
3240146 14.3223 16.7882 24.3532 21.9587 0.02307 2.94517 77.4224
3240159 13.6881 16.1988 25.1407 22.7381 0.0347644 3.47041 77.7657
3240166 13.6881 16.1988 25.1407 22.7381 0.0347644 3.47041 77.7657
3240176 13.0187 15.4989 25.9479 23.4785 0.00348985 4.02382 77.944
3240186 12.3845 14.8082 26.6566 24.3358 0.0329226 4.56604 78.1851
3240197 12.3845 14.8082 26.6566 24.3358 0.0329226 4.56604 78.1851
3240211 11.7767 14.2096 27.2866 25.1444 0.0926942 5.05846 78.4174
3240237 11.1953 13.6755 27.9265 25.7874 0.108516 5.50546 78.5847
3240238 10.7725 13.0953 28.4482 26.216 0.0288635 5.88225 78.5321
3240250 10.7725 13.0953 28.4482 26.216 0.0288635 5.88225 78.5321
3240263 10.2705 12.6717 28.901 26.6057 0.0337809 6.22657 78.4489
3240267 9.87409 12.2941 29.2652 27.0928 0.0788569 6.5309 78.5263
3240277 9.87409 12.2941 29.2652 27.0928 0.0788569 6.5309 78.5263
3240291 9.51295 11.9626 29.59 27.4533 0.0996351 6.79475 78.5189
3240297 9.51295 11.9626 29.59 27.4533 0.0996351 6.79475 78.5189
3240307 9.08135 11.5574 29.7672 27.8722 0.185573 7.09022 78.2782
3240317 8.75544 11.143 30.1216 28.3691 0.202525 7.38474 78.3891
3240327 8.75544 11.143 30.1216 28.3691 0.202525 7.38474 78.3891
3240340 8.44715 10.8391 30.4957 28.6711 0.180796 7.62504 78.453
3240347 8.0772 10.4063 30.8599 29.0705 0.172067 7.92848 78.4138
3240364 8.0772 10.4063 30.8599 29.0705 0.172067 7.92848 78.4138
3240370 7.76891 10.1024 31.2142 29.4407 0.178257 8.17249 78.5262
3240378 7.76891 10.1024 31.2142 29.4407 0.178257 8.17249 78.5262
3240389 7.42539 9.8169 31.6375 29.7817 0.17024 8.42412 78.6615
3240398 7.19637 9.54984 31.8639 30.1324 0.197449 8.61988 78.7425
3240413 7.19637 9.54984 31.8639 30.1324 0.197449 8.61988 78.7425
3240418 6.94974 9.27356 32.1494 30.2883 0.147051 8.8127 78.6609
3240428 6.94974 9.27356 30.0035 30.2883 0.852317 8.63917 76.515
3240439 6.79119 9.03413 32.5235 30.5805 0.0950217 8.985 78.9293
3240448 6.52694 8.66576 32.7892 30.7754 0.0396639 9.21284 78.7573
3240461 6.52694 8.66576 32.7892 30.7754 0.0396639 9.21284 78.7573
3240469 6.33316 8.49079 32.9861 30.9117 0.0264466 9.35076 78.7218
3240483 6.15699 8.25135 33.242 31.204 0.0178605 9.51837 78.8544
3240488 6.15699 8.25135 33.242 31.204 0.0178605 9.51837 78.8544
3240499 6.00725 8.02113 33.4291 31.3501 -0.0206381 9.65976 78.8076
3240508 6.00725 8.02113 33.4291 31.3501 -0.0206381 9.65976 78.8076
3240518 5.7342 7.78169 33.6259 31.5352 -0.0137269 9.84632 78.6771
3240529 5.63731 7.56988 33.7539 31.6327 -0.0600129 9.95869 78.5938
3240541 5.63731 7.56988 33.7539 31.6327 -0.0600129 9.95869 78.5938
3240551 5.61088 7.45937 33.7736 31.7788 -0.0465244 10.0128 78.6227
3240558 5.44352 7.33044 33.9016 31.9152 -0.0316396 10.1239 78.5907
3240574 5.44352 7.33044 33.9016 31.9152 -0.0316396 10.1239 78.5907
3240580 5.39948 7.25677 34 31.9152 -0.0723943 10.1676 78.5714
3240606 5.36425 7.1831 34 31.9639 -0.0691801 10.2055 78.5112
3240610 5.27617 7.19231 34 32.0029 -0.0258058 10.2332 78.4713
3240618 5.27617 7.19231 34 32.0029 -0.0258058 10.2332 78.4713
3240635 5.24974 7.06338 34 32.0418 -0.0461116 10.2856 78.3549
3240638 5.23212 7.03575 34 32.0321 -0.0524536 10.2997 78.3
3240650 5.23212 7.03575 34 32.0321 -0.0524536 10.2997 78.3
3240660 5.18808 7.01733 34 32.0516 -0.038071 10.321 78.257
3240670 5.18808 7.01733 34 32.0516 -0.038071 10.321 78.257
3240683 5.19689 6.97129 34 32.1003 -0.040026 10.336 78.2685
3240691 5.14404 6.92524 34 32.2269 0.00259876 10.3755 78.2962
3240700 5.14404 6.92524 34 32.2269 0.00259876 10.3755 78.2962
3240710 5.12642 6.90683 34 32.2756 0.0178933 10.3901 78.3089
3240720 5.09119 6.91603 34 32.3049 0.0414103 10.4002 78.3121
3240730 5.09119 6.91603 34 32.3049 0.0414103 10.4002 78.3121
3240740 5.12642 6.83315 34 32.3244 0.00992715 10.4168 78.2839
3240751 5.12642 6.83315 34 32.3244 0.00992715 10.4168 78.2839
3240761 4.98549 6.81473 34 32.3146 0.0460416 10.4681 78.1148
3240782 5.07358 6.84236 34 32.3244 0.0297606 10.431 78.2403
3240784 5.07358 6.84236 34 32.3244 0.0297606 10.431 78.2403
3240791 5.00311 6.80553 34 32.2464 0.0156403 10.4614 78.0551
3240813 4.9943 6.80553 34 32.2172 0.00910759 10.4626 78.017
3240822 5.04715 6.89762 34 32.2172 0.0216424 10.4154 78.162
3240845 5.04715 6.89762 34 32.2172 0.0216424 10.4154 78.162
3240850 5.06477 6.79632 34 32.2269 -0.0132903 10.4432 78.088
3240862 5.00311 6.82394 34 32.2172 0.0121802 10.4537 78.0443
3240877 5.00311 6.82394 34 32.2172 0.0121802 10.4537 78.0443
3240878 4.96788 6.81473 34 32.2464 0.0298887 10.4699 78.029
3240897 5.01192 6.80553 34 32.1782 -0.00902861 10.4546 77.9957
3240898 5.01192 6.80553 34 32.1782 -0.00902861 10.4546 77.9957
3240903 5.01192 6.8792 34 32.1393 0.00209808 10.4283 78.0304
3240913 5.05596 6.93445 34 31.9834 -0.0442848 10.3868 77.9738
3240923 5.05596 6.93445 34 31.9834 -0.0442848 10.3868 77.9738
3240933 5.11762 7.03575 34 32.0029 -0.0252709 10.335 78.1562
3240944 5.11762 7.03575 34 32.0029 -0.0252709 10.335 78.1562
3240954 5.17047 7.1831 34 31.9054 -0.0261709 10.2644 78.259
3240965 5.27617 7.2844 33.9803 31.847 -0.0398949 10.1929 78.3879
3240986 5.39067 7.46858 33.8425 31.6229 -0.0452191 10.0746 78.3247
3240994 5.39067 7.46858 33.8425 31.6229 -0.0452191 10.0746 78.3247
3241003 5.46995 7.64355 33.7834 31.545 -0.0206664 9.98476 78.4419
3241013 5.65492 7.76327 33.5866 31.4183 -0.0190869 9.867 78.4231
3241023 5.65492 7.76327 33.5866 31.4183 -0.0190869 9.867 78.4231
3241034 5.77824 7.98429 33.3109 31.165 0.0192225 9.72286 78.2385
3241043 5.9544 8.26056 33.0747 30.8436 0.0240028 9.54203 78.1332
3241066 6.20104 8.61972 32.6908 30.3857 0.0364482 9.29219 77.8972
3241076 6.44767 8.61972 32.1494 29.7135 -0.0857517 9.12427 76.9302
3241085 6.44767 9.04334 32.1494 29.7135 0.0516266 8.99215 77.3539
3241099 6.94093 9.83532 31.5883 29.012 0.102785 8.49561 77.3766
3241106 6.94093 9.83532 31.5883 29.012 0.102785 8.49561 77.3766
3241115 7.56632 10.9404 30.7024 28.2327 0.291955 7.83072 77.4418
3241125 8.43834 12.0915 29.7475 27.4338 0.430915 7.07455 77.7112
3241136 8.43834 12.0915 29.7475 27.4338 0.430915 7.07455 77.7112
3241145 9.46891 13.2703 28.6352 26.2745 0.463849 6.2146 77.6489
3241167 10.385 14.4122 27.4737 25.2321 0.57601 5.40144 77.503
3241176 11.3363 15.4989 26.3219 24.1117 0.631708 4.58112 77.2689
3241186 11.3363 15.4989 26.3219 24.1117 0.631708 4.58112 77.2689
3241196 12.2083 16.4843 25.1604 23.0499 0.703961 3.80695 76.9028
3241207 13.0627 17.5349 24.0185 21.9782 0.793761 3.01572 76.5943
3241225 13.0627 17.5349 24.0185 21.9782 0.793761 3.01572 76.5943
3241227 13.9259 18.5852 22.9259 20.8676 0.8522 2.21789 76.3046
3241236 14.7803 18.5852 21.7939 19.8155 0.609049 1.64931 74.9749
3241252 14.7803 19.587 21.7939 19.8155 0.930634 1.4298 75.9766
3241257 15.5907 20.5789 20.8292 18.812 0.979784 0.686894 75.8108
3241266 15.5907 20.5789 20.8292 18.812 0.979784 0.686894 75.8108
3241277 16.4187 21.4153 19.9236 17.8183 0.956476 -0.0182757 75.5759
3241286 17.1993 22.1739 19.2444 17.0682 0.924367 -0.606586 75.6858
3241301 17.1993 22.1739 19.2444 17.0682 0.924367 -0.606586 75.6858
3241308 18.0363 22.9228 18.5848 16.3337 0.868273 -1.19414 75.8777
3241328 18.7837 23.5841 17.8859 15.6484 0.844127 -1.7457 75.9021
3241337 19.5909 24.1871 17.3937 15.0868 0.750491 -2.22219 76.2585
3241350 19.5909 24.1871 17.3937 15.0868 0.750491 -2.22219 76.2585
3241357 20.2186 24.7122 16.8336 14.5157 0.713044 -2.67073 76.2802
3241367 20.8265 25.1888 16.3657 14.0398 0.666147 -3.06391 76.4208
3241377 20.8265 25.1888 16.3657 14.0398 0.666147 -3.06391 76.4208
3241387 21.4045 25.5875 15.8771 13.5258 0.599444 -3.4536 76.3948
3241398 21.4045 25.5875 15.8771 13.5258 0.599444 -3.4536 76.3948
3241407 21.8429 25.996 15.378 13.0784 0.607345 -3.81069 76.2953
3241421 22.3511 26.3267 15.0557 12.612 0.501627 -4.12797 76.3454
3241427 22.3511 26.3267 15.0557 12.612 0.501627 -4.12797 76.3454
3241437 22.8294 26.7059 14.619 12.2788 0.502533 -4.44262 76.4332
3241447 23.228 27.0463 14.2135 11.8505 0.476617 -4.75719 76.3383
3241457 23.228 27.0463 14.2135 11.8505 0.476617 -4.75719 76.3383
3241471 23.5469 27.2797 13.9015 11.4793 0.429946 -5.00853 76.2075
3241478 23.5469 27.2797 13.9015 11.4793 0.429946 -5.00853 76.2075
3241488 23.8259 27.4354 13.6208 11.1937 0.388551 -5.21455 76.0758
3241505 24.1747 27.5423 13.5272 11.0224 0.282839 -5.34324 76.2666
3241517 24.1747 27.5423 13.5272 11.0224 0.282839 -5.34324 76.2666
3241519 24.5035 27.8146 13.3089 10.7083 0.232708 -5.56119 76.3353
3241540 24.7825 28.0189 13.1425 10.4798 0.187665 -5.72709 76.4238
3241543 24.7825 28.0189 13.1425 10.4798 0.187665 -5.72709 76.4238
3241548 25.1114 28.3301 12.893 10.2514 0.188398 -5.93395 76.5858
3241572 25.1114 28.3301 12.893 10.2514 0.188398 -5.93395 76.5858
3241573 25.2907 28.4662 12.6434 10.0991 0.206274 -6.0813 76.4995
3241578 25.4601 28.6024 12.5187 9.87066 0.161627 -6.21435 76.4519
3241588 25.4601 28.6024 12.5187 9.87066 0.161627 -6.21435 76.4519
3241599 25.5 28.7775 12.3315 9.70885 0.214499 -6.33609 76.3178
3241608 25.5996 28.865 12.1235 9.61366 0.247845 -6.44225 76.2019
3241621 25.5996 28.865 12.1235 9.61366 0.247845 -6.44225 76.2019
3241630 25.7093 28.9331 12.0924 9.55655 0.225452 -6.487 76.2912
3241649 25.779 28.9914 11.9988 9.42329 0.208983 -6.56529 76.1925
3241660 25.8288 29.0303 11.978 9.34714 0.187257 -6.60255 76.1843
3241670 25.8288 29.0303 11.978 9.34714 0.187257 -6.60255 76.1843
3241680 26.0182 29.147 11.8532 9.35666 0.206971 -6.6688 76.3751
3241692 26.0281 29.147 11.8844 9.34714 0.190306 -6.66374 76.4067
3241699 26.0281 29.147 11.8844 9.34714 0.190306 -6.66374 76.4067
3241710 26.0879 29.0984 11.8324 9.38522 0.184309 -6.6689 76.404
3241721 26.0879 29.0984 11.8324 9.38522 0.184309 -6.6689 76.404
3241732 26.0182 29.1957 11.8428 9.33763 0.22001 -6.68245 76.3943
3241741 25.9982 29.3318 11.9052 9.39474 0.268534 -6.66125 76.63
3241751 25.9982 29.3318 11.9052 9.39474 0.268534 -6.66125 76.63
3241761 25.9584 29.361 11.9676 9.36618 0.261307 -6.65053 76.6531
3241771 25.8787 29.2443 12.0508 9.42329 0.240919 -6.58947 76.597
3241781 25.8787 29.2443 12.0508 9.42329 0.240919 -6.58947 76.597
3241791 25.8288 29.2151 12.1028 9.41377 0.22769 -6.56881 76.5605
3241803 25.8288 29.2151 12.1028 9.41377 0.22769 -6.56881 76.5605
3241811 25.6395 29.0303 12.1547 9.46137 0.22856 -6.49931 76.2859
3241825 25.4801 28.8358 12.3003 9.59462 0.213242 -6.38117 76.2108
3241832 25.4801 28.8358 12.3003 9.59462 0.213242 -6.38117 76.2108
3241849 25.3007 28.7288 12.5291 9.70885 0.199273 -6.25266 76.2674
3241851 25.1413 28.5635 12.7994 9.88018 0.164637 -6.09258 76.3843
3241861 25.1413 28.5635 12.7994 9.88018 0.164637 -6.09258 76.3843
3241885 24.8423 28.4565 13.1113 10.0896 0.19362 -5.90158 76.4997
3241886 24.8423 28.4565 13.1113 10.0896 0.19362 -5.90158 76.4997
3241893 24.5334 28.1356 13.496 10.3942 0.163382 -5.63854 76.5592
3241902 24.1547 27.8341 13.8807 10.7273 0.171655 -5.36199 76.5969
3241922 23.7362 27.6104 14.411 11.1176 0.188863 -5.03765 76.8752
3241932 23.1184 27.1339 15.0557 11.6506 0.198299 -4.58935 76.9585
3241942 23.1184 27.1339 15.0557 11.6506 0.198299 -4.58935 76.9585
3241952 22.5006 26.6962 15.8459 12.2027 0.178799 -4.1067 77.2454
3241963 22.5006 26.6962 15.8459 12.2027 0.178799 -4.1067 77.2454
3241974 21.7333 26.0446 16.6985 12.8119 0.137386 -3.54535 77.2883
3241983 20.8265 25.4125 17.6202 13.6305 0.192374 -2.90136 77.4896
3241992 20.8265 25.4125 17.6202 13.6305 0.192374 -2.90136 77.4896
3242002 19.7702 24.5761 18.6537 14.5157 0.215378 -2.16283 77.5157
3242012 18.6741 23.6716 19.8153 15.5817 0.245678 -1.34071 77.7428
3242024 18.6741 23.6716 19.8153 15.5817 0.245678 -1.34071 77.7428
3242032 17.4584 22.5629 21.0359 16.8477 0.29406 -0.411598 77.9049
3242045 17.4584 22.5629 21.0359 16.8477 0.29406 -0.411598 77.9049
3242053 16.3394 21.5418 22.1778 18.1203 0.366133 0.463736 78.1793
3242063 15.3705 20.472 23.3492 19.416 0.37159 1.32101 78.6076
3242076 15.3705 20.472 23.3492 19.416 0.37159 1.32101 78.6076
3242087 14.4456 19.4994 24.3434 20.439 0.365007 2.06485 78.7274
3242094 13.6176 18.4783 25.1407 21.3547 0.341853 2.74831 78.5913
3242104 13.6176 18.4783 25.1407 21.3547 0.341853 2.74831 78.5913
3242115 12.8249 17.4571 25.9085 22.1828 0.289166 3.40856 78.3733
3242135 12.085 16.4843 26.6665 23.0206 0.240707 4.04782 78.2564
3242144 11.3891 15.6186 27.3851 23.761 0.193685 4.63285 78.1538
3242154 11.3891 15.6186 27.3851 23.761 0.193685 4.63285 78.1538
3242164 10.799 14.799 27.9855 24.4235 0.140384 5.15551 78.007
3242181 10.2705 14.1268 28.5958 25.0762 0.107816 5.62478 78.0693
3242186 10.2705 14.1268 28.5958 25.0762 0.107816 5.62478 78.0693
3242196 9.78601 13.4821 29.1471 25.6218 0.054723 6.05496 78.037
3242206 9.78601 13.4821 29.1471 25.6218 0.054723 6.05496 78.037
3242216 9.40725 12.8743 29.6885 26.1673 -0.0173017 6.44523 78.1374
3242227 8.96684 12.3034 30.1807 26.6837 -0.0513434 6.83324 78.1345
3242236 8.96684 12.3034 30.1807 26.6837 -0.0513434 6.83324 78.1345
3242247 8.55285 11.8061 30.6236 27.1415 -0.0732362 7.18209 78.1241
3242257 8.1829 11.2811 31.106 27.6189 -0.124317 7.53191 78.1889
3242268 8.1829 11.2811 31.106 27.6189 -0.124317 7.53191 78.1889
3242279 7.92746 10.8299 31.5391 28.0963 -0.172327 7.82177 78.3927
3242286 7.92746 10.8299 31.5391 28.0963 -0.172327 7.82177 78.3927
3242296 7.60155 10.351 31.8738 28.5736 -0.175592 8.13039 78.4
3242306 7.26684 9.98267 32.4152 28.9925 -0.224644 8.42101 78.6572
3242316 7.26684 9.98267 32.4152 28.9925 -0.224644 8.42101 78.6572
3242326 6.88808 9.56826 32.8877 29.4115 -0.252689 8.73135 78.7555
3242336 6.53575 9.1078 33.2617 29.8499 -0.266592 9.04094 78.7551
3242346 6.53575 9.1078 33.2617 29.8499 -0.266592 9.04094 78.7551
3242356 6.1658 8.84074 33.6752 30.2201 -0.247195 9.29422 78.9018
3242367 6.1658 8.84074 33.6752 30.2201 -0.247195 9.29422 78.9018
3242376 5.81347 8.37107 33.9902 30.5805 -0.270469 9.59672 78.7552
3242388 5.6285 8.08559 34 30.8241 -0.228819 9.76149 78.5382
3242396 5.6285 8.08559 34 30.8241 -0.228819 9.76149 78.5382
3242409 5.42591 7.82774 34 30.9799 -0.197558 9.91767 78.2336
3242416 5.26736 7.62514 34 31.1066 -0.171678 10.0413 77.9991
3242426 5.26736 7.62514 34 31.1066 -0.171678 10.0413 77.9991
3242436 5.16166 7.54225 34 31.2138 -0.130156 10.1087 77.9177
3242446 5.16166 7.54225 34 31.2138 -0.130156 10.1087 77.9177
3242457 5.1 7.44095 34 31.2819 -0.121142 10.1656 77.8229
3242467 5.10881 7.35807 34 31.3599 -0.125553 10.1944 77.8268
3242477 5.10881 7.35807 34 31.3599 -0.125553 10.1944 77.8268
