9758575 4.49223 5.35049 33.1436 34 0.556806 11.1645 76.9863
9758586 4.52746 5.33207 33.1633 34 0.532737 11.1598 77.0228
9758596 4.52746 5.33207 33.1633 34 0.532737 11.1598 77.0228
9758606 4.58031 5.40574 33.2027 34 0.525585 11.1188 77.1887
9758626 4.53627 5.39653 33.242 34 0.524208 11.1388 77.1748
9758636 4.59793 5.43337 33.242 34 0.515509 11.1055 77.2733
9758646 4.59793 5.43337 33.242 34 0.515509 11.1055 77.2733
9758666 4.71244 5.50704 33.2716 34 0.49136 11.0436 77.491
9758674 4.79171 5.54388 33.2027 34 0.499591 11.0011 77.5383
9758682 4.79171 5.54388 33.2027 34 0.499591 11.0011 77.5383
9758687 4.84456 5.64518 33.2125 34 0.510961 10.95 77.7022
9758697 4.84456 5.64518 33.2125 34 0.510961 10.95 77.7022
9758707 4.95907 5.6636 33.1141 34 0.511488 10.9005 77.7367
9758717 5.05596 5.67281 32.9467 33.9805 0.531393 10.8553 77.656
9758728 5.05596 5.67281 32.9467 33.9805 0.531393 10.8553 77.656
9758738 5.36425 5.84778 32.5924 33.737 0.524923 10.6622 77.5414
9758749 5.70777 6.04117 32.051 33.3278 0.52194 10.4301 77.1277
9758759 5.70777 6.04117 32.051 33.3278 0.52194 10.4301 77.1277
9758769 6.19223 6.42795 31.4505 32.6361 0.463235 10.0643 76.7068
9758791 6.86166 6.97129 30.6728 31.8762 0.429752 9.56694 76.382
9758799 7.81295 7.92904 29.7377 30.8533 0.403392 8.81316 76.333
9758811 7.81295 7.92904 29.7377 30.8533 0.403392 8.81316 76.333
9758820 9.01088 9.02492 28.5663 29.733 0.386679 7.91185 76.3351
9758831 10.3409 10.3142 27.2768 28.4762 0.383696 6.89021 76.4081
9758853 11.6974 11.6587 25.8888 26.9077 0.321797 5.79896 76.1527
9758872 13.1508 13.123 24.2252 25.1639 0.300956 4.58258 75.6629
9758880 14.8332 15.0016 22.4534 23.2057 0.304928 3.14416 75.4939
9758892 14.8332 15.0016 22.4534 23.2057 0.304928 3.14416 75.4939
9758902 16.5244 16.954 20.6717 21.1209 0.29189 1.65687 75.2709
9758913 18.2356 18.877 18.9687 19.1335 0.267953 0.197357 75.2149
9758932 19.8699 20.5692 17.3248 17.4189 0.263831 -1.1363 75.1828
9758941 21.0158 22.135 15.9187 16.0006 0.399992 -2.24423 75.0701
9758955 21.0158 22.135 15.9187 16.0006 0.399992 -2.24423 75.0701
9758961 21.9525 23.5646 14.6709 14.7536 0.565374 -3.22102 74.9418
9758972 21.9525 23.5646 14.6709 14.7536 0.565374 -3.22102 74.9418
9758982 22.9191 25.1013 13.5376 13.7161 0.784022 -4.1382 75.2741
9758993 23.8458 26.5212 12.4771 12.6215 0.934124 -5.02251 75.4656
9759013 24.7427 27.7271 11.4997 11.6601 1.03957 -5.81319 75.6296
9759022 25.5399 28.7775 10.5431 10.7083 1.12572 -6.56341 75.5687
9759044 26.347 29.7208 9.83609 9.94681 1.14848 -7.17559 75.8507
9759054 26.7556 30.3238 9.18104 9.28051 1.21381 -7.66826 75.5409
9759065 26.7556 30.3238 9.18104 9.28051 1.21381 -7.66826 75.5409
9759074 27.1043 30.7712 8.70275 8.73796 1.22883 -8.053 75.3162
9759084 27.1043 30.7712 8.70275 8.73796 1.22883 -8.053 75.3162
9759094 27.3734 31.1407 8.32844 8.30963 1.24698 -8.35825 75.1522
9759104 27.6325 31.5297 8.0685 8.04311 1.28593 -8.5788 75.2738
9759114 27.6325 31.5297 8.0685 8.04311 1.28593 -8.5788 75.2738
9759124 27.7819 31.8701 7.80856 7.71948 1.32985 -8.80366 75.1801
9759134 27.7819 31.8701 7.80856 7.71948 1.32985 -8.80366 75.1801
9759144 27.9812 32.1133 7.6422 7.50056 1.32594 -8.962 75.2373
9759154 28.2902 32.3078 7.6422 7.3673 1.23755 -9.04443 75.6074
9759168 28.2902 32.3078 7.6422 7.3673 1.23755 -9.04443 75.6074
9759175 28.3898 32.4926 7.50703 7.20549 1.2571 -9.1613 75.5949
9759184 28.5492 32.5412 7.49664 6.97704 1.14881 -9.25375 75.5641
9759206 28.7585 32.726 7.40306 6.91993 1.14908 -9.33183 75.8075
9759215 28.8681 32.7162 7.36147 6.84378 1.09859 -9.3771 75.7896
9759225 28.8681 32.7162 7.36147 6.84378 1.09859 -9.3771 75.7896
9759235 28.9877 32.6482 7.38226 6.72956 0.992697 -9.41099 75.7477
9759245 28.9877 32.6482 7.38226 6.72956 0.992697 -9.41099 75.7477
9759256 29.0973 32.5704 7.42385 6.68197 0.901103 -9.41527 75.7735
9759267 29.2567 32.5217 7.41346 6.62486 0.816575 -9.44517 75.8168
9759287 29.2268 32.4926 7.53823 6.57727 0.759795 -9.41596 75.8349
9759304 29.2966 32.4148 7.40306 6.52016 0.738835 -9.47744 75.6346
9759314 29.2966 32.4148 7.40306 6.52016 0.738835 -9.47744 75.6346
9759321 29.2966 32.3467 7.38226 6.50112 0.717938 -9.48537 75.5267
9759337 29.2767 32.1814 7.43425 6.33931 0.601387 -9.50754 75.2316
9759347 29.1571 32.0355 7.47584 6.32979 0.577456 -9.47762 74.9982
9759367 29.2368 32.0452 7.47584 6.32027 0.550362 -9.4873 75.0781
9759377 29.2567 32.0063 7.57982 6.33931 0.501794 -9.44584 75.1822
9759387 29.2567 32.0063 7.57982 6.33931 0.501794 -9.44584 75.1822
9759397 29.3464 31.9285 7.6318 6.33931 0.428453 -9.42983 75.246
9759417 29.4461 31.9285 7.69419 6.3869 0.389346 -9.40158 75.4556
9759427 29.4859 31.9479 7.79817 6.42497 0.359786 -9.36015 75.657
9759439 29.4859 31.9479 7.79817 6.42497 0.359786 -9.36015 75.657
9759449 29.5158 31.9285 7.78777 6.43449 0.350016 -9.36121 75.6666
9759474 29.6354 31.9479 7.91254 6.52016 0.302619 -9.30409 76.016
9759476 29.6354 31.9479 7.91254 6.52016 0.302619 -9.30409 76.016
9759479 29.7849 31.9577 8.04771 6.57727 0.229922 -9.25477 76.3675
9759490 29.8148 31.9285 8.0789 6.54871 0.191021 -9.25398 76.3709
9759510 29.6653 31.8215 8.0893 6.65342 0.236237 -9.19803 76.2295
9759520 29.6653 31.8215 8.0893 6.65342 0.236237 -9.19803 76.2295
9759531 29.5258 31.6562 8.13089 6.57727 0.189999 -9.18574 75.8901
9759541 29.476 31.5395 8.17248 6.61534 0.167 -9.14755 75.8033
9759561 29.3763 31.3839 8.25566 6.65342 0.133911 -9.08912 75.6693
9759571 29.2767 31.2477 8.21407 6.72956 0.161174 -9.05962 75.468
9759581 29.2767 31.2477 8.21407 6.72956 0.161174 -9.05962 75.468
9759591 29.0674 30.9851 8.26606 6.80571 0.152206 -8.98127 75.1243
9759601 29.0674 30.9851 8.26606 6.80571 0.152206 -8.98127 75.1243
9759611 28.9379 30.849 8.54679 6.94849 0.103879 -8.82512 75.2821
9759621 28.9777 30.7225 8.78593 7.20549 0.0542879 -8.66189 75.6917
9759633 28.9777 30.7225 8.78593 7.20549 0.0542879 -8.66189 75.6917
9759641 28.9279 30.4211 8.96269 7.38634 -0.0274777 -8.52069 75.698
9759653 28.8083 29.9737 9.22263 7.55767 -0.165293 -8.33783 75.5623
9759677 28.8083 29.9737 9.22263 7.55767 -0.165293 -8.33783 75.5623
9759680 28.6589 29.3999 9.61774 7.89082 -0.326161 -8.04915 75.5673
9759694 28.1606 28.3204 10.0752 8.38578 -0.510293 -7.60988 74.942
9759702 27.5328 26.5601 10.8966 9.16629 -0.911288 -6.88347 74.1558
9759715 27.5328 26.5601 10.8966 9.16629 -0.911288 -6.88347 74.1558
9759722 26.8253 24.1871 12.4043 11.1652 -1.2997 -5.51936 74.5818
9759732 26.1377 21.8335 14.7749 14.6775 -1.42129 -3.58783 77.4237
9759752 25.4302 19.7523 17.1772 18.1691 -1.45479 -1.8322 80.5288
9759762 25.4302 19.7523 17.1772 18.1691 -1.45479 -1.8322 80.5288
9759774 24.4437 17.71 18.8408 20.4292 -1.5798 -0.531239 81.4237
9759785 23.2679 16.0515 19.8153 21.5398 -1.70186 0.378519 80.6745
9759794 23.2679 16.0515 19.8153 21.5398 -1.70186 0.378519 80.6745
9759804 21.9027 14.5964 20.4551 22.2705 -1.7327 1.17889 79.2247
9759814 20.4977 13.3624 21.2131 23.1181 -1.67227 2.00874 78.1912
9759834 19.0528 12.3586 22.1285 24.0825 -1.52667 2.85994 77.6224
9759844 19.0528 12.3586 22.1285 24.0825 -1.52667 2.85994 77.6224
9759854 17.4584 11.2811 23.1621 25.1542 -1.35785 3.81089 77.0558
9759864 15.8197 10.2866 24.5501 26.3914 -1.19789 4.83503 77.0477
9759875 15.8197 10.2866 24.5501 26.3914 -1.19789 4.83503 77.0477
9759886 14.1813 9.4117 26.0266 27.7066 -0.998911 5.84669 77.3263
9759895 12.8337 8.61972 27.326 28.7685 -0.893475 6.70059 77.5479
9759905 12.8337 8.61972 27.326 28.7685 -0.893475 6.70059 77.5479
9759915 11.7591 8.18689 28.2119 29.5186 -0.729142 7.29653 77.6765
9759926 11.0368 7.91062 28.7041 29.9375 -0.609863 7.67394 77.5891
9759955 10.4202 7.75406 29.1865 30.4734 -0.443007 7.99499 77.8341
9759957 10.4202 7.75406 29.1865 30.4734 -0.443007 7.99499 77.8341
9759966 9.84767 7.55146 29.7968 30.9897 -0.352776 8.32391 78.1856
9759976 9.22228 7.42254 30.2102 31.3794 -0.201498 8.61733 78.2344
9759989 9.22228 7.42254 30.2102 31.3794 -0.201498 8.61733 78.2344
9759997 8.80829 7.22914 30.476 31.6911 -0.116362 8.84789 78.2045
9760007 8.25337 7.04496 30.8008 32.0808 0.0228882 9.12957 78.1799
9760017 8.25337 7.04496 30.8008 32.0808 0.0228882 9.12957 78.1799
9760027 7.77772 6.91603 31.1847 32.49 0.141501 9.37512 78.3684
9760047 7.23161 6.63976 31.5391 33.0063 0.279078 9.69321 78.4168
9760057 6.77358 6.40032 31.7261 33.4837 0.441515 9.95792 78.3837
9760069 6.77358 6.40032 31.7261 33.4837 0.441515 9.95792 78.3837
9760080 6.34197 6.31744 31.7556 33.8831 0.671446 10.1495 78.2982
9760089 5.9456 6.0688 31.8049 34 0.744781 10.3683 77.8193
9760100 5.9456 6.0688 31.8049 34 0.744781 10.3683 77.8193
9760122 5.44352 5.98592 31.8344 34 0.876218 10.5622 77.2638
9760129 5.44352 5.8662 31.8344 34 0.838777 10.6018 77.1441
9760139 5.25855 5.72806 31.8935 34 0.837687 10.7128 76.8801
9760150 5.25855 5.72806 31.8935 34 0.837687 10.7128 76.8801
9760160 5.21451 5.58992 31.8246 34 0.832212 10.7701 76.629
9760171 5.23212 5.47941 31.6966 34 0.834566 10.7943 76.4081
9760180 5.23212 5.47941 31.6966 34 0.834566 10.7943 76.4081
9760191 5.32021 5.45179 31.7261 34 0.78612 10.7756 76.4981
9760201 5.37306 5.31365 31.8442 34 0.684807 10.8108 76.5309
9760214 5.37306 5.31365 31.8442 34 0.684807 10.8108 76.5309
9760221 5.38187 5.38732 31.9525 34 0.668958 10.789 76.7217
9760231 5.38187 5.38732 31.9525 34 0.668958 10.789 76.7217
9760241 5.25855 5.27681 31.9919 34 0.661975 10.87 76.5273
9760251 5.2057 5.23077 32.1494 34 0.61228 10.9119 76.5859
9760271 5.09119 5.14789 32.2085 34 0.604415 10.9819 76.4475
9760292 4.96788 5.0558 32.2577 34 0.599837 11.0579 76.2813
9760294 4.96788 5.0558 32.2577 34 0.599837 11.0579 76.2813
9760302 4.82694 4.97291 32.1986 34 0.640592 11.1316 75.9985
9760311 4.82694 4.97291 32.1986 34 0.640592 11.1316 75.9985
9760322 4.6772 4.91766 32.1986 34 0.673491 11.2022 75.7935
9760332 4.62435 4.94529 32.1789 34 0.706947 11.21 75.7486
9760352 4.58031 4.91766 32.1592 34 0.719729 11.2338 75.6572
9760362 4.60674 4.82557 32.11 34 0.697893 11.2542 75.5423
9760372 4.60674 4.82557 32.11 34 0.697893 11.2542 75.5423
9760383 4.58031 4.94529 32.2281 34 0.705191 11.2277 75.7537
9760392 4.58031 4.94529 32.2281 34 0.705191 11.2277 75.7537
9760404 4.50984 4.92687 32.1494 34 0.750017 11.2546 75.5861
9760412 4.54508 4.97291 32.0805 34 0.776255 11.2229 75.5985
9760424 4.54508 4.97291 32.0805 34 0.776255 11.2229 75.5985
9760434 4.5715 4.96371 32.051 34 0.774363 11.2155 75.5862
9760445 4.51865 4.99133 31.9624 34 0.831535 11.2198 75.4724
9760454 4.51865 4.99133 31.9624 34 0.831535 11.2198 75.4724
9760466 4.51865 5.04659 31.982 34 0.842479 11.2016 75.5473
9760487 4.43938 5.01896 31.8639 34 0.901344 11.2329 75.3223
9760494 4.457 5.08342 31.8541 34 0.919279 11.2038 75.3945
9760514 4.4658 5.09263 31.7458 34 0.956464 11.1921 75.3042
9760528 4.41295 5.06501 31.7852 34 0.952283 11.2221 75.2631
9760534 4.41295 5.06501 31.7852 34 0.952283 11.2221 75.2631
9760548 4.39534 5.12947 31.7556 34 0.989133 11.2043 75.2804
9760555 4.39534 5.12947 31.7556 34 0.989133 11.2043 75.2804
9760569 4.43938 5.12026 31.7852 34 0.960818 11.1936 75.3448
9760575 4.41295 5.14789 31.8442 34 0.958392 11.1962 75.4051
9760601 4.41295 5.14789 31.8442 34 0.958392 11.1962 75.4051
9760602 4.43057 5.14789 31.9427 34 0.918499 11.1951 75.5211
9760606 4.41295 5.16631 31.9722 34 0.920281 11.1963 75.5515
9760626 4.42176 5.17551 31.9427 34 0.930327 11.1885 75.54
9760637 4.53627 5.2584 32.0214 34 0.890544 11.1243 75.8161
9760646 4.53627 5.2584 32.0214 34 0.890544 11.1243 75.8161
9760658 4.60674 5.32286 32.0116 34 0.890341 11.0774 75.9412
9760677 4.58031 5.32286 32.0805 34 0.875866 11.09 75.9837
9760701 4.68601 5.3597 32.1789 34 0.818226 11.0463 76.2246
9760704 4.68601 5.3597 32.1789 34 0.818226 11.0463 76.2246
9760709 4.71244 5.47941 32.1002 34 0.873882 10.9923 76.292
9760719 4.84456 5.54388 32.0608 34 0.862834 10.9234 76.4492
9760731 4.84456 5.54388 32.0608 34 0.862834 10.9234 76.4492
9760766 4.9943 5.64518 31.8836 34 0.904062 10.8289 76.5231
9760766 4.9943 5.64518 31.8836 34 0.904062 10.8289 76.5231
9760768 5.14404 5.80173 31.795 34 0.932577 10.721 76.7408
9760770 5.34663 5.94908 31.736 34 0.930294 10.6009 77.0317
9760779 5.34663 5.94908 31.736 34 0.930294 10.6009 77.0317
9760790 5.60207 6.19772 31.3619 34 1.04772 10.4123 77.1617
9760799 5.92798 6.46479 31.0469 34 1.12666 10.1991 77.4397
9760809 5.92798 6.46479 31.0469 34 1.12666 10.1991 77.4397
9760819 6.41244 6.80553 30.6433 33.6006 1.08129 9.88085 77.4618
9760830 6.41244 6.80553 30.6433 33.6006 1.08129 9.88085 77.4618
9760840 6.94974 7.21073 29.8657 33.0063 1.10396 9.48526 77.0324
9760849 7.72487 7.70802 29.0683 32.3341 1.0571 8.9743 76.8353
9760859 7.72487 7.70802 29.0683 32.3341 1.0571 8.9743 76.8353
9760869 8.59689 8.42633 28.1824 31.467 1.01539 8.33926 76.6727
9760879 9.62746 9.23673 27.2079 30.3077 0.886729 7.59064 76.3798
9760907 10.7373 10.3418 26.1349 28.8854 0.773656 6.69016 76.0994
9760910 10.7373 10.3418 26.1349 28.8854 0.773656 6.69016 76.0994
9760920 11.8295 11.8982 24.934 27.2974 0.800449 5.62876 75.9591
9760930 12.9482 13.6571 23.6937 25.69 0.889996 4.49639 75.9889
9760950 14.1461 15.3792 22.2959 23.8974 0.935906 3.30196 75.7186
9760960 15.3176 16.8342 20.9768 22.0854 0.872564 2.17586 75.2141
9760980 16.5596 18.2643 19.7169 20.4585 0.815448 1.07029 74.9992
9760990 16.5596 18.2643 19.7169 20.4585 0.815448 1.07029 74.9992
9761000 17.7573 19.5383 18.6242 18.9484 0.702977 0.0554913 74.8683
9761010 18.9132 20.6762 17.5414 17.7794 0.667775 -0.854758 74.9102
9761020 18.9132 20.6762 17.5414 17.7794 0.667775 -0.854758 74.9102
9761031 20.0193 21.8141 16.5737 16.8191 0.678012 -1.68304 75.2263
9761041 21.0158 22.8547 15.5859 15.8387 0.694492 -2.47941 75.2952
9761051 21.0158 22.8547 15.5859 15.8387 0.694492 -2.47941 75.2952
9761061 21.7632 23.7689 14.6606 15.0202 0.786203 -3.1613 75.2128
9761071 21.7632 23.7689 14.6606 15.0202 0.786203 -3.1613 75.2128
9761081 22.5006 24.6247 13.8599 14.2396 0.832117 -3.79377 75.2249
9761091 23.3077 25.5 13.1841 13.4877 0.826663 -4.39907 75.4795
9761101 23.3077 25.5 13.1841 13.4877 0.826663 -4.39907 75.4795
9761111 23.9953 26.4045 12.3731 12.7643 0.926808 -5.01655 75.5371
9761123 24.5932 27.1241 11.7076 12.0409 0.948831 -5.55923 75.4659
9761143 25.2509 27.9119 11.063 11.346 0.973922 -6.10421 75.5718
9761152 25.8787 28.5635 10.3976 10.7273 0.997326 -6.61346 75.567
9761162 25.8787 28.5635 10.3976 10.7273 0.997326 -6.61346 75.567
9761172 26.4068 29.2637 9.88807 10.1086 1.01678 -7.07185 75.6672
9761182 26.4068 29.2637 9.88807 10.1086 1.01678 -7.07185 75.6672
9761192 26.925 29.7889 9.39939 9.50896 0.983009 -7.49889 75.6222
9761203 27.4232 30.246 8.97309 9.00448 0.943255 -7.87046 75.6468
9761214 27.4232 30.246 8.97309 9.00448 0.943255 -7.87046 75.6468
9761222 27.8218 30.7225 8.60917 8.54759 0.93762 -8.20085 75.7011
9761241 28.1208 30.9657 8.25566 8.19541 0.921619 -8.4664 75.5375
9761244 28.1208 30.9657 8.25566 8.19541 0.921619 -8.4664 75.5375
9761254 28.4795 31.2963 7.96453 7.81467 0.882471 -8.73469 75.555
9761264 28.4795 31.2963 7.96453 7.81467 0.882471 -8.73469 75.555
9761275 28.8482 31.4811 7.77737 7.54815 0.794306 -8.92285 75.6548
9761286 29.2169 31.5881 7.6422 7.25308 0.654587 -9.097 75.7003
9761308 29.5756 31.7632 7.53823 6.99608 0.542155 -9.25318 75.8731
9761320 29.7351 31.7729 7.47584 6.73908 0.42955 -9.36831 75.7229
9761325 29.7351 31.7729 7.47584 6.73908 0.42955 -9.36831 75.7229
9761335 30.0539 31.8021 7.36147 6.5963 0.324139 -9.47682 75.8138
9761345 30.0539 31.8021 7.36147 6.5963 0.324139 -9.47682 75.8138
9761358 30.0838 31.8021 7.2367 6.36786 0.281298 -9.59353 75.4904
9761366 30.2034 31.7729 7.15352 6.31075 0.240824 -9.64574 75.4406
9761375 30.2034 31.7729 7.15352 6.31075 0.240824 -9.64574 75.4406
9761385 30.2732 31.6756 7.03914 6.14894 0.170445 -9.73438 75.1369
9761395 30.2732 31.6659 6.99755 6.11086 0.168583 -9.75995 75.0475
9761405 30.2732 31.6659 6.99755 6.11086 0.168583 -9.75995 75.0475
9761415 30.2433 31.5881 6.97676 6.07279 0.147191 -9.77188 74.8809
9761425 30.2433 31.5881 6.97676 6.07279 0.147191 -9.77188 74.8809
9761435 30.1835 31.5006 7.00795 5.94905 0.0864774 -9.79228 74.641
9761446 30.2433 31.4617 6.97676 5.98712 0.0765979 -9.79145 74.6688
9761455 30.2433 31.4617 6.97676 5.98712 0.0765979 -9.79145 74.6688
9761469 30.2931 31.52 7.03914 6.03471 0.0742823 -9.76256 74.887
9761476 30.323 31.5686 7.07034 6.10134 0.0921488 -9.73577 75.0633
9761486 30.323 31.5686 7.07034 6.10134 0.0921488 -9.73577 75.0633
9761496 30.4525 31.6854 7.12232 6.13942 0.0828654 -9.72342 75.3996
9761520 30.4525 31.6854 7.12232 6.13942 0.0828654 -9.72342 75.3996
9761522 30.3529 31.7729 7.09113 6.25364 0.192964 -9.69537 75.4705
9761526 30.323 31.841 7.2263 6.26316 0.183347 -9.65082 75.6534
9761542 30.323 31.841 7.2263 6.26316 0.183347 -9.65082 75.6534
9761548 30.2333 31.8312 7.17431 6.34882 0.255486 -9.6328 75.5877
9761558 30.1635 31.7243 7.40306 6.53919 0.229743 -9.48415 75.83
9761568 30.1635 31.7243 7.40306 6.53919 0.229743 -9.48415 75.83
9761577 30.0938 31.7826 7.51743 6.69149 0.283521 -9.39751 76.0853
9761597 30.024 31.7632 7.52783 6.72956 0.309312 -9.37538 76.0446
9761608 29.8945 31.6854 7.60061 6.82475 0.333861 -9.30617 76.0052
9761619 29.8945 31.6854 7.60061 6.82475 0.333861 -9.30617 76.0052
9761629 29.8048 31.6465 7.68379 6.99608 0.378928 -9.21529 76.1311
9761639 29.5856 31.5589 7.74618 7.11982 0.443029 -9.13265 76.0105
9761649 29.5856 31.5589 7.74618 7.11982 0.443029 -9.13265 76.0105
9761663 29.3265 31.345 7.83976 7.27212 0.478613 -9.01773 75.7833
9761679 29.1172 31.1699 7.96453 7.43393 0.502765 -8.89641 75.6856
9761689 28.908 30.9754 8.18287 7.70045 0.522989 -8.71096 75.7667
9761699 28.908 30.9754 8.18287 7.70045 0.522989 -8.71096 75.7667
9761709 28.6688 30.8587 8.29725 7.89082 0.588864 -8.58597 75.7156
9761732 28.3699 30.5864 8.56758 8.32867 0.651792 -8.31746 75.8525
9761734 28.3699 30.5864 8.56758 8.32867 0.651792 -8.31746 75.8525
9761739 27.9912 30.2168 8.86911 8.74748 0.6937 -8.03 75.8246
9761752 27.9912 30.2168 8.86911 8.74748 0.6937 -8.03 75.8246
9761759 27.6923 29.8667 9.17064 9.17581 0.717872 -7.74895 75.9054
9761771 27.4332 29.2443 9.62813 9.78499 0.646585 -7.34605 76.0906
9761779 27.4332 29.2443 9.62813 9.78499 0.646585 -7.34605 76.0906
9761792 27.0246 28.6413 10.0336 10.4132 0.655693 -6.94083 76.1128
9761799 26.6659 27.8827 10.5535 11.2128 0.614586 -6.4435 76.3149
9761809 26.6659 27.8827 10.5535 11.2128 0.614586 -6.4435 76.3149
9761819 26.1876 26.8907 11.1774 12.1932 0.562125 -5.82895 76.4488
9761829 26.1876 26.8907 11.1774 12.1932 0.562125 -5.82895 76.4488
9761839 25.5 25.6653 12.0092 13.3735 0.499561 -5.05226 76.548
9761848 24.7227 24.3524 12.8826 14.7536 0.489083 -4.19213 76.7113
9761864 24.7227 24.3524 12.8826 14.7536 0.489083 -4.19213 76.7113
9761873 23.6565 22.9325 14.0159 16.3432 0.520906 -3.1638 76.9481
9761883 23.6565 22.9325 12.8098 16.3432 0.927302 -3.45304 75.742
9761890 22.2515 21.3862 15.4716 18.1593 0.589648 -1.94259 77.2685
9761900 20.677 19.8204 17.1969 20.0103 0.629559 -0.635136 77.7046
9761930 19.3019 18.5172 18.7128 21.5983 0.672203 0.47844 78.1301
9761931 17.8769 17.3307 20.1401 22.9524 0.72352 1.51053 78.3001
9761944 17.8769 17.3307 20.1401 22.9524 0.72352 1.51053 78.3001
9761950 16.4979 16.3922 21.3214 23.8779 0.784624 2.36444 78.0894
9761960 15.3264 15.6278 22.2762 24.5307 0.821707 3.05794 77.7611
9761970 15.3264 15.6278 22.2762 24.5307 0.821707 3.05794 77.7611
9761980 14.5073 15.2042 23.1031 24.9301 0.811628 3.53497 77.7446
9761991 14.5073 15.2042 23.1031 24.9301 0.811628 3.53497 77.7446
9762001 13.6705 14.8727 23.6445 25.0957 0.858355 3.92006 77.2833
9762011 13.1684 14.6701 24.1662 25.2516 0.837177 4.18981 77.2563
9762022 13.1684 14.6701 24.1662 25.2516 0.837177 4.18981 77.2563
9762031 12.587 14.4767 24.6288 25.388 0.8591 4.4667 77.0806
9762051 11.9793 14.1452 25.1407 25.6802 0.879011 4.81442 76.9454
9762061 11.3803 13.74 25.8002 26.2648 0.914747 5.23637 77.1853
9762074 11.3803 13.74 25.8002 26.2648 0.914747 5.23637 77.1853
9762081 10.7373 13.3348 26.4204 26.6837 0.926697 5.64267 77.1761
9762096 10.2 12.8927 27.0405 27.1903 0.919017 6.04047 77.3235
9762111 9.6715 12.4047 27.6115 27.6676 0.901464 6.4384 77.3552
9762123 9.08135 11.6311 28.3202 28.3009 0.818014 6.96502 77.3335
9762133 9.08135 11.6311 28.3202 28.3009 0.818014 6.96502 77.3335
9762141 8.61451 10.8852 28.9994 29.0218 0.739482 7.45377 77.5209
9762151 8.61451 10.8852 28.9994 29.0218 0.739482 7.45377 77.5209
9762161 8.14767 10.1945 29.5408 29.5284 0.656992 7.89168 77.4113
9762177 7.74249 9.6143 30.1413 30.0544 0.575408 8.28579 77.5525
9762181 7.74249 9.6143 30.1413 30.0544 0.575408 8.28579 77.5525
9762192 7.40777 8.98808 30.85 30.6292 0.43644 8.68379 77.8751
9762202 7.40777 8.98808 30.85 30.6292 0.43644 8.68379 77.8751
9762212 7.02021 8.36186 31.5391 31.165 0.309789 9.09035 78.0862
9762228 6.72953 7.82774 32.1986 31.7496 0.206724 9.4371 78.5054
9762231 6.72953 7.82774 32.1986 31.7496 0.206724 9.4371 78.5054
9762243 6.46528 7.37649 32.5825 32.0613 0.124228 9.70918 78.4856
9762252 6.22746 6.9805 32.9467 32.4413 0.0787497 9.95853 78.5959
9762262 6.22746 6.9805 32.9467 32.4413 0.0787497 9.95853 78.5959
9762272 5.99845 6.82394 33.2322 32.7238 0.100625 10.117 78.7784
9762293 5.76062 6.44637 33.3897 32.8017 0.0311762 10.3289 78.3984
9762302 5.58446 6.2714 33.5866 32.8504 -0.0157088 10.4571 78.2928
9762315 5.58446 6.2714 33.5866 32.8504 -0.0157088 10.4571 78.2928
9762322 5.46114 6.10563 33.5078 32.8504 -0.00413656 10.547 77.925
9762341 5.43471 6.11484 33.498 32.9089 0.0291973 10.5554 77.9564
9762354 5.40829 6.0688 33.4389 33.0453 0.0855774 10.5835 77.9613
9762364 5.40829 6.0688 33.4389 33.0453 0.0855774 10.5835 77.9613
9762374 5.39067 6.1701 33.4291 33.1914 0.173241 10.5639 78.1812
9762384 5.36425 6.14247 33.4094 33.3473 0.228754 10.5892 78.2634
9762404 5.32902 6.0688 33.3503 33.4642 0.272864 10.6281 78.2123
9762415 5.25855 6.05959 33.3503 33.6201 0.341934 10.6629 78.2885
9762435 5.16166 5.98592 33.37 33.8052 0.401992 10.7301 78.3227
9762451 5.16166 5.98592 33.37 33.8052 0.401992 10.7301 78.3227
9762455 5.06477 5.88462 33.37 34 0.462797 10.8059 78.3194
9762480 4.96788 5.80173 33.3897 34 0.46193 10.8663 78.1593
9762482 4.96788 5.80173 33.3897 34 0.46193 10.8663 78.1593
9762485 4.80933 5.70964 33.3602 34 0.494406 10.948 77.8791
9762495 4.73005 5.62676 33.3208 34 0.507203 11.0001 77.6776
9762522 4.73005 5.62676 33.3208 34 0.507203 11.0001 77.6776
9762524 4.69482 5.62676 33.3602 34 0.505841 11.0139 77.6817
9762525 4.69482 5.62676 33.3602 34 0.505841 11.0139 77.6817
9762537 4.72124 5.58072 33.1731 34 0.544155 11.0109 77.4751
9762546 4.74767 5.64518 33.1338 34 0.568759 10.9783 77.5266
9762565 4.79171 5.70043 33.2322 34 0.539255 10.9502 77.7243
9762575 4.83575 5.73727 33.242 34 0.533149 10.9238 77.8151
9762585 4.83575 5.73727 33.242 34 0.533149 10.9238 77.8151
9762595 4.80052 5.74648 33.2913 34 0.531456 10.935 77.8383
9762605 4.80052 5.74648 33.2913 34 0.531456 10.935 77.8383
9762620 4.77409 5.74648 33.3208 34 0.53044 10.9454 77.8414
9762626 4.76529 5.75569 33.183 34 0.581512 10.9381 77.7039
9762635 4.76529 5.75569 33.183 34 0.581512 10.9381 77.7039
9762645 4.74767 5.79252 33.1928 34 0.595641 10.9322 77.733
9762655 4.76529 5.83857 33.0845 34 0.639972 10.9052 77.6884
9762676 4.69482 5.93066 32.927 34 0.744268 10.8897 77.5525
9762686 4.69482 5.93066 32.8975 34 0.754076 10.8881 77.523
9762696 4.75648 5.8662 32.8975 34 0.713429 10.8891 77.5202
9762708 4.70363 5.93987 32.8483 34 0.770387 10.8795 77.4918
9762723 4.70363 5.93987 32.8483 34 0.770387 10.8795 77.4918
9762727 4.73886 5.93066 32.8483 34 0.755799 10.8708 77.5178
9762746 4.7829 5.94908 32.8384 34 0.750199 10.8495 77.5704
9762749 4.7829 5.94908 32.8384 34 0.750199 10.8495 77.5704
9762759 4.76529 6.11484 32.8286 34 0.811026 10.7997 77.7087
9762769 4.80052 6.12405 32.7006 34 0.844732 10.778 77.6252
9762793 4.8886 6.2714 32.681 34 0.867745 10.6989 77.841
9762809 4.90622 6.19772 32.5924 34 0.86849 10.7126 77.6963
9762819 4.87979 6.21614 32.5235 34 0.905994 10.7114 77.6194
9762830 4.87979 6.21614 32.5235 34 0.905994 10.7114 77.6194
9762840 4.96788 6.32665 32.4545 34 0.93385 10.6419 77.7491
9762850 4.98549 6.30823 32.4545 34 0.922272 10.6422 77.7483
9762863 4.98549 6.30823 32.4545 34 0.922272 10.6422 77.7483
9762870 5.02073 6.36349 32.3364 34 0.967035 10.6057 77.7206
9762880 5.02073 6.36349 32.3364 34 0.967035 10.6057 77.7206
9762890 5.00311 6.42795 32.2675 34 1.01589 10.5864 77.6986
9762900 5.09119 6.53846 32.1986 34 1.04353 10.5172 77.8283
9762920 5.21451 6.55688 32.1297 33.961 1.01901 10.4645 77.8621
9762934 5.28497 6.75948 32.1002 33.7857 1.01373 10.3634 77.9303
9762950 5.33782 6.83315 32.0903 33.698 0.995067 10.3164 77.9593
9762960 5.33782 6.83315 32.0903 33.698 0.995067 10.3164 77.9593
9762970 5.48756 6.8792 31.9328 33.4934 0.948739 10.2309 77.793
9762980 5.61088 7.0818 31.7556 33.1817 0.932929 10.0949 77.63
9762990 5.61088 7.0818 31.7556 33.1817 0.932929 10.0949 77.63
9763000 5.91036 7.33965 31.421 32.6848 0.870377 9.8614 77.3558
9763010 6.15699 7.72644 31.0469 32.2367 0.893912 9.60258 77.167
9763020 6.15699 7.72644 31.0469 32.2367 0.893912 9.60258 77.167
9763033 6.61503 8.16847 30.5055 31.7301 0.901735 9.24162 77.0191
9763040 6.61503 8.16847 30.5055 31.7301 0.901735 9.24162 77.0191
9763050 7.14352 8.65656 29.9739 31.1261 0.866437 8.83613 76.9001
9763060 7.74249 9.19068 29.3932 30.5221 0.838366 8.38965 76.8484
9763070 7.74249 9.19068 29.3932 30.5221 0.838366 8.38965 76.8484
9763080 8.44715 9.84453 28.7336 29.8304 0.811294 7.85999 76.8557
9763090 8.44715 9.84453 28.7336 29.8304 0.811294 7.85999 76.8557
9763100 9.16943 10.5536 27.9068 28.8269 0.753483 7.26109 76.4568
9763110 10.0415 11.5574 26.883 27.6481 0.749072 6.48869 76.13
9763120 10.0415 11.5574 26.883 27.6481 0.749072 6.48869 76.13
9763130 11.0896 12.7822 25.6526 26.1966 0.738427 5.54217 75.721
9763140 12.4197 14.2465 24.3631 24.8424 0.759885 4.45607 75.8716
9763160 12.4197 14.2465 24.3631 24.8424 0.759885 4.45607 75.8716
9763187 14.9389 17.0292 21.6167 22.0659 0.83923 2.32276 75.6506
9763191 16.0487 18.3907 20.3468 20.7507 0.908792 1.32216 75.537
9763212 16.9119 19.7037 19.1656 19.4453 1.02072 0.397859 75.2265
9763222 18.0064 20.8804 18.1616 18.2372 0.979498 -0.495727 75.2857
9763232 18.0064 20.8804 18.1616 18.2372 0.979498 -0.495727 75.2857
9763242 18.9431 22.1836 17.1378 17.0097 1.03369 -1.39076 75.2743
9763252 19.8998 23.0784 16.2098 15.991 0.984272 -2.15033 75.179
9763262 19.8998 23.0784 16.2098 15.991 0.984272 -2.15033 75.179
9763272 20.7667 24.0023 15.326 15.22 1.03885 -2.83269 75.315
9763292 21.6934 24.8873 14.3902 14.4966 1.09328 -3.51685 75.4676
9763305 22.4109 25.5 13.6416 13.7732 1.06894 -4.08149 75.3257
9763324 23.0785 26.103 13.0489 13.1069 1.02288 -4.58451 75.3374
9763334 23.527 26.5795 12.5498 12.5073 1.00115 -4.99897 75.1636
9763345 23.527 26.5795 12.5498 12.5073 1.00115 -4.99897 75.1636
9763360 24.0053 26.988 12.2379 12.1075 0.946489 -5.30561 75.3387
9763375 24.2943 27.2408 11.9156 11.7268 0.917083 -5.56538 75.1775
9763385 24.8224 27.7368 11.7076 11.4507 0.877449 -5.82444 75.7176
9763405 25.3107 28.2134 11.3125 11.0129 0.857967 -6.16985 75.8495
9763415 25.779 28.6316 10.8862 10.6892 0.873709 -6.4818 75.9861
9763426 25.779 28.6316 10.8862 10.6892 0.873709 -6.4818 75.9861
9763436 26.1876 28.9233 10.5431 10.3371 0.832242 -6.75686 75.9911
9763449 26.5961 29.0887 10.2312 10.0039 0.74594 -7.00403 75.9199
9763457 26.5961 29.0887 10.2312 10.0039 0.74594 -7.00403 75.9199
9763469 26.9449 29.3999 9.95046 9.74692 0.740197 -7.22903 76.0422
9763476 26.9449 29.3999 9.95046 9.74692 0.740197 -7.22903 76.0422
9763491 27.2937 29.6916 9.69052 9.41377 0.696951 -7.46771 76.0896
9763496 27.7222 29.8959 9.45138 9.17581 0.622389 -7.67081 76.2452
9763506 27.7222 29.8959 9.45138 9.17581 0.622389 -7.67081 76.2452
9763516 27.8617 30.0223 9.18104 8.83315 0.597101 -7.8796 75.8982
9763526 27.9513 30.1876 9.00428 8.54759 0.587788 -8.04333 75.6909
9763538 27.9513 30.1876 9.00428 8.54759 0.587788 -8.04333 75.6909
9763546 28.0809 30.2265 8.68196 8.36674 0.607258 -8.21275 75.3561
9763565 28.0809 30.2265 8.68196 8.36674 0.607258 -8.21275 75.3561
9763567 28.1606 30.246 8.58838 8.16685 0.553426 -8.31234 75.1618
9763578 28.2403 30.3724 8.4844 7.99552 0.54706 -8.41617 75.0927
9763599 28.3499 30.4016 8.35963 7.87178 0.521389 -8.50596 74.983
9763607 28.3798 30.3724 8.21407 7.70997 0.49831 -8.60278 74.6763
9763619 28.3798 30.3724 8.21407 7.70997 0.49831 -8.60278 74.6763
9763629 28.4894 30.4405 8.24526 7.70997 0.472641 -8.60812 74.8852
9763649 28.5991 30.4211 8.24526 7.61478 0.397807 -8.64583 74.8802
9763659 28.8083 30.4891 8.34924 7.61478 0.314355 -8.63658 75.2615
9763669 28.8083 30.4891 8.34924 7.61478 0.314355 -8.63658 75.2615
9763679 29.0176 30.5767 8.35963 7.58623 0.260016 -8.66726 75.5401
9763693 29.0774 30.6156 8.42202 7.61478 0.241303 -8.64709 75.7297
9763699 29.0774 30.6156 8.42202 7.61478 0.241303 -8.64709 75.7297
9763709 29.187 30.6058 8.46361 7.57671 0.175366 -8.65436 75.8331
9763719 29.187 30.6058 8.46361 7.57671 0.175366 -8.65436 75.8331
9763728 29.1471 30.5572 8.4844 7.54815 0.156406 -8.64937 75.7369
9763739 29.1372 30.4405 8.54679 7.56719 0.106925 -8.61331 75.6917
9763749 29.1372 30.4405 8.54679 7.56719 0.106925 -8.61331 75.6917
9763770 29.177 30.4016 8.61957 7.44345 0.0160158 -8.6293 75.6416
9763774 29.2069 30.2654 8.64037 7.46249 -0.0394821 -8.60788 75.5752
9763784 29.2069 30.2654 8.64037 7.46249 -0.0394821 -8.60788 75.5752
9763792 29.0774 30.1585 8.67156 7.53863 -0.0171766 -8.55426 75.446
9763810 29.0774 30.1585 8.67156 7.53863 -0.0171766 -8.55426 75.446
9763811 29.0275 29.9931 8.76514 7.46249 -0.111985 -8.53037 75.2483
9763821 29.0674 29.9445 8.86911 7.56719 -0.140768 -8.46454 75.4482
9763830 29.0674 29.9445 8.86911 7.56719 -0.140768 -8.46454 75.4482
9763842 29.0176 29.8473 9.06667 7.66237 -0.190036 -8.36096 75.5939
9763850 28.9678 29.6819 9.24343 7.68141 -0.28047 -8.28153 75.5745
9763871 28.9977 29.5847 9.40979 7.86226 -0.316563 -8.169 75.8544
9763884 28.9977 29.5847 9.40979 7.86226 -0.316563 -8.169 75.8544
9763891 28.9977 29.468 9.72171 8.0336 -0.399432 -8.01164 76.2209
9763901 29.0176 29.3999 9.86728 8.19541 -0.421539 -7.91476 76.4802
9763913 29.0176 29.3999 9.86728 8.19541 -0.421539 -7.91476 76.4802
9763921 28.8183 29.1276 10.0544 8.32867 -0.46394 -7.77479 76.329
9763935 28.6987 29.0887 10.2 8.36674 -0.472568 -7.70501 76.3541
9763952 28.5791 28.8261 10.3872 8.6047 -0.502473 -7.54218 76.3971
9763965 28.5791 28.8261 10.3872 8.6047 -0.502473 -7.54218 76.3971
9763975 28.3798 28.6413 10.5743 8.66181 -0.54127 -7.43241 76.2573
9763985 28.1407 28.4468 10.7303 8.74748 -0.551069 -7.31801 76.0652
9763992 28.1407 28.4468 10.7303 8.74748 -0.551069 -7.31801 76.0652
9764002 27.8716 28.2037 10.9902 8.89026 -0.581895 -7.14788 75.9558
9764013 27.6225 27.8146 11.3125 8.97592 -0.707977 -6.96238 75.7256
9764022 27.6225 27.8146 11.3125 8.97592 -0.707977 -6.96238 75.7256
9764037 27.2937 27.3381 11.8116 9.12822 -0.873002 -6.68742 75.5716
9764042 27.2937 27.3381 11.8116 9.12822 -0.873002 -6.68742 75.5716
9764052 26.9648 26.9102 12.4355 9.39474 -1.02218 -6.34926 75.7052
9764062 26.6161 26.5601 13.2673 9.86114 -1.13432 -5.9068 76.3046
9764087 26.0879 26.0641 14.1719 10.2419 -1.291 -5.4342 76.5658
9764095 25.3904 25.5097 15.118 10.7464 -1.38487 -4.89205 76.7645
9764115 24.7028 24.8484 16.0746 11.327 -1.49509 -4.31751 76.9528
9764132 23.8359 23.9634 16.9688 12.0218 -1.56904 -3.67404 76.7899
9764136 23.8359 23.9634 16.9688 12.0218 -1.56904 -3.67404 76.7899
9764145 22.9689 22.9811 17.9548 12.8119 -1.67199 -2.96872 76.7168
9764165 22.0422 21.6682 18.9786 13.9636 -1.7576 -2.10721 76.6526
9764183 20.9261 20.2288 20.2484 15.6293 -1.72537 -1.0276 77.0327
9764196 19.5909 18.6144 21.784 17.5845 -1.66807 0.224935 77.5738
9764208 18.0563 16.8342 23.5953 19.8642 -1.58044 1.64051 78.3499
9764215 18.0563 16.8342 23.5953 19.8642 -1.58044 1.64051 78.3499
9764232 16.313 15.3884 25.436 21.8126 -1.44014 2.95388 78.95
9764238 16.313 15.3884 25.436 21.8126 -1.44014 2.95388 78.95
9764246 14.5513 14.0531 27.2472 23.498 -1.33821 4.18544 79.3496
9764259 12.6927 12.7178 29.2455 24.8814 -1.36386 5.41564 79.5374
9764265 12.6927 12.7178 29.2455 24.8814 -1.36386 5.41564 79.5374
9764275 10.8342 11.6127 30.9091 25.9433 -1.32011 6.50804 79.2992
9764286 9.31036 10.6733 32.2577 26.7713 -1.30464 7.41247 79.0127
9764311 8.13886 9.95504 33.2322 27.4436 -1.26079 8.10881 78.7696
9764316 8.13886 9.95504 33.2322 27.4436 -1.26079 8.10881 78.7696
9764326 7.12591 9.18147 33.9705 27.9599 -1.26378 8.74699 78.2377
9764336 6.3772 8.62893 34 28.486 -1.05247 9.19058 77.4921
9764361 5.85751 8.07638 34 29.2069 -0.834273 9.58112 77.1408
9764367 5.46114 7.51463 34 29.9181 -0.6595 9.93753 76.8938
9764387 5.15285 7.1831 34 30.7364 -0.400068 10.1983 77.0723
9764397 5.15285 7.1831 34 30.7364 -0.400068 10.1983 77.0723
9764413 4.82694 6.68581 34 31.3307 -0.263679 10.5054 76.8434
9764418 4.64197 6.34507 34 31.9054 -0.127274 10.7133 76.8925
9764427 4.64197 6.34507 34 31.9054 -0.127274 10.7133 76.8925
9764446 4.50984 6.00433 34 32.3536 -0.0494137 10.8965 76.8678
9764449 4.37772 5.74648 34 32.9673 0.10899 11.0602 77.0915
9764470 4.30725 5.55309 34 33.4155 0.213945 11.172 77.2758
9764480 4.11347 5.26761 34 33.8441 0.323161 11.3557 77.2252
9764491 4.11347 5.26761 34 33.8441 0.323161 11.3557 77.2252
9764500 3.91969 5.04659 34 34 0.366035 11.5051 76.9663
9764512 3.91969 5.04659 34 34 0.366035 11.5051 76.9663
9764520 3.78756 4.82557 34 34 0.338718 11.6273 76.6131
9764537 3.60259 4.58613 34 34 0.322732 11.7756 76.1887
9764551 3.37358 4.3467 34 34 0.321287 11.9413 75.7203
9764564 3.26788 4.06121 34 34 0.263292 12.0812 75.3291
9764571 3.26788 4.06121 34 34 0.263292 12.0812 75.3291
9764581 3.09171 3.88624 34 34 0.264922 12.208 74.978
9764591 3.09171 3.88624 34 34 0.264922 12.208 74.978
9764601 2.91554 3.71127 34 34 0.266567 12.336 74.6268
9764616 2.81865 3.57313 34 34 0.253549 12.4224 74.3918
9764620 2.81865 3.57313 34 34 0.253549 12.4224 74.3918
9764631 2.66891 3.46262 34 34 0.267673 12.5187 74.1315
9764645 2.56321 3.39816 34 34 0.282225 12.582 73.9614
9764661 2.53679 3.37053 34 34 0.282022 12.6021 73.9073
9764671 2.53679 3.37053 34 34 0.282022 12.6021 73.9073
9764682 2.53679 3.30607 34 34 0.260448 12.6262 73.8428
9764692 2.5456 3.40737 34 34 0.291324 12.5851 73.953
9764713 2.61606 3.38895 34 34 0.261092 12.5657 74.005
9764724 2.57202 3.43499 34 34 0.291514 12.565 74.007
9764734 2.57202 3.43499 34 34 0.291514 12.565 74.007
9764742 2.6513 3.55471 34 34 0.304362 12.491 74.206
9764756 2.6513 3.55471 34 34 0.304362 12.491 74.206
9764762 2.6601 3.65601 34 34 0.335026 12.4503 74.3161
9764772 2.81865 3.88624 34 34 0.357267 12.3074 74.7049
9764784 2.81865 3.88624 34 34 0.357267 12.3074 74.7049
9764792 2.88912 4.08884 34 34 0.400025 12.208 74.978
9764802 2.92435 4.11647 33.7638 34 0.477365 12.1763 74.8046
9764824 2.9772 4.28223 33.3208 34 0.665137 12.0799 74.5802
9764835 2.9772 4.28223 33.3208 34 0.665137 12.0799 74.5802
9764844 3.02124 4.41116 32.8384 34 0.85884 11.9979 74.2709
9764854 3.12694 4.49404 32.4742 34 0.976065 11.9144 74.0952
9764868 3.12694 4.49404 32.4742 34 0.976065 11.9144 74.0952
9764875 3.19741 4.64139 32.1691 34 1.10627 11.8224 74.0079
9764891 3.30311 4.77031 31.982 34 1.17654 11.7294 74.0555
9764895 3.30311 4.77031 31.982 34 1.17654 11.7294 74.0555
9764905 3.40881 4.82557 31.8049 34 1.21959 11.6635 74.0392
9764925 3.47927 4.94529 31.8541 34 1.21567 11.5975 74.2786
9764936 3.54093 4.91766 31.6572 34 1.25463 11.5762 74.1158
9764945 3.54093 4.91766 31.6572 34 1.25463 11.5762 74.1158
9764957 3.62021 5.00975 31.421 34 1.33981 11.5038 74.0509
9764965 3.73471 5.04659 31.5096 34 1.27954 11.4539 74.2909
9764980 3.73471 5.04659 31.5096 34 1.27954 11.4539 74.2909
9764989 3.79637 5.14789 31.48 34 1.30048 11.3946 74.4243
9764996 3.87565 5.2584 31.421 34 1.32848 11.3246 74.555
9765006 3.87565 5.2584 31.421 34 1.32848 11.3246 74.555
9765017 4.00777 5.37811 31.2831 34 1.36844 11.229 74.669
9765028 4.00777 5.37811 31.2831 34 1.36844 11.229 74.669
9765041 4.11347 5.64518 31.2733 34 1.41886 11.0982 75.032
9765048 4.28964 5.78332 31.3422 34 1.3762 10.993 75.4152
9765059 4.28964 5.78332 31.3422 34 1.3762 10.993 75.4152
9765071 4.43938 5.93066 31.3422 34 1.37001 10.891 75.7122
9765080 4.63316 6.02275 31.4111 34 1.30755 10.7974 76.067
9765092 4.63316 6.02275 31.4111 34 1.30755 10.7974 76.067
9765099 4.7829 6.22535 31.3619 34 1.33578 10.6757 76.3702
9765110 4.7829 6.22535 31.3619 34 1.33578 10.6757 76.3702
9765130 5.02073 6.61213 31.2831 34 1.40031 10.4628 76.916
9765146 5.02073 6.61213 31.2831 34 1.40031 10.4628 76.916
9765150 5.00311 6.63976 31.1552 34 1.45885 10.4519 76.798
9765160 5.05596 6.74106 31.1946 34 1.45813 10.4033 76.9916
9765174 5.05596 6.74106 31.1946 34 1.45813 10.4033 76.9916
9765181 5.13523 6.76869 31.1453 34 1.45625 10.3651 77.0493
9765209 5.12642 6.75948 31.1355 34 1.45984 10.3704 77.0214
9765212 5.15285 6.74106 31.106 34 1.45528 10.366 76.9999
9765225 5.13523 6.75027 31.1158 34 1.46076 10.3694 77.0013
9765232 5.13523 6.75027 31.1158 34 1.46076 10.3694 77.0013
9765242 5.06477 6.7779 31.1257 34 1.49005 10.3841 76.9683
9765252 5.06477 6.7779 31.1257 34 1.49005 10.3841 76.9683
9765264 5.10881 6.68581 31.0764 34 1.46367 10.397 76.871
9765274 5.09119 6.64897 31.1749 34 1.4246 10.4209 76.915
9765294 5.15285 6.66739 31.2241 34 1.3922 10.3974 77.0443
9765304 5.07358 6.63055 31.293 34 1.38446 10.4398 76.9971
9765325 5.04715 6.62134 31.4013 34 1.35362 10.458 77.0698
9765335 5.06477 6.51083 31.4702 34 1.2901 10.4927 77.0458
9765357 5.07358 6.58451 31.5489 34 1.28291 10.4701 77.207
9765366 5.07358 6.58451 31.5489 34 1.28291 10.4701 77.207
9765384 5.05596 6.59372 31.5785 34 1.28169 10.4746 77.2281
9765388 5.05596 6.53846 31.5785 34 1.26471 10.4928 77.1729
9765410 5.05596 6.53846 31.5785 34 1.26471 10.4928 77.1729
9765414 5.05596 6.54767 31.6769 34 1.23408 10.4955 77.2805
9765416 5.04715 6.53846 31.795 34 1.19419 10.5083 77.3806
9765438 5.04715 6.474 31.9525 34 1.12113 10.5387 77.4737
9765447 5.04715 6.474 31.9525 34 1.12113 10.5387 77.4737
9765463 5.00311 6.43716 31.982 34 1.11467 10.5671 77.4223
9765467 5.09119 6.50163 32.1297 34 1.05527 10.5253 77.7225
9765478 5.09119 6.50163 32.1297 34 1.05527 10.5253 77.7225
9765490 5.15285 6.40032 32.1494 34 0.996777 10.5395 77.7026
9765497 5.17927 6.42795 32.1297 34 1.00305 10.5206 77.7369
9765511 5.17927 6.42795 32.1297 34 1.00305 10.5206 77.7369
9765517 5.22332 6.48321 32.0903 34 1.01854 10.4857 77.7969
9765539 5.32021 6.5753 32.0706 33.9708 1.01211 10.4211 77.9369
9765549 5.44352 6.64897 32.11 33.7759 0.920564 10.3478 77.9784
9765560 5.44352 6.64897 32.11 33.7759 0.920564 10.3478 77.9784
9765570 5.50518 6.88841 31.9722 33.5616 0.953653 10.2288 77.9274
9765580 5.71658 6.95287 31.9033 33.3181 0.850883 10.1203 77.8908
9765600 5.88394 7.10022 31.736 32.9966 0.796768 9.98789 77.7167
9765610 6.13938 7.31203 31.608 32.5582 0.683746 9.80089 77.6176
9765620 6.13938 7.31203 31.608 32.5582 0.683746 9.80089 77.6176
9765630 6.38601 7.51463 31.4406 32.1782 0.601846 9.62046 77.5195
9765642 6.38601 7.51463 31.4406 32.1782 0.601846 9.62046 77.5195
9765650 6.66788 7.75406 31.293 31.7398 0.494811 9.41405 77.4548
9765669 6.97617 8.01192 30.9583 31.2819 0.440055 9.17775 77.2283
9765681 7.52228 8.43554 30.2889 30.5123 0.370196 8.76315 76.7591
9765696 8.29741 9.19989 29.5507 29.3725 0.236952 8.13117 76.4205
9765722 9.4601 10.4892 28.399 27.9307 0.183788 7.15408 76.2789
9765725 9.4601 10.4892 28.399 27.9307 0.183788 7.15408 76.2789
9765731 10.8782 11.935 26.8732 26.4206 0.198469 6.00744 76.1071
9765748 12.5518 13.6295 25.308 24.6865 0.1497 4.68914 76.1759
9765762 14.2254 15.3147 23.7626 22.8745 0.0660449 3.36655 76.1772
9765774 15.6523 16.7974 22.1482 21.0625 0.019595 2.13341 75.6604
9765797 17.1694 18.5074 20.4551 19.2309 0.0377685 0.797986 75.3629
9765820 18.7638 20.2191 18.6931 17.4676 0.0764668 -0.563353 75.1436
9765824 20.2386 21.853 17.1477 15.7626 0.0764459 -1.83621 75.0018
9765834 20.2386 21.853 17.1477 15.7626 0.0764459 -1.83621 75.0018
9765844 21.5639 23.2923 15.5755 14.4205 0.191513 -2.9779 74.8522
9765854 22.7696 24.5275 14.359 13.1545 0.184911 -3.96672 74.8107
9765864 22.7696 24.5275 14.359 13.1545 0.184911 -3.96672 74.8107
9765875 23.7661 25.6848 13.1737 12.1456 0.297758 -4.84116 74.7702
9765894 24.6032 26.6281 12.3731 11.2032 0.28578 -5.54522 74.8076
9765908 25.3107 27.4937 11.6661 10.6321 0.382519 -6.0929 75.1026
9765914 25.3107 27.4937 11.6661 10.6321 0.382519 -6.0929 75.1026
9765924 25.8886 28.262 11.1462 10.1277 0.449076 -6.53836 75.4245
9765934 26.3968 28.865 10.6887 9.65174 0.473267 -6.92864 75.6022
9765945 26.3968 28.865 10.6887 9.65174 0.473267 -6.92864 75.6022
9765955 26.8154 29.3999 10.2312 9.29955 0.545534 -7.26464 75.746
9765965 27.1442 29.3999 9.7945 9.07111 0.507993 -7.49476 75.4097
9765975 27.1442 29.7889 9.7945 9.07111 0.633693 -7.53327 75.7987
9765986 27.3335 30.0223 9.56575 8.89026 0.663909 -7.69665 75.8119
9765995 27.3335 30.0223 9.56575 8.89026 0.663909 -7.69665 75.8119
9766005 27.4033 30.2168 9.31621 8.67133 0.717077 -7.86281 75.6076
9766017 27.3933 30.3141 9.18104 8.44289 0.724337 -7.98143 75.3313
9766025 27.3933 30.3141 9.18104 8.44289 0.724337 -7.98143 75.3313
9766039 27.3734 30.353 9.06667 8.21445 0.709051 -8.08824 75.0075
9766046 27.2937 30.3433 8.99388 8.12878 0.730503 -8.12891 74.7596
9766066 27.2438 30.4113 8.9211 8.09071 0.782502 -8.16493 74.667
9766076 27.2438 30.4113 8.9211 8.09071 0.782502 -8.16493 74.667
9766089 27.2937 30.4016 9.06667 8.08119 0.708967 -8.12648 74.8431
9766098 27.3834 30.3919 9.08746 8.06215 0.661734 -8.13327 74.9248
9766115 27.3834 30.3919 9.08746 8.06215 0.661734 -8.13327 74.9248
9766118 27.493 30.353 9.21223 8.09071 0.578344 -8.09254 75.1489
9766127 27.6923 30.3433 9.43058 8.14782 0.452369 -8.02573 75.6139
9766138 27.6923 30.3433 9.43058 8.14782 0.452369 -8.02573 75.6139
9766148 27.8019 30.4697 9.49297 8.16685 0.441745 -8.02272 75.9314
9766157 27.8019 30.4697 9.49297 8.16685 0.441745 -8.02272 75.9314
9766169 28.0012 30.4989 9.55535 8.15734 0.360724 -8.02766 76.2127
9766178 28.1108 30.5475 9.65933 8.25252 0.336257 -7.98218 76.5701
9766200 28.2304 30.5669 9.54495 8.19541 0.322399 -8.04642 76.5377
9766207 28.2204 30.4211 9.40979 8.20493 0.326464 -8.07018 76.2562
9766234 28.2204 30.4211 9.40979 8.20493 0.326464 -8.07018 76.2562
9766235 28.2802 30.4405 9.3682 8.14782 0.308228 -8.10725 76.2367
9766237 28.2802 30.4405 9.3682 8.14782 0.308228 -8.10725 76.2367
9766249 28.2403 30.3822 9.12905 8.08119 0.360647 -8.1915 75.8327
9766259 28.1905 30.1293 9.14985 8.0336 0.272352 -8.17243 75.5032
9766269 28.1905 30.1293 9.14985 8.0336 0.272352 -8.17243 75.5032
9766279 28.0311 30.0807 9.08746 7.91937 0.293371 -8.208 75.1186
9766289 27.8916 29.8862 9.05627 8.04311 0.327682 -8.14902 74.8771
9766301 27.8916 29.8862 9.05627 8.04311 0.327682 -8.14902 74.8771
9766309 27.8118 29.6625 9.16024 8.17637 0.289652 -8.04783 74.8109
9766321 27.8118 29.6625 9.16024 8.17637 0.289652 -8.04783 74.8109
9766333 27.7521 29.3707 9.28502 8.38578 0.240466 -7.91217 74.7936
9766339 27.7919 29.2929 9.50336 8.62374 0.206539 -7.76959 75.2119
9766348 27.7919 29.2929 9.50336 8.62374 0.206539 -7.76959 75.2119
9766366 27.7022 29.1373 9.65933 8.92833 0.233361 -7.60705 75.4272
9766369 27.6325 28.9622 9.97125 9.31859 0.22307 -7.374 75.8846
9766379 27.6325 28.9622 9.97125 9.31859 0.22307 -7.374 75.8846
9766390 27.5428 28.7969 10.2 9.7374 0.259423 -7.15856 76.2771
9766400 27.5428 28.7969 10.2 9.7374 0.259423 -7.15856 76.2771
9766413 27.2937 28.4857 10.4807 10.0134 0.237545 -6.93921 76.2735
9766441 27.0744 28.2134 10.8135 10.4132 0.24136 -6.67739 76.5145
9766442 27.0744 28.2134 10.8135 10.4132 0.24136 -6.67739 76.5145
9766443 26.8552 27.8827 11.1462 10.813 0.226319 -6.41069 76.6971
9766451 26.4467 27.5132 11.5101 11.2223 0.253838 -6.10768 76.6922
9766463 26.4467 27.5132 11.5101 11.2223 0.253838 -6.10768 76.6922
9766471 25.8787 27.0561 11.7908 11.7172 0.360993 -5.77425 76.4428
9766485 25.8787 27.0561 11.7908 11.7172 0.360993 -5.77425 76.4428
9766491 25.3406 26.3267 12.4563 12.3074 0.273851 -5.27998 76.4309
9766501 24.5932 25.3638 13.1321 13.0974 0.241497 -4.67159 76.1866
9766521 23.8658 24.1287 14.1303 14.0873 0.0721723 -3.89247 76.2121
9766531 23.1383 22.7672 15.3988 15.3533 -0.135878 -2.96515 76.6576
9766541 23.1383 22.7672 15.3988 15.3533 -0.135878 -2.96515 76.6576
9766551 22.3013 21.2014 16.896 16.9239 -0.346626 -1.87839 77.3225
9766561 22.3013 21.2014 16.896 16.9239 -0.346626 -1.87839 77.3225
9766572 21.2649 19.4022 18.4372 18.588 -0.550885 -0.703155 77.6923
9766581 19.9496 17.6808 20.0122 20.3903 -0.605741 0.532864 78.0328
9766594 19.9496 17.6808 20.0122 20.3903 -0.605741 0.532864 78.0328
9766601 18.4648 16.0515 21.469 21.9003 -0.636221 1.705 77.8856
9766616 16.8503 14.4859 23.044 23.3129 -0.674272 2.90001 77.6931
9766624 16.8503 14.4859 23.044 23.3129 -0.674272 2.90001 77.6931
9766631 15.4938 13.1046 24.6682 24.7158 -0.75071 3.99815 77.9823
9766651 14.1197 11.9995 26.1054 25.9335 -0.733159 4.97449 78.1581
9766661 12.957 11.0693 27.0799 26.898 -0.663286 5.7596 78.0042
9766672 12.957 11.0693 27.0799 26.898 -0.663286 5.7596 78.0042
9766682 12.0321 10.4615 27.9461 27.6384 -0.60143 6.35726 78.0782
9766692 11.1337 9.93662 28.3793 28.106 -0.473955 6.8496 77.5556
9766712 10.4466 9.66035 28.7632 28.5834 -0.311826 7.21198 77.4535
9766727 10.4466 9.66035 28.7632 28.5834 -0.311826 7.21198 77.4535
9766734 9.92694 9.54984 28.8715 28.9146 -0.108057 7.43746 77.2628
9766744 9.53938 9.54984 28.9502 29.4407 0.161636 7.60873 77.4801
9766754 9.53938 9.54984 28.9502 29.4407 0.161636 7.60873 77.4801
9766764 9.20466 9.63272 28.7829 29.7232 0.442314 7.69335 77.3435
9766774 9.0285 9.85374 28.6155 30.337 0.817978 7.72218 77.8347
9766784 9.0285 9.85374 28.6155 30.337 0.817978 7.72218 77.8347
9766794 8.77306 9.89057 28.3399 30.7266 1.12706 7.79676 77.7302
9766805 8.43834 9.97346 28.0938 31.1456 1.47676 7.88673 77.6512
9766825 8.25337 10.1392 27.9166 31.4963 1.75614 7.90824 77.8055
9766846 7.94508 10.0287 27.8182 32.0029 2.01437 8.06877 77.7948
9766857 7.6544 9.80769 27.7493 32.5777 2.24378 8.26559 77.789
9766865 7.6544 9.80769 27.7493 32.5777 2.24378 8.26559 77.789
9766877 7.24922 9.54063 27.6508 33.3181 2.55875 8.52233 77.7587
9766886 6.9057 9.42091 27.5721 33.9123 2.84518 8.70528 77.811
9766906 6.62383 9.21831 27.4343 34 2.96345 8.84981 77.2764
9766916 6.62383 9.21831 27.4343 34 2.96345 8.84981 77.2764
9766927 6.25389 8.9052 27.3752 34 3.03005 9.05793 76.5343
9766940 6.04249 8.73944 27.5032 34 3.01296 9.18684 76.2851
9766960 5.78705 8.37107 27.5426 34 2.98592 9.38917 75.7007
9766980 5.61969 8.25135 27.6213 34 2.98386 9.48777 75.4924
9766990 5.48756 8.00271 27.6902 34 2.93458 9.61685 75.1805
9767001 5.29378 7.91062 27.8674 34 2.91369 9.72329 75.0718
9767010 5.29378 7.91062 27.8674 34 2.91369 9.72329 75.0718
9767022 5.28497 7.81853 28.0741 34 2.81315 9.77099 75.1776
9767029 5.28497 7.81853 28.0741 34 2.81315 9.77099 75.1776
9767045 5.17927 7.62514 28.1135 34 2.7805 9.87262 74.9179
9767051 5.07358 7.60672 28.084 34 2.82527 9.91189 74.7643
9767060 5.07358 7.60672 28.084 34 2.82527 9.91189 74.7643
9767070 5.09119 7.59751 28.0347 34 2.83431 9.90574 74.7234
9767080 5.02073 7.50542 27.9068 34 2.88109 9.95137 74.4329
9767100 4.92383 7.55146 27.9757 34 2.90525 9.97308 74.451
9767116 4.92383 7.55146 27.9757 34 2.90525 9.97308 74.451
9767120 4.92383 7.44095 27.9166 34 2.89457 10.0062 74.2814
9767130 4.87979 7.45937 27.9954 34 2.88702 10.0201 74.3345
9767141 4.87979 7.45937 27.9954 34 2.88702 10.0201 74.3345
9767150 4.89741 7.47779 27.9363 34 2.90805 10.0041 74.3115
9767166 4.84456 7.47779 28.0938 34 2.86881 10.0324 74.4162
9767170 4.84456 7.47779 28.0938 34 2.86881 10.0324 74.4162
9767181 4.83575 7.46858 28.1036 34 2.86568 10.0391 74.408
9767191 4.83575 7.46858 28.1036 34 2.86568 10.0391 74.408
9767200 4.86218 7.45016 28.0643 34 2.86505 10.0338 74.3766
9767216 4.93264 7.60672 27.956 34 2.92571 9.95028 74.4954
9767221 4.93264 7.60672 27.956 34 2.92571 9.95028 74.4954
9767231 5.00311 7.74485 27.9461 34 2.94387 9.87993 74.6941
9767242 5.02073 7.84615 27.8083 34 3.01877 9.83086 74.6752
9767265 5.28497 8.13164 27.641 34 3.0662 9.63748 75.0576
9767272 5.28497 8.13164 27.641 34 3.0662 9.63748 75.0576
9767288 5.4171 8.38028 27.5327 34 3.12971 9.50523 75.3301
9767293 5.67254 8.8039 27.641 34 3.11702 9.29443 76.1174
9767303 5.67254 8.8039 27.641 34 3.11702 9.29443 76.1174
9767313 5.81347 9.19068 27.5721 34 3.20109 9.12187 76.5762
9767322 6.08653 9.74323 27.6016 34 3.24645 8.86692 77.4314
9767335 6.08653 9.74323 27.6016 34 3.24645 8.86692 77.4314
9767344 6.34197 10.526 27.5229 33.357 3.22137 8.49128 77.7479
9767356 6.34197 10.526 27.5229 33.357 3.22137 8.49128 77.7479
9767362 6.60622 11.0785 27.3555 32.6458 3.14169 8.17069 77.6861
9767372 6.8 11.6219 27.2276 32.0029 3.08979 7.88294 77.6523
9767382 6.8 11.6219 27.2276 32.0029 3.08979 7.88294 77.6523
9767392 7.07306 11.9995 27.0898 31.3501 2.96301 7.61827 77.5124
9767402 7.25803 12.4507 26.8929 30.5513 2.86803 7.33649 77.1529
9767413 7.25803 12.4507 26.8929 30.5513 2.86803 7.33649 77.1529
9767423 7.55751 13.0769 26.6074 29.5868 2.76551 6.94268 76.8287
9767447 8.02435 13.8044 26.1349 28.4567 2.65044 6.43078 76.4204
9767454 8.65855 14.6333 25.4852 27.3266 2.56759 5.81839 76.1037
9767474 9.44249 15.5358 24.7962 26.0212 2.41382 5.11358 75.7956
9767484 10.2881 16.5119 23.9693 24.8619 2.35234 4.36946 75.6312
9767504 11.4948 17.6808 22.9751 23.5467 2.23177 3.43728 75.6974
9767517 11.4948 17.6808 22.9751 23.5467 2.23177 3.43728 75.6974
9767525 12.6927 18.9354 21.8923 22.2607 2.18097 2.47917 75.7811
9767541 13.8642 20.2191 20.78 20.8579 2.12383 1.49651 75.7212
9767555 15.071 21.3764 19.8251 19.4453 1.95647 0.559244 75.7178
9767565 16.2161 22.3295 18.8998 18.1203 1.76468 -0.302797 75.5658
9767590 17.4185 23.1854 18.0533 16.8953 1.52505 -1.12279 75.5524
9767596 18.5346 23.8661 17.315 15.8578 1.28165 -1.83158 75.5735
9767622 19.541 24.508 16.6777 14.7822 1.01693 -2.50086 75.5089
9767640 19.541 24.508 16.6777 14.7822 1.01693 -2.50086 75.5089
9767642 20.5275 25.1402 15.9602 13.9351 0.856048 -3.13098 75.563
9767647 21.4742 25.7918 15.17 12.9737 0.703228 -3.80367 75.4097
9767663 21.4742 25.7918 15.17 12.9737 0.703228 -3.80367 75.4097
9767667 22.3113 26.2878 14.3382 12.2312 0.621775 -4.39603 75.1685
9767678 22.9889 26.6476 13.7352 11.6506 0.524572 -4.8487 75.0222
9767686 22.9889 26.6476 13.7352 11.6506 0.524572 -4.8487 75.0222
9767697 23.527 27.0755 13.1529 11.1652 0.520825 -5.26245 74.9206
9767708 23.527 27.0755 13.1529 11.1652 0.520825 -5.26245 74.9206
9767717 24.075 27.4354 12.685 10.7654 0.480488 -5.61493 74.9608
9767731 24.4836 27.8146 12.4251 10.537 0.479314 -5.84695 75.2603
9767737 24.4836 27.8146 12.4251 10.537 0.479314 -5.84695 75.2603
9767747 24.8722 28.1161 12.2171 10.28 0.43278 -6.05904 75.4854
9767757 25.1014 28.1161 11.9884 10.28 0.432631 -6.15 75.4859
9767767 25.1014 28.3301 11.9884 10.0039 0.41241 -6.25251 75.4238
9767777 25.4103 28.583 11.9156 9.8421 0.362751 -6.3832 75.751
9767789 25.4103 28.583 11.9156 9.8421 0.362751 -6.3832 75.751
9767800 25.7093 28.7483 11.7492 9.59462 0.291684 -6.55272 75.8014
9767807 26.0082 28.9136 11.6245 9.4804 0.250357 -6.67206 76.0267
9767823 26.0082 28.9136 11.6245 9.4804 0.250357 -6.67206 76.0267
9767827 26.2474 29.0789 11.3749 9.271 0.23945 -6.84732 75.9722
9767838 26.2474 29.0789 11.3749 9.271 0.23945 -6.84732 75.9722
9767847 26.4267 29.1859 11.167 9.02352 0.203073 -7.00937 75.8031
9767861 26.5862 29.2832 11.0526 8.87122 0.170079 -7.11387 75.7932
9767870 26.5862 29.2832 11.0526 8.87122 0.170079 -7.11387 75.7932
9767879 26.6858 29.254 10.8343 8.67133 0.134292 -7.24383 75.4454
9767892 26.905 29.3513 10.7823 8.61422 0.0919253 -7.30835 75.6528
9767899 26.905 29.3513 10.7823 8.61422 0.0919253 -7.30835 75.6528
9767909 27.1143 29.361 10.7095 8.45241 -0.00343472 -7.39981 75.6372
9767919 27.1143 29.361 10.7095 8.45241 -0.00343472 -7.39981 75.6372
9767929 27.1741 29.3902 10.5223 8.35722 0.016889 -7.49261 75.4438
9767939 27.3933 29.4193 10.4703 8.20493 -0.0792801 -7.57818 75.4879
9767949 27.3933 29.4193 10.4703 8.20493 -0.0792801 -7.57818 75.4879
9767960 27.5129 29.4777 10.4183 8.22396 -0.0758901 -7.60548 75.6329
9767969 27.5826 29.4777 10.3976 8.1383 -0.120449 -7.64413 75.5962
9767989 27.6026 29.3513 10.4599 8.0336 -0.224547 -7.64645 75.4474
9768010 27.6026 29.3318 10.4183 8.02408 -0.220574 -7.65991 75.3768
9768020 27.6923 29.3026 10.5119 8.08119 -0.271328 -7.62061 75.588
9768030 27.6923 29.3026 10.5119 8.08119 -0.271328 -7.62061 75.588
9768040 27.772 29.2735 10.6055 8.01456 -0.359963 -7.61748 75.6655
9768050 27.8816 29.361 10.6887 8.12878 -0.355151 -7.57792 76.06
9768061 27.8816 29.361 10.6887 8.12878 -0.355151 -7.57792 76.06
9768070 28.0311 29.3513 10.7199 8.11926 -0.419968 -7.5851 76.2215
9768080 28.0311 29.3513 10.7199 8.11926 -0.419968 -7.5851 76.2215
9768090 27.9613 29.3318 10.8031 8.02408 -0.462586 -7.57998 76.1203
9768100 28.0211 29.2443 10.7719 8.05263 -0.491542 -7.57805 76.0899
9768114 28.0211 29.2443 10.7719 8.05263 -0.491542 -7.57805 76.0899
9768120 27.8417 29.0692 10.7719 8.05263 -0.492422 -7.54332 75.7355
9768130 27.772 28.9817 10.8239 8.12878 -0.4905 -7.48967 75.7063
9768142 27.772 28.9817 10.8239 8.12878 -0.4905 -7.48967 75.7063
9768150 27.7919 28.9817 10.8966 8.18589 -0.501266 -7.45314 75.8561
9768170 27.7919 28.9817 10.8966 8.18589 -0.501266 -7.45314 75.8561
9768173 27.7919 28.8455 10.9486 8.16685 -0.570324 -7.42981 75.7529
9768180 27.8019 28.8553 11.063 8.25252 -0.578199 -7.37271 75.9727
9768198 27.8019 28.8553 11.063 8.25252 -0.578199 -7.37271 75.9727
9768201 27.7421 28.7386 11.115 8.26204 -0.611827 -7.33682 75.8577
9768211 27.6524 28.6608 11.1774 8.31915 -0.610037 -7.28468 75.8097
9768227 27.6524 28.6608 11.1774 8.31915 -0.610037 -7.28468 75.8097
9768231 27.5328 28.5246 11.2398 8.5 -0.576533 -7.18714 75.7972
9768241 27.5328 28.5246 11.2398 8.5 -0.576533 -7.18714 75.7972
9768256 27.483 28.4468 11.4165 8.61422 -0.605083 -7.08902 75.9605
9768261 27.3734 28.3398 11.5309 8.78555 -0.584936 -6.98348 76.0296
9768285 27.3734 28.3398 11.5309 8.78555 -0.584936 -6.98348 76.0296
9768288 27.2339 28.262 11.6765 8.89026 -0.577834 -6.88824 76.0626
9768292 27.1542 28.2426 11.8428 9.07111 -0.551464 -6.77811 76.3106
9768309 27.1542 28.2426 11.8428 9.07111 -0.551464 -6.77811 76.3106
9768314 26.9848 28.1745 11.9676 9.10918 -0.547208 -6.70598 76.236
9768322 26.8751 28.087 11.9988 9.13774 -0.541809 -6.66745 76.0986
9768342 26.6559 27.9897 12.1651 9.25196 -0.51911 -6.55285 76.0627
9768358 26.6559 27.9897 12.1651 9.25196 -0.51911 -6.55285 76.0627
9768364 26.5064 27.7466 12.2899 9.32811 -0.567305 -6.45207 75.871
9768374 26.3072 27.5812 12.4043 9.46137 -0.550739 -6.3408 75.754
9768384 26.3072 27.5812 12.4043 9.46137 -0.550739 -6.3408 75.754
9768394 26.1278 27.3381 12.581 9.51848 -0.612794 -6.22633 75.5654
9768409 25.8787 27.1144 12.8514 9.70885 -0.630938 -6.042 75.5533
9768424 25.6694 26.9394 13.2673 9.96585 -0.669643 -5.80991 75.8419
9768434 25.6694 26.9394 13.2673 9.96585 -0.669643 -5.80991 75.8419
9768444 25.4103 26.6087 13.6832 10.1848 -0.757717 -5.56441 75.887
9768460 25.0715 26.4142 14.0575 10.6036 -0.693147 -5.28413 76.1468
9768465 25.0715 26.4142 14.0575 10.6036 -0.693147 -5.28413 76.1468
9768475 24.5035 26.0446 14.6502 10.9653 -0.703673 -4.91036 76.1636
9768486 23.7362 25.5778 15.3988 11.4698 -0.685009 -4.41941 76.1826
9768495 23.7362 25.5778 15.3988 11.4698 -0.685009 -4.41941 76.1826
9768509 22.5803 24.897 16.4801 12.1551 -0.659651 -3.71334 76.1125
9768516 22.5803 24.897 16.4801 12.1551 -0.659651 -3.71334 76.1125
9768526 21.1852 23.8856 17.9745 13.1069 -0.711477 -2.75553 76.1523
9768536 19.5909 22.7477 20.0023 14.4395 -0.783379 -1.54272 76.7804
9768546 19.5909 22.7477 20.0023 14.4395 -0.783379 -1.54272 76.7804
9768559 18.146 21.5029 22.0793 15.972 -0.884949 -0.308395 77.7002
9768566 17.01 20.5789 23.6838 17.4968 -0.830908 0.683979 78.7696
9768587 15.9606 19.3633 24.9832 18.7049 -0.90989 1.5879 79.012
9768596 15.9606 19.3633 24.9832 18.7049 -0.90989 1.5879 79.012
9768609 14.7979 17.9239 26.066 19.9324 -0.955169 2.52982 78.7202
9768617 13.6617 16.5948 27.2177 21.2086 -0.977336 3.46388 78.6828
9768626 13.6617 16.5948 27.2177 21.2086 -0.977336 3.46388 78.6828
9768636 12.5694 15.2319 28.4186 22.4653 -1.04559 4.40032 78.6853
9768646 11.5653 13.8321 29.403 23.5759 -1.13564 5.27869 78.3763
9768667 10.7197 12.6441 30.2791 24.4625 -1.24583 6.02605 78.1053
9768677 10.7197 12.6441 30.2791 24.4625 -1.24583 6.02605 78.1053
9768689 10.0326 11.5206 30.7713 25.086 -1.35556 6.64717 77.4105
9768697 9.54819 10.6549 31.1552 25.651 -1.42757 7.12961 77.0093
9768713 9.54819 10.6549 31.1552 25.651 -1.42757 7.12961 77.0093
9768717 9.1342 10.0195 31.421 26.1771 -1.4197 7.51338 76.7517
9768729 8.99326 9.62351 31.6867 26.4401 -1.50383 7.72248 76.7436
9768739 8.99326 9.62351 31.6867 26.4401 -1.50383 7.72248 76.7436
9768749 8.85233 9.43933 31.9033 26.6837 -1.50648 7.86213 76.8786
9768763 8.85233 9.43933 31.9033 26.6837 -1.50648 7.86213 76.8786
9768769 8.75544 9.23673 32.0017 27.0636 -1.44594 7.9953 77.0575
9768779 8.62332 9.11701 32.1789 27.4241 -1.37735 8.11886 77.3433
9768799 8.5 8.86836 32.3167 27.7358 -1.36028 8.2699 77.4209
9768812 8.44715 8.64735 32.4545 28.2814 -1.27616 8.41087 77.8304
9768819 8.44715 8.64735 32.4545 28.2814 -1.27616 8.41087 77.8304
9768830 8.32383 8.5 32.6514 28.788 -1.17785 8.55106 78.2632
9768839 8.32383 8.5 32.6514 28.788 -1.17785 8.55106 78.2632
9768849 8.06839 8.20531 32.7302 29.2166 -1.0792 8.75853 78.2205
9768861 7.89223 8.03034 32.8581 29.616 -0.98983 8.90693 78.3967
9768869 7.89223 8.03034 32.8581 29.616 -0.98983 8.90693 78.3967
9768884 7.63679 7.7909 32.9467 29.9765 -0.898559 9.09285 78.3509
9768889 7.38135 7.66197 33.0353 30.4052 -0.748415 9.24977 78.4838
9768898 7.38135 7.66197 33.0353 30.4052 -0.748415 9.24977 78.4838
9768908 7.15233 7.43174 33.1141 30.8728 -0.624238 9.4315 78.5709
9768924 7.15233 7.43174 33.1141 30.8728 -0.624238 9.4315 78.5709
9768930 6.79119 7.01733 33.183 31.4865 -0.468379 9.72138 78.478
9768940 6.41244 6.73185 33.2716 32.2562 -0.221166 9.98769 78.672
9768951 6.41244 6.73185 33.2716 32.2562 -0.221166 9.98769 78.672
9768960 5.98964 6.3727 33.2617 32.9186 0.0127167 10.2781 78.5427
9768975 5.68135 6.03196 33.242 33.5226 0.201079 10.5223 78.478
9768980 5.68135 6.03196 33.242 33.5226 0.201079 10.5223 78.478
9768990 5.37306 5.82936 33.1928 34 0.402921 10.7131 78.3952
9769000 5.37306 5.82936 33.1928 34 0.402921 10.7131 78.3952
9769011 5.09119 5.58072 33.0747 34 0.454947 10.882 77.7466
9769023 4.95026 5.42416 32.8089 34 0.539297 10.9676 77.1833
9769034 4.95026 5.42416 32.8089 34 0.539297 10.9676 77.1833
9769046 4.85337 5.39653 32.6317 34 0.621551 11.0004 76.8816
9769051 4.74767 5.23998 32.5628 34 0.630134 11.0859 76.5505
9769061 4.74767 5.23998 32.5628 34 0.630134 11.0859 76.5505
9769072 4.54508 5.18472 32.5136 34 0.697121 11.1716 76.2434
9769081 4.43938 5.12947 32.4152 34 0.748488 11.222 75.984
9769092 4.43938 5.12947 32.4152 34 0.748488 11.222 75.984
9769102 4.38653 5.12026 32.3463 34 0.786874 11.2401 75.8531
9769122 4.29845 5.04659 32.2478 34 0.826898 11.2913 75.5929
9769132 4.31606 5.11105 32.1297 34 0.881881 11.2569 75.5568
9769153 4.32487 5.14789 32.1494 34 0.883877 11.2421 75.6221
9769163 4.29845 5.26761 32.1888 34 0.917563 11.2117 75.7548
9769173 4.29845 5.26761 32.1888 34 0.917563 11.2117 75.7548
9769183 4.28964 5.34128 32.2478 34 0.92378 11.1922 75.8787
9769205 4.34249 5.34128 32.2478 34 0.905737 11.174 75.9316
9769212 4.30725 5.44258 32.2281 34 0.956586 11.1503 75.978
9769229 4.30725 5.44258 32.2281 34 0.956586 11.1503 75.978
9769232 4.34249 5.51625 32.2872 34 0.947708 11.1159 76.1459
9769242 4.28083 5.51625 32.2675 34 0.975454 11.136 76.0646
9769254 4.28083 5.47941 32.2675 34 0.963816 11.1487 76.0278
9769264 4.37772 5.58072 32.1986 34 0.986248 11.0771 76.157
9769284 4.33368 5.47941 32.1691 34 0.979394 11.1255 75.9822
9769294 4.3601 5.52546 32.1395 34 0.995001 11.0991 76.0251
9769304 4.3601 5.52546 32.1395 34 0.995001 11.0991 76.0251
9769315 4.42176 5.5623 32.1592 34 0.978845 11.0663 76.1433
9769328 4.43938 5.57151 32.051 34 1.01272 11.0515 76.0618
9769352 4.54508 5.6636 31.982 34 1.02915 10.9803 76.1907
9769355 4.54508 5.6636 31.982 34 1.02915 10.9803 76.1907
9769365 4.61554 5.64518 32.0214 34 0.985882 10.9647 76.2822
9769376 4.66839 5.62676 32.11 34 0.93199 10.9577 76.4052
9769385 4.66839 5.62676 32.11 34 0.93199 10.9577 76.4052
9769400 4.73005 5.70043 32.051 34 0.954291 10.9086 76.4814
9769406 4.73005 5.68201 32.1199 34 0.925136 10.9185 76.5319
9769416 4.73005 5.68201 32.1199 34 0.925136 10.9185 76.5319
9769426 4.79171 5.73727 32.11 34 0.924969 10.8785 76.639
9769436 4.79171 5.73727 32.11 34 0.924969 10.8785 76.639
9769449 4.82694 5.64518 32.1494 34 0.870788 10.8998 76.6215
9769455 4.87979 5.68201 32.1199 34 0.87451 10.8679 76.6817
9769466 4.87979 5.68201 32.1199 34 0.87451 10.8679 76.6817
9769476 4.92383 5.72806 32.1592 34 0.860873 10.8397 76.8111
9769486 4.94145 5.72806 32.1691 34 0.851634 10.8343 76.8386
9769498 4.94145 5.72806 32.1691 34 0.851634 10.8343 76.8386
9769506 5.09119 5.79252 32.0608 34 0.857934 10.7565 76.9445
9769516 5.09119 5.79252 32.0608 34 0.857934 10.7565 76.9445
9769527 5.17927 5.82936 31.982 34 0.866351 10.7104 76.9907
9769536 5.35544 5.82015 31.9525 34 0.814292 10.6531 77.1281
9769564 5.57565 6.04117 31.6474 34 0.911856 10.4894 77.2642
9769567 5.98083 6.22535 31.293 33.8344 0.900614 10.2649 77.3336
9769578 5.98083 6.22535 31.293 33.8344 0.900614 10.2649 77.3336
9769586 6.43886 6.5753 30.85 33.2791 0.831404 9.93896 77.1433
9769603 6.43886 6.5753 30.85 33.2791 0.831404 9.93896 77.1433
9769607 7.13472 7.05417 30.0921 32.0905 0.627831 9.42637 76.3715
9769618 8.20933 7.95666 29.1471 30.7461 0.44255 8.62365 76.0592
9769628 8.20933 7.95666 29.1471 30.7461 0.44255 8.62365 76.0592
9769637 9.65389 9.26436 27.9166 29.1484 0.277126 7.53063 75.9833
9769652 11.2834 10.9588 26.4007 27.2779 0.181982 6.21102 75.9209
9769668 13.0098 13.0217 24.6584 25.2905 0.211897 4.72176 75.9804
9769679 13.0098 13.0217 24.6584 25.2905 0.211897 4.72176 75.9804
9769688 14.701 15.1766 22.8668 22.9135 0.172555 3.15287 75.6579
9769709 16.4275 17.1751 21.1245 20.702 0.10775 1.63544 75.429
9769710 16.4275 17.1751 21.1245 20.702 0.10775 1.63544 75.429
9769723 18.0762 19.0521 19.4314 18.5782 0.0408232 0.175944 75.1379
9769729 19.6407 20.5984 17.9155 16.7525 -0.0684932 -1.1156 74.9071
9769739 19.6407 20.5984 17.9155 16.7525 -0.0684932 -1.1156 74.9071
9769749 21.0955 22.0183 16.5633 15.1153 -0.175552 -2.29339 74.7925
9769759 21.0955 22.0183 16.5633 15.1153 -0.175552 -2.29339 74.7925
9769771 22.4906 23.2437 15.2532 13.7256 -0.259152 -3.36396 74.7132
9769779 23.7163 24.4108 14.1095 12.4692 -0.316517 -4.32665 74.7057
9769794 23.7163 24.4108 14.1095 12.4692 -0.316517 -4.32665 74.7057
9769799 24.8921 25.5681 13.1321 11.4222 -0.344601 -5.18019 75.0145
9769809 25.8986 26.5017 12.1859 10.5179 -0.35447 -5.93105 75.1042
9769819 25.8986 26.5017 12.1859 10.5179 -0.35447 -5.93105 75.1042
9769829 26.8453 27.4256 11.3021 9.78499 -0.310773 -6.60522 75.358
9769841 26.8453 27.4256 11.3021 9.78499 -0.310773 -6.60522 75.358
9769849 27.5428 28.2231 10.6471 9.14726 -0.271145 -7.14097 75.5602
9769865 28.2304 28.8942 10.0336 8.54759 -0.271526 -7.6368 75.7058
9769879 29.0076 29.5847 9.48257 8.02408 -0.289573 -8.09847 76.0989
9769890 29.5258 30.1876 8.97309 7.472 -0.27549 -8.52203 76.1585
9769899 29.5258 30.1876 8.97309 7.472 -0.27549 -8.52203 76.1585
9769915 29.9543 30.5669 8.5156 7.16741 -0.241302 -8.82593 76.2042
9769919 29.9543 30.5669 8.5156 7.16741 -0.241302 -8.82593 76.2042
9769929 30.303 30.9073 8.22446 6.77716 -0.27654 -9.09478 76.212
9769939 30.5721 31.238 7.87095 6.50112 -0.231005 -9.34038 76.1822
9769949 30.5721 31.238 7.87095 6.50112 -0.231005 -9.34038 76.1822
9769965 30.7016 31.3839 7.56942 6.27268 -0.202337 -9.5308 75.9276
9769969 30.7016 31.3839 7.56942 6.27268 -0.202337 -9.5308 75.9276
9769979 30.7614 31.4617 7.35107 6.06327 -0.194204 -9.67948 75.6374
9769991 30.871 31.5006 7.13272 5.9776 -0.174078 -9.78935 75.4819
9769999 30.871 31.5006 7.13272 5.9776 -0.174078 -9.78935 75.4819
9770012 30.891 31.5784 6.92477 5.79675 -0.146501 -9.92431 75.1909
9770020 30.7814 31.7145 6.76881 5.73964 -0.0319958 -9.99691 75.0043
9770034 30.7814 31.7145 6.76881 5.73964 -0.0319958 -9.99691 75.0043
9770040 30.6618 31.6951 6.63364 5.58735 -0.00435859 -10.0839 74.5779
9770060 30.4426 31.6854 6.43609 5.50168 0.104097 -10.1647 74.0657
9770070 30.313 31.6854 6.3945 5.47312 0.152633 -10.1801 73.866
9770080 30.313 31.6854 6.3945 5.47312 0.152633 -10.1801 73.866
9770090 30.2732 31.8312 6.28012 5.48264 0.257421 -10.2227 73.8672
9770112 30.3329 31.8799 6.3945 5.38746 0.182408 -10.2232 73.9948
9770114 30.3329 31.8799 6.3945 5.38746 0.182408 -10.2232 73.9948
9770140 30.612 32.0355 6.49847 5.46361 0.130227 -10.1901 74.6095
9770151 30.7315 32.123 6.44648 5.48264 0.142953 -10.2145 74.7837
9770172 30.871 32.2397 6.63364 5.58735 0.106978 -10.1331 75.3317
9770182 31.1102 32.4537 6.70642 5.64446 0.0927001 -10.1192 75.9147
9770212 31.3693 32.6384 6.70642 5.78723 0.114369 -10.1006 76.5014
9770214 31.5088 32.7065 6.85199 5.81579 0.0525206 -10.057 76.8831
9770224 31.5088 32.7065 6.85199 5.81579 0.0525206 -10.057 76.8831
9770232 31.459 32.7065 6.83119 5.82531 0.0786453 -10.0575 76.822
9770249 31.459 32.7065 6.83119 5.82531 0.0786453 -10.0575 76.822
9770252 31.3195 32.5606 6.83119 5.80627 0.0706524 -10.0453 76.5176
9770263 31.2298 32.4537 6.83119 5.90146 0.0962287 -10.0013 76.4161
9770274 31.2298 32.4537 6.83119 5.90146 0.0962287 -10.0013 76.4161
9770283 31.18 32.4245 6.88318 5.80627 0.0549257 -10.0103 76.2939
9770298 31.1501 32.3078 6.7792 5.77772 0.0513792 -10.0443 76.0148
9770304 31.1501 32.3078 6.7792 5.77772 0.0513792 -10.0443 76.0148
9770314 31.0803 32.23 6.76881 5.7682 0.0491321 -10.0412 75.8473
9770334 30.8013 32.016 6.8208 5.81579 0.0694871 -9.97577 75.4539
9770349 30.6419 31.8993 6.89358 5.83483 0.0660002 -9.92687 75.2696
9770354 30.6419 31.8993 6.89358 5.83483 0.0660002 -9.92687 75.2696
9770364 30.5322 31.7729 6.88318 5.82531 0.060913 -9.91753 75.0136
9770374 30.4924 31.6659 6.94557 5.90146 0.0431329 -9.86156 75.0053
9770384 30.4924 31.6659 6.94557 5.90146 0.0431329 -9.86156 75.0053
9770399 30.4426 31.6367 7.15352 5.98712 0.00923276 -9.75911 75.2199
9770414 30.3628 31.4908 7.34067 6.03471 -0.0591353 -9.66614 75.2291
9770424 30.4127 31.4033 7.47584 6.22508 -0.0861049 -9.55714 75.5169
9770448 30.3628 31.2672 7.72538 6.3869 -0.143301 -9.41041 75.7423
9770455 30.3329 31.1699 7.93333 6.52968 -0.186497 -9.28835 75.9659
9770475 30.2632 30.9073 8.26606 6.7486 -0.286579 -9.08757 76.1852
9770485 30.2632 30.9073 8.26606 6.7486 -0.286579 -9.08757 76.1852
9770498 30.0141 30.5183 8.60917 7.07223 -0.338754 -8.82734 76.2138
9770505 29.5457 29.8473 9.03547 7.49104 -0.409284 -8.46946 75.9195
9770525 28.8083 29.0206 9.58654 8.04311 -0.441024 -7.99099 75.4586
9770536 27.7222 30.3238 10.3872 8.89978 0.360218 -7.51796 77.3329
9770548 27.7222 27.8341 10.3872 8.89978 -0.459442 -7.26906 74.8432
9770555 26.337 26.4434 11.9364 10.2609 -0.52321 -6.11844 74.9777
9770576 24.374 24.9165 14.5462 12.3931 -0.528212 -4.39813 76.2297
9770585 22.391 23.5646 18.1517 15.1058 -0.590877 -2.40454 79.2132
9770599 22.391 23.5646 18.1517 15.1058 -0.590877 -2.40454 79.2132
9770606 20.388 22.2614 21.5576 17.4384 -0.687672 -0.671218 81.6455
9770624 18.3552 21.0166 23.546 18.9387 -0.594325 0.570434 81.8565
9770627 18.3552 21.0166 23.546 18.9387 -0.594325 0.570434 81.8565
9770636 16.6389 19.7426 24.3729 19.7083 -0.484972 1.43541 80.4626
9770658 15.2912 18.7019 24.7962 20.2052 -0.373529 2.09031 78.9945
9770668 14.428 17.9628 25.0718 20.5364 -0.3207 2.54184 77.999
9770687 13.556 17.1945 25.5148 20.9748 -0.291765 3.05653 77.24
9770703 12.6927 16.2264 26.2432 21.6178 -0.355478 3.70052 76.7801
9770708 12.6927 16.2264 26.2432 21.6178 -0.355478 3.70052 76.7801
9770717 11.7679 15.1582 27.1291 22.4946 -0.406361 4.44762 76.5497
9770737 11.7679 15.1582 27.1291 22.4946 -0.406361 4.44762 76.5497
9770739 10.8342 14.0347 28.0544 23.537 -0.430614 5.24243 76.4603
9770753 10.0767 12.9572 29.0486 24.667 -0.48895 5.99648 76.7496
9770758 10.0767 12.9572 29.0486 24.667 -0.48895 5.99648 76.7496
9770767 9.31036 11.8337 29.9739 26.1089 -0.434346 6.78626 77.2269
9770777 8.63212 10.7194 31.0174 27.5507 -0.442564 7.54943 77.9196
9770787 8.63212 10.7194 31.0174 27.5507 -0.442564 7.54943 77.9196
9770799 7.91865 9.77086 31.8836 28.9633 -0.339997 8.24282 78.5364
9770807 7.91865 9.77086 31.8836 28.9633 -0.339997 8.24282 78.5364
9770823 7.2228 9.0065 32.5333 30.2395 -0.161405 8.83714 79.0021
9770827 6.64145 8.24215 32.9369 31.4476 0.035125 9.36711 79.268
9770839 6.64145 8.24215 32.9369 31.4476 0.035125 9.36711 79.268
9770850 6.13938 7.63434 33.1141 32.4413 0.259098 9.79117 79.3291
9770859 5.65492 7.10022 33.0944 33.1622 0.478753 10.157 79.0117
9770872 5.65492 7.10022 33.0944 33.1622 0.478753 10.157 79.0117
9770879 5.30259 6.75948 33.0747 33.8052 0.692707 10.4161 78.9419
9770899 5.02953 6.34507 32.9467 34 0.756118 10.6431 78.3213
9770909 4.7829 6.15168 32.8188 34 0.819907 10.781 77.7533
9770927 4.7829 6.15168 32.8188 34 0.819907 10.781 77.7533
9770932 4.61554 5.93987 32.7991 34 0.816131 10.9063 77.3545
9770939 4.47461 5.77411 32.7794 34 0.817916 11.0084 77.0281
9770955 4.47461 5.77411 32.7794 34 0.817916 11.0084 77.0281
9770959 4.30725 5.59913 32.7892 34 0.815773 11.1251 76.6956
9770969 4.30725 5.59913 32.7892 34 0.815773 11.1251 76.6956
9770979 4.17513 5.39653 32.9172 34 0.75312 11.2459 76.4889
9770989 4.02539 5.24919 32.9763 34 0.736892 11.351 76.2508
9771002 4.02539 5.24919 32.9763 34 0.736892 11.351 76.2508
9771009 3.96373 5.1571 33.0648 34 0.698465 11.4084 76.1857
9771019 3.96373 5.1571 33.0058 34 0.7184 11.4057 76.1266
9771034 3.85803 4.99133 33.0058 34 0.701174 11.5002 75.8552
9771039 3.8228 4.96371 33.1731 34 0.647637 11.5298 75.9596
9771050 3.8228 4.96371 33.1731 34 0.647637 11.5298 75.9596
9771060 3.76114 4.89924 33.1731 34 0.647792 11.5739 75.8335
9771070 3.72591 4.91766 33.0353 34 0.712359 11.5736 75.6789
9771080 3.72591 4.91766 33.0353 34 0.712359 11.5736 75.6789
9771093 3.83161 5.04659 32.9172 34 0.757888 11.486 75.7954
9771110 3.80518 5.12026 32.681 34 0.871003 11.4585 75.6064
9771128 3.84922 5.23998 32.4742 34 0.964928 11.3914 75.5634
9771141 3.8228 5.29523 32.3561 34 1.03225 11.3757 75.4741
9771163 3.88446 5.32286 32.2478 34 1.05711 11.3393 75.4551
9771166 3.88446 5.32286 32.2478 34 1.05711 11.3393 75.4551
9771171 3.91969 5.38732 32.0903 34 1.11983 11.2968 75.3973
9771191 3.90207 5.40574 31.9919 34 1.16593 11.2917 75.2997
9771193 3.90207 5.40574 31.9919 34 1.16593 11.2917 75.2997
9771201 4.00777 5.461 31.9131 34 1.17405 11.2317 75.3819
9771221 4.00777 5.47941 31.8246 34 1.21067 11.2208 75.3117
9771231 4.13109 5.55309 31.736 34 1.22184 11.1479 75.4201
9771250 4.13109 5.55309 31.736 34 1.22184 11.1479 75.4201
9771253 4.12228 5.57151 31.6769 34 1.25126 11.1416 75.3707
9771263 4.15751 5.65439 31.6277 34 1.28222 11.0981 75.4396
9771278 4.15751 5.65439 31.6277 34 1.28222 11.0981 75.4396
9771282 4.23679 5.69122 31.4997 34 1.31077 11.0513 75.4277
9771293 4.23679 5.69122 31.4997 34 1.31077 11.0513 75.4277
9771305 4.2456 5.79252 31.3717 34 1.38417 11.0066 75.4099
9771313 4.38653 5.93987 31.2831 34 1.41192 10.9027 75.6096
9771333 4.38653 5.93987 31.2831 34 1.41192 10.9027 75.6096
9771334 4.56269 6.25298 31.0764 34 1.51987 10.7246 75.8921
9771343 4.6772 6.73185 30.8205 34 1.71658 10.51 76.2296
9771361 4.6772 6.73185 30.8205 34 1.71658 10.51 76.2296
9771362 4.86218 7.30282 30.5449 34 1.92145 10.2425 76.7099
9771373 4.86218 7.30282 30.5449 34 1.92145 10.2425 76.7099
9771385 5.07358 7.86457 30.1413 34 2.15677 9.96436 77.0794
9771393 5.43471 8.37107 29.7869 33.6493 2.20046 9.63797 77.242
9771414 5.89275 8.94204 29.1569 32.9381 2.21971 9.21494 76.9298
9771424 6.51813 9.59588 28.3104 32.1977 2.27255 8.69085 76.6221
9771444 7.49585 10.3879 27.1685 31.2819 2.29434 7.97154 76.3342
9771454 7.49585 10.3879 27.1685 31.2819 2.29434 7.97154 76.3342
9771464 8.77306 11.364 26.1251 30.337 2.22028 7.11332 76.5991
9771483 10.1119 12.3402 25.062 29.2069 2.07675 6.22061 76.7209
9771485 10.1119 12.3402 25.062 29.2069 2.07675 6.22061 76.7209
9771507 11.3363 13.5374 23.9792 27.7456 1.94767 5.25816 76.5984
9771510 11.3363 13.5374 22.729 27.7456 2.39477 5.09652 75.3482
9771514 12.6751 14.7438 22.729 26.1479 1.79809 4.21871 76.2958
9771535 14.058 15.8949 21.6265 24.2384 1.46692 3.14807 75.8179
9771544 15.5378 17.1751 20.3272 22.2413 1.17936 1.96374 75.2813
9771558 17 18.5852 19.2837 20.2734 0.856662 0.792865 75.1423
9771574 18.5445 19.7134 18.2009 18.5782 0.515124 -0.295611 75.0371
9771584 18.5445 19.7134 18.2009 18.5782 0.515124 -0.295611 75.0371
9771594 19.8499 20.7346 17.187 16.8953 0.19851 -1.30624 74.6668
9771606 21.1155 21.6974 16.2618 15.6389 -0.013724 -2.19081 74.7135
9771614 21.1155 21.6974 16.2618 15.6389 -0.013724 -2.19081 74.7135
9771624 22.3013 22.4657 15.4716 14.4966 -0.271137 -2.97024 74.7352
9771634 23.4273 23.1756 14.8165 13.5353 -0.511283 -3.65244 74.9547
9771645 23.4273 23.1756 14.8165 13.5353 -0.511283 -3.65244 74.9547
9771654 24.6032 24.0509 14.1407 12.5263 -0.719123 -4.37867 75.3211
9771664 24.6032 24.0509 14.1407 12.5263 -0.719123 -4.37867 75.3211
9771677 25.6993 24.8581 13.5376 11.5364 -0.939554 -5.05413 75.6314
9771684 26.7755 25.6848 12.8098 10.6131 -1.08304 -5.73989 75.8832
9771711 27.8019 26.4434 12.1859 9.75644 -1.24299 -6.35987 76.1876
9771714 28.5492 27.1339 11.4477 9.12822 -1.2244 -6.90551 76.259
9771725 28.5492 27.1339 11.4477 9.12822 -1.2244 -6.90551 76.259
9771746 29.2667 27.7368 10.9278 8.42385 -1.32075 -7.39672 76.3552
9771760 29.7749 28.2231 10.3872 7.90034 -1.32352 -7.80827 76.2855
9771774 30.1735 28.6705 9.95046 7.57671 -1.26906 -8.11501 76.3712
9771785 30.4725 29.0011 9.58654 7.24356 -1.24971 -8.38298 76.3037
9771800 30.7116 29.1859 9.3682 6.97704 -1.28433 -8.56848 76.2428
9771816 30.9109 29.2637 9.13945 6.77716 -1.31732 -8.72466 76.0912
9771828 31.0404 29.3221 8.95229 6.5963 -1.34182 -8.85521 75.9111
9771838 31.0404 29.3221 8.95229 6.5963 -1.34182 -8.85521 75.9111
9771855 31.1301 29.2832 8.87951 6.47256 -1.40364 -8.9212 75.7654
9771868 31.1102 29.254 8.75474 6.40594 -1.39192 -8.97788 75.5249
9771881 31.0205 29.2637 8.67156 6.34882 -1.35434 -9.01615 75.3046
9771887 31.0205 29.2637 8.67156 6.34882 -1.35434 -9.01615 75.3046
9771898 31.0803 29.3415 8.69236 6.30123 -1.36905 -9.0356 75.4154
9771908 30.9209 29.3999 8.60917 6.3869 -1.24251 -9.0268 75.3168
9771917 30.9209 29.3999 8.60917 6.3869 -1.24251 -9.0268 75.3168
9771930 30.8411 29.536 8.58838 6.39642 -1.16009 -9.03487 75.362
9771955 30.7415 29.6138 8.54679 6.43449 -1.07516 -9.03426 75.3366
9771959 30.5322 29.6138 8.53639 6.37738 -1.02499 -9.03925 75.0599
9771969 30.5322 29.6138 8.53639 6.37738 -1.02499 -9.03925 75.0599
9771981 30.303 29.5944 8.44281 6.37738 -0.92819 -9.04952 74.7176
9771990 30.2134 29.6236 8.4948 6.36786 -0.909218 -9.03103 74.6996
9772002 30.2134 29.6236 8.4948 6.36786 -0.909218 -9.03103 74.6996
9772009 30.2433 29.6236 8.52599 6.41545 -0.912407 -9.0081 74.8083
9772024 30.2433 29.6236 8.52599 6.41545 -0.912407 -9.0081 74.8083
9772029 30.2931 29.5069 8.5156 6.32027 -0.998698 -9.0367 74.6358
9772039 30.3529 29.6527 8.54679 6.34882 -0.967303 -9.0339 74.9012
9772059 30.4127 29.7986 8.54679 6.40594 -0.916296 -9.03196 75.164
9772069 30.4127 29.8278 8.67156 6.47256 -0.923216 -8.97326 75.3846
9772079 30.4127 29.8278 8.67156 6.47256 -0.923216 -8.97326 75.3846
9772091 30.4725 29.7986 8.65076 6.41545 -0.96537 -9.00049 75.3373
9772098 30.4725 29.7986 8.65076 6.41545 -0.96537 -9.00049 75.3373
9772116 30.4127 29.7403 8.60917 6.41545 -0.953114 -9.00434 75.1776
9772120 30.4725 29.6819 8.72355 6.47256 -1.00912 -8.94983 75.3505
9772130 30.4725 29.6819 8.72355 6.47256 -1.00912 -8.94983 75.3505
9772140 30.5522 29.7305 8.84832 6.52016 -1.04089 -8.90553 75.6512
9772150 30.602 29.643 8.84832 6.4916 -1.09668 -8.91152 75.5849
9772170 30.5821 29.4874 8.86911 6.58679 -1.11783 -8.86065 75.5254
9772191 30.4426 29.2637 8.9211 6.5963 -1.1644 -8.81149 75.2237
9772203 30.2931 29.2248 8.99388 6.7486 -1.10069 -8.72479 75.2604
9772226 30.1934 29.147 9.08746 6.80571 -1.10594 -8.66247 75.2336
9772231 30.1038 29.0789 9.25382 6.91041 -1.11757 -8.56408 75.3469
9772258 29.8945 29.0109 9.337 7.09127 -1.0385 -8.45779 75.3336
9772272 29.5756 28.8747 9.43058 7.23404 -0.964335 -8.34435 75.115
9772282 29.0475 28.5732 9.58654 7.38634 -0.896342 -8.17386 74.5936
9772293 29.0475 28.5732 9.58654 7.38634 -0.896342 -8.17386 74.5936
9772306 28.1506 28.2134 9.7529 7.58623 -0.713651 -7.94231 73.7032
9772312 27.1542 27.7855 10.3768 7.91937 -0.623357 -7.50525 73.2358
9772322 27.1542 27.7855 10.3768 7.91937 -0.623357 -7.50525 73.2358
9772333 26.2274 27.1047 11.4165 8.47144 -0.706026 -6.85143 73.2201
9772355 25.1712 25.9279 13.3193 9.47088 -1.04603 -5.7469 73.8892
9772362 24.1946 24.3816 16.4593 11.4507 -1.57598 -4.05291 76.4862
9772379 24.1946 24.3816 16.4593 11.4507 -1.57598 -4.05291 76.4862
9772382 23.4074 23.1756 19.8842 14.6775 -1.67554 -2.2222 81.1447
9772393 22.5106 22.4754 22.5814 17.4676 -1.51375 -0.870873 85.0349
9772412 21.3447 21.5418 23.5559 18.4711 -1.43903 -0.151829 84.9134
9772434 19.8699 20.1802 23.5953 18.4321 -1.47813 0.361354 82.0774
9772444 18.5047 18.7797 23.7134 18.6269 -1.51064 0.952443 79.6247
9772464 17.1993 17.6808 24.0579 19.153 -1.41611 1.60022 78.091
9772480 16.1192 16.5672 24.6485 19.9519 -1.37432 2.31231 77.2867
9772484 16.1192 16.5672 24.6485 19.9519 -1.37432 2.31231 77.2867
9772494 15.0181 15.3147 25.4065 21.0527 -1.32083 3.15 76.7921
9772504 15.0181 15.3147 25.4065 21.0527 -1.32083 3.15 76.7921
9772514 13.9259 14.0807 26.1448 22.1244 -1.26698 3.98472 76.2757
9772528 13.0451 12.9664 26.9913 23.2739 -1.24417 4.76956 76.2767
9772534 13.0451 12.9664 26.9913 23.2739 -1.24417 4.76956 76.2767
9772544 12.1114 11.9074 27.8871 24.4917 -1.17786 5.56824 76.3975
9772562 11.442 11.2167 28.5269 25.3198 -1.12163 6.11487 76.5053
9772574 11.1601 11.1246 29.0191 25.8848 -1.02664 6.33887 77.1886
9772588 11.1601 11.1246 29.0191 25.8848 -1.02664 6.33887 77.1886
9772594 10.9663 10.9772 29.2652 26.3622 -0.932081 6.51348 77.571
9772604 10.7021 10.7654 29.6294 26.898 -0.855201 6.74273 77.9949
9772614 10.7021 10.7654 29.6294 26.898 -0.855201 6.74273 77.9949
9772625 10.4378 10.5628 29.905 27.2974 -0.79364 6.9438 78.2031
9772639 9.94456 10.2497 30.1118 27.6968 -0.676171 7.23325 78.0029
9772655 9.46891 9.89057 30.348 28.3106 -0.517745 7.55577 78.0181
9772665 9.46891 9.89057 30.348 28.3106 -0.517745 7.55577 78.0181
9772675 8.94041 9.56826 30.5547 28.7782 -0.36891 7.86679 77.8416
9772690 8.53523 9.47616 30.6433 29.1192 -0.187461 8.0524 77.7739
9772705 8.29741 9.39328 30.6728 29.3433 -0.0751883 8.17021 77.7068
9772717 10.2176 9.39328 30.8107 29.3433 -0.718273 7.62423 79.7648
9772727 7.96269 9.27356 30.8107 29.6355 0.0436872 8.34357 77.6824
9772743 7.59275 9.18147 30.9485 29.996 0.204664 8.52502 77.7187
9772751 7.59275 9.18147 30.9485 29.996 0.204664 8.52502 77.7187
9772769 7.24041 8.96045 31.165 30.2688 0.265276 8.73957 77.6347
9772770 7.03782 8.8039 31.2536 30.6097 0.361043 8.8839 77.7051
9772782 7.03782 8.8039 31.2536 30.6097 0.361043 8.8839 77.7051
9772785 6.82643 8.66576 31.4111 30.902 0.427422 9.02656 77.8053
9772795 6.82643 8.66576 31.6966 30.902 0.334471 9.04839 78.0908
9772805 6.52694 8.53684 31.6966 31.2917 0.514084 9.2101 78.052
9772821 6.24508 8.26977 31.9131 31.7788 0.604281 9.43213 78.2068
9772836 6.04249 7.9935 32.1297 32.1295 0.622907 9.6219 78.2952
9772847 5.76062 7.6896 32.3364 32.5679 0.689322 9.85024 78.3546
9772856 5.76062 7.6896 32.3364 32.5679 0.689322 9.85024 78.3546
9772870 5.45233 7.39491 32.6514 33.0745 0.75269 10.0948 78.5732
9772878 5.21451 7.11863 32.7302 33.5324 0.86084 10.2924 78.5957
9772898 4.96788 6.79632 32.8877 33.9513 0.919831 10.51 78.6031
9772923 4.70363 6.51083 32.868 34 0.941065 10.6913 78.0824
9772929 4.50984 6.26219 32.9566 34 0.899208 10.8424 77.7286
9772949 4.3513 6.04117 32.9369 34 0.89002 10.9682 77.3294
9772959 4.21036 5.87541 32.8483 34 0.915313 11.0671 76.9341
9772979 4.12228 5.7649 32.8483 34 0.910378 11.1346 76.7355
9772989 4.12228 5.7649 32.8483 34 0.910378 11.1346 76.7355
9773001 4.10466 5.65439 32.8975 34 0.864968 11.1807 76.6566
9773009 4.06943 5.58992 32.9467 34 0.839937 11.2173 76.6061
9773023 4.06943 5.58992 32.9467 34 0.839937 11.2173 76.6061
9773029 4.09585 5.61755 32.9566 34 0.836414 11.1993 76.67
9773039 4.10466 5.70043 32.9172 34 0.872815 11.166 76.7223
9773049 4.10466 5.70043 32.9172 34 0.872815 11.166 76.7223
9773059 4.1487 5.73727 32.8877 34 0.879502 11.137 76.7736
9773069 4.1487 5.73727 32.8877 34 0.879502 11.137 76.7736
9773079 4.13109 5.78332 32.7597 34 0.943124 11.1208 76.6741
9773092 4.20155 5.93066 32.681 34 0.992069 11.0428 76.8132
9773109 4.19275 6.00433 32.612 34 1.04139 11.0172 76.8091
9773124 4.21036 5.98592 32.4939 34 1.06977 11.0114 76.6902
9773130 4.21036 5.98592 32.4939 34 1.06977 11.0114 76.6902
9773156 4.22798 5.99512 32.5333 34 1.05328 11.0043 76.7564
9773160 4.23679 6.09642 32.3167 34 1.15555 10.9557 76.6499
9773170 4.28083 6.25298 32.2281 34 1.21936 10.8832 76.7619
9773191 4.457 6.34507 32.051 34 1.2482 10.7834 76.853
9773200 4.52746 6.45558 32.0608 34 1.25491 10.7233 77.0438
9773225 4.52746 6.45558 32.0608 34 1.25491 10.7233 77.0438
9773227 4.72124 6.53846 32.0017 34 1.2346 10.6279 77.2614
9773230 4.72124 6.53846 32.0017 34 1.2346 10.6279 77.2614
9773240 4.89741 6.70423 31.6572 34 1.34276 10.495 77.2588
9773258 5.24974 6.93445 31.4406 33.5519 1.22962 10.2638 77.1767
9773260 5.24974 6.93445 31.4406 33.5519 1.22962 10.2638 77.1767
9773271 5.64611 7.30282 31.0567 32.9284 1.14654 9.95064 76.934
9773285 6.11295 7.76327 30.5547 32.0808 1.03788 9.55918 76.5117
9773291 6.11295 7.76327 30.5547 32.0808 1.03788 9.55918 76.5117
9773301 6.80881 8.42633 29.8755 31.0481 0.915897 8.99867 76.1588
9773313 6.80881 8.42633 29.8755 31.0481 0.915897 8.99867 76.1588
9773321 7.79534 9.55905 28.8321 29.6453 0.849548 8.13438 75.8317
9773342 9.20466 11.1246 27.5524 27.9794 0.773421 6.96059 75.861
9773351 10.799 12.9664 25.9577 26.255 0.811002 5.61623 75.9781
9773370 12.3756 14.6517 24.5304 24.6963 0.800583 4.36686 76.254
9773380 12.3756 14.6517 24.5304 24.6963 0.800583 4.36686 76.254
9773381 13.7409 16.0699 23.0834 23.2837 0.830042 3.26005 76.1779
9773400 13.7409 16.0699 23.0834 23.2837 0.830042 3.26005 76.1779
9773402 15.0446 17.4668 21.6265 21.8418 0.867856 2.16314 75.9797
9773412 16.3922 18.9354 20.3075 20.3123 0.83873 1.04524 75.9474
9773432 17.5979 20.2094 18.9983 18.8315 0.808051 0.0044632 75.6371
9773442 18.8136 21.2208 17.8466 17.4481 0.666675 -0.943805 75.3291
9773464 19.9994 22.2712 16.6985 16.1719 0.580636 -1.87652 75.1409
9773481 21.0657 23.2729 15.7107 15.0487 0.514406 -2.71228 75.098
9773485 21.0657 23.2729 15.7107 15.0487 0.514406 -2.71228 75.098
9773494 21.9725 24.2649 14.8373 13.8589 0.438395 -3.51133 74.9335
9773515 22.959 25.1304 13.9431 12.9737 0.400642 -4.23417 75.0062
9773532 23.9953 26.0835 13.0801 12.0694 0.358081 -4.97072 75.2284
9773536 23.9953 26.0835 13.0801 12.0694 0.358081 -4.97072 75.2284
9773546 24.8921 26.7935 12.4667 11.2128 0.214764 -5.57411 75.3651
9773559 25.7491 27.5326 11.8636 10.5845 0.166517 -6.10728 75.7299
9773583 26.3769 28.3787 11.4789 10.023 0.178957 -6.54108 76.2575
9773596 27.1741 28.9914 10.9694 9.54703 0.128758 -6.97343 76.682
9773610 27.8517 29.6527 10.4703 9.04255 0.121161 -7.39929 77.0173
9773618 27.8517 29.6527 10.4703 9.04255 0.121161 -7.39929 77.0173
9773628 28.4297 30.2265 9.97125 8.48096 0.0994027 -7.82093 77.1084
9773637 28.8781 30.7128 9.51376 8.04311 0.117984 -8.17276 77.1478
9773648 28.8781 30.7128 9.51376 8.04311 0.117984 -8.17276 77.1478
9773663 29.2767 31.2283 9.14985 7.63382 0.140887 -8.48533 77.2886
9773667 29.2767 31.2283 9.14985 7.63382 0.140887 -8.48533 77.2886
9773678 29.6653 31.5103 8.77554 7.29115 0.116718 -8.75989 77.2423
9773690 29.8746 31.841 8.4844 6.98656 0.151759 -8.98691 77.1865
9773697 29.8746 31.841 8.4844 6.98656 0.151759 -8.98691 77.1865
9773715 30.0539 32.0452 8.18287 6.65342 0.150067 -9.21477 76.9354
9773717 30.2433 32.1327 7.90214 6.42497 0.134379 -9.3964 76.7031
9773727 30.2433 32.1327 7.90214 6.42497 0.134379 -9.3964 76.7031
9773741 30.2333 32.2494 7.6526 6.2346 0.195801 -9.54476 76.3699
9773757 30.2333 32.1424 7.35107 5.93953 0.16441 -9.73058 75.6663
9773768 30.1436 32.1619 7.11193 5.77772 0.227433 -9.85752 75.1952
9773791 30.1237 32.0841 6.7896 5.56831 0.247812 -10.028 74.5657
9773804 29.9941 32.0646 6.69602 5.45409 0.279135 -10.0881 74.2089
9773815 29.9941 32.0646 6.69602 5.45409 0.279135 -10.0881 74.2089
9773819 29.8945 32.016 6.3633 5.21613 0.331455 -10.2731 73.4899
9773829 29.8347 31.9674 6.31132 5.19709 0.34731 -10.2906 73.3105
9773840 29.8347 31.9674 6.31132 5.19709 0.34731 -10.2906 73.3105
9773849 29.8347 31.8993 6.14495 5.06383 0.337079 -10.39 72.9428
9773865 29.8347 31.8993 6.14495 5.06383 0.337079 -10.39 72.9428
9773869 29.755 32.0257 6.06177 5.05431 0.433245 -10.4253 72.8968
9773879 29.9443 32.123 6.00979 4.96865 0.389329 -10.4911 73.0457
9773899 30.0739 32.2592 6.05138 4.95913 0.37258 -10.4963 73.3435
9773915 30.0739 32.2592 6.05138 4.95913 0.37258 -10.4963 73.3435
9773919 30.2632 32.4634 6.11376 5.03527 0.379595 -10.4725 73.8756
9773929 30.5721 32.6968 6.12416 5.13998 0.382555 -10.4661 74.533
9773939 30.5721 32.6968 6.12416 5.13998 0.382555 -10.4661 74.533
9773949 30.7913 32.9205 6.19694 5.13998 0.357163 -10.4682 75.0487
9773963 30.9408 33.0177 6.21774 5.13046 0.328541 -10.4792 75.3067
9773987 30.9807 33.1539 6.23853 5.19709 0.374416 -10.4603 75.5702
9774005 30.9906 33.115 6.24893 5.2542 0.373515 -10.4358 75.6087
9774016 30.9906 33.1053 6.35291 5.31131 0.354093 -10.3811 75.7601
9774027 30.9906 33.1053 6.35291 5.31131 0.354093 -10.3811 75.7601
9774039 30.7913 33.1247 6.3841 5.39698 0.444624 -10.331 75.6971
9774050 30.7116 33.0761 6.42569 5.4065 0.444755 -10.3059 75.6199
9774061 30.7614 33.0469 6.54006 5.49216 0.407955 -10.2405 75.8406
9774073 30.7614 33.0664 6.54006 5.48264 0.411174 -10.2448 75.8505
9774093 30.881 33.1636 6.63364 5.55879 0.396055 -10.2022 76.2371
9774109 30.881 33.1636 6.63364 5.55879 0.396055 -10.2022 76.2371
9774115 31.0205 33.1344 6.71682 5.54927 0.309592 -10.1848 76.421
9774124 31.0404 33.222 6.74801 5.6159 0.342384 -10.1594 76.6263
9774145 31.0404 33.222 6.74801 5.6159 0.342384 -10.1594 76.6263
9774150 31.0404 33.1344 6.71682 5.48264 0.281447 -10.208 76.3743
9774153 31.1102 33.0858 6.76881 5.53975 0.243956 -10.1734 76.5046
9774171 31.1102 33.0858 6.76881 5.53975 0.243956 -10.1734 76.5046
9774174 30.9807 32.8719 6.73761 5.47312 0.205982 -10.184 76.0632
9774198 30.9408 32.7357 6.71682 5.45409 0.175411 -10.186 75.8474
9774206 30.891 32.5412 6.69602 5.31131 0.0879854 -10.225 75.4395
9774225 30.7515 32.4439 6.70642 5.38746 0.124022 -10.181 75.2893
9774235 30.7714 32.2786 6.68563 5.38746 0.0695646 -10.1787 75.1231
9774255 30.7814 32.1035 6.76881 5.33035 -0.0387684 -10.1593 74.9841
9774265 30.7814 32.1035 6.75841 5.33035 -0.0353053 -10.1628 74.9737
9774276 30.6319 31.9479 6.75841 5.28275 -0.0534669 -10.1591 74.621
9774285 30.6518 31.8604 6.8104 5.29227 -0.103708 -10.1339 74.6149
9774303 30.6518 31.8604 6.8104 5.29227 -0.103708 -10.1339 74.6149
9774309 30.6319 31.841 6.74801 5.33035 -0.0699446 -10.1396 74.5512
9774315 30.5621 31.8118 6.8208 5.43505 -0.0455901 -10.0733 74.6298
9774336 30.5422 31.7632 6.89358 5.55879 -0.0380665 -10.0029 74.7577
9774345 30.5422 31.7632 6.89358 5.55879 -0.0380665 -10.0029 74.7577
9774360 30.4525 31.4228 7.00795 5.66349 -0.125495 -9.9006 74.5467
9774365 30.2134 31.0532 7.16391 5.94905 -0.126053 -9.71106 74.3795
9774375 30.2134 31.0532 7.16391 5.94905 -0.126053 -9.71106 74.3795
9774390 30.0739 30.7517 7.41346 6.28219 -0.152104 -9.48654 74.5212
9774395 30.034 30.7614 7.70459 6.70101 -0.0918001 -9.25317 75.201
9774405 30.034 30.7614 7.70459 6.70101 -0.0918001 -9.25317 75.201
9774421 30.1336 30.8781 8.12049 7.13886 -0.0777259 -8.99799 76.2711
9774425 30.1336 30.8781 8.12049 7.13886 -0.0777259 -8.99799 76.2711
9774435 30.1536 30.8198 8.4948 7.65286 -0.0569656 -8.71858 77.121
9774445 29.8845 30.4016 8.97309 8.00504 -0.14592 -8.40777 77.2643
9774457 29.8845 30.4016 8.97309 8.00504 -0.14592 -8.40777 77.2643
9774465 29.5158 29.5847 9.48257 8.49048 -0.299467 -8.00419 77.0735
9774475 29.0475 28.3106 10.3144 9.29003 -0.57209 -7.3582 76.9625
9774485 29.0475 28.3106 10.3144 9.29003 -0.57209 -7.3582 76.9625
9774495 28.3798 26.6962 11.4893 10.6607 -0.81327 -6.3954 77.2261
9774515 27.5029 24.79 13.0801 12.6405 -1.01023 -5.10917 78.0136
9774531 26.2573 22.8255 14.8269 14.9821 -1.03833 -3.66461 78.8918
9774536 26.2573 22.8255 14.8269 14.9821 -1.03833 -3.66461 78.8918
9774546 24.5832 20.7929 16.6985 17.1851 -1.04205 -2.17498 79.2597
9774563 22.6202 18.77 18.6734 19.153 -1.06371 -0.674812 79.2166
9774566 22.6202 18.77 18.6734 19.153 -1.06371 -0.674812 79.2166
9774576 20.4179 16.9355 20.8784 21.0138 -1.05591 0.859104 79.2456
9774596 18.8834 15.6647 22.7979 22.4069 -1.13153 2.00434 79.7528
9774606 17.578 14.6056 24.0874 23.235 -1.20268 2.85616 79.506
9774626 17.578 14.6056 24.0874 23.235 -1.20268 2.85616 79.506
9774627 16.3306 13.6387 24.8552 23.8682 -1.16877 3.57483 78.6927
9774645 15.2383 12.8099 25.5148 24.2774 -1.17737 4.1901 77.8403
9774646 15.2383 12.8099 25.5148 24.2774 -1.17737 4.1901 77.8403
9774656 14.2959 12.0823 26.194 24.8911 -1.13485 4.78425 77.4633
9774671 14.2959 12.0823 26.194 24.8911 -1.13485 4.78425 77.4633
9774681 13.3798 11.5114 26.7846 25.4659 -1.03288 5.31995 77.1417
9774687 12.5782 11.1522 27.3457 26.0602 -0.878812 5.7707 77.1363
9774711 12.5782 11.1522 27.3457 26.0602 -0.878812 5.7707 77.1363
9774712 11.8824 10.7654 27.8674 26.635 -0.761303 6.19335 77.1502
9774717 11.2041 10.4892 28.2907 27.1123 -0.61395 6.55862 77.0963
9774744 11.2041 10.4892 28.2907 27.1123 -0.61395 6.55862 77.0963
9774747 10.658 10.351 28.6451 27.5702 -0.447349 6.83843 77.2243
9774759 10.1824 10.2221 28.8616 27.9209 -0.291814 7.06946 77.187
9774776 9.79482 10.1853 29.1077 28.2814 -0.140843 7.2527 77.3692
9774787 9.36321 10.0287 29.4227 28.6126 -0.0466883 7.48639 77.4272
9774802 8.96684 9.79848 29.7279 29.0607 0.0530392 7.74105 77.5539
9774834 8.54404 9.50379 30.0921 29.4407 0.0993729 8.021 77.5806
9774836 8.54404 9.50379 30.0921 29.4407 0.0993729 8.021 77.5806
9774840 8.16529 9.17226 30.3086 29.8693 0.183088 8.29004 77.5155
9774850 7.8658 8.88678 30.7122 30.2395 0.176406 8.53218 77.7043
9774860 7.8658 8.88678 30.7122 30.2395 0.176406 8.53218 77.7043
9774881 7.55751 8.48158 31.0567 30.6195 0.156599 8.80852 77.7153
9774883 7.2228 8.23294 31.4899 31.0871 0.194591 9.05798 78.0327
9774904 6.91451 8.00271 31.8246 31.4573 0.230488 9.27721 78.1991
9774920 6.65907 7.72644 32.0706 31.8178 0.260141 9.48647 78.2739
9774933 6.39482 7.45937 32.3069 32.0516 0.258666 9.68595 78.2127
9774940 6.39482 7.45937 32.3069 32.0516 0.258666 9.68595 78.2127
9774955 6.17461 7.24756 32.4152 32.3536 0.323364 9.85023 78.1909
9774960 5.9544 7.04496 32.4939 32.5679 0.372958 10.0042 78.0612
9774970 5.9544 7.04496 32.4939 32.5679 0.372958 10.0042 78.0612
9774980 5.79586 6.90683 32.6514 32.8115 0.406513 10.1247 78.1656
9774990 5.79586 6.90683 32.6514 32.8115 0.406513 10.1247 78.1656
9775007 5.57565 6.69502 32.681 33.0063 0.463301 10.278 77.9579
9775010 5.43471 6.61213 32.6711 33.2791 0.572264 10.3664 77.997
9775020 5.43471 6.61213 32.6711 33.2791 0.572264 10.3664 77.997
9775037 5.32021 6.474 32.6711 33.3375 0.584885 10.4523 77.8028
9775040 5.18808 6.40953 32.6416 33.5616 0.688133 10.528 77.8008
9775050 5.18808 6.40953 32.6416 33.5616 0.688133 10.528 77.8008
9775065 5.16166 6.33586 32.7794 33.6493 0.655779 10.5737 77.9262
9775081 5.10881 6.31744 32.8089 33.7077 0.675961 10.6021 77.9429
9775093 5.1 6.28061 32.9172 33.9123 0.695476 10.6346 78.2101
9775102 5.1 6.28061 32.9172 33.9123 0.695476 10.6346 78.2101
9775127 5.10881 6.30823 33.0058 33.9513 0.684196 10.6298 78.3741
9775131 5.10881 6.30823 33.0058 33.9513 0.684196 10.6298 78.3741
9775143 5.05596 6.26219 33.0845 33.9903 0.673512 10.6687 78.3929
9775155 5.05596 6.26219 33.0845 33.9903 0.673512 10.6687 78.3929
9775161 5.13523 6.26219 33.0845 33.8052 0.589997 10.6325 78.2871
9775171 5.17047 6.28061 33.1633 33.6395 0.506806 10.61 78.2539
9775183 5.17047 6.28061 33.1633 33.6395 0.506806 10.61 78.2539
9775191 5.17927 6.32665 33.1239 33.4934 0.485408 10.5816 78.1233
9775210 5.17047 6.31744 33.0747 33.2693 0.430936 10.572 77.8319
9775211 5.17047 6.31744 33.0747 33.2693 0.430936 10.572 77.8319
9775221 5.32021 6.38191 33.1239 33.2011 0.364918 10.5008 78.0272
9775235 5.32021 6.38191 33.1239 33.2011 0.364918 10.5008 78.0272
9775242 5.34663 6.40032 33.0747 32.9381 0.294852 10.468 77.7598
9775262 5.4171 6.50163 33.0452 32.6946 0.236264 10.3957 77.6584
9775263 5.4171 6.50163 33.0452 32.6946 0.236264 10.3957 77.6584
9775273 5.61088 6.61213 32.7794 32.3049 0.170338 10.2567 77.3073
9775296 5.90155 6.84236 32.4841 31.8275 0.0922203 10.0384 77.0555
9775304 6.32435 7.23835 32.1297 31.3404 0.0404716 9.71808 77.0328
9775328 6.86166 7.6896 31.7064 30.7266 -0.0493094 9.32953 76.9843
9775334 7.58394 8.32503 31.0764 30.1226 -0.0689641 8.81039 77.108
9775355 8.46477 9.15385 30.1708 29.392 -0.0290737 8.15174 77.1814
9775367 9.5658 9.94583 28.9207 28.6126 0.0233501 7.4025 77.0449
9775386 10.843 10.8207 27.4933 27.765 0.0810534 6.55105 76.9221
9775396 12.2171 11.6495 26.0365 26.8006 0.0640452 5.66539 76.7037
9775406 12.2171 11.6495 26.0365 26.8006 0.0640452 5.66539 76.7037
9775416 13.5031 12.2849 24.6781 25.9822 0.0281274 4.88021 76.4483
9775429 13.5031 12.2849 24.6781 25.9822 0.0281274 4.88021 76.4483
9775436 14.6658 12.6533 23.3196 25.2126 -0.0393942 4.19501 75.8513
9775453 15.6611 13.1506 22.2467 24.443 -0.104049 3.55184 75.5014
9775456 15.6611 13.1506 22.2467 24.443 -0.104049 3.55184 75.5014
9775466 16.7974 14.0163 21.1245 23.3908 -0.170857 2.72837 75.329
9775479 18.136 15.0477 19.6184 22.2315 -0.158335 1.73248 75.0336
9775486 18.136 15.0477 19.6184 22.2315 -0.158335 1.73248 75.0336
9775496 19.6008 16.3001 18.26 20.8676 -0.230938 0.645089 75.0285
9775507 19.6008 16.3001 18.26 20.8676 -0.230938 0.645089 75.0285
9775516 20.9461 17.7586 16.8752 19.494 -0.189391 -0.466628 75.0739
9775536 22.1518 19.3146 15.5963 18.0521 -0.126921 -1.5612 75.1149
9775546 23.2679 21.0749 14.3798 16.7049 0.0438094 -2.63658 75.4276
9775563 24.3142 22.7963 13.2153 15.2391 0.167388 -3.70334 75.5649
9775568 24.3142 22.7963 13.2153 15.2391 0.167388 -3.70334 75.5649
9775578 25.3306 24.4399 12.082 13.8399 0.286436 -4.72611 75.6924
9775591 25.3306 24.4399 12.082 13.8399 0.286436 -4.72611 75.6924
9775598 26.1577 26.0835 11.1046 12.4597 0.422442 -5.67444 75.8055
9775615 26.9449 27.4645 10.2624 11.2318 0.490442 -6.50468 75.9036
9775617 26.9449 27.4645 10.2624 11.2318 0.490442 -6.50468 75.9036
9775628 27.4531 28.6997 9.50336 10.1753 0.632468 -7.21485 75.8314
9775640 27.9015 29.7695 8.95229 9.31859 0.735503 -7.78229 75.9419
9775648 27.9015 29.7695 8.95229 9.31859 0.735503 -7.78229 75.9419
9775665 28.1108 30.5572 8.44281 8.69989 0.891528 -8.21625 75.8107
9775669 28.1108 30.5572 8.44281 8.69989 0.891528 -8.21625 75.8107
9775679 28.2304 31.2769 7.94373 8.18589 1.087 -8.60248 75.6369
9775692 28.2503 31.9382 7.75658 7.84323 1.24511 -8.82498 75.7883
9775699 28.2503 31.9382 7.75658 7.84323 1.24511 -8.82498 75.7883
9775709 28.2204 32.2592 7.44465 7.58623 1.38403 -9.02829 75.5104
9775719 28.0709 32.2592 7.26789 7.58623 1.49851 -9.07291 75.1842
9775729 28.0709 32.6482 7.26789 7.46249 1.58114 -9.14295 75.4495
9775746 27.9314 32.7843 7.08073 7.34826 1.70352 -9.23952 75.1447
9775747 27.9314 32.7843 7.08073 7.34826 1.70352 -9.23952 75.1447
9775759 27.7222 32.8816 7.01835 7.30067 1.81578 -9.26649 74.9228
9775772 27.6225 33.0372 7.04954 7.32923 1.89715 -9.25144 75.0385
9775779 27.6225 33.0372 7.04954 7.32923 1.89715 -9.25144 75.0385
9775789 27.5727 33.2317 6.93517 7.32923 2.01584 -9.29947 75.0688
9775799 27.5727 33.2317 6.93517 7.32923 2.01584 -9.29947 75.0688
9775809 27.5229 33.4943 6.87278 7.31019 2.13059 -9.34191 75.2001
9775819 27.5229 33.8736 6.75841 7.2626 2.27232 -9.42264 75.4174
9775842 27.5727 34 6.67523 7.27212 2.32528 -9.45948 75.52
9775853 27.5029 34 6.62324 7.14838 2.3322 -9.51145 75.2746
9775864 27.5029 34 6.62324 7.14838 2.3322 -9.51145 75.2746
9775871 27.3335 34 6.3737 7.03415 2.45076 -9.6183 74.7414
9775880 27.3136 34 6.35291 7.01512 2.45998 -9.63 74.6816
9775890 27.3136 34 6.35291 7.01512 2.45998 -9.63 74.6816
9775900 27.4033 34 6.15535 6.87234 2.45654 -9.74908 74.431
9775910 27.4033 34 6.15535 6.87234 2.45654 -9.74908 74.431
9775920 27.2737 34 6.03058 6.65342 2.48422 -9.8549 73.9577
9775943 27.2239 34 5.90581 6.61534 2.53767 -9.90631 73.7451
9775946 27.2239 34 5.90581 6.61534 2.53767 -9.90631 73.7451
9775950 27.0346 34 5.80184 6.52968 2.62153 -9.95754 73.3661
9775967 26.8652 34 5.62508 6.48208 2.73796 -10.0226 72.9723
9775972 26.8652 34 5.62508 6.48208 2.73796 -10.0226 72.9723
9775981 26.6958 34 5.58349 6.36786 2.78352 -10.0646 72.6471
9776001 26.5961 34 5.5211 6.36786 2.84563 -10.0794 72.4851
9776017 26.5961 34 5.45872 6.33931 2.86089 -10.1109 72.3941
9776021 26.5961 34 5.45872 6.33931 2.86089 -10.1109 72.3941
9776031 26.6161 34 5.37554 6.30123 2.8736 -10.1544 72.2928
9776041 26.6161 34 5.38593 6.30123 2.86959 -10.1508 72.3032
9776062 26.5264 34 5.38593 6.25364 2.88964 -10.1613 72.1659
9776063 26.4566 34 5.32355 6.20605 2.92621 -10.1951 71.9862
9776071 26.4566 34 5.32355 6.20605 2.92621 -10.1951 71.9862
9776088 26.4666 34 5.32355 6.20605 2.92234 -10.1957 71.9962
9776091 26.5363 34 5.37554 6.27268 2.89563 -10.159 72.1846
9776101 26.5363 34 5.37554 6.27268 2.89563 -10.159 72.1846
9776114 26.636 34 5.35474 6.32979 2.88267 -10.153 72.3205
9776123 26.5164 34 5.5107 6.36786 2.88029 -10.0776 72.395
9776141 26.5164 34 5.5107 6.36786 2.88029 -10.0776 72.395
9776143 26.3968 34 5.5107 6.51064 2.96994 -10.02 72.4182
9776153 26.3968 34 5.5107 6.51064 2.96994 -10.02 72.4182
9776167 26.0979 34 5.63547 6.48208 3.02869 -9.96608 72.2154
9776173 25.6794 34 5.74985 6.66293 3.20205 -9.83462 72.0921
9776197 25.6794 34 5.74985 6.66293 3.20205 -9.83462 72.0921
9776199 25.2907 34 5.9682 6.8533 3.32619 -9.66602 72.1122
9776203 24.9818 34 6.28012 6.99608 3.36784 -9.488 72.258
9776213 24.9818 34 6.28012 6.99608 3.36784 -9.488 72.258
9776227 25.2509 34 6.58165 7.2626 3.22527 -9.31799 73.0951
9776242 25.6993 34 6.7896 7.42441 3.02229 -9.2308 73.9133
9776254 26.1079 34 7.07034 7.58623 2.81151 -9.1189 74.7644
9776276 26.2972 34 7.11193 7.65286 2.74565 -9.09896 75.062
9776285 26.4367 34 7.2263 7.65286 2.65212 -9.0733 75.3158
9776302 26.4367 34 7.2263 7.65286 2.65212 -9.0733 75.3158
9776305 26.3968 34 7.27829 7.6243 2.63919 -9.06267 75.2994
9776335 26.3072 34 7.36147 7.60526 2.63592 -9.03509 75.2739
9776337 26.357 34 7.39266 7.55767 2.59206 -9.04427 75.3073
9776345 26.357 34 7.39266 7.55767 2.59206 -9.04427 75.3073
9776366 26.2773 34 7.53823 7.44345 2.53391 -9.02795 75.2589
9776367 26.1975 34 7.6526 7.41489 2.51271 -8.99423 75.265
9776392 26.0082 33.7082 7.82936 7.38634 2.42119 -8.90821 74.9321
9776396 26.0082 33.7082 7.82936 7.38634 2.42119 -8.90821 74.9321
9776406 25.9683 33.1442 7.91254 7.44345 2.25153 -8.81377 74.4685
9776417 25.8189 32.4731 8.26606 7.66237 2.03803 -8.56171 74.2204
9776426 25.8189 32.4731 8.26606 7.66237 2.03803 -8.56171 74.2204
9776443 25.6096 31.7826 8.64037 7.96697 1.85798 -8.26726 73.9995
9776446 25.4801 30.8198 9.337 8.54759 1.53344 -7.76752 74.1845
9776471 25.4801 30.8198 9.337 8.54759 1.53344 -7.76752 74.1845
9776472 25.1712 29.8764 10.1064 9.39474 1.33925 -7.15232 74.5488
9776476 25.1712 29.8764 10.1064 9.39474 1.33925 -7.15232 74.5488
9776495 24.8423 28.8455 11.3021 10.3751 1.02044 -6.3711 75.3651
9776498 24.5035 27.6396 12.8098 11.5459 0.611839 -5.4486 76.4988
9776508 24.5035 27.6396 12.8098 11.5459 0.611839 -5.4486 76.4988
9776520 24.0651 26.3947 14.4318 12.8785 0.249571 -4.46499 77.7701
9776528 23.4472 24.9165 16.4385 14.3919 -0.182264 -3.32094 79.1942
9776546 23.4472 24.9165 16.4385 14.3919 -0.182264 -3.32094 79.1942
9776547 22.5703 23.0881 18.575 15.9625 -0.653008 -2.08009 80.1959
9776558 22.5703 23.0881 18.575 15.9625 -0.653008 -2.08009 80.1959
9776573 21.2251 20.8707 20.6618 17.6819 -1.03626 -0.699657 80.4396
9776583 19.8798 18.7603 22.8373 19.3479 -1.4256 0.657903 80.8253
9776601 18.5147 16.9079 24.5107 20.4585 -1.75982 1.78127 80.3917
9776608 17.3089 15.1398 25.9479 21.1112 -2.20289 2.75641 79.5077
9776625 17.3089 15.1398 25.9479 21.1112 -2.20289 2.75641 79.5077
9776627 16.2249 13.7216 27.1094 21.5691 -2.55762 3.57369 78.6249
9776638 16.2249 13.7216 27.1094 21.5691 -2.55762 3.57369 78.6249
9776650 15.2472 12.4139 28.2316 21.988 -2.91373 4.34484 77.8806
9776657 14.2342 11.1983 29.5802 22.5433 -3.24697 5.16228 77.5559
9776675 14.2342 11.1983 29.5802 22.5433 -3.24697 5.16228 77.5559
9776679 13.2301 10.13 30.8008 23.0304 -3.52063 5.92123 77.1912
9776689 12.4285 9.29198 31.8639 23.7123 -3.6509 6.56996 77.2967
9776701 12.4285 9.29198 31.8639 23.7123 -3.6509 6.56996 77.2967
9776708 11.6622 8.64735 32.7105 24.2287 -3.72067 7.11267 77.2487
9776729 11.0984 8.18689 33.3799 24.6768 -3.75431 7.51945 77.342
9776739 10.7197 8.08559 33.7539 25.0762 -3.6426 7.73323 77.6354
9776750 10.7197 8.08559 33.7539 25.0762 -3.6426 7.73323 77.6354
9776760 10.3674 7.91983 34 25.4464 -3.53808 7.94236 77.7336
9776774 10.0062 7.71723 34 25.9433 -3.33017 8.15404 77.6667
9776780 10.0062 7.71723 34 25.9433 -3.33017 8.15404 77.6667
9776790 9.60984 7.54225 34 26.4011 -3.11607 8.36504 77.5532
9776802 9.60984 7.54225 34 26.4011 -3.11607 8.36504 77.5532
9776810 9.22228 7.33044 34 26.7713 -2.94878 8.57792 77.3241
9776823 9.04611 7.36728 34 27.1221 -2.75899 8.64933 77.5355
9776831 9.04611 7.36728 34 27.1221 -2.75899 8.64933 77.5355
9776847 8.79067 7.19231 34 27.4728 -2.62265 8.80951 77.4558
9776851 8.51762 7.03575 34 27.9404 -2.43292 8.97886 77.4938
9776861 8.51762 7.03575 34 27.9404 -2.43292 8.97886 77.4938
9776872 8.24456 6.90683 34 28.3496 -2.25422 9.13502 77.501
9776881 7.96269 6.81473 34 28.7685 -2.05668 9.28309 77.5459
9776897 7.96269 6.81473 34 28.7685 -2.05668 9.28309 77.5459
9776904 7.61036 6.62134 34 29.2653 -1.84642 9.49074 77.497
9776911 7.61036 6.62134 34 29.2653 -1.84642 9.49074 77.497
9776927 7.21399 6.41874 34 29.8109 -1.60903 9.71897 77.4436
9776931 6.9057 6.23456 34 30.4441 -1.36207 9.91898 77.5844
9776941 6.9057 6.23456 34 30.4441 -1.36207 9.91898 77.5844
9776955 6.52694 6.04117 34 30.8728 -1.16637 10.1312 77.4409
9776961 6.15699 5.81094 34 31.3696 -0.962153 10.3575 77.3376
9776971 6.15699 5.81094 34 31.3696 -0.962153 10.3575 77.3376
9776985 5.8399 5.68201 34 31.8178 -0.756441 10.5307 77.3397
9777012 5.58446 5.5623 34 32.1685 -0.599389 10.6748 77.3152
9777013 5.4171 5.42416 34 32.5777 -0.457023 10.799 77.4189
9777022 5.4171 5.42416 34 32.5777 -0.457023 10.799 77.4189
9777037 5.25855 5.3597 34 32.8991 -0.322418 10.8906 77.5174
9777042 5.1 5.22156 34 33.1232 -0.243795 11.0017 77.4448
9777052 5.1 5.22156 34 33.1232 -0.243795 11.0017 77.4448
9777064 5.04715 5.23077 34 33.2888 -0.170031 11.0249 77.5667
9777079 5.04715 5.23077 34 33.2888 -0.170031 11.0249 77.5667
9777089 4.95907 5.14789 34 33.3668 -0.14341 11.0863 77.4737
9777094 4.9943 5.23077 34 33.357 -0.130993 11.0461 77.5821
9777104 4.9943 5.23077 34 33.357 -0.130993 11.0461 77.5821
9777114 5.00311 5.41495 33.8917 33.3668 -0.036408 10.9764 77.6765
9777124 5.05596 5.58992 33.813 33.4642 0.0594109 10.9014 77.923
9777139 5.05596 5.58992 33.813 33.4642 0.0594109 10.9014 77.923
9777145 5.11762 5.73727 33.6358 33.5324 0.165415 10.8263 78.023
9777155 5.11762 5.73727 33.6358 33.5324 0.165415 10.8263 78.023
9777165 5.10881 5.82936 33.4488 33.6395 0.291997 10.7944 78.0265
9777175 5.13523 5.9675 33.3799 33.659 0.355586 10.7375 78.1416
9777195 5.12642 6.05959 33.1633 33.6688 0.461 10.6987 78.0181
9777205 5.17047 6.16089 33.0058 33.7077 0.542116 10.6443 78.0449
9777215 5.17047 6.16089 33.0058 33.7077 0.542116 10.6443 78.0449
9777240 5.25855 6.32665 32.8975 33.8149 0.633958 10.5611 78.2976
9777244 5.25855 6.32665 32.8975 33.8149 0.633958 10.5611 78.2976
9777255 5.23212 6.28982 32.8778 33.8539 0.649726 10.5828 78.2536
9777256 5.28497 6.32665 32.9074 34 0.679556 10.5635 78.519
9777266 5.28497 6.32665 32.9074 34 0.679556 10.5635 78.519
9777278 5.30259 6.28982 32.7892 34 0.701058 10.5631 78.3816
9777289 5.26736 6.35428 32.7499 34 0.745508 10.5513 78.3715
9777296 5.26736 6.35428 32.7499 34 0.745508 10.5513 78.3715
9777313 5.30259 6.28061 32.7006 34 0.727281 10.5611 78.2838
9777326 5.24093 6.25298 32.5727 34 0.781184 10.583 78.0666
9777338 5.28497 6.23456 32.4939 34 0.786936 10.5702 78.0135
9777346 5.28497 6.23456 32.4939 34 0.786936 10.5702 78.0135
9777362 5.29378 6.18852 32.4644 34 0.779489 10.5807 77.9467
9777366 5.27617 6.13326 32.5431 34 0.742108 10.6091 77.9526
9777376 5.27617 6.13326 32.5431 34 0.742108 10.6091 77.9526
9777388 5.32021 6.10563 32.4447 34 0.751477 10.5981 77.8705
9777412 5.33782 6.16089 32.4545 33.9318 0.738373 10.5709 77.8851
9777416 5.44352 6.15168 32.1888 33.8441 0.761163 10.5189 77.6281
9777441 5.58446 6.2714 31.9033 33.5908 0.767443 10.4017 77.35
9777448 5.89275 6.45558 31.5194 33.435 0.801525 10.2078 77.3027
9777469 6.34197 6.68581 30.9878 33.0745 0.7882 9.93018 77.0901
9777478 6.34197 6.68581 30.9878 33.0745 0.7882 9.93018 77.0901
9777498 6.98497 6.99892 30.1314 32.5387 0.789645 9.52714 76.654
9777500 7.99793 7.45016 29.3735 31.9931 0.674307 8.96674 76.8147
9777525 8.90518 7.95666 28.5761 31.1845 0.541574 8.39809 76.6225
9777529 9.94456 8.52763 27.6213 30.1908 0.377727 7.73552 76.2843
9777539 9.94456 8.52763 27.6213 30.1908 0.377727 7.73552 76.2843
9777552 11.0632 9.31961 26.6074 29.0802 0.239649 6.9616 76.0705
9777559 12.1731 9.31961 25.692 28.184 -0.119892 6.44498 75.3686
9777578 12.1731 10.13 25.692 28.184 0.147337 6.21684 76.179
9777579 13.1508 10.8759 24.5304 26.9662 0.0532836 5.4559 75.5233
9777590 13.1508 10.8759 24.5304 26.9662 0.0532836 5.4559 75.5233
9777606 14.2782 11.7232 23.4574 25.5536 -0.152944 4.60116 75.0124
9777610 15.6347 12.9204 22.2762 24.0241 -0.322784 3.5559 74.8554
9777620 15.6347 12.9204 22.2762 24.0241 -0.322784 3.5559 74.8554
9777632 17.2989 14.6333 20.8784 22.0367 -0.503495 2.20106 74.8473
9777640 19.262 16.5764 19.2444 19.8934 -0.679077 0.660083 74.9762
9777659 19.262 16.5764 19.2444 19.8934 -0.679077 0.660083 74.9762
9777661 21.3048 18.6436 17.7678 17.7404 -0.890781 -0.882665 75.4566
9777671 21.3048 18.6436 17.7678 17.7404 -0.890781 -0.882665 75.4566
9777686 23.1682 20.5011 16.2098 15.6293 -1.07522 -2.35012 75.5085
9777691 25.0317 22.2809 14.6398 13.7066 -1.21727 -3.7602 75.6589
9777701 25.0317 22.2809 14.6398 13.7066 -1.21727 -3.7602 75.6589
9777714 26.6958 24.0509 13.1425 12.0504 -1.23025 -5.04752 75.9396
9777723 28.1307 25.4514 11.978 10.6036 -1.3306 -6.10538 76.1637
9777742 28.1307 25.4514 11.978 10.6036 -1.3306 -6.10538 76.1637
9777744 29.4062 26.8518 10.8862 9.3757 -1.32806 -7.05622 76.52
9777752 30.5123 27.9703 9.90887 8.35722 -1.33348 -7.86003 76.7487
9777768 30.5123 27.9703 9.90887 8.35722 -1.33348 -7.86003 76.7487
9777772 31.2896 28.972 9.16024 7.50056 -1.29263 -8.50222 76.9223
9777801 31.9771 29.7403 8.56758 6.84378 -1.28378 -9.0056 77.1288
9777804 32.4156 30.3335 8.0789 6.35834 -1.23164 -9.38868 77.1864
9777814 32.4156 30.3335 8.0789 6.35834 -1.23164 -9.38868 77.1864
9777832 32.6647 30.8003 7.72538 6.04423 -1.14765 -9.65152 77.2347
9777844 32.8242 31.0824 7.42385 5.75868 -1.10487 -9.86988 77.0891
9777859 32.9039 31.2769 7.17431 5.56831 -1.05071 -10.0304 76.9234
9777886 32.7444 31.3644 6.93517 5.3589 -0.967331 -10.1727 76.4029
9777887 32.6747 31.4033 6.71682 5.20661 -0.914973 -10.2935 76.0014
9777912 32.6747 31.4033 6.71682 5.20661 -0.914973 -10.2935 76.0014
9777912 32.5053 31.4811 6.45688 5.04479 -0.806829 -10.4291 75.4881
9777924 32.2362 31.4325 6.21774 4.79731 -0.744523 -10.5753 74.6838
9777946 32.017 31.3839 6.07217 4.71165 -0.671858 -10.6391 74.1847
9777948 32.017 31.3839 6.07217 4.71165 -0.671858 -10.6391 74.1847
9777956 31.7679 31.2477 5.85382 4.61646 -0.597914 -10.7256 73.4859
9777979 31.728 31.2088 5.80184 4.4832 -0.627489 -10.7861 73.2219
9777980 31.728 31.2088 5.80184 4.4832 -0.627489 -10.7861 73.2219
9777985 31.7878 31.1602 5.77064 4.36898 -0.694129 -10.838 73.0876
9777995 31.7479 31.0435 5.62508 4.32139 -0.690202 -10.8977 72.7379
9778016 31.7579 31.0338 5.64587 4.3785 -0.683758 -10.87 72.816
9778041 31.8775 31.0338 5.66667 4.31187 -0.75406 -10.893 72.8898
9778046 31.8675 31.1505 5.72905 4.3785 -0.706874 -10.8533 73.1255
9778057 31.8675 31.1505 5.72905 4.3785 -0.706874 -10.8533 73.1255
9778077 31.9971 31.2866 5.85382 4.39754 -0.736636 -10.8178 73.535
9778078 32.1764 31.52 5.89541 4.54031 -0.678353 -10.7768 74.1322
9778086 32.1764 31.52 5.89541 4.54031 -0.678353 -10.7768 74.1322
9778103 32.3458 31.734 5.98899 4.62598 -0.660977 -10.7367 74.6948
9778106 32.3458 31.734 5.98899 4.62598 -0.660977 -10.7367 74.6948
9778116 32.3658 31.8799 6.10336 4.69261 -0.631872 -10.684 75.0416
9778129 32.5352 32.0257 6.28012 4.80683 -0.655246 -10.6032 75.6479
9778147 32.6448 32.2008 6.35291 4.91153 -0.619285 -10.5599 76.11
9778156 32.7943 32.337 6.51927 5.00672 -0.642422 -10.4893 76.6572
9778167 32.7943 32.337 6.51927 5.00672 -0.642422 -10.4893 76.6572
9778196 32.8441 32.4828 6.57125 5.12094 -0.588021 -10.4457 77.0191
9778199 32.8441 32.4828 6.57125 5.12094 -0.588021 -10.4457 77.0191
9778201 32.6747 32.4148 6.58165 5.17805 -0.541164 -10.4093 76.8491
9778208 32.4256 32.2494 6.58165 5.21613 -0.503989 -10.3718 76.4728
9778234 32.1366 32.0257 6.64404 5.22564 -0.502826 -10.3166 76.032
9778237 31.8077 31.7923 6.66483 5.29227 -0.459242 -10.2524 75.5572
9778249 31.8077 31.7923 6.66483 5.29227 -0.459242 -10.2524 75.5572
9778260 31.4191 31.5395 6.8 5.39698 -0.426669 -10.1313 75.1556
9778269 31.4191 31.5395 6.8 5.39698 -0.426669 -10.1313 75.1556
9778288 31.0106 31.2963 6.75841 5.43505 -0.348178 -10.0899 74.5004
9778289 30.6817 31.2185 6.85199 5.53024 -0.264169 -9.99927 74.2825
9778315 30.4426 31.0727 6.88318 5.63494 -0.20874 -9.92737 74.0333
9778319 30.2831 31.0046 7.12232 5.75868 -0.216462 -9.78985 74.1687
9778329 30.2831 31.0046 7.12232 5.75868 -0.216462 -9.78985 74.1687
9778341 30.2632 31.024 7.35107 6.01568 -0.192405 -9.62852 74.654
9778367 30.1237 30.9365 7.47584 6.2346 -0.143245 -9.499 74.7706
9778369 30.2034 31.0338 7.80856 6.4916 -0.16105 -9.32062 75.5373
9778380 30.2034 31.0338 7.80856 6.4916 -0.16105 -9.32062 75.5373
9778398 30.1436 30.9949 8.19327 6.75812 -0.191851 -9.1051 76.0899
9778400 30.0539 30.7323 8.66116 7.14838 -0.272354 -8.80793 76.5957
9778428 29.7849 30.4697 9.22263 7.58623 -0.308706 -8.45648 77.0634
9778430 29.7849 30.4697 9.22263 7.58623 -0.308706 -8.45648 77.0634
9778441 29.2866 29.9542 10.0128 8.18589 -0.374277 -7.94983 77.4396
9778460 28.6489 29.468 10.8343 8.8617 -0.370592 -7.40641 77.8128
9778461 28.6489 29.468 10.8343 8.8617 -0.370592 -7.40641 77.8128
9778471 28.0311 29.0692 11.6972 9.80403 -0.271961 -6.79357 78.6016
9778487 27.3236 28.7094 12.4667 10.575 -0.159919 -6.25825 79.0746
9778491 27.3236 28.7094 12.4667 10.575 -0.159919 -6.25825 79.0746
9778501 26.4168 28.155 13.1529 11.1747 -0.0760257 -5.74989 78.8994
9778520 26.4168 28.155 13.1529 11.1747 -0.0760257 -5.74989 78.8994
9778521 25.3007 27.1728 13.6832 11.6982 -0.036256 -5.21973 77.8549
9778539 23.9654 26.0641 14.4318 12.4406 0.0349492 -4.51686 76.9019
9778551 22.371 24.6831 15.5755 13.4496 0.0611514 -3.55464 76.0793
9778564 20.677 23.2632 17.315 15.1249 0.129613 -2.25851 76.38
9778572 20.677 23.2632 17.315 15.1249 0.129613 -2.25851 76.38
9778592 19.1723 21.5418 19.392 17.2241 0.0651389 -0.794906 77.3302
9778593 17.6278 19.6939 21.4296 19.533 0.0541151 0.697626 78.2843
9778603 17.6278 19.6939 21.4296 19.533 0.0541151 0.697626 78.2843
9778624 16.1368 17.7975 23.2212 21.7152 0.0490338 2.09243 78.8707
9778626 16.1368 17.7975 23.2212 21.7152 0.0490338 2.09243 78.8707
9778632 14.6834 16.0515 24.5796 23.5077 0.093931 3.30221 78.8222
9778656 13.3886 14.578 25.692 24.9983 0.157559 4.33343 78.6568
9778664 12.2523 13.3532 26.7649 26.0894 0.135529 5.20944 78.4598
9778674 12.2523 13.3532 26.7649 26.0894 0.135529 5.20944 78.4598
9778686 11.1689 12.3034 27.5721 27.161 0.231245 5.99592 78.2054
9778694 10.2 11.3917 28.3497 27.8332 0.217023 6.67145 77.7746
9778714 10.2 11.3917 28.3497 27.8332 0.217023 6.67145 77.7746
9778716 9.39845 10.8483 28.7041 28.4957 0.400749 7.15714 77.4466
9778725 8.89637 10.4707 28.9207 28.8756 0.49549 7.47035 77.1634
9778745 8.50881 10.1761 29.0191 29.1971 0.599885 7.71082 76.9011
9778754 8.31503 10.1576 28.9797 29.5186 0.773504 7.80015 76.971
9778775 8.20933 10.2866 28.8616 29.7427 0.959244 7.80317 77.1002
9778799 8.19171 10.3602 28.7829 29.9473 1.07817 7.79835 77.2821
9778806 8.13005 10.4339 28.7238 30.1713 1.21077 7.81016 77.4591
9778826 8.0772 10.48 28.6549 30.3662 1.32577 7.82383 77.5782
9778836 8.16529 10.3787 28.6549 30.7754 1.38951 7.86536 77.9742
9778856 8.08601 10.0748 28.8715 31.2722 1.40142 8.04224 78.3044
9778866 8.08601 10.0748 28.8715 31.2722 1.40142 8.04224 78.3044
9778880 7.80414 9.66956 29.029 31.584 1.41523 8.2868 78.0866
9778887 7.6456 9.35645 29.2258 31.9444 1.41656 8.47517 78.1723
9778908 7.6456 9.35645 29.2258 31.9444 1.41656 8.47517 78.1723
9778910 7.41658 8.97887 29.531 32.3341 1.39451 8.71505 78.2605
9778918 7.02902 8.48158 29.9444 33.0258 1.44428 9.07093 78.4808
9778939 6.65026 8.05796 30.2693 33.659 1.52521 9.38878 78.6365
9778949 6.18342 7.68039 30.5055 34 1.59229 9.69289 78.3693
9778971 6.18342 7.68039 30.5055 34 1.59229 9.69289 78.3693
9778973 5.91917 7.29361 30.6039 34 1.53261 9.90619 77.8167
9778979 5.91917 7.29361 30.6039 34 1.53261 9.90619 77.8167
9779004 5.49637 7.00813 30.7516 34 1.54038 10.1443 77.2561
9779005 5.24974 6.6766 30.8894 34 1.47673 10.3422 76.8157
9779009 5.24974 6.6766 30.8894 34 1.47673 10.3422 76.8157
9779019 5.02953 6.33586 30.8697 34 1.45491 10.5275 76.2351
9779030 4.70363 6.33586 30.7713 34 1.60299 10.6314 75.8108
9779039 4.70363 6.01354 30.7713 34 1.50309 10.7409 75.4884
9779055 4.59793 5.79252 30.6236 34 1.52337 10.8446 75.0141
9779069 4.34249 5.59913 30.4366 34 1.62011 10.9901 74.3782
9779080 4.27202 5.40574 30.2791 34 1.64103 11.0743 73.9569
9779107 4.19275 5.35049 30.1708 34 1.69131 11.1161 73.7141
9779111 4.1399 5.27681 30.0822 34 1.71931 11.1564 73.4989
9779136 4.07824 5.28602 30.0133 34 1.76977 11.1715 73.3776
9779157 4.01658 5.28602 29.905 34 1.83191 11.1879 73.2076
9779164 3.99016 5.44258 29.8755 34 1.90187 11.1398 73.3082
9779173 3.99016 5.44258 29.8755 34 1.90187 11.1398 73.3082
9779184 3.99896 5.65439 29.8657 34 1.9688 11.0609 73.519
9779191 4.16632 5.88462 29.9346 34 1.95435 10.9245 73.9855
9779212 4.16632 6.17931 29.9543 34 2.03861 10.8228 74.2999
9779253 4.19275 6.30823 30.0232 34 2.04375 10.7728 74.5241
9779257 4.28083 6.45558 30.0232 34 2.05713 10.6916 74.7596
9779259 4.28083 6.45558 30.0232 34 2.05713 10.6916 74.7596
9779263 4.33368 6.55688 29.8755 34 2.12252 10.6301 74.7661
9779286 4.38653 6.68581 29.7771 34 2.17844 10.5622 74.8494
9779292 4.48342 6.78711 29.7574 34 2.18129 10.4935 75.0279
9779303 4.48342 6.78711 29.6491 34 2.22057 10.487 74.9196
9779319 4.51865 6.85157 29.6491 34 2.22736 10.4531 75.0193
9779325 4.58031 6.96208 29.6786 34 2.22782 10.3966 75.221
9779334 4.58031 6.96208 29.6786 34 2.22782 10.3966 75.221
9779345 4.65078 7.11863 29.59 34 2.28167 10.3147 75.3595
9779354 4.74767 7.20152 29.4719 34 2.31432 10.247 75.4211
9779375 4.90622 7.33965 29.3144 34 2.35541 10.138 75.5603
9779385 5.08238 7.44095 29.088 34 2.40392 10.0312 75.6114
9779404 5.40829 7.71723 29.0585 34 2.37926 9.83139 76.184
9779421 5.40829 7.71723 29.0585 34 2.37926 9.83139 76.184
9779425 5.65492 8.00271 28.8518 34 2.44938 9.64472 76.5094
9779435 6.09534 8.45395 28.7632 34 2.45609 9.35436 77.3125
9779455 6.46528 8.87757 28.4974 33.6883 2.45173 9.06301 77.5285
9779465 7.02902 9.39328 27.7788 32.6556 2.35537 8.58977 76.8567
9779489 7.02902 9.39328 27.7788 32.6556 2.35537 8.58977 76.8567
9779491 7.90984 10.3971 26.7944 31.4086 2.32041 7.82175 76.51
9779495 7.90984 10.3971 26.7944 31.4086 2.32041 7.82175 76.51
9779505 8.98446 11.7324 25.7215 29.8986 2.26792 6.85839 76.3369
9779523 10.2528 13.4913 24.5107 28.2132 2.26923 5.68467 76.4681
9779525 10.2528 13.4913 24.5107 28.2132 2.26923 5.68467 76.4681
9779536 11.5036 15.1121 23.2704 26.4791 2.23177 4.54403 76.3652
9779549 12.6927 15.1121 22.0695 24.7158 1.69783 3.81693 74.5901
9779555 12.6927 16.604 22.0695 24.7158 2.15476 3.44795 76.082
9779565 13.785 17.8461 21.0457 23.0888 2.01418 2.47543 75.7657
9779586 14.8244 18.9743 20.1106 21.5593 1.85462 1.56449 75.4685
9779603 15.7756 19.9079 19.3723 20.3221 1.6855 0.798147 75.3779
9779606 15.7756 19.9079 19.3723 20.3221 1.6855 0.798147 75.3779
9779616 16.6741 20.6859 18.7128 19.3284 1.53426 0.135503 75.4012
9779629 17.4086 20.6859 18.1123 20.8287 1.94511 0.164827 77.0355
9779638 17.4086 21.2889 18.1123 18.3347 1.36493 -0.449224 75.1445
9779654 18.2655 21.9502 17.6005 17.4579 1.1764 -1.02773 75.2741
9779668 19.0129 22.5143 17.1083 16.5717 0.985542 -1.56513 75.2071
9779682 19.541 22.9714 16.792 15.9434 0.857753 -1.94894 75.2479
9779698 20.0791 23.3701 16.4385 15.458 0.766626 -2.29994 75.3458
9779708 20.4279 23.7981 16.1578 15.0202 0.740182 -2.59562 75.4039
9779718 20.4279 23.7981 16.1578 15.0202 0.740182 -2.59562 75.4039
9779738 20.9062 24.1871 15.8667 14.5442 0.648448 -2.91687 75.5042
9779743 20.9062 24.1871 15.8667 14.5442 0.648448 -2.91687 75.5042
9779749 21.1952 24.4788 15.6067 14.1349 0.600618 -3.16891 75.4157
9779769 21.5739 24.8484 15.4092 13.8494 0.566441 -3.40186 75.6808
9779771 21.5739 24.8484 15.4092 13.8494 0.566441 -3.40186 75.6808
9779781 21.8728 25.218 15.1076 13.4496 0.557557 -3.67495 75.648
9779800 22.2515 25.5875 14.7437 13.1165 0.564337 -3.95885 75.6992
9779801 22.2515 25.5875 14.7437 13.1165 0.564337 -3.95885 75.6992
9779812 22.5404 25.9474 14.4526 12.8119 0.582883 -4.20252 75.7523
9779828 22.7397 25.9474 14.1095 12.4882 0.526795 -4.40116 75.2848
9779830 22.7397 26.3753 14.1095 12.4882 0.665113 -4.46107 75.7128
9779840 22.9889 26.6087 13.8287 12.1741 0.649872 -4.68146 75.6004
9779854 22.9889 26.6087 13.8287 12.1741 0.649872 -4.68146 75.6004
9779860 23.228 26.9102 13.5688 11.841 0.646719 -4.90981 75.548
9779870 23.5469 27.3576 13.3505 11.5554 0.664696 -5.14413 75.8103
9779880 23.5469 27.3576 13.3505 11.5554 0.664696 -5.14413 75.8103
9779890 23.8458 27.591 12.9657 11.2699 0.677016 -5.39189 75.6724
9779904 23.8458 27.591 12.9657 11.2699 0.677016 -5.39189 75.6724
9779910 24.085 27.9022 12.6954 10.9843 0.695845 -5.61159 75.6669
9779920 24.354 28.2523 12.4667 10.7559 0.72118 -5.81252 75.8289
9779930 24.354 28.2523 12.4667 10.7559 0.72118 -5.81252 75.8289
9779940 24.6131 28.4857 12.1651 10.4608 0.715825 -6.03625 75.7248
9779952 24.9021 28.8261 11.8948 10.1372 0.714871 -6.27564 75.7602
9779976 25.1512 29.0887 11.6869 9.95633 0.727078 -6.44348 75.8831
9779981 25.1512 29.0887 11.6869 9.95633 0.727078 -6.44348 75.8831
9779991 25.3206 29.3221 11.4269 9.69933 0.750265 -6.63526 75.769
9780005 25.5897 29.4874 11.2502 9.54703 0.723106 -6.77698 75.8743
9780011 25.5897 29.4874 11.2502 9.54703 0.723106 -6.77698 75.8743
9780021 25.8388 29.6138 11.0214 9.32811 0.686571 -6.94633 75.8022
9780041 25.9484 29.6722 10.855 9.18533 0.678703 -7.05388 75.661
9780051 26.058 29.7597 10.855 9.03303 0.620717 -7.11894 75.7058
9780075 26.058 29.7597 10.855 9.03303 0.620717 -7.11894 75.7058
9780076 26.1577 29.7014 10.6887 8.9664 0.603002 -7.19149 75.5141
9780081 26.1975 29.7208 10.6575 8.98544 0.612494 -7.20119 75.5613
9780091 26.1975 29.7208 10.6575 8.98544 0.612494 -7.20119 75.5613
9780102 26.1776 29.7014 10.6367 8.98544 0.620028 -7.20324 75.5011
9780128 26.1876 29.6236 10.6471 8.92833 0.569478 -7.20998 75.3866
9780131 26.0879 29.4971 10.7407 8.97592 0.545958 -7.14496 75.3017
9780159 26.0879 29.4971 10.7407 8.97592 0.545958 -7.14496 75.3017
9780160 26.068 29.3318 11.011 9.15677 0.466329 -6.99348 75.5676
9780164 26.0979 29.2832 11.2502 9.31859 0.412682 -6.87539 75.9498
9780172 26.0979 29.2832 11.2502 9.31859 0.412682 -6.87539 75.9498
9780183 26.0281 29.1276 11.3853 9.46137 0.386661 -6.7713 76.0024
9780192 25.9584 28.8358 11.6661 9.65174 0.283501 -6.59746 76.112
9780211 25.9584 28.8358 11.6661 9.65174 0.283501 -6.59746 76.112
9780212 25.6794 28.5732 11.8844 9.89922 0.298765 -6.4053 76.0362
9780222 25.6794 28.5732 11.8844 9.89922 0.298765 -6.4053 76.0362
