12579072 16.128 17.6224 24.0382 24.6865 0.649521 2.72343 82.4752
12579082 17.1993 18.8576 23.0145 23.3324 0.599536 1.8731 82.4037
12579092 17.1993 18.8576 23.0145 23.3324 0.599536 1.8731 82.4037
12579102 18.5346 20.2969 21.8234 21.949 0.571382 0.897215 82.6039
12579112 18.5346 20.2969 21.8234 21.949 0.571382 0.897215 82.6039
12579124 19.7403 21.5612 20.6618 20.4877 0.499299 -0.0276572 82.4511
12579133 20.9361 22.738 19.6283 19.3186 0.451532 -0.858234 82.621
12579143 20.9361 22.738 19.6283 19.3186 0.451532 -0.858234 82.621
12579153 22.0123 23.7981 18.6045 18.2178 0.423259 -1.63157 82.6326
12579164 23.2181 24.897 17.4627 17.0682 0.388557 -2.4655 82.6459
12579176 23.2181 24.897 17.4627 17.0682 0.388557 -2.4655 82.6459
12579183 24.4338 26.0154 16.2826 16.0101 0.395563 -3.29154 82.7419
12579193 24.4338 26.0154 16.2826 16.0101 0.395563 -3.29154 82.7419
12579203 25.4801 27.0172 15.17 15.0677 0.433558 -4.03568 82.735
12579213 26.2474 27.7368 14.3382 14.3253 0.446641 -4.59553 82.6477
12579233 26.9349 28.4565 13.5896 13.5733 0.455862 -5.12907 82.5544
12579243 27.4531 28.9331 13.0489 13.1355 0.474301 -5.48653 82.5706
12579253 27.4531 28.9331 13.0489 13.1355 0.474301 -5.48653 82.5706
12579264 28.1108 29.4777 12.581 12.6596 0.43627 -5.85806 82.8291
12579274 28.1108 29.4777 12.581 12.6596 0.43627 -5.85806 82.8291
12579284 28.4994 29.8181 12.1651 12.374 0.460899 -6.11508 82.8567
12579294 28.7087 30.1098 11.6972 12.1741 0.5678 -6.33943 82.6899
12579316 28.8482 30.2752 11.4997 11.8886 0.550187 -6.49637 82.5116
12579326 28.898 30.3238 11.4165 11.7744 0.54107 -6.55802 82.4127
12579336 28.898 30.3238 11.4165 11.7744 0.54107 -6.55802 82.4127
12579346 29.0475 30.5086 11.4269 11.7648 0.543526 -6.59189 82.7478
12579356 29.0475 30.5086 11.4269 11.7648 0.543526 -6.59189 82.7478
12579366 28.9379 30.5669 11.2813 11.6792 0.614467 -6.64721 82.4653
12579376 28.908 30.5669 11.4997 11.841 0.603825 -6.54482 82.8156
12579386 28.908 30.5669 11.4997 11.841 0.603825 -6.54482 82.8156
12579396 28.8183 30.4308 11.6245 11.8695 0.561246 -6.48182 82.7431
12579406 28.7186 30.5378 11.77 12.0885 0.642952 -6.38837 83.1149
12579426 28.7186 30.5572 11.8532 12.2408 0.667545 -6.32997 83.3698
12579437 28.7186 30.5572 11.8532 12.2408 0.667545 -6.32997 83.3698
12579446 28.629 30.4211 12.03 12.2979 0.617668 -6.24665 83.3779
12579456 28.6688 30.4697 12.082 12.3169 0.609255 -6.23786 83.5374
12579477 28.7186 30.5475 12.0716 12.3455 0.628185 -6.24662 83.6831
12579487 28.7087 30.5475 12.0716 12.2503 0.603485 -6.26977 83.578
12579497 28.7087 30.5475 12.0716 12.2503 0.603485 -6.26977 83.578
12579507 28.6987 30.4891 12.0196 12.2598 0.608218 -6.27345 83.4672
12579528 28.7186 30.635 11.9364 12.1456 0.636882 -6.34112 83.4356
12579538 28.8183 30.8003 11.7908 12.1361 0.696415 -6.4082 83.5455
12579558 28.7984 30.9268 11.5517 12.0504 0.788197 -6.50263 83.3272
12579571 28.6987 30.9073 11.4373 11.9933 0.83234 -6.53485 83.0366
12579584 28.6987 30.9073 11.4373 11.9933 0.83234 -6.53485 83.0366
12579588 28.6987 31.0143 11.5205 11.9457 0.82376 -6.53652 83.1792
12579608 28.609 31.1018 11.3957 11.8791 0.896585 -6.58597 82.9856
12579618 28.5692 31.2769 11.3749 11.8791 0.966263 -6.60506 83.1
12579638 28.4894 31.2574 11.4373 11.9267 0.979817 -6.56646 83.1108
12579648 28.3599 31.1505 11.5621 11.9838 0.966886 -6.49521 83.0562
12579668 28.1805 31.1213 11.6972 12.0694 0.997046 -6.41672 83.0685
12579689 27.9314 31.1602 11.9988 12.1741 1.02208 -6.29056 83.2645
12579699 27.7321 30.9949 12.2899 12.3931 1.00884 -6.12229 83.4099
12579709 27.7321 30.9949 12.2899 12.3931 1.00884 -6.12229 83.4099
12579719 27.493 30.8976 12.5914 12.5549 1.00796 -5.96939 83.5369
12579729 27.1641 30.6253 12.8306 12.8119 1.03151 -5.77962 83.4319
12579749 26.6559 30.139 13.2881 13.0974 0.989547 -5.48376 83.1804
12579759 26.6559 30.139 13.2881 13.0974 0.989547 -5.48376 83.1804
12579769 26.0879 29.6333 13.8807 13.6305 0.989726 -5.08396 83.2324
12579779 25.5199 29.0498 14.619 14.2206 0.938591 -4.62721 83.4093
12579803 24.8025 28.4565 15.5651 14.925 0.899678 -4.07805 83.7491
12579812 24.095 27.8341 16.5009 15.7245 0.880152 -3.51204 84.1545
12579819 24.095 27.8341 16.5009 15.7245 0.880152 -3.51204 84.1545
12579831 23.1882 27.0561 17.5808 16.5526 0.841385 -2.86405 84.3776
12579839 23.1882 27.0561 17.5808 16.5526 0.841385 -2.86405 84.3776
12579851 22.2814 26.4434 18.5848 17.2533 0.836793 -2.28586 84.5629
12579861 21.1952 25.4903 19.6873 18.0814 0.796032 -1.58372 84.4542
12579881 19.8499 24.4205 20.967 18.9387 0.75503 -0.777789 84.1761
12579891 18.3353 23.0006 22.5912 20.1662 0.66601 0.253562 84.0932
12579912 16.4891 21.2792 24.7273 21.949 0.59559 1.58234 84.4446
12579922 14.5161 18.9548 27.326 24.3358 0.42538 3.20516 85.1327
12579932 14.5161 18.9548 27.326 24.3358 0.42538 3.20516 85.1327
12579942 12.6047 16.5119 29.9346 27.2974 0.367725 4.88405 86.3486
12579954 12.6047 16.5119 29.9346 27.2974 0.367725 4.88405 86.3486
12579962 10.9487 14.4122 32.1986 29.8206 0.310585 6.2929 87.3802
12579973 9.44249 12.6533 33.6653 31.4476 0.284684 7.39899 87.2087
12579983 9.44249 12.6533 33.6653 31.4476 0.284684 7.39899 87.2087
12579995 8.2886 11.4101 34 32.0808 0.350398 8.1107 85.7795
12580003 7.29326 10.4707 34 32.7725 0.576669 8.69598 84.5365
12580015 7.29326 10.4707 34 32.7725 0.576669 8.69598 84.5365
12580023 6.76477 9.72481 34 33.0453 0.600144 9.07807 83.5349
12580034 6.76477 9.72481 34 33.0453 0.600144 9.07807 83.5349
12580043 6.32435 9.23673 34 33.2499 0.65276 9.36267 82.8109
12580055 6.21865 8.93283 34 33.3862 0.636199 9.49289 82.5377
12580063 6.21865 8.93283 34 33.3862 0.636199 9.49289 82.5377
12580074 6.24508 8.61051 34 33.5519 0.581649 9.5919 82.4075
12580085 6.1658 8.31582 34 33.9026 0.622874 9.72655 82.3842
12580094 6.1658 8.31582 34 33.9026 0.622874 9.72655 82.3842
12580105 6.04249 7.96587 34 34 0.586337 9.87551 82.0084
12580125 5.79586 7.62514 34 34 0.561675 10.055 81.421
12580135 5.63731 7.32124 34 34 0.519997 10.1981 80.9585
12580156 5.51399 7.06338 34 34 0.480714 10.3173 80.5774
12580165 5.45233 6.85157 34 34 0.435609 10.4035 80.3039
12580177 5.45233 6.85157 34 34 0.435609 10.4035 80.3039
12580185 5.34663 6.65818 34 34 0.409833 10.4985 80.0048
12580205 5.25855 6.24377 34 34 0.30981 10.6596 79.5023
12580217 5.11762 5.94908 34 34 0.262898 10.801 79.0667
12580225 5.11762 5.94908 34 34 0.262898 10.801 79.0667
12580236 5.03834 5.68201 34 34 0.20442 10.9145 78.7204
12580244 4.85337 5.36891 34 34 0.164765 11.0795 78.2223
12580265 4.65078 5.14789 34 34 0.159743 11.2215 77.7987
12580276 4.65078 5.14789 34 34 0.159743 11.2215 77.7987
12580286 4.43938 4.89003 34 34 0.145695 11.3807 77.3294
12580295 4.36891 4.69664 34 34 0.106314 11.471 77.0656
12580315 4.23679 4.53088 34 34 0.0957698 11.5737 76.7677
12580324 4.23679 4.53088 34 34 0.0957698 11.5737 76.7677
12580336 4.08705 4.33749 34 34 0.0819236 11.693 76.4245
12580344 3.93731 4.19935 34 34 0.0860423 11.7939 76.1367
12580364 3.8228 4.08884 34 34 0.0876158 11.8734 75.9116
12580375 3.64663 4.02438 34 34 0.1248 11.9588 75.671
12580384 3.64663 4.02438 34 34 0.1248 11.9588 75.671
12580396 3.55855 3.86782 34 34 0.102505 12.0462 75.4264
12580406 3.55855 3.86782 34 34 0.102505 12.0462 75.4264
12580416 3.40881 3.77573 34 34 0.122008 12.1332 75.1845
12580426 3.32073 3.68364 34 34 0.120965 12.1984 75.0044
12580435 3.32073 3.68364 34 34 0.120965 12.1984 75.0044
12580453 3.21503 3.65601 34 34 0.147247 12.2469 74.871
12580456 3.14456 3.56392 34 34 0.140333 12.3061 74.7085
12580467 3.14456 3.56392 34 34 0.140333 12.3061 74.7085
12580477 3.10933 3.51788 34 34 0.136861 12.3359 74.6272
12580487 2.99482 3.4442 34 34 0.150922 12.405 74.439
12580497 2.99482 3.4442 34 34 0.150922 12.405 74.439
12580507 3.02124 3.4442 34 34 0.141999 12.3953 74.4654
12580517 3.02124 3.4442 34 34 0.141999 12.3953 74.4654
12580527 2.92435 3.49025 34 34 0.190118 12.414 74.4146
12580537 3.03886 3.52709 34 34 0.163686 12.3583 74.5659
12580548 3.03886 3.52709 34 34 0.163686 12.3583 74.5659
12580557 3.05648 3.63759 34 34 0.194499 12.3114 74.6941
12580570 3.04767 3.6468 34 34 0.200528 12.3113 74.6945
12580577 3.04767 3.6468 34 34 0.200528 12.3113 74.6945
12580587 3.09171 3.72969 34 34 0.213167 12.2649 74.8214
12580597 3.09171 3.72969 34 34 0.213167 12.2649 74.8214
12580607 3.12694 3.81257 34 34 0.228727 12.222 74.9395
12580617 3.24145 3.88624 34 34 0.214565 12.1538 75.1277
12580627 3.24145 3.88624 34 34 0.214565 12.1538 75.1277
12580637 3.4 4.10726 34 34 0.234166 12.0173 75.5073
12580658 3.64663 4.2454 34 34 0.197241 11.8803 75.892
12580668 3.89326 4.39274 34 34 0.163686 11.7415 76.286
12580680 3.89326 4.39274 34 34 0.163686 11.7415 76.286
12580690 4.20155 4.62297 34 34 0.137135 11.554 76.8245
12580699 4.457 4.87161 34 34 0.134042 11.3809 77.3286
12580708 4.457 4.87161 34 34 0.134042 11.3809 77.3286
12580722 4.86218 5.22156 34 34 0.115064 11.1258 78.0837
12580728 5.15285 5.41495 34 34 0.0833988 10.9648 78.5678
12580743 5.15285 5.41495 34 34 0.0833988 10.9648 78.5678
12580748 5.59326 5.79252 34 34 0.0627518 10.6973 79.3858
12580770 5.92798 6.12405 34 34 0.0612348 10.4834 80.052
12580781 6.22746 6.54767 34 34 0.0991076 10.2553 80.7751
12580800 6.55337 6.97129 34 34 0.128159 10.0231 81.5247
12580812 6.83523 7.3857 33.813 34 0.224754 9.79937 82.0339
12580820 6.83523 7.3857 33.813 34 0.224754 9.79937 82.0339
12580833 7.26684 7.90141 33.3405 34 0.392106 9.48486 82.5087
12580851 7.60155 8.32503 32.9074 34 0.548118 9.23186 82.8339
12580861 8.02435 8.77627 32.5431 34 0.66255 8.95253 83.3438
12580871 8.02435 8.77627 32.5431 34 0.66255 8.95253 83.3438
12580882 8.41192 9.27356 32.0805 34 0.830039 8.66611 83.766
12580891 8.85233 9.76165 31.4505 34 1.02862 8.35725 84.0645
12580901 8.85233 9.76165 31.4505 34 1.02862 8.35725 84.0645
12580911 9.47772 10.4247 30.9091 33.2401 0.974995 7.89636 84.0516
12580921 9.47772 10.4247 30.9091 33.2401 0.974995 7.89636 84.0516
12580931 10.0415 11.0601 30.2003 32.3828 0.956309 7.43533 83.6847
12580941 10.7285 11.7784 29.5507 31.7496 0.969142 6.94331 83.8072
12580963 11.3979 12.4231 28.9305 30.9507 0.909582 6.46224 83.7022
12580971 12.0057 13.1414 28.2021 30.0544 0.895658 5.95468 83.4036
12580982 12.0057 13.1414 28.2021 30.0544 0.895658 5.95468 83.4036
12580992 12.772 14.0163 27.3851 28.9146 0.834593 5.32774 83.0879
12581004 12.772 14.0163 27.3851 28.9146 0.834593 5.32774 83.0879
12581012 13.8114 15.2871 26.0463 27.2974 0.826883 4.41131 82.4422
12581024 15.3881 16.9816 24.1859 25.388 0.852904 3.14927 81.9435
12581032 15.3881 16.9816 24.1859 25.388 0.852904 3.14927 81.9435
12581042 17.0199 18.8576 22.2762 23.8 1.02541 1.86668 81.9537
12581052 18.6342 20.3164 20.5536 22.4848 1.10179 0.747866 81.989
12581062 18.6342 20.3164 20.5536 22.4848 1.10179 0.747866 81.989
12581072 20.0094 21.5612 19.2345 21.5593 1.17667 -0.141462 82.3644
12581100 20.9859 22.6407 18.1025 20.702 1.29026 -0.87749 82.4312
12581108 21.9326 23.8272 17.2461 20.0103 1.403 -1.53646 83.0162
12581112 21.9326 23.8272 17.2461 20.0103 1.403 -1.53646 83.0162
12581122 22.6899 24.8873 16.4801 19.2115 1.47976 -2.14107 83.2688
12581132 22.6899 24.8873 16.4801 19.2115 1.47976 -2.14107 83.2688
12581143 23.4672 25.9474 15.7835 18.2178 1.47288 -2.77165 83.4158
12581153 24.1249 26.7059 15.118 17.4092 1.46123 -3.29367 83.358
12581172 24.5434 27.3089 14.6709 16.6288 1.4201 -3.70753 83.152
12581182 24.8224 27.5618 14.2343 16.2385 1.43128 -3.96673 82.8569
12581194 24.8224 27.5618 14.2343 16.2385 1.43128 -3.96673 82.8569
12581203 25.0516 27.873 13.7456 15.8959 1.50537 -4.22992 82.566
12581223 25.2011 28.1161 13.6728 15.6674 1.48496 -4.35115 82.6574
12581233 25.3107 28.4371 13.4336 15.3628 1.53117 -4.53417 82.5442
12581243 25.3107 28.4371 13.4336 15.3628 1.53117 -4.53417 82.5442
12581254 25.4502 28.7191 13.3817 14.9726 1.47226 -4.69231 82.5235
12581263 25.5598 29.0011 13.2465 14.668 1.47403 -4.84626 82.4754
12581277 25.5598 29.0011 13.2465 14.668 1.47403 -4.84626 82.4754
12581283 25.7192 29.2735 13.1529 14.4205 1.45999 -4.98134 82.5661
12581293 25.7192 29.2735 13.1529 14.4205 1.45999 -4.98134 82.5661
12581304 25.8189 29.5263 12.9657 14.2206 1.50315 -5.11783 82.5315
12581318 25.9385 29.7305 12.8514 14.0683 1.51626 -5.22153 82.5887
12581325 25.9385 29.7305 12.8514 14.0683 1.51626 -5.22153 82.5887
12581335 25.9484 29.7889 12.737 13.8589 1.5068 -5.30917 82.3332
12581345 26.1876 29.9251 12.6642 13.8779 1.49755 -5.36638 82.6548
12581365 26.1876 30.032 12.6954 13.8113 1.49903 -5.38756 82.7263
12581374 26.3072 30.246 12.789 13.8303 1.49695 -5.39851 83.1725
12581395 26.4766 30.4502 12.841 13.8589 1.49223 -5.42176 83.6267
12581406 26.4766 30.4502 12.841 13.8589 1.49223 -5.42176 83.6267
12581416 26.6061 30.6156 12.8202 13.7352 1.46951 -5.4907 83.777
12581426 26.6559 30.6934 12.8306 13.5829 1.42955 -5.5399 83.7627
12581446 26.8751 30.8003 12.6746 13.3259 1.36731 -5.67815 83.676
12581456 27.0147 30.8879 12.6122 13.0784 1.29777 -5.78012 83.5931
12581468 27.0147 30.8879 12.6122 13.0784 1.29777 -5.78012 83.5931
12581476 27.1442 30.9365 12.4771 12.9261 1.2701 -5.87135 83.4839
12581487 27.1442 30.9365 12.4771 12.9261 1.2701 -5.87135 83.4839
12581496 27.1841 31.0143 12.3523 12.6691 1.24581 -5.98001 83.2197
12581507 27.3036 31.1213 12.1859 12.4121 1.21768 -6.1116 83.0229
12581517 27.3036 31.1213 12.1859 12.4121 1.21768 -6.1116 83.0229
12581527 27.4232 31.2963 12.0404 12.2217 1.2215 -6.22863 82.9816
12581537 27.4332 31.2866 11.978 12.0789 1.1943 -6.28127 82.7767
12581548 27.4332 31.2866 11.978 12.0789 1.1943 -6.28127 82.7767
12581557 27.5229 31.52 11.9988 11.9838 1.19907 -6.33427 83.0254
12581569 27.5229 31.52 11.9988 11.9838 1.19907 -6.33427 83.0254
12581577 27.5627 31.4714 12.03 11.9742 1.15999 -6.32778 83.0383
12581587 27.6026 31.6076 12.0508 11.9647 1.1772 -6.34323 83.2256
12581597 27.6026 31.6076 12.0508 11.9647 1.1772 -6.34323 83.2256
12581607 27.6823 31.5978 12.082 11.9362 1.1314 -6.34983 83.2982
12581617 27.6125 31.6173 12.1235 11.9933 1.16215 -6.31933 83.3466
12581637 27.5926 31.6465 12.3523 11.9838 1.10239 -6.26437 83.5751
12581647 27.5926 31.6465 12.3523 11.9838 1.10239 -6.26437 83.5751
12581657 27.3435 31.4617 12.4667 12.0218 1.10253 -6.17994 83.2937
12581667 27.1342 31.2769 12.7162 12.1646 1.07785 -6.03845 83.2919
12581677 27.1342 31.2769 12.7162 12.1646 1.07785 -6.03845 83.2919
12581687 26.7655 30.8976 13.1217 12.3645 1.0147 -5.80466 83.1493
12581697 26.4267 30.5378 13.6208 12.7357 0.967929 -5.51025 83.321
12581708 26.4267 30.5378 13.6208 12.7357 0.967929 -5.51025 83.321
12581720 25.9783 30.0418 14.1823 13.145 0.907707 -5.16383 83.3474
12581728 25.9783 30.0418 14.1823 13.145 0.907707 -5.16383 83.3474
12581740 25.4302 29.4291 14.9101 13.7161 0.839922 -4.71335 83.4855
12581748 24.6729 28.6219 15.8459 14.4966 0.777075 -4.11639 83.6373
12581761 24.6729 28.6219 15.8459 14.4966 0.777075 -4.11639 83.6373
12581768 23.7562 27.8049 16.9064 15.477 0.780094 -3.42684 83.9445
12581778 23.0985 27.0755 17.9647 16.3527 0.699806 -2.81506 84.4914
12581798 22.6401 26.4336 18.7817 17.1656 0.64027 -2.31585 85.0211
12581808 22.6401 26.4336 18.7817 17.1656 0.64027 -2.31585 85.0211
12581818 21.8529 25.5389 19.5594 17.9645 0.615656 -1.74314 84.9156
12581830 20.8365 24.3427 20.4256 18.8997 0.585869 -1.03909 84.5044
12581838 20.8365 24.3427 20.4256 18.8997 0.585869 -1.03909 84.5044
12581849 19.8001 23.127 21.6265 20.059 0.519836 -0.220105 84.6127
12581869 18.5346 21.8335 22.916 21.345 0.51043 0.689995 84.6291
12581878 17.2292 20.7443 24.1957 22.553 0.552505 1.55365 84.7222
12581889 17.2292 20.7443 24.1957 22.553 0.552505 1.55365 84.7222
12581898 16.1104 19.8106 25.2884 23.4785 0.558057 2.27527 84.6879
12581909 15.3088 18.9937 26.066 24.0825 0.503668 2.81453 84.451
12581918 15.3088 18.9937 26.066 24.0825 0.503668 2.81453 84.451
12581933 14.4808 18.0698 26.9027 24.9203 0.476032 3.42627 84.3737
12581938 14.4808 18.0698 26.9027 24.9203 0.476032 3.42627 84.3737
12581952 13.644 17.0973 27.9265 25.8848 0.417364 4.09272 84.5526
12581958 12.7192 15.987 29.1471 27.0734 0.351512 4.85965 84.9266
12581968 12.7192 15.987 29.1471 27.0734 0.351512 4.85965 84.9266
12581978 11.7855 14.8451 30.3382 28.4372 0.339165 5.64565 85.406
12581988 10.7461 13.4637 31.5883 29.8109 0.274557 6.51614 85.609
12582008 9.68912 12.0087 32.8483 31.4183 0.258711 7.42787 85.9644
12582018 9.68912 12.0087 32.8483 31.4183 0.258711 7.42787 85.9644
12582037 8.61451 10.5628 34 32.9771 0.268534 8.32222 86.1544
12582039 7.56632 9.30119 34 34 0.511056 9.03747 84.8675
12582050 7.56632 9.30119 34 34 0.511056 9.03747 84.8675
12582060 6.67668 8.15005 34 34 0.444716 9.62973 82.8267
12582070 5.91036 7.16468 34 34 0.386778 10.1619 81.075
12582080 5.91036 7.16468 34 34 0.386778 10.1619 81.075
12582089 5.27617 6.38191 34 34 0.347027 10.6095 79.6581
12582099 5.27617 6.38191 34 34 0.347027 10.6095 79.6581
12582109 4.80933 5.74648 34 34 0.298247 10.9688 78.5558
12582121 4.42176 5.24919 34 34 0.266325 11.2646 77.6709
12582131 4.42176 5.24919 34 34 0.266325 11.2646 77.6709
12582143 4.16632 4.97291 34 34 0.261408 11.4457 77.1392
12582151 3.99896 4.66901 34 34 0.218493 11.6082 76.668
12582161 3.99896 4.66901 34 34 0.218493 11.6082 76.668
12582171 3.87565 4.5493 34 34 0.220364 11.6929 76.4249
12582181 3.87565 4.5493 34 34 0.220364 11.6929 76.4249
12582191 3.73471 4.43879 34 34 0.231075 11.781 76.1735
12582202 3.70829 4.43879 34 34 0.239828 11.7903 76.1471
12582211 3.70829 4.43879 34 34 0.239828 11.7903 76.1471
12582221 3.64663 4.31907 34 34 0.221297 11.8542 75.9657
12582245 3.55855 4.31907 34 34 0.250575 11.8854 75.8776
12582247 3.55855 4.31907 34 34 0.250575 11.8854 75.8776
12582252 3.49689 4.2546 34 34 0.250065 11.9302 75.7515
12582266 3.49689 4.2546 34 34 0.250065 11.9302 75.7515
12582271 3.32953 4.11647 34 34 0.260761 12.0392 75.446
12582281 3.26788 4.02438 34 34 0.251189 12.0944 75.2923
12582291 3.26788 4.02438 34 34 0.251189 12.0944 75.2923
12582301 3.25026 3.9507 34 34 0.232857 12.1273 75.201
12582314 3.15337 3.92308 34 34 0.256309 12.1723 75.0764
12582322 3.15337 3.92308 34 34 0.256309 12.1723 75.0764
12582337 3.0829 3.83099 34 34 0.249648 12.2313 74.9139
12582342 3.0829 3.83099 34 34 0.249648 12.2313 74.9139
12582361 3.05648 3.79415 34 34 0.246385 12.2543 74.8506
12582365 3.07409 3.8494 34 34 0.258702 12.2278 74.9235
12582377 3.07409 3.8494 34 34 0.258702 12.2278 74.9235
12582385 3.11813 3.87703 34 34 0.252983 12.2018 74.9952
12582392 3.1886 3.99675 34 34 0.268719 12.1329 75.1853
12582404 3.1886 3.99675 34 34 0.268719 12.1329 75.1853
12582412 3.17098 4.03359 34 34 0.286749 12.126 75.2046
12582432 3.19741 3.99675 34 34 0.265759 12.1298 75.1942
12582446 3.15337 4.01517 34 34 0.286624 12.139 75.1685
12582453 3.15337 4.01517 34 34 0.286624 12.139 75.1685
12582463 3.11813 3.93229 34 34 0.271201 12.1817 75.0504
12582473 3.04767 3.9415 34 34 0.297984 12.2039 74.9892
12582483 3.04767 3.9415 34 34 0.297984 12.2039 74.9892
12582493 3.00363 3.93229 34 34 0.309816 12.2233 74.9359
12582503 3.00363 3.93229 34 34 0.309816 12.2233 74.9359
12582514 2.95078 3.81257 34 34 0.288174 12.2861 74.7633
12582528 2.85389 3.72048 34 34 0.290513 12.3552 74.5744
12582533 2.85389 3.72048 34 34 0.290513 12.3552 74.5744
12582555 2.80104 3.65601 34 34 0.287071 12.3983 74.457
12582557 2.6513 3.5455 34 34 0.301296 12.4944 74.1968
12582563 2.6513 3.5455 34 34 0.301296 12.4944 74.1968
12582575 2.6601 3.53629 34 34 0.295228 12.4946 74.1964
12582583 2.6601 3.53629 34 34 0.295228 12.4946 74.1964
12582593 2.62487 3.49025 34 34 0.291905 12.5247 74.1151
12582603 2.61606 3.56392 34 34 0.319445 12.5007 74.18
12582615 2.61606 3.56392 34 34 0.319445 12.5007 74.18
12582623 2.62487 3.56392 34 34 0.316438 12.4974 74.1888
12582634 2.64249 3.56392 34 34 0.310433 12.4909 74.2064
12582643 2.64249 3.58234 34 34 0.316557 12.4841 74.2248
12582657 2.73938 3.65601 34 34 0.308028 12.4211 74.3954
12582663 2.73938 3.65601 34 34 0.308028 12.4211 74.3954
12582677 2.84508 3.71127 34 34 0.290447 12.3619 74.5564
12582684 2.95959 3.85861 34 34 0.300404 12.2661 74.8182
12582705 3.02124 3.93229 34 34 0.303867 12.2169 74.9535
12582714 3.04767 3.97833 34 34 0.310114 12.1906 75.026
12582735 3.03886 4.02438 34 34 0.328231 12.1771 75.0632
12582745 3.03886 4.02438 34 34 0.328231 12.1771 75.0632
12582755 3.0829 4.08884 34 34 0.334549 12.1379 75.1717
12582767 3.13575 4.20856 34 34 0.355965 12.0757 75.3443
12582774 3.13575 4.20856 34 34 0.355965 12.0757 75.3443
12582785 3.25907 4.38353 34 34 0.371638 11.9689 75.6426
12582794 3.36477 4.38353 34 34 0.336236 11.9313 75.7483
12582805 3.36477 4.38353 34 34 0.336236 11.9313 75.7483
12582815 3.58497 4.54009 34 34 0.313663 11.798 76.1251
12582836 3.78756 4.80715 34 34 0.332788 11.6337 76.5947
12582846 4.08705 5.10184 34 34 0.328672 11.4287 77.1889
12582856 4.08705 5.10184 34 34 0.328672 11.4287 77.1889
12582866 4.34249 5.45179 34 34 0.356483 11.223 77.7943
12582876 4.58912 5.7649 34 34 0.375149 11.0357 78.354
12582887 4.58912 5.7649 34 34 0.375149 11.0357 78.354
12582896 4.98549 6.20693 34 34 0.385591 10.76 79.1924
12582906 4.98549 6.20693 34 34 0.385591 10.76 79.1924
12582916 5.47876 6.86078 33.7244 34 0.517601 10.3764 80.0639
12582926 6.22746 7.5883 33.1239 34 0.690922 9.87924 80.9397
12582947 7.02902 8.32503 32.5333 34 0.84345 9.37494 81.8873
12582958 7.80414 9.0065 31.7556 34 1.04362 8.89195 82.5663
12582967 7.80414 9.0065 31.7556 34 1.04362 8.89195 82.5663
12582977 8.79067 9.8169 30.8205 34 1.26029 8.30888 83.4281
12582996 8.79067 9.8169 30.8205 34 1.26029 8.30888 83.4281
12583006 9.75959 10.8299 29.7279 33.6103 1.47531 7.64027 83.9277
12583014 10.843 11.9442 28.3399 32.1782 1.48236 6.79385 83.3053
12583023 10.843 11.9442 28.3399 32.1782 1.48236 6.79385 83.3053
12583028 11.9881 13.3992 27.011 30.6585 1.52264 5.83013 83.0568
12583039 13.1684 14.8359 25.6329 28.9438 1.50713 4.82662 82.581
12583059 13.1684 14.8359 25.6329 28.9438 1.50713 4.82662 82.581
12583061 14.4984 16.4935 24.2154 27.3072 1.54119 3.73218 82.5145
12583068 14.4984 16.4935 24.2154 27.3072 1.54119 3.73218 82.5145
12583078 15.8461 18.0406 22.7979 25.6218 1.52429 2.64857 82.3064
12583088 17.0996 19.7037 21.3607 23.9461 1.58001 1.55344 82.1102
12583099 17.0996 19.7037 21.3607 23.9461 1.58001 1.55344 82.1102
12583110 18.6442 21.3375 20.2287 22.1146 1.39059 0.430294 82.3251
12583119 20.0094 22.8839 18.9294 20.4682 1.34077 -0.637195 82.2908
12583139 21.3845 24.3038 17.8367 18.9387 1.21909 -1.62124 82.4637
12583150 21.3845 24.3038 17.8367 18.9387 1.21909 -1.62124 82.4637
12583160 22.4707 25.2569 16.8336 17.8768 1.16127 -2.36853 82.438
12583169 23.4771 26.1808 15.8771 17.0779 1.18157 -3.03274 82.6129
12583180 23.4771 26.1808 15.8771 17.0779 1.18157 -3.03274 82.6129
12583190 24.2743 26.9685 15.1076 16.4099 1.20723 -3.57515 82.7604
12583200 24.9619 27.6979 14.3382 15.8578 1.28404 -4.06679 82.8558
12583209 24.9619 27.6979 14.3382 15.8578 1.28404 -4.06679 82.8558
12583219 25.5897 28.3884 13.6936 15.2676 1.31808 -4.52444 82.9393
12583230 25.5897 28.3884 13.6936 15.2676 1.31808 -4.52444 82.9393
12583241 26.1278 29.0789 13.1841 14.5347 1.29688 -4.97216 82.9255
12583249 26.6958 29.9056 12.5602 13.8399 1.35222 -5.45796 83.0015
12583260 26.6958 29.9056 12.5602 13.8399 1.35222 -5.45796 83.0015
12583269 27.2339 30.4989 12.0404 13.1736 1.32561 -5.88067 82.9467
12583281 27.6723 31.0824 11.4685 12.5358 1.35253 -6.29847 82.759
12583301 28.0211 31.5881 11.0006 11.9933 1.37999 -6.64902 82.6031
12583317 28.0211 31.5881 11.0006 11.9933 1.37999 -6.64902 82.6031
12583322 28.3001 31.9285 10.6159 11.6506 1.41314 -6.90261 82.4951
12583331 28.4894 32.2203 10.3352 11.3555 1.44149 -7.10294 82.4004
12583352 28.5891 32.5509 10.1584 11.0985 1.4873 -7.26053 82.397
12583367 28.7087 32.8232 10.1064 10.8701 1.4781 -7.37295 82.5084
12583382 28.7386 33.0177 10.044 10.8035 1.52493 -7.42862 82.6038
12583394 28.7386 33.0177 10.044 10.8035 1.52493 -7.42862 82.6038
12583402 28.7784 33.2025 9.99205 10.7273 1.55966 -7.48393 82.7003
12583417 28.7485 33.3776 9.98165 10.6988 1.61405 -7.50769 82.8065
12583432 28.609 33.5526 9.90887 10.7083 1.73445 -7.5281 82.7788
12583443 28.5791 33.6985 9.90887 10.7368 1.79303 -7.5308 82.9234
12583473 28.4496 33.786 10.0024 10.7368 1.82912 -7.50161 82.9749
12583477 28.4496 33.786 10.0024 10.7368 1.82912 -7.50161 82.9749
12583489 28.4097 33.7666 10.0648 10.8035 1.83501 -7.46129 83.0446
12583493 28.34 33.7958 10.1168 10.9272 1.88332 -7.41016 83.1798
12583502 28.34 33.7958 10.1168 10.9272 1.88332 -7.41016 83.1798
12583515 28.32 33.7277 10.0856 11.07 1.9206 -7.37208 83.2034
12583522 28.2603 33.7374 10.1688 11.1747 1.94473 -7.31706 83.3412
12583543 28.1506 33.7471 10.2208 11.2318 1.98185 -7.27864 83.3504
12583555 28.1506 33.7471 10.2208 11.2318 1.98185 -7.27864 83.3504
12583563 28.0012 33.718 10.252 11.3746 2.05151 -7.21559 83.3457
12583577 27.8318 33.6596 10.3664 11.5459 2.10045 -7.11823 83.4037
12583583 27.8318 33.6596 10.3664 11.5459 2.10045 -7.11823 83.4037
12583593 27.7022 33.611 10.4287 11.6221 2.12984 -7.06463 83.364
12583603 27.6026 33.6985 10.6263 11.6887 2.14024 -6.99377 83.6161
12583613 27.6026 33.6985 10.6263 11.6887 2.14024 -6.99377 83.6161
12583624 27.4531 33.6596 10.6471 11.7553 2.18965 -6.95269 83.5151
12583634 27.3834 33.6596 10.8239 11.7172 2.14444 -6.90955 83.5841
12583646 27.3834 33.5235 10.8239 11.7172 2.10715 -6.89635 83.4479
12583661 27.3136 33.4554 10.907 11.7553 2.09455 -6.85114 83.4313
12583676 27.3136 33.29 11.0006 11.7363 2.01346 -6.81543 83.3405
12583689 27.3236 33.222 11.1046 11.7363 1.95779 -6.78252 83.3864
12583696 27.3236 33.222 11.1046 11.7363 1.95779 -6.78252 83.3864
12583706 27.1841 33.1539 11.2813 11.6792 1.9111 -6.73075 83.2985
12583716 26.9449 33.0275 11.4269 11.6411 1.89569 -6.66622 83.0404
12583727 26.9449 33.0275 11.4269 11.6411 1.89569 -6.66622 83.0404
12583736 26.7157 32.9205 11.6869 11.6982 1.87185 -6.54973 83.0212
12583756 26.5264 32.5412 12.0196 11.8219 1.75409 -6.37313 82.9091
12583767 26.2872 32.2689 12.4355 12.0409 1.68219 -6.15658 83.0324
12583777 26.2872 32.2689 12.4355 12.0409 1.68219 -6.15658 83.0324
12583786 26.1377 32.0063 12.7474 12.2408 1.61246 -5.9825 83.1322
12583799 25.7989 31.6367 13.2257 12.6215 1.57103 -5.68937 83.2829
12583806 25.7989 31.6367 13.2257 12.6215 1.57103 -5.68937 83.2829
12583821 25.4302 31.1018 13.8911 12.9737 1.42516 -5.33604 83.3969
12583827 25.4302 31.1018 13.8911 12.9737 1.42516 -5.33604 83.3969
12583841 24.7327 30.4308 14.619 13.5638 1.39267 -4.85577 83.3463
12583847 24.0352 29.6333 15.5651 14.3919 1.32284 -4.25314 83.6255
12583857 24.0352 29.6333 15.5651 14.3919 1.32284 -4.25314 83.6255
12583872 23.3875 28.9039 16.6673 15.1725 1.19504 -3.64638 84.1311
12583887 22.5504 27.9119 17.6595 16.1338 1.13814 -2.96757 84.2557
12583889 22.5504 27.9119 17.6595 16.1338 1.13814 -2.96757 84.2557
12583897 21.6137 26.8421 18.7128 17.2241 1.10782 -2.22512 84.3927
12583917 20.4478 25.3736 19.894 18.6172 1.0817 -1.30024 84.3326
12583930 19.2819 23.9342 21.3312 20.2831 1.06216 -0.283245 84.8305
12583951 17.837 22.1253 22.8964 22.0367 1.00965 0.878263 84.8954
12583958 16.357 20.0246 24.7863 24.3456 0.943366 2.23654 85.5135
12583973 16.357 20.0246 24.7863 24.3456 0.943366 2.23654 85.5135
12583978 14.886 17.9045 26.7452 26.5278 0.813651 3.5699 86.0635
12583988 14.886 17.9045 26.7452 26.5278 0.813651 3.5699 86.0635
12583998 13.371 15.9041 28.4679 28.3398 0.698483 4.79758 86.0828
12584008 12.0497 14.182 29.8952 29.8791 0.61512 5.85003 86.006
12584021 12.0497 14.182 29.8952 29.8791 0.61512 5.85003 86.006
12584033 11.1161 12.7546 30.7319 30.7656 0.489718 6.61139 85.3682
12584038 10.5964 11.8245 31.2831 31.4183 0.400394 7.09813 85.1223
12584050 10.5964 11.8245 31.2831 31.4183 0.400394 7.09813 85.1223
12584058 10.2617 11.1983 31.6277 31.9542 0.371313 7.42963 85.0418
12584068 10.2617 11.1983 31.6277 31.9542 0.371313 7.42963 85.0418
12584080 9.90052 10.6549 31.9131 32.3146 0.340834 7.72658 84.7832
12584090 9.68912 10.2405 32.2478 32.8017 0.325167 7.96429 84.9792
12584110 9.36321 9.89057 32.7105 33.3181 0.332701 8.22704 85.2823
12584120 8.94922 9.28277 33.1436 34 0.348449 8.59349 85.3756
12584130 8.94922 9.28277 33.1436 34 0.348449 8.59349 85.3756
12584140 8.50881 8.68418 33.7441 34 0.126949 8.92739 84.9371
12584160 7.88342 8.10401 34 34 0.0656605 9.28935 83.9874
12584171 7.16995 7.47779 34 34 0.0931203 9.68307 82.6477
12584181 7.16995 7.47779 34 34 0.0931203 9.68307 82.6477
12584191 6.39482 6.83315 34 34 0.134909 10.1145 81.228
12584201 5.75181 6.31744 34 34 0.176606 10.4779 80.0693
12584212 5.75181 6.31744 34 34 0.176606 10.4779 80.0693
12584221 5.18808 5.78332 34 34 0.188431 10.8321 78.9714
12584233 5.18808 5.78332 34 34 0.188431 10.8321 78.9714
12584243 4.65959 5.27681 34 34 0.197989 11.1752 77.9364
12584251 4.29845 4.89924 34 34 0.194564 11.4257 77.1977
12584261 4.29845 4.89924 34 34 0.194564 11.4257 77.1977
12584271 4.06943 4.5493 34 34 0.156575 11.6253 76.6187
12584281 3.75233 4.2454 34 34 0.162196 11.8429 75.9977
12584301 3.75233 4.2454 34 34 0.162196 11.8429 75.9977
12584303 3.55855 3.9507 34 34 0.129837 12.0166 75.5093
12584323 3.34715 3.73889 34 34 0.130433 12.1688 75.086
12584332 3.19741 3.69285 34 34 0.165388 12.2399 74.8903
12584342 3.19741 3.69285 34 34 0.165388 12.2399 74.8903
12584353 3.22383 3.59155 34 34 0.122875 12.2671 74.8154
12584364 3.23264 3.68364 34 34 0.150499 12.2304 74.9163
12584373 3.23264 3.68364 34 34 0.150499 12.2304 74.9163
12584385 3.27668 3.62839 34 34 0.117382 12.2345 74.9051
12584393 3.28549 3.69285 34 34 0.135824 12.2079 74.9783
12584406 3.28549 3.69285 34 34 0.135824 12.2079 74.9783
12584413 3.26788 3.76652 34 34 0.166139 12.1875 75.0344
12584433 3.22383 3.71127 34 34 0.162619 12.2236 74.9351
12584446 3.12694 3.66522 34 34 0.179926 12.2756 74.7922
12584453 3.12694 3.66522 34 34 0.179926 12.2756 74.7922
12584466 3.10052 3.57313 34 34 0.158226 12.3189 74.6736
12584475 2.92435 3.49946 34 34 0.193185 12.4106 74.4238
12584496 2.92435 3.49946 34 34 0.193185 12.4106 74.4238
12584497 2.88031 3.42579 34 34 0.183526 12.454 74.3061
12584510 2.88031 3.42579 34 34 0.183526 12.454 74.3061
12584515 2.71295 3.26002 34 34 0.184888 12.5776 73.973
12584525 2.63368 3.18635 34 34 0.187171 12.6348 73.82
12584546 2.52798 3.06663 34 34 0.18298 12.7194 73.5946
12584558 2.36943 3.01138 34 34 0.218704 12.8002 73.3808
12584567 2.36943 3.01138 34 34 0.218704 12.8002 73.3808
12584576 2.29016 2.99296 34 34 0.239757 12.8372 73.2831
12584586 2.29016 2.99296 34 34 0.239757 12.8372 73.2831
12584596 2.17565 2.98375 34 34 0.276145 12.8843 73.1594
12584606 2.09637 2.91008 34 34 0.278643 12.9427 73.0064
12584616 2.09637 2.91008 34 34 0.278643 12.9427 73.0064
12584626 2.02591 2.87324 34 34 0.290582 12.9839 72.8991
12584636 1.9114 2.8364 34 34 0.317881 13.0421 72.7478
12584657 1.87617 2.87324 34 34 0.342637 13.0415 72.7494
12584677 1.84093 2.81798 34 34 0.336176 13.0764 72.6589
12584708 1.87617 2.85482 34 34 0.336394 13.0486 72.731
12584711 1.9114 2.80878 34 34 0.308505 13.0527 72.7202
12584717 1.9114 2.84561 34 34 0.321004 13.0385 72.757
12584730 1.9114 2.84561 34 34 0.321004 13.0385 72.757
12584737 1.94663 2.92849 34 34 0.336832 12.9931 72.8751
12584758 1.94663 2.92849 34 34 0.336832 12.9931 72.8751
12584776 2.03471 2.99296 34 34 0.32804 12.9346 73.0277
12584788 2.0171 3.00217 34 34 0.337264 12.9378 73.0193
12584800 2.06995 3.11268 34 34 0.356206 12.8755 73.1826
12584810 2.06995 3.11268 34 34 0.356206 12.8755 73.1826
12584821 2.14041 3.22319 34 34 0.368974 12.8067 73.3636
12584830 2.23731 3.29686 34 34 0.360227 12.7422 73.5342
12584842 2.23731 3.29686 34 34 0.360227 12.7422 73.5342
12584850 2.36943 3.45341 34 34 0.367087 12.6337 73.8228
12584863 2.36943 3.45341 34 34 0.367087 12.6337 73.8228
12584870 2.50155 3.46262 34 34 0.324845 12.5809 73.9642
12584884 2.70415 3.71127 34 34 0.338346 12.4137 74.4154
12584890 2.70415 3.71127 34 34 0.338346 12.4137 74.4154
12584899 2.98601 3.99675 34 34 0.336993 12.2063 74.9828
12584915 3.31192 4.3559 34 34 0.344923 11.9599 75.6678
12584933 3.7171 4.8532 34 34 0.370932 11.6422 76.5703
12584941 3.7171 4.8532 34 34 0.370932 11.6422 76.5703
12584951 4.13109 5.33207 34 34 0.387597 11.3351 77.4632
12584961 4.58031 5.98592 34 34 0.44727 10.9654 78.5662
12584971 4.58031 5.98592 34 34 0.44727 10.9654 78.5662
12584981 5.10881 6.63976 34 34 0.479934 10.5804 79.7486
12584993 5.69016 7.32124 34 34 0.503349 10.1816 81.0114
12585011 6.36839 8.20531 34 34 0.556144 9.7052 82.5737
12585021 6.36839 8.20531 34 34 0.556144 9.7052 82.5737
12585033 7.07306 9.05255 33.2125 34 0.830048 9.19512 83.3381
12585041 7.93627 9.9182 32.1789 34 1.1314 8.62594 84.0334
12585053 7.93627 9.9182 32.1789 34 1.1314 8.62594 84.0334
12585061 8.65855 10.8483 31.0174 33.1232 1.28384 8.0039 83.6474
12585071 9.43368 11.9074 29.9247 31.9834 1.36108 7.30945 83.2492
12585081 9.43368 11.9074 29.9247 31.9834 1.36108 7.30945 83.2492
12585092 10.3762 13.0493 28.901 30.7559 1.36251 6.54136 83.0823
12585123 12.5606 15.591 26.5483 28.1352 1.39351 4.80447 82.8352
12585132 12.5606 15.591 26.5483 28.1352 1.39351 4.80447 82.8352
12585144 13.9435 17.2042 25.1506 26.7421 1.46082 3.74726 83.0404
12585152 15.3176 18.7408 23.6248 25.3295 1.54433 2.69161 83.0128
12585169 15.3176 18.7408 23.6248 25.3295 1.54433 2.69161 83.0128
12585172 16.5948 20.4622 22.2664 23.7903 1.62167 1.6242 83.1137
12585183 16.5948 20.4622 22.2664 23.7903 1.62167 1.6242 83.1137
12585195 17.8072 22.0475 20.8686 22.2705 1.69961 0.593612 82.9937
12585202 18.993 23.3993 19.6283 20.8579 1.70007 -0.344989 82.8784
12585212 18.993 23.3993 19.6283 20.8579 1.70007 -0.344989 82.8784
12585222 20.1987 24.6733 18.3781 19.5427 1.70281 -1.25939 82.7929
12585242 21.2849 25.7431 17.2855 18.286 1.65218 -2.08051 82.5994
12585254 22.3013 26.6184 16.3138 17.263 1.59595 -2.78974 82.4965
12585263 22.3013 26.6184 16.3138 17.263 1.59595 -2.78974 82.4965
12585273 22.9988 27.2895 15.4404 16.486 1.62267 -3.35012 82.2147
12585283 23.6565 27.8244 14.8789 15.8483 1.56227 -3.7868 82.208
12585307 24.3441 28.3982 14.3798 15.2581 1.49684 -4.20689 82.3802
12585314 24.9021 28.3982 13.9535 14.6775 1.28767 -4.51646 81.9313
12585323 24.9021 28.972 13.9535 14.6775 1.45259 -4.58937 82.5051
12585334 25.51 29.4874 13.6104 14.173 1.37111 -4.93121 82.7808
12585353 26.058 29.8181 13.1425 13.7447 1.31768 -5.25394 82.7633
12585363 26.5662 30.246 12.841 13.3163 1.252 -5.54208 82.9696
12585384 27.0545 30.5475 12.3835 13.0118 1.24138 -5.82069 82.9972
12585403 27.3734 30.7128 12.1235 12.6596 1.16915 -6.02812 82.8693
12585406 27.3734 30.7128 12.1235 12.6596 1.16915 -6.02812 82.8693
12585416 27.7321 30.9949 11.822 12.3645 1.14734 -6.24876 82.9135
12585435 27.9812 31.0921 11.5725 12.0218 1.07667 -6.43765 82.6677
12585453 28.4297 31.3644 11.3645 11.8029 1.01648 -6.62234 82.9615
12585457 28.4297 31.3644 11.3645 11.8029 1.01648 -6.62234 82.9615
12585464 28.8183 31.5297 11.2502 11.4602 0.879368 -6.7972 83.0584
12585475 29.0275 31.7243 11.0734 11.2032 0.851083 -6.95096 83.0285
12585485 29.0275 31.7243 11.0734 11.2032 0.851083 -6.95096 83.0285
12585494 29.2667 31.7729 11.0214 10.9748 0.740519 -7.05299 83.0358
12585504 29.2667 31.7729 11.0214 10.9748 0.740519 -7.05299 83.0358
12585516 29.4162 31.8896 10.907 10.7464 0.696951 -7.16962 82.9592
12585526 29.5557 31.9577 10.8239 10.6226 0.663197 -7.24451 82.9598
12585536 29.5557 31.9577 10.8239 10.6226 0.663197 -7.24451 82.9598
12585546 29.7052 31.9868 10.7823 10.5465 0.61608 -7.29274 83.0207
12585558 29.6553 32.0549 10.8239 10.575 0.646967 -7.27562 83.1091
12585573 29.6553 32.0549 10.8239 10.575 0.646967 -7.27562 83.1091
12585579 29.6354 31.9868 10.8758 10.5655 0.614321 -7.25605 83.0636
12585600 29.6055 32.0549 10.8758 10.5655 0.643513 -7.25961 83.1018
12585611 29.5258 32.1133 10.959 10.5655 0.659537 -7.23535 83.1636
12585627 29.3564 32.1911 11.1462 10.5845 0.682366 -7.17176 83.2782
12585637 29.2069 32.1327 11.2086 10.7464 0.739425 -7.09255 83.2946
12585657 28.9977 32.123 11.3749 10.832 0.774789 -7.00495 83.3276
12585678 28.8382 31.9771 11.5517 10.9177 0.75191 -6.9063 83.2847
12585693 28.5492 31.7826 11.8012 11.0985 0.760135 -6.74601 83.2316
12585698 28.5492 31.7826 11.8012 11.0985 0.760135 -6.74601 83.2316
12585715 28.2403 31.4033 12.1443 11.2699 0.688836 -6.54293 83.0579
12585720 27.8417 30.9462 12.4979 11.603 0.666451 -6.27715 82.8888
12585728 27.8417 30.9462 12.4979 11.603 0.666451 -6.27715 82.8888
12585739 27.5428 30.7225 13.0385 11.9742 0.635061 -5.98943 83.2781
12585750 27.1641 30.4891 13.5168 12.4311 0.66964 -5.68867 83.6012
12585764 27.1641 30.4891 13.5168 12.4311 0.66964 -5.68867 83.6012
12585770 26.626 30.1293 14.0679 12.9071 0.699395 -5.33506 83.7303
12585789 26.0281 29.5555 14.6606 13.3639 0.667024 -4.94434 83.6081
12585800 25.3904 28.9428 15.43 13.9826 0.628415 -4.46361 83.7458
12585811 25.3904 28.9428 15.43 13.9826 0.628415 -4.46361 83.7458
12585821 24.8523 28.2717 16.0954 14.6585 0.590888 -4.00049 83.8779
12585831 24.1249 27.4354 16.9064 15.4009 0.538045 -3.44345 83.8675
12585841 24.1249 27.4354 16.9064 15.4009 0.538045 -3.44345 83.8675
12585851 23.6864 26.881 17.6398 16.0577 0.478384 -3.00301 84.2649
12585861 23.6864 26.881 17.6398 16.0577 0.478384 -3.00301 84.2649
12585871 23.0387 26.2294 18.2698 16.6002 0.45197 -2.56685 84.1381
12585881 22.1219 25.4903 18.9097 17.2533 0.510883 -2.04999 83.7752
12585891 22.1219 25.4903 18.9097 17.2533 0.510883 -2.04999 83.7752
12585901 21.0955 24.6344 19.7956 18.1593 0.568387 -1.39363 83.6849
12585913 20.0193 23.7203 20.8784 19.2504 0.617912 -0.645791 83.8684
12585921 20.0193 23.7203 20.8784 19.2504 0.617912 -0.645791 83.8684
12585932 18.8036 22.6116 22.1876 20.5948 0.657725 0.24358 84.1976
12585941 18.8036 22.6116 22.1876 20.5948 0.657725 0.24358 84.1976
12585953 17.2691 21.2986 23.7626 22.0854 0.696662 1.29365 84.4157
12585961 15.8021 19.6259 25.7116 24.0046 0.621513 2.51719 85.1442
12585974 15.8021 19.6259 25.7116 24.0046 0.621513 2.51719 85.1442
12585981 14.4544 17.9823 27.3654 25.9335 0.611186 3.64998 85.7356
12585991 14.4544 17.9823 27.3654 25.9335 0.611186 3.64998 85.7356
12586001 13.1772 16.4014 28.8222 27.6189 0.587329 4.68425 86.0198
12586011 11.9176 15.0293 30.1511 29.2166 0.630575 5.63419 86.3146
12586022 11.9176 15.0293 30.1511 29.2166 0.630575 5.63419 86.3146
12586031 10.7197 13.565 31.3619 30.5318 0.584608 6.54613 86.1784
12586041 9.73316 12.5981 32.3167 31.6521 0.637397 7.23713 86.3001
12586061 8.85233 11.6495 33.0944 32.5387 0.650573 7.8594 86.1349
12586071 8.85233 11.6495 33.0944 32.5387 0.650573 7.8594 86.1349
12586081 8.08601 10.747 33.8327 33.3668 0.637874 8.43282 86.0324
12586091 7.44301 9.88136 34 34 0.714436 8.90876 85.3244
12586102 7.44301 9.88136 34 34 0.714436 8.90876 85.3244
12586111 6.72073 9.03413 34 34 0.690526 9.3568 83.7549
12586122 5.89275 8.01192 34 34 0.646842 9.90701 81.9047
12586142 5.06477 6.88841 34 34 0.570223 10.5149 79.9532
12586151 5.06477 6.88841 34 34 0.570223 10.5149 79.9532
12586163 4.28083 5.84778 34 34 0.5014 11.1108 78.1286
12586171 3.63782 4.91766 34 34 0.417945 11.6473 76.5555
12586185 3.63782 4.91766 34 34 0.417945 11.6473 76.5555
12586196 2.99482 4.22698 34 34 0.409511 12.1198 75.2218
12586208 2.40466 3.5455 34 34 0.385681 12.5861 73.9502
12586213 2.40466 3.5455 34 34 0.385681 12.5861 73.9502
12586222 2.00829 3.08505 34 34 0.368282 12.9095 73.0933
12586234 2.00829 3.08505 34 34 0.368282 12.9095 73.0933
12586242 1.64715 2.78115 34 34 0.391421 13.1658 72.4283
12586257 1.42694 2.67064 34 34 0.431255 13.295 72.0976
12586272 1.25959 2.50488 34 34 0.433809 13.4263 71.7645
12586283 1.15389 2.38516 34 34 0.43028 13.5159 71.539
12586292 1.15389 2.38516 34 34 0.43028 13.5159 71.539
12586302 1.13627 2.29307 34 34 0.404876 13.5597 71.4293
12586312 1.13627 2.29307 34 34 0.404876 13.5597 71.4293
12586322 1.03938 2.2286 34 34 0.417167 13.6244 71.268
12586333 1.05699 2.13651 34 34 0.37908 13.6543 71.1935
12586354 1.01295 2.21939 34 34 0.423419 13.6387 71.2323
12586370 1.10104 2.23781 34 34 0.398371 13.5959 71.3389
12586374 1.10104 2.23781 34 34 0.398371 13.5959 71.3389
12586383 1.13627 2.45883 34 34 0.46182 13.4936 71.5951
12586398 1.13627 2.45883 34 34 0.46182 13.4936 71.5951
12586403 1.09223 2.55092 34 34 0.509015 13.4745 71.6432
12586413 1.16269 2.56013 34 34 0.487098 13.4428 71.7228
12586423 1.16269 2.56013 34 34 0.487098 13.4428 71.7228
12586435 1.18912 2.60618 34 34 0.493434 13.4141 71.7953
12586444 1.18912 2.61538 34 34 0.496578 13.4105 71.8045
12586453 1.18912 2.61538 34 34 0.496578 13.4105 71.8045
12586465 1.21554 2.66143 34 34 0.502902 13.3818 71.877
12586475 1.21554 2.66143 34 34 0.502902 13.3818 71.877
12586484 1.19793 2.71668 34 34 0.527975 13.367 71.9146
12586495 1.2772 2.70748 34 34 0.496727 13.3394 71.9847
12586515 1.25078 2.85482 34 34 0.556144 13.2918 72.1056
12586526 1.28601 2.79957 34 34 0.524917 13.2997 72.0856
12586548 1.28601 2.79957 34 34 0.524917 13.2997 72.0856
12586550 1.32124 2.9377 34 34 0.559261 13.2318 72.2589
12586555 1.32124 2.9377 34 34 0.559261 13.2318 72.2589
12586565 1.35648 2.98375 34 34 0.562367 13.2001 72.3402
12586575 1.3829 3.04821 34 34 0.574791 13.1647 72.4311
12586585 1.3829 3.04821 34 34 0.574791 13.1647 72.4311
12586599 1.43575 3.20477 34 34 0.608826 13.0835 72.6405
12586605 1.47098 3.20477 34 34 0.59641 13.0699 72.6758
12586615 1.47098 3.39816 34 34 0.661176 12.9954 72.8691
12586628 1.57668 3.60997 34 34 0.694552 12.8739 73.1867
12586635 1.57668 3.60997 34 34 0.694552 12.8739 73.1867
12586649 1.66477 3.79415 34 34 0.724685 12.7706 73.4589
12586655 1.78808 4.01517 34 34 0.754398 12.6411 73.8033
12586664 1.78808 4.01517 34 34 0.754398 12.6411 73.8033
12586674 2.0171 4.22698 34 34 0.744125 12.4769 74.2441
12586685 2.0171 4.22698 34 34 0.744125 12.4769 74.2441
12586695 2.09637 4.56771 34 34 0.827488 12.3224 74.6641
12586704 2.2285 4.7519 34 34 0.841352 12.2071 74.9804
12586716 2.2285 4.7519 34 34 0.841352 12.2071 74.9804
12586724 2.38705 4.97291 34 34 0.857839 12.0701 75.36
12586751 2.53679 5.12947 34 34 0.856617 11.9605 75.6663
12586752 2.53679 5.12947 34 34 0.856617 11.9605 75.6663
12586756 2.74819 5.31365 34 34 0.843218 11.8203 76.0618
12586766 2.74819 5.31365 34 34 0.843218 11.8203 76.0618
12586776 2.95078 5.57151 34 34 0.856197 11.6589 76.5223
12586786 3.15337 5.83857 34 34 0.871912 11.4963 76.9919
12586806 3.4 6.00433 34 34 0.841147 11.3551 77.4043
12586816 3.65544 6.17931 34 34 0.810647 11.2094 77.8347
12586826 3.65544 6.17931 34 34 0.810647 11.2094 77.8347
12586836 3.80518 6.46479 34 34 0.849497 11.0636 78.27
12586853 3.80518 6.46479 34 34 0.849497 11.0636 78.27
12586857 3.98135 6.60293 34 34 0.834 10.9594 78.5843
12586867 4.2544 6.86078 34 34 0.823599 10.7852 79.1152
12586877 4.2544 6.86078 34 34 0.823599 10.7852 79.1152
12586887 4.44819 7.06338 34 34 0.82227 10.6566 79.5116
12586897 4.65959 7.27519 34 34 0.818041 10.5208 79.9348
12586907 4.65959 7.27519 34 34 0.818041 10.5208 79.9348
12586917 4.90622 7.50542 33.9902 34 0.811249 10.3689 80.4018
12586927 4.90622 7.50542 33.9902 34 0.811249 10.3689 80.4018
12586937 5.2057 7.75406 33.5866 34 0.919285 10.1731 80.5463
12586948 5.54041 8.06717 33.3011 34 0.996697 9.95446 80.9087
12586957 5.54041 8.06717 33.3011 34 0.996697 9.95446 80.9087
12586970 5.87513 8.33424 32.9467 34 1.08198 9.74739 81.1561
12586977 6.15699 8.66576 32.5825 34 1.20578 9.53742 81.4053
12586997 6.5886 9.07096 32.2183 34 1.30196 9.26234 81.8779
12587018 7.0114 9.53142 31.7753 34 1.44096 8.97114 82.3182
12587028 7.53109 10.0195 31.3028 34 1.56468 8.64519 82.8534
12587048 8.13005 10.5352 30.5055 34 1.77336 8.26737 83.1708
12587058 8.79948 11.1614 29.7574 33.9123 1.94812 7.83962 83.6306
12587084 9.61865 11.935 29.0093 33.0063 1.88867 7.26259 83.5692
12587088 9.61865 11.935 29.0093 33.0063 1.88867 7.26259 83.5692
12587098 10.5435 12.7822 28.1135 31.808 1.78181 6.59405 83.2473
12587111 11.8031 14.0899 26.6468 30.1226 1.74283 5.60286 82.6625
12587118 11.8031 14.0899 26.6468 30.1226 1.74283 5.60286 82.6625
12587128 13.5119 15.6278 24.7962 28.5834 1.78841 4.40621 82.5193
12587138 15.4233 17.282 23.1523 27.3461 1.81859 3.20774 83.2038
12587148 15.4233 17.282 23.1523 27.3461 1.81859 3.20774 83.2038
12587162 16.9207 18.8089 21.7939 25.7289 1.74868 2.12483 83.2524
12587168 16.9207 18.8089 21.7939 25.7289 1.74868 2.12483 83.2524
12587183 18.3552 20.3066 20.3961 24.0143 1.67615 1.03799 83.0722
12587190 19.8998 21.9211 19.077 22.1341 1.52905 -0.110145 83.0319
12587200 19.8998 21.9211 19.077 22.1341 1.52905 -0.110145 83.0319
12587210 21.3347 23.409 17.758 20.3318 1.40287 -1.20494 82.8335
12587220 22.7995 24.6442 16.5633 18.6367 1.18521 -2.22226 82.6437
12587240 24.1747 25.5292 15.2532 17.2533 1.02012 -3.13781 82.2104
12587252 24.1747 25.5292 15.2532 17.2533 1.02012 -3.13781 82.2104
12587260 24.9619 26.1613 14.3382 16.3432 0.979292 -3.74828 81.8047
12587274 25.6694 26.6962 13.8287 15.734 0.894719 -4.1749 81.9284
12587291 26.1577 27.0172 13.444 15.2296 0.807899 -4.49023 81.8484
12587301 26.7556 27.4354 13.2985 14.8108 0.665873 -4.75364 82.3001
12587311 26.7556 27.4354 13.2985 14.8108 0.665873 -4.75364 82.3001
12587321 27.1841 27.7174 13.1945 14.4776 0.549948 -4.94638 82.5735
12587331 27.1841 27.7174 13.1945 14.4776 0.549948 -4.94638 82.5735
12587345 27.5129 27.8827 13.1737 14.1825 0.416502 -5.08256 82.7519
12587351 27.8118 27.8924 13.1737 14.0302 0.282583 -5.15637 82.9082
12587362 27.8118 27.8924 13.1737 14.0302 0.282583 -5.15637 82.9082
12587371 28.051 28.0286 13.1633 13.9541 0.230896 -5.22174 83.197
12587382 28.2005 27.9994 13.1841 13.8875 0.150809 -5.247 83.2715
12587397 28.2005 27.9994 13.1841 13.8875 0.150809 -5.247 83.2715
12587402 28.4097 27.9411 13.1529 13.7447 0.0369728 -5.30699 83.2484
12587412 28.3599 27.8438 13.1321 13.6781 0.00899136 -5.3112 83.0139
12587422 28.3599 27.8438 13.1321 13.6781 0.00899136 -5.3112 83.0139
12587432 28.4197 27.7563 13.2465 13.7828 -0.0381976 -5.25449 83.2052
12587446 28.4197 27.7563 13.2465 13.7828 -0.0381976 -5.25449 83.2052
12587452 28.2902 27.6979 13.2673 13.7637 -0.0288397 -5.23201 83.0191
12587462 28.2005 27.6201 13.4232 13.8494 -0.0463903 -5.15348 83.0932
12587477 28.2005 27.6201 13.4232 13.8494 -0.0463903 -5.15348 83.0932
12587487 28.1506 27.5812 13.6624 13.916 -0.094761 -5.06903 83.3103
12587497 28.1506 27.5812 13.6624 13.916 -0.094761 -5.06903 83.3103
12587502 28.051 27.6396 13.9015 13.9541 -0.107381 -4.99753 83.5462
12587518 28.1706 27.8049 13.8703 13.9255 -0.0926495 -5.04581 83.7714
12587522 28.1706 27.8049 13.8703 13.9255 -0.0926495 -5.04581 83.7714
12587532 28.2802 27.8244 13.7976 13.8589 -0.117737 -5.09451 83.761
12587544 28.0809 28.0481 13.8183 13.7923 -0.0175878 -5.1084 83.7396
12587566 27.9613 28.0286 13.8703 13.64 -0.0488207 -5.11608 83.5002
12587572 27.9613 28.0286 13.8703 13.64 -0.0488207 -5.11608 83.5002
12587582 27.8118 28.0383 13.8703 13.5924 -0.0154421 -5.11099 83.3129
12587593 27.6424 27.9411 14.0783 13.6971 -0.0247613 -5.00393 83.3589
12587602 27.6424 27.9411 14.0783 13.6971 -0.0247613 -5.00393 83.3589
12587614 27.4232 27.8438 14.1719 13.8018 0.0151783 -4.91828 83.2407
12587622 27.0744 27.5618 14.4318 14.1064 0.0486672 -4.70662 83.1744
12587643 26.7257 27.4743 14.7229 14.4015 0.128144 -4.51409 83.3243
12587653 26.7257 27.4743 14.7229 14.4015 0.128144 -4.51409 83.3243
12587663 26.3769 27.3186 15.0453 14.7441 0.191835 -4.2953 83.4849
12587673 25.8986 27.0658 15.4924 15.1439 0.244838 -4.00621 83.6006
12587686 25.8986 27.0658 15.4924 15.1439 0.244838 -4.00621 83.6006
12587693 25.2608 26.6379 16.0018 15.6198 0.297835 -3.6417 83.5204
12587711 24.663 26.1905 16.6569 16.1909 0.317079 -3.22677 83.7013
12587713 24.663 26.1905 16.6569 16.1909 0.317079 -3.22677 83.7013
12587723 23.9953 25.5389 17.3642 16.9048 0.323433 -2.73233 83.8032
12587734 23.9953 25.5389 17.3642 16.9048 0.323433 -2.73233 83.8032
12587744 23.1882 24.6636 18.1812 17.7599 0.314492 -2.13216 83.7929
12587757 22.1419 23.4382 19.2739 18.9971 0.303993 -1.30751 83.8511
12587765 22.1419 23.4382 19.2739 18.9971 0.303993 -1.30751 83.8511
12587775 20.8265 21.5612 20.7504 21.0138 0.2965 -0.111141 84.1519
12587785 19.1923 19.8009 22.5518 23.3616 0.417647 1.22256 84.9066
12587805 17.5281 18.4199 24.5895 25.1444 0.422123 2.41343 85.6819
12587826 15.8549 17.3501 26.1251 26.3914 0.513732 3.37922 85.7215
12587836 14.6041 16.3738 27.0898 27.3754 0.601348 4.1233 85.443
12587846 14.6041 16.3738 27.0898 27.3754 0.601348 4.1233 85.443
12587856 13.9964 15.7291 27.2866 27.9501 0.705105 4.50398 84.9623
12587869 13.4591 15.149 27.7001 28.71 0.793913 4.9052 85.0181
12587876 13.4591 15.149 27.7001 28.71 0.793913 4.9052 85.0181
12587888 13.0539 14.3846 28.2218 29.2946 0.70729 5.31067 84.9548
12587896 13.0539 14.3846 28.2218 29.2946 0.70729 5.31067 84.9548
12587906 12.4902 13.5005 28.7041 30.0642 0.699177 5.80073 84.759
12587917 11.8648 12.5796 29.4621 31.0092 0.665942 6.364 84.9156
12587926 11.8648 12.5796 29.4621 31.0092 0.665942 6.364 84.9156
12587936 11.0896 11.5298 30.2889 32.1782 0.684431 7.0248 85.0866
12587946 10.1824 10.5997 31.3816 33.2109 0.657862 7.69733 85.3745
12587966 9.09016 9.62351 32.4349 34 0.616127 8.4067 85.1485
12587976 9.09016 9.62351 32.4349 34 0.616127 8.4067 85.1485
12587986 8.10363 8.66576 33.3208 34 0.369054 9.01735 84.0902
12587996 7.19637 7.93824 34 34 0.223094 9.53852 83.1346
12588006 7.19637 7.93824 34 34 0.223094 9.53852 83.1346
12588017 6.4829 7.33044 34 34 0.258985 9.93481 81.8133
12588027 5.97202 6.66739 34 34 0.215578 10.2978 80.6394
12588037 5.97202 6.66739 34 34 0.215578 10.2978 80.6394
12588047 5.56684 6.3727 34 34 0.25202 10.5193 79.9395
12588067 5.30259 5.99512 34 34 0.218335 10.7258 79.2977
12588077 5.04715 5.70043 34 34 0.207397 10.9056 78.7476
12588097 4.92383 5.54388 34 34 0.197548 10.998 78.4677
12588107 4.69482 5.42416 34 34 0.233406 11.114 78.119
12588118 4.69482 5.42416 34 34 0.233406 11.114 78.119
12588135 4.51865 5.23998 34 34 0.231913 11.235 77.7586
12588146 4.51865 5.23998 34 34 0.231913 11.235 77.7586
12588150 4.32487 5.09263 34 34 0.247929 11.3506 77.4175
12588159 4.21036 4.93608 34 34 0.235176 11.4432 77.1464
12588178 4.043 4.87161 34 34 0.269327 11.5229 76.9146
12588188 3.96373 4.7519 34 34 0.256848 11.5917 76.7156
12588199 3.96373 4.7519 34 34 0.256848 11.5917 76.7156
12588208 3.87565 4.73348 34 34 0.279939 11.6287 76.6091
12588220 3.87565 4.73348 34 34 0.279939 11.6287 76.6091
12588230 3.75233 4.74269 34 34 0.323668 11.6684 76.495
12588242 3.7171 4.89003 34 34 0.382775 11.6294 76.6071
12588248 3.7171 4.89003 34 34 0.382775 11.6294 76.6071
12588263 3.79637 5.00054 34 34 0.391999 11.5636 76.7969
12588269 3.88446 5.13868 34 34 0.407094 11.4855 77.0231
12588280 3.88446 5.13868 34 34 0.407094 11.4855 77.0231
12588290 3.87565 5.20314 34 34 0.430563 11.4664 77.0788
12588310 3.80518 5.18472 34 34 0.447962 11.497 76.9899
12588320 3.76114 5.13868 34 34 0.447837 11.528 76.8998
12588332 3.76114 5.13868 34 34 0.447837 11.528 76.8998
12588340 3.62021 5.1571 34 34 0.500438 11.5704 76.7773
12588351 3.59378 5.12026 34 34 0.497457 11.5923 76.714
12588361 3.59378 5.12026 34 34 0.497457 11.5923 76.714
12588374 3.52332 5.06501 34 34 0.503242 11.6359 76.5883
12588381 3.54093 5.09263 34 34 0.506207 11.6202 76.6336
12588401 3.53212 5.09263 34 34 0.50914 11.6232 76.6248
12588422 3.51451 5.02817 34 34 0.494382 11.6518 76.5427
12588433 3.43523 5.08342 34 34 0.538492 11.6602 76.5187
12588453 3.47047 5.06501 34 34 0.520849 11.6543 76.5355
12588462 3.51451 5.00975 34 34 0.488484 11.6582 76.5243
12588478 3.51451 5.00975 34 34 0.488484 11.6582 76.5243
12588482 3.55855 5.00054 34 34 0.470877 11.6461 76.5591
12588492 3.55855 5.00054 34 34 0.470877 11.6461 76.5591
12588507 3.5057 4.89924 34 34 0.455976 11.6998 76.4049
12588512 3.54974 4.83478 34 34 0.420579 11.707 76.3845
12588522 3.54974 4.83478 34 34 0.420579 11.707 76.3845
12588535 3.55855 4.78873 34 34 0.402826 11.72 76.3473
12588543 3.6114 4.70585 34 34 0.358522 11.7305 76.3172
12588559 3.6114 4.70585 34 34 0.358522 11.7305 76.3172
12588563 3.69948 4.71506 34 34 0.33226 11.6965 76.4145
12588573 3.69948 4.71506 34 34 0.33226 11.6965 76.4145
12588584 3.69067 4.64139 34 34 0.311375 11.7253 76.3321
12588593 3.76114 4.74269 34 34 0.32075 11.6653 76.5038
12588605 3.76114 4.74269 34 34 0.32075 11.6653 76.5038
12588613 3.8228 4.92687 34 34 0.359634 11.5799 76.7497
12588625 4.01658 5.12947 34 34 0.360644 11.4433 77.146
12588634 4.01658 5.12947 34 34 0.360644 11.4433 77.146
12588646 4.26321 5.47021 34 34 0.388187 11.2435 77.7334
12588674 4.50984 5.68201 34 34 0.374773 11.0897 78.1919
12588678 4.73005 5.94908 34 34 0.387341 10.9281 78.6791
12588700 5.05596 6.28061 34 34 0.385901 10.7132 79.3366
12588704 5.3114 6.70423 34 34 0.435171 10.495 80.0156
12588715 5.3114 6.70423 34 34 0.435171 10.495 80.0156
12588725 5.69016 7.31203 33.7638 34 0.575158 10.1704 80.7659
12588736 5.69016 7.31203 33.7638 34 0.575158 10.1704 80.7659
12588746 6.20104 7.81853 33.4684 34 0.659314 9.83867 81.488
12588756 6.8 8.5 32.8581 34 0.864756 9.41321 82.1581
12588776 7.46062 9.24594 32.0903 34 1.11568 8.94667 82.7969
12588792 8.2886 10.1024 31.1257 34 1.40335 8.39378 83.5166
12588807 9.39845 11.2075 30.22 32.6361 1.26557 7.59331 83.4621
12588817 10.5788 12.3862 29.1175 31.1943 1.16605 6.72699 83.2768
12588827 10.5788 12.3862 29.1175 31.1943 1.16605 6.72699 83.2768
12588842 11.7326 13.5005 27.9068 29.8109 1.10668 5.87417 82.9509
12588847 11.7326 13.5005 27.9068 29.8109 1.10668 5.87417 82.9509
12588857 12.9746 14.8727 26.5779 28.2814 1.08866 4.899 82.7066
12588867 14.4544 16.4567 25.1013 26.4791 1.02435 3.75845 82.4915
12588877 14.4544 16.4567 25.1013 26.4791 1.02435 3.75845 82.4915
12588889 16.0135 18.2546 23.4476 24.7547 1.07561 2.53441 82.4704
12588897 15.0093 18.2546 22.04 24.7547 1.86115 2.53516 80.0586
12588910 17.2989 19.6842 22.04 23.3324 1.11641 1.52798 82.3555
12588917 18.6442 21.0069 20.8882 21.9685 1.04321 0.582794 82.5078
12588937 19.8001 22.1836 19.7956 20.7507 1.01134 -0.261257 82.5301
12588947 21.0457 23.4577 18.8014 19.5037 0.940207 -1.12276 82.8085
12588957 21.0457 23.4577 18.8014 19.5037 0.940207 -1.12276 82.8085
12588967 22.3312 24.7025 17.6202 18.1009 0.861594 -2.05052 82.7547
12588977 22.3312 24.7025 19.0475 18.1009 0.423104 -1.76142 84.182
12588990 23.5967 25.9571 16.5009 16.5241 0.721595 -3.00237 82.5788
12588998 24.6729 26.9394 15.4508 15.3057 0.643867 -3.79801 82.3688
12589019 25.3406 27.2506 14.7229 14.6013 0.545815 -4.26053 81.9154
12589028 26.0381 27.7855 14.1199 14.2016 0.556654 -4.65679 82.145
12589044 26.0381 27.7855 14.1199 14.2016 0.556654 -4.65679 82.145
12589048 26.7954 28.3982 13.5896 13.8684 0.569123 -5.03358 82.6516
12589068 27.4033 29.04 13.0281 13.4591 0.623336 -5.41828 82.9306
12589078 28.1506 29.7014 12.5291 12.888 0.573352 -5.8428 83.2691
12589098 28.8382 30.3433 11.9156 12.1741 0.529468 -6.32123 83.2712
12589108 29.3265 30.6642 11.2502 11.4983 0.479174 -6.75174 82.7392
12589118 29.3265 30.6642 11.2502 11.4983 0.479174 -6.75174 82.7392
12589128 29.6653 30.6934 10.8758 11.0985 0.379789 -6.99311 82.333
12589140 29.6653 30.6934 10.8758 11.0985 0.379789 -6.99311 82.333
12589148 29.9343 30.7323 10.6991 10.8987 0.303134 -7.12378 82.2644
12589164 30.2233 30.9754 10.4287 10.7273 0.318938 -7.29332 82.3548
12589170 30.2233 30.9754 10.4287 10.7273 0.318938 -7.29332 82.3548
12589180 30.4226 31.2477 10.2728 10.5084 0.321612 -7.43876 82.4515
12589190 30.592 31.4422 10.1272 10.3371 0.321227 -7.55831 82.4985
12589200 30.592 31.4422 10.1272 10.3371 0.321227 -7.55831 82.4985
12589211 30.7216 31.7534 10.0128 10.0991 0.338468 -7.69427 82.587
12589220 30.7714 31.6951 10.0648 9.90873 0.232768 -7.7316 82.44
12589233 30.7714 31.6951 10.0648 9.90873 0.232768 -7.7316 82.44
12589241 30.7216 31.5103 10.0648 9.94681 0.203878 -7.70035 82.2435
12589261 30.6419 31.3061 10.304 10.1562 0.156677 -7.55163 82.4081
12589271 30.5721 31.2574 10.5743 10.5084 0.186771 -7.37168 82.9122
12589292 30.4326 31.2088 10.8446 10.8225 0.226292 -7.1975 83.3086
12589305 30.1735 31.1699 11.167 11.2128 0.311205 -6.98081 83.7232
12589312 30.1735 31.1699 11.167 11.2128 0.311205 -6.98081 83.7232
12589328 29.9642 31.1796 11.4477 11.4222 0.354066 -6.83352 84.0138
12589332 29.9642 31.1796 11.4477 11.4222 0.354066 -6.83352 84.0138
12589342 29.6653 30.9949 11.6661 11.5745 0.368878 -6.68999 83.9007
12589352 29.3464 30.7031 11.9468 11.8219 0.367409 -6.49276 83.8183
12589363 29.3464 30.7031 11.9468 11.8219 0.367409 -6.49276 83.8183
12589374 28.9877 30.3627 12.1131 12.098 0.40684 -6.30779 83.5615
12589382 28.6589 30.0904 12.3627 12.4692 0.460047 -6.08702 83.5811
12589397 28.6589 30.0904 12.3627 12.4692 0.460047 -6.08702 83.5811
12589402 28.3798 29.9542 12.6434 12.7833 0.511661 -5.89309 83.7608
12589428 28.1008 29.7208 12.8514 13.0403 0.540218 -5.7213 83.7133
12589433 27.9115 29.6527 13.0177 13.2307 0.58291 -5.60461 83.8127
12589453 27.6723 29.5263 13.1633 13.3449 0.607952 -5.49963 83.7068
12589463 27.4132 29.4291 13.2257 13.5067 0.687063 -5.40413 83.5747
12589474 27.4132 29.4291 13.2257 13.5067 0.687063 -5.40413 83.5747
12589483 27.3634 29.3318 13.2465 13.6019 0.695387 -5.35891 83.5436
12589505 27.1841 29.1859 13.2985 13.7637 0.739262 -5.26915 83.4322
12589518 27.0346 29.1859 13.3817 13.8779 0.792891 -5.2038 83.4801
12589523 27.0346 29.1859 13.3817 13.8779 0.792891 -5.2038 83.4801
12589533 26.7157 29.1178 13.4128 14.0112 0.900969 -5.11836 83.2576
12589543 26.5363 29.0498 13.6208 14.1159 0.902677 -5.01353 83.3228
12589553 26.5363 29.0498 13.6208 14.1159 0.902677 -5.01353 83.3228
12589565 26.2773 28.9233 13.7976 14.3824 0.968739 -4.86096 83.3806
12589575 26.2773 28.9233 13.7976 14.3824 0.968739 -4.86096 83.3806
12589590 26.0182 28.7483 13.9327 14.5918 1.01728 -4.72594 83.291
12589595 25.8587 28.5732 14.0991 14.7727 1.01679 -4.60247 83.3037
12589605 25.8587 28.5732 14.0991 14.7727 1.01679 -4.60247 83.3037
12589615 25.6295 28.4371 14.2758 15.0582 1.07611 -4.44826 83.4007
12589625 25.4502 28.3495 14.5046 15.3533 1.12007 -4.29282 83.6576
12589639 25.4502 28.3495 14.5046 15.3533 1.12007 -4.29282 83.6576
12589645 25.0615 28.087 14.6606 15.6008 1.1886 -4.11591 83.4098
12589655 25.0615 28.087 14.6606 15.6008 1.1886 -4.11591 83.4098
12589665 24.6131 27.7563 14.9205 15.9244 1.2459 -3.87995 83.2143
12589674 24.0252 27.3673 15.4716 16.486 1.30669 -3.49758 83.35
12589695 23.2978 26.9005 16.2202 17.0487 1.32723 -3.04239 83.4671
12589710 22.6002 26.2391 16.9584 17.8476 1.35335 -2.51659 83.6453
12589726 21.5938 25.3347 17.9942 18.851 1.37205 -1.80544 83.7737
12589736 21.5938 25.3347 17.9942 18.851 1.37205 -1.80544 83.7737
12589746 20.0991 23.9828 19.4215 20.2344 1.40218 -0.792828 83.7378
12589759 18.4648 22.7672 21.2918 22.0854 1.50571 0.380318 84.6092
12589776 16.6829 21.5223 23.3098 23.7903 1.55907 1.56406 85.3053
12589786 15.2119 20.6081 25.0226 25.1054 1.59371 2.49709 85.9481
12589796 15.2119 20.6081 25.0226 25.1054 1.59371 2.49709 85.9481
12589811 13.9435 19.6745 26.381 25.9822 1.55039 3.27023 85.9812
12589829 13.9435 19.6745 26.381 25.9822 1.55039 3.27023 85.9812
12589830 12.7368 18.7214 27.3654 26.8103 1.58511 3.9793 85.6339
12589837 11.8207 17.7878 28.084 27.5507 1.59361 4.57976 85.2432
12589851 11.8207 17.7878 28.084 27.5507 1.59361 4.57976 85.2432
12589857 11.1601 16.8527 28.5072 28.1645 1.57933 5.07631 84.6845
12589867 10.6052 16.1251 29.0388 28.7295 1.54164 5.50979 84.4986
12589877 10.6052 16.1251 29.0388 28.7295 1.54164 5.50979 84.4986
12589890 10.0503 15.3608 29.6688 29.4602 1.50872 5.9826 84.54
12589899 10.0503 15.3608 29.6688 29.4602 1.50872 5.9826 84.54
12589907 9.57461 14.4491 30.3382 30.2395 1.41128 6.4811 84.6014
12589923 9.04611 13.5834 30.9977 31.1748 1.38983 6.99446 84.802
12589927 9.04611 13.5834 30.9977 31.1748 1.38983 6.99446 84.802
12589937 8.61451 12.6809 31.6769 31.9931 1.28954 7.48091 84.9655
12589948 8.20933 11.8245 32.3266 32.8602 1.21706 7.94754 85.2206
12589957 8.20933 11.8245 32.3266 32.8602 1.21706 7.94754 85.2206
12589972 7.7601 11.0141 33.0648 33.7564 1.15239 8.41991 85.5955
12589977 7.7601 11.0141 33.0648 33.7564 1.15239 8.41991 85.5955
12589987 7.29326 10.1761 33.5866 34 0.968841 8.83841 85.0559
12590000 6.97617 9.36566 34 34 0.708276 9.18729 84.3418
12590007 6.97617 9.36566 34 34 0.708276 9.18729 84.3418
12590020 6.65026 8.69339 34 34 0.612864 9.47697 83.3437
12590027 6.38601 8.08559 34 34 0.515202 9.73579 82.4716
12590039 6.38601 8.08559 34 34 0.515202 9.73579 82.4716
12590053 6.10415 7.53304 34 34 0.437576 9.98861 81.6372
12590060 6.10415 7.53304 34 34 0.437576 9.98861 81.6372
12590068 5.82228 7.00813 34 34 0.366768 10.238 80.8304
12590082 5.53161 6.66739 34 34 0.354052 10.4367 80.199
12590088 5.53161 6.66739 34 34 0.354052 10.4367 80.199
12590098 5.37306 6.35428 34 34 0.307679 10.5872 79.7273
12590111 5.19689 6.07801 34 34 0.277865 10.7332 79.2749
12590129 5.08238 5.92145 34 34 0.265515 10.8215 79.0038
12590153 4.92383 5.68201 34 34 0.241134 10.9523 78.6059
12590160 4.87098 5.47941 34 34 0.194138 11.0369 78.3504
12590170 4.87098 5.47941 34 34 0.194138 11.0369 78.3504
12590180 4.68601 5.23998 34 34 0.177723 11.1787 77.926
12590190 4.457 5.09263 34 34 0.204912 11.3057 77.5496
12590200 4.457 5.09263 34 34 0.204912 11.3057 77.5496
12590210 4.39534 4.94529 34 34 0.177768 11.3768 77.3406
12590224 4.39534 4.94529 34 34 0.177768 11.3768 77.3406
12590230 4.18394 4.86241 34 34 0.22015 11.4776 77.0463
12590239 4.17513 4.77952 34 34 0.196347 11.5091 76.9547
12590251 4.17513 4.77952 34 34 0.196347 11.5091 76.9547
12590259 4.10466 4.72427 34 34 0.201619 11.5525 76.8289
12590271 4.20155 4.81636 34 34 0.199565 11.4873 77.0179
12590279 4.20155 4.81636 34 34 0.199565 11.4873 77.0179
12590294 4.2456 4.94529 34 34 0.226608 11.428 77.1909
12590315 4.27202 4.98212 34 34 0.229797 11.4064 77.2541
12590322 4.39534 5.12026 34 34 0.233802 11.3173 77.5156
12590341 4.53627 5.23998 34 34 0.226197 11.2291 77.7762
12590351 4.62435 5.30444 34 34 0.218177 11.1777 77.9288
12590371 4.6772 5.37811 34 34 0.224492 11.1353 78.0553
12590386 4.6772 5.37811 34 34 0.224492 11.1353 78.0553
12590391 4.6772 5.42416 34 34 0.239098 11.1199 78.1014
12590401 4.74767 5.461 34 34 0.228024 11.0841 78.2087
12590411 4.74767 5.461 34 34 0.228024 11.0841 78.2087
12590435 4.79171 5.64518 34 34 0.272024 11.0082 78.4369
12590437 4.82694 5.68201 34 34 0.272286 10.9843 78.509
12590442 4.82694 5.68201 34 34 0.272286 10.9843 78.509
12590452 4.89741 5.75569 34 34 0.272804 10.9367 78.6531
12590463 4.89741 5.75569 34 34 0.272804 10.9367 78.6531
12590472 4.92383 5.83857 34 34 0.290346 10.9007 78.7624
12590484 5.01192 5.99512 34 34 0.311115 10.8205 79.007
12590492 5.01192 5.99512 34 34 0.311115 10.8205 79.007
12590502 5.07358 6.11484 34 34 0.328732 10.7613 79.1884
12590513 5.10881 6.26219 34 34 0.363287 10.7021 79.371
12590526 5.10881 6.26219 34 34 0.363287 10.7021 79.371
12590536 5.16166 6.40953 34 34 0.392064 10.6374 79.5712
12590543 5.16166 6.40953 34 34 0.392064 10.6374 79.5712
12590559 5.15285 6.43716 34 34 0.403413 10.6314 79.59
12590563 5.23212 6.55688 34 34 0.415084 10.5674 79.789
12590573 5.23212 6.55688 34 34 0.415084 10.5674 79.789
12590584 5.24093 6.65818 34 34 0.44345 10.5322 79.8991
12590593 5.37306 6.80553 34 34 0.44665 10.4432 80.1786
12590608 5.37306 6.80553 34 34 0.44665 10.4432 80.1786
12590613 5.47876 6.89762 34 34 0.441319 10.3806 80.3764
12590625 5.47876 6.89762 34 34 0.441319 10.3806 80.3764
12590633 5.53161 7.00813 34 34 0.458318 10.3291 80.5397
12590643 5.70777 7.23835 34 34 0.472718 10.2019 80.9461
12590663 5.9456 7.487 34 34 0.473216 10.0514 81.4326
12590673 6.1658 7.77248 33.8819 34 0.527009 9.88942 81.8202
12590691 6.1658 7.77248 33.8819 34 0.527009 9.88942 81.8202
12590700 6.4829 8.15005 33.37 34 0.700325 9.64668 82.003
12590715 6.81762 8.6013 32.9172 34 0.870362 9.38196 82.3361
12590725 7.23161 9.2091 32.4644 34 1.05937 9.05077 82.9051
12590736 7.23161 9.2091 32.4644 34 1.05937 9.05077 82.9051
12590745 7.72487 9.86295 31.9624 34 1.24946 8.68482 83.5502
12590758 8.25337 10.5352 31.3127 34 1.47714 8.29787 84.1013
12590765 8.25337 10.5352 31.3127 34 1.47714 8.29787 84.1013
12590775 8.78187 11.2351 30.6138 33.6493 1.62813 7.87484 84.28
12590786 8.78187 11.2351 30.6138 33.6493 1.62813 7.87484 84.28
12590794 9.38964 11.9258 29.7279 32.7433 1.65646 7.36795 83.7865
12590809 10.1648 12.8191 28.7238 31.8665 1.73408 6.74966 83.5741
12590816 10.1648 12.8191 28.7238 31.8665 1.73408 6.74966 83.5741
12590826 11.0192 13.6755 27.5032 30.8046 1.79445 6.07447 83.0025
12590836 11.7503 14.6056 26.6566 29.8109 1.81399 5.45346 82.8234
12590846 11.7503 14.6056 26.6566 29.8109 1.81399 5.45346 82.8234
12590856 12.4637 15.4897 25.8987 28.8269 1.80041 4.85712 82.679
12590876 13.1684 16.4475 25.062 27.7943 1.82224 4.22695 82.4721
12590886 14.0052 17.3015 24.4418 26.898 1.74009 3.63593 82.6465
12590898 14.0052 17.3015 24.4418 26.898 1.74009 3.63593 82.6465
12590906 14.8067 18.167 23.7331 26.0504 1.71516 3.04681 82.7573
12590916 15.5466 18.8673 23.0834 25.31 1.67476 2.53229 82.8073
12590936 16.2073 19.6648 22.4534 24.6768 1.71107 2.03455 83.0022
12590946 16.2073 19.6648 22.4534 24.6768 1.71107 2.03455 83.0022
12590956 16.7534 20.2969 21.8923 23.9754 1.69644 1.59508 82.9179
12590968 17.3089 20.8804 21.5182 23.3226 1.61866 1.20164 83.0302
12590976 17.3089 20.8804 21.5182 23.3226 1.61866 1.20164 83.0302
12590990 17.857 21.3764 21.1934 22.8063 1.54156 0.858967 83.2331
12590996 18.3552 21.8043 20.8686 22.3582 1.48068 0.551738 83.3863
12591006 18.3552 21.8043 20.8686 22.3582 1.48068 0.551738 83.3863
12591016 18.8933 21.9891 20.6126 22.0269 1.34998 0.315565 83.522
12591037 19.2919 22.2323 20.1992 21.5398 1.28538 0.0387043 83.2632
12591052 19.8101 22.5629 19.8645 21.0527 1.18293 -0.262176 83.2902
12591057 19.8101 22.5629 19.8645 21.0527 1.18293 -0.262176 83.2902
12591067 20.2087 22.913 19.4806 20.4097 1.09427 -0.583899 83.0121
12591077 20.6471 23.0881 18.949 19.8544 1.01358 -0.896259 82.5387
12591087 20.6471 23.0881 18.949 19.8544 1.01358 -0.896259 82.5387
12591097 21.1454 23.4674 18.6439 19.3966 0.929996 -1.19275 82.6532
12591107 21.1454 23.4674 18.6439 19.3966 0.929996 -1.19275 82.6532
12591117 21.5938 23.7592 18.2994 18.7438 0.791857 -1.51277 82.3961
12591127 22.092 24.226 17.9942 18.1593 0.696918 -1.84873 82.4715
12591147 22.7497 24.7025 17.5906 17.2923 0.502351 -2.28991 82.3351
12591161 23.3775 25.1888 17.1969 16.5336 0.348744 -2.70408 82.2967
12591167 23.3775 25.1888 17.1969 16.5336 0.348744 -2.70408 82.2967
12591177 24.1049 25.6264 16.9896 15.8483 0.115106 -3.06897 82.5692
12591187 24.1049 25.6264 16.9896 15.8483 0.115106 -3.06897 82.5692
12591197 24.7327 26.1224 16.7089 15.3343 0.00455678 -3.40393 82.8983
12591209 25.3605 26.5892 16.3865 14.8679 -0.0871122 -3.73094 83.2041
12591217 25.3605 26.5892 16.3865 14.8679 -0.0871122 -3.73094 83.2041
12591232 26.1278 27.0658 16.0746 14.3348 -0.239758 -4.08791 83.603
12591238 26.1278 27.0658 15.6483 14.3348 -0.112857 -4.18574 83.1767
12591247 26.7556 27.4743 15.6483 13.8494 -0.322548 -4.43082 83.7275
12591258 27.3435 27.8049 15.3156 13.2878 -0.467567 -4.75423 83.7518
12591268 27.3435 27.8049 15.3156 13.2878 -0.467567 -4.75423 83.7518
12591278 27.8218 28.1745 14.9309 12.8024 -0.530235 -5.06328 83.7295
12591288 28.1506 28.3204 14.7437 12.4216 -0.643381 -5.25591 83.6364
12591299 28.1506 28.3204 14.7437 12.4216 -0.643381 -5.25591 83.6364
12591308 28.3898 28.4371 14.3278 12.117 -0.649542 -5.47281 83.2717
12591321 28.3898 28.4371 14.3278 12.117 -0.649542 -5.47281 83.2717
12591334 28.5094 28.4468 14.2031 11.9552 -0.694956 -5.55822 83.1144
12591343 28.619 28.5927 13.9639 11.7077 -0.688468 -5.70803 82.8833
12591348 28.619 28.5927 13.9639 11.7077 -0.688468 -5.70803 82.8833
12591360 28.6589 28.6413 13.8807 11.6792 -0.669535 -5.74588 82.8601
12591368 28.5094 28.6705 13.9223 11.584 -0.658281 -5.74586 82.6862
12591390 28.4197 28.6802 14.0055 11.6316 -0.638594 -5.70413 82.737
12591400 28.33 28.6802 14.1511 11.6316 -0.655034 -5.65765 82.7929
12591412 28.33 28.5927 14.1511 11.6887 -0.664467 -5.63352 82.7625
12591420 28.0909 28.6413 14.3486 11.8886 -0.575393 -5.51317 82.9694
12591440 27.9414 28.6997 14.5566 12.1646 -0.489935 -5.38371 83.3622
12591450 27.8417 28.6608 14.8685 12.3645 -0.503066 -5.2432 83.7355
12591469 27.7321 28.583 15.0037 12.5168 -0.487874 -5.15198 83.8355
12591480 27.5328 28.5246 15.1492 12.6786 -0.440739 -5.04789 83.8853
12591494 27.5328 28.5246 15.1492 12.6786 -0.440739 -5.04789 83.8853
12591500 27.2737 28.476 15.3156 12.8119 -0.387917 -4.93977 83.8772
12591521 26.905 28.2231 15.5859 12.9832 -0.38372 -4.75983 83.6973
12591531 26.6659 28.0481 15.8043 13.2021 -0.364302 -4.60596 83.7203
12591549 26.6659 28.0481 15.8043 13.2021 -0.364302 -4.60596 83.7203
12591552 26.4965 27.9022 16.1162 13.3639 -0.401345 -4.45616 83.8788
12591561 26.2673 27.591 16.3657 13.5448 -0.44685 -4.28818 83.7688
12591581 26.1178 27.3381 16.6881 13.7637 -0.507724 -4.1124 83.9077
12591601 25.7093 26.8907 17.0295 13.916 -0.578141 -3.8879 83.5455
12591611 25.3406 26.5017 17.4331 14.2968 -0.59087 -3.60989 83.5722
12591621 25.3406 26.5017 17.4331 14.2968 -0.59087 -3.60989 83.5722
12591631 24.8623 26.0349 18.0631 14.9059 -0.591578 -3.20655 83.8662
12591645 24.2345 25.6653 18.7128 15.3723 -0.56843 -2.82455 83.9849
12591652 24.2345 25.6653 18.7128 15.3723 -0.56843 -2.82455 83.9849
12591661 23.8159 25.3541 19.3231 15.8197 -0.582716 -2.49557 84.3129
12591672 23.8159 25.3541 19.3231 15.8197 -0.582716 -2.49557 84.3129
12591682 23.3576 24.8776 19.894 16.0767 -0.682051 -2.18472 84.2059
12591695 22.6202 24.0023 20.5732 16.7811 -0.717475 -1.65548 83.9768
12591712 21.4941 22.9519 21.7545 17.9255 -0.704648 -0.849812 84.1261
12591723 20.398 21.8043 23.1917 19.2407 -0.751652 0.0407624 84.6347
12591732 20.398 21.8043 23.1917 19.2407 -0.751652 0.0407624 84.6347
12591745 19.1225 20.5789 24.6584 20.6436 -0.752433 0.988278 85.0034
12591753 19.1225 20.5789 24.6584 20.6436 -0.752433 0.988278 85.0034
12591768 17.6278 18.8867 26.2629 22.2218 -0.81829 2.1124 84.9992
12591772 16.1104 17.2042 27.8969 23.9266 -0.844631 3.26099 85.1382
12591782 16.1104 17.2042 27.8969 23.9266 -0.844631 3.26099 85.1382
12591792 14.8772 15.8028 29.1471 25.3003 -0.857882 4.18796 85.1274
12591803 14.8772 15.8028 30.1511 25.3003 -1.13931 4.314 86.1314
12591818 13.644 14.6793 30.1511 26.3427 -0.817397 4.98198 84.8172
12591822 12.6047 13.6939 31.1158 27.2779 -0.811347 5.68443 84.6923
12591844 11.6358 12.9296 31.9722 28.2132 -0.727192 6.30438 84.7507
12591853 10.6845 12.1836 32.8188 29.392 -0.566415 6.93639 85.0788
12591871 10.6845 12.1836 32.8188 29.392 -0.566415 6.93639 85.0788
12591876 9.86528 11.3732 33.6358 30.4831 -0.481723 7.53544 85.3574
12591883 9.09896 10.4984 34 31.6132 -0.289695 8.10038 85.2105
12591895 9.09896 10.4984 34 31.6132 -0.289695 8.10038 85.2105
12591903 8.5 9.63272 34 32.4997 -0.108577 8.57242 84.6324
12591922 8.5 9.63272 34 32.4997 -0.108577 8.57242 84.6324
12591923 7.8658 8.91441 34 33.2011 0.0743479 9.00574 83.9814
12591933 7.46062 8.43554 34 33.7175 0.207022 9.29657 83.6136
12591951 7.46062 8.43554 34 33.7175 0.207022 9.29657 83.6136
12591954 7.05544 7.98429 34 34 0.279641 9.56655 83.0397
12591978 7.05544 7.98429 34 34 0.279641 9.56655 83.0397
12591981 6.68549 7.57909 34 34 0.271562 9.79804 82.2646
12591985 6.35078 7.30282 34 34 0.291488 9.98359 81.6536
12591993 6.35078 7.30282 34 34 0.291488 9.98359 81.6536
12592005 6.0601 6.90683 34 34 0.261441 10.1955 80.9669
12592013 5.6285 6.45558 34 34 0.258192 10.4732 80.0841
12592035 5.25855 5.98592 34 34 0.229472 10.7431 79.2445
12592049 5.25855 5.98592 34 34 0.229472 10.7431 79.2445
12592055 4.87098 5.53467 34 34 0.211617 11.0185 78.4057
12592065 4.457 5.11105 34 34 0.210801 11.2995 77.568
12592076 4.457 5.11105 34 34 0.210801 11.2995 77.568
12592086 4.09585 4.6506 34 34 0.180706 11.581 76.7465
12592097 3.64663 4.18093 34 34 0.176156 11.9031 75.8276
12592105 3.64663 4.18093 34 34 0.176156 11.9031 75.8276
12592122 3.35596 3.88624 34 34 0.176191 12.1124 75.2422
12592126 3.35596 3.88624 34 34 0.176191 12.1124 75.2422
12592135 3.01244 3.56392 34 34 0.184876 12.3545 74.5764
12592147 2.80984 3.3429 34 34 0.179717 12.5108 74.1527
12592156 2.80984 3.3429 34 34 0.179717 12.5108 74.1527
12592172 2.58083 3.22319 34 34 0.21759 12.6408 73.804
12592176 2.45751 3.07584 34 34 0.21022 12.7425 73.5334
12592196 2.29016 2.99296 34 34 0.239757 12.8372 73.2831
12592206 2.14041 2.89166 34 34 0.257161 12.9329 73.0321
12592227 2.00829 2.85482 34 34 0.29045 12.9977 72.8631
12592247 1.87617 2.77194 34 34 0.308257 13.0806 72.6481
12592264 1.85855 2.76273 34 34 0.311267 13.0909 72.6213
12592267 1.85855 2.76273 34 34 0.311267 13.0909 72.6213
12592277 1.85855 2.78115 34 34 0.317526 13.0838 72.6397
12592289 1.88497 2.81798 34 34 0.320831 13.0594 72.703
12592298 1.88497 2.81798 34 34 0.320831 13.0594 72.703
12592315 1.8057 2.88245 34 34 0.370333 13.0651 72.6881
12592328 1.7 2.80878 34 34 0.382292 13.1345 72.5088
12592341 1.62073 2.80878 34 34 0.410071 13.1653 72.4295
12592348 1.62073 2.80878 34 34 0.410071 13.1653 72.4295
12592358 1.54145 2.71668 34 34 0.406611 13.2321 72.2581
12592368 1.55026 2.62459 34 34 0.372133 13.2647 72.1749
12592378 1.55026 2.62459 34 34 0.372133 13.2647 72.1749
12592393 1.4886 2.68906 34 34 0.415799 13.2636 72.1777
12592398 1.4886 2.68906 34 34 0.415799 13.2636 72.1777
12592408 1.4886 2.68906 34 34 0.415799 13.2636 72.1777
12592418 1.46218 2.71668 34 34 0.434515 13.2631 72.1789
12592440 1.47098 2.65222 34 34 0.409451 13.2849 72.1232
12592448 1.50622 2.68906 34 34 0.409597 13.2567 72.1953
12592458 1.50622 2.68906 34 34 0.409597 13.2567 72.1953
12592471 1.53264 2.67064 34 34 0.394025 13.2536 72.2033
12592489 1.55907 2.70748 34 34 0.397283 13.2288 72.2665
12592502 1.5943 2.70748 34 34 0.384906 13.2151 72.3018
12592512 1.5943 2.70748 34 34 0.384906 13.2151 72.3018
12592520 1.54145 2.7351 34 34 0.412878 13.2249 72.2766
12592534 1.51503 2.67985 34 34 0.403363 13.2569 72.1949
12592540 1.51503 2.67985 34 34 0.403363 13.2569 72.1949
12592550 1.55026 2.72589 34 34 0.406647 13.2251 72.2762
12592570 1.56788 2.75352 34 34 0.409853 13.2074 72.3214
12592579 1.5943 2.81798 34 34 0.422472 13.172 72.4123
12592600 1.5943 2.81798 34 34 0.422472 13.172 72.4123
12592609 1.67358 2.89166 34 34 0.419652 13.1126 72.5652
12592627 1.77927 2.91008 34 34 0.388917 13.0646 72.6893
12592629 1.77927 2.91008 34 34 0.388917 13.0646 72.6893
12592631 1.76166 2.9377 34 34 0.40442 13.0608 72.6994
12592641 1.76166 2.9377 34 34 0.40442 13.0608 72.6994
12592652 1.84093 2.91929 34 34 0.370517 13.0373 72.7602
12592661 1.83212 2.97454 34 34 0.392279 13.0194 72.8067
12592675 1.83212 2.97454 34 34 0.392279 13.0194 72.8067
12592682 1.88497 3.039 34 34 0.395626 12.9743 72.924
12592698 1.93782 3.07584 34 34 0.389659 12.94 73.0137
12592712 1.97306 3.14951 34 34 0.402218 12.8984 73.1226
12592723 1.97306 3.14951 34 34 0.402218 12.8984 73.1226
12592732 2.04352 3.23239 34 34 0.405616 12.84 73.2759
12592747 2.10518 3.2416 34 34 0.387347 12.8131 73.3468
12592762 2.15803 3.37053 34 34 0.412253 12.7443 73.5286
12592773 2.19326 3.37053 34 34 0.400081 12.731 73.5638
12592794 2.29016 3.52709 34 34 0.418913 12.6358 73.8172
12592803 2.29016 3.52709 34 34 0.418913 12.6358 73.8172
12592819 2.30777 3.60076 34 34 0.437361 12.6017 73.9085
12592823 2.4487 3.73889 34 34 0.434774 12.4979 74.1876
12592843 2.52798 3.84019 34 34 0.441119 12.4311 74.3682
12592853 2.6601 3.97833 34 34 0.441539 12.3318 74.6384
12592865 2.6601 3.97833 34 34 0.441539 12.3318 74.6384
12592873 2.78342 4.22698 34 34 0.48112 12.1962 75.0104
12592893 2.78342 4.22698 34 34 0.48112 12.1962 75.0104
12592894 2.88031 4.2546 34 34 0.457275 12.1512 75.1349
12592903 3.01244 4.49404 34 34 0.490555 12.0175 75.5065
12592921 3.01244 4.49404 34 34 0.490555 12.0175 75.5065
12592925 3.23264 4.76111 34 34 0.502825 11.8443 75.9937
12592935 3.5057 5.18472 34 34 0.547338 11.6005 76.6904
12592945 3.5057 5.18472 34 34 0.547338 11.6005 76.6904
12592954 3.8228 5.64518 34 34 0.58811 11.3335 77.468
12592971 3.8228 5.64518 34 34 0.58811 11.3335 77.468
12592975 4.10466 6.13326 34 34 0.648215 11.0743 78.2379
12592985 4.64197 6.91603 34 34 0.714594 10.6417 79.558
12592996 4.64197 6.91603 34 34 0.714594 10.6417 79.558
12593005 5.28497 7.6896 34 34 0.742403 10.1931 80.9746
12593019 5.99845 8.56446 34 34 0.776988 9.70843 82.5629
12593026 5.99845 8.56446 34 34 0.776988 9.70843 82.5629
12593035 6.74715 9.49458 33.9902 34 0.81836 9.21535 84.2319
12593044 6.74715 9.49458 33.9902 34 0.81836 9.21535 84.2319
12593055 7.51347 10.4063 33.1731 33.5324 0.960723 8.64737 84.6253
12593067 8.53523 11.3732 32.0313 32.5387 0.990021 7.9301 84.4784
12593075 8.53523 11.3732 32.0313 32.5387 0.990021 7.9301 84.4784
12593091 9.83005 12.4507 30.8402 31.3696 0.932086 7.08879 84.4906
12593095 10.9839 13.5742 29.4227 30.3759 1.05016 6.26633 84.3568
12593105 10.9839 13.5742 29.4227 30.3759 1.05016 6.26633 84.3568
12593115 12.1642 14.6701 27.8871 29.1192 1.1146 5.39809 83.8406
12593139 13.3269 15.7107 26.3515 27.9014 1.18073 4.54107 83.2906
12593146 14.5689 16.8527 24.6879 26.557 1.25591 3.59699 82.6665
12593156 14.5689 16.8527 24.6879 26.557 1.25591 3.59699 82.6665
12593166 15.8637 18.1281 23.2507 25.3393 1.31777 2.65157 82.5819
12593176 17.0598 19.4119 21.8825 24.0338 1.36654 1.71953 82.388
12593188 17.0598 19.4119 21.8825 24.0338 1.36654 1.71953 82.388
12593196 18.4349 20.5887 20.5732 22.8258 1.33649 0.796278 82.4226
12593210 18.4349 20.5887 20.5732 22.8258 1.33649 0.796278 82.4226
12593216 19.6208 21.6974 19.4511 21.7639 1.3296 -0.0187469 82.5331
12593225 20.8066 22.845 18.388 20.8384 1.35405 -0.800909 82.8779
12593236 20.8066 22.845 18.388 20.8384 1.35405 -0.800909 82.8779
12593256 21.9226 23.9245 17.3839 19.7862 1.32629 -1.5678 83.0173
12593257 23.0487 24.9067 16.4073 18.7438 1.26181 -2.31105 83.1066
12593281 24.075 25.7626 15.4404 17.7501 1.20361 -3.00749 83.0281
12593287 24.075 25.7626 15.4404 17.7501 1.20361 -3.00749 83.0281
12593297 24.8324 26.4239 14.6398 16.8763 1.1562 -3.57733 82.7723
12593314 25.49 27.0366 13.9847 16.248 1.1509 -4.04073 82.7594
12593318 25.49 27.0366 13.9847 16.248 1.1509 -4.04073 82.7594
12593330 26.0879 27.5132 13.4336 15.6674 1.10608 -4.44366 82.7021
12593341 26.5064 27.8924 12.9761 15.1915 1.09044 -4.76548 82.5665
12593357 27.0445 28.3106 12.5914 14.7632 1.03912 -5.0781 82.7098
12593367 27.0445 28.3106 12.5914 14.7632 1.03912 -5.0781 82.7098
12593377 27.4431 28.6705 12.1651 14.4681 1.06659 -5.34408 82.7468
12593387 27.7222 28.7677 11.9156 14.0969 0.977805 -5.54119 82.5023
12593397 27.7222 28.7677 11.9156 14.0969 0.977805 -5.54119 82.5023
12593410 27.9912 28.8844 11.6765 13.8684 0.935811 -5.702 82.4205
12593417 28.0111 28.9525 11.5413 13.7161 0.947514 -5.78433 82.2211
12593437 28.0311 29.0887 11.4893 13.7352 1.00295 -5.81011 82.3442
12593447 28.0311 29.0887 11.4893 13.7352 1.00295 -5.81011 82.3442
12593457 28.041 29.2151 11.5413 13.8018 1.03953 -5.79541 82.5992
12593467 28.2204 29.4193 11.5517 13.6495 0.994906 -5.87365 82.8409
12593489 28.3499 29.5652 11.6037 13.5353 0.947237 -5.91955 83.0541
12593502 28.4695 29.7111 11.6453 13.4782 0.922668 -5.95239 83.304
12593508 28.4695 29.7111 11.6453 13.4782 0.922668 -5.95239 83.304
12593518 28.5492 29.8181 11.6141 13.4877 0.941202 -5.97807 83.4691
12593528 28.5492 29.8181 11.6141 13.4877 0.941202 -5.97807 83.4691
12593540 28.4496 29.9737 11.5725 13.3354 0.986126 -6.03293 83.3311
12593549 28.4695 30.0807 11.6349 13.1926 0.950161 -6.06686 83.3777
12593573 28.5293 30.1876 11.5933 13.145 0.96162 -6.10722 83.4552
12593578 28.3798 30.2168 11.5725 13.0879 1.00664 -6.11413 83.257
12593600 28.2902 30.2363 11.6557 13.0118 0.992325 -6.10484 83.1938
12593610 28.2902 30.2363 11.6557 13.0118 0.992325 -6.10484 83.1938
12593623 28.1208 30.1682 11.8324 12.9261 0.94558 -6.05625 83.0474
12593630 28.051 30.0029 11.9364 12.9737 0.900739 -5.99244 82.9639
12593640 28.051 30.0029 11.9364 12.9737 0.900739 -5.99244 82.9639
12593650 27.7919 29.8473 12.2171 13.0974 0.884721 -5.84506 82.9537
12593660 27.4033 29.7208 12.5706 13.3544 0.933582 -5.63504 83.0492
12593673 27.4033 29.7208 12.5706 13.3544 0.933582 -5.63504 83.0492
12593680 26.9549 29.361 13.0281 13.7542 0.942314 -5.33108 83.0982
12593690 26.9549 29.361 13.0281 13.7542 0.942314 -5.33108 83.0982
12593700 26.4865 29.04 13.5896 14.1445 0.933328 -5.00702 83.2606
12593710 26.0281 28.7191 14.2654 14.5633 0.894037 -4.65179 83.576
12593730 25.3306 28.1259 15.1076 15.2296 0.870347 -4.1386 83.7937
12593747 25.3306 28.1259 15.1076 15.2296 0.870347 -4.1386 83.7937
12593751 24.5234 27.5034 16.0434 15.953 0.859743 -3.57588 84.0233
12593760 23.4771 26.5795 17.2559 16.7906 0.78387 -2.85544 84.1032
12593780 23.4771 26.5795 17.2559 16.7906 0.78387 -2.85544 84.1032
12593783 22.1319 25.3541 18.634 17.9255 0.747713 -1.9501 84.0456
12593790 20.6571 23.8272 20.4354 19.3771 0.626296 -0.831312 84.2968
12593811 19.4414 22.8061 22.1679 20.7605 0.574464 0.119916 85.1758
12593821 19.4414 22.8061 22.1679 20.7605 0.574464 0.119916 85.1758
12593834 18.3154 21.7265 23.487 21.9003 0.533924 0.93856 85.4292
12593840 17.2989 20.6178 24.4221 22.8745 0.519663 1.65112 85.2134
12593864 17.2989 20.6178 24.4221 22.8745 0.519663 1.65112 85.2134
12593867 16.401 19.2952 25.249 23.8487 0.440446 2.37071 84.7939
12593869 15.5642 17.7878 26.3909 25.1347 0.284919 3.21172 84.8775
12593895 15.5642 17.7878 26.3909 25.1347 0.284919 3.21172 84.8775
12593898 14.7803 16.0883 27.4933 26.8688 0.200459 4.13469 85.2307
12593901 14.7803 16.0883 27.4933 26.8688 0.200459 4.13469 85.2307
12593911 13.8378 14.357 28.6549 28.6126 0.139499 5.10272 85.4623
12593926 13.0363 12.6533 29.4916 30.2493 0.109655 5.97878 85.4305
12593941 12.1995 11.2904 30.1708 31.4281 0.102288 6.71811 85.0887
12593951 11.5212 10.2221 30.7319 32.3049 0.0807464 7.30597 84.7801
12593961 11.5212 10.2221 30.7319 32.3049 0.0807464 7.30597 84.7801
12593976 10.9575 9.2091 31.3914 33.2693 0.0381649 7.86789 84.8274
12593992 10.2793 8.43554 31.9131 34 0.0718206 8.36574 84.628
12594003 9.62746 7.75406 32.6514 34 -0.156134 8.79475 84.0329
12594012 9.62746 7.75406 32.6514 34 -0.156134 8.79475 84.0329
12594027 8.87876 7.1831 33.4881 34 -0.354217 9.23273 83.55
12594032 7.94508 6.66739 34 34 -0.386651 9.69361 82.6125
12594042 7.94508 6.66739 34 34 -0.386651 9.69361 82.6125
12594052 6.87927 5.97671 34 34 -0.279066 10.23 80.856
12594078 5.76062 5.20314 34 34 -0.176498 10.8346 78.9638
12594082 4.84456 4.61376 34 34 -0.0744924 11.3367 77.4583
12594104 4.05181 4.02438 34 34 -0.0090152 11.8152 76.0762
12594112 3.2943 3.49025 34 34 0.0655055 12.2784 74.7845
12594129 3.2943 3.49025 34 34 0.0655055 12.2784 74.7845
12594132 2.66891 3.18635 34 34 0.175151 12.6216 73.8553
12594142 2.66891 3.18635 34 34 0.175151 12.6216 73.8553
12594155 2.19326 2.87324 34 34 0.232655 12.9198 73.0665
12594162 1.87617 2.7351 34 34 0.295731 13.0948 72.6113
12594181 1.87617 2.7351 34 34 0.295731 13.0948 72.6113
12594183 1.77047 2.68906 34 34 0.316933 13.1537 72.4595
12594193 1.56788 2.67985 34 34 0.384778 13.2362 72.2477
12594206 1.56788 2.67985 34 34 0.384778 13.2362 72.2477
12594213 1.61192 2.67985 34 34 0.369313 13.219 72.2918
12594230 1.61192 2.67985 34 34 0.369313 13.219 72.2918
12594233 1.62953 2.80878 34 34 0.406983 13.1619 72.4383
12594243 1.7 3.02979 34 34 0.457099 13.049 72.7298
12594253 1.7 3.02979 34 34 0.457099 13.049 72.7298
12594263 1.77927 3.2416 34 34 0.500655 12.9372 73.0209
12594278 1.92902 3.35211 34 34 0.485492 12.838 73.2811
12594283 1.92902 3.35211 34 34 0.485492 12.838 73.2811
12594293 2.07876 3.41658 34 34 0.45507 12.7569 73.4953
12594315 2.19326 3.49025 34 34 0.440052 12.686 73.6835
12594325 2.32539 3.6468 34 34 0.446594 12.5779 73.9722
12594350 2.41347 3.81257 34 34 0.471228 12.4836 74.226
12594355 2.58964 4.01517 34 34 0.477692 12.3441 74.6048
12594375 2.77461 4.2454 34 34 0.490132 12.1927 75.02
12594396 2.91554 4.48483 34 34 0.520319 12.0556 75.4004
12594405 3.23264 4.77952 34 34 0.508761 11.8378 76.0122
12594430 3.23264 4.77952 34 34 0.508761 11.8378 76.0122
12594433 3.5057 5.11105 34 34 0.523823 11.626 76.6168
12594436 3.76995 5.33207 34 34 0.506511 11.4585 77.102
12594464 4.02539 5.64518 34 34 0.521368 11.2648 77.6706
12594468 4.02539 5.64518 34 34 0.521368 11.2648 77.6706
12594478 4.2456 5.8662 34 34 0.51868 11.1164 78.1118
12594499 4.42176 6.12405 34 34 0.541815 10.9721 78.5458
12594499 4.42176 6.12405 34 34 0.541815 10.9721 78.5458
12594507 4.5715 6.23456 34 34 0.527582 10.8863 78.8061
12594533 4.63316 6.474 34 34 0.581753 10.7878 79.1072
12594535 4.63316 6.474 34 34 0.581753 10.7878 79.1072
12594537 4.76529 6.56609 34 34 0.567493 10.7149 79.3314
12594549 4.80933 6.63055 34 34 0.573146 10.6798 79.4399
12594573 4.94145 6.75027 34 34 0.567445 10.5986 79.6917
12594578 4.94145 6.75027 34 34 0.567445 10.5986 79.6917
12594590 5.04715 6.81473 34 34 0.553325 10.5441 79.8619
12594598 5.11762 6.94366 34 34 0.570202 10.4805 80.0613
12594608 5.11762 6.94366 34 34 0.570202 10.4805 80.0613
12594622 5.3114 7.02654 33.9508 34 0.549379 10.3899 80.2887
12594628 5.44352 7.20152 33.872 34 0.585577 10.2886 80.5171
12594638 5.44352 7.20152 33.872 34 0.585577 10.2886 80.5171
12594653 5.6285 7.36728 33.7736 34 0.608268 10.173 80.7694
12594659 5.6285 7.36728 33.7736 34 0.608268 10.173 80.7694
12594668 5.75181 7.54225 33.498 34 0.709373 10.0636 80.792
12594682 5.97202 7.75406 33.2027 34 0.796804 9.91179 80.9287
12594690 5.97202 7.75406 33.2027 34 0.796804 9.91179 80.9287
12594716 6.28912 8.06717 32.7794 34 0.923967 9.69175 81.1357
12594719 6.73834 8.51842 32.0706 34 1.14028 9.3721 81.3274
12594720 6.73834 8.51842 32.0706 34 1.14028 9.3721 81.3274
12594730 7.36373 9.13543 31.4997 34 1.30245 8.96364 81.9989
12594751 7.7513 9.65114 31.1749 34 1.43047 8.67776 82.5773
12594760 7.95389 10.0471 30.8697 34 1.57581 8.48346 82.8707
12594779 7.95389 10.0471 30.8697 34 1.57581 8.48346 82.8707
12594780 8.24456 10.526 30.161 34 1.84504 8.20986 82.9315
12594791 8.79948 10.9772 29.3636 34 2.04898 7.86385 83.1404
12594805 8.79948 10.9772 29.3636 34 2.04898 7.86385 83.1404
12594810 9.70674 11.6863 28.0544 33.3278 2.19056 7.24657 82.7753
12594831 10.8782 12.5981 26.8732 32.5192 2.22214 6.50115 82.8687
12594841 11.5477 13.4269 26.3121 32.0418 2.28281 6.00864 83.3285
12594854 11.5477 13.4269 26.3121 32.0418 2.28281 6.00864 83.3285
12594861 11.944 13.8689 26.0069 31.5352 2.23537 5.70977 83.3551
12594871 12.5518 14.4215 25.4951 30.9605 2.19799 5.30074 83.4288
12594891 13.3005 15.0569 24.8848 30.1713 2.11085 4.80115 83.4135
12594901 13.3005 15.0569 24.8848 30.1713 2.11085 4.80115 83.4135
12594911 14.3663 15.8397 23.6543 29.0218 2.06341 4.06664 82.8821
12594925 15.9342 16.954 22.1187 27.4436 1.92376 3.03348 82.4504
12594942 17.4683 18.2838 20.7012 25.953 1.84064 1.98446 82.4063
12594952 18.7737 19.3633 19.5101 24.5404 1.70944 1.07927 82.1875
12594975 19.9297 20.3553 18.5553 23.4688 1.62165 0.316942 82.309
12595000 20.8066 20.9874 17.8662 22.6894 1.51913 -0.225563 82.3496
12595002 21.534 21.6487 17.2658 21.9587 1.45852 -0.720487 82.4073
12595012 21.534 21.6487 17.2658 21.9587 1.45852 -0.720487 82.4073
12595025 22.2016 22.3198 16.7193 21.3645 1.4416 -1.169 82.6052
12595033 22.8494 23.1076 16.1994 20.6825 1.43089 -1.64325 82.8388
12595050 22.8494 23.1076 16.1994 20.6825 1.43089 -1.64325 82.8388
12595053 23.4971 23.9245 15.7835 19.8934 1.36505 -2.12001 83.0984
12595073 24.075 24.5664 15.3676 19.0264 1.2495 -2.57374 83.0353
12595084 24.5434 25.1207 14.9517 18.286 1.17959 -2.97215 82.9017
12595107 24.9818 25.5486 14.6086 17.6235 1.08193 -3.31643 82.7625
12595125 25.4302 26.0057 14.255 17.0974 1.03211 -3.63882 82.7884
12595135 25.8388 26.3267 13.8287 16.5907 0.983781 -3.94975 82.5849
12595148 26.078 26.3267 13.5064 16.2956 0.923863 -4.12422 82.2067
12595154 26.078 26.8324 13.5064 16.2956 1.07107 -4.19072 82.7124
12595164 26.3769 27.2506 13.2465 15.9625 1.08336 -4.4217 82.8364
12595174 26.3769 27.2506 13.2465 15.9625 1.08336 -4.4217 82.8364
12595186 26.6659 27.7174 12.9034 15.5437 1.11427 -4.69688 82.8303
12595201 26.9648 28.1064 12.6954 15.2391 1.10994 -4.90389 83.0057
12595216 27.1841 28.4468 12.3835 14.8393 1.12203 -5.14306 82.8536
12595232 27.3535 28.8164 12.1028 14.5538 1.18136 -5.34491 82.8263
12595236 27.3535 28.8164 12.1028 14.5538 1.18136 -5.34491 82.8263
12595246 27.5428 29.1762 11.9468 14.3824 1.22491 -5.48894 83.0482
12595259 27.5428 29.1762 11.9468 14.3824 1.22491 -5.48894 83.0482
12595266 27.6026 29.3804 11.6557 14.2111 1.30757 -5.63362 82.8498
12595285 27.5926 29.6333 11.6141 14.1635 1.38251 -5.6832 83.0035
12595288 27.5926 29.6333 11.6141 14.1635 1.38251 -5.6832 83.0035
12595296 27.5229 29.7695 11.5829 14.0969 1.43439 -5.71504 82.972
12595311 27.4332 29.7695 11.6349 14.1349 1.45721 -5.68252 82.9724
12595316 27.4332 29.7792 11.6349 14.1349 1.45997 -5.68361 82.9822
12595326 27.2339 29.6625 11.7492 14.2872 1.49718 -5.5816 82.9328
12595350 27.0246 29.5555 11.8948 14.5062 1.54922 -5.45531 82.9811
12595363 26.7954 29.4388 12.1028 14.7917 1.60364 -5.29416 83.1287
12595366 26.7954 29.4388 12.1028 14.7917 1.60364 -5.29416 83.1287
12595376 26.5463 29.3999 12.3419 15.0773 1.67604 -5.13289 83.3654
12595396 26.2075 29.2832 12.5083 15.3247 1.76786 -4.97896 83.3237
12595417 25.9584 29.1373 12.7578 15.696 1.83038 -4.78314 83.5494
12595419 25.9584 29.1373 12.7578 15.696 1.83038 -4.78314 83.5494
12595426 25.6495 29.0303 12.9865 15.8863 1.87925 -4.63305 83.5527
12595443 25.4502 28.8553 13.2257 16.2385 1.91535 -4.44813 83.7697
12595446 25.4502 28.8553 13.2257 16.2385 1.91535 -4.44813 83.7697
12595456 25.3107 28.6997 13.4336 16.3527 1.88196 -4.3362 83.7967
12595466 25.3107 28.6997 13.4336 16.3527 1.88196 -4.3362 83.7967
12595477 25.1413 28.5246 13.5064 16.4194 1.88305 -4.26001 83.5917
12595487 24.9719 28.4273 13.6624 16.6097 1.91309 -4.14606 83.6713
12595496 24.9719 28.4273 13.6624 16.6097 1.91309 -4.14606 83.6713
12595510 24.7825 28.3398 13.756 16.505 1.89078 -4.11257 83.3833
12595517 24.5932 28.1453 13.9119 16.7335 1.91094 -3.97435 83.3839
12595527 24.5932 28.1453 13.9119 16.7335 1.91094 -3.97435 83.3839
12595537 24.374 27.98 14.1303 16.8096 1.8865 -3.85635 83.2939
12595547 24.374 27.98 14.1303 16.8096 1.8865 -3.85635 83.2939
12595558 24.0551 27.7271 14.3798 16.9905 1.8889 -3.68213 83.1525
12595567 23.8159 27.5132 14.7541 17.2923 1.86966 -3.46913 83.3755
12595589 23.507 27.0172 15.118 17.6527 1.81428 -3.19709 83.295
12595597 23.0785 26.4628 15.5339 18.1398 1.7996 -2.86022 83.2151
12595610 23.0785 26.4628 15.5339 18.1398 1.7996 -2.86022 83.2151
12595618 22.6102 25.996 16.137 18.8607 1.82693 -2.44159 83.6039
12595639 22.6102 25.996 16.137 18.8607 1.82693 -2.44159 83.6039
12595642 22.0621 25.3249 16.792 19.6011 1.81186 -1.96834 83.7803
12595648 21.5938 24.8484 17.4627 20.3026 1.80939 -1.54564 84.2074
12595668 21.5938 24.8484 17.4627 20.3026 1.80939 -1.54564 84.2074
12595670 21.2351 24.4594 18.0926 20.7312 1.73422 -1.21936 84.5183
12595678 20.8564 24.1384 18.4076 20.965 1.73036 -0.999582 84.3675
12595694 20.8564 24.1384 18.4076 20.965 1.73036 -0.999582 84.3675
12595698 20.5375 23.6814 18.575 21.2476 1.73022 -0.78467 84.0414
12595720 20.0991 23.0686 19.0278 21.686 1.67729 -0.438825 83.8815
12595731 19.6606 22.4462 19.4511 22.2607 1.66887 -0.0706914 83.8186
12595750 18.8236 21.5418 20.2583 23.1083 1.66253 0.537651 83.7319
12595760 17.7573 20.4914 21.4986 24.2871 1.64297 1.34533 84.0344
12595771 17.7573 20.4914 21.4986 24.2871 1.64297 1.34533 84.0344
12595781 16.4979 18.9743 23.2113 25.9043 1.52779 2.4194 84.5878
12595796 15.115 17.282 25.1801 27.5994 1.34613 3.58945 85.1766
12595819 13.8731 15.6371 26.9618 29.2166 1.17251 4.66836 85.6885
12595831 12.6223 14.007 28.4974 30.7364 1.0551 5.69589 85.8631
12595844 11.3715 12.5888 29.8558 31.9347 0.960979 6.61746 85.7508
12595850 11.3715 12.5888 29.8558 31.9347 0.960979 6.61746 85.7508
12595859 10.3938 11.3824 30.7221 32.7238 0.877234 7.3343 85.2221
12595870 10.3938 11.3824 30.7221 32.7238 0.877234 7.3343 85.2221
12595880 9.47772 10.572 31.3619 33.3473 0.908375 7.90349 84.7589
12595894 8.90518 10.0011 31.7852 33.9123 0.952396 8.29595 84.6038
12595901 8.90518 10.0011 31.7852 33.9123 0.952396 8.29595 84.6038
12595911 8.48238 9.50379 32.0608 34 0.880641 8.57996 84.047
12595921 8.27979 9.08017 32.2675 34 0.757185 8.77239 83.6275
12595932 8.27979 9.08017 32.2675 34 0.757185 8.77239 83.6275
12595944 8.08601 8.85915 32.4152 34 0.707161 8.90172 83.3603
12595952 8.08601 8.85915 32.4152 34 0.707161 8.90172 83.3603
12595961 7.89223 8.64735 32.6711 34 0.626126 9.03698 83.2107
12595971 7.69845 8.3987 33.1436 34 0.467515 9.19858 83.2407
12595981 7.69845 8.3987 33.1436 34 0.467515 9.19858 83.2407
12595997 7.44301 8.12243 33.5275 34 0.346577 9.38023 83.0929
12596001 7.20518 7.8922 33.9508 34 0.221628 9.54628 83.0482
12596011 7.20518 7.8922 33.9508 34 0.221628 9.54628 83.0482
12596021 6.81762 7.56067 34 34 0.225502 9.76381 82.3783
12596042 6.45648 7.22914 34 34 0.236475 9.97379 81.6856
12596051 6.06891 6.80553 34 34 0.227705 10.2243 80.8744
12596065 6.06891 6.80553 34 34 0.227705 10.2243 80.8744
12596071 5.61088 6.34507 34 34 0.229561 10.5141 79.9559
12596081 5.01192 5.69122 34 34 0.215781 10.9202 78.7031
12596091 5.01192 5.69122 34 34 0.215781 10.9202 78.7031
12596102 4.33368 4.96371 34 34 0.203767 11.3916 77.2974
12596112 4.33368 4.96371 34 34 0.203767 11.3916 77.2974
12596122 3.84041 4.38353 34 34 0.178134 11.7632 76.2239
12596135 3.4 3.95991 34 34 0.185749 12.0701 75.3599
12596155 3.14456 3.65601 34 34 0.17094 12.2725 74.8006
12596165 2.9772 3.49946 34 34 0.175309 12.3911 74.4767
12596180 2.9772 3.49946 34 34 0.175309 12.3911 74.4767
12596182 2.89793 3.53629 34 34 0.214407 12.4067 74.4342
12596192 2.89793 3.53629 34 34 0.214407 12.4067 74.4342
12596205 3.00363 3.78494 34 34 0.261173 12.2769 74.7886
12596213 3.22383 4.10726 34 34 0.29318 12.0805 75.3311
12596230 3.22383 4.10726 34 34 0.29318 12.0805 75.3311
12596232 3.41762 4.37432 34 34 0.315568 11.9158 75.7919
12596245 3.62902 4.59534 34 34 0.316933 11.7631 76.2244
12596256 3.62902 4.59534 34 34 0.316933 11.7631 76.2244
12596263 3.84922 4.76111 34 34 0.29757 11.6283 76.6103
12596284 3.97254 4.89003 34 34 0.29842 11.5409 76.8626
12596293 4.06943 4.97291 34 34 0.29318 11.4789 77.0423
12596310 4.06943 4.97291 34 34 0.29318 11.4789 77.0423
12596313 4.18394 5.16631 34 34 0.317508 11.3735 77.3502
12596323 4.34249 5.36891 34 34 0.330201 11.251 77.7114
12596343 4.50984 5.59913 34 34 0.348642 11.1174 78.109
12596355 4.50984 5.59913 34 34 0.348642 11.1174 78.109
12596371 4.64197 5.6636 34 34 0.326169 11.0518 78.3056
12596375 4.80933 5.89382 34 34 0.344488 10.9202 78.7032
12596395 4.98549 6.00433 34 34 0.322461 10.8261 78.9898
12596405 5.04715 6.17931 34 34 0.357252 10.749 79.2265
12596422 5.04715 6.17931 34 34 0.357252 10.749 79.2265
12596425 5.19689 6.29903 34 34 0.346601 10.6617 79.4959
12596434 5.19689 6.29903 34 34 0.346601 10.6617 79.4959
12596454 5.24974 6.44637 34 34 0.375372 10.5972 79.6961
12596457 5.39067 6.55688 34 34 0.364679 10.5167 79.9476
12596465 5.39067 6.55688 34 34 0.364679 10.5167 79.9476
12596484 5.63731 6.73185 34 34 0.340477 10.3829 80.3692
12596486 5.74301 7.02654 34 34 0.397283 10.257 80.7695
12596508 5.99845 7.33044 34 34 0.409448 10.0833 81.3289
12596516 5.99845 7.33044 34 34 0.409448 10.0833 81.3289
12596532 6.1658 7.69881 34 34 0.468153 9.91919 81.8646
12596536 6.34197 7.96587 34 34 0.49324 9.785 82.3078
12596546 6.34197 7.96587 34 34 0.49324 9.785 82.3078
12596556 6.51813 8.41712 33.6358 34 0.685227 9.57367 82.571
12596567 6.97617 9.01571 33.0058 34 0.913808 9.21964 82.9977
12596582 6.97617 9.01571 33.0058 34 0.913808 9.21964 82.9977
12596586 7.51347 9.86295 32.297 34 1.21079 8.76992 83.6735
12596596 7.51347 9.86295 32.297 34 1.21079 8.76992 83.6735
12596613 8.04197 10.5813 31.9919 34 1.34355 8.3972 84.6151
12596616 8.57047 11.318 31.5883 33.4642 1.36077 7.97567 84.9409
12596648 9.03731 11.9258 31.0567 32.7725 1.3575 7.58314 84.7923
12596652 9.43368 12.5612 30.4661 32.0029 1.38055 7.18782 84.4639
12596684 9.89171 13.3716 29.718 31.2527 1.4883 6.71475 84.2341
12596687 9.89171 13.3716 29.718 31.2527 1.4883 6.71475 84.2341
12596688 10.3762 14.0347 28.8715 30.6779 1.62726 6.27772 83.9602
12596696 11.0104 14.7622 28.0643 30.0934 1.72195 5.78787 83.9302
12596720 11.0104 14.7622 28.0643 30.0934 1.72195 5.78787 83.9302
12596722 11.486 15.2687 27.4737 29.3628 1.69628 5.39801 83.5911
12596727 11.8295 15.7752 27.0012 28.6613 1.68308 5.05441 83.2672
12596748 12.1642 16.1528 26.7944 28.1547 1.60593 4.79765 83.2662
12596760 12.1642 16.1528 26.7944 28.1547 1.60593 4.79765 83.2662
12596774 12.4021 16.5856 26.5385 27.7845 1.6293 4.5616 83.3107
12596777 12.7104 16.954 26.2137 27.4728 1.65047 4.32308 83.3508
12596800 13.1332 17.389 25.6427 27.0831 1.71062 4.00076 83.248
12596807 13.6881 17.8364 24.9438 26.7032 1.77574 3.6291 83.1714
12596826 13.6881 17.8364 24.9438 26.7032 1.77574 3.6291 83.1714
12596828 14.199 18.3129 24.3434 26.2842 1.82068 3.26843 83.1395
12596854 14.3927 18.5755 24.1465 26.0407 1.82699 3.10604 83.1554
12596858 14.4632 18.7506 24.0677 25.9725 1.8594 3.03165 83.254
12596881 14.6041 19.2174 23.9792 25.6023 1.86935 2.83441 83.403
12596888 14.8155 19.655 23.5559 25.1931 1.94568 2.57363 83.2196
12596898 14.8155 19.655 23.5559 25.1931 1.94568 2.57363 83.2196
12596910 15.2031 20.2483 23.0342 24.5307 1.97 2.18875 83.0162
12596929 15.6964 20.861 22.3156 23.9169 2.04311 1.75296 82.7898
12596940 16.3041 21.5418 21.4789 23.3129 2.13935 1.26078 82.6377
12596951 16.3041 21.5418 21.4789 23.3129 2.13935 1.26078 82.6377
12596960 16.9736 22.1739 20.6717 22.6309 2.17088 0.755936 82.4501
12596974 17.6876 22.8255 20.0318 21.9393 2.13536 0.265144 82.4842
12596980 17.6876 22.8255 20.0318 21.9393 2.13536 0.265144 82.4842
12596990 18.4449 23.5938 19.2936 21.2865 2.16109 -0.264822 82.6188
12597006 18.4449 23.5938 19.2936 21.2865 2.16109 -0.264822 82.6188
12597010 19.0926 24.0995 18.7817 20.5266 2.04601 -0.706143 82.5005
12597020 19.8001 24.7706 18.3387 19.8447 1.95653 -1.15776 82.7542
12597036 19.8001 24.7706 18.3387 19.8447 1.95653 -1.15776 82.7542
12597040 20.4777 25.2471 17.7973 19.2699 1.88484 -1.56856 82.7921
12597050 21.1852 25.8793 17.2067 18.7828 1.88737 -2.0002 83.054
12597061 21.1852 25.8793 17.2067 18.7828 1.88737 -2.0002 83.054
12597085 21.5838 26.4628 16.6985 18.3249 1.95782 -2.35161 83.07
12597086 21.5838 26.4628 16.6985 18.3249 1.95782 -2.35161 83.07
12597091 22.0322 27.0172 16.1474 17.7112 1.97469 -2.74838 82.908
12597109 22.3411 27.484 15.8355 17.2241 1.97004 -3.03414 82.8847
12597121 22.7098 27.8924 15.5547 16.7811 1.93184 -3.30363 82.9381
12597133 22.9291 28.2328 15.326 16.2861 1.89186 -3.54274 82.774
12597141 22.9291 28.2328 15.326 16.2861 1.89186 -3.54274 82.774
12597159 23.3177 28.4371 15.1076 15.9054 1.78726 -3.75903 82.7678
12597161 23.3177 28.4371 15.1076 15.9054 1.78726 -3.75903 82.7678
12597171 23.6266 28.6997 14.9517 15.5437 1.71001 -3.95384 82.8216
12597184 24.0352 28.9428 14.7645 15.2391 1.6215 -4.15291 82.9816
12597208 24.3142 29.2248 14.5774 14.9726 1.59643 -4.33073 83.089
12597211 24.5334 29.4193 14.3278 14.5633 1.54549 -4.53775 82.8438
12597234 24.942 29.7208 13.9847 14.3158 1.53982 -4.76638 82.9633
12597242 24.942 29.7208 13.9847 14.3158 1.53982 -4.76638 82.9633
12597258 25.3904 30.0904 13.7248 14.0112 1.49802 -5.00106 83.2167
12597262 25.6893 30.3141 13.5168 13.7066 1.44621 -5.18702 83.2268
12597272 25.6893 30.3141 13.5168 13.7066 1.44621 -5.18702 83.2268
12597285 25.9484 30.7323 13.2673 13.4496 1.48871 -5.38933 83.3976
12597292 26.2474 30.9268 12.945 13.145 1.46506 -5.5998 83.2641
12597308 26.2474 30.9268 12.945 13.145 1.46506 -5.5998 83.2641
12597312 26.6161 31.1894 12.6642 12.7738 1.40638 -5.83243 83.2434
12597322 26.6161 31.1894 12.6642 12.7738 1.40638 -5.83243 83.2434
12597332 26.915 31.4617 12.4563 12.5263 1.38458 -6.00907 83.3593
12597342 27.1641 31.7826 12.1131 12.2312 1.42169 -6.23158 83.2911
12597358 27.1641 31.7826 12.1131 12.2312 1.42169 -6.23158 83.2911
12597363 27.4631 32.0841 11.7076 11.86 1.43579 -6.49333 83.1148
12597373 27.6325 32.3467 11.4997 11.5459 1.43344 -6.67275 83.0248
12597392 27.6325 32.3467 11.4997 11.5459 1.43344 -6.67275 83.0248
12597393 27.772 32.5995 11.2709 11.2604 1.45259 -6.84661 82.9028
12597408 27.772 32.5995 11.2709 11.2604 1.45259 -6.84661 82.9028
12597413 27.8716 32.7843 11.1046 11.0414 1.4642 -6.97627 82.802
12597423 27.9115 33.1053 10.9902 10.8511 1.52508 -7.09204 82.858
12597434 27.9115 33.1053 10.9902 10.8511 1.52508 -7.09204 82.858
12597443 28.0709 33.2998 10.8239 10.6797 1.53387 -7.21583 82.8743
12597458 28.0111 33.5332 10.8966 10.5179 1.54996 -7.25596 82.9589
12597464 28.0111 33.5332 10.8966 10.5179 1.54996 -7.25596 82.9589
12597473 28.0311 33.6791 10.8343 10.4132 1.57519 -7.31627 82.9576
12597486 28.0311 33.6791 10.8343 10.4132 1.57519 -7.31627 82.9576
12597493 27.8318 33.6499 10.8654 10.4132 1.62091 -7.28665 82.7603
12597507 27.6225 33.5429 11.0214 10.3942 1.60242 -7.22015 82.581
12597523 27.4033 33.4457 11.2606 10.4989 1.59812 -7.09786 82.6084
12597534 27.1342 33.1928 11.5205 10.6892 1.58333 -6.92733 82.5368
12597560 26.9748 32.9886 12.0404 10.8891 1.46651 -6.70152 82.8929
12597565 26.9748 32.9886 12.0404 10.8891 1.46651 -6.70152 82.8929
12597575 26.6758 32.6676 12.4459 11.2128 1.4333 -6.4489 83.0021
12597586 26.3769 32.2786 13.0073 11.6221 1.35571 -6.12826 83.2849
12597596 26.3769 32.2786 13.0073 11.6221 1.35571 -6.12826 83.2849
12597613 26.1079 31.8507 13.652 12.0885 1.24832 -5.77392 83.699
12597615 25.6794 31.5103 14.2446 12.5929 1.24342 -5.41825 84.0273
12597626 25.6794 31.5103 14.2446 12.5929 1.24342 -5.41825 84.0273
12597639 25.1114 30.8879 15.0245 13.0498 1.13052 -4.98224 84.0735
12597646 25.1114 30.8879 15.0245 13.0498 1.13052 -4.98224 84.0735
12597656 24.4537 30.139 15.9291 13.64 1.00884 -4.45993 84.1617
12597667 23.6067 29.3804 16.9376 14.4395 0.970694 -3.84226 84.3643
12597676 23.6067 29.3804 16.9376 14.4395 0.970694 -3.84226 84.3643
12597701 22.8095 28.6899 17.6694 15.201 1.01105 -3.31203 84.3698
12597703 21.7831 27.8438 18.703 16.1053 1.02535 -2.63256 84.4352
12597706 21.7831 27.8438 18.703 16.1053 1.02535 -2.63256 84.4352
12597716 20.408 26.5698 19.894 17.3799 1.08239 -1.72764 84.2517
12597736 18.8036 25.286 21.5576 18.8023 1.10334 -0.662485 84.4496
12597746 17.3288 23.73 23.5067 20.4682 0.988632 0.51439 85.0337
12597766 15.8285 22.1058 25.436 22.29 0.913867 1.71462 85.6603
12597787 14.4896 21.0166 26.9421 23.3811 0.86391 2.58949 85.8294
12597787 14.4896 21.0166 26.9421 23.3811 0.86391 2.58949 85.8294
12597796 13.2829 19.9468 28.0347 24.1117 0.802594 3.32355 85.3762
12597817 13.2829 19.9468 28.0347 24.1117 0.802594 3.32355 85.3762
12597818 12.2611 19.1201 28.9797 24.6768 0.751448 3.92918 85.0378
12597826 11.3098 18.1865 29.846 25.4074 0.719213 4.55879 84.7498
12597846 11.3098 18.1865 29.846 25.4074 0.719213 4.55879 84.7498
12597848 10.4378 17.4279 30.5153 26.1186 0.767273 5.1068 84.4997
12597856 9.81244 16.6316 31.2438 26.8493 0.717056 5.6157 84.5371
12597876 9.81244 16.6316 31.2438 26.8493 0.717056 5.6157 84.5371
12597878 9.18705 16.0515 31.8541 27.5215 0.74805 6.05166 84.6141
12597887 9.18705 16.0515 31.8541 27.5215 0.74805 6.05166 84.6141
12597902 8.7114 15.4068 32.6317 28.1352 0.647622 6.47617 84.8852
12597906 8.15648 14.6148 33.5275 28.9828 0.560984 6.9896 85.2816
12597927 7.5487 13.7676 34 29.9375 0.632358 7.499 85.2538
12597937 7.5487 13.7676 34 29.9375 0.632358 7.499 85.2538
12597953 6.96736 12.8283 34 30.7851 0.782099 7.97867 84.5807
12597957 6.57979 11.9626 34 31.3014 0.800374 8.36538 83.8438
12597967 6.57979 11.9626 34 31.3014 0.800374 8.36538 83.8438
12597978 6.23627 11.3732 34 31.6521 0.837457 8.65512 83.2617
12597987 5.9456 10.8852 34 32.0418 0.899389 8.90724 82.8726
12598007 5.63731 10.305 34 32.6556 1.00586 9.20967 82.5979
12598019 5.63731 10.305 34 32.6556 1.00586 9.20967 82.5979
12598027 5.39067 9.68797 34 33.2499 1.07713 9.50543 82.3285
12598037 5.04715 9.07096 34 34 1.22501 9.84226 82.1181
12598047 5.04715 9.07096 34 34 1.22501 9.84226 82.1181
12598057 4.87979 8.35265 34 34 1.0688 10.1131 81.2324
12598070 4.58031 7.5883 34 34 0.938019 10.4464 80.1686
12598079 4.58031 7.5883 34 34 0.938019 10.4464 80.1686
12598092 4.28964 6.88841 34 34 0.820547 10.7647 79.178
12598098 4.28964 6.88841 34 34 0.820547 10.7647 79.178
12598108 3.96373 6.31744 34 34 0.751686 11.0599 78.2812
12598120 3.69067 5.77411 34 34 0.672379 11.3345 77.4648
12598154 3.52332 5.27681 34 34 0.570798 11.5625 76.8001
12598157 3.30311 4.9545 34 34 0.541386 11.7514 76.2576
12598159 3.30311 4.9545 34 34 0.541386 11.7514 76.2576
12598169 3.25026 4.72427 34 34 0.485033 11.8511 75.9745
12598189 3.25026 4.72427 34 34 0.485033 11.8511 75.9745
12598190 3.03005 4.47562 34 34 0.478631 12.0178 75.5057
12598198 2.9772 4.30065 34 34 0.439525 12.0996 75.2778
12598214 2.9772 4.30065 34 34 0.439525 12.0996 75.2778
12598218 2.88031 4.2454 34 34 0.454268 12.1545 75.1257
12598228 2.80984 4.06121 34 34 0.41784 12.2468 74.8711
12598240 2.80984 4.06121 34 34 0.41784 12.2468 74.8711
12598248 2.73057 4.07042 34 34 0.447807 12.2724 74.801
12598265 2.73057 4.07042 34 34 0.447807 12.2724 74.801
12598268 2.69534 3.97833 34 34 0.429535 12.3189 74.6737
12598278 2.68653 3.91387 34 34 0.411305 12.3457 74.6004
12598298 2.56321 4.00596 34 34 0.483695 12.3572 74.5692
12598314 2.5544 3.90466 34 34 0.453356 12.3976 74.4591
12598320 2.5544 3.90466 34 34 0.453356 12.3976 74.4591
12598338 2.63368 4.02438 34 34 0.465691 12.3246 74.6581
12598363 2.56321 4.02438 34 34 0.489748 12.3504 74.5876
12598367 2.70415 4.07042 34 34 0.456801 12.282 74.7746
12598390 2.69534 4.09805 34 34 0.468862 12.2751 74.7934
12598391 2.72176 4.19935 34 34 0.493047 12.2286 74.9211
12598417 2.81865 4.3559 34 34 0.511226 12.1368 75.1746
12598422 2.88912 4.41116 34 34 0.505325 12.0915 75.3003
12598446 2.94197 4.54009 34 34 0.529301 12.0263 75.4821
12598462 2.99482 4.58613 34 34 0.526363 11.9909 75.5809
12598477 3.09171 4.66901 34 34 0.520489 11.9269 75.7607
12598482 3.09171 4.66901 34 34 0.520489 11.9269 75.7607
12598503 3.16218 4.77031 34 34 0.529462 11.866 75.9325
12598505 3.22383 4.86241 34 34 0.538391 11.8117 76.0862
12598512 3.22383 4.86241 34 34 0.538391 11.8117 76.0862
12598533 3.27668 4.94529 34 34 0.547284 11.7639 76.222
12598534 3.27668 4.94529 34 34 0.547284 11.7639 76.222
12598542 3.34715 5.11105 34 34 0.576749 11.6812 76.4582
12598562 3.37358 5.1571 34 34 0.582618 11.656 76.5307
12598563 3.37358 5.1571 34 34 0.582618 11.656 76.5307
12598572 3.48808 5.30444 34 34 0.59132 11.5651 76.7925
12598589 3.48808 5.30444 34 34 0.59132 11.5651 76.7925
12598592 3.49689 5.37811 34 34 0.611779 11.5366 76.875
12598602 3.63782 5.52546 34 34 0.61157 11.4374 77.1633
12598615 3.63782 5.52546 34 34 0.61157 11.4374 77.1633
12598622 3.72591 5.74648 34 34 0.65203 11.332 77.4724
12598637 3.85803 5.93066 34 34 0.666106 11.2249 77.7887
12598642 3.85803 5.93066 34 34 0.666106 11.2249 77.7887
12598653 4.02539 6.18852 34 34 0.691414 11.0823 78.2139
12598672 4.23679 6.59372 33.9606 34 0.760335 10.8762 78.7911
12598685 4.63316 7.09101 33.3995 34 0.966308 10.5547 79.1237
12598692 4.63316 7.09101 33.3995 34 0.966308 10.5547 79.1237
12598710 5.11762 7.85536 33.0255 34 1.16011 10.135 79.9985
12598713 5.60207 8.75785 32.5825 34 1.4125 9.67772 80.9424
12598722 5.60207 8.75785 32.5825 34 1.4125 9.67772 80.9424
12598734 6.1658 9.7156 32.0411 34 1.68107 9.18423 81.9225
12598762 6.64145 10.7746 31.1847 34 2.10303 8.6746 82.6008
12598765 7.40777 11.981 30.348 34 2.45569 8.05366 83.7368
12598774 7.40777 11.981 30.348 34 2.45569 8.05366 83.7368
12598787 8.16529 13.0493 29.4818 33.4057 2.61824 7.43256 84.1021
12598793 9.01088 13.9886 28.586 32.4315 2.62544 6.78755 84.017
12598814 9.72435 14.753 27.8379 31.7203 2.65099 6.26179 84.0355
12598839 10.3145 15.4345 27.198 30.9117 2.63349 5.78845 83.8587
12598845 10.8254 16.1436 26.568 29.996 2.61756 5.31438 83.533
12598855 10.8254 16.1436 26.568 29.996 2.61756 5.31438 83.533
12598867 11.4948 16.8527 25.8691 29.0218 2.55605 4.78327 83.2384
12598875 12.3316 17.7489 25.0915 27.8235 2.45473 4.12695 82.9954
12598892 12.3316 17.7489 25.0915 27.8235 2.45473 4.12695 82.9954
12598895 13.3005 18.8284 24.1563 26.4986 2.3767 3.35682 82.7838
12598927 14.3839 19.6161 23.0834 25.4269 2.29539 2.6379 82.5104
12598929 15.4497 20.5595 22.1187 24.3261 2.21855 1.89843 82.454
12598936 15.4497 20.5595 22.1187 24.3261 2.21855 1.89843 82.454
12598961 16.5155 21.532 21.2918 22.9622 2.0312 1.13116 82.3016
12598964 17.7872 22.5143 20.3665 21.4327 1.76406 0.273628 82.1007
12598968 17.7872 22.5143 20.3665 21.4327 1.76406 0.273628 82.1007
12598976 19.3218 23.8078 19.3231 19.8057 1.51006 -0.729547 82.2584
12598991 20.7667 25.1596 18.1911 18.1788 1.33075 -1.74184 82.2962
12598995 20.7667 25.1596 18.1911 18.1788 1.33075 -1.74184 82.2962
12599014 22.1917 26.3364 17.0591 16.8858 1.20386 -2.65237 82.4729
12599017 22.1917 26.3364 17.0591 16.8858 1.20386 -2.65237 82.4729
12599027 23.2978 27.0658 16.033 15.9054 1.10579 -3.35809 82.302
12599037 24.1846 27.6979 15.2948 15.2676 1.05711 -3.87897 82.445
12599047 24.1846 27.6979 15.2948 15.2676 1.05711 -3.87897 82.445
12599061 24.932 28.2426 14.7021 14.7536 1.0172 -4.3057 82.6303
12599067 25.4601 26.0933 14.255 14.3158 0.216493 -4.30255 80.1242
12599085 25.4601 28.583 14.255 14.3158 0.963384 -4.62493 82.6139
12599088 25.8787 29.0011 13.9223 13.916 0.941804 -4.90367 82.7181
12599097 25.8787 29.0011 13.9223 13.916 0.941804 -4.90367 82.7181
12599111 26.2474 29.5652 13.6728 13.4496 0.932863 -5.18904 82.935
12599119 26.8453 30.1001 13.4648 12.8499 0.792688 -5.51835 83.2601
12599136 26.8453 30.1001 13.4648 12.8499 0.792688 -5.51835 83.2601
12599139 27.3535 30.5864 13.0281 12.3645 0.770795 -5.85856 83.3325
12599148 27.7421 30.9462 12.7058 11.7934 0.68872 -6.16483 83.1875
12599168 28.1606 31.1894 12.3731 11.4317 0.62755 -6.41188 83.1547
12599180 28.1606 31.1894 12.3731 11.4317 0.62755 -6.41188 83.1547
12599188 28.4894 31.5006 11.9364 10.9082 0.598451 -6.72644 82.8346
12599200 28.8183 31.8118 11.5933 10.6131 0.607625 -6.95775 82.8364
12599213 28.8183 31.8118 11.5933 10.6131 0.607625 -6.95775 82.8364
12599220 29.0674 32.123 11.3229 10.1943 0.582457 -7.1952 82.7076
12599230 29.3066 32.2786 11.115 9.92777 0.540021 -7.35994 82.6279
12599250 29.5856 32.4439 10.907 9.69933 0.499377 -7.5191 82.6359
12599270 29.6454 32.5995 10.7407 9.55655 0.536105 -7.62296 82.5421
12599281 29.8048 32.6968 10.5535 9.528 0.565031 -7.70498 82.5831
12599290 29.8048 32.6968 10.5535 9.528 0.565031 -7.70498 82.5831
12599300 29.8247 32.7843 10.4911 9.57559 0.618091 -7.71853 82.6758
12599315 29.7749 32.9497 10.5223 9.61366 0.683704 -7.70968 82.8606
12599339 29.6952 33.0761 10.5327 9.62318 0.745037 -7.70834 82.9272
12599341 29.6952 33.0761 10.5327 9.62318 0.745037 -7.70834 82.9272
12599351 29.6852 33.1636 10.6159 9.69933 0.770107 -7.67163 83.1641
12599365 29.5657 33.1539 10.6991 9.76596 0.797957 -7.61941 83.1846
12599381 29.5557 33.1247 10.7719 9.76596 0.769997 -7.59616 83.2182
12599392 29.5756 33.1831 10.8654 9.75644 0.749111 -7.58033 83.3806
12599401 29.5756 33.1831 10.8654 9.75644 0.749111 -7.58033 83.3806
12599413 29.5657 33.115 10.9486 9.81355 0.723329 -7.53542 83.4428
12599422 29.5657 33.115 10.9486 9.81355 0.723329 -7.53542 83.4428
12599438 29.5059 32.9983 11.0422 9.72788 0.653896 -7.51746 83.2742
12599442 29.4859 32.9302 11.1358 9.83259 0.64193 -7.45602 83.3845
12599452 29.4859 32.9302 11.1358 9.83259 0.64193 -7.45602 83.3845
12599464 29.4461 32.8621 11.1566 9.88018 0.641811 -7.42782 83.345
12599473 29.4062 32.8232 11.3021 9.97536 0.625768 -7.35602 83.5069
12599493 29.3365 32.8913 11.3645 9.92777 0.634006 -7.35191 83.5201
12599505 29.3165 32.8816 11.4581 9.90873 0.603026 -7.32926 83.565
12599513 29.3165 32.8816 11.4581 9.90873 0.603026 -7.32926 83.565
12599523 29.3365 32.726 11.5725 9.97536 0.535938 -7.26847 83.6103
12599539 29.3365 32.726 11.5725 9.97536 0.535938 -7.26847 83.6103
12599543 29.2169 32.6384 11.5517 9.90873 0.533697 -7.27262 83.3157
12599554 29.2567 32.5995 11.6972 9.88018 0.457171 -7.24147 83.4337
12599563 29.2567 32.5995 11.6972 9.88018 0.457171 -7.24147 83.4337
12599575 29.2468 32.4828 11.7388 9.8897 0.415951 -7.21605 83.3582
12599587 29.1172 32.3175 11.8012 9.93729 0.401673 -7.15907 83.1732
12599612 28.9777 32.1133 12.0092 9.98488 0.334373 -7.05848 83.0851
12599636 28.8183 31.9285 12.1963 10.0705 0.296465 -6.95305 83.0137
12599651 28.5891 31.8507 12.5394 10.1943 0.275457 -6.80013 83.1735
12599652 28.5891 31.8507 12.5394 10.1943 0.275457 -6.80013 83.1735
12599661 28.4197 31.5978 12.8722 10.3466 0.195992 -6.6315 83.2363
12599665 28.0909 31.3158 13.1633 10.4989 0.168687 -6.45449 83.0688
12599686 27.8318 30.8684 13.6936 10.813 0.046891 -6.16421 83.2068
12599696 27.8318 30.8684 13.6936 10.813 0.046891 -6.16421 83.2068
12599711 27.4431 30.5183 14.1823 11.1366 0.00886023 -5.8794 83.2803
12599716 27.0246 30.1098 14.7645 11.5935 -0.0256911 -5.5292 83.4925
12599726 27.0246 30.1098 14.7645 11.5935 -0.0256911 -5.5292 83.4925
12599736 26.337 29.536 15.4612 12.1551 -0.0320613 -5.07673 83.4893
12599746 25.5598 28.8942 16.2826 12.9071 -0.0122935 -4.53071 83.6436
12599766 25.0217 28.3301 17.1673 13.6685 -0.0565395 -4.01173 84.1877
12599789 24.2743 27.8049 17.9056 14.4966 0.0359893 -3.49372 84.4815
12599796 23.4771 27.0658 18.8211 15.2962 0.0188291 -2.91028 84.6602
12599813 23.4771 27.0658 18.8211 15.2962 0.0188291 -2.91028 84.6602
12599817 22.7298 26.4239 19.5495 15.9434 0.0260115 -2.42078 84.6467
12599827 22.0223 25.6751 20.2779 16.6573 0.00950694 -1.90743 84.6326
12599840 22.0223 25.6751 20.2779 16.6573 0.00950694 -1.90743 84.6326
12599847 21.3247 25.0526 20.9178 17.2728 0.0245064 -1.45211 84.5679
12599857 21.3247 25.0526 20.9178 17.2728 0.0245064 -1.45211 84.5679
12599867 20.3681 24.0315 21.6167 18.0619 0.0322819 -0.842254 84.0781
12599877 19.3318 23.1076 22.6601 18.9289 0.013274 -0.151784 84.0284
12599897 18.3253 22.3392 23.5657 19.7862 0.0697643 0.479799 84.0165
12599913 17.2292 21.5223 24.4517 20.6436 0.144613 1.13487 83.8467
12599920 17.2292 21.5223 24.4517 20.6436 0.144613 1.13487 83.8467
12599927 16.4187 20.9582 25.3573 21.3352 0.153908 1.66213 84.0694
12599939 16.4187 20.9582 25.3573 21.3352 0.153908 1.66213 84.0694
12599949 15.529 20.3747 26.1448 22.0464 0.222176 2.19171 84.0949
12599962 14.7451 19.7426 26.9224 22.7966 0.25878 2.71321 84.2066
12599968 14.7451 19.7426 26.9224 22.7966 0.25878 2.71321 84.2066
12599978 13.829 18.9451 27.828 23.8 0.322279 3.35073 84.4021
12599988 12.913 17.9823 28.6352 24.9885 0.420806 4.03374 84.519
12599998 12.913 17.9823 28.6352 24.9885 0.420806 4.03374 84.519
12600011 12.129 16.9447 29.6294 26.2745 0.429764 4.73598 84.9777
12600028 11.2834 15.9041 30.4366 27.4338 0.475535 5.41094 85.0579
12600038 10.5611 14.9003 31.2831 28.6126 0.488722 6.05121 85.3572
12600048 10.5611 14.9003 31.2831 28.6126 0.488722 6.05121 85.3572
12600067 9.91813 13.8413 32.0313 29.7817 0.488925 6.67041 85.5723
12600069 9.26632 12.6625 32.74 30.9312 0.463611 7.31467 85.6001
12600079 9.26632 12.6625 32.74 30.9312 0.463611 7.31467 85.6001
12600099 8.63212 11.6771 33.3306 32.0126 0.504068 7.88663 85.6525
12600106 8.63212 11.6771 33.3306 32.0126 0.504068 7.88663 85.6525
12600126 7.62798 9.98267 34 33.7175 0.607115 8.80838 85.3281
12600130 7.62798 9.98267 34 33.7175 0.607115 8.80838 85.3281
12600140 7.17876 9.29198 34 34 0.625432 9.15037 84.4707
12600151 6.75596 8.7026 34 34 0.583115 9.44327 83.4586
12600176 6.53575 8.17768 34 34 0.496271 9.66347 82.7134
12600180 6.53575 8.17768 34 34 0.496271 9.66347 82.7134
12600190 6.18342 7.6896 34 34 0.459912 9.91663 81.873
12600202 5.9544 7.43174 34 34 0.453806 10.0657 81.3861
12600210 5.9544 7.43174 34 34 0.453806 10.0657 81.3861
12600227 5.85751 7.15547 34 34 0.40054 10.1811 81.013
12600231 5.61969 6.90683 34 34 0.399601 10.3333 80.5265
12600240 5.61969 6.90683 34 34 0.399601 10.3333 80.5265
12600251 5.48756 6.65818 34 34 0.365153 10.4536 80.1457
12600279 5.28497 6.35428 34 34 0.335672 10.6155 79.6393
12600290 5.04715 6.09642 34 34 0.331447 10.7759 79.1436
12600301 4.90622 5.77411 34 34 0.275761 10.9277 78.6803
12600311 4.79171 5.57151 34 34 0.248775 11.0326 78.3632
12600331 4.71244 5.35049 34 34 0.204337 11.1328 78.0629
12600352 4.55389 5.18472 34 34 0.20287 11.2418 77.7386
12600362 4.47461 5.09263 34 34 0.199187 11.2998 77.5672
12600382 4.42176 5.03738 34 34 0.198689 11.3365 77.4591
12600395 4.39534 5.09263 34 34 0.224969 11.3267 77.488
12600403 4.39534 5.09263 34 34 0.224969 11.3267 77.488
12600419 4.43057 5.1571 34 34 0.2341 11.2928 77.5877
12600433 4.3601 5.14789 34 34 0.254098 11.3199 77.508
12600446 4.32487 5.10184 34 34 0.250873 11.3475 77.4267
12600453 4.32487 5.10184 34 34 0.250873 11.3475 77.4267
12600470 4.26321 4.92687 34 34 0.214943 11.4283 77.1901
12600475 4.20155 4.84399 34 34 0.208458 11.4778 77.0455
12600495 4.08705 4.67822 34 34 0.192526 11.5745 76.7653
12600505 3.89326 4.5493 34 34 0.214553 11.6867 76.4426
12600517 3.89326 4.5493 34 34 0.214553 11.6867 76.4426
12600525 3.75233 4.40195 34 34 0.213256 11.7877 76.1543
12600545 3.51451 4.20856 34 34 0.229138 11.9403 75.7231
12600556 3.34715 4.0428 34 34 0.230682 12.0593 75.3899
12600567 3.34715 4.0428 34 34 0.230682 12.0593 75.3899
12600576 3.20622 3.87703 34 34 0.223354 12.1698 75.0833
12600591 3.04767 3.80336 34 34 0.252399 12.2541 74.851
12600606 2.94197 3.69285 34 34 0.251517 12.3331 74.6348
12600616 2.94197 3.69285 34 34 0.251517 12.3331 74.6348
12600626 2.79223 3.50867 34 34 0.241059 12.4559 74.3009
12600640 2.7658 3.49025 34 34 0.243902 12.4725 74.2561
12600646 2.7658 3.49025 34 34 0.243902 12.4725 74.2561
12600656 2.7658 3.50867 34 34 0.250039 12.4657 74.2745
12600666 2.82746 3.60076 34 34 0.259745 12.409 74.4282
12600688 3.05648 3.78494 34 34 0.243336 12.2576 74.8414
12600696 3.05648 3.78494 34 34 0.243336 12.2576 74.8414
12600706 3.17979 3.92308 34 34 0.247419 12.1627 75.1029
12600717 3.35596 4.1533 34 34 0.263989 12.0166 75.5093
12600727 3.35596 4.1533 34 34 0.263989 12.0166 75.5093
12600740 3.56736 4.41116 34 34 0.277644 11.8497 75.9785
12600746 3.84041 4.68743 34 34 0.276703 11.657 76.5278
12600756 3.84041 4.68743 34 34 0.276703 11.657 76.5278
12600766 4.26321 5.09263 34 34 0.268054 11.3716 77.3558
12600789 4.82694 5.62676 34 34 0.254869 11.0026 78.4537
12600797 5.40829 6.24377 34 34 0.262228 10.6114 79.6521
12600815 5.40829 6.24377 34 34 0.262228 10.6114 79.6521
12600817 5.93679 6.94366 33.6161 34 0.431937 10.1996 80.4965
12600827 6.50933 7.61593 32.9467 34 0.666037 9.77307 81.072
12600841 6.50933 7.61593 32.9467 34 0.666037 9.77307 81.072
12600850 7.2228 8.40791 32.0411 34 0.962389 9.25847 81.6718
12600867 7.2228 8.40791 32.0411 34 0.962389 9.25847 81.6718
12600881 8.20052 9.23673 30.7713 34 1.29699 8.6367 82.2085
12600883 9.49534 10.4063 29.4621 33.8441 1.59029 7.82461 83.2078
12600894 9.49534 10.4063 29.4621 33.8441 1.59029 7.82461 83.2078
12600897 10.6404 11.8429 28.5958 32.3438 1.48355 6.91471 83.423
12600907 11.5565 13.1598 27.9166 31.0384 1.4118 6.13808 83.6713
12600919 11.5565 13.1598 27.9166 31.0384 1.4118 6.13808 83.6713
12600934 12.4637 14.3109 27.1094 29.6063 1.30077 5.37925 83.4904
12600951 13.5031 15.5358 26.1644 28.2619 1.23707 4.56253 83.4652
12600958 14.4984 16.7053 25.2293 26.6739 1.09843 3.73605 83.107
12600978 15.7052 18.0309 24.0382 25.0762 1.01499 2.78424 82.8505
12600988 17.1794 19.5772 22.6699 23.1862 0.881875 1.65221 82.6128
12601001 17.1794 19.5772 22.6699 23.1862 0.881875 1.65221 82.6128
12601009 18.6143 21.1722 21.4198 21.2378 0.720462 0.522378 82.4441
12601018 18.6143 21.1722 21.4198 21.2378 0.720462 0.522378 82.4441
12601028 19.8699 22.4949 20.4354 19.4258 0.491124 -0.456699 82.226
12601038 21.1354 23.7494 19.5692 18.0424 0.32948 -1.32246 82.4964
12601059 22.1618 24.7706 18.7719 16.7906 0.190175 -2.06739 82.4948
12601069 22.1618 24.7706 17.9745 16.7906 0.436023 -2.23396 81.6975
12601078 23.3077 25.6945 17.9745 15.7436 0.0470906 -2.77154 82.7203
12601088 24.354 26.5212 17.2264 14.9345 -0.0375703 -3.38063 83.0361
12601098 24.354 26.5212 17.2264 14.9345 -0.0375703 -3.38063 83.0361
12601108 25.2808 27.2311 16.4177 14.0398 -0.128853 -3.98721 82.9694
12601122 26.2274 27.8924 15.5963 13.3639 -0.170732 -4.54253 83.0802
12601140 26.915 28.4176 14.7541 12.7357 -0.155692 -5.04261 82.8225
12601153 27.2737 28.8261 14.1407 12.1741 -0.125642 -5.42107 82.4146
12601181 27.6325 29.3124 13.704 11.9076 -0.0352725 -5.69306 82.5564
12601183 27.6325 29.3124 13.704 11.9076 -0.0352725 -5.69306 82.5564
12601190 27.8617 29.6819 13.3089 11.5554 0.0202715 -5.94833 82.4079
12601210 27.9314 30.1098 12.9554 11.2604 0.146925 -6.16827 82.257
12601221 28.051 30.528 12.6538 11.1366 0.291318 -6.33522 82.3695
12601234 27.9912 30.8781 12.5187 10.9843 0.410515 -6.44022 82.3723
12601241 27.9912 30.8781 12.5187 10.9843 0.410515 -6.44022 82.3723
12601251 28.0012 31.2672 12.3523 10.9558 0.565982 -6.53218 82.5764
