4934032 6.2715 7.50542 27.0701 30.1129 1.50675 9.17548 70.9599
4934041 6.14819 7.3857 27.1685 30.1519 1.48928 9.26969 70.8542
4934052 6.14819 7.3857 27.1685 30.1519 1.48928 9.26969 70.8542
4934062 6.11295 7.36728 27.2866 30.2785 1.49419 9.30776 71.0454
4934074 6.11295 7.36728 27.2866 30.2785 1.49419 9.30776 71.0454
4934083 6.07772 7.20152 27.3851 30.298 1.42214 9.38607 70.9623
4934092 5.98964 7.14626 27.5032 30.3857 1.42173 9.45156 71.0248
4934107 5.98964 7.14626 27.5032 30.3857 1.42173 9.45156 71.0248
4934112 5.98083 7.01733 27.6115 30.4246 1.35487 9.51047 71.0343
4934122 5.98083 7.01733 27.6115 30.4246 1.35487 9.51047 71.0343
4934132 5.91917 6.97129 27.7197 30.3954 1.3125 9.55376 71.0056
4934143 5.87513 6.92524 27.8576 30.4052 1.26568 9.59619 71.0631
4934152 5.87513 6.92524 27.8576 30.4052 1.26568 9.59619 71.0631
4934163 5.88394 6.76869 28.0249 30.2395 1.09261 9.64757 70.9171
4934172 5.83109 6.71343 28.2119 30.1908 1.00823 9.69556 70.9473
4934182 5.83109 6.71343 28.2119 30.1908 1.00823 9.69556 70.9473
4934192 5.79586 6.64897 28.3202 30.0934 0.926608 9.73112 70.8584
4934202 5.79586 6.64897 28.3202 30.0934 0.926608 9.73112 70.8584
4934213 5.81347 6.61213 28.3694 30.0252 0.866434 9.73642 70.8203
4934223 5.80466 6.60293 28.4285 29.9765 0.828341 9.74348 70.8126
4934233 5.80466 6.60293 28.4285 29.9765 0.828341 9.74348 70.8126
4934253 5.72539 6.61213 28.4679 29.9668 0.84272 9.77018 70.7721
4934256 5.80466 6.58451 28.4777 29.9181 0.784132 9.74923 70.7849
4934263 5.80466 6.58451 28.4777 29.9181 0.784132 9.74923 70.7849
4934274 5.74301 6.58451 28.5171 30.0447 0.835496 9.78306 70.8893
4934284 5.71658 6.61213 28.5171 30.1324 0.884375 9.78908 70.9782
4934294 5.71658 6.61213 28.5171 30.1324 0.884375 9.78908 70.9782
4934304 5.70777 6.56609 28.5072 30.1908 0.895396 9.81181 70.9719
4934314 5.70777 6.56609 28.5072 30.1908 0.895396 9.81181 70.9719
4934325 5.69016 6.59372 28.4974 30.1616 0.904873 9.80545 70.9429
4934334 5.63731 6.60293 28.3596 30.2493 1.00753 9.81705 70.8491
4934348 5.63731 6.60293 28.3596 30.2493 1.00753 9.81705 70.8491
4934355 5.66373 6.6766 28.3596 30.2006 1.00629 9.77846 70.9005
4934365 5.60207 6.70423 28.2611 30.3175 1.11395 9.79172 70.8849
4934385 5.69016 6.69502 28.2611 30.337 1.085 9.7656 70.9833
4934396 5.69016 6.69502 28.2611 30.337 1.085 9.7656 70.9833
4934407 5.55803 6.69502 28.1627 30.3857 1.1864 9.80814 70.8014
4934418 5.59326 6.71343 27.9757 30.4831 1.28155 9.78275 70.7655
4934427 5.59326 6.71343 27.9757 30.4831 1.28155 9.78275 70.7655
4934437 5.54922 6.74106 28.0249 30.5026 1.29541 9.79356 70.8178
4934447 5.58446 6.78711 27.8674 30.4734 1.34651 9.75131 70.7123
4934457 5.58446 6.78711 27.8674 30.4734 1.34651 9.75131 70.7123
4934468 5.68135 6.84236 27.7985 30.5318 1.37407 9.69739 70.854
4934478 5.61969 6.86078 27.7788 30.561 1.42025 9.71318 70.8203
4934488 5.61969 6.86078 27.7788 30.561 1.42025 9.71318 70.8203
4934498 5.63731 6.93445 27.7099 30.6487 1.493 9.68277 70.9304
4934508 5.63731 6.93445 27.7099 30.6487 1.493 9.68277 70.9304
4934517 5.63731 6.84236 27.5721 30.6877 1.52695 9.70748 70.7394
4934528 5.69016 6.93445 27.4933 30.6682 1.56074 9.64954 70.7861
4934548 5.72539 7.09101 27.3555 30.6292 1.63815 9.56941 70.8012
4934558 5.72539 7.09101 27.3555 30.6292 1.63815 9.56941 70.8012
4934568 5.74301 7.14626 27.2276 30.5026 1.65616 9.52448 70.6194
4934578 5.90155 7.2844 27.0504 30.4928 1.70556 9.40714 70.7292
4934588 5.90155 7.2844 27.0504 30.4928 1.70556 9.40714 70.7292
4934598 5.89275 7.35807 26.9323 30.4149 1.75216 9.36918 70.598
4934608 6.04249 7.42254 26.7452 30.3175 1.75545 9.27246 70.5277
4934619 6.04249 7.42254 26.7452 30.3175 1.75545 9.27246 70.5277
4934629 6.1658 7.64355 26.568 30.1811 1.80375 9.12855 70.5585
4934639 6.32435 7.82774 26.2826 30.035 1.86455 8.97524 70.4696
4934649 6.32435 7.82774 26.2826 30.035 1.86455 8.97524 70.4696
4934663 6.52694 8.11322 26.0562 29.7817 1.8842 8.7682 70.478
4934669 6.52694 8.11322 26.0562 29.7817 1.8842 8.7682 70.478
4934679 6.70311 8.46316 25.6821 29.4797 1.9756 8.53049 70.328
4934689 6.95855 8.84995 25.4262 29.1289 1.98759 8.25994 70.3636
4934699 6.95855 8.84995 25.4262 29.1289 1.98759 8.25994 70.3636
4934709 7.3285 9.25515 25.0324 28.7295 1.99861 7.92764 70.3456
4934722 7.52228 9.66956 24.7273 28.2327 2.01444 7.64801 70.1518
4934731 7.52228 9.66956 24.7273 28.2327 2.01444 7.64801 70.1518
4934741 7.81295 10.1668 24.3532 27.7358 2.04674 7.30194 70.0688
4934751 7.81295 10.1668 24.3532 27.7358 2.04674 7.30194 70.0688
4934761 8.14767 10.4984 23.9201 27.2097 2.02088 6.98317 69.7759
4934770 8.50881 11.1706 23.5756 26.5765 2.0273 6.5456 69.8315
4934781 8.50881 11.1706 23.5756 26.5765 2.0273 6.5456 69.8315
4934792 8.88756 11.8153 23.1523 25.9725 2.0579 6.10545 69.8276
4934802 9.31917 12.377 22.6699 25.388 2.07008 5.66885 69.7541
4934812 9.31917 12.377 22.6699 25.388 2.07008 5.66885 69.7541
4934824 9.73316 12.9756 22.2467 24.8327 2.08791 5.23812 69.7881
4934842 10.1648 13.519 21.7545 24.1702 2.07227 4.79273 69.6084
4934852 10.7285 14.1452 21.2426 23.5077 2.04017 4.28229 69.624
4934870 10.7285 14.1452 21.2426 23.5077 2.04017 4.28229 69.624
4934872 11.2746 14.7438 20.7307 22.7966 1.98969 3.77642 69.5457
4934883 11.8031 15.2871 20.1008 22.1633 1.99936 3.28181 69.3543
4934893 11.8031 15.2871 20.1008 22.1633 1.99936 3.28181 69.3543
4934903 12.2964 15.8212 19.5889 21.5301 1.97369 2.81673 69.2366
4934923 12.7896 16.3185 19.1262 20.8384 1.89693 2.35761 69.0728
4934933 13.1948 16.779 18.7226 20.3513 1.8874 1.97692 69.0477
4934962 13.5912 17.2723 18.2994 19.7668 1.86731 1.56739 68.9296
4934982 13.9876 17.6905 17.9253 19.2991 1.84202 1.20744 68.9025
4934985 13.9876 17.6905 17.9253 19.2991 1.84202 1.20744 68.9025
4934986 14.3751 18.1379 17.5611 18.5977 1.74721 0.796353 68.6718
4934997 14.3751 18.1379 17.5611 18.5977 1.74721 0.796353 68.6718
4935004 14.7187 18.6339 17.0984 18.1496 1.80988 0.414464 68.6005
4935014 14.9917 19.0618 16.8336 17.7989 1.83272 0.126445 68.686
4935024 14.9917 19.0618 16.8336 17.7989 1.83272 0.126445 68.686
4935034 15.2119 19.4314 16.5529 17.3215 1.81997 -0.168322 68.5177
4935044 15.4409 19.7426 16.3761 17.0682 1.81912 -0.380126 68.6278
4935054 15.4409 19.7426 16.3761 17.0682 1.81912 -0.380126 68.6278
4935065 15.6523 20.1413 16.189 16.7811 1.84729 -0.615929 68.7637
4935073 15.6523 20.1413 16.189 16.7811 1.84729 -0.615929 68.7637
4935084 15.8197 20.3455 15.9394 16.4384 1.83272 -0.828828 68.5431
4935094 15.9694 20.5887 15.7419 16.2385 1.86606 -1.00185 68.5385
4935105 15.9694 20.5887 15.7419 16.2385 1.86606 -1.00185 68.5385
4935124 16.2249 20.9096 15.6691 15.8292 1.76477 -1.2318 68.6328
4935144 16.2865 20.9291 15.6899 15.7245 1.70376 -1.26792 68.63
4935154 16.2865 20.9291 15.6899 15.7245 1.70376 -1.26792 68.63
4935164 16.3746 20.8804 15.7315 15.6865 1.62392 -1.27497 68.673
4935174 16.4539 20.8902 15.8251 15.6103 1.53443 -1.28861 68.7794
4935184 16.4539 20.8902 15.8251 15.6103 1.53443 -1.28861 68.7794
4935195 16.542 20.8707 15.8771 15.6484 1.48686 -1.28098 68.9381
4935205 16.5508 20.8804 15.9187 15.6293 1.46433 -1.27935 68.9792
4935217 16.5508 20.8804 15.9187 15.6293 1.46433 -1.27935 68.9792
4935225 16.5772 20.8513 15.8771 15.6674 1.47319 -1.27963 68.9729
4935254 16.4803 20.7054 16.033 15.7055 1.4137 -1.18547 68.9242
4935257 16.4715 20.5887 16.0538 15.7816 1.39522 -1.13753 68.8956
4935275 16.5155 20.5984 16.1786 15.7816 1.33404 -1.11917 69.0742
4935285 16.586 20.6373 16.0746 15.7436 1.3471 -1.17432 69.0415
4935296 16.586 20.6373 16.0746 15.7436 1.3471 -1.17432 69.0415
4935305 16.6212 20.54 16.0954 15.7531 1.29564 -1.15479 69.0098
4935316 16.6212 20.54 16.0954 15.7531 1.29564 -1.15479 69.0098
4935325 16.6389 20.6081 15.9602 15.6674 1.33446 -1.22382 68.8746
4935337 16.771 20.6178 15.8875 15.5722 1.28239 -1.29178 68.8485
4935345 16.771 20.6178 15.8875 15.5722 1.28239 -1.29178 68.8485
4935357 16.7974 20.6178 15.8251 15.5342 1.283 -1.32084 68.7745
4935365 16.7974 20.6178 15.8251 15.5342 1.283 -1.32084 68.7745
4935377 16.8503 20.7248 15.7523 15.458 1.30125 -1.38797 68.7854
4935385 16.9031 20.8026 15.7211 15.4675 1.32302 -1.41894 68.8944
4935398 16.9031 20.8026 15.7211 15.4675 1.32302 -1.41894 68.8944
4935405 16.9912 20.8124 15.6379 15.4009 1.30157 -1.47396 68.8424
4935418 17.0299 20.8902 15.5755 15.4104 1.34065 -1.50947 68.906
4935435 17.0498 20.9582 15.5651 15.2772 1.3146 -1.56116 68.8504
4935455 17.0498 20.968 15.5443 15.2867 1.32917 -1.56577 68.8488
4935467 17.0498 20.968 15.4924 15.2105 1.32286 -1.59666 68.7207
4935477 17.0498 20.968 15.4924 15.2105 1.32286 -1.59666 68.7207
4935487 17.0199 20.9096 15.5443 15.2962 1.3238 -1.54624 68.7701
4935497 16.956 20.8318 15.6587 15.3723 1.30396 -1.47272 68.8188
4935508 16.956 20.8318 15.6587 15.3723 1.30396 -1.47272 68.8188
4935517 16.9207 20.8124 15.6483 15.4675 1.34746 -1.44169 68.8489
4935527 16.8062 20.5789 15.8147 15.6198 1.29973 -1.29701 68.8197
4935537 16.8062 20.5789 15.8147 15.6198 1.29973 -1.29701 68.8197
4935547 16.6389 20.4039 16.0122 15.8863 1.31965 -1.11925 68.9413
4935558 16.6389 20.4039 16.0122 15.8863 1.31965 -1.11925 68.9413
4935569 16.4539 20.2483 16.2306 16.0482 1.30904 -0.961885 68.9809
4935578 16.2777 20.0051 16.4385 16.3908 1.33107 -0.749545 69.1122
4935588 16.2777 20.0051 16.4385 16.3908 1.33107 -0.749545 69.1122
4935605 16.0839 19.7328 16.6361 16.6002 1.30807 -0.56054 69.0531
4935612 15.7845 19.3438 17.0394 16.9714 1.26247 -0.242438 69.1391
4935629 15.485 18.9062 17.4922 17.4871 1.23112 0.127174 69.3704
4935640 15.0534 18.3713 17.8761 18.0229 1.24948 0.535394 69.3237
4935650 15.0534 18.3713 17.8761 18.0229 1.24948 0.535394 69.3237
4935660 14.5865 17.7294 18.4273 18.7633 1.25127 1.052 69.5066
4935682 14.058 17.0292 19.0967 19.5524 1.22851 1.62654 69.7363
4935693 13.4062 16.208 19.8448 20.5461 1.25102 2.30912 70.0052
4935713 12.7192 15.3424 20.6422 21.5885 1.26955 3.02363 70.2922
4935722 11.9617 14.6333 21.4493 22.5725 1.34344 3.70172 70.6167
4935743 11.2394 13.8597 22.1581 23.4493 1.38302 4.35073 70.7064
4935763 10.6316 13.0677 22.8471 24.2676 1.36152 4.95991 70.8141
4935773 10.0503 12.3862 23.359 25.1347 1.44919 5.51046 70.9302
4935784 10.0503 12.3862 23.359 25.1347 1.44919 5.51046 70.9302
4935794 9.55699 11.6863 23.7823 25.7971 1.46288 6.00147 70.8228
4935803 9.18705 11.1522 24.1563 26.4304 1.49423 6.39698 70.926
4935824 8.86995 10.6457 24.4024 26.9175 1.51436 6.7348 70.8356
4935835 8.86995 10.6457 24.4024 26.9175 1.51436 6.7348 70.8356
4935844 8.53523 10.1484 24.6584 27.3364 1.51787 7.06958 70.6784
4935856 8.22694 9.65114 24.8946 27.7553 1.51885 7.39533 70.528
4935864 8.22694 9.65114 24.8946 27.7553 1.51885 7.39533 70.528
4935877 7.99793 9.21831 25.1013 28.0865 1.49337 7.66397 70.4041
4935892 7.72487 8.77627 25.4557 28.447 1.43554 7.96865 70.4038
4935899 7.72487 8.77627 25.4557 28.447 1.43554 7.96865 70.4038
4935904 7.46943 8.42633 25.7116 28.7198 1.40949 8.21923 70.3272
4935924 7.20518 8.15926 26.0168 28.9438 1.37971 8.44568 70.3251
4935935 7.08187 8.01192 26.2826 29.1582 1.34886 8.58026 70.5345
4935955 6.93212 7.82774 26.5779 29.353 1.29817 8.73616 70.6908
4935965 6.78238 7.70802 26.7452 29.5381 1.31352 8.85772 70.7737
4935976 6.78238 7.70802 26.7452 29.5381 1.31352 8.85772 70.7737
4935986 6.6943 7.68039 26.8437 29.6648 1.34277 8.91617 70.8831
4936001 6.6943 7.68039 26.8437 29.6648 1.34277 8.91617 70.8831
4936005 6.64145 7.52384 26.9519 29.7914 1.3122 9.00695 70.9086
4936015 6.4829 7.47779 27.0602 29.9278 1.361 9.09685 70.9487
4936026 6.4829 7.47779 27.0602 29.9278 1.361 9.09685 70.9487
4936035 6.43886 7.42254 27.0701 30.0057 1.38127 9.13789 70.9372
4936046 6.39482 7.34886 27.0799 30.0934 1.39866 9.18602 70.917
4936057 6.39482 7.34886 27.0799 30.0934 1.39866 9.18602 70.917
4936067 6.35959 7.35807 27.0208 30.2006 1.47247 9.19883 70.9391
4936077 6.35078 7.35807 27.0701 30.2201 1.46385 9.20744 70.999
4936088 6.35078 7.26598 27.0701 30.2201 1.43329 9.23889 70.9069
4936097 6.28031 7.24756 27.0012 30.3857 1.53416 9.27712 70.9147
4936108 6.28031 7.24756 27.0012 30.3857 1.53416 9.27712 70.9147
4936117 6.23627 7.15547 27.011 30.5221 1.56161 9.33552 70.9248
4936127 6.20104 7.07259 27.0307 30.5513 1.54969 9.38 70.8556
4936148 6.1658 6.99892 27.011 30.6682 1.58457 9.42519 70.8439
4936158 6.06891 6.9805 27.0701 30.7072 1.60557 9.47267 70.8266
4936168 6.06891 6.9805 27.0701 30.7072 1.60557 9.47267 70.8266
4936178 6.0513 6.86999 27.1685 30.7266 1.54513 9.52615 70.8164
4936189 6.0513 6.86999 27.1685 30.7266 1.54513 9.52615 70.8164
4936197 6.01606 6.80553 27.1193 30.7169 1.55223 9.55619 70.6578
4936208 6.01606 6.83315 27.1291 30.7461 1.56738 9.5496 70.7245
4936217 6.01606 6.83315 27.1291 30.7461 1.56738 9.5496 70.7245
4936229 5.98083 6.80553 27.1685 30.7656 1.56313 9.57596 70.7205
4936242 6.00725 6.80553 27.1291 30.7656 1.568 9.56376 70.7075
4936251 6.00725 6.83315 27.1291 30.7461 1.57069 9.55266 70.7157
4936259 6.00725 6.84236 27.1882 30.8046 1.57092 9.5585 70.8424
4936268 6.00725 6.84236 27.1882 30.8046 1.57092 9.5585 70.8424
4936278 5.98964 6.8792 27.1488 30.8143 1.60771 9.54957 70.832
4936288 5.96321 6.8792 27.1488 30.8923 1.64334 9.56471 70.8835
4936310 5.98964 6.90683 27.1094 30.863 1.64768 9.54071 70.8689
4936319 6.07772 6.95287 27.0996 30.902 1.64628 9.49661 71.0322
4936329 6.07772 6.95287 27.0996 30.902 1.64628 9.49661 71.0322
4936339 6.00725 6.93445 27.1094 30.8338 1.64054 9.5228 70.885
4936349 6.00725 6.93445 27.1094 30.8338 1.64054 9.5228 70.885
4936359 6.0601 6.91603 27.0405 30.863 1.65013 9.50782 70.8797
4936369 6.01606 6.90683 27.0012 30.8923 1.68812 9.52546 70.8163
4936379 6.01606 6.90683 27.0012 30.8923 1.68812 9.52546 70.8163
4936390 6.03368 6.90683 27.0504 30.9312 1.67578 9.52617 70.9221
4936400 6.03368 6.84236 27.0208 30.941 1.66889 9.54697 70.8379
4936410 6.03368 6.84236 27.0208 30.941 1.66889 9.54697 70.8379
4936422 6.01606 6.86999 26.9913 30.8923 1.6797 9.53746 70.7696
4936431 6.01606 6.86999 26.9913 30.8923 1.6797 9.53746 70.7696
4936443 6.04249 6.80553 26.9224 30.9702 1.70017 9.55136 70.7406
4936451 5.96321 6.86078 26.9913 31.0676 1.75425 9.57246 70.8829
4936463 5.96321 6.86078 26.9913 31.0676 1.75425 9.57246 70.8829
4936471 6.01606 6.93445 26.8338 31.1261 1.83705 9.52104 70.9104
4936484 5.98083 6.86999 26.9126 31.204 1.825 9.56758 70.9674
4936490 5.98083 6.86999 26.9126 31.204 1.825 9.56758 70.9674
4936504 6.00725 6.88841 26.8633 31.1943 1.83645 9.54754 70.9533
4936510 6.00725 6.88841 26.8633 31.1943 1.83645 9.54754 70.9533
4936524 5.99845 6.85157 26.7944 31.204 1.85702 9.5588 70.8485
4936532 5.98964 6.8792 26.7157 31.204 1.89928 9.54622 70.7885
4936542 5.98964 6.8792 26.7157 31.204 1.89928 9.54622 70.7885
4936552 5.99845 6.84236 26.7551 31.1748 1.8594 9.55672 70.7707
4936562 5.96321 6.90683 26.6665 31.243 1.94976 9.54501 70.7795
4936572 5.96321 6.90683 26.6665 31.243 1.94976 9.54501 70.7795
4936582 5.9456 6.89762 26.6665 31.2722 1.96299 9.55657 70.7819
4936593 5.9456 6.89762 26.6665 31.2722 1.96299 9.55657 70.7819
4936603 5.92798 6.79632 26.7157 31.3404 1.94017 9.60686 70.7804
4936613 5.9544 6.86999 26.6665 31.3794 1.98549 9.57132 70.8702
4936626 5.9544 6.86999 26.6665 31.3794 1.98549 9.57132 70.8702
4936633 5.96321 6.88841 26.6468 31.2625 1.9576 9.55139 70.7609
4936643 6.03368 6.90683 26.6566 31.2235 1.92035 9.51833 70.8206
4936653 6.03368 6.90683 26.6566 31.2235 1.92035 9.51833 70.8206
4936663 5.97202 6.91603 26.6369 31.2917 1.9765 9.54024 70.8167
4936687 6.01606 6.97129 26.696 31.2625 1.94574 9.50819 70.9458
4936694 5.98964 7.00813 26.568 31.1845 1.99115 9.48861 70.7503
4936707 5.98964 7.00813 26.568 31.1845 1.99115 9.48861 70.7503
4936714 6.08653 7.10943 26.4794 31.0287 1.97022 9.4009 70.7041
4936724 6.17461 7.32124 26.3121 30.8046 1.9965 9.26624 70.6125
4936734 6.17461 7.32124 26.3121 30.8046 1.9965 9.26624 70.6125
4936744 6.34197 7.56067 26.1546 30.5903 2.0009 9.09633 70.6475
4936754 6.34197 7.56067 26.1546 30.5903 2.0009 9.09633 70.6475
4936764 6.49171 7.73564 25.8396 30.3467 2.04187 8.93838 70.4137
4936774 6.65026 8.03034 25.6329 30.0447 2.058 8.74035 70.3582
4936784 6.65026 8.03034 25.6329 30.0447 2.058 8.74035 70.3582
4936794 6.91451 8.30661 25.308 29.616 2.03153 8.49017 70.1452
4936806 7.2228 8.65656 24.9438 29.0997 1.9985 8.18706 69.9229
4936814 7.2228 8.65656 24.9438 29.0997 1.9985 8.18706 69.9229
4936824 7.56632 9.05255 24.5206 28.6321 2.00575 7.85431 69.7715
4936835 7.56632 9.05255 24.5206 28.6321 2.00575 7.85431 69.7715
4936843 8.11244 9.54063 24.1563 28.0086 1.89079 7.41468 69.818
4936854 8.50881 9.93662 23.8413 27.541 1.83575 7.07531 69.8277
4936864 8.50881 9.93662 23.8413 27.541 1.83575 7.07531 69.8277
4936875 8.89637 10.3142 23.5756 27.0636 1.75586 6.74919 69.8497
4936884 8.89637 10.3142 23.5756 27.0636 1.75586 6.74919 69.8497
4936900 9.23109 10.6733 23.3492 26.5278 1.65549 6.4428 69.7814
4936904 9.72435 11.143 22.9456 26.0115 1.60565 6.03435 69.8244
4936922 9.72435 11.143 22.9456 26.0115 1.60565 6.03435 69.8244
4936924 10.1824 11.6679 22.5223 25.3685 1.55279 5.60081 69.7411
4936934 10.5788 12.2481 22.0892 24.667 1.52595 5.15844 69.5831
4936944 10.5788 12.2481 22.0892 24.667 1.52595 5.15844 69.5831
4936954 11.0808 12.8927 21.5478 24.0046 1.53494 4.65556 69.5259
4936974 11.5036 13.4729 21.0359 23.2739 1.51809 4.18552 69.2864
4936985 11.9088 14.136 20.6323 22.7186 1.55394 3.74076 69.3957
4936995 11.9088 14.136 20.6323 22.7186 1.55394 3.74076 69.3957
4937005 12.314 14.7161 19.9925 22.0562 1.61621 3.26117 69.0788
4937015 12.8073 15.2411 19.4708 21.4521 1.60038 2.79999 68.9712
4937025 12.8073 15.2411 19.4708 21.4521 1.60038 2.79999 68.9712
4937038 13.3093 15.8581 18.949 20.8676 1.61897 2.31559 68.9841
4937047 13.6881 16.4106 18.5061 20.3123 1.64284 1.89787 68.9171
4937056 13.6881 16.4106 18.5061 20.3123 1.64284 1.89787 68.9171
4937068 14.1373 17 18.0336 19.7668 1.66668 1.4498 68.9377
4937089 14.4984 17.4765 17.5512 19.3576 1.73641 1.07438 68.8838
4937097 14.8684 17.9628 17.1673 19.0166 1.7908 0.728699 69.0152
4937110 14.8684 17.9628 17.1673 19.0166 1.7908 0.728699 69.0152
4937116 15.1767 18.2449 16.8336 18.6075 1.75784 0.439909 68.8626
4937127 15.3969 18.595 16.4905 18.2957 1.81862 0.173247 68.7781
4937147 15.6523 18.8478 16.2722 18.0327 1.80074 -0.042581 68.805
4937157 15.6523 18.8478 16.2722 18.0327 1.80074 -0.042581 68.805
4937167 15.8197 19.1201 15.9602 17.7501 1.85372 -0.268631 68.6502
4937177 16.0399 19.3924 15.7627 17.4676 1.84142 -0.481055 68.6627
4937187 16.0399 19.3924 15.7627 17.4676 1.84142 -0.481055 68.6627
4937197 16.2425 19.6648 15.6275 17.2923 1.84775 -0.651081 68.827
4937217 16.3834 19.762 15.4404 17.1072 1.83621 -0.785649 68.693
4937227 16.5772 19.9662 15.3052 16.981 1.83962 -0.927788 68.8296
4937237 16.5772 19.9662 15.3052 16.981 1.83962 -0.927788 68.8296
4937249 16.6477 20.1316 15.1284 16.7906 1.87271 -1.06121 68.6983
4937258 16.7798 20.2288 15.1076 16.7525 1.84914 -1.12136 68.8688
4937268 16.7798 20.2288 15.1076 16.7525 1.84914 -1.12136 68.8688
4937278 16.9119 20.4525 14.8789 16.6097 1.91402 -1.28007 68.8531
4937288 16.9119 20.5595 14.7229 16.5431 1.98864 -1.35414 68.7375
4937309 17.0199 20.6567 14.515 16.3908 2.0095 -1.48089 68.5825
4937332 17.0199 20.6567 14.515 16.3908 2.0095 -1.48089 68.5825
4937334 17.0996 20.7443 14.359 16.2671 2.02742 -1.58124 68.47
4937340 17.0897 20.7735 14.2343 16.1338 2.04574 -1.64772 68.2312
4937350 17.0897 20.7735 14.2343 16.1338 2.04574 -1.64772 68.2312
4937362 17.2093 20.9096 14.1615 16.0482 2.04418 -1.7363 68.3285
4937369 17.2491 20.8999 14.0991 16.0957 2.06581 -1.74577 68.3438
4937384 17.2491 20.8999 14.0991 16.0957 2.06581 -1.74577 68.3438
4937389 17.289 21.0555 14.1095 16.1719 2.12345 -1.76241 68.6258
4937399 17.289 21.0555 14.1095 16.1719 2.12345 -1.76241 68.6258
4937409 17.1694 21.0652 14.0991 16.21 2.19083 -1.73442 68.5437
4937419 17.1295 21.1625 14.0471 16.3432 2.30375 -1.7257 68.6823
4937429 17.1295 21.1625 14.0471 16.3432 2.30375 -1.7257 68.6823
4937439 17.1196 21.1722 14.1823 16.4003 2.27613 -1.67896 68.8744
4937459 17.1096 21.143 14.1927 16.467 2.28831 -1.65276 68.9123
4937469 16.9736 21.0749 14.2758 16.4955 2.29623 -1.58613 68.8199
4937491 16.9119 20.9874 14.3278 16.5146 2.27745 -1.53988 68.7417
4937499 16.7886 20.9485 14.4526 16.6097 2.29546 -1.45527 68.7995
4937510 16.7886 20.9485 14.4526 16.6097 2.29546 -1.45527 68.7995
4937524 16.7005 20.9193 14.5566 16.8477 2.35785 -1.35074 69.0241
4937533 16.5684 20.6665 14.6606 16.9143 2.30776 -1.23383 68.8098
4937542 16.5684 20.6665 14.6606 16.9143 2.30776 -1.23383 68.8098
4937551 16.4715 20.5303 14.7541 17.1169 2.33096 -1.11745 68.8729
4937562 16.4715 20.5303 14.7541 17.1169 2.33096 -1.11745 68.8729
4937571 16.3746 20.3358 14.8789 17.263 2.30396 -0.995277 68.8524
4937580 16.2513 20.151 15.1388 17.4384 2.24679 -0.831788 68.9796
4937592 16.2513 20.151 15.1388 17.4384 2.24679 -0.831788 68.9796
4937601 16.0839 19.8398 15.3988 17.6138 2.16535 -0.63346 68.9363
4937613 15.8285 19.6064 15.6899 17.8963 2.16755 -0.401773 69.0211
4937634 15.6259 19.2174 16.085 18.2665 2.08576 -0.106615 69.1948
4937642 15.6259 19.2174 16.085 18.2665 2.08576 -0.106615 69.1948
4937654 15.3528 18.8381 16.4905 18.6172 2.02454 0.198437 69.2987
4937662 15.0798 18.381 16.9376 19.0556 1.95064 0.546924 69.454
4937675 15.0798 18.381 16.9376 19.0556 1.95064 0.546924 69.454
4937683 14.6922 17.8072 17.443 19.494 1.85998 0.958614 69.4364
4937697 14.3399 17.1167 17.9647 20.0298 1.74293 1.41205 69.4511
4937703 14.3399 17.1167 17.9647 20.0298 1.74293 1.41205 69.4511
4937713 13.9259 16.5119 18.6144 20.6436 1.65548 1.89827 69.6957
4937723 13.9259 16.5119 18.6144 20.6436 1.65548 1.89827 69.6957
4937733 13.3798 15.7568 19.2542 21.2963 1.58532 2.45682 69.687
4937743 12.8689 14.9832 20.0712 21.9977 1.44477 3.0499 69.9211
4937753 12.8689 14.9832 20.0712 21.9977 1.44477 3.0499 69.9211
4937764 12.2611 14.3478 20.8784 22.7284 1.40161 3.63121 70.2157
4937774 11.7326 13.7031 21.5379 23.4688 1.38459 4.16743 70.4425
4937794 11.1865 13.1598 22.1975 24.0728 1.3625 4.65696 70.6166
4937814 10.6756 12.5796 22.8471 24.6183 1.29919 5.13503 70.7207
4937824 10.244 12.2021 23.3196 25.1347 1.33041 5.50241 70.9004
4937845 9.69793 11.7232 23.6149 25.5828 1.41362 5.89997 70.6189
4937854 9.38964 11.3272 23.9496 26.0309 1.42115 6.20894 70.6974
4937865 9.38964 11.3272 23.9496 26.0309 1.42115 6.20894 70.6974
4937877 9.10777 10.9772 24.0481 26.3719 1.48689 6.45379 70.505
4937888 9.10777 10.9772 24.0481 26.3719 1.48689 6.45379 70.505
4937895 8.82591 10.6365 24.1662 26.6837 1.53888 6.69601 70.3123
4937906 8.65855 10.4155 24.2843 27.0344 1.60066 6.87102 70.3927
4937915 8.65855 10.4155 24.2843 27.0344 1.60066 6.87102 70.3927
4937925 8.45596 10.1668 24.3631 27.3266 1.66204 7.05427 70.3125
4937937 8.30622 9.92741 24.5402 27.7358 1.70784 7.24207 70.5097
4937947 8.30622 9.92741 24.5402 27.7358 1.70784 7.24207 70.5097
4937955 8.02435 9.64193 24.6387 28.1547 1.82148 7.47813 70.4597
4937968 8.02435 9.64193 24.6387 28.1547 1.82148 7.47813 70.4597
4937978 7.83057 9.39328 24.7174 28.5736 1.9212 7.67225 70.5149
4937988 7.68964 9.19068 24.8356 28.9925 2.00048 7.83806 70.7084
4937998 7.68964 9.19068 24.8356 28.9925 2.00048 7.83806 70.7084
4938009 7.53109 8.98808 24.9045 29.3238 2.07651 7.99515 70.7474
4938016 7.28446 8.76706 24.9734 29.6842 2.18978 8.18977 70.7091
4938026 7.28446 8.76706 24.9734 29.6842 2.18978 8.18977 70.7091
4938038 7.16114 8.65656 25.1013 29.9473 2.23709 8.30386 70.8663
4938057 7.02021 8.49079 25.1112 30.0934 2.28126 8.4197 70.7156
4938067 6.92332 8.41712 25.1506 30.2785 2.3392 8.49701 70.7695
4938079 6.92332 8.41712 25.1506 30.2785 2.3392 8.49701 70.7695
4938087 6.80881 8.28819 25.1604 30.5221 2.41633 8.60111 70.7795
4938097 6.66788 8.15005 25.1604 30.6974 2.48289 8.71018 70.6758
4938107 6.66788 8.15005 25.1604 30.6974 2.48289 8.71018 70.6758
4938119 6.57979 8.11322 25.2982 30.7851 2.47975 8.77206 70.7763
4938127 6.57979 8.11322 25.2982 30.7851 2.47975 8.77206 70.7763
4938137 6.44767 8.00271 25.2588 30.7656 2.50509 8.84871 70.4748
4938147 6.50052 8.03955 25.4065 30.8143 2.45435 8.83555 70.7609
4938159 6.50052 8.03955 25.4065 30.8143 2.45435 8.83555 70.7609
4938166 6.43005 8.08559 25.3868 30.6877 2.46367 8.83102 70.5901
4938185 6.38601 8.10401 25.4163 30.7948 2.50933 8.85158 70.7012
4938201 6.42124 8.13164 25.4065 30.6877 2.47412 8.82017 70.647
4938208 6.35078 8.0948 25.4557 30.7754 2.49859 8.86831 70.6766
4938221 6.35078 8.0948 25.4557 30.7754 2.49859 8.86831 70.6766
4938228 6.35078 8.20531 25.5049 30.8143 2.52695 8.83872 70.8753
4938242 6.35078 8.20531 25.5049 30.8143 2.52695 8.83872 70.8753
4938248 6.34197 8.15005 25.4065 30.7851 2.54185 8.8492 70.6836
4938258 6.28912 8.13164 25.436 30.8436 2.56366 8.88089 70.7003
4938269 6.28912 8.13164 25.436 30.8436 2.56366 8.88089 70.7003
4938279 6.25389 7.9935 25.5148 30.8825 2.51518 8.9497 70.6447
4938289 6.25389 7.9935 25.5148 30.8825 2.51518 8.9497 70.6447
4938298 6.26269 7.9935 25.5837 30.9799 2.51592 8.96093 70.8198
4938310 6.19223 7.87378 25.692 31.0189 2.47557 9.03788 70.7769
4938330 6.17461 7.81853 25.751 31.0384 2.4481 9.06924 70.7825
4938342 6.15699 7.74485 25.8298 31.0092 2.39157 9.10445 70.7408
4938351 6.15699 7.74485 25.8298 31.0092 2.39157 9.10445 70.7408
4938359 6.20104 7.63434 25.8593 30.9799 2.31836 9.12715 70.6746
4938373 6.20104 7.63434 25.8593 30.9799 2.31836 9.12715 70.6746
4938379 6.15699 7.57909 26.0365 30.941 2.2367 9.17251 70.7135
4938389 6.20104 7.60672 26.1251 30.941 2.1946 9.15535 70.8738
4938409 6.15699 7.53304 26.1644 30.863 2.1475 9.19237 70.7175
4938421 6.14819 7.487 26.2629 30.7754 2.06983 9.21203 70.6734
4938430 6.14819 7.487 26.2629 30.7754 2.06983 9.21203 70.6734
4938441 6.22746 7.45016 26.381 30.7169 1.96346 9.20239 70.7755
4938450 6.17461 7.34886 26.4302 30.6 1.8936 9.24971 70.5537
4938470 6.21865 7.36728 26.568 30.5513 1.81453 9.23553 70.7053
4938492 6.18342 7.36728 26.5779 30.5026 1.80818 9.24445 70.6312
4938503 6.25389 7.31203 26.696 30.5415 1.73144 9.25201 70.8035
4938512 6.25389 7.31203 26.696 30.5415 1.73144 9.25201 70.8035
4938522 6.28912 7.24756 26.7846 30.3759 1.60889 9.25578 70.6972
4938532 6.28031 7.34886 26.8043 30.2883 1.60931 9.21853 70.7217
4938543 6.28031 7.34886 26.8043 30.2883 1.60931 9.21853 70.7217
4938552 6.35078 7.34886 26.8338 30.1811 1.53623 9.18806 70.7145
4938565 6.35078 7.34886 26.8338 30.1811 1.53623 9.18806 70.7145
4938572 6.38601 7.3857 26.7846 30.1129 1.53107 9.15373 70.6692
4938586 6.44767 7.44095 26.8043 29.9668 1.47035 9.1033 70.6597
4938593 6.44767 7.44095 26.8043 29.9668 1.47035 9.1033 70.6597
4938602 6.50052 7.50542 26.8043 29.8304 1.42658 9.05189 70.6406
4938612 6.52694 7.50542 26.7944 29.616 1.34864 9.02394 70.4428
4938623 6.52694 7.50542 26.7944 29.616 1.34864 9.02394 70.4428
4938633 6.65026 7.78169 26.7354 29.2751 1.30288 8.85373 70.4424
4938643 6.65026 7.78169 26.7354 29.2751 1.30288 8.85373 70.4424
4938652 6.75596 8.03034 26.5877 28.8464 1.25785 8.68291 70.2204
4938663 6.95855 8.30661 26.3909 28.4372 1.2107 8.46649 70.0933
4938673 6.95855 8.30661 26.3909 28.4372 1.2107 8.46649 70.0933
4938683 7.18756 8.68418 26.2629 27.9209 1.12577 8.20322 70.0555
4938695 7.18756 8.68418 26.2629 27.9209 1.12577 8.20322 70.0555
4938703 7.45181 9.12622 26.0562 27.3851 1.07233 7.89709 70.0193
4938717 7.7601 9.58667 25.7018 26.9467 1.09704 7.56517 69.9953
4938733 8.13886 10.0655 25.3474 26.4109 1.06848 7.19395 69.9627
4938743 8.6057 10.6733 24.9241 25.69 1.0135 6.72492 69.8932
4938763 8.96684 11.2351 24.4517 25.0957 1.04385 6.31091 69.7493
4938773 8.96684 11.2351 24.4517 25.0957 1.04385 6.31091 69.7493
4938784 9.46891 11.8429 23.9004 24.443 1.04679 5.82115 69.6552
4938793 9.93575 12.4783 23.4082 23.7415 1.03355 5.33374 69.5639
4938820 10.4554 13.123 22.857 23.0499 1.02914 4.82011 69.4852
4938825 10.9927 13.7676 22.2073 22.3192 1.0416 4.2792 69.2868
4938834 10.9927 13.7676 22.2073 22.3192 1.0416 4.2792 69.2868
4938847 11.5301 14.4583 21.7053 21.6567 1.0381 3.7578 69.3503
4938864 12.0145 14.9924 21.2229 21.1014 1.02999 3.31397 69.3313
4938874 12.5166 15.5818 20.6717 20.5364 1.05687 2.83733 69.3065
4938884 12.5166 15.5818 20.6717 20.5364 1.05687 2.83733 69.3065
4938894 12.8953 16.0607 20.15 19.9713 1.08093 2.42452 69.0773
4938904 13.2301 16.4751 19.7858 19.5135 1.07701 2.08554 69.0044
4938914 13.2301 16.4751 19.7858 19.5135 1.07701 2.08554 69.0044
4938924 13.5824 16.7974 19.4806 19.1725 1.05273 1.79769 69.0329
4938944 13.8026 17.1653 19.1361 18.8413 1.11245 1.52499 68.9453
4938968 14.0316 17.4863 18.762 18.6075 1.19764 1.27416 68.8873
4938970 14.0316 17.4863 18.762 18.6075 1.19764 1.27416 68.8873
4938974 14.2782 17.7683 18.4372 18.3736 1.24407 1.03786 68.8574
4938984 14.5249 18.0892 18.0926 18.1398 1.31145 0.788353 68.8466
4938995 14.5249 18.0892 18.0926 18.1398 1.31145 0.788353 68.8466
4939005 14.6746 18.3616 17.9253 18.0521 1.38153 0.639285 69.0136
4939026 14.8596 18.5561 17.6694 17.8573 1.40858 0.459303 68.9423
4939035 14.9741 18.8673 17.443 17.7794 1.53104 0.299934 69.0637
4939046 14.9741 18.8673 17.443 17.7794 1.53104 0.299934 69.0637
4939058 15.0886 19.159 17.1772 17.5358 1.60565 0.101223 68.9606
4939067 15.344 19.3049 16.9064 17.3994 1.61478 -0.0746396 68.9548
4939087 15.4409 19.5383 16.6049 17.2533 1.72355 -0.244287 68.8374
4939097 15.4409 19.5383 16.6049 17.2533 1.72355 -0.244287 68.8374
4939107 15.6347 19.6842 16.3138 17.1851 1.78763 -0.396711 68.8178
4939117 15.714 19.9273 16.085 17.1169 1.90478 -0.531515 68.8433
4939128 15.714 19.9273 16.085 17.1169 1.90478 -0.531515 68.8433
4939137 15.8285 19.9857 15.8979 17.039 1.92663 -0.627779 68.751
4939148 15.899 20.1705 15.7627 16.9714 1.99127 -0.727136 68.8036
4939157 15.899 20.1705 15.7627 16.9714 1.99127 -0.727136 68.8036
4939167 15.9782 20.3358 15.6691 16.9334 2.03936 -0.807838 68.9165
4939177 15.9782 20.3358 15.6691 16.9334 2.03936 -0.807838 68.9165
4939188 16.0399 20.3747 15.5651 16.9239 2.06576 -0.85459 68.9036
4939198 16.0663 20.5011 15.3572 16.8858 2.16661 -0.942699 68.8104
4939211 16.0663 20.5011 15.3572 16.8858 2.16661 -0.942699 68.8104
4939218 16.1984 20.6957 15.17 16.8572 2.24328 -1.05922 68.9213
4939234 16.2777 20.7054 14.9725 16.743 2.25557 -1.15016 68.6986
4939238 16.2777 20.7054 14.9725 16.743 2.25557 -1.15016 68.6986
4939248 16.2865 20.7054 14.9101 16.6859 2.25792 -1.18008 68.5879
4939259 16.2865 20.7054 14.9101 16.6859 2.25792 -1.18008 68.5879
4939268 16.2953 20.754 14.7853 16.6383 2.30443 -1.2324 68.473
4939281 16.3394 20.7735 14.8061 16.7049 2.3071 -1.22445 68.6239
4939289 16.3394 20.7735 14.8061 16.7049 2.3071 -1.22445 68.6239
4939303 16.3746 20.8221 14.8269 16.6669 2.28831 -1.24536 68.6905
4939309 16.401 20.9291 14.7957 16.7335 2.34746 -1.26364 68.8593
4939319 16.401 20.9291 14.7957 16.7335 2.34746 -1.26364 68.8593
4939328 16.5067 20.8707 14.7541 16.6954 2.29025 -1.29192 68.827
4939338 16.5067 20.8707 14.7541 16.6954 2.29025 -1.29192 68.827
4939350 16.4803 20.8999 14.7125 16.6002 2.29545 -1.3249 68.693
4939359 16.5244 20.9096 14.7749 16.6669 2.27844 -1.305 68.8757
4939373 16.5244 20.9096 14.7749 16.6669 2.27844 -1.305 68.8757
4939379 16.5067 20.9485 14.7333 16.5622 2.28019 -1.34393 68.7507
4939389 16.5067 20.8999 14.7645 16.6478 2.28005 -1.30653 68.819
4939399 16.5067 20.8999 14.7645 16.6478 2.28005 -1.30653 68.819
4939409 16.5244 20.9193 14.7541 16.6002 2.2679 -1.32765 68.798
4939429 16.4363 20.8902 14.8685 16.5907 2.24469 -1.27946 68.7856
4939440 16.3922 20.8221 14.8477 16.5717 2.24155 -1.26649 68.6337
4939452 16.3922 20.8221 14.8477 16.5717 2.24155 -1.26649 68.6337
4939463 16.3922 20.7248 15.0141 16.6288 2.16235 -1.1942 68.7599
4939472 16.2953 20.6859 15.1284 16.6573 2.15201 -1.13328 68.767
4939490 16.2073 20.54 15.3364 16.8096 2.10689 -1.00183 68.8933
4939510 16.0135 20.4233 15.5963 16.9239 2.08006 -0.851972 68.957
4939520 15.943 20.3455 15.7523 16.9714 2.03648 -0.77482 69.0123
4939530 15.943 20.3455 15.7523 16.9714 2.03648 -0.77482 69.0123
4939543 15.8021 20.2191 15.981 17.0585 1.989 -0.647622 69.0607
4939551 15.6171 19.9857 16.3242 17.263 1.91772 -0.436971 69.19
4939560 15.6171 19.9857 16.3242 17.263 1.91772 -0.436971 69.19
4939571 15.4585 19.7815 16.5945 17.3605 1.8386 -0.278573 69.195
4939582 15.4585 19.7815 16.5945 17.3605 1.8386 -0.278573 69.195
4939594 15.2736 19.6161 16.8544 17.5845 1.8292 -0.0975233 69.3287
4939602 15.0093 19.2855 17.2166 17.7209 1.72625 0.139246 69.2323
4939622 14.7627 18.9743 17.6202 18.0229 1.6627 0.412105 69.38
4939632 14.5073 18.6241 18.0237 18.3054 1.58313 0.690563 69.4606
4939652 14.2166 18.2449 18.3387 18.5782 1.53785 0.96331 69.3784
4939662 14.2166 18.2449 18.3387 18.5782 1.53785 0.96331 69.3784
4939672 13.9083 17.7586 18.7226 18.9289 1.46303 1.29505 69.3185
4939683 13.6 17.3404 19.1361 19.3381 1.41988 1.628 69.4146
4939692 13.6 17.3404 19.1361 19.3381 1.41988 1.628 69.4146
4939703 13.2565 16.8342 19.5987 19.8155 1.36484 2.01212 69.5049
4939713 12.9394 16.4659 20.1598 20.2441 1.2931 2.3633 69.8092
4939733 12.587 16.0054 20.5929 20.6338 1.23864 2.71436 69.8192
4939743 12.2523 15.545 21.0359 21.1307 1.21041 3.08072 69.9639
4939753 12.2523 15.545 21.0359 21.1307 1.21041 3.08072 69.9639
4939764 11.9088 15.0016 21.5084 21.647 1.15299 3.47779 70.0658
4939774 11.9088 15.0016 21.5084 21.647 1.15299 3.47779 70.0658
4939784 11.6005 14.5596 21.9317 22.0367 1.09231 3.80906 70.1285
4939795 11.2041 14.0807 22.4534 22.553 1.05852 4.20853 70.2913
4939804 11.2041 14.0807 22.4534 22.553 1.05852 4.20853 70.2913
4939816 10.9047 13.5834 22.8767 23.1083 1.03245 4.57555 70.4731
4939824 10.4642 12.948 23.4574 23.6052 0.933474 5.03379 70.4748
4939834 10.4642 12.948 23.4574 23.6052 0.933474 5.03379 70.4748
4939844 10.0855 12.3954 23.9201 24.2384 0.930166 5.45252 70.6394
4939854 10.0855 12.3954 23.9201 24.2384 0.930166 5.45252 70.6394
4939867 9.6715 11.76 24.3926 24.9009 0.917917 5.90921 70.725
4939875 9.28394 11.2443 24.806 25.5146 0.94178 6.30759 70.8489
4939884 9.28394 11.2443 24.806 25.5146 0.94178 6.30759 70.8489
4939894 8.89637 10.6549 25.1309 26.0407 0.943252 6.70651 70.7229
4939907 8.89637 10.6549 25.1309 26.0407 0.943252 6.70651 70.7229
4939914 8.49119 10.2589 25.377 26.4401 1.00291 7.02882 70.5672
4939929 8.20933 9.88136 25.6034 26.8785 1.04403 7.30975 70.5726
4939934 8.20933 9.88136 25.6034 26.8785 1.04403 7.30975 70.5726
4939944 7.9715 9.54984 25.8101 27.2097 1.05542 7.54846 70.5412
4939954 7.70725 9.28277 26.0365 27.5605 1.09776 7.77911 70.587
4939965 7.70725 9.28277 26.0365 27.5605 1.09776 7.77911 70.587
4939976 7.46062 8.96966 26.2826 27.8917 1.1041 8.01874 70.6045
4939985 7.30207 8.85915 26.2826 28.1742 1.22091 8.13437 70.618
4939995 7.30207 8.85915 26.2826 28.1742 1.22091 8.13437 70.618
4940005 7.16995 8.77627 26.3416 28.3009 1.26279 8.2229 70.5887
4940017 7.16995 8.77627 26.3416 28.3009 1.26279 8.2229 70.5887
4940027 7.12591 8.76706 26.2727 28.408 1.33777 8.2441 70.5737
4940037 7.08187 8.66576 26.2727 28.4957 1.34965 8.30041 70.5161
4940047 7.08187 8.66576 26.2727 28.4957 1.34965 8.30041 70.5161
4940057 7.05544 8.7026 26.2235 28.5054 1.39355 8.29321 70.487
4940068 7.08187 8.73944 26.1349 28.4275 1.40308 8.25641 70.3837
4940086 7.08187 8.73944 26.1349 28.4275 1.40308 8.25641 70.3837
4940098 7.08187 8.84995 26.0759 28.4275 1.46224 8.21427 70.4352
4940112 7.12591 8.86836 26.0562 28.486 1.47876 8.19744 70.5364
4940115 7.12591 8.86836 26.0562 28.486 1.47876 8.19744 70.5364
4940132 7.10829 8.85915 26.1152 28.6516 1.51525 8.22784 70.7343
4940139 7.02902 8.84995 26.0759 28.7685 1.5955 8.26433 70.7233
4940152 7.02902 8.73944 26.0955 28.9146 1.59988 8.31643 70.7786
4940163 7.02902 8.73944 26.0955 28.9146 1.59988 8.31643 70.7786
4940175 6.95855 8.62893 26.1448 29.1582 1.65177 8.40356 70.8904
4940179 6.94093 8.52763 26.0955 29.2069 1.65959 8.44284 70.771
4940201 6.87927 8.44475 26.1841 29.3238 1.66066 8.5097 70.8319
4940210 6.87927 8.44475 26.1841 29.3238 1.66066 8.5097 70.8319
4940224 6.81762 8.32503 26.1448 29.3238 1.65924 8.56647 70.6112
4940231 6.8 8.22373 26.1743 29.5771 1.70488 8.63177 70.7751
4940245 6.8 8.22373 26.1743 29.5771 1.70488 8.63177 70.7751
4940251 6.6943 8.1961 26.2137 29.8304 1.80396 8.70247 70.9344
4940261 6.65907 8.05796 26.194 29.9668 1.82416 8.77081 70.8778
4940282 6.55337 8.00271 26.194 30.0739 1.88118 8.83426 70.824
4940293 6.55337 8.00271 26.194 30.0739 1.88118 8.83426 70.824
4940303 6.50933 7.91983 26.1251 30.1908 1.93521 8.8812 70.7451
4940312 6.43886 7.94745 26.2235 30.2201 1.94309 8.90668 70.8299
4940334 6.35959 7.86457 26.1152 30.2688 2.00349 8.95644 70.6082
4940342 6.3772 7.84615 26.1448 30.3564 2.00801 8.96672 70.7246
4940356 6.3772 7.84615 26.1448 30.3564 2.00801 8.96672 70.7246
4940362 6.35959 7.85536 26.0069 30.3662 2.07365 8.95863 70.5881
4940373 6.35959 7.85536 26.0069 30.3662 2.07365 8.95863 70.5881
4940383 6.3772 7.80932 26.0168 30.4052 2.06083 8.97246 70.6085
4940393 6.33316 7.85536 26.0168 30.4441 2.1053 8.9751 70.6494
4940413 6.31554 7.86457 25.9774 30.4441 2.13017 8.9746 70.6017
4940424 6.28912 7.85536 25.9676 30.4149 2.13166 8.98337 70.527
4940433 6.28912 7.85536 25.9676 30.4149 2.13166 8.98337 70.527
4940443 6.3772 7.88299 25.9577 30.4149 2.11055 8.94324 70.6328
4940453 6.38601 7.88299 25.9971 30.3564 2.07311 8.93862 70.6226
4940464 6.38601 7.93824 25.9971 30.3564 2.09103 8.91991 70.6778
4940474 6.36839 7.91983 25.938 30.3467 2.11132 8.92619 70.573
4940486 6.36839 7.91983 25.938 30.3467 2.11132 8.92619 70.573
4940494 6.43005 7.90141 25.8298 30.337 2.12011 8.90135 70.4982
4940509 6.50052 8.04875 25.8199 30.2785 2.12562 8.82176 70.6477
4940514 6.50052 8.04875 25.8199 30.2785 2.12562 8.82176 70.6477
4940524 6.59741 8.13164 25.7018 29.9862 2.06579 8.72494 70.4171
4940534 6.67668 8.26056 25.6329 29.8888 2.07206 8.64002 70.459
4940544 6.67668 8.26056 25.6329 29.8888 2.07206 8.64002 70.459
4940554 6.82643 8.50921 25.4852 29.5284 2.03482 8.46021 70.3492
4940566 6.82643 8.50921 25.4852 29.5284 2.03482 8.46021 70.3492
4940575 6.98497 8.74865 25.3966 29.1679 1.96838 8.28562 70.2982
4940586 7.2228 9.14464 25.2096 28.6905 1.92221 8.0121 70.2676
4940598 7.2228 9.14464 25.2096 28.6905 1.92221 8.0121 70.2676
4940607 7.45181 9.52221 24.9734 28.3106 1.92421 7.75213 70.258
4940617 7.6456 9.85374 24.8848 27.9112 1.86163 7.53179 70.2953
4940640 7.88342 10.1484 24.6879 27.3169 1.74695 7.27611 70.0367
4940647 7.88342 10.1484 24.6879 27.3169 1.74695 7.27611 70.0367
4940657 7.98912 10.48 24.4812 27.0246 1.79861 7.08184 69.9749
4940667 8.14767 10.7562 24.2745 26.6544 1.78589 6.87893 69.8328
4940677 8.14767 10.7562 24.2745 26.6544 1.78589 6.87893 69.8328
4940687 8.46477 11.0049 23.9792 26.2842 1.73705 6.62392 69.733
4940697 8.72902 11.3732 23.5756 25.8751 1.77697 6.32937 69.5529
4940727 9.22228 11.8797 23.2113 25.4172 1.7436 5.92133 69.7306
4940729 9.22228 11.8797 23.2113 25.4172 1.7436 5.92133 69.7306
4940740 9.54819 12.2205 22.8964 24.9593 1.70029 5.62023 69.6243
4940749 9.89171 12.727 22.5617 24.5014 1.71316 5.26201 69.6818
4940757 9.89171 12.727 22.5617 24.5014 1.71316 5.26201 69.6818
4940771 10.2264 13.1782 22.3156 24.0143 1.66723 4.93125 69.7346
4940777 10.2264 13.1782 22.3156 24.0143 1.66723 4.93125 69.7346
4940787 10.5699 13.6295 21.8726 23.5564 1.70309 4.57348 69.6285
4940797 11.0544 14.1268 21.5576 23.0986 1.65145 4.18294 69.8373
4940807 11.0544 14.1268 21.5576 23.0986 1.65145 4.18294 69.8373
4940819 11.4596 14.5872 21.0064 22.4556 1.64614 3.75819 69.5088
4940828 12.0233 15.195 20.4847 21.8418 1.62804 3.25865 69.5448
4940838 12.0233 15.195 20.4847 21.8418 1.62804 3.25865 69.5448
4940848 12.5782 15.8397 19.9137 21.0722 1.59209 2.71629 69.4038
4940860 13.0539 14.0255 19.2936 20.2928 0.739077 2.81413 66.6658
4940868 13.0539 16.383 19.2936 20.2928 1.56772 2.20568 69.0233
4940882 13.6 16.8711 18.7128 19.6401 1.52504 1.71783 68.824
4940888 13.6 16.8711 18.7128 19.6401 1.52504 1.71783 68.824
4940898 14.0845 17.3404 18.26 18.9874 1.45013 1.27181 68.6722
4940908 14.6041 17.8656 17.7973 18.3834 1.40111 0.81085 68.6504
4940918 14.6041 17.8656 17.7973 18.3834 1.40111 0.81085 68.6504
4940927 15.0974 18.4005 17.3445 17.7891 1.36513 0.357512 68.6315
4940938 15.0974 18.4005 17.3445 17.7891 1.36513 0.357512 68.6315
4940948 15.485 18.8381 16.8336 17.3117 1.39891 -0.0389278 68.4685
4940957 15.8813 19.3049 16.5009 16.8667 1.3819 -0.397921 68.5539
4940970 15.8813 19.3049 16.5009 16.8667 1.3819 -0.397921 68.5539
4940978 16.2161 19.6259 16.0954 16.4765 1.38527 -0.716964 68.4138
4940988 16.5244 20.1024 15.7731 16.1433 1.44008 -1.03081 68.5432
4940998 16.5244 20.1024 15.7731 16.1433 1.44008 -1.03081 68.5432
4941008 16.7974 20.365 15.4404 15.8387 1.44867 -1.28941 68.4415
4941028 17 20.6567 15.2116 15.6198 1.48381 -1.49485 68.4882
4941038 17.2691 20.9582 14.9829 15.3247 1.47044 -1.73335 68.5349
4941048 17.2691 20.9582 14.9829 15.3247 1.47044 -1.73335 68.5349
4941058 17.5182 21.1625 14.8685 15.0963 1.41018 -1.90453 68.6454
4941068 17.6178 21.2597 14.7229 14.8203 1.36627 -2.04638 68.4207
4941088 17.6975 21.3862 14.7229 14.706 1.3398 -2.11378 68.5127
4941109 17.847 21.5126 14.6294 14.5157 1.29623 -2.23661 68.5046
4941118 17.8869 21.7265 14.5566 14.5157 1.38267 -2.30204 68.6857
4941129 17.8869 21.7265 14.5566 14.5157 1.38267 -2.30204 68.6857
4941141 18.0264 21.8043 14.463 14.449 1.36888 -2.38251 68.7428
4941149 18.136 21.8822 14.411 14.2968 1.32115 -2.46859 68.7259
4941169 18.2655 22.028 14.3902 14.1635 1.28392 -2.55781 68.8473
4941184 18.2655 22.028 14.3902 14.1635 1.28392 -2.55781 68.8473
4941189 18.3552 22.0669 14.2758 14.1159 1.29036 -2.62238 68.8139
4941199 18.4947 22.1545 14.1615 14.0493 1.28796 -2.70951 68.8599
4941209 18.4947 22.1545 14.1615 14.0493 1.28796 -2.70951 68.8599
4941219 18.6442 22.3101 14.0679 13.897 1.26778 -2.82709 68.9191
4941231 18.714 22.349 13.9743 13.7828 1.2509 -2.90014 68.82
4941251 18.8734 22.4851 13.9431 13.659 1.20635 -2.99222 68.9606
4941261 18.8734 22.4851 13.9431 13.659 1.20635 -2.99222 68.9606
4941271 18.9531 22.4851 13.7456 13.5067 1.19855 -3.0978 68.6905
4941281 19.0826 22.5143 13.652 13.4401 1.17186 -3.16751 68.689
4941293 19.0826 22.5143 13.652 13.4401 1.17186 -3.16751 68.689
4941300 19.1325 22.5046 13.6 13.3639 1.14286 -3.20836 68.601
4941310 19.2122 22.5727 13.5792 13.3163 1.12754 -3.25187 68.6804
4941320 19.2122 22.5727 13.5792 13.3163 1.12754 -3.25187 68.6804
4941333 19.2222 22.5629 13.6104 13.3259 1.11182 -3.24109 68.7214
4941340 19.2222 22.5629 13.6104 13.3259 1.11182 -3.24109 68.7214
4941350 19.272 22.5727 13.5272 13.2212 1.09144 -3.30127 68.593
4941361 19.2122 22.4657 13.6104 13.2592 1.05851 -3.24043 68.5475
4941384 19.2122 22.4657 13.6104 13.2592 1.05851 -3.24043 68.5475
4941386 19.2122 22.3781 13.652 13.3259 1.0354 -3.19663 68.5682
4941392 19.1524 22.3101 13.6832 13.4496 1.0657 -3.13353 68.5953
4941408 19.1524 22.3101 13.6832 13.4496 1.0657 -3.13353 68.5953
4941412 19.0826 22.2225 13.8807 13.659 1.05969 -2.99923 68.8449
4941422 19.0826 22.2225 13.8807 13.659 1.05969 -2.99923 68.8449
4941435 18.9531 22.0475 14.0055 13.7732 1.04032 -2.88354 68.7793
4941441 18.7438 21.8238 14.1511 14.0207 1.07275 -2.70497 68.7394
4941456 18.7438 21.8238 14.1511 14.0207 1.07275 -2.70497 68.7394
4941461 18.4648 21.6585 14.3278 14.3158 1.15666 -2.50404 68.7669
4941472 18.1758 21.6585 14.5878 14.6204 1.27285 -2.30862 69.0425
4941482 18.1758 21.4348 14.5878 14.6204 1.19573 -2.26737 68.8188
4941492 17.8869 21.0944 14.9725 14.944 1.15354 -1.97353 68.8978
4941512 17.4783 20.7735 15.2844 15.2867 1.19779 -1.67401 68.8228
4941522 17.1295 20.3747 15.7211 15.7816 1.1976 -1.30455 69.007
4941533 17.1295 20.3747 15.7211 15.7816 1.1976 -1.30455 69.007
4941542 16.7358 20.0343 16.1994 16.3147 1.23183 -0.921426 69.2841
4941553 16.1984 20.0343 16.8128 14.3824 0.521094 -1.12064 67.428
4941562 16.1984 19.48 16.8128 16.8191 1.18591 -0.442883 69.3104
4941576 15.6259 18.9062 17.4823 17.5163 1.19165 0.100656 69.5308
4941582 15.6259 18.9062 17.4823 17.5163 1.19165 0.100656 69.5308
4941592 14.9212 18.1768 18.132 18.3152 1.23614 0.722376 69.5452
4941604 14.3223 17.4182 18.89 19.2212 1.22658 1.36805 69.8517
4941613 14.3223 17.4182 18.89 19.2212 1.22658 1.36805 69.8517
4941623 13.7057 16.6961 19.579 20.1272 1.26183 1.99074 70.1081
4941633 13.7057 16.6961 19.579 20.1272 1.26183 1.99074 70.1081
4941646 13.0979 15.9317 20.337 20.9358 1.22067 2.61224 70.3025
4941653 12.5518 15.3147 20.9178 21.6957 1.25597 3.13854 70.48
4941673 11.944 14.5872 21.4789 22.3095 1.23499 3.68114 70.3196
4941683 11.4508 13.961 22.0596 22.9524 1.20805 4.17479 70.4238
4941694 11.4508 13.961 22.0596 22.9524 1.20805 4.17479 70.4238
4941703 11.0104 13.4177 22.6404 23.5077 1.15996 4.61632 70.5762
4941723 10.4731 12.8559 23.1818 23.9656 1.1233 5.06946 70.4764
4941733 9.96218 12.3678 23.6838 24.404 1.10974 5.48679 70.4179
4941743 9.96218 12.3678 23.6838 24.404 1.10974 5.48679 70.4179
4941753 9.61865 11.9626 24.0874 24.7352 1.06236 5.80395 70.404
4941765 9.31917 11.6403 24.4713 25.047 1.02755 6.07826 70.4778
4941774 9.31917 11.6403 24.4713 25.047 1.02755 6.07826 70.4778
4941788 8.99326 11.4285 24.7568 25.2029 1.02346 6.29525 70.3814
4941794 8.99326 11.4285 24.7568 25.2029 1.02346 6.29525 70.3814
4941804 8.74663 11.1246 25.0324 25.3295 0.952202 6.51203 70.2332
4941814 8.53523 10.9404 25.0718 25.5731 1.03623 6.66764 70.1205
4941824 8.53523 10.9404 25.0718 25.5731 1.03623 6.66764 70.1205
4941834 8.35026 10.7654 25.3277 25.8069 1.03 6.83675 70.2503
4941844 8.19171 10.7194 25.4951 26.0602 1.09726 6.94888 70.4664
4941855 8.19171 10.7194 25.4951 26.0602 1.09726 6.94888 70.4664
4941864 8.02435 10.4707 25.5837 26.3232 1.13134 7.11879 70.402
4941874 8.02435 10.4707 25.5837 26.3232 1.13134 7.11879 70.402
4941884 7.85699 10.2037 25.7412 26.6155 1.14354 7.30558 70.4173
4941894 7.71606 10.0932 25.9282 26.9077 1.18786 7.43718 70.6452
4941904 7.71606 10.0932 25.9282 26.9077 1.18786 7.43718 70.6452
4941914 7.5399 9.85374 25.9676 27.2682 1.27937 7.61201 70.6294
4941924 7.39016 9.68797 25.9479 27.6189 1.4045 7.74762 70.6449
4941934 7.39016 9.68797 25.9479 27.6189 1.4045 7.74762 70.6449
4941945 7.25803 9.53142 25.9971 27.9696 1.50019 7.88142 70.7562
4941956 7.25803 9.53142 25.9971 27.9696 1.50019 7.88142 70.7562
4941965 7.07306 9.36566 25.9774 28.1352 1.57702 8.0099 70.5514
4941975 7.0114 9.39328 25.938 28.2424 1.65979 8.02771 70.5851
4941985 7.0114 9.39328 25.938 28.2424 1.65979 8.02771 70.5851
4941999 6.94974 9.36566 25.8002 28.2716 1.73587 8.04616 70.3873
4942012 6.91451 9.33803 25.7116 28.3788 1.80923 8.06859 70.343
4942022 6.91451 9.33803 25.7116 28.3788 1.80923 8.06859 70.343
4942032 6.94974 9.32882 25.6427 28.5347 1.87033 8.06862 70.456
4942035 6.94974 9.32882 25.6427 28.5347 1.87033 8.06862 70.456
4942045 6.83523 9.24594 25.6723 28.71 1.93308 8.1534 70.4635
4942055 6.86166 9.26436 25.6034 28.8367 1.99671 8.14429 70.5661
4942075 6.86166 9.22752 25.5345 28.9438 2.046 8.16009 70.5675
4942088 6.82643 9.16306 25.5837 29.1387 2.08297 8.21635 70.7118
4942095 6.82643 9.16306 25.5837 29.1387 2.08297 8.21635 70.7118
4942105 6.83523 9.19989 25.4852 29.2848 2.17648 8.20595 70.8052
4942115 6.83523 9.19989 25.4852 29.2848 2.17648 8.20595 70.8052
4942128 6.77358 9.11701 25.4557 29.314 2.19422 8.25339 70.6603
4942137 6.78238 9.16306 25.308 29.314 2.26261 8.2212 70.5675
4942147 6.78238 9.16306 25.308 29.314 2.26261 8.2212 70.5675
4942157 6.82643 9.25515 25.249 29.1679 2.25098 8.15663 70.4985
4942169 6.81762 9.35645 25.1998 28.9828 2.24636 8.10339 70.3566
4942177 6.81762 9.35645 25.1998 28.9828 2.24636 8.10339 70.3566
4942189 6.87047 9.52221 25.121 28.9341 2.29419 8.01922 70.4478
4942199 6.87047 9.52221 25.121 28.9341 2.29419 8.01922 70.4478
4942210 6.87047 9.55905 25.1013 28.8367 2.28228 7.99556 70.3675
4942218 6.91451 9.78927 25.062 28.8854 2.37017 7.90721 70.6511
4942227 6.91451 9.78927 25.062 28.8854 2.37017 7.90721 70.6511
4942240 6.82643 9.76165 25.0816 28.8074 2.36283 7.93896 70.4772
4942252 6.87047 9.80769 25.1309 28.8172 2.34458 7.91559 70.6262
4942257 6.87047 9.80769 25.1309 28.8172 2.34458 7.91559 70.6262
4942267 6.93212 9.87216 25.0915 28.8464 2.36597 7.87372 70.7422
4942278 6.93212 9.87216 25.0915 28.8464 2.36597 7.87372 70.7422
4942290 6.82643 9.86295 25.1013 28.8562 2.40327 7.9129 70.6469
4942298 6.78238 9.86295 25.1112 28.9438 2.44455 7.93695 70.7003
4942309 6.78238 9.86295 25.1112 28.9438 2.44455 7.93695 70.7003
4942319 6.86166 9.76165 25.1112 28.9536 2.38456 7.94507 70.6881
4942329 6.78238 9.76165 25.1013 29.0413 2.44713 7.97857 70.6866
4942338 6.78238 9.76165 25.1013 29.0413 2.44713 7.97857 70.6866
4942349 6.75596 9.74323 25.0718 29.0997 2.48165 7.99603 70.6707
4942358 6.75596 9.74323 25.0718 29.0997 2.48165 7.99603 70.6707
4942371 6.66788 9.63272 25.0718 29.0705 2.47134 8.05795 70.4429
4942378 6.6943 9.59588 25.1506 29.1484 2.44353 8.07676 70.5892
4942388 6.6943 9.59588 25.1506 29.1484 2.44353 8.07676 70.5892
4942398 6.68549 9.49458 25.1702 29.1289 2.40064 8.11284 70.4792
4942408 6.64145 9.513 25.2195 29.2069 2.42948 8.13363 70.5808
4942430 6.67668 9.37486 25.2982 29.2848 2.36597 8.18257 70.6346
4942439 6.67668 9.37486 25.2982 29.2848 2.36597 8.18257 70.6346
4942451 6.63264 9.31961 25.3474 29.3725 2.37436 8.22835 70.6722
4942459 6.65907 9.31961 25.377 29.3822 2.35582 8.22343 70.7379
4942479 6.71192 9.28277 25.3277 29.3628 2.33637 8.21158 70.6852
4942492 6.67668 9.22752 25.3671 29.3628 2.31704 8.2451 70.6341
4942510 6.6943 9.19989 25.3474 29.353 2.30584 8.24558 70.5946
4942532 6.65907 9.14464 25.3376 29.2751 2.28038 8.26703 70.4164
4942540 6.75596 9.09859 25.2884 29.1777 2.21554 8.23617 70.3206
4942553 6.75596 9.09859 25.2884 29.1777 2.21554 8.23617 70.3206
4942560 6.78238 9.13543 25.2391 29.012 2.18257 8.19451 70.169
4942570 6.84404 9.16306 25.2884 28.9146 2.11696 8.16034 70.2101
4942592 6.94093 9.28277 25.3179 28.7393 2.05006 8.07477 70.2809
4942600 6.94093 9.28277 25.3179 28.7393 2.05006 8.07477 70.2809
4942610 7.0114 9.39328 25.2884 28.6321 2.03541 8.00193 70.3251
4942622 7.12591 9.513 25.1801 28.408 1.99889 7.89209 70.227
4942642 7.3285 9.67877 25.0226 28.2132 1.97203 7.73639 70.243
4942660 7.46943 9.8169 24.8946 28.0573 1.96124 7.6167 70.2383
4942662 7.46943 9.8169 24.8946 28.0573 1.96124 7.6167 70.2383
4942673 7.72487 10.0287 24.5895 27.7358 1.94431 7.39989 70.0789
4942693 7.96269 10.2866 24.1957 27.3559 1.96417 7.15657 69.8008
4942702 8.33264 10.7378 23.7921 26.859 1.96211 6.79432 69.7216
4942712 8.33264 10.7378 23.7921 26.859 1.96211 6.79432 69.7216
4942722 8.79948 11.1983 23.4673 26.4304 1.91782 6.41671 69.8954
4942732 9.18705 11.493 23.2015 26.0504 1.84281 6.12852 69.9319
4942752 9.63627 11.935 22.8078 25.6413 1.83241 5.75785 70.0203
4942776 10.0326 12.331 22.4239 25.2029 1.81359 5.41427 69.9903
4942783 10.5435 12.773 22.0301 24.5599 1.70201 4.99383 69.9065
4942793 10.5435 12.773 22.0301 24.5599 1.70201 4.99383 69.9065
4942804 11.1249 13.2427 21.4395 23.8974 1.64112 4.51249 69.7045
4942813 11.6093 13.7124 20.8784 23.1862 1.58924 4.05187 69.3863
4942823 11.6093 13.7124 20.8784 23.1862 1.58924 4.05187 69.3863
4942833 12.0585 14.1912 20.3862 22.5238 1.54361 3.61342 69.1598
4942854 12.4021 14.5964 19.9531 21.91 1.50711 3.23794 68.8616
4942864 12.6927 15.0385 19.6578 21.4229 1.49351 2.91 68.8119
4942874 12.6927 15.0385 19.6578 21.4229 1.49351 2.91 68.8119
4942886 13.0803 15.37 19.2837 20.9748 1.4484 2.57788 68.7088
4942894 13.3534 15.7107 19.077 20.6241 1.41947 2.32028 68.7652
4942908 13.3534 15.7107 19.077 20.6241 1.41947 2.32028 68.7652
4942916 13.644 16.0146 18.8801 20.2052 1.34398 2.0569 68.744
4942924 13.8642 13.8044 18.7423 19.9811 0.443935 2.4976 66.3921
4942934 13.8642 16.162 18.7423 19.9811 1.286 1.89758 68.7496
4942946 14.1197 16.5119 18.6833 19.7083 1.23773 1.68638 69.0232
4942965 14.3927 16.7329 18.4864 19.3868 1.17416 1.46688 68.9989
4942978 14.5249 16.9355 18.3584 19.153 1.1618 1.31598 68.9718
4942985 14.5249 16.9355 18.3584 19.153 1.1618 1.31598 68.9718
4942995 14.8155 17.2334 18.2108 18.8997 1.12306 1.09779 69.1594
4943005 14.9124 17.4376 18.0533 18.5587 1.09867 0.927016 68.9621
4943017 14.9124 17.4376 18.0533 18.5587 1.09867 0.927016 68.9621
4943027 15.1943 17.7002 17.9056 18.3054 1.0512 0.719883 69.1056
4943037 15.1943 17.7002 17.9056 18.3054 1.0512 0.719883 69.1056
4943047 15.3705 17.9336 17.6595 17.9352 1.03009 0.498701 68.8989
4943057 15.5554 18.2059 17.5512 17.6625 1.00099 0.315835 68.9751
4943067 15.5554 18.2059 17.5512 17.6625 1.00099 0.315835 68.9751
4943077 15.8021 18.4102 17.315 17.3994 0.976595 0.109282 68.9267
4943088 15.8021 18.4102 17.1673 17.3994 1.03236 0.0773156 68.779
4943097 15.9254 18.595 17.1673 17.1851 0.975469 -0.036571 68.8728
4943107 16.0839 18.8186 16.9792 16.9524 0.983492 -0.211591 68.8342
4943119 16.0839 18.8186 16.9792 16.9524 0.983492 -0.211591 68.8342
4943129 16.2425 19.0326 16.792 16.6859 0.975943 -0.39209 68.753
4943137 16.4891 19.3633 16.5633 16.4479 1.00153 -0.618868 68.8636
4943151 16.4891 19.3633 16.5633 16.4479 1.00153 -0.618868 68.8636
4943157 16.815 19.655 16.2722 16.1433 0.983939 -0.882889 68.8856
4943167 16.815 19.655 16.2722 16.1433 0.983939 -0.882889 68.8856
4943177 17.01 19.9176 16.033 15.8578 0.992617 -1.09784 68.8184
4943188 17.1594 20.1802 15.7731 15.6103 1.03967 -1.30006 68.723
4943207 17.3687 20.4428 15.5235 15.3819 1.06684 -1.50751 68.7169
4943217 17.578 20.6276 15.326 15.1534 1.04719 -1.6873 68.6849
4943228 17.578 20.6276 15.326 15.1534 1.04719 -1.6873 68.6849
4943238 17.7274 20.8221 15.1388 14.8774 1.03302 -1.86681 68.5657
4943248 17.7274 20.8221 15.1388 14.8774 1.03302 -1.86681 68.5657
4943259 17.8968 21.0069 15.0141 14.7917 1.05068 -1.98617 68.7095
4943268 18.0862 21.2111 14.8269 14.5157 1.0248 -2.17541 68.6399
4943283 18.0862 21.2111 14.8269 14.5157 1.0248 -2.17541 68.6399
4943292 18.1559 21.357 14.6398 14.4015 1.08044 -2.29126 68.5541
4943302 18.3353 21.5126 14.5774 14.2872 1.05045 -2.39766 68.7125
4943308 18.3353 21.5126 14.5774 14.2872 1.05045 -2.39766 68.7125
4943318 18.3652 21.639 14.4526 14.2111 1.10398 -2.47725 68.6679
4943331 18.3652 21.639 14.4526 14.2111 1.10398 -2.47725 68.6679
4943338 18.3951 21.6293 14.3902 14.192 1.10633 -2.50167 68.6066
4943348 18.405 21.6876 14.3902 14.192 1.12284 -2.51411 68.6749
4943358 18.405 21.6876 14.3902 14.192 1.12284 -2.51411 68.6749
4943370 18.4349 21.6585 14.3902 14.154 1.08807 -2.52395 68.6376
4943379 18.3552 21.639 14.411 14.2587 1.14014 -2.47391 68.6639
4943399 18.3951 21.5709 14.515 14.3729 1.10153 -2.4134 68.8539
4943419 18.2157 21.464 14.5358 14.4871 1.16429 -2.32672 68.7026
4943440 18.126 21.2889 14.7021 14.5918 1.11069 -2.20953 68.7089
4943442 18.126 21.2889 14.7021 14.5918 1.11069 -2.20953 68.7089
4943449 17.9367 21.1041 14.8165 14.8108 1.15107 -2.05632 68.6681
4943464 17.7075 20.8804 15.0349 14.9916 1.14031 -1.87165 68.6144
4943479 17.4285 20.7054 15.2844 15.3057 1.1998 -1.64653 68.724
4943489 17.4285 20.7054 15.2844 15.3057 1.1998 -1.64653 68.724
4943499 17.0897 20.3747 15.5443 15.6769 1.24393 -1.36341 68.6857
4943514 16.9383 20.1608 15.8771 16.0862 1.2422 -1.11547 69.0624
4943521 16.9383 20.1608 15.8771 16.0862 1.2422 -1.11547 69.0624
4943537 16.6565 19.8495 16.2202 16.5622 1.27548 -0.806128 69.2884
4943541 16.3482 19.3827 16.4801 17.0097 1.28724 -0.485631 69.2208
4943550 16.3482 19.3827 16.4801 17.0097 1.28724 -0.485631 69.2208
4943563 16.0487 19.0326 16.7193 17.5261 1.36697 -0.180877 69.3267
4943586 15.6964 18.5366 16.9584 18.1009 1.43692 0.178869 69.2923
4943591 15.3528 17.9823 17.3347 18.7438 1.45453 0.59284 69.4136
4943602 15.3528 17.9823 17.3347 18.7438 1.45453 0.59284 69.4136
4943613 14.9653 17.389 17.6202 19.455 1.53342 1.01993 69.4295
4943622 14.6746 16.8527 18.0533 20.0785 1.50852 1.42218 69.659
4943633 14.6746 16.8527 18.0533 20.0785 1.50852 1.42218 69.659
4943643 14.3311 16.429 18.3781 20.5948 1.54686 1.76663 69.7331
4943656 13.9611 15.9225 18.703 21.1794 1.59025 2.14975 69.766
4943663 13.9611 15.9225 18.703 21.1794 1.59025 2.14975 69.766
4943673 13.6264 15.4621 19.1361 21.7639 1.59436 2.53144 69.9885
4943693 13.2124 15.0108 19.5298 22.251 1.61404 2.90502 70.0041
4943703 12.8513 14.5135 19.9236 22.6602 1.57217 3.26359 69.9486
4943714 12.8513 14.5135 19.9236 22.6602 1.57217 3.26359 69.9486
4943725 12.499 14.1083 20.3272 23.0791 1.55731 3.59907 70.0135
4943734 12.1731 13.7492 20.524 23.5564 1.64585 3.8909 70.0027
4943750 12.1731 13.7492 20.524 23.5564 1.64585 3.8909 70.0027
4943756 11.8471 13.4085 20.8587 24.0046 1.67829 4.19453 70.1189
4943766 11.486 12.994 21.2032 24.443 1.69258 4.52744 70.1263
4943786 11.0896 12.5796 21.6167 24.9496 1.71668 4.89004 70.2355
4943796 11.0896 12.5796 21.6167 24.9496 1.71668 4.89004 70.2355
4943806 10.7197 12.2297 21.8726 25.4659 1.81514 5.20484 70.2879
4943819 10.3585 11.9258 22.2467 25.914 1.85769 5.50991 70.445
4943826 10.3585 11.9258 22.2467 25.914 1.85769 5.50991 70.445
4943836 9.9886 11.6956 22.5617 26.1868 1.89263 5.76387 70.4326
4943848 9.9886 11.6956 22.5617 26.1868 1.89263 5.76387 70.4326
4943856 9.50414 11.4009 22.9653 26.4304 1.90675 6.07902 70.3006
4943866 9.10777 11.1983 23.4378 26.8298 1.94214 6.36814 70.5736
4943877 9.10777 11.1983 23.4378 26.8298 1.94214 6.36814 70.5736
4943889 8.58808 10.8575 23.861 27.1805 1.98225 6.72376 70.4872
4943897 8.22694 10.6826 24.2154 27.5117 2.03576 6.96897 70.6367
4943923 7.92746 10.4523 24.4812 27.804 2.06881 7.19707 70.665
4943936 7.59275 10.2405 24.6584 28.0865 2.1522 7.41978 70.5782
4943948 7.41658 9.99187 24.8552 28.3788 2.15835 7.60709 70.6425
4943961 7.41658 9.99187 24.8552 28.3788 2.15835 7.60709 70.6425
4943968 7.14352 9.76165 25.0324 28.5834 2.18696 7.80845 70.521
4943978 6.87927 9.54063 25.1702 28.8269 2.24308 8.00458 70.4171
4943998 6.68549 9.40249 25.249 29.2458 2.37801 8.16208 70.5828
4944008 6.50052 9.27356 25.249 29.4797 2.48349 8.28788 70.5027
4944032 6.32435 9.18147 25.3474 29.8401 2.59919 8.41983 70.6934
4944039 6.32435 9.18147 25.3474 29.8401 2.59919 8.41983 70.6934
4944049 6.1658 8.94204 25.3868 30.1713 2.67483 8.58623 70.666
4944059 6.0513 8.84995 25.4655 30.4441 2.74577 8.68689 70.8109
4944069 6.0513 8.84995 25.4655 30.4441 2.74577 8.68689 70.8109
4944079 5.98964 8.72102 25.5541 30.7169 2.78034 8.78263 70.9817
4944089 5.83109 8.6013 25.5246 30.8923 2.87154 8.88883 70.8493
4944099 5.83109 8.6013 25.5246 30.8923 2.87154 8.88883 70.8493
4944109 5.81347 8.45395 25.5541 31.1066 2.88776 8.9654 70.9282
4944120 5.81347 8.45395 25.5541 31.1066 2.88776 8.9654 70.9282
4944129 5.64611 8.31582 25.5345 31.2722 2.97005 9.0813 70.7686
4944142 5.61088 8.22373 25.4852 31.4573 3.03238 9.13599 70.7771
4944149 5.61088 8.22373 25.4852 31.4573 3.03238 9.13599 70.7771
4944159 5.54922 8.15926 25.5837 31.6619 3.06123 9.20393 70.9541
4944169 5.4171 8.02113 25.7805 31.886 3.06219 9.33024 71.1047
4944179 5.4171 8.02113 25.7805 31.886 3.06219 9.33024 71.1047
4944190 5.30259 7.87378 25.8987 32.1782 3.10538 9.45231 71.2533
4944199 5.30259 7.87378 25.8987 32.1782 3.10538 9.45231 71.2533
4944210 5.07358 7.75406 26.0562 32.3049 3.13575 9.59424 71.1887
4944219 4.96788 7.59751 26.1349 32.4023 3.12823 9.69834 71.1026
4944230 4.96788 7.59751 26.1349 32.4023 3.12823 9.69834 71.1026
4944239 4.77409 7.47779 26.3023 32.4413 3.11383 9.82281 70.9954
4944253 4.77409 7.47779 26.3023 32.4413 3.11383 9.82281 70.9954
4944262 4.61554 7.35807 26.509 32.6069 3.10891 9.9471 71.0895
4944269 4.43057 7.24756 26.7649 32.6946 3.07384 10.0751 71.1376
4944279 4.43057 7.24756 26.7649 32.6946 3.07384 10.0751 71.1376
4944289 4.2544 7.05417 26.9421 32.9089 3.07989 10.2324 71.1596
4944299 4.05181 6.84236 27.1488 33.0648 3.06102 10.4038 71.1077
4944309 4.05181 6.84236 27.1488 33.0648 3.06102 10.4038 71.1077
4944321 4.0342 6.75027 27.2177 33.2499 3.06946 10.4593 71.252
4944343 3.90207 6.68581 27.3162 33.2596 3.06588 10.5365 71.1636
4944349 3.85803 6.5753 27.4835 33.3473 3.0103 10.6079 71.2641
4944365 3.85803 6.5753 27.4835 33.3473 3.0103 10.6079 71.2641
4944370 3.81399 6.42795 27.6607 33.3181 2.90342 10.6858 71.2207
4944380 3.75233 6.31744 27.7296 33.4642 2.91162 10.7609 71.2635
4944392 3.75233 6.31744 27.7296 33.4642 2.91162 10.7609 71.2635
4944402 3.70829 6.20693 27.8083 33.5226 2.88188 10.8249 71.2462
4944412 3.68187 6.11484 27.8083 33.6006 2.88784 10.8725 71.2056
4944422 3.68187 6.11484 27.8083 33.6006 2.88784 10.8725 71.2056
4944433 3.73471 6.12405 27.8477 33.5616 2.84252 10.85 71.2681
4944442 3.73471 6.12405 27.8477 33.5616 2.84252 10.85 71.2681
4944455 3.73471 6.08722 27.7887 33.5032 2.83595 10.8565 71.1137
4944462 3.75233 6.07801 27.9265 33.5421 2.78452 10.8638 71.2989
4944476 3.75233 6.07801 27.9265 33.5421 2.78452 10.8638 71.2989
4944482 3.77876 6.10563 27.9855 33.4934 2.74467 10.8448 71.3633
4944492 3.75233 5.95829 28.0544 33.5519 2.70041 10.9152 71.3169
4944512 3.76995 5.93987 28.1135 33.4642 2.63742 10.9138 71.2875
4944533 3.73471 5.88462 28.084 33.2791 2.58692 10.9345 70.9824
4944543 3.83161 5.94908 28.2415 33.2596 2.50261 10.8837 71.2817
4944553 3.83161 5.94908 28.2415 33.2596 2.50261 10.8837 71.2817
4944565 3.83161 5.99512 28.3497 33.0842 2.41999 10.8631 71.2607
4944581 3.77876 5.93066 28.4679 33.0258 2.35588 10.9091 71.2031
4944593 3.76995 5.88462 28.5663 33.055 2.31614 10.9364 71.2759
4944604 3.76995 5.88462 28.5663 33.055 2.31614 10.9364 71.2759
4944614 3.81399 5.87541 28.6155 33.0648 2.28061 10.9271 71.3697
4944624 3.79637 5.87541 28.6254 33.0648 2.28358 10.9341 71.3619
4944634 3.79637 5.87541 28.6254 33.0648 2.28358 10.9341 71.3619
4944644 3.76114 5.84778 28.7238 32.9089 2.20086 10.9537 71.2416
4944655 3.85803 5.8662 28.7632 32.8017 2.12049 10.9078 71.2891
4944664 3.85803 5.8662 28.7632 32.8017 2.12049 10.9078 71.2891
4944678 3.87565 5.81094 28.7829 32.8212 2.09482 10.9238 71.2907
4944684 3.87565 5.81094 28.7829 32.8212 2.09482 10.9238 71.2907
4944694 3.86684 5.80173 28.7336 32.7238 2.08259 10.9219 71.126
4944704 3.84922 5.75569 28.8025 32.7335 2.05136 10.9496 71.141
4944714 3.84922 5.75569 28.8025 32.7335 2.05136 10.9496 71.141
4944724 3.87565 5.78332 28.7829 32.6848 2.042 10.926 71.1266
4944735 3.88446 5.78332 28.8321 32.5777 1.98531 10.9195 71.0775
4944755 3.95492 5.8662 28.8321 32.4802 1.95387 10.858 71.1334
4944770 3.95492 5.8662 28.8321 32.4802 1.95387 10.858 71.1334
4944775 3.99016 5.82015 28.7632 32.3731 1.9169 10.8517 70.9465
4944786 4.02539 5.79252 28.8616 32.4023 1.8668 10.8564 71.0818
4944797 4.02539 5.79252 28.8616 32.4023 1.8668 10.8564 71.0818
4944807 4.07824 5.81094 28.8518 32.2269 1.79936 10.8196 70.9679
4944817 4.13109 5.85699 28.7632 32.2269 1.82791 10.7784 70.9782
4944827 4.13109 5.85699 28.7632 32.2269 1.82791 10.7784 70.9782
4944840 4.17513 5.93987 28.7533 32.0224 1.77518 10.7195 70.8907
4944847 4.17513 5.93987 28.7533 32.0224 1.77518 10.7195 70.8907
4944857 4.30725 6.03196 28.5368 31.8372 1.77661 10.6136 70.7132
4944867 4.60674 6.19772 28.4482 31.6327 1.68422 10.4273 70.8853
4944887 4.76529 6.41874 28.2415 31.204 1.63388 10.2496 70.6295
4944898 5.08238 6.7779 27.8871 30.6779 1.59259 9.94772 70.4253
4944911 5.08238 6.7779 27.8871 30.6779 1.59259 9.94772 70.4253
4944918 5.5228 7.21073 27.513 30.1811 1.54626 9.57591 70.4276
4944928 5.8487 7.6896 27.0799 29.7817 1.61316 9.23083 70.3999
4944938 5.8487 7.6896 27.0799 29.7817 1.61316 9.23083 70.3999
4944948 6.17461 8.15005 26.7551 29.2361 1.58445 8.88843 70.3158
4944958 6.17461 8.15005 26.7551 29.2361 1.58445 8.88843 70.3158
4944968 6.59741 8.64735 26.3318 28.6613 1.5588 8.48866 70.2379
4944983 7.04663 9.15385 25.938 28.0281 1.49546 8.07342 70.1666
4944988 7.04663 9.15385 25.938 28.0281 1.49546 8.07342 70.1666
4944999 7.5399 9.66956 25.4262 27.4143 1.4696 7.62978 70.0499
4945009 8.0772 10.1392 24.8454 26.9272 1.48017 7.19174 69.989
4945019 8.0772 10.1392 24.8454 26.9272 1.48017 7.19174 69.989
4945029 8.68497 10.6918 24.3138 26.3135 1.43078 6.69616 70.004
4945050 9.1342 11.1706 23.7429 25.7192 1.43791 6.26886 69.7669
4945060 9.62746 11.6495 23.2409 25.1542 1.41209 5.83837 69.672
4945070 9.62746 11.6495 23.2409 25.1542 1.41209 5.83837 69.672
4945080 10.1472 12.1008 22.7389 24.4819 1.33035 5.39226 69.4687
4945091 10.6668 12.6809 22.2073 23.8 1.30012 4.90076 69.3551
4945119 11.2746 13.2059 21.6954 23.0888 1.19998 4.397 69.2647
4945132 11.7767 13.6755 21.2229 22.4848 1.14254 3.95942 69.1599
4945140 12.2523 14.0715 20.7701 22.0367 1.1159 3.57648 69.1306
4945153 12.2523 14.0715 20.7701 22.0367 1.1159 3.57648 69.1306
4945161 12.7544 14.6425 20.2976 21.5983 1.15045 3.13865 69.2928
4945181 13.186 15.0477 19.894 21.0527 1.09148 2.7565 69.1804
4945183 13.186 15.0477 19.894 21.0527 1.09148 2.7565 69.1804
4945190 13.6617 15.5081 19.4215 20.6143 1.09791 2.35517 69.2057
4945208 13.6617 15.5081 19.4215 20.6143 1.09791 2.35517 69.2057
4945217 14.058 15.8857 18.9195 20.098 1.0898 1.97367 68.9612
4945232 14.5073 16.3093 18.4765 19.5914 1.05863 1.57903 68.8845
4945233 14.5073 16.3093 18.4765 19.5914 1.05863 1.57903 68.8845
4945240 14.9741 16.6869 18.0139 19.2115 1.05622 1.21164 68.8863
4945254 15.2295 17.0097 17.6989 18.7438 1.02834 0.918034 68.682
4945262 15.2295 17.0097 17.6989 18.7438 1.02834 0.918034 68.682
4945276 15.6611 17.3209 17.3839 18.5003 1.00781 0.632118 68.8663
4945282 15.6611 17.3209 17.3839 18.5003 1.00781 0.632118 68.8663
4945292 15.8549 17.6127 17.1477 18.208 1.02369 0.411501 68.8233
4945302 16.0663 17.7975 16.9584 18.1398 1.05586 0.268503 68.962
4945312 16.0663 17.7975 16.9584 18.1398 1.05586 0.268503 68.962
4945322 16.2337 17.9725 16.7609 17.8768 1.03669 0.0940025 68.8439
4945332 16.2337 17.9725 16.7609 17.8768 1.03669 0.0940025 68.8439
4945345 16.3394 18.1865 16.5425 17.7404 1.10633 -0.0529674 68.8088
4945352 16.4275 18.2546 16.4593 17.6138 1.08412 -0.132853 68.7551
4945372 16.5684 18.381 16.2618 17.4968 1.10893 -0.259965 68.708
4945382 16.7093 18.4588 16.2202 17.4092 1.0678 -0.335502 68.7975
4945392 16.7093 18.4588 16.2202 17.4092 1.0678 -0.335502 68.7975
4945402 16.6653 18.5172 16.1682 17.3117 1.09063 -0.371932 68.6624
4945422 16.6124 18.4491 16.2202 17.4092 1.10118 -0.312742 68.6909
4945432 16.5684 18.4199 16.4385 17.5456 1.07237 -0.218394 68.9724
4945444 16.5684 18.4199 16.4385 17.5456 1.07237 -0.218394 68.9724
4945452 16.4539 18.3421 16.5425 17.6527 1.08653 -0.130617 68.9912
4945468 16.2865 18.2838 16.6465 17.8086 1.14427 -0.0250348 69.0254
4945472 16.2865 18.2838 16.6465 17.8086 1.14427 -0.0250348 69.0254
4945482 16.2249 18.2351 16.8648 17.9352 1.11199 0.0736535 69.2601
4945502 16.1016 18.0795 16.9376 17.945 1.08065 0.152364 69.0637
4945520 15.987 18.0795 17.0886 18.1106 1.1241 0.245279 69.2658
4945523 15.987 18.0795 17.0886 18.1106 1.1241 0.245279 69.2658
4945533 15.899 18.0212 17.187 18.1398 1.11015 0.304719 69.247
4945544 15.6788 17.7489 17.315 18.2665 1.09463 0.468171 69.0091
4945553 15.6788 17.7489 17.315 18.2665 1.09463 0.468171 69.0091
4945564 15.5731 17.603 17.502 18.4223 1.06737 0.596598 69.1004
4945573 15.5731 17.603 17.502 18.4223 1.06737 0.596598 69.1004
4945585 15.3617 17.3501 17.6398 18.7438 1.11891 0.797138 69.0954
4945593 15.3 17.1653 17.8859 18.9484 1.05622 0.945679 69.2997
4945613 15.1503 16.9447 18.0631 19.153 1.04038 1.10829 69.3111
4945623 14.8596 16.7145 18.2403 19.416 1.09441 1.31783 69.2305
4945644 14.7627 16.4198 18.4765 19.7473 1.05461 1.52176 69.4063
4945658 14.7627 16.4198 18.4765 19.7473 1.05461 1.52176 69.4063
4945663 14.5161 16.0699 18.7226 20.1662 1.07858 1.79264 69.4748
4945673 14.2166 15.6371 19.1361 20.6825 1.0646 2.1454 69.6722
4945683 14.2166 15.6371 19.1361 20.6825 1.0646 2.1454 69.6722
4945693 13.8731 15.1398 19.5003 21.1404 1.04331 2.50408 69.6535
4945707 13.4767 14.6241 19.8645 21.7736 1.09569 2.91174 69.7389
4945714 13.4767 14.6241 19.8645 21.7736 1.09569 2.91174 69.7389
4945724 13.0803 14.136 20.3862 22.4264 1.10519 3.34069 70.0289
4945737 13.0803 14.136 20.3862 22.4264 1.10519 3.34069 70.0289
4945744 12.5342 13.5466 20.9867 23.0791 1.10654 3.84587 70.1465
4945755 12.0762 13.0769 21.5182 23.6246 1.10503 4.26549 70.296
4945780 11.5565 12.7086 22.0006 24.0728 1.14599 4.65073 70.3384
4945784 10.9839 12.2481 22.5715 24.5501 1.15232 5.09346 70.3537
4945796 10.9839 12.2481 22.5715 24.5501 1.15232 5.09346 70.3537
4945805 10.4554 11.9258 23.1031 24.9983 1.19375 5.47372 70.4826
4945828 9.89171 11.5114 23.6445 25.4367 1.21015 5.89026 70.4842
4945844 9.36321 11.1062 24.2449 26.0602 1.25688 6.32341 70.7745
4945845 9.36321 11.1062 24.2449 26.0602 1.25688 6.32341 70.7745
4945860 8.83471 10.7378 24.5796 26.5862 1.38176 6.69933 70.7384
4945867 8.34145 10.3787 24.9438 27.1123 1.48556 7.06509 70.7763
4945887 7.95389 10.1024 25.2982 27.5994 1.56782 7.36563 70.9539
4945901 7.48705 10.1024 25.7018 28.067 1.74493 7.60516 71.3583
4945907 7.48705 9.77086 25.7018 28.067 1.63638 7.71068 71.0267
4945917 7.05544 9.45775 26.066 28.5152 1.706 8.03186 71.0944
4945927 7.05544 9.45775 26.066 28.5152 1.706 8.03186 71.0944
4945939 6.54456 9.12622 26.3023 29.012 1.86357 8.37715 70.9851
4945951 6.17461 8.86836 26.509 29.5479 2.0157 8.65273 71.0998
4945967 5.79586 8.58288 26.6369 29.9473 2.14808 8.92131 70.963
4945978 5.46995 8.27898 26.824 30.4052 2.25077 9.1888 70.9781
4945988 5.46995 8.27898 26.824 30.4052 2.25077 9.1888 70.9781
4946003 5.22332 8.00271 26.9027 30.8241 2.36098 9.40782 70.9528
4946008 5.22332 8.00271 26.9027 30.8241 2.36098 9.40782 70.9528
4946018 4.93264 7.65276 27.0701 31.204 2.41819 9.67168 70.8595
4946029 4.71244 7.45937 27.2669 31.6619 2.51119 9.86426 71.1006
4946038 4.71244 7.45937 27.2669 31.6619 2.51119 9.86426 71.1006
4946047 4.53627 7.2844 27.4244 32.0418 2.58306 10.0255 71.2869
4946058 4.53627 7.2844 27.4244 32.0418 2.58306 10.0255 71.2869
4946068 4.28964 7.07259 27.5032 32.5095 2.72828 10.2243 71.3749
4946080 4.11347 6.84236 27.5721 32.9089 2.82266 10.3991 71.4368
4946088 4.11347 6.84236 27.5721 32.9089 2.82266 10.3991 71.4368
4946098 3.96373 6.63055 27.5819 33.1232 2.87804 10.5423 71.2994
4946108 3.77876 6.45558 27.6804 33.4642 2.96328 10.6986 71.3789
4946118 3.77876 6.45558 27.6804 33.4642 2.96328 10.6986 71.3789
4946130 3.58497 6.33586 27.8379 33.6298 2.99166 10.8309 71.3885
4946138 3.58497 6.33586 27.8379 33.6298 2.99166 10.8309 71.3885
4946155 3.39119 6.07801 27.956 33.9026 3.02596 11.0173 71.3278
4946158 3.27668 5.9675 28.0347 34 3.03599 11.1093 71.2789
4946180 3.1886 5.90303 28.1824 34 2.99269 11.1732 71.274
4946188 3.03886 5.68201 28.271 34 2.94828 11.3147 70.9919
4946205 3.03886 5.68201 28.271 34 2.94828 11.3147 70.9919
4946209 2.96839 5.54388 28.4383 34 2.86719 11.4008 70.9506
4946219 2.96839 5.54388 28.4383 34 2.86719 11.4008 70.9506
4946229 2.7658 5.35049 28.5663 34 2.83605 11.5552 70.6826
4946239 2.73938 5.28602 28.6647 34 2.78748 11.5941 70.6901
4946253 2.73938 5.28602 28.6647 34 2.78748 11.5941 70.6901
4946260 2.61606 5.18472 28.7238 34 2.7809 11.6817 70.5246
4946276 2.57202 5.06501 28.7632 34 2.74495 11.7456 70.4002
4946281 2.57202 5.06501 28.7632 34 2.74495 11.7456 70.4002
4946291 2.57202 5.12026 28.7238 34 2.77793 11.7228 70.4161
4946310 2.51036 5.01896 28.7533 34 2.7586 11.7861 70.2827
4946322 2.46632 4.9545 28.7238 34 2.76728 11.8262 70.1446
4946332 2.46632 4.9545 28.7238 34 2.76728 11.8262 70.1446
4946345 2.48394 4.9545 28.6746 34 2.77979 11.8172 70.113
4946354 2.46632 4.93608 28.6844 34 2.77703 11.8315 70.0868
4946373 2.5544 4.94529 28.6057 34 2.77625 11.7907 70.1054
4946383 2.56321 4.9545 28.6155 34 2.77179 11.7842 70.1332
4946393 2.56321 4.9545 28.6155 34 2.77179 11.7842 70.1332
4946403 2.62487 5.07421 28.5565 34 2.80864 11.7124 70.2555
4946423 2.67772 5.12026 28.4383 34 2.84903 11.6693 70.2363
4946437 2.7658 5.13868 28.3104 34 2.87066 11.6227 70.2148
4946453 2.88912 5.17551 28.2021 34 2.87629 11.5568 70.2667
4946465 2.95078 5.33207 28.1529 34 2.92054 11.4722 70.4357
4946474 2.95078 5.33207 28.1529 34 2.92054 11.4722 70.4357
4946484 3.11813 5.461 28.0643 34 2.92971 11.3567 70.6434
4946505 3.11813 5.461 28.0643 34 2.92971 11.3567 70.6434
4946507 3.19741 5.5623 28.0347 34 2.94167 11.288 70.7944
4946514 3.30311 5.64518 27.9265 34 2.96848 11.2124 70.8747
4946530 3.30311 5.64518 27.9265 34 2.96848 11.2124 70.8747
4946534 3.4 5.72806 27.8871 33.9805 2.96549 11.1428 70.9957
4946544 3.60259 5.91224 27.7296 33.698 2.91718 10.9764 70.9424
4946554 3.60259 5.91224 27.7296 33.698 2.91718 10.9764 70.9424
4946567 3.83161 6.02275 27.6115 33.5324 2.85643 10.8361 70.9982
4946575 4.02539 6.1701 27.4933 33.3668 2.82108 10.6954 71.0556
4946599 4.18394 6.32665 27.3752 33.0842 2.76586 10.557 70.97
4946621 4.3601 6.43716 27.2374 32.7335 2.67535 10.4228 70.7682
4946627 4.59793 6.60293 27.0799 32.5387 2.63479 10.2552 70.8194
4946647 4.86218 6.82394 26.8929 32.149 2.55128 10.0432 70.728
4946657 5.10881 7.09101 26.7157 31.8567 2.51626 9.82856 70.7722
4946677 5.39948 7.24756 26.4893 31.5352 2.43876 9.63134 70.6716
4946689 5.39948 7.24756 26.4893 31.5352 2.43876 9.63134 70.6716
4946698 5.65492 7.52384 26.2924 31.1456 2.37977 9.40129 70.6167
4946711 5.89275 7.80932 26.1743 30.6585 2.26865 9.17221 70.5348
4946718 5.89275 7.80932 26.1743 30.6585 2.26865 9.17221 70.5348
4946733 6.20104 8.1961 25.879 30.0447 2.19024 8.85795 70.3208
4946738 6.44767 8.71181 25.6427 29.4699 2.16705 8.52824 70.2721
4946748 6.44767 8.71181 25.6427 29.4699 2.16705 8.52824 70.2721
4946758 6.75596 9.22752 25.3966 28.8562 2.11112 8.17298 70.2363
4946769 7.04663 9.66956 25.1702 28.2229 2.02384 7.84709 70.1094
4946783 7.04663 9.66956 25.1702 28.2229 2.02384 7.84709 70.1094
4946789 7.38135 10.2313 24.9045 27.6676 1.99941 7.47159 70.1847
4946799 7.38135 10.2313 24.9045 27.6676 1.99941 7.47159 70.1847
4946809 7.71606 10.7378 24.5993 27.0149 1.94002 7.09888 70.0681
4946819 8.03316 11.2167 24.3631 26.3817 1.85805 6.74943 69.9946
4946840 8.35026 11.7416 24.0874 25.7289 1.79981 6.3779 69.9082
4946850 8.73782 12.2481 23.7232 24.9106 1.6869 5.95691 69.6198
4946875 9.17824 12.7638 23.2901 24.2189 1.62503 5.52194 69.4511
4946882 9.17824 12.7638 23.2901 24.2189 1.62503 5.52194 69.4511
4946891 9.61865 13.2979 22.8767 23.5175 1.55824 5.08093 69.3107
4946903 10.0591 13.74 22.6306 23.0109 1.46212 4.71823 69.4405
4946912 10.0591 13.74 22.6306 23.0109 1.46212 4.71823 69.4405
4946931 10.5699 14.1728 22.2762 22.592 1.40733 4.3367 69.6109
4946934 10.9487 14.4675 21.9415 22.1633 1.34513 4.0323 69.521
4946942 10.9487 14.4675 21.9415 22.1633 1.34513 4.0323 69.521
4946958 11.3979 14.8819 21.6068 21.8711 1.3433 3.6981 69.7577
4946962 11.3979 14.8819 21.6068 21.8711 1.3433 3.6981 69.7577
4946973 11.7767 15.1306 21.1836 21.4814 1.31219 3.39741 69.5722
4946986 12.2699 15.5542 20.8193 20.9748 1.23519 3.00999 69.6182
4946993 12.2699 15.5542 20.8193 20.9748 1.23519 3.00999 69.6182
4947003 12.587 15.7936 20.4453 20.439 1.15507 2.70778 69.2649
4947014 13.0098 16.033 20.209 20.0201 1.02286 2.42224 69.272
4947024 13.0098 16.033 20.209 20.0201 1.02286 2.42224 69.272
4947034 13.2124 16.1712 20.0023 19.7278 0.970945 2.24554 69.1137
4947044 13.4415 16.3462 19.7661 19.5817 0.983685 2.07422 69.1353
4947054 13.4415 16.3462 19.7661 19.5817 0.983685 2.07422 69.1353
4947064 13.6 16.429 19.7759 19.416 0.891772 1.98558 69.221
4947074 13.6 16.429 19.7759 19.416 0.891772 1.98558 69.221
4947085 13.785 16.6593 19.6283 19.1335 0.859591 1.80278 69.206
4947095 14.0404 16.9908 19.4806 18.8802 0.846639 1.58439 69.392
4947106 14.0404 16.9908 19.4806 18.8802 0.846639 1.58439 69.392
4947115 14.243 17.1653 19.205 18.5198 0.80899 1.37049 69.1331
4947125 14.4896 17.3987 18.9097 18.247 0.813389 1.14453 69.045
4947140 14.4896 17.3987 18.9097 18.247 0.813389 1.14453 69.045
4947144 14.6394 17.5933 18.6636 18.0327 0.842521 0.971353 68.9289
4947165 14.7979 17.7878 18.388 17.8963 0.906834 0.805551 68.8699
4947176 14.8684 17.9823 18.2305 17.7599 0.959927 0.684115 68.841
4947196 14.9829 18.2838 18.1517 17.5943 0.993806 0.538884 69.0126
4947205 15.0974 18.4296 17.9056 17.5456 1.07721 0.418423 68.9782
4947226 15.256 18.6436 17.6694 17.4481 1.14696 0.264707 69.0171
4947246 15.256 18.6436 17.6694 17.4481 1.14696 0.264707 69.0171
4947248 15.3176 18.8867 17.4528 17.2728 1.22918 0.113429 68.9299
4947257 15.4497 18.9645 17.3544 17.1364 1.19614 0.0166494 68.905
4947274 15.4497 18.9645 17.3544 17.1364 1.19614 0.0166494 68.905
4947277 15.5114 19.1396 17.1772 16.9714 1.24363 -0.109526 68.7996
4947289 15.4762 19.1396 17.1772 17.0097 1.27029 -0.0934902 68.8027
4947301 15.4762 19.1396 17.1772 17.0097 1.27029 -0.0934902 68.8027
4947307 15.4762 19.1299 17.1083 16.9143 1.26031 -0.127517 68.6286
4947327 15.485 19.266 17.1575 16.9048 1.28186 -0.150118 68.8133
4947337 15.6347 19.373 17.1575 16.8477 1.24197 -0.217896 69.0129
4947349 15.6347 19.373 17.1575 16.8477 1.24197 -0.217896 69.0129
4947358 15.6876 19.373 17.1575 16.8096 1.20878 -0.237607 69.0277
4947373 15.6523 19.3438 17.128 16.8096 1.22333 -0.230342 68.9338
4947378 15.6523 19.3438 17.128 16.8096 1.22333 -0.230342 68.9338
4947388 15.6876 19.3438 17.2264 16.762 1.15615 -0.226662 69.0198
4947399 15.6259 19.3146 17.2362 16.7716 1.16901 -0.202923 68.9484
4947409 15.6259 19.3146 17.2362 16.7716 1.16901 -0.202923 68.9484
4947423 15.6523 19.266 17.3937 16.7525 1.07597 -0.167688 69.0646
4947429 15.6523 19.266 17.3937 16.7525 1.07597 -0.167688 69.0646
4947439 15.5907 19.1688 17.5316 16.743 1.0102 -0.105356 69.034
4947449 15.5907 19.1299 17.6202 16.7335 0.960025 -0.0796759 69.0742
4947459 15.5907 19.1299 17.6202 16.7335 0.960025 -0.0796759 69.0742
4947473 15.5114 18.984 17.7875 16.8096 0.902674 0.0220871 69.0925
4947481 15.3969 18.8089 18.1123 16.9619 0.816119 0.188028 69.2801
4947497 15.3969 18.8089 18.1123 16.9619 0.816119 0.188028 69.2801
4947503 15.344 18.7603 18.2698 16.981 0.766847 0.247952 69.3551
4947512 15.344 18.7603 18.2698 16.981 0.766847 0.247952 69.3551
4947522 15.1679 18.6047 18.4175 17.0682 0.753525 0.371025 69.2583
4947532 15.1503 18.4394 18.6045 17.1364 0.656626 0.46544 69.3305
4947546 15.1503 18.4394 18.6045 17.1364 0.656626 0.46544 69.3305
4947552 15.0446 18.3907 18.7226 17.1072 0.624666 0.518555 69.2651
4947562 15.1326 18.3324 18.7128 17.1754 0.599211 0.524084 69.3532
4947572 15.1326 18.3324 18.7128 17.1754 0.599211 0.524084 69.3532
4947583 15.0886 18.2935 18.7719 17.1364 0.566241 0.546867 69.2903
4947596 15.0886 18.2935 18.7719 17.1364 0.566241 0.546867 69.2903
4947603 15.0886 18.099 18.8211 17.1851 0.496572 0.611023 69.1938
4947619 14.9389 18.0114 18.89 17.2728 0.526446 0.697217 69.1131
4947623 14.9389 18.0114 18.89 17.2728 0.526446 0.697217 69.1131
4947633 14.8684 17.8558 18.9392 17.4384 0.537843 0.79304 69.1018
4947643 14.7363 17.7391 19.1459 17.565 0.513825 0.918295 69.1864
4947666 14.657 17.5641 19.2542 17.8086 0.527352 1.04824 69.2839
4947674 14.428 17.2529 19.4019 18.0424 0.529993 1.25065 69.1251
4947690 14.428 17.2529 19.4019 18.0424 0.529993 1.25065 69.1251
4947694 14.2782 17 19.6972 18.4711 0.538421 1.48819 69.4465
4947704 14.2782 17 19.6972 18.4711 0.538421 1.48819 69.4465
4947715 13.9523 16.604 19.9826 18.9095 0.568229 1.80042 69.4484
4947726 13.5295 16.3001 20.4453 19.4745 0.645092 2.16994 69.7494
4947739 13.5295 16.3001 20.4453 19.4745 0.645092 2.16994 69.7494
4947745 13.1508 15.766 20.9079 20.0688 0.635263 2.58821 69.8935
4947755 12.6487 15.1213 21.4592 20.8774 0.674269 3.11664 70.1066
4947765 12.6487 15.1213 21.4592 20.8774 0.674269 3.11664 70.1066
4947787 12.1378 14.4767 21.9612 21.7152 0.744358 3.64098 70.2909
4947789 12.1378 14.4767 21.9612 21.7152 0.744358 3.64098 70.2909
4947796 11.6181 13.6755 22.4829 22.592 0.769675 4.21664 70.3685
4947812 11.2306 13.344 22.7881 23.0693 0.850001 4.53264 70.432
4947818 11.2306 13.344 22.7881 23.0693 0.850001 4.53264 70.432
4947824 10.9663 13.1138 22.8373 23.2252 0.903645 4.70094 70.1426
4947836 10.7549 12.8191 23.044 23.5077 0.901195 4.91498 70.1257
4947846 10.7549 12.8191 23.044 23.5077 0.901195 4.91498 70.1257
4947860 10.4466 12.5796 23.2606 23.8097 0.956601 5.1452 70.0966
4947866 10.4466 12.5796 23.2606 23.8097 0.956601 5.1452 70.0966
4947876 10.1295 12.3402 23.3492 24.2092 1.09623 5.37398 70.0281
4947885 9.92694 12.1008 23.5657 24.5599 1.12895 5.58019 70.1533
4947896 9.92694 12.1008 23.5657 24.5599 1.12895 5.58019 70.1533
4947909 9.69793 11.9258 23.7429 24.8911 1.20132 5.76669 70.2577
4947916 9.69793 11.9258 23.7429 24.8911 1.20132 5.76669 70.2577
4947926 9.36321 11.6403 23.9595 25.3003 1.28727 6.03222 70.2633
4947936 9.04611 11.4009 24.2745 25.6997 1.34193 6.28942 70.4212
4947946 9.04611 11.4009 24.2745 25.6997 1.34193 6.28942 70.4212
4947956 8.86114 11.1246 24.5402 26.0212 1.32692 6.50112 70.5472
4947966 8.56166 10.8944 24.7568 26.4986 1.44053 6.74559 70.7114
4947977 8.56166 10.8944 24.7568 26.4986 1.44053 6.74559 70.7114
4947986 8.26218 10.6089 24.9832 26.8785 1.49931 6.99619 70.7328
4948001 8.26218 10.6089 24.9832 26.8785 1.49931 6.99619 70.7328
4948006 7.90104 10.1024 25.1407 27.4143 1.58555 7.34531 70.5585
4948016 7.67202 9.84453 25.4262 27.8235 1.61441 7.57419 70.7662
4948025 7.67202 9.84453 25.4262 27.8235 1.61441 7.57419 70.7662
4948037 7.46943 9.64193 25.3671 27.9794 1.69774 7.71421 70.4578
4948047 7.31969 9.7156 25.3868 27.9989 1.77787 7.7428 70.4209
4948056 7.31969 9.7156 25.3868 27.9989 1.77787 7.7428 70.4209
4948071 7.30207 9.79848 25.2096 28.0086 1.88264 7.70441 70.3188
4948087 7.2228 9.78006 25.2096 28.0865 1.93252 7.74405 70.299
4948097 7.21399 9.76165 25.1998 28.145 1.9528 7.75787 70.3204
4948122 7.16114 9.76165 25.0718 28.3203 2.07959 7.77986 70.3149
4948127 7.14352 9.65114 25.1309 28.4762 2.07842 7.84336 70.4017
4948137 7.14352 9.65114 25.1309 28.4762 2.07842 7.84336 70.4017
4948148 7.05544 9.65114 25.1801 28.6711 2.15663 7.89663 70.5577
4948158 7.05544 9.65114 25.1801 28.6711 2.15663 7.89663 70.5577
4948174 7.02021 9.60509 25.2588 28.7685 2.15651 7.94068 70.6526
4948178 6.94093 9.56826 25.2687 28.9633 2.23419 7.99876 70.7412
4948188 6.94093 9.56826 25.2687 28.9633 2.23419 7.99876 70.7412
4948200 6.87047 9.52221 25.3277 28.9049 2.2049 8.03677 70.6253
4948208 6.86166 9.4117 25.4163 29.1289 2.2108 8.10632 70.8186
4948218 6.86166 9.4117 25.4163 29.1289 2.2108 8.10632 70.8186
4948228 6.71192 9.30119 25.4852 29.3725 2.28463 8.22157 70.8708
4948238 6.71192 9.30119 25.4852 29.3725 2.28463 8.22157 70.8708
4948249 6.67668 9.16306 25.5443 29.5868 2.29985 8.3044 70.9709
4948258 6.60622 9.12622 25.564 29.6063 2.31385 8.34337 70.9027
4948270 6.60622 9.12622 25.564 29.6063 2.31385 8.34337 70.9027
4948278 6.49171 9.06176 25.6034 29.655 2.33778 8.41065 70.8118
4948293 6.3772 8.97887 25.6132 29.7719 2.38913 8.48778 70.7412
4948309 6.39482 8.93283 25.5837 29.8791 2.41326 8.50435 70.7904
4948319 6.39482 8.93283 25.5837 29.8791 2.41326 8.50435 70.7904
4948329 6.2715 8.8039 25.5837 29.8499 2.41054 8.58575 70.5089
4948341 6.28031 8.8039 25.6427 29.9862 2.4278 8.60054 70.7132
4948351 6.28031 8.8039 25.6427 29.9862 2.4278 8.60054 70.7132
4948365 6.28912 8.71181 25.6034 30.0252 2.42269 8.62833 70.6295
4948369 6.22746 8.7026 25.6723 30.0447 2.42316 8.66 70.647
4948379 6.22746 8.7026 25.6723 30.0447 2.42316 8.66 70.647
4948391 6.23627 8.74865 25.6132 30.1226 2.48223 8.64334 70.7207
4948416 6.22746 8.68418 25.6329 30.0544 2.43568 8.66352 70.599
4948422 6.22746 8.64735 25.623 30.1324 2.45264 8.68197 70.6302
4948430 6.22746 8.64735 25.623 30.1324 2.45264 8.68197 70.6302
4948442 6.28912 8.63814 25.5837 30.0837 2.42548 8.65649 70.5946
4948450 6.29793 8.68418 25.6329 29.9375 2.37089 8.62938 70.5525
4948468 6.29793 8.68418 25.6329 29.9375 2.37089 8.62938 70.5525
4948471 6.35078 8.76706 25.623 29.8693 2.35893 8.57692 70.6102
4948481 6.35078 8.76706 25.623 29.8693 2.35893 8.57692 70.6102
4948493 6.38601 8.78548 25.5246 29.6842 2.32988 8.53307 70.3803
4948500 6.54456 8.92362 25.4655 29.5576 2.295 8.41699 70.4913
4948517 6.54456 8.92362 25.4655 29.5576 2.295 8.41699 70.4913
4948521 6.60622 9.01571 25.2884 29.4602 2.33809 8.34014 70.3705
4948532 6.71192 9.15385 25.1899 29.2653 2.31699 8.23143 70.321
4948542 6.71192 9.15385 25.1899 29.2653 2.31699 8.23143 70.321
4948555 6.86166 9.3104 25.0816 29.0705 2.28854 8.10107 70.3242
4948570 6.86166 9.3104 25.0816 29.0705 2.28854 8.10107 70.3242
4948572 6.87927 9.4117 25.0127 28.9244 2.29397 8.04083 70.2281
4948582 7.02021 9.60509 25.0423 28.7685 2.24001 7.91898 70.4361
4948595 7.02021 9.60509 25.0423 28.7685 2.24001 7.91898 70.4361
4948602 7.10829 9.75244 24.9143 28.4762 2.20852 7.79982 70.2513
4948620 7.15233 10.0195 24.8749 28.2327 2.21434 7.6699 70.2794
4948633 7.41658 10.351 24.6288 27.7943 2.17261 7.406 70.1907
4948644 7.63679 10.351 24.3926 27.3948 2.04818 7.2661 69.7752
4948653 7.63679 10.6181 24.3926 27.3948 2.13569 7.18121 70.0423
4948670 7.94508 11.0049 24.176 26.9954 2.09607 6.89265 70.1214
4948673 7.94508 11.0049 24.176 26.9954 2.09607 6.89265 70.1214
4948683 8.24456 11.3548 23.861 26.4109 2.02519 6.58479 69.8713
4948694 8.52642 11.8889 23.5362 25.8653 2.03807 6.22761 69.8169
4948720 8.89637 12.4323 23.1917 25.2808 2.01467 5.8331 69.8011
4948724 9.29275 12.948 22.7782 24.6573 1.98573 5.42397 69.6763
4948734 9.29275 12.948 22.7782 24.6573 1.98573 5.42397 69.6763
4948744 9.70674 13.5834 22.3353 24.0143 1.99446 4.96687 69.6397
4948754 9.70674 13.5834 22.3353 24.0143 1.99446 4.96687 69.6397
4948769 10.156 14.0531 21.912 23.3811 1.93024 4.55037 69.5021
4948774 10.5611 14.6333 21.4395 22.7186 1.929 4.10159 69.3525
4948784 10.5611 14.6333 21.4395 22.7186 1.929 4.10159 69.3525
4948796 11.028 15.1582 21.0162 22.0854 1.87601 3.662 69.2878
4948806 11.3803 15.6371 20.6028 21.5009 1.86442 3.27388 69.121
4948822 11.3803 15.6371 20.6028 21.5009 1.86442 3.27388 69.121
4948826 11.7591 16.0607 20.2386 21.0722 1.85708 2.92729 69.1305
4948847 12.2171 16.5211 19.894 20.4779 1.76817 2.52504 69.1102
4948855 12.5078 16.9171 19.52 20.098 1.8059 2.21451 69.0429
4948872 12.5078 16.9171 19.52 20.098 1.8059 2.21451 69.0429
4948877 12.8249 17.3112 19.2247 19.7278 1.80546 1.91415 69.0885
4948886 13.1772 17.6322 18.9786 19.3284 1.73792 1.62717 69.1163
4948898 13.1772 17.6322 18.9786 19.3284 1.73792 1.62717 69.1163
4948906 13.4679 17.9142 18.7325 18.8997 1.67123 1.35844 69.0143
4948922 13.4679 17.9142 18.7325 18.8997 1.67123 1.35844 69.0143
4948926 13.829 18.167 18.3781 18.51 1.62227 1.06528 68.8842
4948936 14.0933 18.4296 18.1911 18.2567 1.59561 0.853604 68.9707
4948956 14.3839 18.6533 17.9253 17.9255 1.54946 0.612636 68.8881
4948965 14.5865 18.8867 17.7678 17.7501 1.55184 0.444553 68.9912
4948987 14.7803 19.0812 17.5906 17.4968 1.52546 0.266703 68.949
4949002 14.7803 19.0812 17.5906 17.4968 1.52546 0.266703 68.949
4949007 15.0446 19.2271 17.3741 17.2825 1.4838 0.0837618 68.9283
4949017 15.2207 19.48 17.2559 17.0974 1.48461 -0.0754523 69.0541
4949044 15.4057 19.6745 17.0689 16.9143 1.48929 -0.238248 69.0634
4949052 15.5731 19.8787 16.9584 16.7144 1.46897 -0.386025 69.1246
4949060 15.5731 19.8787 16.9584 16.7144 1.46897 -0.386025 69.1246
4949067 15.6876 20.0441 16.7713 16.5431 1.49478 -0.525138 69.046
4949078 15.6876 20.0441 16.7713 16.5431 1.49478 -0.525138 69.046
4949089 15.8373 20.1608 16.5841 16.3813 1.49378 -0.659625 68.9635
4949098 15.9782 20.3261 16.4073 16.1148 1.47302 -0.824291 68.8264
4949108 15.9782 20.3261 16.4073 16.1148 1.47302 -0.824291 68.8264
4949119 16.1016 20.4233 16.1786 15.9054 1.47524 -0.970922 68.6089
4949131 16.2601 20.5595 16.0642 15.8007 1.46898 -1.08206 68.6845
4949139 16.2601 20.5595 16.0642 15.8007 1.46898 -1.08206 68.6845
4949157 16.3394 20.7443 15.9083 15.7055 1.52922 -1.19435 68.6974
4949159 16.4891 20.7443 15.8355 15.5722 1.45391 -1.27308 68.6411
4949169 16.4891 20.8221 15.8355 15.5722 1.48057 -1.28862 68.7189
4949183 16.6565 21.0263 15.7003 15.5151 1.51842 -1.40803 68.8982
4949191 16.6565 21.0263 15.7003 15.5151 1.51842 -1.40803 68.8982
4949208 16.7181 21.1333 15.5755 15.3057 1.50778 -1.52115 68.7327
4949210 16.8591 21.2986 15.4716 15.1058 1.48171 -1.65425 68.7351
4949221 16.8591 21.2986 15.4716 15.1058 1.48171 -1.65425 68.7351
4949233 16.9648 21.3667 15.3468 15.0582 1.49606 -1.72975 68.7365
4949241 17.0299 21.4445 15.222 14.9345 1.50336 -1.81796 68.6309
4949261 17.1694 21.464 15.2636 14.8108 1.39784 -1.86857 68.7077
4949271 17.1694 21.464 15.2636 14.8108 1.39784 -1.86857 68.7077
4949282 17.1794 21.5223 15.2012 14.7822 1.42823 -1.90396 68.6851
4949292 17.3189 21.639 15.2324 14.7346 1.38641 -1.95667 68.9249
4949312 17.4285 21.6974 15.0765 14.6489 1.39481 -2.048 68.8512
4949327 17.4484 21.746 15.0037 14.6585 1.435 -2.07655 68.8565
4949332 17.4484 21.746 15.0037 14.6585 1.435 -2.07655 68.8565
4949342 17.5281 21.6876 14.9621 14.6109 1.38406 -2.10271 68.7887
4949352 17.5281 21.6876 14.9621 14.6109 1.38406 -2.10271 68.7887
4949362 17.5082 21.7557 14.8165 14.5823 1.46124 -2.15512 68.6627
4949375 17.5979 21.8238 14.7957 14.5633 1.45152 -2.19452 68.7807
4949382 17.5979 21.8238 14.7957 14.5633 1.45152 -2.19452 68.7807
4949398 17.558 21.8238 14.8685 14.6109 1.45515 -2.15705 68.8612
4949404 17.5082 21.6779 14.8789 14.6775 1.44317 -2.10126 68.7425
4949413 17.5082 21.6779 14.8789 14.6775 1.44317 -2.10126 68.7425
4949423 17.4883 21.5904 14.9309 14.7727 1.43348 -2.04452 68.7822
4949433 17.4883 21.5904 14.9309 14.7727 1.43348 -2.04452 68.7822
4949447 17.4385 21.532 15.0453 14.8774 1.42456 -1.96998 68.8931
4949453 17.4484 21.4445 15.0453 14.9726 1.42336 -1.93187 68.9108
4949473 17.3687 21.357 15.0661 15.0202 1.43231 -1.88328 68.8119
4949483 17.1794 21.1819 15.17 15.2105 1.47038 -1.74146 68.7418
4949496 17.1794 21.1819 15.17 15.2105 1.47038 -1.74146 68.7418
4949506 17.1495 21.0069 15.2844 15.2962 1.40724 -1.6532 68.7369
4949520 17.1495 21.0069 15.2844 15.2962 1.40724 -1.6532 68.7369
4949524 16.9736 20.7929 15.5028 15.5437 1.40244 -1.46485 68.8129
4949534 16.8855 20.6665 15.5859 15.696 1.41319 -1.36635 68.8339
4949544 16.8855 20.6665 15.5859 15.696 1.41319 -1.36635 68.8339
4949554 16.7181 20.4136 15.8043 15.8673 1.36567 -1.19039 68.8033
4949568 16.6212 20.2288 16.0746 16.1148 1.32089 -1.01261 69.0395
4949574 16.6212 20.2288 16.0746 16.1148 1.32089 -1.01261 69.0395
4949584 16.3922 20.0343 16.293 16.3623 1.34311 -0.818884 69.0818
4949606 16.172 19.7523 16.5841 16.6383 1.31404 -0.586126 69.1467
4949615 15.987 19.4994 16.8648 16.9524 1.29862 -0.361287 69.3037
4949626 15.987 19.4994 16.8648 16.9524 1.29862 -0.361287 69.3037
4949640 15.7404 19.2174 17.0886 17.2241 1.30375 -0.139702 69.2705
4949646 15.4145 18.877 17.3839 17.604 1.32889 0.150781 69.2794
4949665 15.0974 18.5658 17.7875 18.0327 1.33613 0.465644 69.4834
4949694 14.6482 18.1379 18.132 18.4808 1.38275 0.827122 69.3989
4949695 14.243 17.7878 18.6045 18.9484 1.39712 1.1904 69.5837
4949706 14.243 17.7878 18.6045 18.9484 1.39712 1.1904 69.5837
4949717 13.7938 17.3696 19.0869 19.455 1.41451 1.5878 69.7052
4949726 13.3358 16.7606 19.5987 19.9616 1.35942 2.038 69.6566
4949737 13.3358 16.7606 19.5987 19.9616 1.35942 2.038 69.6566
4949747 12.8601 16.2264 20.0318 20.6241 1.41899 2.48831 69.7425
4949761 12.8601 16.2264 20.0318 20.6241 1.41899 2.48831 69.7425
4949767 12.3668 15.6555 20.5339 21.3255 1.4597 2.97011 69.8817
4949777 11.9617 15.0753 21.1048 22.0269 1.43788 3.44059 70.1687
4949787 11.9617 15.0753 21.1048 22.0269 1.43788 3.44059 70.1687
4949797 11.5301 14.5135 21.5773 22.6991 1.45952 3.88926 70.32
4949808 11.072 13.9518 22.099 23.3032 1.44971 4.34038 70.426
4949818 11.072 13.9518 22.099 23.3032 1.44971 4.34038 70.426
4949833 10.6756 13.5834 22.4731 23.6539 1.45219 4.66027 70.386
4949838 10.6756 13.5834 22.4731 23.6539 1.45219 4.66027 70.386
4949848 10.3409 13.2427 22.8668 24.0143 1.43662 4.9594 70.4648
4949858 10.0591 13.0585 23.1129 24.1897 1.44711 5.15158 70.4202
4949868 10.0591 13.0585 23.1129 24.1897 1.44711 5.15158 70.4202
4949883 9.68912 12.7638 23.2606 24.3845 1.49742 5.39077 70.098
4949888 9.40725 12.5888 23.5854 24.6378 1.50742 5.60255 70.2193
4949898 9.40725 12.5888 23.5854 24.6378 1.50742 5.60255 70.2193
4949908 9.15181 12.3494 23.802 24.8814 1.52348 5.80943 70.1846
4949919 9.15181 12.3494 23.802 24.8814 1.52348 5.80943 70.1846
4949930 8.90518 12.1192 23.9792 25.1054 1.54769 6.00357 70.109
4949938 8.70259 11.9258 24.2056 25.4562 1.59119 6.19575 70.2901
4949958 8.50881 11.7508 24.432 25.651 1.58547 6.35959 70.3426
4949968 8.30622 11.4745 24.4517 26.0017 1.67952 6.55079 70.2341
4949979 8.30622 11.4745 24.4517 26.0017 1.67952 6.55079 70.2341
4949989 8.20052 11.2719 24.5796 26.3622 1.72336 6.70375 70.4143
4950001 8.20052 11.2719 24.5796 26.3622 1.72336 6.70375 70.4143
4950009 7.99793 11.0233 24.5304 26.7713 1.87219 6.88549 70.323
4950023 7.8658 10.7839 24.5796 27.2097 1.96914 7.0571 70.439
4950029 7.8658 10.7839 24.5796 27.2097 1.96914 7.0571 70.439
4950039 7.7513 10.6457 24.5402 27.3851 2.04035 7.15171 70.3224
4950049 7.61917 10.5444 24.5993 27.6092 2.10848 7.25676 70.3721
4950059 7.61917 10.5444 24.5993 27.6092 2.10848 7.25676 70.3721
4950069 7.56632 10.4339 24.6387 27.9209 2.17894 7.34682 70.5598
4950079 7.56632 10.4339 24.6387 27.9209 2.17894 7.34682 70.5598
4950090 7.4342 10.2866 24.619 28.184 2.27489 7.46179 70.5237
4950099 7.31969 10.1853 24.5993 28.5542 2.41317 7.56778 70.6584
4950122 7.25803 10.0655 24.5993 28.7977 2.47662 7.65126 70.7206
4950129 7.09067 9.94583 24.5402 29.0802 2.61656 7.76653 70.657
4950146 7.09067 9.94583 24.5402 29.0802 2.61656 7.76653 70.657
4950151 7.02021 9.85374 24.5206 29.2069 2.66278 7.82991 70.6014
4950159 7.02021 9.85374 24.5206 29.2069 2.66278 7.82991 70.6014
4950175 6.92332 9.72481 24.4812 29.4894 2.76474 7.9276 70.6187
4950179 6.89689 9.68797 24.4615 29.5479 2.78969 7.95203 70.5942
4950189 6.89689 9.68797 24.4615 29.5479 2.78969 7.95203 70.5942
4950203 6.80881 9.6143 24.5009 29.7135 2.83776 8.02504 70.6374
4950209 6.76477 9.48537 24.5009 29.8109 2.84524 8.09111 70.5619
4950229 6.76477 9.48537 24.5009 29.8109 2.84524 8.09111 70.5619
4950232 6.74715 9.43933 24.5501 29.9862 2.87331 8.13384 70.7228
4950239 6.74715 9.43933 24.5501 29.9862 2.87331 8.13384 70.7228
4950255 6.76477 9.27356 24.5009 30.0739 2.86131 8.18611 70.6131
4950260 6.6943 9.25515 24.5599 30.1616 2.88751 8.22942 70.671
4950280 6.70311 9.19989 24.5796 30.1519 2.85591 8.24565 70.6345
4950291 6.65907 9.16306 24.6682 30.2785 2.86648 8.29276 70.7688
4950305 6.65907 9.16306 24.6682 30.2785 2.86648 8.29276 70.7688
4950310 6.63264 9.02492 24.7174 30.2493 2.80503 8.34893 70.6243
4950320 6.63264 9.02492 24.7174 30.2493 2.80503 8.34893 70.6243
4950339 6.57098 9.01571 24.7568 30.2395 2.80785 8.37517 70.583
4950343 6.51813 8.93283 24.8848 30.3564 2.78898 8.443 70.6922
4950355 6.51813 8.93283 24.8848 30.3564 2.78898 8.443 70.6922
4950360 6.4829 8.85915 24.9832 30.3759 2.74712 8.49004 70.7012
4950378 6.4829 8.77627 25.0521 30.4246 2.70934 8.52839 70.7359
4950382 6.4829 8.77627 25.0521 30.4246 2.70934 8.52839 70.7359
4950392 6.41244 8.72102 25.121 30.4441 2.69867 8.57833 70.6986
4950403 6.41244 8.72102 25.121 30.4441 2.69867 8.57833 70.6986
4950412 6.44767 8.67497 25.2884 30.337 2.57106 8.58739 70.748
4950427 6.39482 8.59209 25.2687 30.3564 2.57925 8.63271 70.612
4950432 6.39482 8.59209 25.2687 30.3564 2.57925 8.63271 70.612
4950443 6.41244 8.63814 25.3868 30.2883 2.51929 8.61593 70.7256
4950452 6.41244 8.63814 25.3868 30.2883 2.51929 8.61593 70.7256
4950462 6.36839 8.5 25.436 30.2493 2.46085 8.67784 70.5537
4950475 6.43005 8.6013 25.4951 30.0934 2.39649 8.61453 70.6198
4950482 6.43005 8.6013 25.4951 30.0934 2.39649 8.61453 70.6198
4950498 6.4829 8.50921 25.4557 29.8791 2.29275 8.60468 70.3269
4950502 6.50052 8.57367 25.4163 29.8986 2.32827 8.57534 70.3891
4950523 6.63264 8.64735 25.3179 29.7524 2.29183 8.48405 70.3503
4950548 6.70311 8.71181 25.1702 29.4894 2.25755 8.40064 70.0746
4950553 6.9057 8.97887 25.1112 29.3043 2.22841 8.22138 70.3
4950563 6.9057 8.97887 25.1112 29.3043 2.22841 8.22138 70.3
4950573 7.12591 9.15385 24.806 28.9633 2.20746 8.02785 70.0491
4950583 7.39896 9.40249 24.6682 28.6613 2.13766 7.81283 70.131
4950600 7.39896 9.40249 24.6682 28.6613 2.13766 7.81283 70.131
4950603 7.68964 9.78927 24.304 28.2619 2.16202 7.51383 70.0448
4950613 7.68964 9.78927 24.304 28.2619 2.16202 7.51383 70.0448
4950625 8.04197 10.1853 23.9102 27.843 2.17062 7.18615 69.9805
4950633 8.52642 10.6549 23.4673 27.3072 2.13291 6.77423 69.9558
4950651 8.52642 10.6549 23.4673 27.3072 2.13291 6.77423 69.9558
4950653 8.98446 11.3088 22.9948 26.6642 2.14207 6.29696 69.9522
4950663 9.37202 11.8982 22.5223 26.0699 2.17347 5.86625 69.8624
4950677 9.37202 11.8982 22.5223 26.0699 2.17347 5.86625 69.8624
4950683 9.8829 12.4875 22.099 25.3782 2.10595 5.39176 69.8477
4950693 9.8829 12.4875 22.099 25.3782 2.10595 5.39176 69.8477
4950704 10.244 13.0309 21.6068 24.7645 2.13381 4.97436 69.6462
4950714 10.6228 13.5282 21.1934 24.0825 2.08655 4.56414 69.4269
4950734 11.0016 13.8873 20.8193 23.537 2.02303 4.21706 69.2452
4950753 11.4067 14.3294 20.4551 23.0109 1.97913 3.84307 69.2021
4950755 11.4067 14.3294 20.4551 23.0109 1.97913 3.84307 69.2021
4950766 11.8119 14.7438 20.1697 22.4556 1.88556 3.48424 69.1809
4950778 12.2788 15.1582 19.835 21.8613 1.77403 3.09389 69.1332
4950785 12.2788 15.1582 19.835 21.8613 1.77403 3.09389 69.1332
4950795 12.7544 15.6371 19.5298 21.2865 1.67588 2.69295 69.2078
4950805 12.7544 15.6371 19.5298 21.2865 1.67588 2.69295 69.2078
4950816 13.1244 15.9686 19.0573 20.8092 1.66622 2.34346 68.9594
4950831 13.5031 16.3646 18.7719 20.2928 1.5894 2.00131 68.9324
4950836 13.5031 16.3646 18.7719 20.2928 1.5894 2.00131 68.9324
4950846 13.8819 16.7698 18.4076 19.796 1.55262 1.64519 68.8553
4950857 14.2518 17.1362 18.0533 19.3186 1.50876 1.3054 68.7599
4950868 14.2518 17.1362 18.0533 19.3186 1.50876 1.3054 68.7599
4950878 14.6218 17.4571 17.7087 18.9387 1.47879 0.997122 68.7263
4950901 14.9653 17.8364 17.4134 18.4905 1.43664 0.677302 68.7057
4950907 15.3088 18.274 17.0394 18.0521 1.44813 0.329529 68.6744
4950921 15.3088 18.274 17.0394 18.0521 1.44813 0.329529 68.6744
4950927 15.6435 18.5463 16.6569 17.6625 1.42623 0.0283509 68.5092
4950937 15.8461 18.8576 16.4801 17.3897 1.42949 -0.182402 68.5735
4950964 16.1544 19.2077 16.1682 17.0974 1.45076 -0.458222 68.6277
4950992 16.1544 19.2077 16.1682 17.0974 1.45076 -0.458222 68.6277
4950999 16.4275 19.4994 15.9394 16.7716 1.42198 -0.702792 68.6379
4951006 16.7446 19.9079 15.6067 16.4289 1.45058 -1.00822 68.6881
4951010 16.7446 19.9079 15.6067 16.4289 1.45058 -1.00822 68.6881
4951018 17.0897 20.083 15.3468 16.0672 1.35364 -1.25943 68.5866
4951020 17.3189 20.4136 15.1076 15.8197 1.38611 -1.48671 68.6598
4951028 17.3189 20.4136 15.1076 15.8197 1.38611 -1.48671 68.6598
4951052 17.5281 20.5984 14.8373 15.5056 1.36504 -1.70521 68.4694
4951058 17.6975 20.8318 14.6813 15.2296 1.34515 -1.8889 68.4403
4951070 17.9467 21.1236 14.463 15.0202 1.36174 -2.09772 68.5534
4951089 18.1559 21.2889 14.307 14.6965 1.28655 -2.28813 68.4484
4951099 18.415 21.5612 14.1095 14.4776 1.28142 -2.49167 68.5633
4951119 18.5645 21.7265 13.9743 14.3919 1.30347 -2.60528 68.6573
4951129 18.5645 21.7265 13.9743 14.3919 1.30347 -2.60528 68.6573
4951142 18.6841 21.8335 13.8391 14.2111 1.28391 -2.72738 68.5678
4951151 18.8634 22.0183 13.6832 14.1445 1.31575 -2.84985 68.7094
4951171 18.983 22.1156 13.6 13.9541 1.26967 -2.95935 68.6526
4951182 19.1325 22.2225 13.5064 13.9255 1.27538 -3.03613 68.787
4951196 19.1325 22.2225 13.5064 13.9255 1.27538 -3.03613 68.787
4951202 19.1125 22.3392 13.3609 13.7828 1.32976 -3.12882 68.5954
4951212 19.1923 22.349 13.2881 13.7637 1.32388 -3.16857 68.593
4951222 19.1923 22.349 13.2881 13.7637 1.32388 -3.16857 68.593
4951232 19.2819 22.4462 13.2465 13.6971 1.316 -3.22941 68.6717
4951247 19.2819 22.4462 13.2465 13.6971 1.316 -3.22941 68.6717
4951258 19.272 22.4754 13.1529 13.7256 1.37563 -3.24997 68.6259
4951266 19.3417 22.5921 13.0697 13.6876 1.40783 -3.31408 68.6911
4951272 19.3417 22.5921 13.0697 13.6876 1.40783 -3.31408 68.6911
4951282 19.5012 22.6796 13.0177 13.5733 1.35741 -3.40031 68.7719
4951292 19.4912 22.6505 12.9761 13.5258 1.35077 -3.4176 68.6436
4951302 19.4912 22.6505 12.9761 13.5258 1.35077 -3.4176 68.6436
4951315 19.4812 22.7574 12.9346 13.5733 1.4237 -3.43234 68.7466
4951332 19.4713 22.6505 12.8514 13.5448 1.41299 -3.44265 68.5179
4951342 19.5211 22.6796 12.9034 13.6305 1.41327 -3.419 68.7346
4951364 19.4713 22.6796 12.9034 13.6971 1.45527 -3.39276 68.7514
4951375 19.551 22.738 12.9034 13.7637 1.46736 -3.39823 68.9561
4951388 19.551 22.738 12.9034 13.7637 1.46736 -3.39823 68.9561
4951393 19.4812 22.6894 12.8826 13.8018 1.49856 -3.37367 68.855
4951403 19.4812 22.6894 12.8826 13.8018 1.49856 -3.37367 68.855
4951415 19.4215 22.7088 12.9034 13.8494 1.53644 -3.34862 68.883
4951424 19.4115 22.6213 12.9138 13.8589 1.50967 -3.3268 68.8054
4951439 19.4115 22.6213 12.9138 13.8589 1.50967 -3.3268 68.8054
4951444 19.3318 22.4851 12.8618 13.9255 1.53676 -3.28615 68.6042
4951462 19.2521 22.417 12.9242 14.0207 1.55273 -3.21893 68.614
4951464 19.2521 22.417 12.9242 14.0207 1.55273 -3.21893 68.614
4951474 19.1723 22.3781 12.9034 14.1445 1.62064 -3.17121 68.5983
4951485 19.1723 22.3781 12.9034 14.1445 1.62064 -3.17121 68.5983
4951494 19.0229 22.3101 13.0281 14.3539 1.67829 -3.04539 68.7149
4951507 18.9033 22.2517 13.1113 14.4871 1.71782 -2.95765 68.7534
4951530 18.704 22.1836 13.2361 14.6109 1.76564 -2.84588 68.7346
4951534 18.5844 21.9891 13.392 14.8203 1.75652 -2.69559 68.7859
4951546 18.5844 21.9891 13.392 14.8203 1.75652 -2.69559 68.7859
4951556 18.3453 21.8335 13.5376 15.0868 1.83038 -2.51901 68.8032
4951577 18.0762 21.639 13.6728 15.4675 1.94522 -2.30372 68.8555
4951587 17.8769 21.3959 13.9015 15.696 1.92878 -2.10729 68.8703
4951606 17.8769 21.3959 13.9015 15.696 1.92878 -2.10729 68.8703
4951607 17.4982 21.1625 14.2031 16.0101 1.98597 -1.83979 68.8738
4951622 17.1694 20.8999 14.4942 16.4384 2.056 -1.55141 69.0019
4951636 17.1694 20.8999 14.4942 16.4384 2.056 -1.55141 69.0019
4951639 16.8415 20.5887 14.8373 16.724 2.04152 -1.276 68.9914
4951647 16.8415 20.5887 14.8373 16.724 2.04152 -1.276 68.9914
4951667 16.4979 20.258 15.1596 17.1266 2.07376 -0.971071 69.0422
4951670 16.1984 19.8398 15.6587 17.5943 2.01213 -0.60295 69.2912
4951677 16.1984 19.8398 15.6587 17.5943 2.01213 -0.60295 69.2912
4951696 15.8109 19.4508 16.137 18.0424 1.99642 -0.233781 69.4411
4951697 15.4233 18.984 16.4905 18.5003 2.00669 0.126123 69.3981
4951720 14.9653 18.4977 16.896 19.0653 2.05322 0.539802 69.4244
4951727 14.9653 18.4977 16.896 19.0653 2.05322 0.539802 69.4244
4951744 14.4456 17.9823 17.4528 19.533 2.02295 0.984943 69.4136
4951748 13.9699 17.4863 17.9942 20.098 2.02022 1.43123 69.5484
4951767 13.3534 17.1848 18.6439 20.5851 2.06853 1.86854 69.7671
4951777 12.7984 16.7421 19.3329 21.1014 2.04079 2.33522 69.975
4951799 12.1554 16.3277 19.9629 21.6372 2.08558 2.80744 70.0834
4951808 12.1554 16.3277 20.6815 21.6372 1.81069 2.93119 70.802
4951818 11.5301 15.8489 20.6815 22.1926 2.07458 3.30843 70.253
4951828 10.9399 15.37 21.3411 22.7673 2.07914 3.79131 70.4183
4951841 10.9399 15.37 21.3411 22.7673 2.07914 3.79131 70.4183
4951848 10.4466 14.7806 21.8825 23.3324 2.05271 4.25618 70.4421
4951866 9.83886 14.2741 22.3845 23.9851 2.14091 4.73662 70.4825
4951868 9.83886 14.2741 22.3845 23.9851 2.14091 4.73662 70.4825
4951879 9.39845 13.6571 22.9259 24.6281 2.1105 5.20435 70.6095
4951890 9.39845 13.6571 22.9259 24.6281 2.1105 5.20435 70.6095
4951900 8.94922 12.994 23.3393 25.2808 2.1209 5.67083 70.5634
4951914 8.53523 12.4691 23.5854 25.9725 2.2395 6.06986 70.5623
4951929 8.19171 11.9258 23.9102 26.596 2.27254 6.45436 70.6237
4951940 7.81295 11.4377 24.1268 27.2585 2.39127 6.82399 70.6359
4951950 7.81295 11.4377 24.1268 27.2585 2.39127 6.82399 70.6359
4951965 7.60155 11.1983 24.2154 27.5702 2.46209 7.00976 70.5854
4951970 7.38135 10.9588 24.2154 27.843 2.55867 7.18442 70.3986
4951990 7.38135 10.9588 24.2154 27.843 2.55867 7.18442 70.3986
4952002 7.24922 10.7931 24.176 28.145 2.66929 7.30752 70.3633
4952003 7.24922 10.7931 24.176 28.145 2.66929 7.30752 70.3633
4952010 7.03782 10.6918 24.2449 28.2327 2.72111 7.42403 70.2072
4952022 6.98497 10.5444 24.4615 28.5152 2.69946 7.54133 70.5061
4952042 6.86166 10.4155 24.5304 28.7685 2.76012 7.65594 70.576
4952053 6.73834 10.2589 24.6288 29.0218 2.80035 7.78226 70.6479
4952073 6.62383 10.1024 24.7076 29.2166 2.82644 7.89761 70.6504
4952083 6.56218 9.93662 24.7371 29.4115 2.84823 7.99388 70.6474
4952103 6.45648 9.84453 24.7765 29.5771 2.89742 8.07858 70.6546
4952114 6.45648 9.84453 24.7765 29.5771 2.89742 8.07858 70.6546
4952124 6.38601 9.74323 24.806 29.694 2.91847 8.14906 70.6292
4952134 6.35078 9.58667 24.8454 29.8206 2.90748 8.22805 70.6035
4952145 6.35078 9.58667 24.8454 29.8206 2.90748 8.22805 70.6035
4952154 6.29793 9.49458 24.8356 29.9375 2.94005 8.28603 70.5656
4952166 6.28912 9.49458 24.8552 30.035 2.96615 8.30006 70.6739
4952174 6.28912 9.49458 24.8552 30.035 2.96615 8.30006 70.6739
4952185 6.2715 9.46696 24.9045 30.1616 2.98449 8.33159 70.8045
4952205 6.19223 9.46696 24.8454 30.2006 3.05137 8.35585 70.7052
4952214 6.14819 9.34724 24.8651 30.3272 3.06319 8.42372 70.6877
4952225 6.14819 9.34724 24.8651 30.3272 3.06319 8.42372 70.6877
4952234 6.1658 9.30119 24.8749 30.4052 3.06218 8.44129 70.7471
4952257 6.03368 9.17226 24.934 30.4149 3.05418 8.53442 70.5548
4952278 6.01606 9.15385 25.0127 30.5805 3.0756 8.56872 70.7632
4952281 6.01606 9.15385 25.0127 30.5805 3.0756 8.56872 70.7632
4952289 5.9544 9.06176 24.9931 30.7364 3.12765 8.63233 70.7456
4952294 5.98083 8.96966 25.1112 30.7656 3.05083 8.66749 70.8273
4952306 5.98083 8.96966 25.1112 30.7656 3.05083 8.66749 70.8273
4952316 5.93679 8.98808 25.121 30.8533 3.0972 8.68475 70.8992
4952327 5.88394 8.82232 25.249 30.9215 3.03727 8.77528 70.8767
4952336 5.88394 8.82232 25.249 30.9215 3.03727 8.77528 70.8767
4952345 5.8399 8.75785 25.3474 31.0384 3.03202 8.83051 70.9836
4952356 5.8399 8.75785 25.3474 31.0384 3.03202 8.83051 70.9836
4952366 5.74301 8.69339 25.2982 31.0092 3.06081 8.87802 70.7438
4952376 5.74301 8.62893 25.3868 31.0968 3.03292 8.91498 70.8556
4952385 5.74301 8.62893 25.3868 31.0968 3.03292 8.91498 70.8556
4952397 5.72539 8.56446 25.3474 31.0676 3.02641 8.93683 70.7049
4952407 5.66373 8.5 25.3277 31.0481 3.03258 8.97626 70.5396
4952417 5.66373 8.5 25.3277 31.0481 3.03258 8.97626 70.5396
4952428 5.7342 8.50921 25.3573 30.9994 2.98058 8.94757 70.6001
4952438 5.7342 8.50921 25.3573 30.9994 2.98058 8.94757 70.6001
4952448 5.7342 8.56446 25.3573 30.8728 2.95829 8.91794 70.5287
4952459 5.79586 8.52763 25.4163 30.8923 2.90509 8.9163 70.6321
4952478 5.83109 8.54605 25.4951 30.9312 2.87808 8.90829 70.8034
4952488 5.79586 8.5 25.4459 30.8241 2.86341 8.92233 70.5658
4952499 5.79586 8.5 25.4459 30.8241 2.86341 8.92233 70.5658
4952508 5.8487 8.47237 25.5148 30.8338 2.8098 8.92056 70.6697
4952521 5.8487 8.47237 25.5148 30.8338 2.8098 8.92056 70.6697
4952531 5.8399 8.58288 25.4557 30.7656 2.84981 8.87516 70.6441
4952542 5.91917 8.53684 25.5246 30.6195 2.73107 8.85723 70.6001
4952559 5.97202 8.56446 25.4951 30.5513 2.7091 8.82152 70.5829
4952569 6.10415 8.65656 25.4163 30.4636 2.68956 8.73136 70.6406
4952591 6.17461 8.76706 25.4557 30.4052 2.66301 8.66901 70.8025
4952600 6.18342 8.67497 25.4065 30.2201 2.59102 8.67593 70.4849
4952610 6.18342 8.67497 25.4065 30.2201 2.59102 8.67593 70.4849
4952620 6.32435 8.76706 25.3868 30.1226 2.54195 8.5873 70.6008
4952632 6.32435 8.76706 25.3868 30.1226 2.54195 8.5873 70.6008
4952640 6.41244 8.82232 25.2785 29.9765 2.52089 8.51619 70.4898
4952651 6.52694 8.93283 25.2293 29.8499 2.49027 8.425 70.5389
4952670 6.60622 9.05255 25.062 29.733 2.52553 8.33231 70.4537
4952682 6.66788 9.18147 24.9931 29.5089 2.49798 8.24134 70.3513
4952692 6.66788 9.18147 24.9931 29.5089 2.49798 8.24134 70.3513
4952702 6.80881 9.39328 24.9635 29.1582 2.40997 8.08822 70.3238
4952722 6.95855 9.7156 24.8257 28.749 2.37738 7.87925 70.2489
4952733 7.16114 10.1024 24.6288 28.2327 2.33336 7.61454 70.125
4952743 7.16114 10.1024 24.6288 28.2327 2.33336 7.61454 70.125
4952752 7.35492 10.4892 24.3926 27.5994 2.26999 7.33458 69.8361
4952762 7.76891 10.9404 24.117 26.9954 2.16621 6.96124 69.8217
4952773 7.76891 10.9404 24.117 26.9954 2.16621 6.96124 69.8217
4952783 8.21813 11.493 23.6937 26.2063 2.07849 6.50519 69.6111
4952803 8.61451 12.11 23.2999 25.5341 2.05928 6.06171 69.5585
4952813 9.11658 12.7178 22.9456 24.7255 1.9355 5.57584 69.5054
4952824 9.11658 12.7178 22.9456 24.7255 1.9355 5.57584 69.5054
4952835 9.57461 13.3532 22.5814 24.0436 1.88374 5.1106 69.5527
4952846 10.0679 13.8597 22.1679 23.4103 1.81072 4.67242 69.5058
4952854 10.0679 13.8597 22.1679 23.4103 1.81072 4.67242 69.5058
4952866 10.4995 14.3478 21.7742 22.8258 1.7639 4.26641 69.4472
4952875 10.9135 14.9003 21.3017 22.1438 1.74309 3.81863 69.2593
4952885 10.9135 14.9003 21.3017 22.1438 1.74309 3.81863 69.2593
4952901 11.4244 15.4713 20.8489 21.5398 1.70958 3.35423 69.2843
4952904 11.4244 15.4713 20.8489 21.5398 1.70958 3.35423 69.2843
4952916 11.9088 16.0607 20.3075 20.8968 1.71353 2.86991 69.1738
4952926 12.3668 16.5488 19.7464 20.3026 1.71759 2.42154 68.9646
4952937 12.3668 16.5488 19.7464 20.3026 1.71759 2.42154 68.9646
4952947 12.772 17.0195 19.264 19.796 1.73539 2.01925 68.8515
4952959 13.1508 17.0195 19.018 19.2797 1.50815 1.78055 68.4678
4952966 13.1508 17.4085 19.018 19.2797 1.64087 1.68575 68.8568
4952978 13.5295 17.8169 18.6439 18.7925 1.61234 1.32809 68.7829
4952987 13.5295 17.8169 18.6439 18.7925 1.61234 1.32809 68.7829
4952999 13.8642 18.2254 18.3289 18.4029 1.6111 1.01177 68.8214
4953007 14.1197 18.488 18.0631 18.0327 1.57847 0.761554 68.7035
4953020 14.1197 18.488 18.0631 18.0327 1.57847 0.761554 68.7035
4953027 14.3663 18.8381 17.817 17.7599 1.60459 0.517398 68.7813
4953037 14.613 19.1104 17.5808 17.4871 1.60042 0.293174 68.7912
4953047 14.613 19.1104 17.5808 17.4871 1.60042 0.293174 68.7912
4953062 14.8332 19.3827 17.3741 17.263 1.6116 0.0917637 68.853
4953068 14.8332 19.3827 17.3741 17.263 1.6116 0.0917637 68.853
4953078 15.1062 19.6259 17.2362 17.039 1.56591 -0.0993079 69.0073
4953088 15.256 19.869 17.128 16.8382 1.56433 -0.25158 69.0911
4953098 15.256 19.869 17.128 16.8382 1.56433 -0.25158 69.0911
4953108 15.4409 20.0343 16.9688 16.5907 1.52651 -0.416257 69.0348
4953118 15.5907 20.1121 16.8648 16.4003 1.4706 -0.530167 68.968
4953138 15.8637 20.2191 16.6673 16.1909 1.40665 -0.701607 68.941
4953158 15.987 20.4428 16.4593 15.9625 1.43747 -0.873187 68.8517
4953169 16.1984 20.647 16.3969 15.7245 1.36883 -1.02745 68.9669
4953179 16.1984 20.647 16.3969 15.7245 1.36883 -1.02745 68.9669
4953189 16.3834 20.7443 16.1786 15.477 1.33001 -1.19333 68.7833
4953199 16.4803 20.9777 15.9914 15.3438 1.39902 -1.33504 68.7932
4953209 16.4803 20.9777 15.9914 15.3438 1.39902 -1.33504 68.7932
4953219 16.5948 21.0652 15.8563 15.1153 1.35851 -1.46181 68.6316
4953229 16.5948 21.0652 15.8563 15.1153 1.35851 -1.46181 68.6316
4953239 16.7446 21.1527 15.7939 15.1058 1.35185 -1.5257 68.797
4953252 16.7358 21.2403 15.6899 14.9535 1.37284 -1.60288 68.6195
4953259 16.7358 21.2403 15.6899 14.9535 1.37284 -1.60288 68.6195
4953269 16.8415 21.2305 15.6691 14.9821 1.34673 -1.61972 68.7232
4953279 17 21.2986 15.6067 14.9059 1.30714 -1.69724 68.8113
4953299 17.1096 21.3862 15.6379 14.8964 1.28025 -1.72999 69.0301
4953312 17.1096 21.3862 15.6379 14.8964 1.28025 -1.72999 69.0301
4953319 17.1096 21.357 15.6275 14.8393 1.25453 -1.74076 68.9334
4953329 17.1196 21.3959 15.5755 14.8393 1.28393 -1.76278 68.9303
4953339 17.1196 21.3959 15.5755 14.8393 1.28393 -1.76278 68.9303
4953349 17.1395 21.4056 15.5651 14.7822 1.26398 -1.78491 68.8924
4953359 17.1594 21.4056 15.4612 14.7822 1.29606 -1.8141 68.8084
4953369 17.1594 21.357 15.4612 14.7441 1.26616 -1.81409 68.7217
4953379 17.1794 21.3667 15.482 14.7632 1.26053 -1.81003 68.7912
4953400 17.2491 21.2792 15.4404 14.7156 1.20306 -1.82845 68.6842
4953409 17.2491 21.2403 15.4404 14.7632 1.20607 -1.80933 68.6929
4953419 17.2491 21.2403 15.4404 14.7632 1.20607 -1.80933 68.6929
4953429 17.2292 21.25 15.5028 14.8203 1.21301 -1.77818 68.8022
4953440 17.2292 21.25 15.5028 14.8203 1.21301 -1.77818 68.8022
4953449 17.2491 21.1625 15.5235 14.8393 1.17381 -1.75546 68.7744
4953460 17.1694 21.1333 15.5651 14.963 1.22104 -1.69426 68.8309
4953470 17.1694 21.1333 15.5651 14.963 1.22104 -1.69426 68.8309
4953482 17.1196 21.1625 15.6171 14.9916 1.24014 -1.67076 68.8908
4953491 17.1096 21.1333 15.7211 15.0868 1.22713 -1.61512 69.0508
4953502 17.1096 21.1333 15.7211 15.0868 1.22713 -1.61512 69.0508
4953510 17.01 21.1138 15.6379 15.1725 1.31952 -1.5914 68.9342
4953520 17.01 21.1138 15.6379 15.1725 1.31952 -1.5914 68.9342
4953539 16.9912 21.0652 15.7003 15.1915 1.29271 -1.55869 68.9482
4953541 16.956 20.9582 15.6795 15.2676 1.30349 -1.51763 68.8614
4953561 16.9031 20.9096 15.6899 15.3247 1.32264 -1.48155 68.8274
4953573 16.8679 20.7832 15.6379 15.3533 1.32232 -1.45533 68.6423
4953584 16.8679 20.7832 15.6379 15.3533 1.32232 -1.45533 68.6423
4953592 16.8326 20.6665 15.7835 15.458 1.27594 -1.36549 68.7406
4953602 16.771 20.6665 15.8771 15.458 1.26374 -1.33099 68.7725
4953612 16.771 20.54 15.8771 15.6389 1.28251 -1.26297 68.827
4953622 16.6565 20.4039 16.0434 15.8007 1.27157 -1.13554 68.9045
4953632 16.6565 20.4039 16.0434 15.8007 1.27157 -1.13554 68.9045
4953642 16.4539 20.1899 16.2514 15.991 1.2614 -0.958408 68.8862
4953652 16.3746 20.0538 16.4177 16.1719 1.24363 -0.834294 69.018
4953672 16.1984 19.8495 16.7089 16.486 1.23776 -0.618068 69.2429
4953692 16.0047 19.6064 16.8648 16.724 1.25032 -0.438353 69.1999
4953702 15.7668 19.266 17.1673 17.0779 1.23047 -0.170526 69.2781
4953712 15.7668 19.266 17.1673 17.0779 1.23047 -0.170526 69.2781
4953723 15.4409 18.8576 17.4331 17.4871 1.25349 0.134735 69.2187
4953735 15.1503 18.4102 17.7678 17.9742 1.25044 0.472187 69.3025
4953753 14.6482 17.9045 18.2206 18.51 1.27942 0.904546 69.2833
4953763 14.2254 17.3598 18.575 19.2504 1.37223 1.34854 69.4106
4953774 14.2254 17.3598 18.575 19.2504 1.37223 1.34854 69.4106
4953783 13.6705 16.6869 19.2444 20.0493 1.37161 1.92451 69.651
4953794 13.6705 16.6869 19.2444 20.0493 1.37161 1.92451 69.651
4953803 12.9482 15.9962 20.0023 21.0527 1.46374 2.59516 69.9994
4953815 12.1907 15.2226 20.7898 22.2023 1.57817 3.31909 70.4054
4953824 12.1907 15.2226 20.7898 22.2023 1.57817 3.31909 70.4054
4953836 11.4508 14.4399 21.4887 23.1765 1.65716 3.99143 70.5559
4953844 10.8254 13.6939 22.099 24.2092 1.75733 4.61449 70.8275
4953858 10.8254 13.6939 22.099 24.2092 1.75733 4.61449 70.8275
4953864 10.2528 13.0217 22.5912 25.0275 1.83555 5.15089 70.8932
4953874 10.2528 13.0217 22.5912 25.0275 1.83555 5.15089 70.8932
4953884 9.7772 12.4139 22.8767 25.6607 1.91604 5.5875 70.7285
4953895 9.31917 11.9626 23.1129 26.1868 2.02509 5.95438 70.5815
4953907 9.31917 11.9626 23.1129 26.1868 2.02509 5.95438 70.5815
4953916 9.01969 11.585 23.2507 26.5375 2.07839 6.2187 70.393
4953926 8.70259 11.3732 23.3984 26.7421 2.14138 6.42258 70.2163
4953936 8.70259 11.3732 23.3984 26.7421 2.14138 6.42258 70.2163
4953945 8.46477 11.1798 23.5657 27.0441 2.20395 6.61137 70.2545
4953967 8.29741 11.0141 23.6149 27.2779 2.27182 6.74774 70.2044
4953975 8.0772 10.7562 23.8217 27.6481 2.31338 6.96334 70.3032
4953990 8.0772 10.7562 23.8217 27.6481 2.31338 6.96334 70.3032
4953995 7.95389 10.526 23.9398 27.9794 2.34794 7.12494 70.399
4954005 7.7513 10.305 24.0677 28.2229 2.3842 7.29976 70.347
4954016 7.7513 10.305 24.0677 28.2229 2.3842 7.29976 70.347
4954026 7.58394 10.1668 24.1662 28.5347 2.46673 7.44129 70.4516
4954037 7.58394 10.1668 24.1662 28.5347 2.46673 7.44129 70.4516
4954047 7.46062 9.95504 24.2942 28.8854 2.50925 7.59907 70.5952
4954057 7.33731 9.88136 24.3729 29.1095 2.57444 7.69374 70.701
4954067 7.33731 9.88136 24.3729 29.1095 2.57444 7.69374 70.701
4954080 7.16995 9.68797 24.5009 29.4212 2.62728 7.8548 70.78
4954087 6.99378 9.52221 24.5599 29.6842 2.70376 7.99776 70.7602
4954107 6.89689 9.47616 24.6584 29.8401 2.73771 8.06927 70.8715
4954126 6.89689 9.47616 24.6584 29.8401 2.73771 8.06927 70.8715
4954127 6.76477 9.38407 24.6584 29.9862 2.80647 8.15664 70.7934
4954137 6.64145 9.25515 24.6977 30.1421 2.84792 8.2581 70.7365
4954154 6.64145 9.25515 24.6977 30.1421 2.84792 8.2581 70.7365
4954163 6.50052 9.19989 24.6977 30.3077 2.93801 8.33843 70.7059
4954180 6.42124 9.08938 24.7568 30.4636 2.96014 8.42129 70.731
4954182 6.42124 9.08938 24.7568 30.4636 2.96014 8.42129 70.731
4954191 6.39482 9.06176 24.7765 30.5903 2.99361 8.45276 70.8233
4954198 6.39482 9.06176 24.7765 30.5903 2.99361 8.45276 70.8233
4954208 6.35959 8.95125 24.7863 30.6 2.9723 8.50292 70.6972
4954220 6.41244 9.01571 24.7371 30.5415 2.97274 8.45404 70.7068
4954228 6.41244 9.01571 24.7371 30.5415 2.97274 8.45404 70.7068
4954239 6.40363 9.0065 24.7174 30.5708 2.99025 8.46089 70.6983
4954249 6.51813 8.98808 24.619 30.5221 2.96297 8.41537 70.6473
4954259 6.51813 8.98808 24.619 30.5221 2.96297 8.41537 70.6473
4954269 6.56218 9.01571 24.6387 30.6195 2.97671 8.40256 70.8361
4954289 6.53575 8.96045 24.6091 30.6097 2.97861 8.42593 70.7151
4954302 6.56218 9.01571 24.5796 30.6195 3.00005 8.39705 70.777
4954311 6.56218 9.01571 24.5796 30.6195 3.00005 8.39705 70.777
4954324 6.47409 8.94204 24.5895 30.6877 3.02934 8.45788 70.6933
4954331 6.4829 8.88678 24.5698 30.6585 3.00737 8.46878 70.5979
4954341 6.4829 8.88678 24.5698 30.6585 3.00737 8.46878 70.5979
4954350 6.4829 8.89599 24.6091 30.6877 3.00373 8.47206 70.6757
4954362 6.4829 8.89599 24.6091 30.6877 3.00373 8.47206 70.6757
4954371 6.40363 8.79469 24.6387 30.6877 2.99188 8.53489 70.5247
4954382 6.35078 8.76706 24.6584 30.7559 3.0177 8.5698 70.5321
4954392 6.35078 8.76706 24.6584 30.7559 3.0177 8.5698 70.5321
4954400 6.35078 8.61051 24.806 30.9117 2.95896 8.64962 70.6791
4954414 6.30674 8.50921 24.8552 30.902 2.92223 8.70188 70.5732
4954420 6.30674 8.50921 24.8552 30.902 2.92223 8.70188 70.5732
4954431 6.2715 8.59209 24.9832 30.9702 2.93276 8.70338 70.817
4954452 6.31554 8.49079 24.9143 30.902 2.88964 8.71037 70.6226
4954462 6.28912 8.46316 24.9143 30.9312 2.90057 8.73113 70.5978
4954472 6.28912 8.46316 24.9143 30.9312 2.90057 8.73113 70.5978
4954482 6.2715 8.49079 24.9734 30.9215 2.8898 8.73214 70.6572
4954492 6.28031 8.41712 24.934 30.9312 2.88185 8.75133 70.5627
4954512 6.32435 8.42633 24.9045 30.8046 2.83925 8.71953 70.4597
4954523 6.38601 8.43554 24.9241 30.7948 2.80698 8.69659 70.5405
4954532 6.38601 8.43554 24.9241 30.7948 2.80698 8.69659 70.5405
4954546 6.41244 8.50921 24.9045 30.6682 2.78764 8.64985 70.4943
4954553 6.41244 8.50921 24.9045 30.6682 2.78764 8.64985 70.4943
4954567 6.47409 8.49079 24.9143 30.5415 2.71367 8.6248 70.4207
4954573 6.56218 8.58288 24.8848 30.3857 2.67044 8.54756 70.4155
4954583 6.56218 8.58288 24.8848 30.3857 2.67044 8.54756 70.4155
4954593 6.70311 8.73944 24.7863 30.1908 2.6416 8.42121 70.4197
4954603 6.77358 8.84074 24.7174 29.9862 2.60814 8.33841 70.318
4954614 6.77358 8.84074 24.7174 29.9862 2.60814 8.33841 70.318
4954623 6.94093 8.98808 24.6584 29.733 2.53189 8.20438 70.3203
4954633 6.94093 8.98808 24.6584 29.733 2.53189 8.20438 70.3203
4954644 7.07306 9.16306 24.5304 29.4602 2.49897 8.06413 70.2267
4954656 7.28446 9.47616 24.3434 29.1582 2.49299 7.84368 70.2622
4954677 7.47824 9.68797 24.1367 28.7685 2.44093 7.65054 70.0714
4954684 7.83938 10.0287 23.8906 28.3691 2.37703 7.35619 70.1277
4954694 7.83938 10.0287 23.8906 28.3691 2.37703 7.35619 70.1277
4954704 8.1829 10.4247 23.6346 27.9209 2.32604 7.04385 70.1631
4954714 8.1829 10.4247 23.6346 27.9209 2.32604 7.04385 70.1631
4954731 8.40311 10.6826 23.4082 27.4728 2.26679 6.81653 69.9667
4954734 8.70259 10.9496 23.1129 27.0246 2.20619 6.55225 69.7898
4954745 8.70259 10.9496 23.1129 27.0246 2.20619 6.55225 69.7898
4954756 9.06373 11.3824 22.7389 26.5083 2.18391 6.19879 69.6933
4954768 9.06373 11.3824 22.7389 26.5083 2.18391 6.19879 69.6933
4954774 9.3456 11.7784 22.5321 26.0991 2.15032 5.91509 69.7553
4954790 9.74197 12.2941 22.4042 25.5828 2.04605 5.55906 70.0231
4954794 9.74197 12.2941 22.4042 25.5828 2.04605 5.55906 70.0231
4954804 10.0591 12.8191 22.1089 24.9009 1.98604 5.17935 69.8879
4954821 10.4026 13.2795 21.8628 24.3163 1.90753 4.83036 69.8612
4954836 10.6756 13.74 21.5871 23.7221 1.86421 4.49487 69.7248
4954845 11.0016 13.74 21.3804 23.0401 1.58978 4.26802 69.1621
4954857 11.0016 14.0623 21.3804 23.0401 1.69838 4.17864 69.4844
4954866 11.3451 14.5872 21.0753 22.4458 1.66036 3.79869 69.4534
4954878 11.3451 14.5872 21.0753 22.4458 1.66036 3.79869 69.4534
4954885 11.7591 14.9832 20.7504 21.8418 1.55606 3.42903 69.3345
4954900 12.085 15.4805 20.3764 21.0625 1.47875 3.01576 69.0043
4954906 12.085 15.4805 20.3764 21.0625 1.47875 3.01576 69.0043
4954915 12.4285 15.9133 20.0909 20.4974 1.41134 2.66498 68.9302
4954926 12.7984 15.9133 19.8251 20.0201 1.20696 2.43595 68.557
4954936 12.7984 16.3093 19.8251 20.0201 1.3436 2.33582 68.9529
4954947 13.1155 16.5948 19.6184 19.5719 1.24554 2.06384 68.9007
4954959 13.1155 16.5948 19.6184 19.5719 1.24554 2.06384 68.9007
4954967 13.4238 16.9724 19.2936 19.0946 1.2174 1.74282 68.7843
4954977 13.8642 17.3696 19.0475 18.6464 1.12591 1.40584 68.9277
4954987 13.8642 17.3696 19.0475 18.6464 1.12591 1.40584 68.9277
4954997 14.243 17.778 18.7325 18.1788 1.08126 1.06414 68.9323
