9112111 9.89171 14.3754 18.3978 17.867 1.63258 2.97307 60.532
9112125 9.89171 14.3754 18.3978 17.867 1.63258 2.97307 60.532
9112135 9.09896 13.519 19.1853 18.7828 1.65778 3.80043 60.586
9112142 8.42073 12.727 19.9826 19.5914 1.61187 4.55183 60.7217
9112162 7.88342 11.9074 20.6028 20.2149 1.49982 5.20395 60.6085
9112174 7.30207 11.2627 21.1245 20.7215 1.47228 5.78072 60.4108
9112182 7.30207 11.2627 21.1245 20.7215 1.47228 5.78072 60.4108
9112192 6.88808 10.701 21.6561 21.2281 1.39935 6.27429 60.4732
9112202 6.88808 10.701 21.6561 21.2281 1.39935 6.27429 60.4732
9112212 6.46528 10.1668 22.099 21.6372 1.34168 6.73468 60.3684
9112222 6.14819 9.63272 22.5518 22.1828 1.28707 7.17677 60.5155
9112232 6.14819 9.63272 22.5518 22.1828 1.28707 7.17677 60.5155
9112242 5.7342 9.12622 22.916 22.6602 1.29729 7.62347 60.4366
9112252 5.37306 8.68418 23.3196 23.1181 1.28505 8.02888 60.4949
9112281 5.08238 8.2974 23.7134 23.5564 1.26055 8.38176 60.6496
9112284 5.08238 8.2974 23.7134 23.5564 1.26055 8.38176 60.6496
9112292 4.75648 7.87378 23.9693 23.9559 1.28142 8.7428 60.5554
9112303 4.50984 7.54225 24.3434 24.3748 1.26041 9.05033 60.7703
9112313 4.50984 7.54225 24.3434 24.3748 1.26041 9.05033 60.7703
9112323 4.2456 7.29361 24.5698 24.5696 1.25574 9.29493 60.6786
9112333 4.0342 7.01733 24.7863 24.8619 1.25976 9.53793 60.6998
9112353 3.85803 6.79632 25.0718 25.1834 1.2518 9.75237 60.9095
9112365 3.85803 6.79632 25.0718 25.1834 1.2518 9.75237 60.9095
9112373 3.60259 6.50163 25.3277 25.3393 1.19734 10.012 60.7712
9112383 3.43523 6.22535 25.7116 25.6023 1.09914 10.2469 60.9745
9112404 3.27668 5.9675 25.8691 25.914 1.12069 10.4557 61.0274
9112415 3.03005 5.68201 26.2235 26.1868 1.06969 10.724 61.1224
9112425 3.03005 5.68201 26.2235 26.1868 1.06969 10.724 61.1224
9112435 2.95959 5.54388 26.3909 26.3719 1.04681 10.8361 61.2662
9112445 2.95959 5.54388 26.3909 26.3719 1.04681 10.8361 61.2662
9112454 2.68653 5.24919 26.5877 26.6057 1.05541 11.1054 61.1292
9112465 2.58964 5.03738 26.7846 26.7226 0.975633 11.2572 61.1343
9112485 2.46632 4.87161 26.8732 26.8688 0.982675 11.3959 61.0799
9112495 2.40466 4.72427 26.9126 26.9175 0.953311 11.4916 60.959
9112506 2.40466 4.72427 26.9126 26.9175 0.953311 11.4916 60.959
9112516 2.35181 4.62297 27.1882 27.0246 0.861126 11.5803 61.1876
9112526 2.35181 4.62297 27.1882 27.0246 0.861126 11.5803 61.1876
9112536 2.20207 4.42958 27.1882 27.1513 0.898215 11.737 60.9711
9112546 2.20207 4.448 27.2768 27.1513 0.867918 11.7337 61.0781
9112556 2.20207 4.448 27.2768 27.1513 0.867918 11.7337 61.0781
9112566 2.17565 4.33749 27.2472 27.0539 0.809208 11.787 60.8143
9112577 2.21969 4.42037 27.198 27.0831 0.85592 11.7302 60.9212
9112587 2.21969 4.42037 27.198 27.0831 0.85592 11.7302 60.9212
9112598 2.23731 4.448 27.1783 27.0734 0.863883 11.7087 60.937
9112607 2.29896 4.448 27.2177 27.0734 0.821075 11.6839 61.038
9112627 2.36062 4.5493 27.2276 26.9857 0.796252 11.6085 61.1232
9112637 2.36062 4.5493 27.2276 26.9857 0.796252 11.6085 61.1232
9112647 2.34301 4.59534 27.0602 26.9759 0.888917 11.5863 60.9745
9112657 2.40466 4.62297 27.0504 26.9175 0.854737 11.5435 60.9955
9112667 2.40466 4.62297 27.0504 26.9175 0.854737 11.5435 60.9955
9112678 2.45751 4.63218 26.9323 26.9272 0.889936 11.5104 60.9492
9112688 2.47513 4.63218 26.8338 26.9175 0.920457 11.4965 60.8586
9112698 2.47513 4.63218 26.8338 26.9175 0.920457 11.4965 60.8586
9112708 2.58083 4.74269 26.7157 26.7226 0.892338 11.3842 60.7618
9112718 2.58083 4.74269 26.7157 26.7226 0.892338 11.3842 60.7618
9112728 2.59845 4.88082 26.5976 26.6447 0.959095 11.3048 60.7215
9112738 2.79223 5.07421 26.4204 26.557 0.993782 11.1213 60.8438
9112759 2.88912 5.2584 26.1743 26.3232 1.03809 10.9696 60.645
9112770 3.02124 5.44258 26.0069 26.2453 1.09512 10.818 60.716
9112778 3.02124 5.44258 26.0069 26.2453 1.09512 10.818 60.716
9112791 3.14456 5.53467 25.8002 26.0894 1.10588 10.7011 60.5689
9112798 3.14456 5.53467 25.8002 26.0894 1.10588 10.7011 60.5689
9112810 3.31192 5.73727 25.5541 25.9043 1.14676 10.5134 60.5076
9112818 3.48808 5.99512 25.2588 25.7095 1.22316 10.2938 60.4515
9112830 3.48808 5.99512 25.2588 25.7095 1.22316 10.2938 60.4515
9112839 3.76995 6.2714 24.8946 25.3782 1.23729 10.0055 60.3142
9112853 3.76995 6.2714 24.8946 25.3782 1.23729 10.0055 60.3142
9112858 4.06943 6.65818 24.5599 25.008 1.25915 9.66249 60.2956
9112868 4.3601 7.02654 24.176 24.6963 1.32208 9.33114 60.2589
9112892 4.76529 7.39491 23.9004 24.3943 1.29166 8.96565 60.4549
9112914 5.15285 7.6896 23.4673 24.0533 1.29332 8.61739 60.363
9112917 5.15285 7.6896 23.4673 24.0533 1.29332 8.61739 60.363
9112922 5.61088 7.96587 23.0735 23.7513 1.25524 8.25676 60.4016
9112939 5.61088 7.96587 23.0735 23.7513 1.25524 8.25676 60.4016
9112941 5.96321 8.18689 22.6109 23.2057 1.17504 7.92102 59.9667
9112949 6.35959 8.62893 22.2368 22.7186 1.14738 7.49874 59.944
9112960 6.35959 8.62893 22.2368 22.7186 1.14738 7.49874 59.944
9112970 6.65026 9.04334 21.784 22.2315 1.18934 7.11498 59.7091
9112980 6.94974 9.53142 21.469 21.6957 1.1771 6.7105 59.6459
9112992 6.94974 9.53142 21.469 21.6957 1.1771 6.7105 59.6459
9113000 7.16995 9.84453 21.2721 21.3645 1.15962 6.443 59.6511
9113021 7.3285 10.2221 21.0753 20.8968 1.14039 6.15433 59.5227
9113031 7.57513 10.6365 20.8587 20.439 1.10976 5.8191 59.5093
9113041 7.57513 10.6365 20.8587 20.439 1.10976 5.8191 59.5093
9113051 7.8658 11.2443 20.524 19.8155 1.12278 5.35648 59.4496
9113061 8.21813 11.7692 20.1401 19.2017 1.10093 4.89333 59.3292
9113081 8.73782 12.4047 19.6381 18.5295 1.07833 4.30579 59.3101
9113091 9.15181 13.0677 19.0475 17.7891 1.125 3.71267 59.0561
9113103 9.15181 13.0677 19.0475 17.7891 1.125 3.71267 59.0561
9113111 9.70674 13.6479 18.5553 17.2046 1.09552 3.14777 59.1145
9113122 9.70674 13.6479 18.5553 17.2046 1.09552 3.14777 59.1145
9113131 10.1383 14.2465 17.9844 16.467 1.10083 2.56641 58.8362
9113142 10.5876 14.8451 17.5512 15.8959 1.10484 2.04174 58.8797
9113151 10.5876 14.8451 17.5512 15.8959 1.10484 2.04174 58.8797
9113161 11.028 15.4437 17.1477 15.3057 1.09195 1.52271 58.925
9113182 11.3979 15.9133 16.7609 14.7441 1.06207 1.06953 58.8162
9113192 11.8383 16.3922 16.2722 14.2206 1.06529 0.577853 58.7233
9113203 11.8383 16.3922 16.2722 14.2206 1.06529 0.577853 58.7233
9113212 12.2435 16.8803 15.8251 13.7542 1.09273 0.116383 58.7031
9113223 12.6751 17.3696 15.2948 13.1545 1.09164 -0.409108 58.494
9113242 13.0803 17.7975 14.9725 12.6691 1.03119 -0.829527 58.5194
9113252 13.0803 17.7975 17.1181 12.6691 0.110501 -0.269656 60.665
9113265 13.556 18.2935 14.463 12.2408 1.07393 -1.31821 58.5532
9113272 13.9964 18.8576 13.9119 11.8029 1.17476 -1.82839 58.5688
9113282 13.9964 18.8576 13.9119 11.8029 1.17476 -1.82839 58.5688
9113292 14.4984 19.3535 13.4232 11.1557 1.10708 -2.38053 58.4309
9113307 14.9565 19.869 12.8826 10.6321 1.14076 -2.90814 58.3402
9113313 14.9565 19.869 12.8826 10.6321 1.14076 -2.90814 58.3402
9113323 15.3617 20.2386 12.3523 10.1753 1.16118 -3.37343 58.1278
9113334 15.3617 20.2386 12.3523 10.1753 1.16118 -3.37343 58.1278
9113343 15.7845 20.6178 11.9572 9.81355 1.15593 -3.77277 58.173
9113353 16.1896 21.0069 11.5205 9.43281 1.1735 -4.19001 58.1498
9113363 16.1896 21.0069 11.5205 9.43281 1.1735 -4.19001 58.1498
9113373 16.6036 21.3375 11.167 9.1187 1.15309 -4.54829 58.2268
9113383 16.815 21.5904 10.7823 8.80459 1.20606 -4.86752 57.9923
9113393 16.815 21.5904 10.7823 8.80459 1.20606 -4.86752 57.9923
9113403 17.0199 21.853 10.5639 8.70941 1.28062 -5.05611 58.1462
9113415 17.0199 21.853 10.5639 8.70941 1.28062 -5.05611 58.1462
9113423 17.1893 21.9794 10.4183 8.49048 1.23206 -5.23263 58.0776
9113434 17.4285 22.1739 10.2936 8.31915 1.18998 -5.4083 58.2151
9113443 17.4285 22.1739 10.2936 8.31915 1.18998 -5.4083 58.2151
9113453 17.6079 22.2323 10.1584 8.10974 1.10817 -5.56856 58.1083
9113463 17.7573 22.3101 10.0336 8.07167 1.11339 -5.66299 58.1727
9113474 17.7573 22.3101 10.0336 8.07167 1.11339 -5.66299 58.1727
9113483 17.8968 22.4073 9.99205 7.99552 1.07818 -5.74265 58.2917
9113504 18.0064 22.3879 9.88807 7.97648 1.05985 -5.80077 58.2589
9113517 18.1161 22.4851 9.7945 7.96697 1.08868 -5.87012 58.3626
9113537 18.126 22.3587 9.80489 7.91937 1.00807 -5.86519 58.209
9113548 18.0264 22.2517 9.92966 7.96697 0.972348 -5.77092 58.1747
9113559 18.0264 22.2517 9.92966 7.96697 0.972348 -5.77092 58.1747
9113571 17.9068 22.0086 10.0752 8.01456 0.879711 -5.64405 58.0052
9113576 17.9068 22.0086 10.252 8.01456 0.801086 -5.58133 58.1819
9113586 17.6776 21.853 10.252 8.27156 0.94521 -5.42779 58.0541
9113596 17.3388 21.4834 10.6679 8.62374 0.903597 -5.04112 58.1138
9113607 17.3388 21.4834 10.6679 8.62374 0.903597 -5.04112 58.1138
9113621 17.0797 21.1916 11.063 8.92833 0.848424 -4.70628 58.2627
9113626 16.8062 20.8318 11.4997 9.39474 0.82033 -4.29085 58.5325
9113643 16.8062 20.8318 11.4997 9.39474 0.82033 -4.29085 58.5325
9113647 16.5508 20.6373 11.9052 9.74692 0.819272 -3.96055 58.8402
9113657 16.3218 20.3747 12.2795 10.0801 0.784639 -3.64151 59.0561
9113669 16.3218 20.3747 12.2795 10.0801 0.784639 -3.64151 59.0561
9113677 16.1896 20.1219 12.4875 10.3085 0.741556 -3.4299 59.1075
9113697 16.0751 19.9954 12.6018 10.318 0.693539 -3.34394 58.9904
9113710 16.1984 20.0051 12.5187 10.2038 0.632936 -3.43171 58.9261
9113736 16.172 20.0441 12.3003 10.0896 0.708678 -3.53876 58.606
9113738 16.1544 19.9565 12.1443 9.96585 0.697181 -3.60713 58.2211
9113748 16.1544 19.9565 12.1443 9.96585 0.697181 -3.60713 58.2211
9113758 16.1544 19.9954 12.1651 9.88018 0.668466 -3.63549 58.1951
9113768 16.1544 19.9954 12.1651 9.88018 0.668466 -3.63549 58.1951
9113779 16.128 19.9176 12.1235 9.91825 0.68188 -3.61622 58.0874
9113788 16.1896 19.9565 12.2275 9.98488 0.652963 -3.58142 58.3586
9113798 16.1896 19.9565 12.2275 9.98488 0.652963 -3.58142 58.3586
9113808 16.2249 19.8982 12.2795 10.061 0.622103 -3.53618 58.4636
9113819 16.2249 19.8982 12.2795 10.061 0.622103 -3.53618 58.4636
9113831 16.2073 19.8204 12.4251 10.0705 0.537643 -3.46836 58.5232
9113839 16.2073 19.7426 12.5706 10.2324 0.509349 -3.35647 58.7528
9113848 16.2073 19.7426 12.5706 10.2324 0.509349 -3.35647 58.7528
9113859 16.0135 19.6939 12.6538 10.28 0.557032 -3.2674 58.6412
9113868 15.987 19.5383 12.7682 10.4227 0.513411 -3.15103 58.7163
9113878 15.987 19.5383 12.7682 10.4227 0.513411 -3.15103 58.7163
9113888 15.8813 19.4119 12.7994 10.4703 0.512904 -3.07964 58.563
9113898 15.6964 19.2368 12.9761 10.6226 0.506964 -2.90468 58.532
9113908 15.6964 19.2368 12.9761 10.6226 0.506964 -2.90468 58.532
9113918 15.5642 19.0423 13.2361 10.8606 0.469559 -2.68552 58.7032
9113931 15.5642 19.0423 13.2361 10.8606 0.469559 -2.68552 58.7032
9113941 15.3264 18.7895 13.3505 11.0605 0.501078 -2.48731 58.5268
9113950 15.2119 18.6047 13.6 11.3175 0.472572 -2.27274 58.7341
9113960 15.2119 18.6047 13.6 11.3175 0.472572 -2.27274 58.7341
9113970 15.0358 18.4588 13.8599 11.603 0.494486 -2.0434 58.9575
9113980 14.7539 18.0892 14.1927 11.9171 0.44944 -1.71323 58.9529
9113990 14.7539 18.0892 14.1927 11.9171 0.44944 -1.71323 58.9529
9114000 14.4632 17.8364 14.4838 12.3359 0.518158 -1.39037 59.1193
9114010 14.4632 17.8364 14.4838 12.3359 0.518158 -1.39037 59.1193
9114019 14.1373 17.4668 14.7541 12.6025 0.499421 -1.0806 58.9607
9114030 13.785 17.1848 15.2116 12.9737 0.491029 -0.706056 59.1551
9114042 13.785 17.1848 15.2116 12.9737 0.491029 -0.706056 59.1551
9114051 13.4679 16.825 15.5339 13.4115 0.521088 -0.341187 59.2384
9114061 13.0979 16.4106 16.0122 13.8303 0.476322 0.0844216 59.3511
9114071 13.0979 16.4106 16.0122 13.8303 0.476322 0.0844216 59.3511
9114081 12.6399 15.9594 16.4489 14.2777 0.483879 0.537887 59.3259
9114091 12.6399 15.9594 16.4489 14.2777 0.483879 0.537887 59.3259
9114101 12.1466 15.5081 17.0197 14.7917 0.476539 1.04849 59.4662
9114111 11.7767 15.1582 17.4922 15.3247 0.50796 1.47663 59.7518
9114121 11.7767 15.1582 17.4922 15.3247 0.50796 1.47663 59.7518
9114132 11.3275 14.6425 17.945 15.9149 0.536901 1.9781 59.8298
9114141 11.3275 14.6425 17.945 15.9149 0.536901 1.9781 59.8298
9114151 10.8518 14.2004 18.4864 16.4099 0.53049 2.46312 59.9485
9114162 10.4642 13.7584 18.949 16.9048 0.520134 2.9041 60.0765
9114172 10.4642 13.7584 18.949 16.9048 0.520134 2.9041 60.0765
9114182 10.0238 13.344 19.3231 17.3994 0.58099 3.33366 60.0904
9114192 9.61865 12.9756 19.6873 17.7307 0.583345 3.70517 60.0123
9114202 9.61865 12.9756 19.6873 17.7307 0.583345 3.70517 60.0123
9114212 9.30155 12.552 20.1008 18.1691 0.548351 4.09564 60.1234
9114222 8.94041 12.1008 20.465 18.5977 0.537854 4.49759 60.1039
9114233 8.94041 12.1008 20.465 18.5977 0.537854 4.49759 60.1039
9114242 8.54404 11.7508 20.7111 19.114 0.669393 4.87282 60.12
9114253 8.54404 11.7508 20.7111 19.114 0.669393 4.87282 60.12
9114262 8.23575 11.3456 21.0753 19.5914 0.674707 5.24963 60.248
9114272 7.92746 11.097 21.2131 19.9226 0.780857 5.51311 60.1601
9114282 7.92746 11.097 21.2131 19.9226 0.780857 5.51311 60.1601
9114292 7.72487 10.7839 21.469 20.3026 0.784892 5.78867 60.2803
9114302 7.35492 10.4892 21.6954 20.6241 0.857201 6.10221 60.1636
9114312 7.35492 10.4892 21.6954 20.6241 0.857201 6.10221 60.1636
9114322 7.15233 10.2221 21.9809 20.9553 0.847355 6.35753 60.3106
9114332 7.15233 10.2221 21.9809 20.9553 0.847355 6.35753 60.3106
9114349 6.80881 9.89057 22.2565 21.3547 0.903648 6.69332 60.3106
9114352 6.51813 9.54063 22.5518 21.7152 0.905854 7.01398 60.3258
9114363 6.51813 9.54063 22.5518 21.7152 0.905854 7.01398 60.3258
9114373 6.28912 9.29198 22.8373 22.1244 0.945583 7.27929 60.5427
9114383 5.98083 8.94204 23.0637 22.4653 0.977159 7.59434 60.4519
9114393 5.98083 8.94204 23.0637 22.4653 0.977159 7.59434 60.4519
9114403 5.76062 8.66576 23.5067 22.894 0.942206 7.88488 60.827
9114443 5.39067 8.26056 23.9201 23.4103 0.96755 8.28426 60.9816
9114445 5.01192 7.7909 24.3926 23.9948 0.972882 8.72311 61.1902
9114453 4.56269 7.35807 24.806 24.404 0.978789 9.14987 61.1308
9114463 4.2544 7.35807 25.1112 24.404 0.980121 9.30087 61.1277
9114473 4.2544 6.83315 25.1112 24.8327 0.942236 9.54991 61.0314
9114483 3.89326 6.40953 25.5246 25.1834 0.891253 9.93395 61.0108
9114493 3.89326 6.40953 25.5246 25.1834 0.891253 9.93395 61.0108
9114504 3.60259 6.0688 25.7018 25.4074 0.893322 10.2264 60.7806
9114513 3.39119 5.79252 25.8888 25.4756 0.820896 10.4497 60.5482
9114523 3.39119 5.79252 25.8888 25.4756 0.820896 10.4497 60.5482
9114533 3.22383 5.60834 26.0857 25.612 0.789213 10.6226 60.5299
9114543 3.22383 5.60834 26.0857 25.612 0.789213 10.6226 60.5299
9114555 3.11813 5.39653 26.253 25.7387 0.728866 10.7783 60.5064
9114565 3.10933 5.34128 26.3712 25.8264 0.695464 10.8199 60.6481
9114574 3.10933 5.34128 26.3712 25.8264 0.695464 10.8199 60.6481
9114586 3.07409 5.23077 26.4794 25.8166 0.616264 10.8887 60.6009
9114595 3.10933 5.19393 26.4007 25.8166 0.619844 10.8841 60.5206
9114615 3.26788 5.31365 26.253 25.651 0.596726 10.7437 60.4856
9114630 3.26788 5.31365 26.253 25.651 0.596726 10.7437 60.4856
9114635 3.40881 5.44258 26.1841 25.5244 0.567204 10.6152 60.5599
9114645 3.49689 5.63597 26.1644 25.3782 0.557414 10.4844 60.6755
9114665 3.54093 5.82936 26.1546 25.2808 0.581619 10.3769 60.8057
9114675 3.6114 5.82936 26.194 25.4269 0.594038 10.3617 61.0617
9114685 3.6114 5.82936 26.194 25.4269 0.594038 10.3617 61.0617
9114695 3.44404 5.7649 26.3219 25.6218 0.662556 10.4823 61.1527
9114705 3.44404 5.7649 26.3219 25.6218 0.662556 10.4823 61.1527
9114718 3.35596 5.58992 26.3416 25.7387 0.668162 10.6023 61.0262
9114725 3.32073 5.57151 26.4204 25.9725 0.735453 10.6471 61.2851
9114735 3.32073 5.57151 26.4204 25.9725 0.735453 10.6471 61.2851
9114746 3.25026 5.48862 26.3515 25.9433 0.749651 10.7046 61.0336
9114755 3.19741 5.45179 26.3023 25.8946 0.758752 10.7355 60.846
9114766 3.19741 5.45179 26.3023 25.8946 0.758752 10.7355 60.846
9114776 3.12694 5.47021 26.2924 25.953 0.823376 10.761 60.8426
9114786 3.12694 5.47021 26.2924 25.953 0.823376 10.761 60.8426
9114796 3.10933 5.31365 26.3613 25.9725 0.747034 10.841 60.7568
9114811 3.09171 5.3597 26.4105 25.9822 0.7559 10.8329 60.8442
9114821 3.09171 5.3597 26.4105 25.9822 0.7559 10.8329 60.8442
9114833 3.10933 5.30444 26.4499 26.0017 0.717536 10.8529 60.8654
9114839 3.07409 5.35049 26.4007 26.0017 0.771621 10.845 60.827
9114846 3.07409 5.35049 26.4007 26.0017 0.771621 10.845 60.827
9114856 3.15337 5.29523 26.3909 25.9433 0.696862 10.8301 60.7827
9114867 3.15337 5.29523 26.3909 25.9433 0.696862 10.8301 60.7827
9114878 3.15337 5.3597 26.2826 25.914 0.756797 10.7932 60.7097
9114887 3.21503 5.42416 26.2334 25.7484 0.71106 10.7247 60.621
9114907 3.33834 5.63597 26.1644 25.6413 0.729862 10.5704 60.78
9114917 3.52332 5.71885 26.1349 25.4659 0.627238 10.4429 60.843
9114927 3.52332 5.71885 26.1349 25.4659 0.627238 10.4429 60.843
9114937 3.54974 5.8662 26.0463 25.388 0.681221 10.3578 60.8502
9114947 3.54974 5.8662 26.0463 25.388 0.681221 10.3578 60.8502
9114957 3.65544 5.97671 25.9479 25.1542 0.628781 10.2421 60.7342
9114968 3.78756 6.11484 25.8199 24.9983 0.619903 10.1076 60.7206
9114978 3.78756 6.11484 25.8199 24.9983 0.619903 10.1076 60.7206
9114990 3.84041 6.22535 25.7116 24.8327 0.62117 10.0178 60.6101
9114998 4.043 6.31744 25.5345 24.6476 0.572965 9.86619 60.5425
9115010 4.043 6.31744 25.5345 24.6476 0.572965 9.86619 60.5425
9115018 4.20155 6.44637 25.4262 24.3845 0.497517 9.71642 60.4586
9115029 4.20155 6.44637 25.4262 24.3845 0.497517 9.71642 60.4586
9115038 4.34249 6.65818 25.2391 24.1117 0.492239 9.53171 60.3516
9115048 4.51865 6.95287 25.1702 23.8097 0.444043 9.30708 60.4515
9115075 4.73005 7.26598 24.9931 23.3032 0.350803 9.03106 60.2922
9115078 4.95907 7.63434 24.6584 22.9427 0.398543 8.72364 60.1945
9115098 5.30259 7.92904 24.2548 22.5043 0.365043 8.38316 59.9907
9115122 5.65492 8.33424 23.9102 21.9295 0.291908 7.98542 59.8289
9115128 6.07772 8.88678 23.5854 21.2963 0.217196 7.49852 59.8462
9115150 6.50933 9.44854 23.1228 20.7117 0.22085 6.99336 59.7924
9115161 6.92332 9.99187 22.6995 20.0298 0.167191 6.49199 59.6445
9115172 6.92332 9.99187 22.6995 20.0298 0.167191 6.49199 59.6445
9115183 7.46943 10.5536 22.1285 19.2699 0.0948995 5.90074 59.4215
9115205 8.03316 11.2811 21.4789 18.3347 0.0438839 5.2004 59.1278
9115211 8.80829 11.9166 20.8587 17.5456 -0.086619 4.48495 59.1291
9115221 8.80829 11.9166 20.8587 17.5456 -0.086619 4.48495 59.1291
9115231 9.51295 12.6625 20.15 16.6859 -0.133246 3.7265 59.0113
9115241 10.1912 13.3164 19.5298 15.9054 -0.211763 3.0354 58.9427
9115261 10.9223 13.9702 18.8605 15.1344 -0.287899 2.31858 58.8873
9115271 10.9223 13.9702 18.8605 15.1344 -0.287899 2.31858 58.8873
9115283 11.5124 14.5872 18.2403 14.411 -0.321077 1.67273 58.7509
9115291 12.1114 15.1582 17.5709 13.7923 -0.312059 1.04727 58.6328
9115301 12.1114 15.1582 17.5709 13.7923 -0.312059 1.04727 58.6328
9115311 12.5959 15.7291 17.0098 13.1545 -0.308613 0.471722 58.4894
9115321 13.0979 16.3462 16.4073 12.6786 -0.205237 -0.0917807 58.53
9115342 13.6617 16.8803 15.7731 12.1837 -0.158469 -0.662887 58.4987
9115352 13.6617 16.8803 15.7731 12.1837 -0.158469 -0.662887 58.4987
9115365 14.1373 17.3987 15.1284 11.6506 -0.0927672 -1.22361 58.3151
9115372 14.6218 17.9823 14.6502 11.2032 -0.0369519 -1.73219 58.4574
9115392 15.0446 18.4491 13.9847 10.7749 0.0835687 -2.24898 58.2533
9115405 15.4057 18.9062 13.5168 10.4608 0.190628 -2.65938 58.2895
9115412 15.4057 18.9062 13.5168 10.4608 0.190628 -2.65938 58.2895
9115422 15.7316 19.3633 13.0801 10.1181 0.287205 -3.06124 58.2931
9115442 15.987 19.5772 12.6642 9.7374 0.286102 -3.40614 57.9659
9115452 16.2073 19.9273 12.3939 9.4804 0.347626 -3.68745 58.0089
9115462 16.2073 19.9273 12.3939 9.4804 0.347626 -3.68745 58.0089
9115473 16.4627 20.3066 12.082 9.30907 0.460389 -3.96618 58.1604
9115482 16.7446 20.5887 11.7388 9.09015 0.513831 -4.25644 58.1622
9115493 16.7446 20.5887 11.7388 9.09015 0.513831 -4.25644 58.1622
9115502 16.9736 20.9582 11.4997 8.89978 0.593483 -4.50848 58.3313
9115524 17.2292 21.2305 11.167 8.6523 0.637743 -4.79773 58.279
9115535 17.5381 21.5223 10.8758 8.47144 0.6762 -5.06264 58.4077
9115543 17.5381 21.5223 10.8758 8.47144 0.6762 -5.06264 58.4077
9115557 17.7673 21.8919 10.5847 8.25252 0.766027 -5.33929 58.4964
9115563 18.0064 22.0864 10.3144 7.92889 0.72616 -5.61819 58.3361
9115573 18.0064 22.0864 10.3144 7.92889 0.72616 -5.61819 58.3361
9115583 18.1858 22.3587 10.0232 7.70045 0.793782 -5.87477 58.2682
9115595 18.1858 22.3587 10.0232 7.70045 0.793782 -5.87477 58.2682
9115604 18.3652 22.4851 9.73211 7.46249 0.796935 -6.11312 58.0449
9115613 18.5645 22.6407 9.56575 7.32923 0.791621 -6.27629 58.1002
9115633 18.5844 22.7088 9.42018 7.14838 0.80044 -6.40958 57.8618
9115644 18.5944 22.6991 9.32661 7.18645 0.849625 -6.43018 57.8065
9115664 18.7339 22.7088 9.3578 7.12934 0.753701 -6.46184 57.9298
9115673 18.7339 22.7088 9.3578 7.12934 0.753701 -6.46184 57.9298
9115687 18.6542 22.7088 9.44098 7.15789 0.764108 -6.40872 57.9618
9115695 18.6442 22.6407 9.46177 7.30067 0.790492 -6.33684 58.0474
9115704 18.6442 22.6407 9.46177 7.30067 0.790492 -6.33684 58.0474
9115715 18.6641 22.6213 9.59694 7.40538 0.757271 -6.24911 58.2877
9115725 18.5047 22.4559 9.7841 7.52912 0.727719 -6.08697 58.2738
9115745 18.3951 22.3295 9.97125 7.69093 0.708261 -5.92491 58.3868
9115755 18.3951 22.3295 9.97125 7.69093 0.708261 -5.92491 58.3868
9115765 18.136 22.1739 10.1584 7.90034 0.762329 -5.71826 58.3686
9115775 17.9467 21.9113 10.5015 8.12878 0.680444 -5.44408 58.4883
9115785 17.9467 21.9113 10.5015 8.12878 0.680444 -5.44408 58.4883
9115796 17.8072 21.7168 10.6783 8.32867 0.666335 -5.25799 58.5309
9115806 17.5281 21.3862 11.0422 8.53807 0.578639 -4.9579 58.4946
9115825 17.2591 21.0652 11.3957 8.80459 0.519013 -4.64522 58.5246
9115835 17.2591 21.0652 11.3957 8.80459 0.519013 -4.64522 58.5246
9115845 16.9472 20.7248 11.7388 9.18533 0.522292 -4.28727 58.5961
9115855 16.7093 20.4039 12.1339 9.45185 0.431213 -3.96789 58.699
9115865 16.7093 20.4039 12.1339 9.45185 0.431213 -3.96789 58.699
9115875 16.3658 20.0343 12.4979 9.78499 0.407127 -3.60853 58.683
9115885 16.0663 19.6356 12.9657 10.1467 0.318891 -3.21081 58.8143
9115897 16.0663 19.6356 12.9657 10.1467 0.318891 -3.21081 58.8143
9115908 15.714 19.2952 13.3505 10.5084 0.313896 -2.84118 58.868
9115929 15.3088 18.77 13.8807 10.9462 0.223547 -2.35593 58.9058
9115936 14.8772 18.3324 14.411 11.4602 0.213441 -1.86312 59.0808
9115946 14.8772 18.3324 14.411 11.4602 0.213441 -1.86312 59.0808
9115956 14.4632 17.8169 15.0557 12.0314 0.138721 -1.31212 59.3672
9115966 13.9259 17.2334 15.5651 12.5739 0.133339 -0.764002 59.2984
9115977 13.9259 17.2334 15.5651 12.5739 0.133339 -0.764002 59.2984
9115986 13.6 16.6685 16.189 13.1355 0.00628233 -0.237608 59.593
9115998 13.6 16.6685 16.189 13.1355 0.00628233 -0.237608 59.593
9116006 13.1332 16.1251 16.6153 13.5638 -0.0250205 0.232385 59.4374
9116020 12.7808 15.6463 17.1378 14.0207 -0.10559 0.687608 59.5856
9116026 12.7808 15.6463 17.1378 14.0207 -0.10559 0.687608 59.5856
9116037 12.3668 15.1766 17.5611 14.449 -0.126895 1.12505 59.5536
9116046 12.3668 15.1766 17.5611 14.449 -0.126895 1.12505 59.5536
9116056 11.9881 14.7438 17.9942 14.925 -0.13141 1.55588 59.651
9116066 11.6798 14.2833 18.4076 15.3438 -0.192721 1.95639 59.7145
9116076 11.6798 14.2833 18.4076 15.3438 -0.192721 1.95639 59.7145
9116086 11.3627 13.9518 18.7522 15.7055 -0.191389 2.29451 59.7721
9116105 11.0808 13.6018 19.1558 16.0386 -0.248891 2.63333 59.8771
9116111 11.0808 13.6018 19.1558 16.0386 -0.248891 2.63333 59.8771
9116120 10.7725 13.2703 19.5298 16.3052 -0.303489 2.95404 59.8778
9116127 10.7725 13.2703 19.5298 16.3052 -0.303489 2.95404 59.8778
9116137 10.4554 12.8743 19.8054 16.6288 -0.316989 3.28905 59.764
9116149 10.1119 12.552 20.1893 16.9429 -0.337134 3.62941 59.7962
9116157 10.1119 12.552 20.1893 16.9429 -0.337134 3.62941 59.7962
9116171 9.82124 12.1928 20.4847 17.2533 -0.359719 3.94728 59.752
9116177 9.50414 11.8061 20.9768 17.6819 -0.41395 4.33939 59.969
9116187 9.50414 11.8061 20.9768 17.6819 -0.41395 4.33939 59.969
9116197 9.17824 11.5666 21.3115 18.0716 -0.354035 4.64965 60.128
9116207 9.17824 11.5666 21.3115 18.0716 -0.354035 4.64965 60.128
9116219 8.85233 11.1522 21.725 18.4516 -0.4044 5.02782 60.1811
9116227 8.42953 10.7562 22.1876 19.0069 -0.353608 5.46753 60.3802
9116237 8.42953 10.7562 22.1876 19.0069 -0.353608 5.46753 60.3802
9116247 7.94508 10.3602 22.601 19.4648 -0.298622 5.9036 60.3711
9116257 7.47824 9.87216 23.1917 20.0395 -0.312884 6.40809 60.5816
9116278 7.02902 9.33803 23.5854 20.6728 -0.248912 6.90088 60.6252
9116288 7.02902 9.33803 23.5854 20.6728 -0.248912 6.90088 60.6252
9116299 6.63264 8.89599 24.0481 21.1307 -0.269346 7.32615 60.7074
9116308 6.20984 8.56446 24.2942 21.5788 -0.148702 7.69168 60.6473
9116328 5.9456 8.25135 24.5501 21.8808 -0.1499 7.97504 60.6278
9116338 5.64611 7.94745 24.7174 22.1926 -0.0923648 8.25978 60.5035
9116348 5.64611 7.94745 24.7174 22.1926 -0.0923648 8.25978 60.5035
9116358 5.49637 7.80011 24.7863 22.3679 -0.0474319 8.40133 60.4507
9116368 5.49637 7.80011 24.7863 22.3679 -0.0474319 8.40133 60.4507
9116378 5.24974 7.6896 24.8552 22.4751 0.0247598 8.55928 60.2696
9116390 5.21451 7.62514 24.934 22.553 0.0122845 8.61494 60.3266
9116412 5.14404 7.65276 24.9241 22.6407 0.0932992 8.63993 60.3616
9116418 5.06477 7.59751 24.9537 22.7771 0.147426 8.71006 60.393
9116440 5.08238 7.57909 24.9143 22.7673 0.144899 8.70526 60.3431
9116460 5.03834 7.5883 24.9045 22.9427 0.24316 8.73614 60.4738
9116470 5.00311 7.56988 24.934 23.0011 0.261921 8.7663 60.5081
9116480 5.00311 7.56988 24.934 23.0011 0.261921 8.7663 60.5081
9116490 4.95907 7.51463 24.9045 23.1083 0.313875 8.81332 60.4865
9116500 4.8886 7.56067 24.9143 23.196 0.393727 8.83288 60.5596
9116510 4.8886 7.56067 24.9143 23.196 0.393727 8.83288 60.5596
9116520 4.8886 7.50542 24.9143 23.2642 0.398985 8.86156 60.5725
9116541 4.73886 7.41333 24.9438 23.3616 0.451654 8.9699 60.4576
9116550 4.75648 7.40412 25.0029 23.3908 0.427541 8.97536 60.5543
9116561 4.75648 7.40412 25.0029 23.3908 0.427541 8.97536 60.5543
9116570 4.73005 7.30282 25.0423 23.537 0.440279 9.04432 60.6121
9116583 4.56269 7.19231 25.1309 23.761 0.519308 9.18519 60.6469
9116590 4.56269 7.19231 25.1309 23.761 0.519308 9.18519 60.6469
9116600 4.44819 6.99892 25.3179 24.0143 0.51299 9.34984 60.7793
9116610 4.44819 6.99892 25.3179 24.0143 0.51299 9.34984 60.7793
9116620 4.28083 6.75948 25.4951 24.2092 0.490883 9.54751 60.7446
9116631 4.13109 6.52004 25.6329 24.5209 0.52503 9.74493 60.8049
9116641 4.13109 6.52004 25.6329 24.5209 0.52503 9.74493 60.8049
9116651 3.89326 6.34507 25.8593 24.7645 0.557399 9.95335 60.8621
9116661 3.75233 6.18852 25.9577 24.9398 0.582808 10.0981 60.8384
9116671 3.75233 6.18852 25.9577 24.9398 0.582808 10.0981 60.8384
9116681 3.68187 6.01354 26.0266 25.1054 0.579706 10.2182 60.8275
9116692 3.68187 6.01354 26.0266 25.1054 0.579706 10.2182 60.8275
9116701 3.47047 5.8662 26.1251 25.2711 0.634632 10.388 60.7328
9116715 3.43523 5.6636 26.3023 25.3782 0.536501 10.5089 60.7793
9116721 3.43523 5.6636 26.3023 25.3782 0.536501 10.5089 60.7793
9116731 3.36477 5.68201 26.2432 25.4367 0.621939 10.5307 60.7267
9116741 3.35596 5.59913 26.2629 25.4562 0.591874 10.5722 60.6741
9116761 3.35596 5.59913 26.2629 25.4562 0.591874 10.5722 60.6741
9116772 3.36477 5.53467 26.3121 25.4951 0.557157 10.6021 60.7067
9116782 3.33834 5.58072 26.3515 25.5536 0.59371 10.6009 60.8241
9116792 3.31192 5.57151 26.3121 25.6413 0.652874 10.6194 60.8368
9116813 3.26788 5.60834 26.3121 25.6218 0.678399 10.621 60.8101
9116822 3.25907 5.54388 26.3712 25.5341 0.596189 10.6499 60.7082
9116835 3.25907 5.54388 26.3712 25.5341 0.596189 10.6499 60.7082
9116842 3.37358 5.68201 26.2924 25.5633 0.648215 10.5399 60.9113
9116852 3.37358 5.68201 26.2924 25.5633 0.648215 10.5399 60.9113
9116864 3.38238 5.74648 26.1251 25.388 0.670737 10.4839 60.6419
9116872 3.48808 5.89382 25.9873 25.1736 0.657433 10.3511 60.5428
9116883 3.48808 5.89382 25.9873 25.1736 0.657433 10.3511 60.5428
9116892 3.54974 6.05959 25.8002 25.047 0.726393 10.2316 60.4566
9116906 3.70829 6.18852 25.7215 24.8911 0.681654 10.0933 60.5094
9116912 3.70829 6.18852 25.7215 24.8911 0.681654 10.0933 60.5094
9116922 3.84041 6.32665 25.5738 24.7645 0.692865 9.95893 60.5054
9116932 3.84041 6.32665 25.5738 24.7645 0.692865 9.95893 60.5054
9116942 4.00777 6.56609 25.5049 24.5696 0.669029 9.76959 60.6484
9116952 4.1399 6.71343 25.3966 24.4138 0.65552 9.63271 60.6637
9116962 4.1399 6.71343 25.3966 24.4138 0.65552 9.63271 60.6637
9116973 4.26321 6.90683 25.1604 24.2092 0.698879 9.46476 60.5396
9116993 4.43938 7.12784 24.8946 23.9072 0.704423 9.25174 60.369
9117003 4.60674 7.34886 24.7371 23.6344 0.679377 9.05461 60.3271
9117014 4.60674 7.34886 24.7371 23.6344 0.679377 9.05461 60.3271
9117023 4.73005 7.56988 24.4517 23.3811 0.735569 8.8636 60.1327
9117033 4.92383 7.81853 24.2548 23.1473 0.742877 8.64412 60.1444
9117043 4.92383 7.81853 24.2548 23.1473 0.742877 8.64412 60.1444
9117055 5.1 8.12243 23.9693 22.894 0.810134 8.39822 60.0857
9117063 5.1 8.12243 23.9693 22.894 0.810134 8.39822 60.0857
9117073 5.28497 8.33424 23.7035 22.5725 0.800657 8.17848 59.8952
9117083 5.56684 8.66576 23.4279 22.2218 0.790212 7.86971 59.8823
9117103 5.83109 9.15385 22.9653 21.8711 0.93134 7.48515 59.8213
9117115 6.26269 9.62351 22.5223 21.4132 0.941008 7.03322 59.8217
9117136 6.72073 10.0748 22.0892 21.004 0.947121 6.58665 59.8887
9117160 7.00259 10.4247 21.725 20.4877 0.915843 6.23375 59.6399
9117163 7.4342 11.0325 21.154 19.8934 0.98199 5.69127 59.5141
9117173 7.4342 11.0325 21.154 19.8934 0.98199 5.69127 59.5141
9117183 7.92746 11.5482 20.652 19.2699 0.942239 5.1634 59.3976
9117195 8.37668 12.1192 20.0417 18.6562 0.995445 4.61248 59.1937
9117203 8.37668 12.1192 20.0417 18.6562 0.995445 4.61248 59.1937
9117214 8.89637 12.6809 19.5003 18.0229 0.97596 4.04715 59.1005
9117235 9.49534 13.2427 18.8309 17.2728 0.930125 3.40719 58.8417
9117245 10.0415 13.9886 18.2895 16.6478 0.977433 2.77456 58.9674
9117257 10.0415 13.9886 18.2895 16.6478 0.977433 2.77456 58.9674
9117265 10.658 14.799 17.6891 15.8768 0.986379 2.06076 59.0229
9117282 11.2041 15.591 17.0197 15.0868 1.04155 1.35259 58.9016
9117285 11.2041 15.591 17.0197 15.0868 1.04155 1.35259 58.9016
9117295 11.7855 16.383 16.345 14.2777 1.07595 0.626162 58.7912
9117307 11.7855 16.383 16.345 14.2777 1.07595 0.626162 58.7912
9117315 12.3228 16.954 15.6587 13.5353 1.07221 -0.0212324 58.4707
9117332 12.8249 17.6419 14.8893 12.9927 1.25128 -0.664469 58.3488
9117337 12.8249 17.6419 14.8893 12.9927 1.25128 -0.664469 58.3488
9117345 13.3534 18.3032 14.2031 12.374 1.33978 -1.30839 58.2336
9117355 13.8466 18.8576 13.5584 11.8791 1.43252 -1.87474 58.1417
9117364 13.8466 18.8576 13.5584 11.8791 1.43252 -1.87474 58.1417
9117380 14.2606 19.5189 13.1009 11.4127 1.53105 -2.38431 58.2931
9117388 14.2606 19.5189 13.1009 11.4127 1.53105 -2.38431 58.2931
9117397 14.7715 20.0732 12.4667 10.9367 1.61884 -2.94636 58.2481
9117404 15.1943 20.5984 11.9988 10.4798 1.66684 -3.42726 58.2713
9117426 15.5995 21.0166 11.5413 10.1277 1.7172 -3.84673 58.285
9117436 15.9518 21.4445 11.1982 9.67077 1.7014 -4.25486 58.2653
9117446 15.9518 21.4445 11.1982 9.67077 1.7014 -4.25486 58.2653
9117458 16.3834 21.7363 10.7719 9.29003 1.66334 -4.65554 58.1816
9117476 16.7269 22.0572 10.3976 8.85218 1.63047 -5.04905 58.0339
9117489 17.0897 22.3587 10.0232 8.59518 1.65368 -5.38086 58.0668
9117497 17.0897 22.3587 10.0232 8.59518 1.65368 -5.38086 58.0668
9117506 17.4285 22.6116 9.7841 8.25252 1.57184 -5.68303 58.0767
9117516 17.6477 22.8255 9.55535 8.05263 1.58187 -5.90516 58.0812
9117526 17.6477 22.8255 9.55535 8.05263 1.58187 -5.90516 58.0812
9117536 17.8271 22.9228 9.337 7.84323 1.55442 -6.10295 57.9301
9117548 17.8271 22.9228 9.337 7.84323 1.55442 -6.10295 57.9301
9117556 17.9766 23.0395 9.19144 7.70045 1.54207 -6.24892 57.9079
9117572 18.1858 23.2534 9.13945 7.59574 1.51438 -6.36982 58.1744
9117576 18.1858 23.2534 9.13945 7.59574 1.51438 -6.36982 58.1744
9117586 18.4349 23.3993 9.05627 7.41489 1.42483 -6.52506 58.3054
9117607 18.5545 23.516 9.01468 7.23404 1.36356 -6.6415 58.3193
9117617 18.7837 23.6522 8.83792 7.13886 1.35647 -6.79453 58.4127
9117627 18.7837 23.6522 8.83792 7.13886 1.35647 -6.79453 58.4127
9117638 18.8933 23.6814 8.70275 6.98656 1.31807 -6.92161 58.264
9117647 18.9631 23.7397 8.56758 6.84378 1.31329 -7.04426 58.1141
9117657 18.9631 23.7397 8.56758 6.84378 1.31329 -7.04426 58.1141
9117667 19.1125 23.7883 8.54679 6.7486 1.23616 -7.11527 58.1963
9117678 19.1026 23.6814 8.5156 6.71053 1.19536 -7.12578 58.01
9117690 19.1026 23.6814 8.5156 6.71053 1.19536 -7.12578 58.01
9117698 19.2321 23.7203 8.4948 6.66293 1.14277 -7.17465 58.1101
9117708 19.2321 23.7203 8.4948 6.66293 1.14277 -7.17465 58.1101
9117718 19.1923 23.5938 8.47401 6.61534 1.09843 -7.17837 57.8754
9117729 19.1325 23.5355 8.5156 6.62486 1.08646 -7.14277 57.8084
9117748 19.0926 23.5646 8.68196 6.75812 1.09652 -7.02713 58.0973
9117758 19.0627 23.4577 8.74434 6.91041 1.10056 -6.92709 58.1751
9117780 19.0029 23.4771 8.9211 7.11982 1.14186 -6.77683 58.521
9117789 19.0029 23.4771 8.9211 7.11982 1.14186 -6.77683 58.521
9117800 18.8734 23.3021 8.99388 7.16741 1.11516 -6.68896 58.3367
9117810 18.7937 23.2145 9.18104 7.32923 1.09754 -6.53587 58.5185
9117830 18.7339 23.0492 9.38899 7.41489 0.999033 -6.39542 58.587
9117840 18.5246 22.9228 9.58654 7.58623 1.02261 -6.2115 58.6202
9117861 18.3154 22.6796 9.83609 7.69093 0.947985 -6.01517 58.522
9117871 18.3154 22.6796 9.83609 7.69093 0.947985 -6.01517 58.522
9117882 18.0662 22.3392 10.0648 7.91937 0.910929 -5.75991 58.3897
9117891 17.7773 22.0767 10.2936 8.14782 0.923592 -5.50967 58.2953
9117902 17.7773 22.0767 10.2936 8.14782 0.923592 -5.50967 58.2953
9117912 17.4385 21.639 10.5015 8.37626 0.895211 -5.22809 57.9553
9117922 17.1694 21.2986 10.9486 8.67133 0.797039 -4.86712 58.088
9117937 17.1694 21.2986 10.9486 8.67133 0.797039 -4.86712 58.088
9117942 16.8326 20.9291 11.3541 9.14726 0.810781 -4.44372 58.2631
9117952 16.4098 20.5498 11.9156 9.6327 0.793493 -3.95109 58.5079
9117972 16.0839 20.0635 12.6122 10.2895 0.701451 -3.36476 59.0491
9117988 16.0839 20.0635 12.6122 10.2895 0.701451 -3.36476 59.0491
9117993 15.6523 19.6161 13.2881 10.8701 0.650308 -2.80437 59.4266
9118003 15.2031 19.0521 13.9743 11.4888 0.57078 -2.20838 59.7183
9118013 15.2031 19.0521 13.9743 11.4888 0.57078 -2.20838 59.7183
9118023 14.6922 18.4296 14.6086 11.9933 0.469714 -1.63755 59.7237
9118033 14.0668 17.6613 15.274 12.7357 0.442016 -0.933689 59.7379
9118043 14.0668 17.6613 15.274 12.7357 0.442016 -0.933689 59.7379
9118053 13.3534 16.9447 15.981 13.4591 0.447562 -0.215427 59.7383
9118063 13.3534 16.9447 15.981 13.4591 0.447562 -0.215427 59.7383
9118073 12.6927 16.1896 16.7297 14.2206 0.412732 0.518426 59.8326
9118083 12.0145 15.37 17.6005 15.0392 0.330788 1.31326 60.0242
9118095 12.0145 15.37 17.6005 15.0392 0.330788 1.31326 60.0242
9118105 11.3451 14.6241 18.3584 15.8578 0.323308 2.05542 60.1853
9118115 10.6668 13.8137 19.0967 16.6764 0.30143 2.81126 60.2536
9118125 10.6668 13.8137 19.0967 16.6764 0.30143 2.81126 60.2536
9118136 10.015 13.0309 19.8054 17.4287 0.265038 3.53057 60.28
9118145 10.015 13.0309 19.8054 17.4287 0.265038 3.53057 60.28
9118158 9.38083 12.2573 20.4551 18.1983 0.256935 4.23325 60.2915
9118164 8.8171 11.6771 21.0851 18.7633 0.222993 4.81107 60.3427
9118174 8.8171 11.6771 21.0851 18.7633 0.222993 4.81107 60.3427
9118185 8.32383 11.0509 21.8135 19.3771 0.119957 5.40305 60.5654
9118197 7.85699 10.4892 22.4632 19.8544 0.00963509 5.9273 60.6638
9118205 7.85699 10.4892 22.4632 19.8544 0.00963509 5.9273 60.6638
9118220 7.3285 9.9182 22.9849 20.4487 0.0220299 6.47334 60.6804
9118225 7.3285 9.9182 22.9849 20.4487 0.0220299 6.47334 60.6804
9118235 6.77358 9.38407 23.4082 20.9066 0.0450045 6.98429 60.4725
9118245 6.3772 8.97887 23.7429 21.4814 0.140366 7.39552 60.5804
9118255 6.3772 8.97887 23.7429 21.4814 0.140366 7.39552 60.5804
9118265 6.00725 8.52763 24.1563 21.9198 0.117061 7.80582 60.611
9118275 5.57565 8.04875 24.5009 22.4166 0.160575 8.24877 60.5419
9118289 5.57565 8.04875 24.5009 22.4166 0.160575 8.24877 60.5419
9118297 5.2057 7.71723 24.8257 22.9037 0.242999 8.60804 60.6524
9118316 4.86218 7.27519 25.2785 23.3226 0.188154 9.00511 60.7385
9118326 4.41295 6.89762 25.7116 23.9948 0.314611 9.43898 61.0171
9118336 4.41295 6.89762 25.7116 23.9948 0.314611 9.43898 61.0171
9118346 4.0342 6.40032 26.0069 24.4235 0.321481 9.85688 60.865
9118356 3.75233 6.07801 26.2334 24.8132 0.371858 10.1556 60.8769
9118366 3.75233 6.07801 26.2334 24.8132 0.371858 10.1556 60.8769
9118376 3.59378 5.90303 26.3909 24.9788 0.368512 10.3192 60.8665
9118396 3.45285 5.74648 26.3613 25.0567 0.407904 10.4472 60.6174
9118407 3.47047 5.64518 26.5287 25.1152 0.313213 10.4991 60.7595
9118416 3.47047 5.64518 26.5287 25.1152 0.313213 10.4991 60.7595
9118426 3.39119 5.6636 26.6665 25.1736 0.32005 10.5391 60.8949
9118437 3.30311 5.461 26.7452 25.3587 0.316834 10.6804 60.8681
9118446 3.30311 5.461 26.7452 25.3587 0.316834 10.6804 60.8681
9118458 3.20622 5.40574 26.9224 25.4269 0.288728 10.7619 60.9613
9118481 3.10933 5.33207 26.9323 25.5049 0.326619 10.8402 60.8785
9118487 3.13575 5.29523 26.9618 25.4854 0.280511 10.8453 60.8782
9118508 3.10933 5.27681 26.9224 25.5731 0.335959 10.8676 60.8816
9118535 3.06528 5.24919 26.8929 25.5438 0.343558 10.8942 60.7512
9118540 3.03005 5.29523 26.9323 25.5244 0.352606 10.8909 60.7819
9118547 3.03005 5.29523 26.9323 25.5244 0.352606 10.8909 60.7819
9118561 3.00363 5.23998 26.9027 25.6023 0.385162 10.929 60.7486
9118567 3.00363 5.18472 26.9224 25.6997 0.394011 10.9604 60.8105
9118589 2.9772 5.20314 26.9716 25.8848 0.466576 10.9793 61.0368
9118597 2.9772 5.20314 26.9716 25.8848 0.466576 10.9793 61.0368
9118608 2.93316 5.11105 26.9224 25.8848 0.468475 11.0342 60.8514
9118618 2.88031 5.04659 26.9323 25.9433 0.484064 11.0889 60.8024
9118628 2.88031 5.04659 26.9323 25.9433 0.484064 11.0889 60.8024
9118638 2.84508 5.02817 26.883 25.9238 0.50422 11.1075 60.6801
9118648 2.82746 5.11105 26.8338 26.1186 0.643939 11.0888 60.891
9118658 2.82746 5.11105 26.8338 26.1186 0.643939 11.0888 60.891
9118677 2.77461 5.10184 26.8141 26.1186 0.670838 11.1142 60.8092
9118678 2.79223 5.0558 26.7846 26.1868 0.684726 11.1289 60.8194
9118688 2.79223 5.0558 26.7846 26.1868 0.684726 11.1289 60.8194
9118698 2.82746 4.99133 26.8338 26.3622 0.693372 11.1556 61.0148
9118711 2.82746 4.99133 26.8338 26.3622 0.693372 11.1556 61.0148
9118718 2.79223 5.00975 26.8437 26.3232 0.695875 11.161 60.9688
9118730 2.88912 5.00975 27.0012 26.4304 0.631762 11.1362 61.3304
9118740 2.88912 5.00975 27.0012 26.4304 0.631762 11.1362 61.3304
9118751 2.85389 5.02817 26.9126 26.4401 0.694799 11.1384 61.2347
9118760 2.81865 5.03738 26.8633 26.3427 0.695226 11.1403 61.0621
9118780 2.85389 5.01896 26.8437 26.3622 0.689107 11.1331 61.0787
9118789 2.85389 5.01896 26.8437 26.3622 0.689107 11.1331 61.0787
9118800 2.86269 5.00975 26.7452 26.3232 0.707671 11.1245 60.9409
9118810 2.95959 5.11105 26.5976 26.2355 0.734532 11.0246 60.9037
9118819 2.95959 5.11105 26.5976 26.2355 0.734532 11.0246 60.9037
9118830 2.9772 5.13868 26.4893 26.216 0.776142 10.9969 60.8212
9118842 3.05648 5.18472 26.3515 26.1966 0.811547 10.9329 60.7892
9118849 3.05648 5.18472 26.3515 26.1966 0.811547 10.9329 60.7892
9118861 3.13575 5.29523 26.2629 26.1381 0.8362 10.8422 60.832
9118870 3.13575 5.29523 26.2629 26.1381 0.8362 10.8422 60.832
9118881 3.20622 5.38732 26.0168 25.9725 0.88177 10.7446 60.5828
9118890 3.28549 5.57151 25.8494 25.7971 0.922963 10.6084 60.5036
9118901 3.28549 5.57151 25.8494 25.7971 0.922963 10.6084 60.5036
9118910 3.48808 5.77411 25.5935 25.5244 0.917879 10.3981 60.3801
9118930 3.62021 6.04117 25.3868 25.2321 0.939885 10.1918 60.2803
9118940 3.89326 6.46479 25.1506 24.784 0.914261 9.8461 60.2926
9118950 3.89326 6.46479 25.1506 24.784 0.914261 9.8461 60.2926
9118959 4.16632 6.88841 24.8552 24.2968 0.898442 9.49162 60.2068
9118970 4.457 7.32124 24.5895 23.8585 0.88551 9.133 60.2261
9118980 4.457 7.32124 24.5895 23.8585 0.88551 9.133 60.2261
9118991 4.71244 7.80011 24.3532 23.4688 0.912923 8.77842 60.3345
9119001 4.71244 7.80011 24.3532 23.4688 0.912923 8.77842 60.3345
9119011 4.85337 8.15005 24.0973 22.9427 0.891894 8.50299 60.0434
9119021 5.15285 8.51842 23.8512 22.3582 0.781783 8.15074 59.8806
9119035 5.15285 8.51842 23.8512 22.3582 0.781783 8.15074 59.8806
9119041 5.39948 8.92362 23.674 21.8808 0.722694 7.82385 59.8779
9119053 5.59326 9.30119 23.4574 21.384 0.684026 7.51984 59.7359
9119062 5.59326 9.30119 23.4574 21.384 0.684026 7.51984 59.7359
9119074 5.96321 9.82611 23.1129 20.702 0.609013 7.05292 59.6042
9119082 6.43005 9.82611 22.5814 19.8934 0.301424 6.69629 58.7309
9119092 6.43005 10.4984 22.5814 19.8934 0.580937 6.45075 59.4032
9119102 7.08187 11.2627 21.9809 18.9192 0.472265 5.71076 59.2447
9119123 7.70725 12.1192 21.2918 18.0229 0.48317 4.94283 59.1412
9119132 8.45596 12.9204 20.524 17.0779 0.431648 4.12668 58.9783
9119152 9.21347 13.7308 19.8251 16.2861 0.414136 3.3444 59.0555
9119163 9.21347 13.7308 19.8251 16.2861 0.414136 3.3444 59.0555
9119172 9.8829 14.357 19.1459 15.5246 0.361907 2.6559 58.9104
9119182 10.4731 14.974 18.6537 14.9916 0.354871 2.08105 59.0924
9119192 10.4731 14.974 18.6537 14.9916 0.354871 2.08105 59.0924
9119203 10.9223 15.4989 18.1222 14.3919 0.359038 1.55075 58.9353
9119212 11.4332 15.9778 17.7776 13.9636 0.308773 1.09809 59.1522
9119234 11.8295 16.4106 17.4036 13.4877 0.28123 0.672516 59.1314
9119243 11.8295 16.4106 17.4036 13.4877 0.28123 0.672516 59.1314
9119256 12.2523 16.8066 16.9376 13.0498 0.282192 0.235875 59.0464
9119263 12.7456 17.3112 16.3865 12.631 0.342825 -0.263882 59.0744
9119284 13.1772 17.7294 15.8563 12.0504 0.317243 -0.765119 58.8133
9119293 13.6088 18.0406 15.378 11.603 0.280082 -1.19437 58.6304
9119309 13.6088 18.0406 15.378 11.603 0.280082 -1.19437 58.6304
9119318 13.8907 18.2935 15.0037 11.2984 0.298178 -1.50857 58.4863
9119325 13.8907 18.2935 15.0037 11.2984 0.298178 -1.50857 58.4863
9119336 14.1021 18.5463 14.7229 11.0319 0.322434 -1.77051 58.4033
9119344 14.4016 18.8478 14.5046 10.794 0.314116 -2.03701 58.5479
9119367 14.6218 19.0521 14.2031 10.537 0.32706 -2.2941 58.4138
9119375 14.9124 19.2563 14.0367 10.3751 0.291178 -2.49833 58.5806
9119396 15.3176 19.4314 13.7664 10.2133 0.238681 -2.7506 58.7287
9119416 15.6523 19.6842 13.4336 9.8897 0.207952 -3.07191 58.6599
9119425 15.6523 19.6842 13.4336 9.8897 0.207952 -3.07191 58.6599
9119427 15.9342 19.9371 13.1529 9.61366 0.197667 -3.35228 58.6378
9119436 15.9342 19.9371 13.1529 9.61366 0.197667 -3.35228 58.6378
9119446 16.1192 20.1608 12.8202 9.29955 0.223014 -3.63706 58.3997
9119461 16.3658 20.4039 12.5706 9.00448 0.202218 -3.9064 58.3448
9119466 16.3658 20.4039 12.5706 9.00448 0.202218 -3.9064 58.3448
9119476 16.5684 20.4136 12.3315 8.74748 0.112471 -4.10853 58.061
9119489 16.7446 20.5984 12.082 8.54759 0.13777 -4.32448 57.9725
9119496 16.7446 20.5984 12.082 8.54759 0.13777 -4.32448 57.9725
9119515 16.9736 20.6665 12.0092 8.29059 -0.0110805 -4.48921 57.9398
9119518 16.9736 20.6665 12.0092 8.29059 -0.0110805 -4.48921 57.9398
9119526 17.0698 20.7735 11.8116 8.20493 0.041914 -4.62152 57.8598
9119538 17.2989 20.8221 11.7596 8.12878 -0.0464201 -4.71456 58.0094
9119546 17.2989 20.8221 11.7596 8.12878 -0.0464201 -4.71456 58.0094
9119559 17.4385 20.9971 11.7804 8.08119 -0.0602737 -4.77913 58.2972
9119566 17.4385 20.9971 11.7804 8.08119 -0.0602737 -4.77913 58.2972
9119576 17.3787 20.968 11.6972 8.0336 -0.0320047 -4.808 58.0775
9119586 17.279 20.9193 11.7908 8.12878 -0.00934452 -4.71767 58.118
9119596 17.279 20.9193 11.7908 8.12878 -0.00934452 -4.71767 58.118
9119606 17.1694 20.7832 11.8948 8.19541 -0.0368774 -4.61617 58.0428
9119616 17.0598 20.7637 12.1859 8.35722 -0.0534415 -4.44098 58.3667
9119626 17.0598 20.7637 12.1859 8.35722 -0.0534415 -4.44098 58.3667
9119636 16.8855 20.7637 12.3211 8.49048 0.0203609 -4.32024 58.4608
9119648 16.8855 20.7637 12.3211 8.49048 0.0203609 -4.32024 58.4608
9119656 16.9119 20.7054 12.3211 8.58567 0.0247866 -4.28299 58.5241
9119668 16.9648 20.9096 12.2795 8.62374 0.122952 -4.33102 58.7776
9119677 16.9648 20.9096 12.2795 8.62374 0.122952 -4.33102 58.7776
9119691 17.0996 21.0069 12.1235 8.49048 0.116718 -4.46841 58.7205
9119697 17.2989 21.2014 11.9052 8.3477 0.146773 -4.65866 58.7532
9119707 17.2989 21.2014 11.9052 8.3477 0.146773 -4.65866 58.7532
9119717 17.3787 21.3375 11.6765 8.17637 0.195831 -4.83106 58.569
9119737 17.4484 21.3862 11.3229 8.01456 0.270474 -5.02743 58.1721
9119747 17.6676 21.5709 11.1982 7.85274 0.239268 -5.19502 58.2895
9119758 17.6676 21.5709 11.1982 7.85274 0.239268 -5.19502 58.2895
9119767 17.7872 21.7168 10.9694 7.73852 0.300068 -5.35872 58.212
9119778 17.9467 21.9211 10.8031 7.6243 0.34121 -5.51685 58.2951
9119788 17.9467 21.9211 10.8031 7.6243 0.34121 -5.51685 58.2951
9119801 18.1161 22.1642 10.6159 7.44345 0.37525 -5.71333 58.3396
9119808 18.1161 22.1642 10.6159 7.44345 0.37525 -5.71333 58.3396
9119818 18.1161 22.2323 10.408 7.39586 0.474662 -5.81523 58.1521
9119828 18.1758 22.3879 10.304 7.40538 0.563475 -5.88292 58.2731
9119838 18.1758 22.3879 10.304 7.40538 0.563475 -5.88292 58.2731
9119848 18.2157 22.5046 10.1584 7.40538 0.658768 -5.95956 58.2841
9119858 18.1858 22.5143 10.0752 7.38634 0.704756 -5.99326 58.1617
9119868 18.1858 22.5143 10.0752 7.38634 0.704756 -5.99326 58.1617
9119879 18.1958 22.4657 10.0752 7.45297 0.707874 -5.96324 58.1897
9119888 18.1958 22.4657 10.0752 7.45297 0.707874 -5.96324 58.1897
9119900 18.126 22.4657 10.0856 7.50056 0.753972 -5.93151 58.1779
9119910 18.0363 22.3587 10.1064 7.63382 0.795451 -5.84537 58.1353
9119920 18.0363 22.3587 10.1064 7.63382 0.795451 -5.84537 58.1353
9119930 17.9865 22.242 10.304 7.76708 0.736958 -5.70093 58.2996
9119939 17.6377 22.0086 10.5639 8.02408 0.786045 -5.42421 58.2343
9119959 17.6377 22.0086 10.5639 8.02408 0.786045 -5.42421 58.2343
9119961 17.3488 21.6974 10.8343 8.18589 0.732026 -5.17322 58.0663
9119971 16.9912 21.3959 11.219 8.55711 0.749117 -4.79969 58.1631
9119985 16.9912 21.3959 11.219 8.55711 0.749117 -4.79969 58.1631
9119991 16.6741 21.036 11.7908 8.97592 0.661391 -4.34617 58.4769
9120011 16.401 20.6859 12.2587 9.39474 0.60474 -3.94111 58.7404
9120021 16.1016 20.2094 12.7578 9.93729 0.545418 -3.4613 59.006
9120042 15.6964 19.7426 13.2881 10.4323 0.503036 -2.97129 59.1593
9120052 15.1855 19.1785 13.9015 10.9653 0.446033 -2.40513 59.2308
9120072 14.657 18.6144 14.5254 11.6125 0.439569 -1.8011 59.4093
9120082 14.657 18.6144 14.5254 11.6125 0.439569 -1.8011 59.4093
9120093 14.058 17.9336 15.1284 12.1932 0.396341 -1.18103 59.3133
9120107 13.4855 17.282 15.981 12.9166 0.306743 -0.470103 59.6651
9120122 12.913 16.5672 16.7505 13.5258 0.179696 0.199834 59.7563
9120135 12.358 15.8857 17.4922 14.2872 0.134414 0.88358 60.0232
9120157 11.7326 15.1674 18.2305 15.0582 0.109041 1.59216 60.1887
9120163 11.7326 15.1674 18.2305 15.0582 0.109041 1.59216 60.1887
9120173 11.1689 14.3662 18.8211 15.7245 0.041914 2.2496 60.0807
9120183 10.614 13.7492 19.5495 16.4099 -0.00184625 2.88354 60.3225
9120204 10.0415 13.0953 20.1106 17.0097 -0.0194848 3.48097 60.2571
9120213 9.43368 12.5336 20.6126 17.565 0.0217527 4.04283 60.1449
9120225 9.43368 12.5336 20.6126 17.565 0.0217527 4.04283 60.1449
9120233 9.04611 12.0087 21.0654 18.0521 -0.0210777 4.50276 60.1724
9120247 9.04611 12.0087 21.0654 18.0521 -0.0210777 4.50276 60.1724
9120253 8.51762 11.5022 21.4001 18.3736 -0.0175297 4.95555 59.7935
9120263 8.20933 11.1706 21.8234 18.851 -0.0046134 5.31879 60.0544
9120273 8.20933 11.1706 21.8234 18.851 -0.0046134 5.31879 60.0544
9120283 7.88342 10.7931 22.1876 19.2017 -0.031732 5.67199 60.0658
9120296 7.55751 10.4431 22.6109 19.6304 -0.0393838 6.03582 60.2419
9120305 7.55751 10.4431 22.6109 19.6304 -0.0393838 6.03582 60.2419
9120315 7.18756 10.1024 22.9751 20.1077 0.0196517 6.40841 60.3728
9120325 7.18756 10.1024 22.9751 20.1077 0.0196517 6.40841 60.3728
9120338 6.85285 9.64193 23.3492 20.4974 -0.0259593 6.79927 60.3414
9120345 6.56218 9.30119 23.7331 20.8968 -0.0401691 7.133 60.4933
9120365 6.29793 8.93283 24.0481 21.2865 -0.0522688 7.45571 60.5653
9120375 5.97202 8.61051 24.4418 21.6665 -0.0563681 7.79173 60.6908
9120385 5.97202 8.61051 24.4418 21.6665 -0.0563681 7.79173 60.6908
9120396 5.64611 8.36186 24.6091 21.9977 0.0430197 8.06705 60.6148
9120405 5.64611 8.36186 24.6091 21.9977 0.0430197 8.06705 60.6148
9120415 5.38187 7.96587 24.9143 22.3387 0.00346005 8.39229 60.6007
9120429 5.05596 7.63434 25.2293 22.816 0.0679702 8.7317 60.7356
9120435 5.05596 7.63434 25.2293 22.816 0.0679702 8.7317 60.7356
9120445 4.80052 7.20152 25.5443 23.2544 0.0456989 9.07802 60.8008
9120455 4.49223 6.91603 25.8888 23.6344 0.0694901 9.38307 60.9315
9120465 4.49223 6.91603 25.8888 23.6344 0.0694901 9.38307 60.9315
9120475 4.19275 6.61213 26.1743 23.9559 0.0824541 9.68046 60.935
9120485 4.19275 6.61213 26.1743 23.9559 0.0824541 9.68046 60.935
9120497 3.9285 6.31744 26.3515 24.2287 0.10938 9.94661 60.8261
9120504 3.75233 6.02275 26.5483 24.4138 0.0559062 10.1718 60.7372
9120526 3.54974 5.82936 26.8043 24.6378 0.0465125 10.3738 60.8212
9120538 3.35596 5.69122 26.9618 24.8814 0.104636 10.5426 60.8903
9120546 3.35596 5.69122 26.9618 24.8814 0.104636 10.5426 60.8903
9120562 3.23264 5.49783 27.1685 25.1834 0.114629 10.7121 61.0824
9120566 3.23264 5.49783 27.1685 25.1834 0.114629 10.7121 61.0824
9120589 3.11813 5.28602 27.2669 25.3782 0.114325 10.8701 61.0493
9120592 3.01244 5.14789 27.4047 25.4562 0.0765592 10.9881 61.0212
9120598 3.01244 5.14789 27.4047 25.4562 0.0765592 10.9881 61.0212
9120606 2.96839 5.09263 27.4933 25.5244 0.0635475 11.0407 61.0787
9120617 2.82746 5.03738 27.5721 25.612 0.10232 11.1351 61.049
9120626 2.82746 5.03738 27.5721 25.612 0.10232 11.1351 61.049
9120642 2.82746 4.86241 27.7296 25.6705 -0.00988543 11.2237 61.0899
9120646 2.82746 4.86241 27.7296 25.6705 -0.00988543 11.2237 61.0899
9120656 2.72176 4.77952 27.9166 25.7289 -0.0531167 11.3197 61.1468
9120666 2.63368 4.56771 28.0544 25.992 -0.0524163 11.4727 61.2478
9120687 2.61606 4.48483 28.2218 26.0504 -0.12325 11.529 61.3731
9120698 2.45751 4.30065 28.3694 26.0894 -0.178421 11.6881 61.217
9120718 2.45751 4.23619 28.3497 26.0504 -0.213046 11.7131 61.0939
9120731 2.45751 4.23619 28.3497 26.0504 -0.213046 11.7131 61.0939
9120737 2.41347 4.13489 28.3497 25.9822 -0.265312 11.7732 60.8803
9120747 2.47513 4.1441 28.399 25.9822 -0.306456 11.7447 61.0004
9120768 2.60725 4.1441 28.3301 26.0115 -0.319904 11.6847 61.0929
9120779 2.51917 4.07963 28.3694 25.9725 -0.343151 11.7515 60.9407
9120788 2.51917 4.07963 28.3694 25.9725 -0.343151 11.7515 60.9407
9120800 2.63368 4.13489 28.3399 26.0017 -0.342402 11.6772 61.1102
9120808 2.63368 4.13489 28.3399 26.0017 -0.342402 11.6772 61.1102
9120821 2.5544 4.10726 28.1922 25.9238 -0.294355 11.7118 60.7777
9120830 2.72176 4.23619 28.1233 25.9725 -0.260597 11.5811 61.0538
9120850 2.74819 4.22698 28.0544 25.8653 -0.291613 11.5637 60.8949
9120860 2.85389 4.28223 27.9363 25.8166 -0.283852 11.484 60.889
9120881 2.99482 4.42037 27.7788 25.651 -0.288545 11.3439 60.845
9120901 3.09171 4.42958 27.6705 25.6802 -0.267953 11.2932 60.872
9120911 3.1886 4.54009 27.5032 25.4951 -0.270297 11.1819 60.727
9120921 3.1886 4.54009 27.5032 25.4951 -0.270297 11.1819 60.727
9120933 3.30311 4.71506 27.2965 25.3977 -0.200456 11.038 60.7123
9120941 3.42642 4.91766 27.1882 25.1736 -0.215511 10.8765 60.7059
9120955 3.42642 4.91766 27.1882 25.1736 -0.215511 10.8765 60.7059
9120961 3.62021 5.09263 27.0701 24.9691 -0.258669 10.6975 60.752
9120971 3.62021 5.09263 27.0701 24.9691 -0.258669 10.6975 60.752
9120981 3.75233 5.21235 26.7846 24.8034 -0.215159 10.5586 60.5527
9120992 3.98135 5.47021 26.5385 24.6476 -0.165774 10.3239 60.6376
9121002 3.98135 5.47021 26.5385 24.6476 -0.165774 10.3239 60.6376
9121011 4.16632 5.70964 26.2334 24.4332 -0.106037 10.1063 60.5426
9121023 4.4658 5.91224 25.8199 24.2384 -0.0558794 9.84844 60.4364
9121031 4.4658 5.91224 25.8199 24.2384 -0.0558794 9.84844 60.4364
9121044 4.80052 6.24377 25.436 23.8974 -0.0394762 9.5124 60.3777
9121051 4.80052 6.24377 25.436 23.8974 -0.0394762 9.5124 60.3777
9121066 5.13523 6.52004 24.9045 23.459 -0.0252515 9.17418 60.0188
9121071 5.64611 6.9805 24.2548 23.0011 0.0337154 8.67431 59.8825
9121091 6.29793 7.43174 23.6838 22.5335 -0.00688434 8.1291 59.947
9121105 6.92332 7.82774 23.1031 22.1341 -0.0269011 7.62303 59.9882
9121111 6.92332 7.82774 23.1031 22.1341 -0.0269011 7.62303 59.9882
9121121 7.51347 8.15926 22.4731 21.8418 0.00606179 7.16202 59.9876
9121141 8.06839 8.54605 21.8923 21.3937 -0.008744 6.67897 59.9004
9121151 8.59689 8.9052 21.4395 21.043 -0.0367597 6.2467 59.9846
9121161 8.59689 8.9052 21.4395 21.043 -0.0367597 6.2467 59.9846
9121174 8.98446 9.14464 20.967 20.663 -0.0601485 5.89892 59.7591
9121181 9.16943 9.30119 20.6422 20.361 -0.062786 5.68298 59.4738
9121195 9.16943 9.30119 20.6422 20.361 -0.062786 5.68298 59.4738
9121201 9.30155 9.55905 20.5043 20.2928 0.0192702 5.5156 59.6578
9121221 9.5658 9.67877 20.2386 19.9908 -0.0566497 5.29261 59.474
9121232 9.73316 9.95504 19.894 19.757 0.0357538 5.04629 59.3393
9121246 9.73316 9.95504 19.894 19.757 0.0357538 5.04629 59.3393
9121251 10.0062 10.1853 19.6184 19.5817 0.0598967 4.80083 59.3916
9121261 10.0062 10.1853 19.6184 19.5817 0.0598967 4.80083 59.3916
9121271 10.1824 10.4707 19.392 19.3576 0.106877 4.5696 59.4027
9121281 10.2528 10.7286 19.205 19.1238 0.166312 4.38726 59.3102
9121302 10.3057 10.9957 18.9687 18.9582 0.286773 4.21054 59.2283
9121318 10.3938 11.3088 18.8703 18.7146 0.320181 4.01831 59.2875
9121322 10.3938 11.3088 18.8703 18.7146 0.320181 4.01831 59.2875
9121332 10.4554 11.6587 18.634 18.4321 0.422996 3.78977 59.1803
9121342 10.4554 11.6587 18.634 18.4321 0.422996 3.78977 59.1803
9121352 10.5964 12.0639 18.4175 18.1301 0.498307 3.51827 59.2079
9121365 10.8782 12.5244 18.0434 17.7112 0.55525 3.13199 59.1572
9121372 10.8782 12.5244 18.0434 17.7112 0.55525 3.13199 59.1572
9121382 11.2746 13.1046 17.5611 17.1851 0.614774 2.6301 59.1254
9121392 11.5917 13.5374 17.0886 16.6764 0.650933 2.19951 58.8941
9121412 11.9793 14.1452 16.6465 16.1909 0.725195 1.70779 58.9619
9121423 11.9793 14.1452 16.6465 16.1909 0.725195 1.70779 58.9619
9121436 12.2171 14.5964 16.293 15.6103 0.72239 1.30024 58.7168
9121442 12.5782 15.0845 15.8251 15.201 0.801769 0.859619 58.6888
9121452 12.5782 15.0845 15.8251 15.201 0.801769 0.859619 58.6888
9121462 12.8865 15.4621 15.5132 14.8298 0.805986 0.509697 58.6915
9121473 13.0627 15.8028 15.3988 14.4395 0.758415 0.248567 58.7038
9121482 13.0627 15.8028 15.3988 14.4395 0.758415 0.248567 58.7038
9121492 13.2477 16.0607 15.2324 14.2016 0.75846 0.0320828 58.7423
9121506 13.2477 16.0607 15.2324 14.2016 0.75846 0.0320828 58.7423
9121512 13.4326 16.2633 15.1076 13.9446 0.70962 -0.164354 58.7481
9121529 13.5912 16.4843 14.9517 13.6876 0.693601 -0.366917 58.7147
9121533 13.5912 16.4843 14.9517 13.6876 0.693601 -0.366917 58.7147
9121543 13.7057 16.6501 14.7853 13.4686 0.69429 -0.53791 58.6097
9121554 13.7674 16.7237 14.8373 13.3639 0.631687 -0.585212 58.6923
9121563 13.7674 16.7237 14.8373 13.3639 0.631687 -0.585212 58.6923
9121576 13.8378 16.9447 14.8165 13.1926 0.630626 -0.707611 58.7917
9121583 13.8378 16.9447 14.8165 13.1926 0.630626 -0.707611 58.7917
9121598 14.0933 17.1751 14.6086 12.9546 0.606763 -0.944675 58.8315
9121603 14.3311 17.5057 14.3382 12.5739 0.600144 -1.25739 58.7489
9121623 14.657 17.9434 13.8703 12.2027 0.689715 -1.66873 58.6734
9121635 14.9917 18.4199 13.4128 11.6601 0.716209 -2.13868 58.4846
9121644 14.9917 18.4199 13.4128 11.6601 0.716209 -2.13868 58.4846
9121653 15.3088 18.9451 12.9346 11.2128 0.819537 -2.59581 58.4012
9121666 15.3088 18.9451 12.9346 11.2128 0.819537 -2.59581 58.4012
9121673 15.5642 19.4216 12.4771 10.6797 0.88577 -3.05174 58.1427
9121689 15.8902 19.9176 12.0092 10.2514 0.977162 -3.49946 58.0684
9121693 15.8902 19.9176 12.0092 10.2514 0.977162 -3.49946 58.0684
9121703 16.1984 20.4233 11.7492 9.86114 1.00323 -3.86678 58.2322
9121724 16.401 20.8221 11.4269 9.4804 1.06422 -4.21014 58.1304
9121736 16.7093 21.2986 11.0422 9.14726 1.15742 -4.5926 58.1974
9121759 16.9295 21.746 10.7719 8.90929 1.26545 -4.88231 58.3567
9121765 17.1196 22.0475 10.4495 8.56663 1.30837 -5.19502 58.1832
9121786 17.2691 22.2517 10.304 8.40482 1.32386 -5.36119 58.2296
9121796 17.4484 22.4559 10.1376 8.10974 1.28099 -5.58634 58.1517
9121816 17.5879 22.6699 9.86728 7.97648 1.37311 -5.78661 58.1016
9121831 17.5879 22.6699 9.86728 7.97648 1.37311 -5.78661 58.1016
9121836 17.6178 22.6796 9.82569 7.79563 1.30863 -5.87274 57.9188
9121856 17.6178 22.7672 9.74251 7.86226 1.40934 -5.89247 57.9897
9121859 17.6178 22.7672 9.74251 7.86226 1.40934 -5.89247 57.9897
9121867 17.6776 22.7963 9.73211 7.76708 1.35998 -5.9445 57.9731
9121882 17.6876 22.8061 9.7633 7.86226 1.38399 -5.90203 58.1192
9121887 17.6876 22.8061 9.7633 7.86226 1.38399 -5.90203 58.1192
9121904 17.6377 22.7477 9.84648 7.91937 1.36835 -5.83468 58.1513
9121908 17.6377 22.7477 9.84648 7.91937 1.36835 -5.83468 58.1513
9121917 17.6278 22.6699 9.94006 7.92889 1.3027 -5.78392 58.1666
9121929 17.6079 22.6116 10.044 8.12878 1.32228 -5.66341 58.3922
9121954 17.4982 22.4365 10.1584 8.18589 1.27222 -5.557 58.279
9121957 17.4086 22.2225 10.3144 8.3953 1.24052 -5.37911 58.3408
9121967 17.4086 22.2225 10.3144 8.3953 1.24052 -5.37911 58.3408
9121977 17.3089 22.028 10.5535 8.59518 1.18011 -5.17774 58.4856
9121987 17.3089 22.028 10.5535 8.59518 1.18011 -5.17774 58.4856
9121999 17.0698 21.7071 10.8239 8.74748 1.09728 -4.9373 58.3482
9122007 16.8503 21.3375 11.1358 9.04255 1.02544 -4.6284 58.3661
9122027 16.6565 21.0458 11.6661 9.30907 0.865883 -4.27604 58.6774
9122037 16.3394 21.0458 12.0092 9.30907 0.854415 -4.10544 58.7034
9122049 16.3394 20.647 12.0092 9.6327 0.82348 -3.92589 58.6283
9122057 16.0487 20.1705 12.4771 10.0325 0.713953 -3.5016 58.7287
9122067 16.0487 20.1705 12.4771 10.0325 0.713953 -3.5016 58.7287
9122077 15.714 19.6939 12.945 10.4703 0.639763 -3.05814 58.8232
9122088 15.3264 19.1688 13.5376 10.9653 0.538155 -2.5405 58.9981
9122097 15.3264 19.1688 13.5376 10.9653 0.538155 -2.5405 58.9981
9122107 14.8684 18.5172 14.1095 11.6316 0.49507 -1.93935 59.1266
9122118 14.3047 17.9434 14.7957 12.2408 0.45701 -1.31861 59.2845
9122128 14.3047 17.9434 14.7957 12.2408 0.45701 -1.31861 59.2845
9122138 13.829 17.1362 15.4924 12.9737 0.331673 -0.630764 59.4312
9122158 13.2212 16.3093 16.2514 13.7828 0.259992 0.126813 59.5647
9122168 12.7808 15.6831 17.0098 14.5252 0.174013 0.767791 59.999
9122190 12.4813 15.2779 17.443 15.0202 0.155151 1.17163 60.2224
9122198 12.2523 15.2779 17.6989 15.1629 0.202677 1.32425 60.3921
9122208 12.2523 14.974 17.6989 15.1629 0.0772625 1.40681 60.0882
9122218 11.9793 14.6977 17.8466 15.2486 0.0503987 1.61066 59.7722
9122228 11.9793 14.6977 17.8466 15.2486 0.0503987 1.61066 59.7722
9122238 11.7679 14.3754 17.9942 15.3152 -0.0300452 1.80803 59.4527
9122248 11.5301 14.0531 18.2206 15.5722 -0.0527784 2.07399 59.376
9122271 11.2658 13.7216 18.5356 15.8578 -0.0934929 2.37603 59.3808
9122279 10.9663 13.3808 18.9294 16.1338 -0.160344 2.7056 59.4103
9122290 10.9663 13.3808 18.9294 16.1338 -0.160344 2.7056 59.4103
9122299 10.7813 13.1598 19.2345 16.4003 -0.191233 2.94423 59.576
9122310 10.7813 13.1598 19.2345 16.4003 -0.191233 2.94423 59.576
9122319 10.5083 12.773 19.5495 16.7716 -0.215268 3.28169 59.6024
9122329 10.2088 12.4967 19.9236 17.1461 -0.204724 3.60453 59.7753
9122340 10.2088 12.4967 19.9236 17.1461 -0.204724 3.60453 59.7753
9122349 9.96218 12.2113 20.2681 17.5358 -0.201403 3.90909 59.9774
9122361 9.96218 12.2113 20.2681 17.5358 -0.201403 3.90909 59.9774
9122373 9.60104 11.8613 20.5732 17.984 -0.137043 4.27232 60.0196
9122381 9.29275 11.5206 20.8882 18.3834 -0.115265 4.60805 60.085
9122401 9.01969 11.2167 21.1442 18.812 -0.0561327 4.91419 60.1926
9122411 8.63212 10.8115 21.4887 19.2991 -0.00423491 5.31556 60.2315
9122432 8.20933 10.3879 21.9021 19.8155 0.0380784 5.74993 60.3148
9122442 7.83057 9.97346 22.2565 20.4 0.118411 6.16579 60.4605
9122462 7.39016 9.54063 22.6207 21.004 0.220355 6.61227 60.5555
9122472 7.39016 9.54063 22.6207 21.004 0.220355 6.61227 60.5555
9122482 7.0114 9.06176 22.8865 21.5301 0.2868 7.02849 60.4897
9122492 6.66788 8.61972 23.1523 22.1633 0.397208 7.43229 60.6032
9122502 6.66788 8.61972 23.1523 22.1633 0.397208 7.43229 60.6032
9122512 6.38601 8.36186 23.3393 22.5238 0.478595 7.7004 60.611
9122522 6.21865 8.10401 23.4082 22.7381 0.502422 7.89421 60.469
9122534 6.21865 8.10401 23.4082 22.7381 0.502422 7.89421 60.469
9122542 5.9544 7.93824 23.5362 22.9622 0.583625 8.09865 60.391
9122568 5.78705 7.76327 23.6543 23.196 0.628263 8.26978 60.4006
9122572 5.61969 7.53304 23.8413 23.4201 0.617436 8.46871 60.4141
9122582 5.61969 7.53304 23.8413 23.4201 0.617436 8.46871 60.4141
9122592 5.48756 7.33965 24.0481 23.6928 0.617844 8.64655 60.5681
9122602 5.48756 7.33965 24.0481 23.6928 0.617844 8.64655 60.5681
9122612 5.29378 7.11863 24.176 23.8682 0.627318 8.84067 60.4566
9122622 5.17927 7.02654 24.3827 24.063 0.629649 8.96266 60.6516
9122632 5.17927 7.02654 24.3827 24.063 0.629649 8.96266 60.6516
9122642 5.10881 6.84236 24.4615 24.1702 0.595158 9.0819 60.5829
9122652 4.94145 6.7779 24.5698 24.2968 0.645167 9.197 60.586
9122672 4.92383 6.61213 24.7765 24.4235 0.549635 9.30191 60.736
9122682 4.92383 6.61213 24.7765 24.4235 0.549635 9.30191 60.736
9122692 4.75648 6.34507 24.9438 24.6476 0.53232 9.5126 60.6929
9122702 4.62435 6.21614 25.121 24.8911 0.5595 9.6557 60.8526
9122712 4.62435 6.21614 25.121 24.8911 0.5595 9.6557 60.8526
9122722 4.36891 6.00433 25.2293 24.9496 0.55972 9.86067 60.5521
9122732 4.21917 5.82936 25.4951 25.1054 0.503123 10.0295 60.6491
9122752 4.1487 5.63597 25.6526 25.2711 0.455353 10.1647 60.7083
9122762 4.1487 5.63597 25.6526 25.2711 0.455353 10.1647 60.7083
9122774 3.98135 5.45179 25.8691 25.5341 0.466582 10.3483 60.8364
9122782 3.83161 5.29523 26.0365 25.69 0.458938 10.5006 60.8533
9122804 3.80518 5.02817 26.1546 25.8166 0.363874 10.6418 60.8046
9122813 3.72591 4.88082 26.2826 25.9627 0.343084 10.7569 60.8521
9122823 3.72591 4.88082 26.2826 25.9627 0.343084 10.7569 60.8521
9122833 3.7171 4.7519 26.2924 26.0017 0.30615 10.8187 60.7631
9122843 3.7171 4.7519 26.2924 26.0017 0.30615 10.8187 60.7631
9122853 3.76114 4.59534 26.4401 26.0602 0.186628 10.8806 60.8567
9122863 3.78756 4.53088 26.5287 26.216 0.176331 10.9132 61.0632
9122873 3.78756 4.53088 26.5287 26.216 0.176331 10.9132 61.0632
9122883 3.74352 4.51246 26.4893 26.2842 0.230989 10.9416 61.0295
9122893 3.70829 4.448 26.5385 26.3622 0.230676 10.9925 61.057
9122914 3.63782 4.37432 26.568 26.5765 0.304532 11.0697 61.1567
9122923 3.63782 4.37432 26.568 26.5765 0.304532 11.0697 61.1567
9122933 3.56736 4.32828 26.5483 26.6057 0.335097 11.1201 61.0497
9122943 3.54974 4.18093 26.6271 26.6837 0.281677 11.2006 61.0414
9122967 3.58497 4.22698 26.6566 26.6837 0.273514 11.1676 61.1522
9122974 3.42642 4.12568 26.7846 26.6057 0.213474 11.2823 60.9424
9122990 3.42642 4.12568 26.7846 26.6057 0.213474 11.2823 60.9424
9122994 3.47047 4.07042 26.9323 26.6252 0.119856 11.2973 61.0984
9123005 3.47047 4.07042 26.9323 26.6252 0.119856 11.2973 61.0984
9123015 3.38238 4.03359 26.9126 26.5765 0.12936 11.3471 60.905
9123025 3.38238 4.07042 26.9716 26.6642 0.155756 11.34 61.0886
9123045 3.35596 3.99675 27.0208 26.6544 0.112402 11.3856 61.028
9123061 3.35596 3.95991 27.0504 26.4304 -0.00660121 11.39 60.7966
9123065 3.35596 3.95991 27.0504 26.4304 -0.00660121 11.39 60.7966
9123075 3.36477 4.02438 26.9323 26.4888 0.0888765 11.3547 60.8102
9123085 3.36477 4.02438 26.9323 26.4888 0.0888765 11.3547 60.8102
9123096 3.37358 4.12568 26.883 26.3622 0.0951707 11.2963 60.7445
9123109 3.51451 4.19935 26.7944 26.3427 0.0957638 11.197 60.851
9123116 3.51451 4.19935 26.7944 26.3427 0.0957638 11.197 60.851
9123126 3.63782 4.33749 26.7255 26.2063 0.0740588 11.0717 60.9072
9123141 3.65544 4.41116 26.7157 26.1381 0.0731051 11.0276 60.9204
9123150 3.65544 4.41116 26.7157 26.1381 0.0731051 11.0276 60.9204
9123158 3.77876 4.54009 26.6074 26.0407 0.0797987 10.9065 60.9669
9123166 3.77876 4.54009 26.6074 26.0407 0.0797987 10.9065 60.9669
9123182 3.90207 4.67822 26.2826 25.5341 0.011456 10.738 60.397
9123187 4.08705 5.06501 25.9873 24.9593 -0.0207946 10.4315 60.0986
9123207 4.4658 5.61755 25.7313 24.2871 -0.121658 9.96686 60.1018
9123217 4.80933 6.10563 25.5246 23.8097 -0.173679 9.5651 60.2493
9123229 4.80933 6.10563 25.5246 23.8097 -0.173679 9.5651 60.2493
9123237 5.09119 6.48321 25.3966 23.4688 -0.221647 9.25491 60.4398
9123252 5.09119 6.48321 25.3966 23.4688 -0.221647 9.25491 60.4398
9123257 5.25855 6.72264 25.2096 22.9135 -0.346087 9.0198 60.1043
9123267 5.46995 7.10943 24.8454 22.4264 -0.325623 8.69467 59.8511
9123288 5.81347 7.50542 24.5009 21.8029 -0.421843 8.29841 59.6226
9123298 6.26269 8.07638 23.9398 21.1404 -0.414719 7.76039 59.4193
9123324 6.94974 8.77627 23.359 20.3903 -0.480121 7.06762 59.4753
9123328 7.60155 8.77627 22.6404 20.3903 -0.452562 6.72956 59.4085
9123338 7.60155 9.42091 22.6404 19.6109 -0.510415 6.38449 59.2738
9123348 8.34145 10.0379 22.1089 18.9095 -0.632574 5.71713 59.3977
9123358 8.34145 10.0379 22.1089 18.9095 -0.632574 5.71713 59.3977
9123373 8.91399 10.5168 21.6167 18.3054 -0.719605 5.17869 59.3529
9123378 9.46891 10.968 21.1343 17.7307 -0.802904 4.66124 59.3019
9123389 9.46891 10.968 21.1343 17.7307 -0.802904 4.66124 59.3019
9123398 9.95337 11.3917 20.7209 17.1948 -0.880755 4.19436 59.2608
9123410 9.95337 11.3917 20.7209 17.1948 -0.880755 4.19436 59.2608
9123421 10.4026 11.6587 20.3468 16.7335 -0.996435 3.80925 59.1416
9123430 10.7549 12.0087 20.1204 16.248 -1.10712 3.45115 59.1321
9123450 11.2482 12.3586 19.6479 15.8197 -1.15016 3.01167 59.0745
9123460 11.6269 12.773 19.2345 15.3152 -1.17609 2.58265 58.9497
9123470 11.6269 12.773 19.2345 15.3152 -1.17609 2.58265 58.9497
9123480 11.9969 13.169 18.8309 14.8583 -1.18955 2.17229 58.8552
9123493 11.9969 13.169 18.8309 14.8583 -1.18955 2.17229 58.8552
9123500 12.3316 13.6018 18.4667 14.4395 -1.17138 1.77757 58.8397
9123517 12.728 14.0163 18.2009 13.9731 -1.24729 1.38237 58.9183
9123520 12.728 14.0163 18.2009 13.9731 -1.24729 1.38237 58.9183
9123530 13.0098 14.3017 17.9155 13.7161 -1.23316 1.09937 58.9432
9123542 13.2389 14.5504 17.6694 13.5733 -1.17924 0.877528 59.032
9123550 13.2389 14.5504 17.6694 13.5733 -1.17924 0.877528 59.032
9123565 13.4679 14.7161 17.4233 13.3354 -1.2044 0.655208 58.9427
9123581 13.6881 14.9556 17.1772 13.1831 -1.15526 0.436399 59.0039
9123591 14.014 15.2595 16.7609 12.8975 -1.11053 0.0979757 58.9319
9123601 14.014 15.2595 16.7609 12.8975 -1.11053 0.0979757 58.9319
9123612 14.3927 15.6555 16.189 12.4692 -1.04633 -0.355163 58.7064
9123622 14.7627 16.0054 15.5859 12.0885 -0.964515 -0.794041 58.4425
9123638 14.7627 16.0054 15.5859 12.0885 -0.964515 -0.794041 58.4425
9123642 15.1503 16.4567 15.0765 11.6221 -0.921007 -1.26277 58.3054
9123652 15.4585 16.8619 14.5982 11.3175 -0.805937 -1.6497 58.236
9123672 15.7492 17.2431 14.2135 11.089 -0.699253 -1.9787 58.2948
9123692 15.9782 17.5543 13.8183 10.9272 -0.564116 -2.26166 58.2781
9123702 16.1368 17.8267 13.5064 10.813 -0.430471 -2.48204 58.2829
9123712 16.1368 17.8267 13.5064 10.813 -0.430471 -2.48204 58.2829
9123722 16.401 18.2254 13.0593 10.6321 -0.25842 -2.81259 58.3179
9123743 16.5596 18.6047 12.737 10.4894 -0.0867173 -3.06674 58.3906
9123753 16.6917 18.8867 12.3731 10.318 0.0600487 -3.31751 58.2696
9123780 16.8503 19.1882 12.0716 10.1467 0.177273 -3.55844 58.2567
9123797 16.9031 19.4994 11.874 10.0134 0.315556 -3.73523 58.29
9123799 16.9031 19.4994 11.874 10.0134 0.315556 -3.73523 58.29
9123805 17.01 19.6939 11.6349 9.83259 0.378922 -3.92885 58.1713
9123815 17.0996 19.8982 11.3645 9.68029 0.479943 -4.12274 58.0426
9123827 17.0996 19.8982 11.3645 9.68029 0.479943 -4.12274 58.0426
9123840 17.1893 20.0441 11.2294 9.68981 0.565398 -4.20813 58.1525
9123845 17.1893 20.0441 11.2294 9.68981 0.565398 -4.20813 58.1525
9123855 17.2591 20.2386 11.063 9.60414 0.653583 -4.34038 58.1648
9123865 17.2989 20.4331 11.0526 9.62318 0.729659 -4.3803 58.4078
9123890 17.3189 20.54 10.9694 9.61366 0.797978 -4.4341 58.442
9123895 17.3089 20.5498 10.8654 9.61366 0.852397 -4.46869 58.3378
9123905 17.3089 20.5498 10.8654 9.61366 0.852397 -4.46869 58.3378
9123915 17.2093 20.5303 10.9382 9.77548 0.923091 -4.3691 58.4533
9123925 17.2093 20.5303 10.9382 9.77548 0.923091 -4.3691 58.4533
9123939 17.0698 20.4233 10.9694 9.79451 0.934944 -4.30742 58.257
9123946 16.9031 20.3942 10.9694 9.95633 1.064 -4.2178 58.223
9123956 16.9031 20.3942 10.9694 9.95633 1.064 -4.2178 58.223
9123966 16.7446 20.3747 11.1358 10.1277 1.12278 -4.07377 58.3827
9123976 16.6124 20.2191 11.2294 10.3561 1.16979 -3.91481 58.417
9123986 16.6124 20.2191 11.2294 10.3561 1.16979 -3.91481 58.417
9123996 16.4451 20.1024 11.4373 10.6226 1.21258 -3.70795 58.6074
9124006 16.4451 20.1024 11.4373 10.6226 1.21258 -3.70795 58.6074
9124016 16.1896 19.8593 11.6557 10.8701 1.23094 -3.46305 58.5747
9124026 16.0135 19.6648 11.8324 11.2032 1.2868 -3.22987 58.7139
9124036 16.0135 19.6648 11.8324 11.2032 1.2868 -3.22987 58.7139
9124050 15.8197 19.4508 12.1028 11.3746 1.23534 -3.01113 58.7478
9124066 15.5114 19.2174 12.3211 11.6887 1.30816 -2.7373 58.7386
9124083 15.2383 18.9937 12.5914 12.0123 1.34962 -2.4547 58.8358
9124086 15.2383 18.9937 12.5914 12.0123 1.34962 -2.4547 58.8358
9124096 14.9477 18.7603 12.8202 12.2122 1.36391 -2.2154 58.7404
9124114 14.7451 18.6241 13.0177 12.5168 1.43375 -1.99512 58.9038
9124116 14.7451 18.6241 13.0177 12.5168 1.43375 -1.99512 58.9038
9124126 14.5601 18.3518 13.2049 12.7357 1.41139 -1.77681 58.8526
9124143 14.5601 18.3518 13.2049 12.7357 1.41139 -1.77681 58.8526
9124147 14.2606 18.0406 13.4856 13.0594 1.42478 -1.46728 58.8462
9124157 14.0052 17.8558 13.6832 13.3735 1.50249 -1.22316 58.9177
9124175 14.0052 17.8558 13.6832 13.3735 1.50249 -1.22316 58.9177
9124177 13.7497 17.4765 13.9951 13.6495 1.43585 -0.912594 58.8709
9124187 13.4767 17.2918 14.3174 14.0112 1.48436 -0.619274 59.0971
9124207 13.2565 16.9632 14.567 14.3348 1.46924 -0.334357 59.1214
9124219 12.9658 16.6777 14.8477 14.7536 1.52664 -0.0106698 59.2448
9124227 12.9658 16.6777 14.8477 14.7536 1.52664 -0.0106698 59.2448
9124237 12.7192 16.4198 15.2844 15.1344 1.49041 0.322321 59.5578
9124247 12.7192 16.4198 15.2844 15.1344 1.49041 0.322321 59.5578
9124257 12.3668 16.0515 15.5443 15.477 1.52143 0.656905 59.4397
9124267 12.0145 15.6923 15.8979 15.8483 1.52566 1.01912 59.4529
9124277 12.0145 15.6923 15.8979 15.8483 1.52566 1.01912 59.4529
9124289 11.6269 15.3516 16.3554 16.3147 1.54402 1.43126 59.6485
9124297 11.6269 15.3516 16.3554 16.3147 1.54402 1.43126 59.6485
9124314 11.1513 14.799 16.8024 16.7335 1.50403 1.91278 59.4863
9124317 10.7021 14.3386 17.2756 17.3215 1.54364 2.40363 59.6378
9124327 10.7021 14.3386 17.2756 17.3215 1.54364 2.40363 59.6378
9124340 10.3321 13.8321 17.7383 17.7891 1.48714 2.85548 59.6916
9124350 9.8829 13.4821 18.2501 18.1398 1.45967 3.26959 59.755
9124364 9.8829 13.4821 18.2501 18.1398 1.45967 3.26959 59.755
9124367 9.53057 13.0953 18.6242 18.5977 1.47803 3.65828 59.8478
9124377 9.53057 13.0953 18.6242 18.5977 1.47803 3.65828 59.8478
9124389 9.18705 12.6165 19.205 19.0458 1.36138 4.10811 60.0543
9124397 8.82591 12.2665 19.6184 19.3576 1.3234 4.4658 60.0684
9124413 8.82591 12.2665 19.6184 19.3576 1.3234 4.4658 60.0684
9124422 8.47358 11.8429 20.0909 19.7473 1.25747 4.86788 60.1547
9124438 8.10363 11.3548 20.6323 20.2052 1.17091 5.31853 60.2959
9124448 7.77772 10.9128 21.1048 20.6046 1.09058 5.71662 60.3999
9124463 7.77772 10.9128 21.1048 20.6046 1.09058 5.71662 60.3999
9124468 7.41658 10.5444 21.469 20.8871 1.05522 6.06671 60.3171
9124478 7.16995 10.2129 21.8135 21.1112 0.970265 6.35291 60.3076
9124500 6.98497 9.97346 22.1285 21.2378 0.869361 6.56644 60.3248
9124514 6.64145 9.62351 22.5026 21.4911 0.817546 6.90243 60.2587
9124520 6.64145 9.62351 22.5026 21.4911 0.817546 6.90243 60.2587
9124530 6.51813 9.31961 22.8078 21.8321 0.754747 7.14366 60.4776
9124550 6.25389 8.95125 23.1228 22.1731 0.722167 7.46038 60.501
9124564 5.9544 8.62893 23.5263 22.5335 0.693277 7.78567 60.6432
9124570 5.9544 8.62893 23.5263 22.5335 0.693277 7.78567 60.6432
9124580 5.67254 8.27898 23.7626 22.8648 0.705114 8.0909 60.5789
9124591 5.37306 7.95666 24.1071 23.3519 0.751927 8.42161 60.7887
9124615 5.16166 7.57909 24.432 23.8292 0.743705 8.73426 61.0019
9124621 5.16166 7.57909 24.432 23.8292 0.743705 8.73426 61.0019
9124631 4.77409 7.13705 24.8454 24.2384 0.719714 9.14157 60.9949
9124641 4.43938 6.80553 25.1702 24.5891 0.731513 9.47011 61.0043
9124651 4.43938 6.80553 25.1702 24.5891 0.731513 9.47011 61.0043
9124664 4.16632 6.43716 25.4163 25.0665 0.786176 9.79254 61.0863
9124671 3.89326 6.10563 25.7116 25.3977 0.776669 10.0912 61.1082
9124688 3.89326 6.10563 25.7116 25.3977 0.776669 10.0912 61.1082
9124692 3.66425 5.87541 25.7412 25.6413 0.866374 10.3024 60.9221
9124702 3.47927 5.61755 25.938 25.7971 0.820854 10.5138 60.832
9124722 3.35596 5.45179 26.0759 26.1186 0.876445 10.6685 61.0022
9124736 3.35596 5.45179 26.0759 26.1186 0.876445 10.6685 61.0022
9124742 3.27668 5.29523 26.0463 26.216 0.899276 10.7728 60.8343
9124752 3.19741 5.23998 26.1841 26.3622 0.910333 10.8494 60.9837
9124762 3.19741 5.23998 26.1841 26.3622 0.910333 10.8494 60.9837
9124773 3.14456 5.22156 26.2727 26.4791 0.933996 10.8935 61.1179
9124785 3.03886 5.04659 26.3613 26.5668 0.906834 11.0244 61.0135
9124793 3.03886 5.04659 26.3613 26.5668 0.906834 11.0244 61.0135
9124809 3.01244 5.03738 26.4302 26.7226 0.94659 11.0542 61.2027
9124813 3.01244 5.03738 26.4302 26.7226 0.94659 11.0542 61.2027
9124823 2.89793 4.87161 26.4204 26.8785 0.995529 11.1832 61.0684
9124834 2.8715 4.79794 26.3712 26.9954 1.04475 11.2304 61.036
9124856 2.83627 4.72427 26.3515 26.9077 1.00472 11.2707 60.8198
9124863 2.83627 4.71506 26.3318 26.9467 1.02487 11.2758 60.8298
9124880 2.83627 4.71506 26.3318 26.9467 1.02487 11.2758 60.8298
9124883 2.89793 4.73348 26.3219 26.8883 0.986931 11.2371 60.8416
9124893 2.89793 4.73348 26.3219 26.8883 0.986931 11.2371 60.8416
9124905 2.93316 4.76111 26.2038 26.8883 1.03328 11.2026 60.7863
9124913 3.02124 4.8532 26.1546 26.8298 1.0299 11.1183 60.8588
9124928 3.02124 4.8532 26.1546 26.8298 1.0299 11.1183 60.8588
9124934 3.12694 4.94529 26.1841 26.7713 0.985435 11.0319 61.0277
9124943 3.14456 4.9545 26.0857 26.7032 0.996664 11.0095 60.8879
9124965 3.23264 4.99133 25.9774 26.5473 0.958273 10.9387 60.7487
9124985 3.38238 5.1571 25.8101 26.4888 1.00819 10.7891 60.8384
9125000 3.44404 5.24919 25.7215 26.4011 1.02145 10.7117 60.8159
9125005 3.44404 5.24919 25.7215 26.4011 1.02145 10.7117 60.8159
9125015 3.56736 5.38732 25.623 26.2453 1.00381 10.5832 60.823
9125025 3.56736 5.38732 25.623 26.2453 1.00381 10.5832 60.823
9125035 3.65544 5.48862 25.4459 25.992 0.981852 10.4719 60.5819
9125048 3.85803 5.69122 25.2588 25.7289 0.951195 10.2677 60.537
9125073 3.98135 5.90303 25.1702 25.5146 0.935319 10.1043 60.5692
9125077 4.15751 6.16089 25.1899 25.2711 0.85741 9.90696 60.7794
9125099 4.33368 6.44637 24.9734 24.9106 0.844789 9.66897 60.664
9125130 4.58031 6.7779 24.7568 24.5112 0.804916 9.37955 60.6262
9125154 4.65959 6.94366 24.5107 24.2968 0.856724 9.23783 60.4108
9125156 4.85337 7.04496 24.3532 24.141 0.81937 9.0895 60.3925
9125180 5.09119 7.33044 24.2056 23.8779 0.789863 8.84103 60.5051
9125196 5.11762 7.51463 24.117 23.6636 0.804323 8.72704 60.4128
9125209 5.27617 7.64355 23.9693 23.459 0.769332 8.5774 60.3481
9125216 5.27617 7.64355 23.9693 23.459 0.769332 8.5774 60.3481
9125233 5.30259 7.82774 23.9004 23.3032 0.798842 8.47117 60.3339
9125236 5.44352 7.97508 23.7921 23.0986 0.761905 8.32511 60.3093
9125256 5.66373 8.23294 23.5657 22.8355 0.762472 8.086 60.2979
9125266 5.66373 8.23294 23.5657 22.8355 0.762472 8.086 60.2979
9125280 5.80466 8.3987 23.2999 22.4166 0.713751 7.88883 59.9199
9125286 6.17461 8.73023 23.0834 21.9685 0.600731 7.5422 59.9567
9125297 6.17461 8.73023 23.0834 21.9685 0.600731 7.5422 59.9567
9125307 6.43886 9.17226 22.7881 21.5593 0.627372 7.18904 59.9585
9125317 6.66788 9.56826 22.4435 21.1112 0.655624 6.85354 59.7909
9125328 6.66788 9.56826 22.4435 21.1112 0.655624 6.85354 59.7909
9125337 7.02021 9.94583 22.0498 20.5656 0.60482 6.45739 59.5814
9125353 7.02021 9.94583 22.0498 20.5656 0.60482 6.45739 59.5814
9125357 7.35492 10.4247 21.6068 20.0785 0.648052 6.0302 59.465
9125367 7.84819 10.968 21.0753 19.5135 0.655687 5.49765 59.405
9125378 7.84819 10.968 21.0753 19.5135 0.655687 5.49765 59.405
9125387 8.37668 11.4653 20.524 18.9679 0.645721 4.96763 59.334
9125402 8.94041 11.9995 19.9236 18.4613 0.672904 4.41089 59.3248
9125407 8.94041 11.9995 19.9236 18.4613 0.672904 4.41089 59.3248
9125417 9.48653 12.4599 19.4609 17.8865 0.589859 3.8961 59.2939
9125427 9.48653 12.4599 19.4609 17.8865 0.589859 3.8961 59.2939
9125437 9.81244 12.8559 19.018 17.4579 0.627029 3.50182 59.1442
9125450 10.1736 13.2243 18.6833 17.0097 0.58265 3.12108 59.0909
9125457 10.1736 13.2243 18.6833 17.0097 0.58265 3.12108 59.0909
9125473 10.5699 13.6571 18.2994 16.6193 0.594738 2.7115 59.1457
9125477 10.9223 14.0807 17.9647 16.1719 0.577301 2.31662 59.1396
9125487 10.9223 14.0807 17.9647 16.1719 0.577301 2.31662 59.1396
9125497 11.2658 14.4122 17.6103 15.8007 0.565588 1.96304 59.089
9125508 11.2658 14.4122 17.6103 15.8007 0.565588 1.96304 59.089
9125520 11.486 14.6609 17.1673 15.4866 0.635237 1.65993 58.8008
9125528 11.7943 14.9924 16.9168 15.1725 0.617293 1.35095 58.876
9125543 11.7943 14.9924 16.9168 15.1725 0.617293 1.35095 58.876
9125548 12.0938 15.2411 16.6049 14.8964 0.611362 1.06222 58.8362
9125558 12.3756 15.5818 16.1994 14.5728 0.672382 0.718904 58.7296
9125578 12.6751 15.9317 16.0434 14.2587 0.624636 0.431657 58.909
9125591 12.6751 15.9317 16.0434 14.2587 0.624636 0.431657 58.909
9125598 12.9658 16.1988 15.6691 13.897 0.621849 0.102539 58.7307
9125617 13.3269 16.5488 15.3052 13.6019 0.645816 -0.247163 58.7828
9125620 13.3269 16.5488 15.3052 13.6019 0.645816 -0.247163 58.7828
9125630 13.5824 16.825 14.9101 13.1926 0.651667 -0.59085 58.5101
9125642 13.9347 17.1459 14.5358 12.9071 0.675985 -0.932387 58.5234
9125649 13.9347 17.1459 14.5358 12.9071 0.675985 -0.932387 58.5234
9125666 14.3487 17.6127 14.1303 12.5168 0.704044 -1.36013 58.6085
9125669 14.3487 17.6127 14.1303 12.5168 0.704044 -1.36013 58.6085
9125680 14.701 18.0698 13.6832 12.0504 0.741813 -1.80429 58.5044
9125691 15.0974 18.5366 13.1945 11.6221 0.79844 -2.2628 58.4506
9125699 15.0974 18.5366 13.1945 11.6221 0.79844 -2.2628 58.4506
9125718 15.5202 18.9937 12.6434 11.1937 0.867081 -2.74462 58.3511
9125722 15.8461 19.3827 12.2483 10.7083 0.857851 -3.16374 58.1854
9125729 15.8461 19.3827 12.2483 10.7083 0.857851 -3.16374 58.1854
9125741 16.1104 19.8009 11.9156 10.3942 0.931421 -3.50427 58.2211
9125751 16.1104 19.8009 11.9156 10.3942 0.931421 -3.50427 58.2211
9125764 16.3834 20.1802 11.5725 10.0705 0.985652 -3.84508 58.2066
9125771 16.6212 20.4428 11.3333 9.81355 0.988546 -4.10159 58.2109
9125791 16.7798 20.754 11.0214 9.51848 1.06386 -4.3894 58.0737
9125801 17 20.9485 10.8446 9.36618 1.06176 -4.57476 58.1593
9125815 17 20.9485 10.8446 9.36618 1.06176 -4.57476 58.1593
9125822 17.0897 21.0847 10.6991 9.26148 1.09976 -4.69953 58.1349
9125832 17.0897 21.0847 10.6991 9.26148 1.09976 -4.69953 58.1349
9125843 17.1694 21.143 10.6367 9.1187 1.05722 -4.79363 58.0678
9125852 17.2591 21.2208 10.6263 9.02352 1.01452 -4.85898 58.1297
9125865 17.2591 21.2208 10.6263 9.02352 1.01452 -4.85898 58.1297
9125872 17.3189 21.2208 10.6367 9.04255 0.991005 -4.85936 58.2189
9125882 17.3488 21.2111 10.6471 9.06159 0.976866 -4.85284 58.2686
9125902 17.4185 21.2111 10.6055 9.10918 0.983921 -4.86293 58.3443
9125912 17.4185 21.2111 10.6055 9.10918 0.983921 -4.86293 58.3443
9125924 17.4385 21.1236 10.5743 9.14726 0.96857 -4.84882 58.2836
9125935 17.4385 21.1236 10.6055 9.18533 0.970364 -4.82526 58.3529
9125942 17.4385 21.1236 10.6055 9.18533 0.970364 -4.82526 58.3529
9125952 17.4385 21.1236 10.6263 9.16629 0.953272 -4.82466 58.3546
9125962 17.4185 21.036 10.6159 9.2234 0.954226 -4.79002 58.2939
9125983 17.3388 20.9096 10.6783 9.29955 0.941187 -4.70679 58.2263
9125993 17.3388 20.9096 10.6783 9.29955 0.941187 -4.70679 58.2263
9126007 17.2989 20.7929 10.7615 9.36618 0.901192 -4.6284 58.2195
9126013 17.1694 20.647 10.9382 9.528 0.886798 -4.46536 58.2826
9126031 17.1694 20.647 10.9382 9.528 0.886798 -4.46536 58.2826
9126033 17.1295 20.4622 10.9902 9.68981 0.871903 -4.35333 58.2718
9126043 16.9119 20.3164 11.1982 9.8421 0.878853 -4.16726 58.2686
9126063 16.7974 20.083 11.3645 10.0801 0.857732 -3.96977 58.325
9126080 16.7974 20.083 11.3645 10.0801 0.857732 -3.96977 58.325
9126083 16.586 19.8495 11.6869 10.3751 0.834143 -3.68568 58.4975
9126093 16.3746 19.587 12.082 10.6226 0.747025 -3.3896 58.6661
9126103 16.3746 19.587 12.082 10.6226 0.747025 -3.3896 58.6661
9126113 16.1808 19.3146 12.3315 10.9748 0.755557 -3.10939 58.8018
9126127 15.9342 18.984 12.6122 11.2318 0.710216 -2.82685 58.7622
9126133 15.9342 18.984 12.6122 11.2318 0.710216 -2.82685 58.7622
9126143 15.7316 18.6436 12.945 11.5364 0.638598 -2.52152 58.8565
9126165 15.3969 18.3032 13.3089 11.8886 0.630763 -2.16545 58.8975
9126175 15.0886 17.8656 13.6624 12.2027 0.559878 -1.80785 58.8192
9126199 14.7891 17.4279 14.1095 12.6881 0.515741 -1.37748 59.0146
9126205 14.4808 17 14.6398 13.0594 0.396574 -0.958531 59.1799
9126215 14.4808 17 14.6398 13.0594 0.396574 -0.958531 59.1799
9126227 14.1285 16.5856 15.1076 13.5067 0.360775 -0.530872 59.3284
9126235 14.1285 16.5856 15.1076 13.5067 0.360775 -0.530872 59.3284
9126246 13.785 16.0975 15.4716 13.8779 0.303432 -0.134973 59.232
9126255 13.4326 15.7568 15.9498 14.2777 0.27433 0.262084 59.417
9126269 13.4326 15.7568 15.9498 14.2777 0.27433 0.262084 59.417
9126275 13.0098 15.3147 16.3242 14.6204 0.253552 0.663067 59.2691
9126285 12.5166 14.8911 16.8128 15.1629 0.305063 1.15388 59.3835
9126295 12.5166 14.8911 16.8128 15.1629 0.305063 1.15388 59.3835
9126305 12.2083 14.4859 17.315 15.6008 0.236294 1.56557 59.61
9126318 12.2083 14.4859 17.315 15.6008 0.236294 1.56557 59.61
9126324 11.7415 14.0347 17.7875 16.0577 0.23624 2.03007 59.6213
9126334 11.3098 13.6295 18.2009 16.486 0.253537 2.45218 59.6262
9126346 11.3098 13.6295 18.2009 16.486 0.253537 2.45218 59.6262
9126356 10.8959 13.2703 18.7226 16.9239 0.240615 2.87907 59.8127
9126366 10.5171 12.8743 19.1853 17.4481 0.258255 3.30913 60.0248
9126376 10.5171 12.8743 19.1853 17.4481 0.258255 3.30913 60.0248
9126388 10.0943 12.4967 19.6381 17.8476 0.25464 3.7189 60.0767
9126396 10.0943 12.4967 19.6381 17.8476 0.25464 3.7189 60.0767
9126412 9.61865 12.0179 20.022 18.3834 0.316697 4.18929 60.0419
9126416 9.16943 11.6219 20.465 18.851 0.34875 4.6229 60.1073
9126426 9.16943 11.6219 20.465 18.851 0.34875 4.6229 60.1073
9126436 8.84352 11.2167 20.9572 19.2797 0.288433 5.01931 60.297
9126447 8.43834 10.8207 21.3115 19.6791 0.311166 5.41038 60.2496
9126467 8.15648 10.4892 21.5773 20.0688 0.341737 5.72229 60.2917
9126477 8.15648 10.4892 21.5773 20.0688 0.341737 5.72229 60.2917
9126487 7.83057 10.13 21.8234 20.4097 0.367892 6.04861 60.1937
9126497 7.59275 9.83532 22.0596 20.7215 0.375533 6.31624 60.2092
9126508 7.59275 9.83532 22.0596 20.7215 0.375533 6.31624 60.2092
9126517 7.37254 9.63272 22.2565 20.8871 0.370234 6.51842 60.1489
9126532 7.14352 9.38407 22.3845 21.1501 0.418821 6.74476 60.0622
9126537 7.14352 9.38407 22.3845 21.1501 0.418821 6.74476 60.0622
9126554 6.99378 9.23673 22.5912 21.3742 0.42609 6.91116 60.1959
9126558 6.99378 9.23673 22.5912 21.3742 0.42609 6.91116 60.1959
9126568 6.87047 9.09859 22.7979 21.608 0.42991 7.06506 60.375
9126579 6.67668 8.91441 22.9849 21.8516 0.456893 7.25962 60.4276
9126603 6.43005 8.67497 23.1917 22.1438 0.495157 7.50254 60.4405
9126608 6.19223 8.38028 23.5165 22.5043 0.48514 7.78509 60.5933
9126631 5.93679 8.0948 23.8807 22.7186 0.410646 8.05721 60.6309
9126640 5.93679 8.0948 23.8807 22.7186 0.410646 8.05721 60.6309
9126653 5.60207 7.8922 24.1957 23.0888 0.486699 8.33932 60.7788
9126660 5.28497 7.66197 24.5501 23.3908 0.499994 8.62092 60.8879
9126670 5.28497 7.66197 24.5501 23.3908 0.499994 8.62092 60.8879
9126680 4.94145 7.24756 24.8946 23.839 0.513139 8.99779 60.9226
9126690 4.56269 6.88841 25.2195 24.2871 0.571448 9.3644 60.9577
9126702 4.56269 6.88841 25.2195 24.2871 0.571448 9.3644 60.9577
9126710 4.22798 6.50163 25.6329 24.745 0.566927 9.73243 61.1075
9126720 4.22798 6.50163 25.6329 24.745 0.566927 9.73243 61.1075
9126735 3.81399 6.02275 25.9479 25.1639 0.584418 10.1582 60.9485
9126740 3.49689 5.69122 26.253 25.3782 0.54239 10.4678 60.8194
9126750 3.49689 5.69122 26.253 25.3782 0.54239 10.4678 60.8194
9126763 3.27668 5.39653 26.4794 25.6607 0.534895 10.7214 60.8134
9126770 3.04767 5.12947 26.7354 25.8946 0.510213 10.9657 60.8071
9126780 3.04767 5.12947 26.7354 25.8946 0.510213 10.9657 60.8071
9126790 2.88912 4.94529 27.011 26.2258 0.520277 11.1515 61.0712
9126812 2.69534 4.72427 27.2571 26.3427 0.456631 11.3522 61.0194
9126820 2.52798 4.53088 27.4047 26.5862 0.485012 11.5313 61.0499
9126835 2.52798 4.53088 27.4047 26.5862 0.485012 11.5313 61.0499
9126840 2.41347 4.31907 27.641 26.7616 0.419647 11.6962 61.1351
9126850 2.28135 4.18093 27.8772 26.9175 0.383553 11.8352 61.257
9126860 2.28135 4.18093 27.8772 26.9175 0.383553 11.8352 61.257
9126871 2.18446 4.07963 28.0151 26.9272 0.32976 11.9297 61.2064
9126883 2.18446 4.07963 28.0151 26.9272 0.32976 11.9297 61.2064
9126891 2.07876 3.91387 28.084 27.0246 0.317422 12.0577 61.1012
9126905 2.00829 3.8494 28.1922 27.0928 0.303271 12.1259 61.1428
9126911 2.00829 3.8494 28.1922 27.0928 0.303271 12.1259 61.1428
9126921 1.88497 3.77573 28.3301 27.1415 0.287187 12.2221 61.1323
9126931 1.77927 3.6468 28.4777 27.2292 0.253156 12.3372 61.133
9126941 1.77927 3.6468 28.4777 27.2292 0.253156 12.3372 61.133
9126952 1.77927 3.57313 28.4876 27.3072 0.250816 12.374 61.1471
9126977 1.73523 3.51788 28.5269 27.2585 0.210592 12.4181 61.0385
9126986 1.74404 3.51788 28.6057 27.2779 0.18239 12.4183 61.1455
9127002 1.74404 3.51788 28.6057 27.2779 0.18239 12.4183 61.1455
9127004 1.71762 3.49946 28.7041 27.3851 0.188738 12.447 61.3063
9127011 1.71762 3.49946 28.7041 27.3851 0.188738 12.447 61.3063
9127023 1.72642 3.50867 28.714 27.3072 0.153229 12.4361 61.2562
9127031 1.84974 3.53629 28.7238 27.2585 0.0901163 12.367 61.3683
9127051 1.84093 3.56392 28.6549 27.1805 0.101492 12.3523 61.2403
9127061 1.88497 3.5455 28.6451 27.0636 0.0323415 12.3354 61.1391
9127082 1.98187 3.65601 28.5958 26.8201 -0.0416145 12.2297 61.0538
9127093 2.04352 3.67443 28.4876 26.5668 -0.11925 12.1774 60.7723
9127102 2.04352 3.67443 28.4876 26.5668 -0.11925 12.1774 60.7723
9127115 2.24611 3.87703 28.3399 26.3524 -0.146568 11.9795 60.8155
9127123 2.24611 3.87703 28.3399 26.3524 -0.146568 11.9795 60.8155
9127140 2.42228 3.98754 28.1627 26.1284 -0.193194 11.8321 60.7009
9127143 2.61606 4.1533 28.0544 25.9238 -0.244209 11.657 60.7476
9127153 2.61606 4.1533 28.0544 25.9238 -0.244209 11.657 60.7476
9127165 2.80984 4.40195 28.0151 25.7095 -0.29272 11.4495 60.9363
9127175 3.00363 4.49404 27.769 25.4854 -0.326394 11.2976 60.752
9127189 3.00363 4.49404 27.769 25.4854 -0.326394 11.2976 60.752
9127195 3.19741 4.8532 27.4737 25.1542 -0.273456 11.0197 60.6784
9127205 3.19741 4.8532 27.4737 25.1542 -0.273456 11.0197 60.6784
9127215 3.44404 5.09263 27.2177 24.6476 -0.381431 10.7601 60.402
9127225 3.76114 5.51625 26.7748 24.1994 -0.340329 10.3807 60.2516
9127239 3.76114 5.51625 26.7748 24.1994 -0.340329 10.3807 60.2516
9127245 4.17513 5.98592 26.2629 23.6149 -0.348607 9.92276 60.0388
9127255 4.65959 6.58451 25.8199 23.0499 -0.351475 9.3886 60.1139
9127265 4.65959 6.58451 25.8199 23.0499 -0.351475 9.3886 60.1139
9127275 5.10881 7.0818 25.4065 22.592 -0.349531 8.92384 60.1891
9127285 5.10881 7.0818 25.4065 22.592 -0.349531 8.92384 60.1891
9127295 5.54041 7.49621 24.9241 22.0464 -0.384094 8.48247 60.0072
9127311 6.10415 8.10401 24.3434 21.4424 -0.375497 7.8952 59.9939
9127315 6.10415 8.10401 24.3434 21.4424 -0.375497 7.8952 59.9939
9127325 6.65907 8.6013 23.7724 20.9066 -0.385231 7.3621 59.9394
9127335 7.09948 9.13543 23.1326 20.2636 -0.349246 6.83233 59.6311
9127345 7.09948 9.13543 23.1326 20.2636 -0.349246 6.83233 59.6311
9127361 7.7601 9.60509 22.5321 19.6693 -0.427172 6.25424 59.5667
9127365 7.7601 9.60509 22.5321 19.6693 -0.427172 6.25424 59.5667
9127375 8.33264 10.2313 21.8037 18.8997 -0.424063 5.60328 59.2674
9127385 8.99326 10.8391 21.1737 18.3347 -0.418429 4.97365 59.3408
9127408 9.52176 11.3824 20.6618 17.643 -0.489019 4.40827 59.209
9127416 9.89171 11.7048 20.2779 17.2533 -0.512275 4.04246 59.1277
9127434 9.89171 11.7048 20.2779 17.2533 -0.512275 4.04246 59.1277
9127436 10.244 12.1376 19.9334 16.8477 -0.503761 3.65081 59.1628
9127460 10.614 12.4047 19.6775 16.505 -0.583504 3.33537 59.2012
9127466 10.8782 12.6994 19.5003 16.2956 -0.582559 3.08681 59.3735
9127476 10.8782 12.6994 19.5003 16.2956 -0.582559 3.08681 59.3735
9127487 11.0104 12.8283 19.3723 16.0767 -0.623104 2.93747 59.2877
9127496 11.0896 12.994 19.2936 15.8863 -0.633961 2.80853 59.2636
9127512 11.0896 12.994 19.2936 15.8863 -0.633961 2.80853 59.2636
9127517 11.2041 13.2979 19.0376 15.7436 -0.506164 2.60084 59.2833
9127538 11.442 13.565 18.7817 15.3723 -0.543569 2.3192 59.161
9127547 11.715 13.961 18.4273 14.9916 -0.503324 1.96537 59.095
9127563 11.715 13.961 18.4273 14.9916 -0.503324 1.96537 59.095
9127567 12.0585 14.2373 18.073 14.7156 -0.498724 1.64833 59.0843
9127577 12.1995 14.4215 17.7481 14.43 -0.46605 1.41767 58.7991
9127588 12.1995 14.4215 17.7481 14.43 -0.46605 1.41767 58.7991
9127597 12.314 14.6793 17.6005 14.3063 -0.394261 1.2513 58.9
9127623 12.358 14.8635 17.5119 14.2301 -0.32914 1.14998 58.9635
9127639 12.4461 14.974 17.4725 14.1445 -0.338836 1.06632 59.0371
9127641 12.4461 14.974 17.4725 14.1445 -0.338836 1.06632 59.0371
9127647 12.543 15.1213 17.3544 14.0588 -0.303519 0.951837 59.0775
9127665 12.7544 15.3055 17.187 13.8875 -0.316417 0.764671 59.1344
9127667 12.7544 15.3055 17.187 13.8875 -0.316417 0.764671 59.1344
9127677 13.0451 15.5542 16.7401 13.6305 -0.254582 0.450554 58.9698
9127697 13.3005 15.9133 16.2722 13.3259 -0.141764 0.0979882 58.8119
9127715 13.644 16.2172 15.9187 13.0784 -0.113444 -0.220248 58.8583
9127727 14.0052 16.6501 15.3468 12.6405 -0.0261664 -0.682416 58.6426
9127742 14.3135 16.6501 14.7645 12.1932 -0.101334 -1.0374 57.9212
9127747 14.3135 17.1167 14.7645 12.1932 0.0992835 -1.14899 58.3879
9127757 14.7451 17.71 14.2135 11.8029 0.237009 -1.65175 58.4714
9127769 14.7451 17.71 14.2135 11.8029 0.237009 -1.65175 58.4714
9127777 15.2031 18.2059 13.548 11.2984 0.32326 -2.20476 58.2555
9127795 15.5202 18.7603 13.0385 10.9082 0.476468 -2.66211 58.2272
9127797 15.5202 18.7603 13.0385 10.9082 0.476468 -2.66211 58.2272
9127807 15.8902 19.3438 12.581 10.4703 0.576025 -3.13525 58.2853
9127827 16.3041 19.7912 12.1028 10.042 0.612244 -3.59304 58.2401
9127837 16.5596 20.2775 11.6349 9.7374 0.781843 -3.98513 58.2093
9127847 16.5596 20.2775 11.6349 9.7374 0.781843 -3.98513 58.2093
9127857 16.7534 20.6665 11.2398 9.33763 0.866842 -4.35602 57.9972
9127875 16.9648 21.0166 10.9902 9.15677 0.954086 -4.60215 58.1283
9127877 16.9648 21.0166 10.9902 9.15677 0.954086 -4.60215 58.1283
9127887 17.1794 21.2986 10.7823 8.90929 0.965407 -4.8444 58.1695
9127908 17.3089 21.5223 10.5431 8.82363 1.0713 -5.01679 58.198
9127927 17.3986 21.6974 10.3768 8.70941 1.13069 -5.15875 58.1821
9127930 17.3986 21.6974 10.3768 8.70941 1.13069 -5.15875 58.1821
9127938 17.4484 21.8238 10.1896 8.68085 1.23259 -5.26337 58.1427
9127953 17.5082 21.9891 10.1168 8.64278 1.29035 -5.33955 58.2569
9127959 17.5082 21.9891 10.1168 8.64278 1.29035 -5.33955 58.2569
9127970 17.6178 22.1253 10.0544 8.56663 1.29346 -5.42851 58.3642
9127982 17.6178 22.1253 10.0544 8.56663 1.29346 -5.42851 58.3642
9127990 17.6876 22.2712 9.90887 8.48096 1.35208 -5.54484 58.3486
9128006 17.6477 22.3781 9.7529 8.46193 1.4764 -5.61747 58.2407
9128010 17.6477 22.3781 9.7529 8.46193 1.4764 -5.61747 58.2407
9128020 17.6776 22.4073 9.64893 8.42385 1.50652 -5.67736 58.1577
9128031 17.6577 22.4851 9.59694 8.43337 1.57456 -5.70173 58.1731
9128041 17.6577 22.4851 9.59694 8.43337 1.57456 -5.70173 58.1731
9128053 17.6278 22.5046 9.56575 8.38578 1.59115 -5.72814 58.0839
9128059 17.6278 22.5046 9.56575 8.38578 1.59115 -5.72814 58.0839
9128076 17.5879 22.5629 9.56575 8.48096 1.67112 -5.69718 58.1976
9128080 17.5082 22.5532 9.66972 8.62374 1.71323 -5.59541 58.3549
9128101 17.3787 22.4851 9.68012 8.71892 1.77869 -5.52618 58.2628
9128111 17.2093 22.349 9.82569 8.89026 1.80366 -5.36489 58.2742
9128134 17.2093 22.349 9.82569 8.89026 1.80366 -5.36489 58.2742
9128137 17.0498 22.242 9.98165 9.09966 1.84596 -5.19344 58.3731
9128142 17.0498 22.242 9.98165 9.09966 1.84596 -5.19344 58.3731
9128151 16.9207 22.0086 10.2 9.32811 1.80301 -4.97829 58.4574
9128165 16.6917 21.8043 10.408 9.48992 1.79583 -4.77743 58.3939
9128172 16.6917 21.8043 10.408 9.48992 1.79583 -4.77743 58.3939
9128182 16.4539 21.5515 10.6367 9.74692 1.80164 -4.52699 58.389
9128192 16.2601 21.2305 10.8966 10.0801 1.77615 -4.23671 58.4674
9128202 16.2601 21.2305 10.8966 10.0801 1.77615 -4.23671 58.4674
9128212 15.943 20.9777 11.2294 10.4418 1.81215 -3.90402 58.5918
9128233 15.6699 20.5595 11.6349 10.7749 1.71796 -3.53509 58.6392
9128244 15.344 20.2191 12.082 11.2699 1.72409 -3.10905 58.915
9128268 15.0974 19.762 12.5498 11.6221 1.58256 -2.71572 59.0313
9128277 14.6746 19.3633 12.9657 12.1361 1.63129 -2.26652 59.1397
9128283 14.6746 19.3633 12.9657 12.1361 1.63129 -2.26652 59.1397
9128292 14.2078 18.7992 13.6104 12.6215 1.52034 -1.71553 59.2389
9128313 13.644 18.167 14.3278 13.1926 1.42748 -1.08475 59.3315
9128329 13.0098 17.4765 15.2844 13.9636 1.31662 -0.310972 59.7344
9128343 12.2788 16.6501 16.137 14.7251 1.23739 0.485011 59.7909
9128355 11.671 15.941 16.948 15.5246 1.18441 1.21347 60.0846
9128363 11.671 15.941 16.948 15.5246 1.18441 1.21347 60.0846
9128380 11.028 15.2319 17.6792 16.1909 1.12905 1.89847 60.13
9128383 10.4995 14.532 18.3683 16.8191 1.03097 2.52976 60.2189
9128393 10.4995 14.532 18.3683 16.8191 1.03097 2.52976 60.2189
9128405 10.0415 13.9702 18.9884 17.3897 0.964576 3.07166 60.3898
9128413 10.0415 13.9702 18.9884 17.3897 0.964576 3.07166 60.3898
9128431 9.57461 13.4453 19.3231 17.7599 0.959796 3.50975 60.1029
9128433 9.16943 13.0033 19.6676 18.1203 0.953346 3.90639 59.9607
9128445 9.16943 13.0033 19.6676 18.1203 0.953346 3.90639 59.9607
9128457 8.89637 12.5981 19.9925 18.51 0.924727 4.25224 59.9969
9128465 8.89637 12.5981 19.9925 18.51 0.924727 4.25224 59.9969
9128482 8.47358 12.156 20.3764 19.0166 0.967419 4.68909 60.0226
9128484 8.14767 11.7416 20.8292 19.455 0.922236 5.08403 60.1735
9128495 8.14767 11.7416 20.8292 19.455 0.922236 5.08403 60.1735
9128508 7.79534 11.3272 21.1048 19.8447 0.945428 5.4502 60.072
9128515 7.53109 10.9957 21.5182 20.2441 0.908315 5.78105 60.2891
9128535 7.23161 10.6826 21.8825 20.5948 0.895548 6.10098 60.3915
9128559 6.94093 10.1576 22.2664 20.9845 0.80153 6.50022 60.3495
9128566 6.65907 9.82611 22.6699 21.4132 0.78848 6.83475 60.5683
9128587 6.39482 9.43012 22.9456 21.7054 0.742102 7.1498 60.476
9128595 6.11295 9.08938 23.3885 22.0562 0.677714 7.47993 60.647
9128611 6.11295 9.08938 23.3885 22.0562 0.677714 7.47993 60.647
9128615 5.80466 8.7026 23.7232 22.3679 0.636414 7.81799 60.5984
9128625 5.80466 8.7026 23.7232 22.3679 0.636414 7.81799 60.5984
9128637 5.60207 8.35265 24.0579 22.6115 0.537798 8.09447 60.6241
9128645 5.28497 8.01192 24.5107 22.9427 0.476924 8.43367 60.7503
9128661 5.28497 8.01192 24.5107 22.9427 0.476924 8.43367 60.7503
9128665 5.08238 7.67118 24.8454 23.3226 0.437462 8.71968 60.9216
9128675 4.76529 7.12784 25.1899 23.7221 0.367856 9.13217 60.8051
9128685 4.76529 7.12784 25.1899 23.7221 0.367856 9.13217 60.8051
9128695 4.43938 6.83315 25.5837 24.0436 0.350437 9.44701 60.8998
9128711 4.43938 6.83315 25.5837 24.0436 0.350437 9.44701 60.8998
9128715 4.10466 6.474 25.8987 24.3261 0.327587 9.78056 60.8034
9128725 3.83161 6.19772 26.1251 24.5307 0.317913 10.0419 60.6851
9128735 3.83161 6.19772 26.1251 24.5307 0.317913 10.0419 60.6851
9128745 3.64663 6.02275 26.3318 24.6476 0.285205 10.217 60.6487
9128761 3.54974 5.70964 26.568 24.9106 0.206819 10.4266 60.738
9128765 3.54974 5.70964 26.568 24.9106 0.206819 10.4266 60.738
9128775 3.37358 5.57151 26.7452 25.1249 0.237453 10.5874 60.8152
9128790 3.37358 5.57151 26.7452 25.1249 0.237453 10.5874 60.8152
9128795 3.30311 5.31365 26.9519 25.2808 0.139445 10.7518 60.8495
9128805 3.17979 5.20314 27.0898 25.3977 0.136071 10.8685 60.8704
9128818 3.17979 5.20314 27.0898 25.3977 0.136071 10.8685 60.8704
9128825 3.17098 5.12026 27.198 25.4756 0.0930429 10.92 60.9649
9128842 3.17098 5.12026 27.198 25.4756 0.0930429 10.92 60.9649
9128845 3.09171 5.04659 27.3063 25.4562 0.0429899 10.991 60.9008
9128854 3.0829 5.08342 27.2866 25.3295 0.0178546 10.9694 60.7825
9128865 3.0829 5.08342 27.2866 25.3295 0.0178546 10.9694 60.7825
9128876 3.11813 5.12947 27.2276 25.2516 0.0145525 10.9255 60.7267
9128886 3.13575 5.0558 27.2571 25.2223 -0.0472635 10.9495 60.671
9128912 3.14456 5.0558 27.3555 25.1931 -0.103365 10.9504 60.749
9128924 3.14456 5.0558 27.3555 25.1931 -0.103365 10.9504 60.749
9128930 3.21503 5.03738 27.3851 25.0957 -0.192237 10.9236 60.7332
9128937 3.17979 5.00975 27.454 25.0373 -0.24174 10.9512 60.6808
9128957 3.25026 5.02817 27.4933 24.9301 -0.323445 10.9086 60.7019
9128976 3.30311 5.03738 27.6607 24.8521 -0.441332 10.8882 60.8533
9128977 3.30311 5.03738 27.6607 24.8521 -0.441332 10.8882 60.8533
9128987 3.42642 5.10184 27.6607 24.8814 -0.451894 10.8106 61.0703
9129004 3.36477 5.08342 27.7001 24.7645 -0.499457 10.8392 60.9127
9129007 3.36477 5.08342 27.7001 24.7645 -0.499457 10.8392 60.9127
9129018 3.48808 5.04659 27.7296 24.7645 -0.57621 10.8046 61.0287
9129032 3.48808 5.04659 27.7296 24.7645 -0.57621 10.8046 61.0287
9129038 3.55855 5.0558 27.7197 24.6573 -0.641564 10.7628 60.9914
9129048 3.57617 5.10184 27.6016 24.5891 -0.610673 10.7229 60.8687
9129059 3.57617 5.10184 27.6016 24.5891 -0.610673 10.7229 60.8687
9129068 3.64663 5.12947 27.5032 24.3943 -0.67001 10.6607 60.6736
9129088 3.70829 5.18472 27.4638 24.3553 -0.672056 10.6056 60.7121
9129098 3.80518 5.22156 27.513 24.3358 -0.723128 10.5515 60.8756
9129118 3.88446 5.20314 27.513 24.2287 -0.807871 10.5181 60.8293
9129128 3.87565 5.28602 27.3949 24.1799 -0.742792 10.4747 60.7365
9129138 3.87565 5.28602 27.3949 24.1799 -0.742792 10.4747 60.7365
9129148 3.99016 5.29523 27.3949 24.0728 -0.83002 10.4149 60.7531
9129164 3.99016 5.29523 27.3949 24.0728 -0.83002 10.4149 60.7531
9129168 4.043 5.3597 27.2768 23.9948 -0.809751 10.3509 60.6743
9129178 4.23679 5.41495 27.2177 23.8779 -0.889592 10.2335 60.7474
9129190 4.23679 5.41495 27.2177 23.8779 -0.889592 10.2335 60.7474
9129200 4.27202 5.54388 27.0898 23.8585 -0.806168 10.1538 60.7641
9129214 4.33368 5.59913 27.0701 23.7123 -0.861517 10.0921 60.7152
9129230 4.44819 5.63597 26.824 23.6052 -0.839084 10.0007 60.5133
9129240 4.49223 5.78332 26.696 23.4006 -0.829996 9.8939 60.3721
9129265 4.68601 5.97671 26.4696 23.0693 -0.876041 9.6865 60.2017
9129281 4.82694 6.1701 26.2826 22.8258 -0.879134 9.51112 60.1054
9129292 5.02073 6.58451 26.066 22.4361 -0.859347 9.20775 60.1073
9129301 5.02073 6.58451 26.066 22.4361 -0.859347 9.20775 60.1073
9129314 5.27617 6.97129 25.6624 21.9782 -0.83033 8.86483 59.8881
9129321 5.61088 7.36728 25.308 21.5593 -0.832282 8.49417 59.8455
9129331 5.61088 7.36728 25.308 21.5593 -0.832282 8.49417 59.8455
9129341 5.90155 7.96587 24.9143 21.1112 -0.7258 8.05389 59.8929
9129351 5.90155 7.96587 24.9143 21.1112 -0.7258 8.05389 59.8929
9129364 6.26269 8.41712 24.4123 20.5461 -0.717543 7.61557 59.6382
9129371 6.64145 9.04334 23.9496 19.9421 -0.673762 7.10186 59.5765
9129390 6.64145 9.04334 23.9496 19.9421 -0.673762 7.10186 59.5765
9129391 7.06425 9.66956 23.3196 19.4648 -0.524868 6.56537 59.5182
9129402 7.5487 10.2866 22.7192 18.9095 -0.450629 6.00197 59.4639
9129415 7.5487 10.2866 22.7192 18.9095 -0.450629 6.00197 59.4639
9129421 8.11244 11.0049 22.0301 18.3249 -0.341646 5.35654 59.4723
9129431 8.11244 11.0049 22.0301 18.3249 -0.341646 5.35654 59.4723
9129443 8.65855 11.6863 21.282 17.6819 -0.241213 4.70901 59.3088
9129451 9.23109 12.4599 20.4847 17.0682 -0.0791803 4.01607 59.2439
9129472 9.87409 13.1506 19.6381 16.4194 0.0244468 3.30881 59.0822
9129483 9.87409 13.1506 19.6381 16.4194 0.0244468 3.30881 59.0822
9129494 10.5171 13.8689 18.9097 15.7436 0.0786334 2.60858 59.0392
9129504 11.0808 14.5228 18.1025 15.1153 0.193286 1.9417 58.8214
9129515 11.0808 14.5228 18.1025 15.1153 0.193286 1.9417 58.8214
9129522 11.5565 15.2042 17.4134 14.5157 0.319472 1.32095 58.6898
9129538 12.0497 15.7844 16.8128 14.0207 0.401637 0.766883 58.6677
9129542 12.0497 15.7844 16.8128 14.0207 0.401637 0.766883 58.6677
9129563 12.6135 16.3277 16.1578 13.5829 0.485384 0.204354 58.6819
9129565 13.0363 16.8527 15.5651 13.126 0.587752 -0.306711 58.58
9129594 13.4767 17.4765 14.9101 12.5929 0.719649 -0.885327 58.4563
9129596 13.4767 17.4765 14.9101 12.5929 0.719649 -0.885327 58.4563
9129603 13.7674 17.8656 14.4526 12.2408 0.80854 -1.27033 58.3263
9129624 14.1637 18.2449 14.0367 12.0028 0.875658 -1.63455 58.4481
9129626 14.1637 18.2449 14.0367 12.0028 0.875658 -1.63455 58.4481
9129635 14.4104 18.6339 13.5896 11.7172 1.00733 -1.98901 58.3511
9129650 14.6834 18.9645 13.2465 11.4507 1.06494 -2.30115 58.3452
9129655 14.6834 18.9645 13.2465 11.4507 1.06494 -2.30115 58.3452
9129665 15.0622 19.3924 12.9242 11.2223 1.12131 -2.63857 58.6011
9129685 15.1767 19.6745 12.581 10.9272 1.2183 -2.91545 58.3594
9129698 15.4321 20.0051 12.2795 10.6988 1.2806 -3.19923 58.4156
9129705 15.4321 20.0051 12.2795 10.6988 1.2806 -3.19923 58.4156
9129716 15.7228 20.2483 11.9988 10.3942 1.25115 -3.48968 58.364
9129725 15.8813 20.5692 11.6557 10.1277 1.35655 -3.77802 58.2339
9129735 15.8813 20.5692 11.6557 10.1277 1.35655 -3.77802 58.2339
9129747 16.1368 20.968 11.3437 9.89922 1.45107 -4.07775 58.3477
9129755 16.1368 20.968 11.3437 9.89922 1.45107 -4.07775 58.3477
9129771 16.3482 21.2305 10.9902 9.6327 1.51407 -4.36993 58.2016
9129775 16.5332 21.5709 10.6991 9.33763 1.58078 -4.66128 58.1408
9129785 16.5332 21.5709 10.6991 9.33763 1.58078 -4.66128 58.1408
9129797 16.7622 21.9016 10.3768 9.18533 1.69512 -4.92093 58.2259
9129804 16.8415 22.0767 10.0856 8.98544 1.78267 -5.13381 57.9892
9129825 16.9824 22.3392 9.89847 8.8617 1.85949 -5.31013 58.0818
9129835 16.9824 22.3392 9.89847 8.8617 1.85949 -5.31013 58.0818
9129846 17.0598 22.5435 9.64893 8.79507 1.99399 -5.46777 58.0473
9129855 17.1295 22.7963 9.48257 8.69989 2.1013 -5.61281 58.1083
9129870 17.1295 22.7963 9.48257 8.69989 2.1013 -5.61281 58.1083
9129875 17.2192 23.0686 9.3474 8.72844 2.24046 -5.70869 58.3637
9129885 17.2192 23.0686 9.3474 8.72844 2.24046 -5.70869 58.3637
9129895 17.2292 23.1562 9.13945 8.63326 2.3302 -5.83221 58.1581
9129905 17.3288 23.3312 9.03547 8.54759 2.36702 -5.94328 58.2431
9129920 17.3288 23.3312 9.03547 8.54759 2.36702 -5.94328 58.2431
9129925 17.289 23.3215 8.96269 8.5 2.39777 -5.97896 58.0732
9129935 17.2691 23.409 8.9107 8.46193 2.45096 -6.02201 58.0507
9129956 17.3388 23.4285 8.87951 8.50952 2.45876 -6.02985 58.1563
9129976 17.3089 23.4285 8.86911 8.6047 2.51462 -5.99461 58.2112
9129986 17.3089 23.3993 8.9211 8.67133 2.50453 -5.94739 58.3007
9129997 17.3089 23.3993 8.9211 8.67133 2.50453 -5.94739 58.3007
9130006 17.2192 23.3604 8.9107 8.69037 2.54416 -5.92427 58.1807
9130016 17.1495 23.234 9.00428 8.84266 2.54287 -5.80535 58.2304
9130043 17.0299 23.1173 9.11865 9.04255 2.57736 -5.65595 58.3084
9130056 16.8238 22.9228 9.28502 9.18533 2.57625 -5.48198 58.2169
9130069 16.7005 22.6699 9.52416 9.46137 2.53042 -5.2398 58.3559
9130076 16.7005 22.6699 9.52416 9.46137 2.53042 -5.2398 58.3559
9130086 16.5332 22.4559 9.74251 9.6327 2.48995 -5.0409 58.3643
9130097 16.2425 22.1156 10.0752 9.92777 2.45267 -4.71763 58.361
9130108 16.2425 22.1156 10.0752 9.92777 2.45267 -4.71763 58.361
9130130 15.9694 21.7168 10.4495 10.3751 2.4239 -4.32267 58.5109
9130138 15.6523 21.3084 10.855 10.813 2.39387 -3.91258 58.6287
9130152 15.2648 20.8999 11.4893 11.346 2.32706 -3.38881 59
9130158 15.2648 20.8999 11.4893 11.346 2.32706 -3.38881 59
9130168 14.8244 20.3164 11.9988 11.86 2.26835 -2.86831 58.9995
9130186 14.3839 19.8106 12.7058 12.4406 2.17452 -2.28715 59.341
9130204 13.8554 19.1882 13.3609 13.1165 2.13722 -1.6548 59.521
9130208 13.8554 19.1882 13.3609 13.1165 2.13722 -1.6548 59.521
9130218 13.2036 18.4005 13.9951 13.7828 2.09848 -0.966511 59.3819
9130229 12.6487 17.5933 14.9101 14.5538 1.92117 -0.195487 59.7058
9130256 12.0409 16.7421 15.6483 15.2581 1.8056 0.5336 59.6895
9130258 11.5565 16.033 16.3346 16.0577 1.7504 1.20104 59.9818
9130268 11.5565 16.033 16.3346 16.0577 1.7504 1.20104 59.9818
9130283 10.9311 15.3332 17.0591 16.7144 1.68954 1.87614 60.0378
9130288 10.9311 15.3332 17.0591 16.7144 1.68954 1.87614 60.0378
9130299 10.4554 14.7622 17.6398 17.1754 1.60007 2.39808 60.0328
9130311 9.9886 14.2649 18.073 17.6722 1.61484 2.87298 59.9987
9130318 9.9886 14.2649 18.073 17.6722 1.61484 2.87298 59.9987
9130328 9.68912 13.8965 18.4667 18.0619 1.5814 3.22959 60.1143
9130338 9.3544 13.4821 18.6537 18.3249 1.58777 3.54646 59.8152
9130364 9.17824 13.1874 18.8605 18.6075 1.56944 3.78606 59.8336
9130368 9.17824 13.1874 18.8605 18.6075 1.56944 3.78606 59.8336
9130379 8.88756 12.8467 19.1558 18.9484 1.56747 4.10353 59.8384
9130391 8.57047 12.4783 19.4019 19.2991 1.59212 4.43153 59.7498
9130416 8.32383 12.156 19.7661 19.6693 1.55864 4.74559 59.9153
9130420 7.96269 11.6863 20.1992 20.098 1.51071 5.16667 59.9462
9130430 7.96269 11.6863 20.1992 20.098 1.51071 5.16667 59.9462
9130443 7.74249 11.3272 20.6323 20.5948 1.47074 5.5121 60.2968
9130460 7.33731 10.9404 20.9867 20.9358 1.47518 5.89154 60.2002
9130479 7.12591 10.6365 21.3903 21.3645 1.43959 6.19469 60.5172
9130490 6.86166 10.2866 21.7151 21.647 1.38687 6.4982 60.5103
9130508 6.57979 9.9182 22.0596 21.9782 1.34507 6.82402 60.5359
9130510 6.57979 9.9182 22.0596 21.9782 1.34507 6.82402 60.5359
9130520 6.32435 9.49458 22.5321 22.4556 1.27193 7.19546 60.8067
9130532 6.32435 9.49458 22.5321 22.4556 1.27193 7.19546 60.8067
9130540 5.90155 8.89599 23.0243 22.9232 1.19077 7.69198 60.7451
9130557 5.59326 8.43554 23.5362 23.3908 1.10609 8.09559 60.9558
9130561 5.59326 8.43554 23.5362 23.3908 1.10609 8.09559 60.9558
9130571 5.21451 7.91983 23.8906 23.761 1.05937 8.51774 60.7859
9130581 4.83575 7.49621 24.3532 24.102 0.990853 8.91387 60.7872
9130591 4.83575 7.49621 24.3532 24.102 0.990853 8.91387 60.7872
9130605 4.56269 7.14626 24.7174 24.365 0.917557 9.22174 60.7914
9130611 4.56269 7.14626 24.7174 24.365 0.917557 9.22174 60.7914
9130621 4.28964 6.7779 24.9832 24.5989 0.867239 9.5255 60.6496
9130631 4.06062 6.50163 25.2982 24.8911 0.83698 9.78421 60.7516
9130654 3.86684 6.18852 25.5738 25.1834 0.793928 10.0395 60.8126
9130661 3.68187 5.87541 25.8298 25.4464 0.743917 10.2868 60.8335
9130678 3.68187 5.87541 25.8298 25.4464 0.743917 10.2868 60.8335
9130681 3.54974 5.64518 26.1152 25.6413 0.665069 10.4743 60.9514
9130691 3.54974 5.64518 26.1152 25.6413 0.665069 10.4743 60.9514
9130704 3.35596 5.42416 26.1743 25.6607 0.6412 10.6545 60.6152
9130711 3.32073 5.41495 26.2924 25.6997 0.618139 10.6845 60.7278
9130728 3.32073 5.41495 26.2924 25.6997 0.618139 10.6845 60.7278
9130731 3.30311 5.36891 26.381 25.8069 0.612745 10.7253 60.8599
9130741 3.30311 5.36891 26.381 25.8069 0.612745 10.7253 60.8599
9130751 3.22383 5.2584 26.4302 25.8848 0.612342 10.8145 60.7973
9130763 3.12694 5.19393 26.5877 26.0407 0.62345 10.9044 60.9493
9130775 3.12694 5.19393 26.5877 26.0407 0.62345 10.9044 60.9493
9130781 3.05648 5.09263 26.568 26.1673 0.671539 10.9846 60.8845
9130791 2.96839 5.00054 26.6566 26.2745 0.677347 11.0744 60.9001
9130802 2.96839 5.00054 26.6566 26.2745 0.677347 11.0744 60.9001
9130812 2.9772 5.00054 26.7157 26.2258 0.629291 11.0713 60.9192
9130825 2.9772 5.00054 26.7157 26.2258 0.629291 11.0713 60.9192
9130838 2.99482 5.02817 26.6763 26.1479 0.618306 11.0444 60.8472
9130842 3.03886 5.00975 26.6763 26.216 0.619704 11.0378 60.941
9130853 3.03886 5.00975 26.6763 26.216 0.619704 11.0378 60.941
9130862 3.12694 5.00975 26.6173 26.1966 0.599712 10.9951 60.9505
9130879 3.11813 5.00975 26.7452 26.3037 0.592592 11.0142 61.1768
9130882 3.11813 5.00975 26.7452 26.3037 0.592592 11.0142 61.1768
9130892 3.04767 4.93608 26.7452 26.2648 0.577083 11.0732 60.9937
9130906 3.04767 4.93608 26.7452 26.2648 0.577083 11.0732 60.9937
9130912 3.00363 4.89003 26.8535 26.2648 0.531724 11.1186 61.0119
9130922 3.01244 4.90845 26.7157 26.216 0.573668 11.095 60.8526
9130935 3.01244 4.90845 26.7157 26.216 0.573668 11.095 60.8526
9130942 3.04767 5.00054 26.6271 26.0797 0.57832 11.0259 60.755
9130952 3.13575 5.06501 26.5582 25.9627 0.54915 10.9484 60.7217
9130963 3.13575 5.06501 26.5582 25.9627 0.54915 10.9484 60.7217
9130972 3.21503 5.22156 26.4696 25.9822 0.623751 10.8433 60.8884
9130987 3.21503 5.22156 26.4696 25.9822 0.623751 10.8433 60.8884
9130992 3.22383 5.16631 26.6173 25.9335 0.516376 10.8697 60.9409
9131002 3.24145 5.19393 26.5582 25.9335 0.544837 10.8465 60.9271
9131023 3.26788 5.18472 26.4893 25.8458 0.52371 10.8285 60.7877
9131034 3.28549 5.27681 26.3909 25.651 0.516251 10.7615 60.6042
9131043 3.28549 5.27681 26.3909 25.651 0.516251 10.7615 60.6042
9131057 3.43523 5.34128 26.253 25.4951 0.474241 10.6498 60.5247
9131063 3.43523 5.34128 26.253 25.4951 0.474241 10.6498 60.5247
9131073 3.5057 5.47941 26.1448 25.388 0.502712 10.5459 60.5178
9131085 3.72591 5.58992 26.0168 25.3393 0.488892 10.3937 60.6719
9131095 3.72591 5.58992 26.0168 25.3393 0.488892 10.3937 60.6719
9131105 3.8228 5.69122 25.8396 25.1347 0.480872 10.2814 60.4883
9131115 3.99016 5.85699 25.7313 24.9301 0.440267 10.1178 60.5086
9131128 3.99016 5.85699 25.7313 24.9301 0.440267 10.1178 60.5086
9131135 4.08705 6.08722 25.4459 24.5307 0.450936 9.92562 60.1508
9131150 4.08705 6.08722 25.4459 24.5307 0.450936 9.92562 60.1508
9131155 4.32487 6.54767 24.8651 23.8974 0.526172 9.53046 59.635
9131165 4.82694 7.27519 24.2252 23.1278 0.567991 8.89349 59.4552
9131175 4.82694 7.27519 24.2252 23.1278 0.567991 8.89349 59.4552
9131186 5.57565 8.15005 23.5067 22.3874 0.610176 8.09338 59.6198
9131196 6.25389 8.85915 22.9653 21.7347 0.574574 7.41985 59.813
9131205 6.25389 8.85915 22.9653 21.7347 0.574574 7.41985 59.813
9131218 6.84404 9.54063 22.4731 21.0917 0.548461 6.80076 59.9494
9131225 6.84404 9.54063 22.4731 21.0917 0.548461 6.80076 59.9494
9131245 7.3285 9.99187 21.9612 20.5072 0.505671 6.30921 59.7887
9131247 7.7601 10.5813 21.4887 19.835 0.489148 5.77783 59.665
9131255 7.7601 10.5813 21.4887 19.835 0.489148 5.77783 59.665
9131274 8.14767 11.0417 20.9867 19.2115 0.470984 5.30636 59.3875
9131276 8.14767 11.0417 20.9867 19.2115 0.470984 5.30636 59.3875
9131287 8.6057 11.5943 20.4059 18.6367 0.514549 4.77088 59.2425
9131305 9.10777 12.1376 19.8842 18.0132 0.489837 4.22334 59.1427
9131306 9.10777 12.1376 19.8842 18.0132 0.489837 4.22334 59.1427
9131315 9.65389 12.6073 19.4117 17.4579 0.422606 3.7058 59.1307
9131334 10.1207 13.1598 18.8605 16.9334 0.470591 3.17734 59.0744
9131336 10.1207 13.1598 18.8605 16.9334 0.470591 3.17734 59.0744
9131345 10.5435 13.6479 18.3978 16.467 0.496787 2.71098 59.0562
9131365 10.843 14.0899 18.0533 16.0006 0.506133 2.31939 58.9868
9131375 11.2218 14.5135 17.7284 15.6103 0.496686 1.93065 59.074
9131396 11.6093 14.8451 17.3937 15.1153 0.405902 1.54028 58.9635
9131414 11.9705 15.2871 16.9792 14.7156 0.446549 1.12901 58.9523
9131426 12.4285 15.5726 16.4281 14.3158 0.439078 0.700359 58.745
9131445 12.7632 16.0238 16.0746 13.9731 0.492537 0.321414 58.8348
9131447 12.7632 16.0238 16.0746 13.9731 0.492537 0.321414 58.8348
9131461 13.0275 16.2725 15.7107 13.5448 0.460723 -0.0113842 58.5554
9131475 13.0275 16.2725 15.7107 13.5448 0.460723 -0.0113842 58.5554
9131478 13.2212 16.604 15.4404 13.3449 0.549093 -0.266159 58.6105
9131487 13.556 16.8803 15.2012 13.0498 0.499654 -0.558515 58.6873
9131501 13.556 16.8803 15.2012 13.0498 0.499654 -0.558515 58.6873
9131507 13.7497 17.3015 14.9413 12.7833 0.592837 -0.848979 58.7758
9131518 14.058 17.603 14.6502 12.4311 0.564298 -1.16944 58.7423
9131529 14.058 17.603 14.6502 12.4311 0.564298 -1.16944 58.7423
9131538 14.4192 18.0406 14.1719 12.0409 0.635073 -1.5971 58.6725
9131552 14.4192 18.0406 14.1719 12.0409 0.635073 -1.5971 58.6725
9131558 14.7451 18.4783 13.8703 11.6125 0.628293 -1.97776 58.7062
9131576 15.0534 18.8284 13.3089 11.346 0.773945 -2.36438 58.5366
9131578 15.0534 18.8284 13.3089 11.346 0.773945 -2.36438 58.5366
9131589 15.3705 19.1688 12.841 10.9367 0.811964 -2.76803 58.3169
9131602 15.6171 19.4994 12.5914 10.6321 0.824061 -3.05783 58.3401
9131618 15.8549 19.8301 12.2171 10.299 0.883591 -3.39398 58.2011
9131640 16.0311 20.1413 11.9676 10.042 0.938702 -3.65134 58.182
9131660 16.3922 20.4622 11.6869 9.82307 0.945026 -3.94364 58.3644
9131670 16.5596 20.8221 11.3645 9.54703 1.04858 -4.23808 58.2932
9131688 16.7534 20.9971 11.2398 9.34714 1.00757 -4.41319 58.3374
9131690 16.7534 20.9971 11.2398 9.34714 1.00757 -4.41319 58.3374
9131700 16.8943 21.1819 11.0422 9.21389 1.05401 -4.5824 58.3323
9131715 16.8943 21.1819 11.0422 9.21389 1.05401 -4.5824 58.3323
9131721 16.9383 21.3084 10.8446 9.05207 1.10822 -4.73398 58.1434
9131731 16.9824 21.4348 10.7719 8.95689 1.13397 -4.82108 58.1459
9131751 17.0299 21.5126 10.6991 8.78555 1.10688 -4.92645 58.0271
9131765 17.0698 21.5515 10.6783 8.79507 1.11823 -4.94397 58.0946
9131771 17.0698 21.5515 10.6783 8.79507 1.11823 -4.94397 58.0946
9131781 17.2192 21.7168 10.6471 8.757 1.11737 -5.02192 58.3401
9131801 17.2292 21.7363 10.5847 8.78555 1.16049 -5.03856 58.3357
9131815 17.2192 21.8627 10.5119 8.81411 1.26081 -5.0736 58.408
9131832 17.2491 21.9113 10.4495 8.79507 1.28745 -5.11493 58.4051
9131842 17.2292 21.96 10.3872 8.77604 1.33655 -5.14785 58.3523
9131852 17.2292 21.96 10.3872 8.77604 1.33655 -5.14785 58.3523
9131864 17.1495 21.9989 10.3456 8.80459 1.41874 -5.14546 58.2985
9131872 17.0698 21.9989 10.3768 8.88074 1.4715 -5.09492 58.3261
9131889 17.0698 21.9697 10.3768 8.88074 1.45973 -5.08996 58.2969
9131892 17 21.9697 10.4599 8.97592 1.49201 -5.01677 58.4055
9131902 17 21.9697 10.4599 8.97592 1.49201 -5.01677 58.4055
9131914 16.9648 21.9891 10.4495 8.97592 1.52055 -5.01764 58.3794
9131922 16.8415 21.9308 10.4911 9.05207 1.56488 -4.94613 58.3154
9131938 16.8415 21.9308 10.4911 9.05207 1.56488 -4.94613 58.3154
9131942 16.815 21.8724 10.5119 9.17581 1.59369 -4.88214 58.3752
9131952 16.815 21.8724 10.5119 9.17581 1.59369 -4.88214 58.3752
9131965 16.6829 21.8043 10.6263 9.24244 1.6012 -4.78576 58.356
9131972 16.5948 21.639 10.8031 9.42329 1.56706 -4.62045 58.4602
9131990 16.5948 21.639 10.8031 9.42329 1.56706 -4.62045 58.4602
9131992 16.4363 21.464 10.959 9.528 1.54 -4.47355 58.3872
9132002 16.2865 21.2403 11.1462 9.81355 1.54784 -4.24895 58.4865
9132023 16.1544 21.0263 11.3333 10.1086 1.55537 -4.02713 58.6227
9132037 16.1544 21.0263 11.3333 10.1086 1.55537 -4.02713 58.6227
9132043 15.9959 20.7054 11.5933 10.3656 1.48392 -3.76977 58.6601
9132060 15.714 20.3553 11.8948 10.7178 1.47587 -3.43973 58.6819
9132065 15.714 20.3553 11.8948 10.7178 1.47587 -3.43973 58.6819
9132075 15.4409 19.9954 12.2899 10.9558 1.37195 -3.11612 58.682
9132084 15.1326 19.5383 12.6746 11.4222 1.3414 -2.69898 58.7678
9132105 15.1326 19.5383 12.6746 11.4222 1.3414 -2.69898 58.7678
9132108 14.7979 19.0812 13.1529 11.841 1.26178 -2.26384 58.8731
9132117 14.4368 18.6144 13.6416 12.3359 1.21635 -1.79751 59.0287
9132133 14.4368 18.6144 13.6416 12.3359 1.21635 -1.79751 59.0287
9132136 13.9876 18.1573 14.2654 12.8024 1.14277 -1.28615 59.2127
9132162 13.5472 17.6516 14.8581 13.3925 1.1097 -0.743865 59.4494
9132166 13.0098 17.0584 15.6067 14.0683 1.05036 -0.0987116 59.7432
9132191 12.4637 16.4106 16.3761 14.6013 0.907275 0.527086 59.8518
9132196 11.8648 15.7015 17.0492 15.3438 0.888655 1.2075 59.9593
9132216 11.2746 15.0016 17.7087 16.0386 0.856707 1.86705 60.0236
9132226 11.2746 15.0016 17.7087 16.0386 0.856707 1.86705 60.0236
9132243 10.7725 14.3017 18.3683 16.7716 0.802338 2.50744 60.2141
9132247 10.1824 13.8044 18.8506 17.3702 0.889277 3.04795 60.2076
9132257 10.1824 13.8044 18.8506 17.3702 0.889277 3.04795 60.2076
9132271 9.74197 13.3532 19.2345 17.8573 0.927952 3.48829 60.187
9132277 9.3456 12.8743 19.6381 18.208 0.873476 3.90225 60.066
9132287 9.3456 12.8743 19.6381 18.208 0.873476 3.90225 60.066
9132298 8.9228 12.506 19.9629 18.6367 0.939927 4.29069 60.0284
9132323 8.50881 12.0639 20.4256 18.9679 0.874421 4.70784 59.9662
9132327 8.09482 11.6035 20.7997 19.5427 0.937566 5.15752 60.0406
9132337 8.09482 11.6035 20.7997 19.5427 0.937566 5.15752 60.0406
9132350 7.72487 11.1983 21.2131 19.835 0.873449 5.53388 59.9712
9132357 7.46062 10.8483 21.6167 20.3026 0.860724 5.88021 60.2282
9132376 7.46062 10.8483 21.6167 20.3026 0.860724 5.88021 60.2282
9132378 7.15233 10.4984 22.0203 20.7312 0.851378 6.23341 60.4022
9132387 7.15233 10.4984 22.0203 20.7312 0.851378 6.23341 60.4022
9132403 6.77358 10.1668 22.4337 21.0917 0.848109 6.59504 60.4658
9132407 6.45648 9.77086 22.7881 21.4911 0.833556 6.95426 60.5065
9132417 6.45648 9.77086 22.7881 21.4911 0.833556 6.95426 60.5065
9132430 6.12176 9.35645 23.2409 21.8808 0.773355 7.33751 60.5999
9132437 5.74301 8.87757 23.6445 22.5043 0.820479 7.78226 60.7693
9132456 5.74301 8.87757 23.6445 22.5043 0.820479 7.78226 60.7693
9132458 5.39067 8.41712 23.9988 22.9622 0.818586 8.18345 60.7688
9132482 4.95907 7.91062 24.4123 23.4688 0.826347 8.64468 60.7507
9132488 4.63316 7.39491 24.8454 23.9559 0.769457 9.06796 60.8293
9132510 4.29845 7.00813 25.1702 24.4917 0.832862 9.43652 60.9685
9132520 3.99896 6.60293 25.4655 24.9398 0.851637 9.78658 61.0073
9132540 3.70829 6.28061 25.7805 25.31 0.860274 10.0938 61.0795
9132551 3.70829 6.28061 25.7805 25.31 0.860274 10.0938 61.0795
9132561 3.44404 5.8662 26.0266 25.5731 0.807992 10.4144 60.9099
9132570 3.26788 5.71885 26.3318 25.9335 0.837815 10.5985 61.252
9132591 3.07409 5.31365 26.4401 26.1576 0.802276 10.8739 60.9854
9132601 2.8715 5.06501 26.6369 26.5375 0.856677 11.1039 61.111
9132616 2.8715 5.06501 26.6369 26.5375 0.856677 11.1039 61.111
9132621 2.72176 4.82557 26.7354 26.7616 0.872332 11.2909 61.0443
9132631 2.72176 4.82557 26.7354 26.7616 0.872332 11.2909 61.0443
9132642 2.45751 4.53088 26.8633 26.9467 0.886834 11.5517 60.7984
9132652 2.41347 4.42037 27.0405 27.2292 0.898305 11.6448 61.1036
9132669 2.41347 4.42037 27.0405 27.2292 0.898305 11.6448 61.1036
9132672 2.3342 4.28223 27.198 27.2487 0.818297 11.7494 61.0632
9132682 2.18446 4.12568 27.326 27.3656 0.811797 11.8967 61.0017
9132695 2.18446 4.12568 27.326 27.3656 0.811797 11.8967 61.0017
9132702 2.14041 4.13489 27.3358 27.4728 0.872326 11.918 61.0839
9132712 2.16684 4.0428 27.4343 27.541 0.810108 11.9553 61.1849
9132738 2.15803 4.06121 27.3555 27.4143 0.804234 11.9408 60.9891
9132757 2.18446 4.07042 27.3851 27.3461 0.757158 11.9231 60.9861
9132762 2.2285 4.13489 27.2866 27.2487 0.76704 11.8653 60.8987
9132774 2.2285 4.13489 27.2866 27.2487 0.76704 11.8653 60.8987
9132782 2.29896 4.20856 27.3063 27.2682 0.76597 11.8039 61.082
9132801 2.34301 4.20856 27.1783 27.1415 0.751075 11.7711 60.8715
9132802 2.34301 4.23619 27.1783 27.1415 0.762075 11.759 60.8991
9132812 2.41347 4.39274 27.1587 27.0539 0.767994 11.6537 61.0187
9132828 2.41347 4.39274 27.1587 27.0539 0.767994 11.6537 61.0187
9132832 2.47513 4.42958 27.0504 27.0149 0.78685 11.6026 60.97
9132842 2.61606 4.5493 26.8929 26.9467 0.814304 11.4763 61.0049
9132854 2.61606 4.5493 26.8929 26.9467 0.814304 11.4763 61.0049
9132863 2.6601 4.60455 26.7846 26.8785 0.836381 11.423 60.9278
9132883 2.77461 4.76111 26.5877 26.6447 0.840682 11.2798 60.7681
9132893 2.92435 4.92687 26.4204 26.4888 0.852099 11.1235 60.7604
9132906 2.92435 4.92687 26.4204 26.4888 0.852099 11.1235 60.7604
9132913 3.0829 5.11105 26.3416 26.2745 0.806206 10.9576 60.8101
9132923 3.19741 5.27681 26.2137 26.1381 0.823599 10.8204 60.826
9132943 3.30311 5.3597 26.1054 26.0504 0.822788 10.7269 60.8186
9132964 3.47047 5.41495 25.9971 25.9043 0.761545 10.6148 60.7868
9132973 3.55855 5.54388 25.8396 25.69 0.756899 10.4962 60.632
9132988 3.55855 5.54388 25.8396 25.69 0.756899 10.4962 60.632
9132993 3.68187 5.64518 25.7018 25.5049 0.729507 10.3776 60.5337
9133003 3.79637 5.89382 25.5443 25.2905 0.761542 10.1969 60.525
