11880694 6.19223 6.17931 27.7099 23.2642 -1.75965 9.14093 63.3456
11880707 6.01606 5.88462 28.2611 23.3519 -1.98411 9.37884 63.5137
11880714 6.01606 5.88462 28.2611 23.3519 -1.98411 9.37884 63.5137
11880724 5.87513 5.65439 28.7435 23.4688 -2.15536 9.57364 63.7418
11880735 5.77824 5.48862 29.1668 23.5954 -2.2884 9.72105 64.029
11880744 5.77824 5.48862 29.1668 23.5954 -2.2884 9.72105 64.029
11880754 5.75181 5.31365 29.4129 23.4201 -2.51609 9.80481 63.8984
11880764 5.66373 5.1571 29.5704 23.3713 -2.62915 9.90885 63.7625
11880784 5.56684 5.03738 29.8657 23.3129 -2.77592 10.0123 63.7828
11880795 5.56684 5.03738 29.8657 23.3129 -2.77592 10.0123 63.7828
11880809 5.38187 4.81636 30.2889 23.5077 -2.87004 10.2192 63.9949
11880815 5.27617 4.66901 30.5941 23.5564 -2.98179 10.3452 64.0957
11880835 5.12642 4.51246 30.8894 23.5662 -3.09589 10.4884 64.0945
11880845 4.95907 4.39274 31.2536 23.6636 -3.17273 10.6347 64.269
11880857 4.95907 4.39274 31.2536 23.6636 -3.17273 10.6347 64.269
11880867 4.80052 4.28223 31.4505 23.761 -3.19148 10.7619 64.2943
11880877 4.58912 4.21777 31.48 23.9656 -3.06827 10.888 64.2525
11880897 4.42176 4.13489 31.421 24.141 -2.95034 10.9965 64.1186
11880906 4.42176 4.13489 31.421 24.141 -2.95034 10.9965 64.1186
11880916 4.36891 4.1441 31.3225 24.2092 -2.86447 11.0123 64.0447
11880934 4.21036 4.11647 31.165 24.4819 -2.64834 11.0952 63.9738
11880938 4.21036 4.11647 31.165 24.4819 -2.64834 11.0952 63.9738
11880948 4.06943 4.052 31.0567 24.784 -2.45857 11.1908 63.9621
11880958 3.99016 3.95991 31.0469 24.9496 -2.39559 11.2703 63.9465
11880968 3.99016 3.95991 31.0469 24.9496 -2.39559 11.2703 63.9465
11880978 4.00777 3.92308 30.8894 25.1736 -2.26602 11.2821 63.9939
11880988 4.00777 3.92308 30.8894 25.1736 -2.26602 11.2821 63.9939
11880998 3.93731 3.92308 30.7024 25.2418 -2.14513 11.3042 63.8046
11881009 3.85803 3.95991 30.5547 25.3198 -2.01479 11.3176 63.6924
11881019 3.85803 3.95991 30.5547 25.3198 -2.01479 11.3176 63.6924
11881030 3.91088 4.00596 30.4661 25.4562 -1.92472 11.2796 63.8391
11881039 3.90207 3.98754 30.4563 25.651 -1.84377 11.3016 63.9969
11881049 3.90207 3.98754 30.4563 25.651 -1.84377 11.3016 63.9969
11881059 3.95492 3.9415 30.4858 25.7289 -1.86017 11.305 64.1112
11881079 3.87565 3.9507 30.4169 25.7387 -1.79862 11.3304 63.9819
11881089 3.88446 3.97833 30.3775 25.9238 -1.69872 11.3237 64.1641
11881099 3.88446 3.97833 30.3775 25.9238 -1.69872 11.3237 64.1641
11881109 3.85803 4.02438 30.2693 26.0407 -1.58205 11.3162 64.1924
11881122 3.83161 4.00596 30.2299 26.0894 -1.54548 11.3351 64.1568
11881140 3.79637 4.052 30.1511 26.0797 -1.48872 11.3256 64.0792
11881150 3.79637 4.052 30.1511 26.0797 -1.48872 11.3256 64.0792
11881160 3.78756 4.10726 29.9838 26.0991 -1.39305 11.298 63.9778
11881171 3.80518 4.1533 29.8952 26.1966 -1.30776 11.2724 64.0502
11881181 3.80518 4.1533 29.8952 26.1966 -1.30776 11.2724 64.0502
11881191 3.72591 4.1441 29.7968 26.3135 -1.19767 11.3098 63.9802
11881200 3.67306 4.10726 29.7771 26.4206 -1.14189 11.3517 63.978
11881211 3.67306 4.10726 29.7771 26.4206 -1.14189 11.3517 63.978
11881220 3.75233 4.13489 29.7082 26.4304 -1.1305 11.3044 64.0258
11881231 3.75233 4.13489 29.7082 26.4304 -1.1305 11.3044 64.0258
11881240 3.68187 4.12568 29.5507 26.4109 -1.05692 11.327 63.7691
11881250 3.69948 4.20856 29.3538 26.294 -1.00334 11.2672 63.5558
11881260 3.69948 4.20856 29.3538 26.294 -1.00334 11.2672 63.5558
11881270 3.8228 4.22698 29.2061 26.3135 -0.978653 11.2011 63.5694
11881280 3.85803 4.2546 29.1668 26.2258 -1.00165 11.1676 63.5052
11881290 3.85803 4.2546 29.1668 26.2258 -1.00165 11.1676 63.5052
11881300 3.90207 4.26381 29.1372 26.255 -0.991406 11.1456 63.5581
11881310 3.90207 4.26381 29.1372 26.255 -0.991406 11.1456 63.5581
11881320 3.93731 4.31907 28.9699 26.1186 -0.974625 11.0898 63.3449
11881333 4.05181 4.46641 28.8222 25.8556 -1.00958 10.9563 63.196
11881342 4.05181 4.46641 28.8222 25.8556 -1.00958 10.9563 63.196
11881353 4.20155 4.67822 28.7927 25.7582 -1.00814 10.8002 63.4307
11881363 4.39534 4.8532 28.6943 25.5438 -1.06029 10.6297 63.4866
11881373 4.39534 4.8532 28.6943 25.5438 -1.06029 10.6297 63.4866
11881383 4.60674 5.04659 28.4679 25.3393 -1.05923 10.4365 63.4604
11881403 4.7829 5.27681 28.2316 25.0275 -1.07006 10.2338 63.3188
11881413 4.9943 5.59913 27.9363 24.6573 -1.05804 9.97044 63.187
11881423 4.9943 5.59913 27.9363 24.6573 -1.05804 9.97044 63.187
11881433 5.38187 6.04117 27.4047 24.1702 -1.02195 9.56029 62.998
11881443 5.97202 6.68581 26.8929 23.4006 -1.10344 8.9678 62.9513
11881453 5.97202 6.68581 26.8929 23.4006 -1.10344 8.9678 62.9513
11881464 6.52694 7.3857 26.0266 22.5335 -1.0542 8.31902 62.4728
11881474 7.16995 8.03955 25.1506 21.6957 -1.0415 7.64718 62.0557
11881484 7.16995 8.03955 25.1506 21.6957 -1.0415 7.64718 62.0557
11881494 7.78653 8.78548 24.619 21.0235 -1.04338 7.00893 62.2145
11881519 8.5 9.55905 23.7724 20.3026 -0.970004 6.28061 62.1341
11881524 9.2487 10.5536 22.7585 19.5524 -0.765207 5.4357 62.1133
11881550 10.2528 11.5298 21.5576 18.5587 -0.69546 4.44281 61.899
11881570 11.2658 12.5704 20.4453 17.4481 -0.685459 3.41583 61.7296
11881572 11.2658 12.5704 20.4453 17.4481 -0.685459 3.41583 61.7296
11881578 12.129 13.5834 19.4609 16.4574 -0.628363 2.48397 61.6308
11881585 12.129 13.5834 19.4609 16.4574 -0.628363 2.48397 61.6308
11881595 12.9306 14.4583 18.447 15.4675 -0.592045 1.59674 61.3034
11881607 13.7762 15.2503 17.4823 14.5633 -0.591499 0.741543 61.072
11881615 13.7762 15.2503 17.4823 14.5633 -0.591499 0.741543 61.072
11881626 14.5689 16.033 16.4593 13.7542 -0.510149 -0.0958049 60.8155
11881635 15.3264 16.6408 15.6379 12.9927 -0.54902 -0.825926 60.5979
11881655 15.9694 17.1945 14.9101 12.4026 -0.530137 -1.45129 60.4766
11881666 15.9694 17.1945 14.9101 12.4026 -0.530137 -1.45129 60.4766
11881677 16.586 17.7975 14.3798 11.8219 -0.555578 -2.02567 60.5853
11881687 17.1196 18.3907 13.8911 11.2794 -0.552307 -2.55594 60.6808
11881709 17.7573 18.9159 13.4648 10.6988 -0.660574 -3.08439 60.8368
11881717 18.5645 19.5772 12.8618 10.2514 -0.652039 -3.68016 61.2549
11881736 19.3019 20.1121 12.1963 9.67077 -0.699769 -4.29502 61.2811
11881748 19.3019 20.1121 12.1963 9.67077 -0.699769 -4.29502 61.2811
11881758 19.9596 20.472 11.5309 8.95689 -0.846031 -4.9107 60.9193
11881768 20.388 20.8026 10.959 8.47144 -0.854896 -5.38431 60.6211
11881778 20.388 20.8026 10.959 8.47144 -0.854896 -5.38431 60.6211
11881788 20.7667 21.0944 10.4599 8.15734 -0.816371 -5.76499 60.4784
11881798 21.2052 21.4348 10.2 7.76708 -0.908847 -6.10644 60.607
11881808 21.2052 21.4348 10.2 7.76708 -0.908847 -6.10644 60.607
11881818 21.5739 21.8335 9.85688 7.52912 -0.85046 -6.42045 60.7934
11881828 21.5739 21.8335 9.85688 7.52912 -0.85046 -6.42045 60.7934
11881838 21.9127 22.2323 9.40979 7.24356 -0.759323 -6.78265 60.7983
11881850 22.1717 22.6505 9.07706 7.01512 -0.64978 -7.07469 60.9144
11881858 22.1717 22.6505 9.07706 7.01512 -0.64978 -7.07469 60.9144
11881868 22.2614 22.7769 8.80673 6.84378 -0.596274 -7.26356 60.6888
11881878 22.4109 22.8839 8.53639 6.61534 -0.598912 -7.48009 60.4465
11881898 22.4209 22.9422 8.42202 6.58679 -0.544077 -7.54182 60.3719
11881910 22.4209 22.9422 8.42202 6.58679 -0.544077 -7.54182 60.3719
11881919 22.4508 23.0784 8.26606 6.46305 -0.487651 -7.66701 60.2582
11881930 22.4707 23.2048 8.26606 6.42497 -0.458437 -7.69909 60.3665
11881952 22.67 23.4577 8.29725 6.42497 -0.445604 -7.7417 60.8499
11881960 22.8394 23.6327 8.39083 6.35834 -0.506012 -7.77253 61.2213
11881973 22.8394 23.6327 8.39083 6.35834 -0.506012 -7.77253 61.2213
11881979 23.0387 23.837 8.38043 6.37738 -0.488687 -7.81666 61.6334
11881999 22.9988 23.7883 8.31804 6.32979 -0.487812 -7.84716 61.435
11882009 23.0686 23.7494 8.31804 6.24412 -0.567396 -7.88264 61.3802
11882021 23.0686 23.7494 8.31804 6.24412 -0.567396 -7.88264 61.3802
11882030 23.1084 23.7981 8.25566 6.15845 -0.573865 -7.94816 61.3206
11882040 23.228 23.8175 8.26606 6.20605 -0.597602 -7.94246 61.5176
11882053 23.228 23.8175 8.26606 6.20605 -0.597602 -7.94246 61.5176
11882063 23.2978 23.8078 8.21407 6.1299 -0.640427 -7.99719 61.4495
11882070 23.2978 23.8078 8.21407 6.1299 -0.640427 -7.99719 61.4495
11882080 23.228 23.6911 8.0893 6.06327 -0.639811 -8.04789 61.0717
11882090 23.1782 23.6911 8.0789 6.07279 -0.61177 -8.04254 61.021
11882110 23.1782 23.6035 8.04771 5.94905 -0.68828 -8.09126 60.7785
11882120 22.9091 23.3993 8.0581 5.95857 -0.666955 -8.02944 60.3251
11882132 22.9091 23.3993 8.0581 5.95857 -0.666955 -8.02944 60.3251
11882142 22.7696 23.2923 8.18287 6.08231 -0.653879 -7.90609 60.3271
11882162 22.6301 23.1659 8.26606 6.13942 -0.66064 -7.82137 60.2015
11882172 22.6401 23.2048 8.42202 6.29171 -0.646314 -7.711 60.5586
11882181 22.6401 23.2048 8.42202 6.29171 -0.646314 -7.711 60.5586
11882191 22.5604 23.1465 8.72355 6.43449 -0.69949 -7.52868 60.8649
11882211 22.5205 23.1951 9.06667 6.58679 -0.735435 -7.34788 61.369
11882213 22.5205 23.1951 9.06667 6.58679 -0.735435 -7.34788 61.369
11882223 22.4308 23.1367 9.28502 6.84378 -0.703174 -7.15733 61.6964
11882233 22.4308 23.1367 9.28502 6.84378 -0.703174 -7.15733 61.6964
11882243 22.2315 22.9325 9.50336 6.99608 -0.732331 -6.97283 61.6635
11882253 21.9326 22.7088 9.7529 7.20549 -0.718834 -6.74101 61.5998
11882264 21.9326 22.7088 9.7529 7.20549 -0.718834 -6.74101 61.5998
11882273 21.534 22.5046 10.0232 7.31971 -0.705811 -6.5237 61.3815
11882283 21.1753 22.2809 10.3976 7.60526 -0.686093 -6.21228 61.459
11882294 21.1753 22.2809 10.3976 7.60526 -0.686093 -6.21228 61.459
11882303 20.8165 22.0183 10.7927 7.81467 -0.722718 -5.91471 61.4422
11882313 20.8165 22.0183 10.7927 7.81467 -0.722718 -5.91471 61.4422
11882324 20.3382 21.5223 11.3021 8.08119 -0.831454 -5.50517 61.2439
11882333 19.84 21.1625 11.874 8.28108 -0.928111 -5.1132 61.1575
11882344 19.84 21.1625 11.874 8.28108 -0.928111 -5.1132 61.1575
11882354 19.2421 20.5984 12.5602 8.62374 -1.05703 -4.58582 61.0245
11882364 18.7438 20.1413 13.3089 9.19485 -1.10629 -4.0027 61.3889
11882384 18.2456 19.7815 14.1303 9.72788 -1.158 -3.43432 61.8852
11882397 17.5879 19.3146 15.0141 10.3656 -1.17278 -2.77516 62.2823
11882419 16.8238 18.7895 15.8147 10.9272 -1.17144 -2.13408 62.3552
11882427 16.8238 18.7895 15.8147 10.9272 -1.17144 -2.13408 62.3552
11882437 15.9959 17.8656 16.6465 11.6221 -1.2694 -1.35028 62.13
11882446 15.1855 17.1848 17.6595 12.4502 -1.28444 -0.542715 62.48
11882455 15.1855 17.1848 17.6595 12.4502 -1.28444 -0.542715 62.48
11882466 14.2342 16.2909 18.6833 13.2592 -1.34763 0.340354 62.4676
11882477 13.4238 15.2042 19.7169 14.3919 -1.41246 1.31041 62.7368
11882487 13.4238 15.2042 19.7169 14.3919 -1.41246 1.31041 62.7368
11882496 12.6047 14.1268 20.8587 15.7816 -1.40243 2.34543 63.3718
11882508 12.6047 14.1268 20.8587 15.7816 -1.40243 2.34543 63.3718
11882517 11.715 13.2887 21.9907 16.7716 -1.42924 3.23649 63.766
11882543 10.7637 12.3218 23.0539 17.6235 -1.51825 4.13842 63.7629
11882546 10.7637 12.3218 23.0539 17.6235 -1.51825 4.13842 63.7629
11882548 9.7772 11.1891 24.1563 18.6659 -1.59848 5.13948 63.7885
11882557 8.64974 10.0563 25.249 19.6693 -1.63972 6.17976 63.6244
11882567 8.64974 10.0563 25.249 19.6693 -1.63972 6.17976 63.6244
11882578 8.03316 9.21831 26.2432 20.6533 -1.71664 6.93202 64.148
11882588 8.03316 9.21831 26.2432 20.6533 -1.71664 6.93202 64.148
11882598 7.38135 8.26056 26.9126 21.5009 -1.76897 7.67419 64.0553
11882608 6.79119 7.37649 27.7099 22.1926 -1.92447 8.36617 64.0701
11882618 6.79119 7.37649 27.7099 22.1926 -1.92447 8.36617 64.0701
11882628 6.17461 6.60293 28.2808 22.7284 -2.00832 8.9905 63.7867
11882638 5.72539 5.93066 28.9797 23.1278 -2.21391 9.51597 63.7636
11882658 5.25855 5.461 29.4818 23.4785 -2.27733 9.94995 63.6798
11882669 5.25855 5.461 29.4818 23.4785 -2.27733 9.94995 63.6798
11882680 4.92383 5.14789 29.7672 23.761 -2.27285 10.2492 63.6
11882690 4.83575 4.89003 29.9149 24.0436 -2.28355 10.4184 63.6842
11882698 4.83575 4.89003 29.9149 24.0436 -2.28355 10.4184 63.6842
11882713 4.84456 4.68743 29.9444 24.1994 -2.31725 10.5091 63.6758
11882718 4.66839 4.59534 30.22 24.3358 -2.33364 10.6453 63.8196
11882739 4.63316 4.49404 30.3677 24.2676 -2.44626 10.7057 63.7625
11882748 4.63316 4.49404 30.3677 24.2676 -2.44626 10.7057 63.7625
11882759 4.58031 4.448 30.4661 24.1507 -2.53268 10.7444 63.6451
11882768 4.58031 4.4572 30.4563 24.141 -2.52944 10.7394 63.6348
11882788 4.5715 4.46641 30.5055 24.2481 -2.49345 10.7496 63.7916
11882798 4.5715 4.46641 30.5843 24.2481 -2.5212 10.7549 63.8703
11882808 4.62435 4.41116 30.5843 24.3845 -2.50488 10.7649 64.0043
11882818 4.58031 4.26381 30.663 24.6086 -2.48414 10.8618 64.1157
11882833 4.58031 4.26381 30.663 24.6086 -2.48414 10.8618 64.1157
11882842 4.43057 4.26381 30.7024 24.6865 -2.41194 10.9298 64.0833
11882854 4.31606 4.19935 30.8303 24.9203 -2.34444 11.0249 64.2661
11882868 4.23679 4.16251 30.9485 25.1444 -2.2787 11.0929 64.4922
11882879 3.99016 3.96912 30.9189 25.3198 -2.18862 11.2806 64.198
11882890 3.99016 3.96912 30.9189 25.3198 -2.18862 11.2806 64.198
11882899 3.8228 3.85861 30.8992 25.4951 -2.09451 11.4036 64.0758
11882909 3.8228 3.85861 30.8992 25.4951 -2.09451 11.4036 64.0758
11882919 3.63782 3.78494 31.0174 25.5438 -2.08115 11.5197 63.984
11882929 3.54093 3.71127 31.1946 25.8069 -2.02998 11.614 64.2536
11882939 3.54093 3.71127 31.1946 25.8069 -2.02998 11.614 64.2536
11882950 3.4 3.67443 31.1257 26.0017 -1.88838 11.6943 64.2018
11882960 3.28549 3.51788 31.106 26.0504 -1.88523 11.8089 63.9598
11882970 3.28549 3.51788 31.106 26.0504 -1.88523 11.8089 63.9598
11882980 3.1886 3.49946 31.1158 26.1966 -1.80014 11.865 64.0004
11882992 3.1886 3.49946 31.1158 26.1966 -1.80014 11.865 64.0004
11883001 3.06528 3.43499 31.165 26.3524 -1.73502 11.9538 64.0177
11883010 3.03005 3.38895 31.0567 26.3719 -1.69385 11.9839 63.8477
11883023 3.03005 3.38895 31.0567 26.3719 -1.69385 11.9839 63.8477
11883030 2.95959 3.38895 30.85 26.3232 -1.61262 12.0017 63.5218
11883040 2.96839 3.39816 30.7516 26.4401 -1.52683 11.9949 63.5583
11883060 3.03005 3.51788 30.663 26.5862 -1.40638 11.9209 63.7972
11883080 3.00363 3.53629 30.6236 26.7032 -1.32612 11.928 63.8667
11883093 3.02124 3.57313 30.6039 26.8395 -1.25414 11.9107 64.0379
11883101 3.02124 3.57313 30.6039 26.8395 -1.25414 11.9107 64.0379
11883111 3.0829 3.65601 30.4366 26.937 -1.14117 11.8467 64.1125
11883122 3.03005 3.63759 30.3972 27.0246 -1.07858 11.8789 64.0895
11883132 3.03005 3.63759 30.3972 27.0246 -1.07858 11.8789 64.0895
11883155 3.03886 3.67443 30.4169 27.0246 -1.07424 11.8607 64.1548
11883157 3.03886 3.67443 30.4169 27.0246 -1.07424 11.8607 64.1548
11883161 2.98601 3.71127 30.3775 26.9077 -1.07238 11.8598 63.9825
11883172 3.02124 3.75731 30.2299 26.7421 -1.07908 11.8101 63.7506
11883182 3.02124 3.75731 30.2299 26.7421 -1.07908 11.8101 63.7506
11883191 3.15337 3.83099 30.0921 26.5765 -1.11462 11.7082 63.6529
11883203 3.14456 3.83099 30.0428 26.4109 -1.16095 11.7008 63.4293
11883212 3.14456 3.92308 30.0428 26.4109 -1.12302 11.6621 63.5214
11883222 3.27668 4.01517 29.9936 26.3135 -1.15634 11.5604 63.5989
11883233 3.27668 4.01517 29.9936 26.3135 -1.15634 11.5604 63.5989
11883241 3.31192 4.11647 29.7968 26.1673 -1.11404 11.4846 63.3925
11883253 3.41762 4.30065 29.6491 25.9725 -1.10261 11.3444 63.3399
11883262 3.41762 4.30065 29.6491 25.9725 -1.10261 11.3444 63.3399
11883273 3.53212 4.50325 29.59 25.9627 -1.04429 11.209 63.5882
11883294 3.64663 4.69664 29.1668 25.8069 -0.91203 11.0469 63.3169
11883304 3.90207 4.98212 28.8911 25.7192 -0.823651 10.8024 63.4945
11883315 3.90207 4.98212 28.8911 25.7192 -0.823651 10.8024 63.4945
11883323 4.13109 5.33207 28.5466 25.388 -0.771977 10.522 63.3977
11883333 4.39534 5.72806 28.1922 25.0957 -0.695385 10.2106 63.4113
11883343 4.39534 5.72806 28.1922 25.0957 -0.695385 10.2106 63.4113
11883353 4.73005 6.20693 27.7788 24.6573 -0.648785 9.82257 63.3731
11883363 4.73005 6.20693 27.7788 24.6573 -0.648785 9.82257 63.3731
11883373 5.07358 6.59372 27.2669 24.2384 -0.596936 9.45933 63.1726
11883383 5.57565 7.09101 26.6566 23.839 -0.515459 8.98375 63.1623
11883393 5.57565 7.09101 26.6566 23.839 -0.515459 8.98375 63.1623
11883403 6.23627 7.54225 26.0955 23.3129 -0.584243 8.45821 63.187
11883413 6.87047 8.10401 25.4065 22.5725 -0.635569 7.86403 62.9535
11883423 6.87047 8.10401 25.4065 22.5725 -0.635569 7.86403 62.9535
11883433 7.63679 8.69339 24.747 21.8223 -0.742458 7.2113 62.8995
11883453 8.23575 9.12622 24.0382 21.0625 -0.834611 6.66127 62.4626
11883464 9.08135 9.7156 23.1621 20.2052 -0.934105 5.92873 62.1642
11883490 9.08135 9.7156 23.1621 20.2052 -0.934105 5.92873 62.1642
11883494 9.90933 10.3971 22.286 19.3868 -0.972694 5.17104 61.9793
11883496 10.5611 10.9312 21.6167 18.7731 -0.999299 4.58066 61.8821
11883522 10.9927 11.3272 21.1934 18.3152 -1.02856 4.17007 61.8285
11883526 11.301 11.6863 20.7997 18.0619 -0.950885 3.8499 61.8489
11883546 11.6534 12.156 20.3567 17.7989 -0.829174 3.47281 61.9649
11883555 11.6534 12.156 20.3567 17.7989 -0.829174 3.47281 61.9649
11883565 11.944 12.6165 19.8645 17.2825 -0.773631 3.05956 61.7075
11883579 12.5078 13.1966 19.3822 16.6669 -0.820377 2.51272 61.7534
11883596 13.2036 13.8321 18.5848 15.9339 -0.82141 1.82352 61.5545
11883606 13.785 14.3478 18.0139 15.1344 -0.945118 1.22767 61.281
11883627 14.472 14.974 17.4036 14.4681 -0.99218 0.593382 61.3177
11883637 14.472 14.974 17.4036 14.4681 -0.99218 0.593382 61.3177
11883651 15.0269 15.6739 16.7609 13.7066 -0.983885 -0.0572276 61.1683
11883657 15.5907 16.2356 16.1162 13.2688 -0.89954 -0.598261 61.2113
11883678 15.9959 16.6869 15.5963 12.7548 -0.880881 -1.06457 61.0338
11883688 16.3041 17.0973 15.2324 12.3264 -0.866498 -1.43763 60.9602
11883698 16.3041 17.0973 15.2324 12.3264 -0.866498 -1.43763 60.9602
11883708 16.5684 17.4182 15.1284 12.0218 -0.92285 -1.6773 61.1369
11883723 16.5684 17.4182 15.1284 12.0218 -0.92285 -1.6773 61.1369
11883729 16.7798 17.7391 14.8269 11.6221 -0.920777 -1.98546 60.9679
11883738 17.0897 18.1379 14.4318 11.327 -0.843069 -2.3289 60.9863
11883750 17.0897 18.1379 14.4318 11.327 -0.843069 -2.3289 60.9863
11883758 17.2691 18.3227 14.1095 10.9938 -0.849344 -2.59207 60.695
11883774 17.4086 18.4977 13.8599 10.7749 -0.824179 -2.79267 60.5411
11883779 17.4086 18.4977 13.8599 10.7749 -0.824179 -2.79267 60.5411
11883789 17.7972 18.7311 13.7248 10.6797 -0.86616 -2.98455 60.9328
11883799 18.0363 18.9062 13.5376 10.4989 -0.889197 -3.1747 60.979
11883819 18.2456 19.1493 13.3713 10.3466 -0.867642 -3.35701 61.1128
11883832 18.2456 19.1493 13.3713 10.3466 -0.867642 -3.35701 61.1128
11883843 18.5944 19.4411 13.1841 10.0896 -0.916585 -3.61164 61.3091
11883850 18.983 19.8495 12.9242 9.79451 -0.919197 -3.92694 61.5512
11883873 19.3517 20.1802 12.5394 9.43281 -0.926007 -4.28255 61.5042
11883906 19.5311 20.4233 12.1859 9.21389 -0.847445 -4.53626 61.3542
11883908 19.5311 20.4233 12.1859 9.21389 -0.847445 -4.53626 61.3542
11883911 19.7902 20.6859 11.8948 8.88074 -0.864583 -4.82449 61.2516
11883912 19.7902 20.6859 11.8948 8.88074 -0.864583 -4.82449 61.2516
11883920 20.119 20.9777 11.5101 8.55711 -0.856015 -5.15733 61.1639
11883930 20.3083 21.2792 11.2917 8.33819 -0.809698 -5.38023 61.2174
11883940 20.3083 21.2792 11.2917 8.33819 -0.809698 -5.38023 61.2174
11883950 20.6372 21.5612 11.0526 8.10974 -0.822516 -5.6313 61.3607
11883962 20.8165 21.7557 10.8446 7.78611 -0.865704 -5.86772 61.203
11883970 20.8165 21.7557 10.8446 7.78611 -0.865704 -5.86772 61.203
11883981 21.1055 22.0183 10.6783 7.54815 -0.903557 -6.08735 61.3503
11884000 21.3247 22.2128 10.2936 7.34826 -0.840656 -6.34913 61.1794
11884010 21.5141 22.3781 10.1792 7.11982 -0.896904 -6.51887 61.1912
11884020 21.5141 22.3781 10.1792 7.11982 -0.896904 -6.51887 61.1912
11884032 21.6038 22.5921 9.86728 6.99608 -0.77091 -6.71459 61.0592
11884042 21.6336 22.6505 9.80489 6.81523 -0.809819 -6.81332 60.9042
11884052 21.6336 22.6505 9.80489 6.81523 -0.809819 -6.81332 60.9042
11884062 21.6635 22.8255 9.62813 6.69149 -0.729612 -6.9487 60.8087
11884083 21.6635 22.8255 9.47217 6.5963 -0.707547 -7.03973 60.5575
11884093 21.6934 23.0589 9.3682 6.65342 -0.555044 -7.09121 60.774
11884104 21.6934 23.0589 9.3682 6.65342 -0.555044 -7.09121 60.774
11884116 21.7831 23.1756 9.25382 6.60582 -0.516081 -7.17688 60.8184
11884127 21.7532 23.3701 9.25382 6.61534 -0.418727 -7.19454 60.9925
11884138 21.7532 23.3701 9.25382 6.61534 -0.418727 -7.19454 60.9925
11884144 21.7632 23.341 9.26422 6.55823 -0.46294 -7.20909 60.9266
11884156 21.7632 23.341 9.26422 6.55823 -0.46294 -7.20909 60.9266
11884179 21.534 23.2048 9.337 6.53919 -0.464816 -7.14244 60.615
11884181 21.4543 23.2243 9.3682 6.57727 -0.421016 -7.10933 60.624
11884184 21.4543 23.2243 9.3682 6.57727 -0.421016 -7.10933 60.624
11884194 21.3945 23.3701 9.46177 6.60582 -0.361775 -7.07611 60.8322
11884204 21.4144 23.3701 9.57615 6.67245 -0.388303 -7.01323 61.0332
11884214 21.4144 23.3701 9.57615 6.67245 -0.388303 -7.01323 61.0332
11884225 21.4045 23.3799 9.71132 6.7486 -0.40302 -6.93724 61.2442
11884234 21.4045 23.3799 9.71132 6.7486 -0.40302 -6.93724 61.2442
11884244 21.2151 23.2243 9.71132 6.79619 -0.371629 -6.87448 60.9469
11884254 21.1753 23.234 9.86728 6.93897 -0.355136 -6.76373 61.2155
11884265 21.1753 23.234 9.86728 6.93897 -0.355136 -6.76373 61.2155
11884274 21.1553 23.1562 10.0648 6.95801 -0.450799 -6.67375 61.3344
11884288 21.0756 23.1367 10.1064 7.1103 -0.380522 -6.5919 61.4291
11884294 21.0756 23.1367 10.1064 7.1103 -0.380522 -6.5919 61.4291
11884304 21.0158 23.0686 10.2936 7.20549 -0.420271 -6.47545 61.5835
11884314 21.0158 23.0686 10.2936 7.20549 -0.420271 -6.47545 61.5835
11884324 20.8962 22.8352 10.408 7.23404 -0.503033 -6.37641 61.3735
11884334 20.7468 22.6991 10.4287 7.34826 -0.460681 -6.28903 61.2229
11884355 20.4977 22.4559 10.6471 7.46249 -0.502068 -6.10287 61.0632
11884364 20.2485 22.2031 10.8239 7.61478 -0.515071 -5.91548 60.8903
11884376 20.2485 22.2031 10.8239 7.61478 -0.515071 -5.91548 60.8903
11884385 20.0791 22.028 11.1358 7.90034 -0.526036 -5.65991 61.1433
11884398 20.0791 22.028 11.1358 7.90034 -0.526036 -5.65991 61.1433
11884405 19.7702 21.7654 11.4061 8.05263 -0.556715 -5.42925 60.9944
11884415 19.4215 21.4153 11.8012 8.38578 -0.582382 -5.07584 61.0238
11884425 19.4215 21.4153 11.8012 8.38578 -0.582382 -5.07584 61.0238
11884435 19.0229 20.9874 12.3211 8.80459 -0.634636 -4.63342 61.136
11884446 18.5545 20.5789 13.0905 9.40425 -0.674136 -4.04977 61.6282
11884457 18.5545 20.5789 13.0905 9.40425 -0.674136 -4.04977 61.6282
11884466 17.857 19.8982 13.9743 10.0705 -0.753465 -3.32774 61.8
11884475 17.857 19.8982 13.9743 10.0705 -0.753465 -3.32774 61.8
11884486 16.9736 18.9159 14.9101 10.9462 -0.818482 -2.43736 61.7458
11884495 16.2425 18.0503 16.2618 12.117 -0.932199 -1.41548 62.6716
11884515 15.529 17.4085 17.4922 13.0879 -0.993751 -0.55671 63.5176
11884525 14.7627 16.4198 18.6636 13.8494 -1.23912 0.313312 63.6955
11884545 13.8026 15.37 19.707 14.6775 -1.36181 1.23006 63.5571
11884558 13.8026 15.37 19.707 14.6775 -1.36181 1.23006 63.5571
11884567 12.8425 14.2096 20.8587 15.6008 -1.53152 2.22181 63.5116
11884578 11.8295 13.0493 22.099 16.8001 -1.59896 3.29745 63.778
11884587 11.8295 13.0493 22.099 16.8001 -1.59896 3.29745 63.778
11884597 10.6756 11.7324 23.3984 18.0424 -1.68336 4.47136 63.8488
11884607 9.6715 10.6273 24.5107 19.2602 -1.67581 5.49529 64.0697
11884617 9.6715 10.6273 24.5107 19.2602 -1.67581 5.49529 64.0697
11884627 9.00207 9.64193 25.3376 20.1467 -1.77418 6.27811 64.1283
11884637 9.00207 9.64193 25.3376 20.1467 -1.77418 6.27811 64.1283
11884646 8.5 8.84074 25.7116 20.5266 -1.90482 6.81771 63.579
11884659 8.19171 8.2974 25.9479 20.7897 -1.99778 7.17619 63.2267
11884668 8.19171 8.2974 25.9479 20.7897 -1.99778 7.17619 63.2267
11884681 7.78653 7.88299 26.5188 21.0625 -2.11851 7.56791 63.2508
11884688 7.26684 7.33965 27.1488 21.6957 -2.11986 8.09397 63.451
11884702 7.26684 7.33965 27.1488 21.6957 -2.11986 8.09397 63.451
11884708 6.68549 6.7779 27.8969 22.4751 -2.08719 8.67276 63.8354
11884718 6.68549 6.7779 27.8969 22.4751 -2.08719 8.67276 63.8354
11884728 6.12176 6.15168 28.5761 23.1473 -2.10907 9.24654 63.9969
11884738 5.47876 5.65439 29.1372 23.6928 -2.05929 9.77834 63.9632
11884747 5.47876 5.65439 29.1372 23.6928 -2.05929 9.77834 63.9632
11884758 4.9943 5.29523 29.4522 24.0436 -2.00193 10.1605 63.7853
11884768 4.9943 5.29523 29.4522 24.0436 -2.00193 10.1605 63.7853
11884778 4.75648 4.97291 29.4916 24.0923 -2.04653 10.3899 63.3133
11884795 4.65959 4.88082 29.5605 24.2774 -1.9967 10.4841 63.3783
11884798 4.65959 4.88082 29.5605 24.2774 -1.9967 10.4841 63.3783
11884808 4.49223 4.67822 29.8558 24.4138 -2.07128 10.6634 63.44
11884818 4.38653 4.51246 30.161 24.5794 -2.1432 10.805 63.6393
11884830 4.38653 4.51246 30.161 24.5794 -2.1432 10.805 63.6393
11884838 4.2456 4.42958 30.3185 24.8034 -2.08907 10.9206 63.7971
11884848 4.2456 4.42958 30.3185 24.8034 -2.08907 10.9206 63.7971
11884858 4.02539 4.21777 30.4661 25.0275 -2.05777 11.1201 63.7368
11884870 3.86684 4.0428 30.8599 25.31 -2.09657 11.297 64.0795
11884889 3.62021 3.92308 31.1158 25.4951 -2.07228 11.4726 64.1542
11884900 3.40881 3.75731 31.3619 25.7874 -2.0314 11.6574 64.3154
11884919 3.23264 3.63759 31.5391 25.992 -1.99614 11.7996 64.4013
11884929 3.06528 3.52709 31.5391 26.1089 -1.93352 11.9214 64.2403
11884941 3.06528 3.52709 31.5391 26.1089 -1.93352 11.9214 64.2403
11884949 2.95078 3.39816 31.4308 26.2063 -1.86647 12.0233 63.986
11884960 2.95078 3.39816 31.4308 26.2063 -1.86647 12.0233 63.986
11884969 2.8715 3.36132 31.2241 26.1673 -1.79449 12.0611 63.6242
11884981 2.81865 3.37053 31.106 26.4109 -1.6259 12.0854 63.706
11884990 2.81865 3.37053 31.106 26.4109 -1.6259 12.0854 63.706
11885000 2.81865 3.37974 31.2044 26.8395 -1.48025 12.1055 64.2423
11885010 2.79223 3.32449 31.165 27.1221 -1.36277 12.1508 64.4038
11885021 2.79223 3.32449 31.165 27.1221 -1.36277 12.1508 64.4038
11885030 2.80984 3.26002 30.8402 27.0052 -1.32396 12.151 63.9152
11885050 2.64249 3.23239 30.5843 27.0246 -1.16947 12.2238 63.4838
11885061 2.70415 3.26923 30.5744 27.4338 -1.00635 12.1992 63.9816
11885071 2.70415 3.26923 30.5744 27.4338 -1.00635 12.1992 63.9816
11885083 2.72176 3.26002 30.3578 27.6189 -0.860196 12.1942 63.9585
11885092 2.64249 3.2416 30.1807 27.7943 -0.699694 12.2357 63.859
11885113 2.64249 3.2416 30.1807 27.7943 -0.699694 12.2357 63.859
11885122 2.61606 3.25081 30.348 28.0086 -0.663564 12.2595 64.2235
11885138 2.5544 3.23239 30.4957 28.2619 -0.602597 12.3103 64.5443
11885142 2.51917 3.17714 30.348 28.3593 -0.516556 12.3466 64.4036
11885152 2.51917 3.17714 30.348 28.3593 -0.516556 12.3466 64.4036
11885163 2.50155 3.20477 30.2496 28.3398 -0.46913 12.3375 64.2957
11885172 2.48394 3.11268 30.2889 28.71 -0.367737 12.4008 64.5956
11885184 2.48394 3.11268 30.2889 28.71 -0.367737 12.4008 64.5956
11885205 2.43109 3.17714 30.2594 28.7393 -0.299543 12.3958 64.6069
11885208 2.43109 3.17714 30.2594 28.7393 -0.299543 12.3958 64.6069
11885212 2.34301 3.06663 29.9739 28.7393 -0.199251 12.4691 64.1228
11885222 2.25492 3.02979 29.8066 28.788 -0.0953987 12.5181 63.8793
11885242 2.28135 3.01138 29.7475 28.7393 -0.109069 12.5105 63.7795
11885252 2.21088 2.98375 29.6196 28.6808 -0.0653207 12.5457 63.495
11885263 2.21088 2.98375 29.6196 28.6808 -0.0653207 12.5457 63.495
11885273 2.16684 2.99296 29.4424 28.6516 0.0139564 12.5528 63.2538
11885283 2.16684 2.99296 29.4424 28.6516 0.0139564 12.5528 63.2538
11885293 2.18446 2.99296 29.3932 28.4957 -0.0352651 12.5372 63.0663
11885303 2.26373 3.06663 29.7475 28.7685 -0.068976 12.4954 63.8464
11885313 2.26373 3.06663 29.7475 28.7685 -0.068976 12.4954 63.8464
11885323 2.29016 3.06663 29.9149 28.8074 -0.12912 12.4921 64.0791
11885333 2.28135 3.11268 29.9247 28.6516 -0.172666 12.4704 63.9703
11885343 2.28135 3.11268 29.9247 28.6516 -0.172666 12.4704 63.9703
11885353 2.36943 3.18635 30.2496 28.6516 -0.302945 12.4142 64.4569
11885363 2.36943 3.18635 30.2496 28.6516 -0.302945 12.4142 64.4569
11885374 2.41347 3.05742 30.3775 28.5639 -0.453985 12.4519 64.4123
11885383 2.45751 3.13109 30.2693 28.2229 -0.535552 12.3836 64.0808
11885411 2.45751 3.13109 30.2693 28.2229 -0.535552 12.3836 64.0808
11885415 2.4487 3.21398 30.2889 28.0378 -0.580505 12.3452 63.9894
11885416 2.47513 3.27844 30.3972 28.1158 -0.575007 12.3142 64.2665
11885424 2.47513 3.27844 30.3972 28.1158 -0.575007 12.3142 64.2665
11885435 2.48394 3.33369 30.2003 27.9209 -0.558999 12.2704 63.9389
11885455 2.59845 3.33369 30.0625 27.765 -0.612551 12.2088 63.7597
11885464 2.62487 3.39816 30.161 27.9112 -0.575905 12.1809 64.0952
11885476 2.62487 3.39816 30.161 27.9112 -0.575905 12.1809 64.0952
11885485 2.69534 3.50867 30.2299 27.7748 -0.639229 12.1013 64.2087
11885498 2.73057 3.46262 30.2889 27.5897 -0.767578 12.1002 64.0718
11885507 2.73057 3.46262 30.2889 27.5897 -0.767578 12.1002 64.0718
11885517 2.72176 3.51788 30.2003 27.3072 -0.822417 12.0636 63.7472
11885538 2.88031 3.59155 30.0527 27.1903 -0.844072 11.9527 63.7148
11885545 2.9772 3.78494 29.8952 26.9564 -0.83748 11.811 63.6138
11885560 2.9772 3.78494 29.8952 26.9564 -0.83748 11.811 63.6138
11885567 3.22383 4.11647 29.6688 26.7032 -0.813423 11.5437 63.7122
11885577 3.42642 4.33749 29.5605 26.4206 -0.874114 11.3461 63.7451
11885586 3.42642 4.33749 29.5605 26.4206 -0.874114 11.3461 63.7451
11885597 3.64663 4.67822 29.2947 26.0602 -0.864862 11.0781 63.6798
11885617 3.91969 4.96371 29.029 25.5828 -0.945792 10.8028 63.4952
11885627 4.27202 5.32286 28.4876 25.0567 -0.942354 10.4411 63.1392
11885637 4.27202 5.32286 28.4876 25.0567 -0.942354 10.4411 63.1392
11885646 4.65959 5.87541 27.7001 24.3456 -0.85437 9.94972 62.5806
11885656 5.33782 6.51083 27.1488 23.5175 -0.983095 9.314 62.5149
11885667 5.33782 6.51083 27.1488 23.5175 -0.983095 9.314 62.5149
11885678 6.20104 7.36728 26.4401 22.8063 -0.982064 8.51983 62.8147
11885689 6.20104 7.36728 26.4401 22.8063 -0.982064 8.51983 62.8147
11885697 6.87927 8.05796 25.8199 21.8808 -1.10174 7.84592 62.638
11885710 7.6456 8.74865 25.0816 20.9261 -1.22292 7.1184 62.402
11885718 7.6456 8.74865 25.0816 20.9261 -1.22292 7.1184 62.402
11885728 8.55285 9.42091 24.304 19.9129 -1.41623 6.32968 62.1907
11885738 9.65389 10.4063 23.2113 18.6854 -1.52266 5.28671 61.9569
11885758 10.9751 11.4653 21.9021 17.4092 -1.62051 4.09806 61.7518
11885768 12.0938 11.4653 20.78 17.4092 -1.61918 3.55395 61.7482
11885779 12.0938 12.4507 20.78 16.4099 -1.62518 3.07252 61.7343
11885789 12.7896 13.1414 20.0122 15.6674 -1.62026 2.37343 61.6106
11885799 12.7896 13.1414 20.0122 15.6674 -1.62026 2.37343 61.6106
11885810 13.0979 13.6018 19.5003 15.1344 -1.57415 1.94057 61.3344
11885820 13.4415 13.961 19.077 14.8012 -1.53239 1.58512 61.2807
11885829 13.4415 13.961 19.077 14.8012 -1.53239 1.58512 61.2807
11885840 14.014 14.4675 18.4864 14.3634 -1.49577 1.06837 61.3313
11885849 14.6041 14.928 17.8564 13.7447 -1.54904 0.507656 61.1332
11885861 14.6041 14.928 17.8564 13.7447 -1.54904 0.507656 61.1332
11885869 15.1415 15.4897 17.2461 13.2402 -1.49615 -0.0355545 61.1175
11885882 15.1415 15.4897 17.2461 13.2402 -1.49615 -0.0355545 61.1175
11885889 15.4674 15.8857 16.8544 12.7072 -1.53039 -0.441138 60.9147
11885902 15.8549 16.3646 16.6257 12.3169 -1.55289 -0.80366 61.1621
11885909 15.8549 16.3646 16.6257 12.3169 -1.55289 -0.80366 61.1621
11885924 16.2513 16.8619 16.2826 11.9171 -1.53103 -1.20206 61.3129
11885930 16.4715 17.2626 15.7835 11.584 -1.39457 -1.56296 61.1016
11885940 16.4715 17.2626 15.7835 11.584 -1.39457 -1.56296 61.1016
11885950 16.7622 17.71 15.5339 11.2128 -1.3776 -1.8929 61.2188
11885960 16.7622 17.71 15.5339 11.2128 -1.3776 -1.8929 61.2188
11885970 17.2691 18.2351 15.0765 10.8891 -1.31009 -2.32763 61.4698
11885980 17.857 18.8673 14.463 10.3751 -1.24977 -2.89611 61.5624
11885990 17.857 18.8673 14.463 10.3751 -1.24977 -2.89611 61.5624
11886000 18.2456 19.4216 13.9847 9.85162 -1.20199 -3.37319 61.5036
11886020 18.4349 19.7815 13.5064 9.44233 -1.11075 -3.7442 61.1652
11886030 18.7438 20.2288 13.1529 9.02352 -1.08113 -4.12016 61.1491
11886040 18.7438 20.2288 13.1529 9.02352 -1.08113 -4.12016 61.1491
11886058 19.1125 20.54 12.8306 8.6523 -1.12487 -4.45806 61.1355
11886062 19.3417 20.7346 12.5083 8.37626 -1.12334 -4.72232 60.9608
11886071 19.3417 20.7346 12.5083 8.37626 -1.12334 -4.72232 60.9608
11886082 19.7603 21.0263 12.1755 8.11926 -1.14201 -5.03225 61.0814
11886102 20.1688 21.2305 11.7804 7.81467 -1.19028 -5.36219 60.9945
11886114 20.3482 21.532 11.5413 7.59574 -1.13152 -5.59101 61.0172
11886122 20.3482 21.532 11.5413 7.59574 -1.13152 -5.59101 61.0172
11886136 20.5375 21.5904 11.3853 7.31019 -1.24222 -5.77879 60.8234
11886142 20.5475 21.5223 11.3437 7.19597 -1.30876 -5.82337 60.6095
11886161 20.5475 21.5223 11.3437 7.19597 -1.30876 -5.82337 60.6095
11886165 20.697 21.5709 11.3229 7.13886 -1.36263 -5.88002 60.7297
11886173 20.7966 21.7363 11.2813 7.08175 -1.33832 -5.95354 60.896
11886193 20.966 21.8822 11.219 7.04367 -1.33329 -6.03466 61.1108
11886220 21.1454 21.8724 11.1358 6.99608 -1.3952 -6.10452 61.1497
11886224 21.1454 21.8919 11.0422 6.92945 -1.37941 -6.16277 61.0089
11886238 21.1454 21.8919 11.0422 6.92945 -1.37941 -6.16277 61.0089
11886245 21.0258 21.7265 11.0734 6.87234 -1.44169 -6.13033 60.6981
11886254 21.0059 21.6585 11.3229 6.97704 -1.51453 -5.99474 60.9643
11886265 21.0059 21.6585 11.3229 6.97704 -1.51453 -5.99474 60.9643
11886274 21.0856 21.6876 11.5517 7.04367 -1.59118 -5.90967 61.3686
11886289 21.0856 21.6876 11.5517 7.04367 -1.59118 -5.90967 61.3686
11886294 21.1553 21.5612 11.5309 7.07223 -1.65232 -5.89862 61.3197
11886304 21.1055 21.4542 11.6661 7.15789 -1.69403 -5.80019 61.3837
11886316 21.1055 21.4542 11.6661 7.15789 -1.69403 -5.80019 61.3837
11886324 20.8962 21.25 11.6972 7.17693 -1.70704 -5.72072 61.0204
11886338 20.4678 20.7929 11.9884 7.37682 -1.76757 -5.41736 60.6259
11886348 20.4678 20.7929 11.9884 7.37682 -1.76757 -5.41736 60.6259
11886360 20.1987 20.4331 12.3627 7.54815 -1.8913 -5.13381 60.5426
11886367 19.9596 20.1316 12.737 7.86226 -1.93717 -4.81753 60.6904
11886377 19.9596 20.1316 12.737 7.86226 -1.93717 -4.81753 60.6904
11886387 19.6008 19.762 13.2361 8.243 -1.98543 -4.40907 60.8419
11886407 19.0428 19.3049 13.9015 8.89026 -1.94193 -3.8165 61.1395
11886417 18.4549 18.8965 14.7853 9.60414 -1.91915 -3.1491 61.7408
11886428 18.4549 18.8965 14.7853 9.60414 -1.91915 -3.1491 61.7408
11886438 17.6876 18.4491 15.7627 10.4798 -1.81204 -2.37919 62.3792
11886449 16.7622 17.6905 16.9064 11.3175 -1.859 -1.4907 62.6766
11886458 16.7622 17.6905 16.9064 11.3175 -1.859 -1.4907 62.6766
11886472 15.7404 16.8066 18.0533 12.3931 -1.82322 -0.500219 62.9934
11886478 15.7404 16.8066 18.0533 12.3931 -1.82322 -0.500219 62.9934
11886488 14.8684 16.0515 19.0475 13.2973 -1.80476 0.337851 63.2647
11886498 14.0668 15.2687 19.835 14.3063 -1.70411 1.13562 63.4768
11886508 14.0668 15.2687 19.835 14.3063 -1.70411 1.13562 63.4768
11886519 13.3358 14.4307 20.5437 15.0963 -1.71611 1.86265 63.4064
11886528 12.6223 13.8321 21.0457 15.6198 -1.66989 2.42662 63.1199
11886548 12.0938 13.2795 21.5773 16.0767 -1.7115 2.92271 63.0273
11886560 12.0938 13.2795 21.5773 16.0767 -1.7115 2.92271 63.0273
11886569 11.5212 12.7178 21.912 16.5336 -1.66782 3.39954 62.6846
11886578 11.0456 12.11 22.4829 17.1072 -1.7178 3.92884 62.7456
11886588 11.0456 12.11 22.4829 17.1072 -1.7178 3.92884 62.7456
11886598 10.6933 11.5574 22.857 17.6819 -1.7164 4.36893 62.7896
11886608 10.6933 11.5574 22.857 17.6819 -1.7164 4.36893 62.7896
11886618 10.3233 10.8667 23.2901 18.3152 -1.76426 4.87661 62.7953
11886628 9.9886 10.2681 23.8413 18.89 -1.85425 5.3521 62.9881
11886638 9.9886 10.2681 23.8413 18.89 -1.85425 5.3521 62.9881
11886651 9.5658 9.78927 24.3729 19.4453 -1.86161 5.80857 63.1733
11886658 9.0285 9.17226 24.8356 19.9811 -1.86881 6.33537 63.0174
11886668 9.0285 9.17226 24.8356 19.9811 -1.86881 6.33537 63.0174
11886679 8.56166 8.57367 25.3966 20.702 -1.85131 6.87051 63.234
11886689 8.56166 8.57367 25.9971 20.702 -2.06906 6.94698 63.8344
11886699 7.90984 8.07638 25.9971 21.2865 -1.7955 7.41998 63.2699
11886709 7.42539 7.66197 26.4696 21.7931 -1.75213 7.85525 63.3501
11886720 7.42539 7.66197 26.4696 21.7931 -1.75213 7.85525 63.3501
11886729 7.08187 7.25677 26.7452 22.1926 -1.72962 8.2019 63.2764
11886740 6.91451 6.95287 26.8633 22.6212 -1.6589 8.43317 63.3519
11886763 6.71192 6.7779 27.0799 22.9719 -1.5903 8.63104 63.5416
11886769 6.50933 6.7779 27.2768 23.3519 -1.43014 8.76342 63.9159
11886780 6.50933 6.474 27.2768 23.3519 -1.55641 8.87694 63.612
11886790 6.15699 6.20693 27.6312 23.6149 -1.55884 9.16887 63.61
11886810 5.87513 5.89382 27.9363 24.102 -1.49497 9.46664 63.8073
11886820 5.54041 5.6636 28.271 24.5014 -1.42489 9.74619 63.9764
11886833 5.54041 5.6636 28.271 24.5014 -1.42489 9.74619 63.9764
11886840 5.24974 5.44258 28.3596 24.8327 -1.30473 9.97892 63.8846
11886856 5.00311 5.17551 28.3596 25.0762 -1.22259 10.1998 63.6144
11886861 5.00311 5.17551 28.3596 25.0762 -1.22259 10.1998 63.6144
11886872 4.87979 5.01896 28.458 25.3198 -1.17747 10.3364 63.6765
11886893 4.70363 4.89924 28.5663 25.4562 -1.14519 10.4721 63.6253
11886903 4.6772 4.74269 28.6943 25.6607 -1.16348 10.5688 63.7749
11886913 4.6772 4.74269 28.6943 25.6607 -1.16348 10.5688 63.7749
11886923 4.49223 4.67822 28.8419 25.8848 -1.08421 10.6944 63.8972
11886933 4.43057 4.63218 28.7632 26.0407 -0.986774 10.743 63.8666
11886943 4.43057 4.63218 28.7632 26.0407 -0.986774 10.743 63.8666
11886953 4.31606 4.5493 28.8616 26.255 -0.927354 10.8432 63.982
11886963 4.31606 4.5493 28.8616 26.255 -0.927354 10.8432 63.982
11886973 4.22798 4.51246 29.0093 26.333 -0.933106 10.9082 64.0827
11886987 4.17513 4.50325 29.1471 26.4791 -0.909682 10.9513 64.3045
11886993 4.17513 4.50325 29.1471 26.4791 -0.909682 10.9513 64.3045
11887003 4.11347 4.42958 29.2554 26.5083 -0.94506 11.0145 64.3067
11887015 4.06943 4.32828 29.2849 26.4693 -0.996344 11.0729 64.1519
11887034 3.99016 4.33749 29.275 26.294 -1.03046 11.0901 63.8967
11887044 3.99016 4.33749 29.275 26.294 -1.03046 11.0901 63.8967
11887054 3.95492 4.30065 29.4424 26.3427 -1.07508 11.1327 64.0406
11887064 3.83161 4.30065 29.3735 26.4693 -0.951581 11.1865 63.9751
11887074 3.83161 4.30065 29.3735 26.4693 -0.951581 11.1865 63.9751
11887089 3.86684 4.3467 29.3046 26.4109 -0.94395 11.1456 63.929
11887094 3.94611 4.37432 29.1963 26.3719 -0.937633 11.093 63.8886
11887114 4.01658 4.43879 29.0585 26.4011 -0.874259 11.0313 63.915
11887124 4.01658 4.43879 28.901 26.4011 -0.814664 11.0215 63.7575
11887135 4.05181 4.40195 28.901 26.294 -0.886454 11.0154 63.6487
11887144 4.1399 4.50325 28.7632 26.0504 -0.925587 10.9138 63.4567
11887155 4.1399 4.50325 28.7632 26.0504 -0.925587 10.9138 63.4567
11887167 4.2456 4.58613 28.6549 25.8166 -0.986417 10.8146 63.3032
11887175 4.43938 4.82557 28.5958 25.6997 -0.98722 10.627 63.5605
11887188 4.43938 4.82557 28.5958 25.6997 -0.98722 10.627 63.5605
11887195 4.5715 4.87161 28.4482 25.6023 -1.00238 10.5382 63.4936
11887205 4.5715 4.87161 28.4482 25.6023 -1.00238 10.5382 63.4936
11887217 4.69482 5.07421 28.1627 25.3295 -0.969709 10.3673 63.2613
11887225 4.87098 5.36891 27.8871 25.1542 -0.88297 10.1455 63.2811
11887238 4.87098 5.36891 27.8871 25.1542 -0.88297 10.1455 63.2811
11887252 5.1 5.59913 27.641 25.1347 -0.790547 9.94328 63.4748
11887261 5.38187 5.90303 27.1685 24.9593 -0.665489 9.66121 63.4127
11887266 5.38187 5.90303 27.1685 24.9593 -0.665489 9.66121 63.4127
11887275 5.54041 6.21614 26.9027 24.9106 -0.517695 9.45183 63.5699
11887295 5.72539 6.49242 26.4499 24.5404 -0.451873 9.20116 63.2081
11887308 6.11295 6.88841 25.9676 24.0825 -0.439957 8.81393 63.0515
11887318 6.11295 6.88841 25.9676 24.0825 -0.439957 8.81393 63.0515
11887333 6.50052 7.45016 25.2785 23.537 -0.31542 8.33207 62.7662
11887342 7.12591 8.11322 24.619 22.8063 -0.329284 7.70441 62.6644
11887347 7.12591 8.11322 24.619 22.8063 -0.329284 7.70441 62.6644
11887358 7.63679 8.73023 24.0185 22.2315 -0.27691 7.15852 62.6171
11887366 8.06839 9.46696 23.3787 21.5885 -0.156629 6.58338 62.5026
11887387 8.38549 10.3418 22.916 20.7605 -0.079824 5.99704 62.4038
11887404 8.38549 10.3418 22.916 20.7605 -0.079824 5.99704 62.4038
11887408 8.66736 11.0878 22.4435 19.9519 -0.0286743 5.46422 62.1505
11887418 9.07254 11.7692 21.8234 19.3673 0.0969797 4.92056 62.0325
11887438 9.53938 12.4139 21.3607 18.8705 0.154474 4.40897 62.1845
11887453 9.95337 13.0125 20.8882 18.1788 0.140911 3.89339 62.0329
11887458 9.95337 13.0125 20.8882 18.1788 0.140911 3.89339 62.0329
11887468 10.5788 13.6111 20.3764 17.4189 0.0301778 3.29244 61.9851
11887488 11.0368 14.2465 19.7956 16.5431 -0.0173613 2.69111 61.622
11887501 11.6005 14.8082 19.3329 15.8292 -0.120187 2.13252 61.5709
11887509 11.6005 14.8082 19.3329 15.8292 -0.120187 2.13252 61.5709
11887522 12.1202 15.3239 18.8309 15.2296 -0.161621 1.61362 61.5046
11887529 12.7368 15.8304 18.3092 14.6394 -0.234139 1.06836 61.5159
11887539 12.7368 15.8304 18.3092 14.6394 -0.234139 1.06836 61.5159
11887549 13.4767 16.3554 17.7383 14.1254 -0.297497 0.493952 61.6957
11887570 14.1549 16.954 16.9688 13.5448 -0.253551 -0.144901 61.6225
11887579 14.7715 17.5349 16.189 12.888 -0.218943 -0.789152 61.3834
11887590 14.7715 17.5349 16.189 12.888 -0.218943 -0.789152 61.3834
11887599 15.2383 18.0503 15.7211 12.3169 -0.241408 -1.28427 61.3267
11887613 15.6964 18.4783 15.1284 11.7077 -0.261769 -1.80422 61.0108
11887620 15.6964 18.4783 15.1284 11.7077 -0.261769 -1.80422 61.0108
11887634 16.1808 18.9159 14.7021 11.1652 -0.328837 -2.27087 60.964
11887640 16.1808 18.9159 14.7021 11.1652 -0.328837 -2.27087 60.964
11887650 16.6301 19.3244 14.1199 10.6512 -0.318803 -2.76244 60.7255
11887661 17.3488 19.7426 13.392 10.1277 -0.35909 -3.3587 60.611
11887670 17.3488 19.7426 13.392 10.1277 -0.35909 -3.3587 60.611
11887681 18.1161 20.1802 12.6642 9.69933 -0.371227 -3.93985 60.6598
11887690 18.4748 20.6567 12.0508 9.23292 -0.263134 -4.4313 60.4152
11887701 18.4748 20.6567 12.0508 9.23292 -0.263134 -4.4313 60.4152
11887713 18.6542 21.1333 11.822 8.89978 -0.183074 -4.7263 60.5093
11887723 18.6542 21.1333 11.822 8.89978 -0.183074 -4.7263 60.5093
11887730 18.8136 21.3278 11.5621 8.63326 -0.171794 -4.95869 60.3367
11887745 19.0328 21.7168 11.4997 8.46193 -0.14568 -5.13612 60.7113
11887750 19.0328 21.7168 11.4997 8.46193 -0.14568 -5.13612 60.7113
11887760 19.3318 22.1934 11.1878 8.28108 -0.0184849 -5.42421 60.994
11887770 19.4513 22.1934 10.8758 8.10022 -0.0138581 -5.60913 60.6208
11887780 19.4513 22.4559 10.8758 8.10022 0.0940263 -5.64963 60.8834
11887790 19.5709 22.6991 10.6263 7.92889 0.177044 -5.84827 60.8252
11887800 19.5709 22.6991 10.6263 7.92889 0.177044 -5.84827 60.8252
11887813 19.7503 22.9519 10.408 7.76708 0.230291 -6.04344 60.8773
11887820 19.9596 23.1854 10.2312 7.64334 0.261369 -6.21205 61.0194
11887840 20.129 23.3701 10.0544 7.50056 0.281432 -6.37405 61.0541
11887868 20.2186 23.3701 10.0336 7.3673 0.198871 -6.44072 60.9897
11887870 20.2186 23.4188 10.0336 7.3673 0.218627 -6.44754 61.0383
11887872 20.3283 23.4382 9.99205 7.28163 0.163642 -6.51033 61.0402
11887892 20.5674 23.6327 9.84648 7.24356 0.188607 -6.63485 61.2902
11887908 20.7268 23.7592 9.69052 7.12934 0.192121 -6.76921 61.3059
11887921 20.8564 23.8078 9.53456 7.08175 0.203404 -6.86545 61.2805
11887932 20.8564 23.8661 9.40979 6.98656 0.239909 -6.9519 61.1189
11887954 21.0059 23.9634 9.31621 6.9009 0.221545 -7.04867 61.1863
11887970 21.0059 23.9634 9.31621 6.9009 0.221545 -7.04867 61.1863
11887977 21.0856 24.0023 9.23303 6.78667 0.192431 -7.13533 61.1076
11887983 21.1553 23.9731 9.13945 6.73908 0.17105 -7.19178 61.007
11887993 21.1553 23.9731 9.13945 6.73908 0.17105 -7.19178 61.007
11888005 21.2251 24.0023 9.04587 6.68197 0.169507 -7.25931 60.9552
11888013 21.2052 23.8953 9.04587 6.65342 0.122407 -7.25361 60.7998
11888025 21.2052 23.8953 9.04587 6.65342 0.122407 -7.25361 60.7998
11888033 21.2649 23.837 9.04587 6.69149 0.0894248 -7.23987 60.8393
11888045 21.2649 23.837 9.04587 6.69149 0.0894248 -7.23987 60.8393
11888054 21.2749 23.8661 8.97309 6.65342 0.111717 -7.28544 60.7675
11888066 21.4742 24.012 8.97309 6.69149 0.104743 -7.31511 61.1508
11888090 21.4642 24.012 8.96269 6.66293 0.101474 -7.32808 61.1019
11888094 21.4244 23.9828 8.9419 6.66293 0.114521 -7.32701 61.0121
11888105 21.4244 23.9828 8.9419 6.66293 0.114521 -7.32701 61.0121
11888115 21.2948 23.8953 9.02508 6.68197 0.105652 -7.26218 60.8972
11888127 21.2948 23.8953 9.02508 6.68197 0.105652 -7.26218 60.8972
11888136 21.1553 23.7203 9.09786 6.75812 0.0926942 -7.16751 60.7316
11888145 21.1753 23.7105 9.24343 6.83427 0.051713 -7.0882 60.9635
11888159 21.1753 23.7105 9.24343 6.83427 0.051713 -7.0882 60.9635
11888165 20.9859 23.6814 9.42018 7.05319 0.134292 -6.91698 61.1407
11888175 20.9859 23.6424 9.51376 7.11982 0.107151 -6.85453 61.262
11888197 20.7567 23.6424 9.69052 7.27212 0.190389 -6.70691 61.3618
11888207 20.5076 23.341 9.74251 7.33875 0.17626 -6.58971 60.9298
11888217 20.5076 23.341 9.74251 7.33875 0.17626 -6.58971 60.9298
11888229 20.1987 23.0881 10.0024 7.56719 0.18656 -6.33881 60.8564
11888247 19.8001 22.7769 10.252 7.65286 0.156096 -6.1189 60.4818
11888257 19.4314 22.5727 10.7511 8.04311 0.178164 -5.72629 60.7983
11888267 19.4314 22.5727 10.7511 8.04311 0.178164 -5.72629 60.7983
11888277 19.0328 22.2031 11.3125 8.41433 0.111568 -5.29234 60.9628
11888298 18.415 21.6876 12.03 8.93785 0.0738949 -4.69986 61.0705
11888306 17.4783 21.0652 13.0073 9.70885 0.117701 -3.87547 61.2597
11888321 17.4783 21.0652 13.0073 9.70885 0.117701 -3.87547 61.2597
11888329 16.4979 20.2969 14.2239 10.5274 0.0416607 -2.93525 61.5461
11888337 15.4674 19.6648 15.8355 11.7268 0.0353694 -1.81114 62.6944
11888348 15.4674 19.6648 15.8355 11.7268 0.0353694 -1.81114 62.6944
11888358 14.8067 19.0229 17.2166 12.9451 -0.0216007 -0.859788 63.9913
11888368 14.2518 18.3616 17.9056 13.7542 -0.0162095 -0.222539 64.2732
11888378 14.2518 18.3616 17.9056 13.7542 -0.0162095 -0.222539 64.2732
11888389 13.7674 17.6224 18.4175 14.2206 -0.133462 0.292447 64.0279
11888398 13.7674 17.6224 18.4175 14.2206 -0.133462 0.292447 64.0279
11888411 13.0979 16.7053 18.8506 14.5728 -0.265095 0.858852 63.2266
11888418 12.587 15.9962 19.2247 14.9535 -0.343356 1.33719 62.7615
11888434 12.587 15.9962 19.2247 14.9535 -0.343356 1.33719 62.7615
11888439 12.1378 15.4805 19.6479 15.3057 -0.399363 1.75845 62.572
11888449 11.6358 14.8267 20.1008 15.5722 -0.53819 2.22351 62.1354
11888459 11.6358 14.8267 20.1008 15.5722 -0.53819 2.22351 62.1354
11888469 11.3539 14.3017 20.5142 15.953 -0.649269 2.61052 62.1228
11888479 11.3539 14.3017 20.5142 15.953 -0.649269 2.61052 62.1228
11888489 11.072 13.8044 20.8292 16.3527 -0.702572 2.97433 62.0584
11888502 10.8166 13.1414 21.3804 16.9143 -0.859916 3.4545 62.2527
11888509 10.8166 13.1414 21.3804 16.9143 -0.859916 3.4545 62.2527
11888525 10.4554 12.4139 21.8923 17.565 -0.950168 3.9922 62.3267
11888529 10.4554 12.4139 21.8923 17.565 -0.950168 3.9922 62.3267
11888548 10.1207 11.7324 22.6404 18.0911 -1.17346 4.52469 62.5847
11888550 9.74197 11.0785 23.2901 18.6659 -1.30925 5.05017 62.7765
11888559 9.74197 11.0785 23.2901 18.6659 -1.30925 5.05017 62.7765
11888570 9.31036 10.3418 24.1071 19.4063 -1.45228 5.66635 63.1656
11888579 8.73782 9.55905 24.9241 20.2246 -1.52819 6.34841 63.4457
11888592 8.73782 9.55905 24.9241 20.2246 -1.52819 6.34841 63.4457
11888609 8.20052 8.81311 25.5246 20.9066 -1.57831 6.95508 63.4448
11888619 7.85699 8.32503 25.8396 21.2768 -1.61725 7.3306 63.2984
11888630 7.71606 8.03034 25.9676 21.6275 -1.58893 7.54214 63.3415
11888650 7.49585 7.78169 26.0069 22.0562 -1.44652 7.76411 63.3407
11888663 7.20518 7.34886 26.2727 22.514 -1.42681 8.10679 63.3408
11888680 6.92332 7.06338 26.5188 23.0206 -1.32155 8.39483 63.5261
11888690 6.92332 7.06338 26.5188 23.0206 -1.32155 8.39483 63.5261
11888700 6.71192 6.74106 26.7354 23.5175 -1.25136 8.6648 63.7058
11888710 6.43005 6.40032 27.011 24.102 -1.14895 8.98044 63.9434
11888721 6.43005 6.40032 27.011 24.102 -1.14895 8.98044 63.9434
11888730 6.07772 6.05959 27.1587 24.5112 -1.0444 9.29344 63.8071
11888740 5.69896 5.78332 27.3063 24.7547 -0.970688 9.579 63.5433
11888762 5.38187 5.55309 27.454 25.0373 -0.885083 9.82787 63.4262
11888773 5.14404 5.55309 27.5622 25.2126 -0.764351 9.94401 63.472
11888782 5.14404 5.33207 27.5622 25.2126 -0.854377 10.0312 63.251
11888796 5.08238 5.31365 27.4638 25.2418 -0.78869 10.0575 63.1017
11888802 5.08238 5.31365 27.4638 25.2418 -0.78869 10.0575 63.1017
11888812 5.10881 5.27681 27.4835 25.1152 -0.873353 10.0532 62.9843
11888822 5.2057 5.27681 27.5524 25.0957 -0.944701 10.0187 63.1306
11888832 5.2057 5.27681 27.5524 25.0957 -0.944701 10.0187 63.1306
11888845 5.22332 5.33207 27.6508 25.1444 -0.946192 10.0014 63.3506
11888852 5.22332 5.33207 27.6508 25.1444 -0.946192 10.0014 63.3506
11888862 5.13523 5.33207 27.8576 25.31 -0.923508 10.0653 63.6349
11888874 5.19689 5.38732 27.9068 25.3295 -0.934978 10.0247 63.8205
11888895 5.27617 5.47021 27.6508 25.2516 -0.86617 9.93484 63.6488
11888901 5.42591 5.57151 27.4835 25.1152 -0.873762 9.81222 63.5961
11888914 5.42591 5.57151 27.4835 25.1152 -0.873762 9.81222 63.5961
11888925 5.53161 5.65439 27.2374 25.0275 -0.822335 9.71119 63.4509
11888934 5.53161 5.65439 27.2374 25.0275 -0.822335 9.71119 63.4509
11888942 5.5228 5.73727 27.2177 24.9301 -0.817391 9.67255 63.4079
11888954 5.66373 5.8662 27.3358 24.8229 -0.906932 9.56893 63.6887
11888972 5.7342 5.95829 27.326 24.7742 -0.912212 9.50134 63.7927
11888981 5.75181 6.01354 27.3654 24.784 -0.907339 9.47763 63.9147
11888993 5.75181 6.01354 27.3654 24.784 -0.907339 9.47763 63.9147
11889003 5.86632 6.07801 27.3851 24.5599 -1.02266 9.39139 63.8893
11889013 5.86632 6.07801 27.3851 24.5599 -1.02266 9.39139 63.8893
11889023 5.88394 6.14247 27.326 24.4819 -1.01259 9.34799 63.8344
11889033 5.9544 6.13326 27.4146 24.5501 -1.0482 9.33854 64.0524
11889053 5.98083 6.16089 27.2669 24.5307 -0.99947 9.30317 63.9393
11889063 5.9456 6.17931 27.1783 24.5501 -0.937495 9.3034 63.8534
11889083 6.03368 6.21614 27.139 24.4235 -0.992367 9.24101 63.8123
11889093 6.03368 6.21614 27.139 24.4235 -0.992367 9.24101 63.8123
11889104 6.08653 6.20693 27.1488 24.2287 -1.09931 9.20765 63.6709
11889114 6.06891 6.33586 27.2177 24.1507 -1.09766 9.16458 63.7732
11889134 6.17461 6.38191 27.1783 24.0338 -1.15152 9.09278 63.7687
11889144 6.18342 6.49242 27.0504 23.8195 -1.14952 9.01572 63.5457
11889166 6.23627 6.52925 26.9716 23.7805 -1.14068 8.97072 63.5177
11889174 6.23627 6.52925 26.9716 23.7805 -1.14068 8.97072 63.5177
11889188 6.32435 6.63976 26.8043 23.6734 -1.10949 8.8696 63.4417
11889194 6.43005 6.80553 26.6369 23.4395 -1.11429 8.72841 63.3121
11889210 6.43005 6.80553 26.6369 23.4395 -1.11429 8.72841 63.3121
11889215 6.61503 6.91603 26.4302 23.3032 -1.11677 8.58357 63.2644
11889225 6.72953 7.11863 26.2432 23.1473 -1.07008 8.43052 63.2386
11889235 6.72953 7.11863 26.2432 23.1473 -1.07008 8.43052 63.2386
11889255 6.78238 7.33044 26.0857 22.8842 -1.05155 8.28842 63.0828
11889257 6.78238 7.33044 26.0857 22.8842 -1.05155 8.28842 63.0828
11889268 6.83523 7.41333 25.9577 22.816 -1.01694 8.21737 63.0223
11889278 6.99378 7.53304 25.8002 22.7381 -1.0001 8.08961 63.0652
11889287 6.99378 7.53304 25.8002 22.7381 -1.0001 8.08961 63.0652
11889295 7.13472 7.83694 25.4951 22.5822 -0.876546 7.87618 63.049
11889306 7.29326 8.05796 25.308 22.4069 -0.846916 7.69756 63.0662
11889326 7.4342 8.3987 24.7863 22.1049 -0.684331 7.42736 62.7241
11889348 7.6456 8.61972 24.5402 21.8321 -0.692087 7.20981 62.6376
11889355 7.8658 9.01571 24.1465 21.5983 -0.558195 6.91321 62.6263
11889369 7.8658 9.01571 24.1465 21.5983 -0.558195 6.91321 62.6263
11889377 8.20933 9.4117 23.6642 21.1891 -0.509278 6.53843 62.4743
11889390 8.56166 9.89057 23.2704 20.7994 -0.456664 6.14606 62.5221
11889397 8.56166 9.89057 23.2704 20.7994 -0.456664 6.14606 62.5221
11889407 8.79067 10.4247 22.8767 20.3123 -0.372697 5.76248 62.4044
11889419 8.79067 10.4247 22.8767 20.3123 -0.372697 5.76248 62.4044
11889427 9.08135 11.0233 22.3156 19.7473 -0.25188 5.29816 62.1675
11889445 9.58342 11.76 21.6954 18.851 -0.269762 4.65415 61.8899
11889448 9.58342 11.76 21.6954 18.851 -0.269762 4.65415 61.8899
11889457 10.2617 12.5244 20.7111 18.0619 -0.156941 3.89551 61.559
11889473 11.0632 13.3808 19.7956 17.3605 -0.0476971 3.09546 61.6001
11889477 11.0632 13.3808 19.7956 17.3605 -0.0476971 3.09546 61.6001
11889488 11.8912 14.2465 18.8408 16.7525 0.108147 2.29762 61.731
11889507 12.6399 14.928 18.1123 16.1719 0.140503 1.62882 61.8521
11889517 13.2653 15.5726 17.5611 15.6865 0.174221 1.06539 62.0854
11889528 13.2653 15.5726 17.5611 15.6865 0.174221 1.06539 62.0854
11889537 13.785 16.162 16.9792 15.0868 0.195357 0.512567 62.0129
11889549 14.2254 16.4935 16.4073 14.5538 0.168014 0.0589013 61.68
11889557 14.2254 16.4935 16.4073 14.5538 0.168014 0.0589013 61.68
11889571 14.7275 16.8711 15.7211 14.0778 0.203729 -0.439661 61.3975
11889577 14.7275 16.8711 15.7211 14.0778 0.203729 -0.439661 61.3975
11889586 14.9301 17.1362 15.0869 13.5924 0.292879 -0.836352 60.7454
11889598 15.3 17.4085 14.6398 13.1641 0.26142 -1.21578 60.5123
11889608 15.3 17.4085 14.6398 13.1641 0.26142 -1.21578 60.5123
11889618 15.4762 17.6808 14.3798 12.8595 0.283238 -1.46971 60.3962
11889628 15.8109 17.9531 14.2654 12.7833 0.271359 -1.65637 60.8127
11889638 15.8109 17.9531 14.2654 12.7833 0.271359 -1.65637 60.8127
11889648 16.1456 18.2254 14.1719 12.5834 0.200963 -1.86885 61.1263
11889668 16.3482 18.4394 13.9535 12.355 0.201583 -2.08173 61.096
11889678 16.4979 18.595 13.7976 12.0504 0.143531 -2.27555 60.9408
11889698 16.7093 18.7506 13.5064 11.7363 0.111651 -2.52473 60.7026
11889708 16.9383 18.9354 13.2673 11.3746 0.0430942 -2.78404 60.5156
11889718 16.9383 18.9354 13.2673 11.3746 0.0430942 -2.78404 60.5156
11889729 17.1295 19.1785 12.8618 11.0985 0.118518 -3.07318 60.2684
11889754 17.3388 19.3341 12.6954 10.9082 0.0862926 -3.25234 60.2765
11889758 17.4982 19.6356 12.4459 10.7559 0.185362 -3.46365 60.3356
11889769 17.4982 19.6356 12.4459 10.7559 0.185362 -3.46365 60.3356
11889781 17.6876 20.0441 12.2795 10.6036 0.280687 -3.67449 60.6147
11889789 17.8968 20.2969 12.1443 10.5465 0.329396 -3.81942 60.8846
11889809 17.9865 20.6957 11.9676 10.3656 0.453645 -4.01922 61.0154
11889832 18.0762 20.9485 11.8636 10.2704 0.522876 -4.14266 61.1588
11889839 18.1659 21.2305 11.77 10.061 0.553536 -4.3033 61.2275
11889849 18.1659 21.2305 11.77 10.061 0.553536 -4.3033 61.2275
11889860 18.2855 21.4542 11.6661 9.89922 0.571704 -4.44689 61.305
11889874 18.4648 21.639 11.4581 9.65174 0.558624 -4.65435 61.2137
11889893 18.5545 21.8724 11.2917 9.42329 0.592661 -4.83593 61.142
11889905 18.5545 21.8724 11.2917 9.42329 0.592661 -4.83593 61.142
11889915 18.694 22.0086 11.167 9.24244 0.56864 -4.98098 61.112
11889920 18.8734 22.1156 11.063 9.03303 0.496116 -5.13046 61.085
11889940 18.983 22.4268 11.0838 8.85218 0.493988 -5.25068 61.3458
11889952 19.0328 22.524 10.9174 8.68085 0.512883 -5.38595 61.1551
11889960 19.0328 22.524 10.9174 8.68085 0.512883 -5.38595 61.1551
11889975 19.1923 22.6991 10.7615 8.6047 0.550976 -5.51569 61.2575
11889980 19.1923 22.6991 10.7615 8.6047 0.550976 -5.51569 61.2575
11889990 19.2521 22.7866 10.6471 8.46193 0.551695 -5.62482 61.1477
11890002 19.3218 22.8061 10.5015 8.45241 0.587383 -5.69088 61.0818
11890013 19.3218 22.8061 10.5015 8.45241 0.587383 -5.69088 61.0818
11890025 19.4115 22.8839 10.5119 8.33819 0.530961 -5.75151 61.1455
11890030 19.5709 22.9908 10.3768 8.23348 0.521743 -5.87316 61.172
11890051 19.7802 23.127 10.3352 8.21445 0.498763 -5.94505 61.4568
11890060 19.7802 23.127 10.3352 8.21445 0.498763 -5.94505 61.4568
11890072 19.8499 23.1659 10.2 7.95745 0.438675 -6.09541 61.1733
11890082 20.0094 23.1173 10.1376 7.85274 0.336659 -6.16922 61.117
11890094 20.0094 23.1173 10.1376 7.85274 0.336659 -6.16922 61.117
11890106 19.9795 23.0297 10.0024 7.81467 0.354487 -6.21247 60.8263
11890122 19.9596 23.0492 10.0336 7.85274 0.37308 -6.18827 60.8951
11890132 19.9396 23.127 10.0336 7.91937 0.439659 -6.17349 61.0196
11890144 19.9396 23.127 10.0336 7.91937 0.439659 -6.17349 61.0196
11890152 19.9396 23.0589 10.0752 7.81467 0.352588 -6.18557 60.8885
11890162 19.8898 22.9908 10.1584 7.86226 0.330412 -6.12301 60.9013
11890181 19.9097 22.9325 10.2 7.94793 0.315911 -6.07335 60.9902
11890191 19.7802 22.7574 10.3144 7.92889 0.243405 -5.99556 60.7809
11890203 19.7802 22.7574 10.3144 7.92889 0.243405 -5.99556 60.7809
11890213 19.7902 22.7185 10.5015 8.00504 0.17696 -5.90068 61.0153
11890223 19.7902 22.7185 10.5015 8.00504 0.17696 -5.90068 61.0153
11890234 19.7005 22.6407 10.6159 8.10022 0.173846 -5.80399 61.0573
11890243 19.6805 22.5435 10.8031 8.25252 0.12745 -5.67116 61.2796
11890263 19.4812 22.3976 10.9798 8.30011 0.0967383 -5.54268 61.1588
11890277 19.2222 22.1447 11.0838 8.44289 0.115645 -5.37993 60.8936
11890284 19.2222 22.1447 11.0838 8.44289 0.115645 -5.37993 60.8936
11890299 18.9033 21.9697 11.3021 8.64278 0.167316 -5.16165 60.8179
11890314 18.6741 21.7752 11.6349 8.92833 0.161666 -4.88902 61.0125
11890330 18.4549 21.5904 11.9156 9.26148 0.196582 -4.62287 61.2223
11890334 18.4549 21.5904 11.9156 9.26148 0.196582 -4.62287 61.2223
11890345 17.9766 21.2111 12.3003 9.6327 0.231892 -4.23457 61.1207
11890358 17.4783 20.7929 12.8826 10.061 0.201362 -3.75586 61.2148
11890383 16.956 20.3358 13.5168 10.575 0.178412 -3.2256 61.3836
11890395 16.4363 19.7328 14.2239 11.1937 0.108159 -2.61863 61.5867
11890408 16.0223 19.1396 14.9517 11.7363 -0.039649 -2.05511 61.8498
11890415 16.0223 19.1396 14.9517 11.7363 -0.039649 -2.05511 61.8498
11890432 15.6435 18.5658 15.6171 12.4121 -0.113581 -1.48945 62.2385
11890436 15.3 17.9628 16.2306 13.0403 -0.210866 -0.957543 62.5337
11890448 15.3 17.9628 16.2306 13.0403 -0.210866 -0.957543 62.5337
11890458 14.9565 17.4182 16.7401 13.5733 -0.281155 -0.493219 62.6881
11890467 14.5777 16.7974 17.2264 14.173 -0.332026 0.00580609 62.7745
11890482 14.5777 16.7974 17.2264 14.173 -0.332026 0.00580609 62.7745
11890487 14.1109 16.1159 17.6989 14.6109 -0.432943 0.499617 62.5366
11890496 14.1109 16.1159 17.6989 14.6109 -0.432943 0.499617 62.5366
11890512 13.556 15.3055 18.2305 15.3343 -0.459191 1.13011 62.4262
11890520 13.186 14.6241 18.703 16.0672 -0.478475 1.66828 62.5802
11890532 13.186 14.6241 18.703 16.0672 -0.478475 1.66828 62.5802
11890538 12.6839 13.8781 19.205 16.8382 -0.468257 2.27164 62.6052
11890556 11.9705 13.0033 20.0614 17.6819 -0.536793 3.0541 62.717
11890559 11.9705 13.0033 20.0614 17.6819 -0.536793 3.0541 62.717
11890568 11.257 12.0179 21.0851 18.7244 -0.634025 3.93155 63.0844
11890589 10.2793 11.0601 22.3156 19.7862 -0.689013 4.90905 63.4412
11890605 9.4601 10.0379 23.4279 20.8092 -0.80055 5.82231 63.7351
11890619 8.66736 9.32882 24.4517 21.4034 -0.934497 6.54464 63.8513
11890630 7.95389 8.61972 25.1702 21.9685 -0.99507 7.19604 63.7123
11890639 7.95389 8.61972 25.1702 21.9685 -0.99507 7.19604 63.7123
11890655 7.44301 8.04875 25.7018 22.4458 -1.0411 7.69709 63.6394
11890659 7.44301 8.04875 25.7018 22.4458 -1.0411 7.69709 63.6394
11890669 6.92332 7.3857 26.2727 22.9914 -1.10854 8.24761 63.5731
11890680 6.51813 6.95287 26.9126 23.5759 -1.13427 8.68147 63.9595
11890703 6.12176 6.49242 27.4737 23.8974 -1.25247 9.08574 63.9853
11890709 5.65492 6.05959 27.8674 24.1702 -1.29115 9.48747 63.7521
11890720 5.65492 6.05959 27.8674 24.1702 -1.29115 9.48747 63.7521
11890730 5.34663 5.79252 28.1824 24.3943 -1.31138 9.75523 63.7158
11890740 5.03834 5.50704 28.3793 24.667 -1.27514 10.0251 63.5917
11890750 5.03834 5.50704 28.3793 24.667 -1.27514 10.0251 63.5917
11890760 4.74767 5.34128 28.6549 24.9593 -1.21735 10.2488 63.7032
11890780 4.39534 5.02817 28.7632 25.31 -1.11042 10.5477 63.4967
11890790 4.1399 4.80715 28.8321 25.5536 -1.03076 10.7619 63.3327
11890802 4.1399 4.80715 28.8321 25.5536 -1.03076 10.7619 63.3327
11890812 4.10466 4.71506 28.8124 25.8166 -0.939883 10.8298 63.4487
11890828 4.10466 4.71506 28.8124 25.8166 -0.939883 10.8298 63.4487
11890832 3.96373 4.53088 29.029 26.0699 -0.940305 10.9927 63.5935
11890841 3.93731 4.42958 29.275 26.4206 -0.921811 11.0819 64.0626
11890854 3.93731 4.42958 29.275 26.4206 -0.921811 11.0819 64.0626
11890863 3.84041 4.31907 29.5507 26.6155 -0.954728 11.1946 64.3256
11890875 3.7171 4.21777 29.8853 26.859 -0.976224 11.3196 64.6792
11890882 3.7171 4.21777 29.8853 26.859 -0.976224 11.3196 64.6792
11890897 3.62902 4.13489 30.1216 26.9564 -1.02529 11.4079 64.8419
11890902 3.62902 4.13489 30.1216 26.9564 -1.02529 11.4079 64.8419
11890912 3.35596 4.00596 30.2889 27.1318 -0.967517 11.5908 64.7827
11890922 3.19741 3.87703 30.4268 27.2877 -0.949024 11.7242 64.7889
11890932 3.19741 3.87703 30.4268 27.2877 -0.949024 11.7242 64.7889
11890942 3.10052 3.72969 30.4957 27.1708 -1.0449 11.823 64.4966
11890953 2.92435 3.62839 30.5744 27.2195 -1.02993 11.945 64.3466
11890965 2.92435 3.62839 30.5744 27.2195 -1.02993 11.945 64.3466
11890974 2.85389 3.56392 30.4661 27.2877 -0.961645 11.9997 64.1716
11890983 2.85389 3.56392 30.4661 27.2877 -0.961645 11.9997 64.1716
11890998 2.77461 3.48104 30.3677 27.2292 -0.952208 12.0609 63.8526
11891003 2.67772 3.40737 30.2003 27.2292 -0.882266 12.1258 63.5147
11891013 2.67772 3.40737 30.2003 27.2292 -0.882266 12.1258 63.5147
11891023 2.6513 3.40737 29.905 27.2292 -0.759475 12.1237 63.1929
11891033 2.70415 3.49025 29.6294 27.3266 -0.600417 12.0573 63.1505
11891043 2.70415 3.49025 29.6294 27.3266 -0.600417 12.0573 63.1505
11891053 2.84508 3.59155 29.7475 27.4241 -0.619809 11.9642 63.6082
11891073 2.94197 3.67443 29.718 27.5507 -0.561488 11.893 63.8851
11891084 3.05648 3.7481 29.7377 27.6287 -0.552201 11.8188 64.1709
11891093 3.05648 3.7481 29.7377 27.6287 -0.552201 11.8188 64.1709
11891107 3.06528 3.80336 29.7672 27.7261 -0.506154 11.7984 64.3619
11891113 3.16218 3.8494 29.8066 27.6871 -0.555097 11.7391 64.5053
11891123 3.16218 3.8494 29.8066 27.6871 -0.555097 11.7391 64.5053
11891133 3.33834 3.9415 29.9444 27.6287 -0.660188 11.6325 64.8529
11891143 3.33834 3.9415 29.9444 27.6287 -0.660188 11.6325 64.8529
11891170 3.33834 3.92308 29.8952 27.4338 -0.726365 11.6273 64.5904
11891174 3.40881 3.99675 29.8657 27.2195 -0.79788 11.5551 64.4907
11891184 3.44404 4.00596 29.6688 27.0928 -0.784139 11.5193 64.2116
11891194 3.54974 4.18093 29.4424 26.8006 -0.785723 11.3748 63.9736
11891204 3.54974 4.18093 29.4424 26.8006 -0.785723 11.3748 63.9736
11891214 3.7171 4.30986 29.2849 26.6447 -0.800319 11.2348 63.9565
11891235 3.74352 4.3467 29.088 26.3524 -0.839125 11.1797 63.5307
11891244 3.86684 4.52167 29.0191 26.0894 -0.895666 11.0367 63.497
11891254 3.86684 4.52167 29.0191 26.0894 -0.895666 11.0367 63.497
11891269 3.94611 4.6598 28.9108 25.8361 -0.9317 10.9248 63.3529
11891277 4.17513 4.8532 28.8715 25.7874 -0.944459 10.7472 63.6872
11891284 4.17513 4.8532 28.8715 25.7874 -0.944459 10.7472 63.6872
11891299 4.31606 5.04659 28.7829 25.651 -0.941011 10.5973 63.7965
11891306 4.55389 5.04659 28.6844 25.4172 -1.08887 10.4787 63.7021
11891326 4.55389 5.19393 28.6844 25.4172 -1.02866 10.4199 63.8494
11891328 4.84456 5.58072 28.4679 25.0957 -1.02987 10.1123 63.9888
11891335 4.84456 5.58072 28.4679 25.0957 -1.02987 10.1123 63.9888
11891354 5.09119 5.72806 28.0938 24.8424 -1.02522 9.90902 63.7555
11891358 5.3114 5.93987 27.8674 24.5112 -1.07173 9.69529 63.6298
11891365 5.3114 5.93987 27.8674 24.5112 -1.07173 9.69529 63.6298
11891383 5.68135 6.29903 27.4244 23.9948 -1.10881 9.33102 63.3997
11891387 5.68135 6.29903 27.4244 23.9948 -1.10881 9.33102 63.3997
11891397 6.03368 6.63976 26.8141 23.3129 -1.15252 8.94585 62.8005
11891411 6.62383 7.21993 26.1349 22.6504 -1.15297 8.36869 62.6291
11891417 6.62383 7.21993 26.1349 22.6504 -1.15297 8.36869 62.6291
11891427 7.1171 7.73564 25.5246 21.9782 -1.17385 7.85417 62.3556
11891442 7.52228 8.26977 25.1112 21.4521 -1.16732 7.40223 62.3554
11891447 7.52228 8.26977 25.1112 21.4521 -1.16732 7.40223 62.3554
11891467 8.01554 8.96045 24.4123 20.7897 -1.07662 6.80932 62.178
11891468 8.01554 8.96045 24.4123 20.7897 -1.07662 6.80932 62.178
11891477 8.6057 9.59588 23.5854 20.1954 -0.967941 6.19028 61.9824
11891496 9.23109 10.2497 22.7389 19.6206 -0.848792 5.54945 61.8403
11891499 9.23109 10.2497 22.7389 19.6206 -0.848792 5.54945 61.8403
11891507 9.74197 10.8759 22.0104 19.1433 -0.701445 4.9867 61.7716
11891524 10.1472 11.5574 21.4198 18.5782 -0.57992 4.44717 61.7026
11891537 10.6404 12.3586 20.7307 17.8963 -0.452842 3.80391 61.626
11891551 10.6404 12.3586 20.7307 17.8963 -0.452842 3.80391 61.626
11891557 11.0544 13.1138 19.9925 17.1851 -0.304838 3.18101 61.3457
11891568 11.4948 14.0531 19.2247 16.5336 -0.0541568 2.4982 61.3062
11891581 11.4948 14.0531 19.2247 16.5336 -0.0541568 2.4982 61.3062
11891590 12.0321 14.9648 18.2994 15.9339 0.2316 1.77275 61.2302
11891598 12.4461 15.7752 17.5709 15.3438 0.450605 1.15155 61.136
11891618 12.8513 16.5764 17.0098 14.7156 0.584927 0.563602 61.1531
11891641 13.2477 17.2918 16.5009 14.0398 0.647894 0.000305772 61.0801
11891648 13.8642 18.2157 16.0122 13.3163 0.673988 -0.672059 61.4085
11891668 13.8642 18.2157 16.0122 13.3163 0.673988 -0.672059 61.4085
11891671 14.4896 19.1299 15.326 12.4978 0.737265 -1.4149 61.4433
11891679 15.1415 19.8009 14.6294 11.7458 0.724062 -2.09578 61.3175
11891694 15.1415 19.8009 14.6294 11.7458 0.724062 -2.09578 61.3175
11891700 15.9518 20.6276 13.6312 11.0224 0.843894 -2.92142 61.233
11891709 15.9518 20.6276 13.6312 11.0224 0.843894 -2.92142 61.233
11891721 16.6301 21.4251 12.7578 10.3656 0.981891 -3.66101 61.1785
11891729 17.2292 22.1058 11.8844 9.7374 1.1195 -4.3588 60.9568
11891741 17.2292 22.1058 11.8844 9.7374 1.1195 -4.3588 60.9568
11891749 17.6876 22.5532 11.2606 9.19485 1.15326 -4.88961 60.6962
11891763 18.2157 23.0492 10.6887 8.85218 1.23219 -5.35904 60.8058
11891770 18.2157 23.0492 10.6887 8.85218 1.23219 -5.35904 60.8058
11891780 18.6243 23.409 10.2624 8.37626 1.19439 -5.78389 60.672
11891790 19.0229 23.6814 9.80489 8.10022 1.21838 -6.13744 60.6093
11891809 19.0229 23.6814 9.80489 8.10022 1.21838 -6.13744 60.6093
11891813 19.262 24.0606 9.42018 7.86226 1.33681 -6.44505 60.6051
11891822 19.262 24.0606 9.42018 7.86226 1.33681 -6.44505 60.6051
11891832 19.4912 24.2065 9.16024 7.68141 1.33652 -6.6542 60.5394
11891842 19.5909 24.5664 8.88991 7.472 1.46962 -6.88922 60.5191
11891862 19.6208 24.7317 8.69236 7.32923 1.55191 -7.03884 60.374
11891872 19.6108 24.7414 8.58838 7.24356 1.5726 -7.10825 60.1841
11891892 19.5909 24.8192 8.55719 7.21501 1.61434 -7.13779 60.1823
11891904 19.5909 24.8192 8.55719 7.21501 1.61434 -7.13779 60.1823
11891913 19.6706 24.9359 8.67156 7.18645 1.563 -7.13191 60.4645
11891926 19.9097 25.0818 8.70275 7.16741 1.49385 -7.17727 60.8617
11891933 19.9097 25.0818 8.70275 7.16741 1.49385 -7.17727 60.8617
11891943 20.2186 25.111 8.80673 7.1103 1.30453 -7.20348 61.2467
11891953 20.3183 25.1791 8.80673 7.06271 1.26972 -7.24201 61.3668
11891964 20.3183 25.1791 8.80673 7.06271 1.26972 -7.24201 61.3668
11891973 20.4877 25.1304 8.81713 6.99608 1.14832 -7.27762 61.4313
11891983 20.4877 25.1304 8.81713 6.99608 1.14832 -7.27762 61.4313
11891998 20.4777 24.9554 8.88991 7.02464 1.06458 -7.21753 61.3476
11892003 20.4777 24.8095 9.00428 6.94849 0.929123 -7.18512 61.24
11892014 20.4777 24.8095 9.00428 6.94849 0.929123 -7.18512 61.24
11892023 20.5076 24.6928 9.06667 6.93897 0.84039 -7.15487 61.206
11892033 20.4379 24.508 9.12905 6.95801 0.777897 -7.0926 61.0329
11892047 20.4379 24.508 9.12905 6.95801 0.777897 -7.0926 61.0329
11892053 20.4777 24.333 9.31621 6.94849 0.608882 -7.01084 61.0754
11892063 20.4777 24.333 9.31621 6.94849 0.608882 -7.01084 61.0754
11892073 20.2884 24.0606 9.43058 6.95801 0.534952 -6.90522 60.7376
11892083 20.2585 23.905 9.56575 7.0056 0.447181 -6.81458 60.7349
11892103 20.2386 23.6424 9.86728 7.08175 0.254127 -6.64113 60.83
11892115 20.1688 23.5257 10.1896 7.12934 0.121558 -6.48437 61.0135
11892133 20.1688 23.5257 10.1896 7.12934 0.121558 -6.48437 61.0135
11892136 20.109 23.2243 10.5535 7.25308 -0.0757292 -6.26269 61.1399
11892163 20.0094 23.02 10.8031 7.35778 -0.177576 -6.09621 61.1902
11892166 19.9396 22.7283 11.0838 7.53863 -0.308584 -5.88481 61.2903
11892176 19.9396 22.7283 11.0838 7.53863 -0.308584 -5.88481 61.2903
11892193 19.6108 22.3976 11.4893 7.6243 -0.440995 -5.61863 61.122
11892197 19.2919 21.9989 11.926 7.93841 -0.52352 -5.25541 61.1552
11892207 19.2919 21.9989 11.926 7.93841 -0.52352 -5.25541 61.1552
11892217 19.1624 21.6487 12.3835 8.25252 -0.669108 -4.92499 61.4471
11892228 18.7538 21.1625 12.8514 8.67133 -0.720789 -4.49069 61.439
11892239 18.7538 21.1625 12.8514 8.67133 -0.720789 -4.49069 61.439
11892246 18.2356 20.647 13.4544 9.24244 -0.731009 -3.94265 61.5795
11892261 18.2356 20.647 13.4544 9.24244 -0.731009 -3.94265 61.5795
11892266 17.6577 20.0149 14.1719 9.8897 -0.779544 -3.30716 61.7341
11892277 17.2093 19.4216 14.7541 10.6988 -0.74214 -2.7007 62.0838
11892297 16.7534 18.8284 15.4196 11.3746 -0.78956 -2.11322 62.3759
11892307 16.2865 18.1768 16.0746 12.2027 -0.789635 -1.47895 62.7406
11892318 16.2865 18.1768 16.0746 12.2027 -0.789635 -1.47895 62.7406
11892330 15.8109 17.5933 16.5425 12.7738 -0.791743 -0.97763 62.7204
11892338 15.8109 17.5933 16.5425 12.7738 -0.791743 -0.97763 62.7204
11892351 15.3088 17.0778 16.9168 13.2212 -0.77036 -0.539458 62.5246
11892359 14.8155 16.5303 17.2559 13.6209 -0.771505 -0.113062 62.2228
11892368 14.8155 16.5303 17.2559 13.6209 -0.771505 -0.113062 62.2228
11892378 14.4104 15.9041 17.6005 14.0207 -0.842001 0.316467 61.9357
11892388 13.9259 15.3424 18.0926 14.6489 -0.817312 0.840182 62.0099
11892408 13.3974 14.6793 18.762 15.3723 -0.847027 1.46058 62.2111
11892434 12.8425 13.915 19.392 16.0386 -0.91694 2.09201 62.1881
11892443 12.543 13.3348 19.9826 16.6859 -1.00124 2.58786 62.5463
11892452 12.543 13.3348 19.9826 16.6859 -1.00124 2.58786 62.5463
11892465 12.0674 12.5981 20.5437 17.3605 -1.05985 3.17377 62.5696
11892469 11.5477 11.9626 21.1737 18.2178 -1.00991 3.78714 62.9018
11892479 11.5477 11.9626 21.1737 18.2178 -1.00991 3.78714 62.9018
11892490 11.1249 11.3456 21.8529 18.851 -1.10059 4.32931 63.1744
11892499 11.1249 11.3456 21.8529 18.851 -1.10059 4.32931 63.1744
11892511 10.7813 10.7562 22.3845 19.3284 -1.21787 4.78462 63.2504
11892519 10.3938 10.3879 22.6995 19.7668 -1.16155 5.14276 63.2479
11892539 10.0415 9.99187 22.9653 19.9908 -1.2002 5.45872 62.9894
11892555 9.69793 9.53142 23.2999 20.3708 -1.23039 5.82862 62.9001
11892560 9.69793 9.53142 23.2999 20.3708 -1.23039 5.82862 62.9001
11892570 9.30155 9.11701 23.6937 20.8774 -1.19102 6.22781 62.9896
11892580 9.30155 9.11701 23.6937 20.8774 -1.19102 6.22781 62.9896
11892590 8.97565 8.67497 24.0284 21.4327 -1.14732 6.60981 63.1117
11892600 8.63212 8.43554 24.3335 21.8613 -1.05465 6.90627 63.2625
11892610 8.63212 8.43554 24.3335 21.8613 -1.05465 6.90627 63.2625
11892623 8.21813 8.08559 24.5304 22.251 -0.955828 7.2468 63.0851
11892630 7.88342 7.74485 24.7273 22.6017 -0.899069 7.55291 62.9573
11892650 7.61036 7.50542 24.8257 23.0401 -0.750434 7.79991 62.9816
11892677 7.3285 7.2844 24.8749 23.3908 -0.607596 8.02805 62.8787
11892680 7.15233 7.06338 25.062 23.6539 -0.594713 8.22325 62.9315
11892690 7.15233 7.06338 25.062 23.6539 -0.594713 8.22325 62.9315
11892701 6.87047 6.94366 25.2293 24.0046 -0.456603 8.42686 63.048
11892710 6.60622 6.70423 25.2588 24.3261 -0.3318 8.65115 62.8953
11892730 6.43005 6.66739 25.3966 24.5696 -0.23376 8.76943 63.0637
11892752 6.2715 6.6766 25.5049 24.8327 -0.105537 8.86207 63.2857
11892762 6.21865 6.61213 25.5837 25.047 -0.0564113 8.93453 63.4614
11892772 6.21865 6.61213 25.5837 25.047 -0.0564113 8.93453 63.4614
11892783 6.02487 6.474 25.6723 25.2808 0.0227213 9.09055 63.4519
11892792 5.97202 6.45558 25.751 25.4562 0.0741363 9.14113 63.6348
11892811 5.97202 6.45558 25.751 25.4562 0.0741363 9.14113 63.6348
11892813 5.83109 6.32665 25.7904 25.6315 0.132391 9.26338 63.5796
11892822 5.83109 6.32665 25.7904 25.6315 0.132391 9.26338 63.5796
11892840 5.71658 6.23456 25.9676 25.8556 0.159153 9.37808 63.7743
11892842 5.55803 6.07801 26.0857 26.0991 0.208953 9.5303 63.8209
11892867 5.34663 5.93066 26.2334 26.3232 0.26392 9.70001 63.8339
11892872 5.34663 5.93066 26.2334 26.3232 0.26392 9.70001 63.8339
11892881 5.17047 5.77411 26.4204 26.4791 0.259358 9.8572 63.844
11892893 5.02953 5.71885 26.5385 26.5765 0.284716 9.95092 63.8634
11892902 5.02953 5.71885 26.5385 26.5765 0.284716 9.95092 63.8634
11892920 5.03834 5.72806 26.5188 26.6155 0.307652 9.94541 63.9007
11892922 5.03834 5.82015 26.5188 26.7032 0.376928 9.91647 64.0805
11892932 5.03834 5.82015 26.5188 26.7032 0.376928 9.91647 64.0805
11892947 5.07358 5.88462 26.5385 26.6934 0.376204 9.87856 64.1901
11892962 5.14404 5.89382 26.4991 26.6739 0.359976 9.843 64.2109
11892985 5.18808 5.87541 26.6173 26.5862 0.255311 9.83554 64.267
11892988 5.18808 5.87541 26.6173 26.5862 0.255311 9.83554 64.267
11892993 5.27617 5.82936 26.6173 26.3427 0.108731 9.7996 64.0655
11893003 5.35544 5.88462 26.6369 26.1771 0.0270516 9.73567 64.0541
11893013 5.35544 5.88462 26.6369 26.1771 0.0270516 9.73567 64.0541
11893023 5.36425 5.95829 26.6173 26.1089 0.0334352 9.6966 64.0487
11893045 5.46114 6.00433 26.4794 26.0309 0.0370055 9.62353 63.9759
11893055 5.51399 6.08722 26.5483 25.8361 -0.0543162 9.56072 63.9857
11893069 5.51399 6.08722 26.5483 25.8361 -0.0543162 9.56072 63.9857
11893073 5.56684 6.08722 26.509 25.6802 -0.120753 9.52375 63.8433
11893094 5.57565 6.17931 26.5287 25.5341 -0.153136 9.47412 63.8177
11893096 5.57565 6.17931 26.5287 25.5341 -0.153136 9.47412 63.8177
11893104 5.69896 6.20693 26.5877 25.4367 -0.251476 9.41302 63.9303
11893120 5.69896 6.20693 26.5877 25.4367 -0.251476 9.41302 63.9303
11893124 5.68135 6.20693 26.5582 25.1639 -0.341417 9.39324 63.6104
11893134 5.70777 6.29903 26.5582 24.9885 -0.384873 9.33227 63.5535
11893144 5.70777 6.29903 26.5582 24.9885 -0.384873 9.33227 63.5535
11893154 5.88394 6.40032 26.5287 24.7937 -0.478952 9.20614 63.6066
11893170 5.9544 6.50163 26.5976 24.667 -0.54272 9.13564 63.7206
11893174 5.9544 6.50163 26.5976 24.667 -0.54272 9.13564 63.7206
11893193 6.03368 6.52925 26.5385 24.5794 -0.574569 9.08161 63.6808
11893195 6.03368 6.52925 26.5385 24.5794 -0.574569 9.08161 63.6808
11893204 6.03368 6.5753 26.4696 24.5891 -0.525725 9.05869 63.6677
11893220 6.13938 6.73185 26.3613 24.5014 -0.497152 8.94143 63.734
11893234 6.24508 6.80553 26.2137 24.3261 -0.521754 8.84312 63.5903
11893245 6.31554 6.97129 25.938 24.0825 -0.47379 8.70366 63.3074
11893254 6.31554 6.97129 25.938 24.0825 -0.47379 8.70366 63.3074
11893271 6.50052 7.15547 25.6723 23.8779 -0.450657 8.51836 63.2062
11893274 6.50052 7.15547 25.6723 23.8779 -0.450657 8.51836 63.2062
11893284 6.56218 7.24756 25.4951 23.761 -0.415701 8.4308 63.0658
11893296 6.6943 7.39491 25.3277 23.459 -0.464447 8.27762 62.876
11893304 6.6943 7.39491 25.3277 23.459 -0.464447 8.27762 62.876
11893321 6.87047 7.67118 25.0816 23.0791 -0.479187 8.04254 62.7024
11893324 7.10829 7.94745 24.6879 22.8355 -0.404769 7.78239 62.5792
11893344 7.42539 8.14085 24.3335 22.6212 -0.398612 7.53071 62.521
11893370 7.6456 8.28819 23.8709 22.4751 -0.302349 7.32473 62.2797
11893375 7.92746 8.61051 23.5559 22.2607 -0.245406 7.04326 62.3546
11893391 7.92746 8.61051 23.5559 22.2607 -0.245406 7.04326 62.3546
11893395 8.17409 9.0065 23.2606 21.8516 -0.231403 6.72587 62.2927
11893405 8.52642 9.46696 22.8767 21.4716 -0.186272 6.34124 62.3417
11893425 8.9228 10.0287 22.2368 20.8481 -0.113957 5.83531 62.0365
11893435 8.9228 10.0287 22.2368 20.8481 -0.113957 5.83531 62.0365
11893448 9.36321 10.6089 21.6167 20.2539 -0.0473529 5.31149 61.8426
11893455 9.89171 11.2075 20.9276 19.5524 -0.024122 4.72096 61.5792
11893472 9.89171 11.2075 20.9276 19.5524 -0.024122 4.72096 61.5792
11893475 10.4731 11.935 20.1303 18.7341 0.0268281 4.02865 61.2724
11893485 11.1953 12.6533 19.4117 18.0424 0.0361621 3.32908 61.3027
11893505 11.6886 13.4085 18.9097 17.3605 0.0695169 2.73104 61.3672
11893520 11.6886 13.4085 18.9097 17.3605 0.0695169 2.73104 61.3672
11893527 12.0585 13.9057 18.5061 16.9143 0.104037 2.3107 61.3847
11893537 12.5694 14.4951 18.073 16.4479 0.122052 1.8161 61.5854
11893547 12.5694 14.4951 18.073 16.4479 0.122052 1.8161 61.5854
11893557 13.0715 15.0753 17.7284 15.8959 0.0692964 1.33011 61.7711
11893569 13.556 15.6278 17.1673 15.2772 0.0737041 0.793635 61.6283
11893577 13.556 15.6278 17.1673 15.2772 0.0737041 0.793635 61.6283
11893592 14.1197 16.2909 16.3969 14.6013 0.152913 0.143554 61.4089
11893597 14.1197 16.2909 16.3969 14.6013 0.152913 0.143554 61.4089
11893607 14.6394 16.9355 15.5028 13.8018 0.244415 -0.559393 60.8795
11893616 15.1591 17.5738 14.8061 13.1165 0.298852 -1.18958 60.6554
11893627 15.1591 17.5738 14.8061 13.1165 0.298852 -1.18958 60.6554
11893637 15.6083 18.1184 14.2031 12.5834 0.367892 -1.72034 60.5132
11893647 15.6083 18.1184 14.2031 12.5834 0.367892 -1.72034 60.5132
11893661 16.0223 18.77 13.5896 12.1265 0.530785 -2.24997 60.5084
11893666 16.357 19.3146 13.0801 11.7077 0.655505 -2.70027 60.4595
11893678 16.357 19.3146 13.0801 11.7077 0.655505 -2.70027 60.4595
11893687 16.6389 19.7912 12.6538 11.3365 0.759268 -3.08829 60.4204
11893696 16.9295 20.3455 12.3939 11.07 0.861108 -3.41079 60.7389
11893721 17.3089 20.9582 12.0092 10.8035 1.00018 -3.79532 61.0798
11893729 17.6178 21.357 11.5101 10.5465 1.13693 -4.15808 61.0314
11893738 17.6178 21.357 11.5101 10.5465 1.13693 -4.15808 61.0314
11893751 17.7872 21.7168 11.2086 10.2514 1.21893 -4.43969 60.964
11893772 17.8769 21.9891 10.8966 10.023 1.33195 -4.67539 60.7856
11893779 18.0662 22.2614 10.7511 9.86114 1.35596 -4.85285 60.9399
11893789 18.0662 22.2614 10.7511 9.86114 1.35596 -4.85285 60.9399
11893799 18.2855 22.5338 10.5535 9.60414 1.35252 -5.08264 60.9769
11893809 18.4349 22.7574 10.3872 9.35666 1.35059 -5.27976 60.9362
11893829 18.5844 23.0103 10.3352 9.271 1.37323 -5.38927 61.2009
11893840 18.5844 23.0103 10.3352 9.271 1.37323 -5.38927 61.2009
11893849 18.6841 23.1367 10.1584 9.07111 1.37811 -5.55065 61.0503
11893872 18.7339 23.1951 10.0752 8.89026 1.34504 -5.65654 60.8945
11893879 18.8335 23.2243 9.99205 8.79507 1.31225 -5.73688 60.8449
11893902 18.7837 23.1659 9.92966 8.64278 1.27859 -5.79388 60.522
11893904 18.7837 23.1659 9.92966 8.64278 1.27859 -5.79388 60.522
11893910 18.993 23.2923 9.98165 8.68085 1.22997 -5.81386 60.9478
11893930 19.1026 23.3799 9.96086 8.68085 1.2259 -5.85057 61.1242
11893940 19.0926 23.4382 9.92966 8.55711 1.21811 -5.91077 61.0176
11893950 19.0926 23.4382 9.92966 8.55711 1.21811 -5.91077 61.0176
11893960 19.0826 23.3604 9.94006 8.53807 1.18012 -5.90064 60.9212
11893974 19.0129 23.1854 9.95046 8.68085 1.19303 -5.81139 60.8296
11893990 18.9232 23.0881 10.096 8.82363 1.18679 -5.68471 60.931
11894010 18.8933 23.0006 10.1688 9.014 1.2085 -5.57768 61.0767
11894024 18.8335 23.02 10.3248 9.15677 1.23033 -5.47126 61.3351
11894031 18.8335 23.02 10.3248 9.15677 1.23033 -5.47126 61.3351
11894048 18.6542 22.9033 10.4599 9.36618 1.28512 -5.31038 61.3836
11894052 18.3851 22.631 10.6263 9.51848 1.28271 -5.1188 61.1609
11894062 18.3851 22.631 10.6263 9.51848 1.28271 -5.1188 61.1609
11894072 18.1559 22.349 10.907 9.74692 1.23978 -4.8687 61.1588
11894084 18.1559 22.349 10.907 9.74692 1.23978 -4.8687 61.1588
11894097 17.8968 21.9891 11.2398 10.061 1.19044 -4.55618 61.1867
11894102 17.7474 21.7168 11.5517 10.4227 1.15583 -4.27006 61.4386
11894112 17.7474 21.7168 11.5517 10.4227 1.15583 -4.27006 61.4386
11894122 17.4683 21.4056 11.9676 10.6892 1.08032 -3.95342 61.5308
11894132 17.1395 20.9777 12.3835 11.1366 1.05104 -3.55234 61.6373
11894146 17.1395 20.9777 12.3835 11.1366 1.05104 -3.55234 61.6373
11894152 16.815 20.4233 12.9138 11.6887 0.963458 -3.06494 61.8408
11894162 16.815 20.4233 12.9138 11.6887 0.963458 -3.06494 61.8408
11894172 16.4539 19.9079 13.3297 12.2027 0.939927 -2.6245 61.8941
11894184 16.1368 19.4605 13.7456 12.7928 0.95396 -2.18689 62.1357
11894205 15.714 18.9354 14.2135 13.2212 0.897601 -1.74314 62.084
11894220 15.2207 18.4394 14.7021 13.6876 0.888023 -1.27407 62.0498
11894234 14.6218 18.0017 15.2012 14.1635 0.944626 -0.78856 61.9882
11894244 14.6218 18.0017 15.2012 14.1635 0.944626 -0.78856 61.9882
11894253 14.1285 17.4182 15.5859 14.706 0.974232 -0.30435 61.8387
11894268 13.7585 16.9724 16.0122 15.2391 0.984421 0.125935 61.9822
11894273 13.7585 16.9724 16.0122 15.2391 0.984421 0.125935 61.9822
11894285 13.4679 16.5948 16.3242 15.7531 1.02826 0.486299 62.1399
11894293 13.1155 16.162 16.7401 16.1148 0.97419 0.863637 62.1324
11894304 13.1155 16.162 16.7401 16.1148 0.97419 0.863637 62.1324
11894317 12.8425 15.766 17.128 16.5241 0.931409 1.21512 62.2605
11894324 12.8425 15.766 17.128 16.5241 0.931409 1.21512 62.2605
11894334 12.3933 15.3792 17.4233 16.8667 0.97861 1.57524 62.0625
11894345 11.9528 14.9556 17.8072 17.3117 1.01056 1.98554 62.0274
11894354 11.9528 14.9556 17.8072 17.3117 1.01056 1.98554 62.0274
11894370 11.5389 14.3846 18.2797 17.9937 1.0289 2.49608 62.1968
11894375 11.0896 13.7768 18.8211 18.5782 0.981405 3.0192 62.2658
11894390 11.0896 13.7768 18.8211 18.5782 0.981405 3.0192 62.2658
11894395 10.7902 13.1782 19.3034 19.3381 0.967401 3.51537 62.6099
11894405 10.7902 13.1782 19.3034 19.3381 0.967401 3.51537 62.6099
11894415 10.3762 12.4783 19.7858 20.059 0.947157 4.06471 62.6993
11894425 9.90933 11.8429 20.5437 20.6533 0.811431 4.63344 62.9492
11894438 9.90933 11.8429 20.5437 20.6533 0.811431 4.63344 62.9492
11894445 9.40725 11.2443 21.1737 21.3547 0.798541 5.19394 63.18
11894455 8.93161 10.7286 21.7643 21.8613 0.748184 5.68028 63.2859
11894465 8.93161 10.7286 21.7643 21.8613 0.748184 5.68028 63.2859
11894475 8.47358 10.2313 22.3451 22.3484 0.694439 6.14889 63.3984
11894488 8.47358 10.2313 22.3451 22.3484 0.694439 6.14889 63.3984
11894497 8.04197 9.75244 22.8176 22.6797 0.621143 6.56552 63.2917
11894521 7.67202 9.31961 23.1621 22.9427 0.56586 6.92111 63.0965
11894524 7.67202 9.31961 23.1621 22.9427 0.56586 6.92111 63.0965
11894527 7.48705 8.9052 23.4771 23.1181 0.420353 7.19261 62.9874
11894535 7.21399 8.52763 23.8315 23.2934 0.308412 7.48808 62.8665
11894556 6.98497 8.21452 24.1367 23.4103 0.200492 7.7329 62.7465
11894565 6.98497 8.21452 24.1367 23.4103 0.200492 7.7329 62.7465
11894578 6.71192 7.88299 24.432 23.498 0.0948042 7.99723 62.5249
11894587 6.54456 7.76327 24.7076 23.6539 0.0658214 8.15079 62.6693
11894603 6.54456 7.76327 24.7076 23.6539 0.0658214 8.15079 62.6693
11894607 6.36839 7.55146 24.9635 23.839 0.0233233 8.34216 62.7223
11894617 6.2715 7.40412 25.1998 23.9851 -0.0326335 8.47335 62.8605
11894629 6.2715 7.40412 25.1998 23.9851 -0.0326335 8.47335 62.8605
11894637 6.33316 7.39491 25.249 24.0728 -0.045386 8.46799 63.0498
11894657 6.36839 7.30282 25.1702 24.1994 -0.0144318 8.49412 63.0409
11894667 6.30674 7.30282 25.2687 24.3066 0.0134498 8.53822 63.1848
11894682 6.30674 7.30282 25.2687 24.3066 0.0134498 8.53822 63.1848
11894688 6.29793 7.21073 25.3573 24.4332 -0.00443608 8.59771 63.2992
11894706 6.20104 7.10022 25.5837 24.6281 -0.0222042 8.71723 63.513
11894708 6.20104 7.10022 25.5837 24.6281 -0.0222042 8.71723 63.513
11894718 6.08653 6.94366 25.7904 24.7158 -0.0855789 8.84753 63.5363
11894738 6.10415 6.72264 25.9873 24.8327 -0.210576 8.95407 63.6467
11894748 6.09534 6.66739 26.0759 24.9398 -0.221069 8.99669 63.7784
11894758 6.09534 6.66739 26.0759 24.9398 -0.221069 8.99669 63.7784
11894768 6.08653 6.63055 26.0955 24.9983 -0.216749 9.0212 63.8109
11894783 6.06891 6.53846 26.1054 24.9398 -0.273363 9.05804 63.6526
11894788 6.06891 6.53846 26.1054 24.9398 -0.273363 9.05804 63.6526
11894807 6.01606 6.52925 26.2826 25.0178 -0.294308 9.10517 63.8456
11894809 6.01606 6.52925 26.2826 25.0178 -0.294308 9.10517 63.8456
11894818 5.88394 6.3727 26.5779 25.2126 -0.342137 9.25893 64.0471
11894832 5.80466 6.28982 26.8732 25.4756 -0.353952 9.36971 64.4433
11894838 5.80466 6.28982 26.8732 25.4756 -0.353952 9.36971 64.4433
11894848 5.65492 6.1701 27.139 25.5828 -0.40319 9.50398 64.5468
11894858 5.48756 5.95829 27.4244 25.6997 -0.485517 9.68212 64.57
11894884 5.32021 5.84778 27.6705 25.6997 -0.559063 9.80867 64.5382
11894888 5.32021 5.84778 27.6705 25.6997 -0.559063 9.80867 64.5382
11894899 5.18808 5.72806 27.8182 25.69 -0.616318 9.91676 64.4243
11894911 5.17927 5.77411 27.828 25.4562 -0.691585 9.88459 64.2376
11894919 5.17927 5.77411 27.828 25.4562 -0.691585 9.88459 64.2376
11894933 5.2057 5.70043 27.8477 25.31 -0.797231 9.89285 64.0639
11894939 5.15285 5.58992 27.9363 25.2905 -0.86318 9.96193 63.9696
11894959 5.18808 5.53467 28.0347 25.3782 -0.900406 9.98435 64.1357
11894984 5.14404 5.48862 28.1332 25.5341 -0.876555 10.0392 64.2999
11894990 5.11762 5.44258 28.1233 25.6023 -0.85403 10.0719 64.2858
11895000 5.11762 5.44258 28.1233 25.6023 -0.85403 10.0719 64.2858
11895018 5.08238 5.42416 28.1036 25.5536 -0.860411 10.0876 64.1638
11895023 5.09119 5.48862 28.1135 25.5731 -0.833637 10.0613 64.2664
11895030 5.09119 5.48862 28.1135 25.5731 -0.833637 10.0613 64.2664
11895042 5.08238 5.48862 27.9954 25.7582 -0.711608 10.0698 64.3245
11895051 4.9943 5.48862 27.8871 25.8264 -0.610004 10.1012 64.1964
11895062 4.9943 5.48862 27.8871 25.8264 -0.610004 10.1012 64.1964
11895074 4.98549 5.47021 27.8379 25.7874 -0.610852 10.1051 64.081
11895082 4.98549 5.47021 27.8379 25.7874 -0.610852 10.1051 64.081
11895092 5.00311 5.42416 27.5918 25.7679 -0.549807 10.0959 63.787
11895106 5.05596 5.44258 27.3752 25.6607 -0.522494 10.0428 63.5345
11895128 5.10881 5.51625 27.2374 25.4854 -0.530633 9.96823 63.3479
11895133 5.19689 5.59913 27.0307 25.4659 -0.459194 9.8828 63.2926
11895156 5.37306 5.68201 26.8437 25.5341 -0.394356 9.7716 63.4328
11895173 5.34663 5.77411 26.6173 25.7095 -0.189261 9.74176 63.4474
11895187 5.33782 5.82936 26.4302 25.9725 0.0132918 9.72997 63.5699
11895194 5.33782 5.82936 26.4302 25.9725 0.0132918 9.72997 63.5699
11895204 5.32902 5.87541 26.2235 26.1381 0.181305 9.71207 63.566
11895218 5.4171 6.01354 25.9479 26.3232 0.381371 9.6168 63.7017
11895225 5.4171 6.01354 25.9479 26.3232 0.381371 9.6168 63.7017
11895234 5.47876 6.14247 25.5935 26.2355 0.514472 9.50535 63.4503
11895254 5.50518 6.25298 25.1998 26.2355 0.705597 9.41802 63.1935
11895269 5.58446 6.50163 24.8356 26.1089 0.868827 9.24751 63.0305
11895275 5.58446 6.50163 24.8356 26.1089 0.868827 9.24751 63.0305
11895285 5.61088 6.75948 24.5107 26.0407 1.06425 9.10203 62.9218
11895295 5.79586 7.01733 24.0481 26.0017 1.26272 8.88518 62.863
11895320 6.08653 7.33965 23.6248 25.7874 1.35894 8.59013 62.8384
11895335 6.26269 7.61593 23.1917 25.5633 1.48678 8.35247 62.6336
11895345 6.35959 7.8922 22.8078 25.2905 1.61002 8.14269 62.3501
11895355 6.35959 7.8922 22.8078 25.2905 1.61002 8.14269 62.3501
11895374 6.4829 8.23294 22.5715 25.0275 1.68741 7.91541 62.3149
11895376 6.60622 8.61051 22.2959 24.8229 1.81731 7.6767 62.3355
11895385 6.60622 8.61051 22.2959 24.8229 1.81731 7.6767 62.3355
11895401 6.77358 8.8039 22.1975 24.6281 1.78716 7.51119 62.403
11895405 6.77358 8.8039 22.1975 24.6281 1.78716 7.51119 62.403
11895415 6.87927 8.96045 21.8923 24.3748 1.83702 7.3488 62.1068
11895429 7.18756 9.17226 21.5871 24.102 1.81291 7.0902 62.049
11895435 7.18756 9.17226 21.5871 24.102 1.81291 7.0902 62.049
11895445 7.60155 9.62351 21.1048 23.7513 1.87998 6.67619 62.0812
11895457 8.02435 10.13 20.7406 23.2934 1.87273 6.24224 62.1884
11895465 8.02435 10.13 20.7406 23.2934 1.87273 6.24224 62.1884
11895481 8.49119 10.747 20.3468 22.7284 1.86049 5.73801 62.3134
11895485 8.49119 10.747 20.3468 22.7284 1.86049 5.73801 62.3134
11895495 8.97565 11.4285 19.9236 22.0269 1.82673 5.18318 62.3546
11895507 9.55699 12.11 19.3034 21.2768 1.81789 4.55762 62.2472
11895515 9.55699 12.11 19.3034 21.2768 1.81789 4.55762 62.2472
11895532 10.015 12.6809 18.8605 20.5851 1.76635 4.04309 62.1415
11895538 10.5083 13.1782 18.2994 19.8642 1.7117 3.511 61.8501
11895545 10.5083 13.1782 18.2994 19.8642 1.7117 3.511 61.8501
11895557 10.9663 13.8413 17.817 19.2017 1.72243 2.96261 61.8263
11895566 10.9663 13.8413 17.817 19.2017 1.72243 2.96261 61.8263
11895583 11.4332 14.4215 17.3248 18.2957 1.61006 2.3829 61.4752
11895586 11.9793 15.1398 16.7505 17.565 1.6176 1.7571 61.4345
11895597 11.9793 15.1398 16.7505 17.565 1.6176 1.7571 61.4345
11895609 12.543 15.7291 16.1994 16.743 1.52323 1.14439 61.2145
11895616 13.0098 16.2817 15.7523 15.9149 1.40851 0.584573 60.9587
11895636 13.0098 16.2817 15.7523 15.9149 1.40851 0.584573 60.9587
11895642 13.5295 16.8158 15.274 15.3723 1.38733 0.0740254 60.9917
11895650 13.5295 16.8158 15.274 15.3723 1.38733 0.0740254 60.9917
11895665 13.9876 17.3404 14.8477 14.7822 1.34819 -0.417843 60.9579
11895668 14.3751 17.9336 14.4526 14.173 1.34527 -0.906669 60.9344
11895678 14.3751 17.9336 14.4526 14.173 1.34527 -0.906669 60.9344
11895693 14.7363 18.3129 14.0991 13.8113 1.3488 -1.26448 60.9596
11895698 14.9212 18.7117 13.7456 13.4972 1.45463 -1.57456 60.8757
11895708 14.9212 18.7117 13.7456 13.4972 1.45463 -1.57456 60.8757
11895720 15.2031 19.091 13.4128 13.3544 1.56786 -1.84899 61.0613
11895728 15.2031 19.091 13.4128 13.3544 1.56786 -1.84899 61.0613
11895747 15.3617 19.4314 13.0593 12.9642 1.63382 -2.16294 60.8165
11895749 15.5642 19.7523 12.893 12.631 1.61327 -2.41432 60.8405
11895758 15.5642 19.7523 12.893 12.631 1.61327 -2.41432 60.8405
11895772 15.714 20.0051 12.737 12.2884 1.58142 -2.64068 60.7445
11895778 15.8021 20.0051 12.6434 12.2884 1.58383 -2.68578 60.739
11895788 15.8021 20.2677 12.6434 12.098 1.61164 -2.79432 60.8112
11895799 15.9166 20.3261 12.6954 11.9457 1.50277 -2.85829 60.8838
11895808 15.9166 20.3261 12.6954 11.9457 1.50277 -2.85829 60.8838
11895822 15.8813 20.3261 12.7058 11.841 1.47311 -2.87897 60.7542
11895828 15.8902 20.2775 12.7786 12.0409 1.49605 -2.79112 60.9871
11895838 15.8902 20.2775 12.7786 12.0409 1.49605 -2.79112 60.9871
11895849 15.8902 20.2969 12.9034 12.2217 1.51891 -2.70631 61.3122
11895858 15.8902 20.2969 12.9034 12.2217 1.51891 -2.70631 61.3122
11895872 15.8637 20.2191 13.0593 12.3169 1.46966 -2.61311 61.4591
11895878 15.899 20.258 13.2153 12.3931 1.43155 -2.56178 61.7653
11895888 15.899 20.258 13.2153 12.3931 1.43155 -2.56178 61.7653
11895898 15.9254 20.4525 13.2465 12.2979 1.44476 -2.62431 61.9223
11895908 16.0047 20.4233 13.0489 12.1741 1.43707 -2.72622 61.6511
11895924 16.0047 20.4233 13.0489 12.1741 1.43707 -2.72622 61.6511
11895928 16.0751 20.5692 12.9034 12.0218 1.46686 -2.8551 61.5695
11895938 16.0751 20.5692 12.9034 12.0218 1.46686 -2.8551 61.5695
11895951 16.0135 20.5109 12.9242 11.9267 1.42561 -2.85299 61.3752
11895958 16.1104 20.5109 12.945 11.9076 1.36772 -2.87163 61.4738
11895974 16.1104 20.5109 12.945 11.9076 1.36772 -2.87163 61.4738
11895979 16.0311 20.4233 12.9242 11.9457 1.39169 -2.83361 61.3243
11895989 15.9518 20.3844 13.0489 11.9267 1.3498 -2.7794 61.3118
11896009 15.9342 20.3164 13.1529 12.0123 1.31952 -2.70745 61.4158
11896030 15.7933 20.1997 13.2881 12.0789 1.30267 -2.5976 61.3599
11896040 15.7933 20.1024 13.4232 12.2122 1.25875 -2.50123 61.5311
11896054 15.7933 20.1024 13.4232 12.2122 1.25875 -2.50123 61.5311
11896060 15.7052 19.9565 13.5064 12.3169 1.24494 -2.40019 61.485
11896070 15.6611 19.6745 13.6728 12.4597 1.1389 -2.24584 61.4681
11896080 15.6611 19.6745 13.6728 12.4597 1.1389 -2.24584 61.4681
11896090 15.7316 19.4994 13.7976 12.6215 1.051 -2.14403 61.6501
11896105 15.7316 19.4994 13.7976 12.6215 1.051 -2.14403 61.6501
11896110 15.6435 19.1882 13.9639 12.7262 0.937465 -1.98506 61.5219
11896121 15.7404 18.9062 13.9951 12.9071 0.84393 -1.88739 61.5488
11896141 15.8021 18.7797 13.9847 12.9927 0.806412 -1.85294 61.5593
11896157 15.7933 18.5658 14.0575 13.0974 0.736606 -1.75671 61.514
11896161 15.7933 18.5658 14.0575 13.0974 0.736606 -1.75671 61.514
11896172 15.6523 18.2449 14.1719 13.3068 0.703651 -1.56865 61.3759
11896190 15.4497 17.7975 14.4006 13.6209 0.639832 -1.27936 61.2688
11896208 15.2031 17.4571 14.6813 14.0873 0.675574 -0.950248 61.4289
11896212 15.2031 17.4571 14.6813 14.0873 0.675574 -0.950248 61.4289
11896222 15.0622 17.0973 14.8997 14.4395 0.640222 -0.687871 61.4987
11896234 14.8596 16.779 15.0557 14.6299 0.608912 -0.47771 61.3241
11896242 14.8596 16.779 15.0557 14.6299 0.608912 -0.47771 61.3241
11896252 14.6394 16.6132 15.1804 14.8774 0.681281 -0.292313 61.3104
11896262 14.6394 16.6132 15.1804 14.8774 0.681281 -0.292313 61.3104
11896271 14.2078 16.1988 15.5028 15.2105 0.694871 0.0752699 61.1199
11896288 13.8731 15.8489 16.0226 15.6293 0.644618 0.471709 61.3739
11896297 13.8731 15.8489 16.0226 15.6293 0.644618 0.471709 61.3739
11896302 13.7233 15.5358 16.4385 15.9815 0.549388 0.768734 61.6791
11896315 13.5031 15.2687 16.8232 16.21 0.466105 1.03424 61.805
11896322 13.5031 15.2687 16.8232 16.21 0.466105 1.03424 61.805
11896332 13.4062 15.0753 17 16.4765 0.462234 1.20928 61.958
11896342 13.4062 15.0753 17 16.4765 0.462234 1.20928 61.958
11896352 13.1772 14.8359 17.2953 16.6573 0.411797 1.43779 61.9657
11896368 12.9746 14.5596 17.6694 16.9524 0.349128 1.71043 62.156
11896372 12.9746 14.5596 17.6694 16.9524 0.349128 1.71043 62.156
11896382 12.6399 14.2096 18.0336 17.3994 0.375542 2.06722 62.2826
11896394 12.2523 13.8229 18.5651 17.945 0.379631 2.50097 62.5853
11896403 12.2523 13.8229 18.5651 17.945 0.379631 2.50097 62.5853
11896418 11.9264 13.2703 19.0967 18.6367 0.351131 2.98823 62.9301
11896423 11.9264 13.2703 19.0967 18.6367 0.351131 2.98823 62.9301
11896433 11.4508 12.8006 19.5495 19.1238 0.367165 3.43789 62.9247
11896444 11.0368 12.2021 20.0417 19.7668 0.353044 3.94219 63.0473
11896453 11.0368 12.2021 20.0417 19.7668 0.353044 3.94219 63.0473
11896468 10.4378 11.6403 20.6126 20.2734 0.342736 4.48061 62.9641
11896473 9.90052 10.9128 21.2426 20.7799 0.218663 5.06301 62.8359
11896483 9.90052 10.9128 21.2426 20.7799 0.218663 5.06301 62.8359
11896493 9.31036 10.3418 21.8726 21.3645 0.208029 5.62534 62.8893
11896503 9.31036 10.3418 21.8726 21.3645 0.208029 5.62534 62.8893
11896517 8.74663 9.74323 22.4337 21.7834 0.138053 6.15416 62.7069
11896523 8.57047 9.31961 22.857 22.0562 -0.0205696 6.45422 62.8032
11896533 8.57047 9.31961 22.857 22.0562 -0.0205696 6.45422 62.8032
11896543 8.47358 9.0065 22.9357 22.0951 -0.123048 6.61103 62.5109
11896567 8.32383 8.83153 23.1523 22.3289 -0.125986 6.78338 62.6366
11896573 8.24456 8.61051 23.4378 22.4653 -0.241593 6.94285 62.7582
11896583 8.24456 8.61051 23.4378 22.4653 -0.241593 6.94285 62.7582
11896593 8.02435 8.38949 23.6838 22.8063 -0.203645 7.17196 62.904
11896604 7.88342 8.17768 23.9004 23.0986 -0.201228 7.35914 63.0601
11896615 7.88342 8.17768 23.9004 23.0986 -0.201228 7.35914 63.0601
11896623 7.7601 7.95666 24.0087 23.3519 -0.182422 7.525 63.0773
11896638 7.7601 7.95666 24.0087 23.3519 -0.182422 7.525 63.0773
11896643 7.6456 7.85536 24.1071 23.537 -0.142683 7.63555 63.145
11896653 7.57513 7.86457 24.0579 23.7026 -0.0260606 7.67105 63.2002
11896673 7.58394 7.81853 23.8906 23.8585 0.0801563 7.68309 63.1515
11896683 7.51347 7.78169 23.9004 23.9948 0.143477 7.73854 63.1904
11896694 7.51347 7.78169 23.9004 23.9948 0.143477 7.73854 63.1904
11896707 7.49585 7.71723 24.0481 24.2189 0.154465 7.81046 63.4801
11896714 7.49585 7.71723 24.0481 24.2189 0.154465 7.81046 63.4801
11896730 7.36373 7.72644 24.0579 24.5696 0.343087 7.89515 63.7177
11896734 7.28446 7.70802 24.0776 24.784 0.442389 7.95621 63.854
11896744 7.28446 7.70802 24.0776 24.784 0.442389 7.95621 63.854
11896754 7.28446 7.64355 24.0481 24.9203 0.481787 7.99115 63.8964
11896764 7.16114 7.59751 24.1071 25.0373 0.534597 8.07138 63.903
11896785 7.1171 7.62514 24.1957 25.1347 0.56459 8.09741 64.0726
11896799 6.99378 7.65276 24.2646 25.1347 0.596851 8.13935 64.0458
11896805 6.99378 7.65276 24.2646 25.1347 0.596851 8.13935 64.0458
11896822 6.95855 7.69881 24.3926 25.1736 0.592193 8.15328 64.2236
11896835 6.87927 7.65276 24.6288 25.1931 0.519693 8.22558 64.354
11896858 6.87927 7.56067 24.5993 25.1444 0.477731 8.25064 64.1837
11896861 6.87927 7.56067 24.5993 25.1444 0.477731 8.25064 64.1837
11896867 6.89689 7.56067 24.5304 25.086 0.475758 8.23084 64.0739
11896892 6.87047 7.49621 24.5993 24.9301 0.374249 8.25467 63.8961
11896897 6.78238 7.41333 24.5501 24.9106 0.389379 8.30984 63.6564
11896906 6.78238 7.41333 24.5501 24.9106 0.389379 8.30984 63.6564
11896927 6.75596 7.31203 24.6879 24.7547 0.245193 8.35482 63.5106
11896933 6.78238 7.2844 24.806 24.8327 0.20746 8.37571 63.7055
11896937 6.78238 7.2844 24.806 24.8327 0.20746 8.37571 63.7055
11896956 6.73834 7.26598 24.7666 24.7645 0.20676 8.38748 63.5354
11896959 6.67668 7.29361 24.8651 24.6476 0.157288 8.39809 63.4829
11896967 6.67668 7.29361 24.8651 24.6476 0.157288 8.39809 63.4829
11896979 6.73834 7.35807 24.8257 24.6183 0.162244 8.34452 63.5405
11897002 6.68549 7.43174 24.7273 24.5794 0.235853 8.32244 63.4239
11897006 6.70311 7.2844 24.6879 24.6086 0.198308 8.36917 63.284
11897016 6.70311 7.2844 24.6879 24.6086 0.198308 8.36917 63.284
11897028 6.64145 7.34886 24.6288 24.5696 0.256455 8.35785 63.1888
11897038 6.65907 7.41333 24.3827 24.5307 0.358087 8.29735 62.9858
11897049 6.65907 7.41333 24.3827 24.5307 0.358087 8.29735 62.9858
11897058 6.68549 7.60672 24.1957 24.5112 0.490755 8.19409 62.9991
11897068 6.68549 7.60672 24.1957 24.5112 0.490755 8.19409 62.9991
11897078 6.82643 7.83694 23.9595 24.4138 0.580934 8.0215 63.0366
11897088 6.88808 8.03955 23.7921 24.4138 0.702122 7.90664 63.1335
11897098 6.88808 8.03955 23.7921 24.4138 0.702122 7.90664 63.1335
11897108 6.99378 8.20531 23.6149 24.5112 0.83212 7.79951 63.3252
11897121 6.98497 8.16847 23.5362 24.5696 0.876132 7.81365 63.2593
11897139 6.97617 8.26977 23.4181 24.6086 0.981522 7.77131 63.2726
11897149 6.97617 8.26977 23.4181 24.6086 0.981522 7.77131 63.2726
11897159 7.00259 8.34344 23.2113 24.404 1.00598 7.68788 62.9614
11897170 7.15233 8.62893 22.9653 24.1117 1.04325 7.46817 62.8583
11897179 7.15233 8.62893 22.9653 24.1117 1.04325 7.46817 62.8583
11897192 7.25803 8.89599 22.6995 23.7318 1.06666 7.25664 62.5853
11897199 7.44301 9.08017 22.5912 23.498 1.01576 7.08311 62.6124
11897219 7.56632 9.3104 22.4534 23.3811 1.06511 6.92646 62.7112
11897231 7.56632 9.3104 22.4534 23.3811 1.06511 6.92646 62.7112
11897244 7.69845 9.44854 22.3451 23.0499 0.981277 6.77497 62.5419
11897250 7.90984 9.70639 22.1482 22.6991 0.939527 6.53928 62.4636
11897259 7.90984 9.70639 22.1482 22.6991 0.939527 6.53928 62.4636
11897274 8.17409 10.0103 21.9612 22.4166 0.915733 6.28017 62.5622
11897280 8.36788 10.3971 21.6856 21.9587 0.922284 5.97973 62.4093
11897290 8.36788 10.3971 21.6856 21.9587 0.922284 5.97973 62.4093
11897300 8.72902 10.8759 21.41 21.4521 0.876108 5.58466 62.4671
11897310 8.72902 10.8759 21.41 21.4521 0.876108 5.58466 62.4671
11897327 9.06373 11.2627 21.1836 20.9553 0.788736 5.23788 62.4653
11897333 9.38964 11.6311 20.7701 20.3708 0.740856 4.85512 62.1616
11897341 9.38964 11.6311 20.7701 20.3708 0.740856 4.85512 62.1616
11897353 9.61865 11.8337 20.465 19.9421 0.683889 4.59625 61.8594
11897361 9.79482 12.11 20.3665 19.6791 0.656855 4.39242 61.9504
11897379 9.79482 12.11 20.3665 19.6791 0.656855 4.39242 61.9504
11897382 9.99741 12.4047 20.15 19.3966 0.667423 4.1513 61.9486
11897392 9.99741 12.4047 20.15 19.3966 0.667423 4.1513 61.9486
11897405 10.2617 12.8006 19.9433 18.9874 0.638431 3.83955 61.993
11897412 10.5788 13.1874 19.5594 18.6367 0.680253 3.49322 61.9622
11897422 10.5788 13.1874 19.5594 18.6367 0.680253 3.49322 61.9622
11897432 10.9311 13.5282 19.3231 18.2372 0.609174 3.16862 62.0196
11897442 11.0632 13.8229 19.1459 17.8768 0.6019 2.94061 61.9088
11897458 11.0632 13.8229 19.1459 17.8768 0.6019 2.94061 61.9088
11897463 11.2922 14.0531 18.9687 17.4968 0.521341 2.69862 61.8109
11897484 11.4772 14.2557 18.7128 17.2533 0.534445 2.48785 61.699
11897493 11.715 14.5228 18.4569 16.9429 0.524744 2.22964 61.6375
11897513 11.9881 14.8082 18.1025 16.5622 0.520578 1.92032 61.461
11897523 12.4109 15.2595 17.6103 16.2385 0.600141 1.50647 61.5192
11897549 12.8689 15.7936 17.0394 15.734 0.658962 1.0037 61.4359
11897563 12.8689 15.7936 17.0394 15.734 0.658962 1.0037 61.4359
11897574 13.3269 16.2172 16.3657 15.1915 0.702119 0.494195 61.1014
11897575 13.6969 16.6316 15.7939 14.687 0.751477 0.0375849 60.8094
11897590 13.6969 16.6316 15.7939 14.687 0.751477 0.0375849 60.8094
11897593 14.014 17.107 15.3156 14.2587 0.838646 -0.382243 60.6952
11897603 14.3927 17.6905 14.8685 13.8684 0.944456 -0.8253 60.8202
11897613 14.3927 17.6905 14.8685 13.8684 0.944456 -0.8253 60.8202
11897623 14.6922 18.2351 14.4006 13.3354 1.02108 -1.28365 60.6634
11897635 14.6922 18.2351 14.4006 13.3354 1.02108 -1.28365 60.6634
11897643 14.8772 18.6922 14.0159 12.9451 1.13342 -1.63762 60.5305
11897662 15.1415 19.1882 13.6312 12.5739 1.23461 -2.0132 60.5348
11897664 15.1415 19.1882 13.6312 12.5739 1.23461 -2.0132 60.5348
11897674 15.4057 19.6356 13.2985 12.3359 1.34624 -2.32553 60.6757
11897693 15.6611 20.1121 13.0697 12.0409 1.40519 -2.62697 60.8839
11897695 15.6611 20.1121 13.0697 12.0409 1.40519 -2.62697 60.8839
11897704 15.7933 20.5692 12.9034 11.7744 1.49367 -2.87141 61.0402
11897721 15.7933 20.5692 12.9034 11.7744 1.49367 -2.87141 61.0402
11897724 15.9254 20.9388 12.7058 11.5649 1.58361 -3.08991 61.1349
11897734 16.0223 21.2792 12.6954 11.3555 1.59612 -3.2396 61.3524
11897754 16.1368 21.6001 12.5394 11.051 1.62033 -3.46008 61.3273
11897765 16.1368 21.7946 12.5187 10.8987 1.64545 -3.54875 61.3487
11897784 16.4363 22.0669 12.3627 10.6797 1.60357 -3.76813 61.5456
11897801 16.4363 22.0669 12.3627 10.6797 1.60357 -3.76813 61.5456
11897805 16.6565 22.2906 12.2899 10.3942 1.51644 -3.95815 61.6312
11897815 16.8767 22.4949 12.1755 10.0705 1.42539 -4.16897 61.6176
11897828 16.8767 22.4949 12.1755 10.0705 1.42539 -4.16897 61.6176
11897835 17.1196 22.6018 12.1235 9.81355 1.28622 -4.32649 61.6585
11897845 17.3089 22.5338 12.0092 9.58511 1.13969 -4.45539 61.4369
11897855 17.3089 22.5338 12.0092 9.58511 1.13969 -4.45539 61.4369
11897865 17.3488 22.5532 11.8532 9.33763 1.10032 -4.59411 61.0928
11897882 17.3488 22.5532 11.8532 9.33763 1.10032 -4.59411 61.0928
11897885 17.4683 22.5629 11.7908 9.18533 1.01999 -4.68511 61.0074
11897895 17.6477 22.6018 11.7388 9.1187 0.954872 -4.76017 61.1071
11897907 17.6477 22.6018 11.7388 9.1187 0.954872 -4.76017 61.1071
11897915 17.8669 22.631 11.6557 9.00448 0.863698 -4.86554 61.1581
11897939 17.8769 22.631 11.6245 9.00448 0.872681 -4.87733 61.1369
11897941 17.8769 22.6796 11.6245 8.89026 0.846764 -4.92257 61.0713
11897945 17.9367 22.5629 11.6765 8.77604 0.707859 -4.9335 60.9521
11897955 17.9367 22.5629 11.6765 8.77604 0.707859 -4.9335 60.9521
11897968 17.9566 22.4754 11.8012 8.71892 0.589183 -4.90021 60.9522
11897975 17.9865 22.3879 11.9884 8.757 0.478557 -4.81735 61.1198
11897998 17.9865 22.3879 11.9884 8.757 0.478557 -4.81735 61.1198
11897998 18.136 22.3781 12.03 8.74748 0.391436 -4.83019 61.2916
11898015 18.1559 22.2712 12.1755 8.73796 0.276193 -4.77178 61.3406
11898034 18.2257 22.1642 12.2587 8.70941 0.158581 -4.74797 61.358
11898036 18.2257 22.1642 12.2587 8.70941 0.158581 -4.74797 61.358
11898045 18.2257 21.8822 12.3523 8.68085 -0.00611991 -4.67968 61.141
11898061 18.3054 21.746 12.4875 8.70941 -0.137739 -4.61757 61.2483
11898068 18.3054 21.746 12.4875 8.70941 -0.137739 -4.61757 61.2483
11898075 18.3751 21.5515 12.7682 8.72844 -0.35142 -4.50074 61.4233
11898085 18.3751 21.5515 12.7682 8.72844 -0.35142 -4.50074 61.4233
11898095 18.3253 21.2403 12.841 8.85218 -0.438243 -4.3763 61.2588
11898120 18.2954 21.143 12.9969 8.95689 -0.48559 -4.27202 61.3923
11898122 18.2954 21.143 12.9969 8.95689 -0.48559 -4.27202 61.3923
11898125 18.3054 20.968 13.0905 9.00448 -0.579888 -4.19883 61.3684
11898135 18.1659 20.7054 13.1841 9.07111 -0.643542 -4.07746 61.1265
11898156 18.1659 20.7054 13.1841 9.07111 -0.643542 -4.07746 61.1265
11898158 17.9666 20.472 13.2673 9.271 -0.611256 -3.91139 60.9768
11898189 17.6776 20.1121 13.4024 9.43281 -0.633037 -3.70008 60.625
11898190 17.5381 19.6842 13.7352 9.80403 -0.734441 -3.37791 60.7615
11898225 17.1893 19.266 14.1823 10.2704 -0.753242 -2.95593 60.908
11898227 16.8238 18.877 14.8165 10.9177 -0.751057 -2.43346 61.435
11898237 16.3834 18.4005 15.3676 11.5745 -0.719339 -1.90564 61.7259
11898261 16.3834 18.4005 15.3676 11.5745 -0.719339 -1.90564 61.7259
11898264 15.7492 17.6224 16.1266 12.3931 -0.751458 -1.17593 61.8913
11898267 15.2119 16.7421 16.6777 13.4686 -0.675841 -0.436649 62.1004
11898278 15.2119 16.7421 16.6777 13.4686 -0.675841 -0.436649 62.1004
11898294 14.4192 15.941 17.2559 14.7727 -0.385274 0.401151 62.3887
11898296 13.5207 14.9187 17.9745 16.3242 -0.100543 1.40088 62.7382
11898307 13.5207 14.9187 17.9745 16.3242 -0.100543 1.40088 62.7382
11898319 12.8337 13.9702 18.7522 17.6625 0.0185162 2.28036 63.2185
11898327 12.8337 13.9702 18.7522 17.6625 0.0185162 2.28036 63.2185
11898337 12.2171 13.1322 19.3723 18.4321 -0.00995547 2.95829 63.1537
11898357 11.5301 12.2941 19.9236 19.0361 -0.0491232 3.61609 62.7839
11898367 10.9047 11.6679 20.5043 19.3771 -0.145705 4.15718 62.454
11898392 10.5435 11.1246 21.0064 19.6206 -0.322928 4.56509 62.2951
11898395 10.5435 11.1246 21.0064 19.6206 -0.322928 4.56509 62.2951
11898398 10.2793 10.5536 21.4493 19.8642 -0.527303 4.94331 62.1464
11898408 10.2793 10.5536 21.4493 19.8642 -0.527303 4.94331 62.1464
11898420 9.90052 10.0563 21.8529 20.3415 -0.545266 5.36697 62.1513
11898428 9.55699 9.59588 22.4632 20.8871 -0.614861 5.80709 62.5032
11898453 9.2399 9.19989 23.1031 21.3352 -0.718784 6.20213 62.8781
11898459 8.94922 8.69339 23.6642 21.6762 -0.890625 6.59649 62.983
11898489 8.57047 8.26977 24.3237 21.9003 -1.07989 6.989 63.0642
11898492 8.57047 8.26977 24.3237 21.9003 -1.07989 6.989 63.0642
11898499 8.20933 7.77248 24.7174 22.2315 -1.1611 7.38124 62.9308
11898524 8.06839 7.487 25.0521 22.4848 -1.24765 7.60351 63.0923
11898529 7.90104 7.30282 25.1407 22.6991 -1.20543 7.76509 63.0437
11898540 7.71606 7.21073 25.3179 22.9622 -1.13162 7.91527 63.2069
11898555 7.71606 7.21073 25.3179 22.9622 -1.13162 7.91527 63.2069
11898560 7.53109 6.96208 25.4655 23.3226 -1.07137 8.12918 63.2814
11898570 7.53109 6.96208 25.4655 23.3226 -1.07137 8.12918 63.2814
11898589 7.35492 6.81473 25.6821 23.5759 -1.04306 8.29804 63.4277
11898593 7.14352 6.69502 25.8987 23.7318 -1.03017 8.45892 63.469
11898600 7.14352 6.69502 25.8987 23.7318 -1.03017 8.45892 63.469
11898622 6.94974 6.60293 26.1251 24.0046 -0.968598 8.6155 63.6823
11898624 6.82643 6.474 26.194 24.1117 -0.956926 8.72682 63.6061
11898630 6.82643 6.474 26.194 24.1117 -0.956926 8.72682 63.6061
11898655 6.80881 6.42795 26.2137 24.2189 -0.932792 8.76305 63.6693
11898656 6.80881 6.42795 26.2137 24.2189 -0.932792 8.76305 63.6693
11898660 6.72073 6.40953 26.2137 24.4235 -0.823838 8.82274 63.7674
11898670 6.6943 6.43716 26.2137 24.4917 -0.775068 8.82889 63.8368
11898690 6.65026 6.474 26.3219 24.6476 -0.721848 8.857 64.0938
11898702 6.55337 6.46479 26.4105 24.8132 -0.656089 8.92071 64.2419
11898711 6.55337 6.46479 26.4105 24.8132 -0.656089 8.92071 64.2419
11898722 6.46528 6.48321 26.4893 25.0178 -0.563802 8.97329 64.4556
11898741 6.3772 6.41874 26.4499 25.1736 -0.479175 9.04096 64.4195
11898752 6.33316 6.36349 26.5188 25.1347 -0.52596 9.08083 64.3501
11898762 6.33316 6.36349 26.5188 25.1347 -0.52596 9.08083 64.3501
11898772 6.23627 6.40032 26.6074 25.0665 -0.535245 9.1052 64.3105
11898789 6.13938 6.40032 26.6271 25.0373 -0.517453 9.14069 64.2041
11898802 6.07772 6.33586 26.7354 24.8619 -0.630887 9.18212 64.0108
11898828 6.10415 6.29903 26.8141 24.6281 -0.779685 9.17193 63.8454
11898861 6.09534 6.29903 26.8535 24.5112 -0.838564 9.16819 63.759
11898863 6.09534 6.29903 26.8535 24.5112 -0.838564 9.16819 63.759
11898865 6.22746 6.29903 26.9421 24.5404 -0.910081 9.12903 64.009
11898867 6.28031 6.30823 26.883 24.4527 -0.939545 9.09213 63.9243
11898872 6.28031 6.30823 26.883 24.4527 -0.939545 9.09213 63.9243
11898890 6.35078 6.39112 26.883 24.2968 -0.995688 9.01993 63.9218
11898893 6.35078 6.39112 26.883 24.2968 -0.995688 9.01993 63.9218
11898903 6.30674 6.34507 26.8141 24.2579 -0.987825 9.04376 63.7238
11898920 6.28912 6.35428 26.7551 24.3066 -0.935294 9.04597 63.7051
11898923 6.28912 6.35428 26.7551 24.3066 -0.935294 9.04597 63.7051
11898933 6.28031 6.26219 26.6763 24.2871 -0.947683 9.07496 63.5059
11898947 6.30674 6.33586 26.4893 24.1702 -0.904378 9.00845 63.3021
11898963 6.41244 6.46479 26.4204 24.0533 -0.913458 8.90195 63.3509
11898974 6.41244 6.46479 26.4204 24.0533 -0.913458 8.90195 63.3509
11898984 6.35959 6.56609 26.381 24.0338 -0.844915 8.878 63.3405
11898996 6.35078 6.60293 26.3613 24.0241 -0.822993 8.86459 63.3391
11899004 6.35078 6.60293 26.3613 24.0241 -0.822993 8.86459 63.3391
11899021 6.33316 6.69502 26.2727 24.0923 -0.717193 8.83458 63.3932
11899024 6.36839 6.75948 26.1841 24.0825 -0.674558 8.78754 63.3945
11899034 6.36839 6.75948 26.1841 24.0825 -0.674558 8.78754 63.3945
11899045 6.55337 6.86078 26.0069 23.9364 -0.695713 8.64835 63.3575
11899070 6.62383 6.98971 25.7609 23.6734 -0.68267 8.52227 63.0477
11899075 6.6943 7.1831 25.5935 23.459 -0.65378 8.38436 62.9299
11899085 6.6943 7.1831 25.5935 23.459 -0.65378 8.38436 62.9299
11899106 6.81762 7.43174 25.308 23.1181 -0.628583 8.17946 62.6755
11899109 7.0114 7.78169 24.9045 22.7771 -0.543056 7.89643 62.4746
11899117 7.0114 7.78169 24.9045 22.7771 -0.543056 7.89643 62.4746
11899143 7.27565 8.26056 24.5501 22.3679 -0.479256 7.53715 62.4542
11899146 7.27565 8.26056 24.5501 22.3679 -0.479256 7.53715 62.4542
11899149 7.60155 8.6013 24.1662 22.1146 -0.42084 7.22059 62.4837
11899155 7.76891 9.01571 23.9299 21.8126 -0.348061 6.94688 62.5272
11899179 7.76891 9.01571 23.9299 21.8126 -0.348061 6.94688 62.5272
11899181 7.99793 9.44854 23.5756 21.4229 -0.281061 6.61831 62.445
11899185 8.33264 9.99187 23.2113 20.9748 -0.230893 6.20573 62.5107
11899195 8.33264 9.99187 23.2113 20.9748 -0.230893 6.20573 62.5107
11899208 8.72902 10.5076 22.7389 20.3221 -0.256118 5.73642 62.2975
11899217 8.72902 10.5076 22.7389 20.3221 -0.256118 5.73642 62.2975
11899231 9.19586 11.0878 22.1187 19.7083 -0.208697 5.20283 62.1106
11899237 9.73316 11.6863 21.5675 19.1433 -0.189522 4.65745 62.1302
11899247 9.73316 11.6863 21.5675 19.1433 -0.189522 4.65745 62.1302
11899257 10.156 12.2113 20.9867 18.5977 -0.134647 4.1687 61.9516
11899267 10.6052 12.7914 20.4453 18.0034 -0.103316 3.65074 61.8453
11899280 10.6052 12.7914 20.4453 18.0034 -0.103316 3.65074 61.8453
11899287 11.213 13.4729 19.7464 17.4384 -0.0194058 3.03025 61.8706
11899304 11.213 13.4729 19.7464 17.4384 -0.0194058 3.03025 61.8706
11899307 11.6974 14.136 18.8998 16.762 0.122273 2.39738 61.4952
11899318 12.2876 14.753 18.1123 16.1433 0.202468 1.76564 61.2962
11899329 12.2876 14.753 18.1123 16.1433 0.202468 1.76564 61.2962
11899337 12.8689 15.37 17.2855 15.6008 0.333902 1.14045 61.1252
11899347 13.3181 15.9317 16.5737 15.0868 0.462443 0.593646 60.9104
11899367 13.8554 16.5119 15.9498 14.5823 0.529125 0.0405908 60.8995
11899380 13.8554 16.5119 15.9498 14.5823 0.529125 0.0405908 60.8995
11899388 14.2606 17.0195 15.3572 14.1635 0.643551 -0.434056 60.8008
11899404 14.6746 17.5154 14.7853 13.7542 0.74499 -0.90167 60.7296
11899408 14.6746 17.5154 14.7853 13.7542 0.74499 -0.90167 60.7296
11899419 15.071 17.9628 14.3382 13.4306 0.815827 -1.29887 60.8026
11899428 15.3881 18.488 13.8599 13.1736 0.990623 -1.68509 60.9096
11899438 15.3881 18.488 13.8599 13.1736 0.990623 -1.68509 60.9096
11899453 15.6964 18.8089 13.4544 12.7928 1.00858 -2.03893 60.7526
11899477 15.9078 19.1493 13.1217 12.4882 1.07475 -2.33581 60.667
11899483 16.128 19.5675 12.9346 12.1741 1.10153 -2.6117 60.8042
11899492 16.128 19.5675 12.9346 12.1741 1.10153 -2.6117 60.8042
11899501 16.3041 19.9079 12.5083 11.8219 1.20471 -2.94385 60.5422
11899508 16.5155 20.1608 12.2899 11.5459 1.19861 -3.18295 60.5121
11899518 16.5155 20.1608 12.2899 11.5459 1.19861 -3.18295 60.5121
11899529 16.7093 20.4817 12.1028 11.2604 1.20965 -3.42534 60.5541
11899538 16.7093 20.4817 12.1028 11.2604 1.20965 -3.42534 60.5541
11899551 16.9383 20.8318 11.926 11.0605 1.24593 -3.64989 60.7566
11899558 17.1694 21.0944 11.8116 10.7749 1.18664 -3.86455 60.8503
11899568 17.1694 21.0944 11.8116 10.7749 1.18664 -3.86455 60.8503
11899578 17.5082 21.4737 11.7388 10.5179 1.12044 -4.09671 61.2386
11899588 17.6676 21.6974 11.5517 10.1086 1.05967 -4.35181 61.0253
11899601 17.6676 21.6974 11.5517 10.1086 1.05967 -4.35181 61.0253
11899608 18.0164 22.0183 11.3229 9.86114 1.0373 -4.61884 61.2188
11899618 18.0164 22.0183 11.3229 9.86114 1.0373 -4.61884 61.2188
11899628 18.2157 22.1836 11.0838 9.48992 0.973406 -4.87731 60.9731
11899639 18.4848 22.4365 10.9382 9.15677 0.889227 -5.11985 61.0163
11899652 18.4848 22.4365 10.9382 9.15677 0.889227 -5.11985 61.0163
11899659 18.704 22.5629 10.7095 8.84266 0.818875 -5.35558 60.8191
11899676 18.8834 22.6407 10.5951 8.61422 0.731266 -5.51132 60.7334
11899679 18.8834 22.6407 10.5951 8.61422 0.731266 -5.51132 60.7334
11899689 19.0627 22.7574 10.6263 8.53807 0.658563 -5.57251 60.9845
11899702 19.0627 22.7574 10.6263 8.53807 0.658563 -5.57251 60.9845
11899709 19.2421 22.8936 10.5015 8.32867 0.60634 -5.73407 60.9659
11899726 19.4015 23.02 10.4183 8.32867 0.624838 -5.80556 61.1686
11899739 19.541 23.1367 10.3144 8.16685 0.591975 -5.9345 61.159
11899752 19.5311 23.1173 10.304 8.12878 0.577515 -5.94675 61.0811
11899776 19.561 23.0297 10.2 8.0336 0.535303 -6.00676 60.8243
11899781 19.561 23.0297 10.2 8.0336 0.535303 -6.00676 60.8243
11899790 19.5909 23.127 10.2 8.01456 0.55418 -6.03208 60.9324
11899805 19.7503 23.1659 10.2208 7.93841 0.463864 -6.08027 61.0754
11899820 19.7702 23.2534 10.096 8.01456 0.573224 -6.11271 61.1342
11899834 19.7603 23.2632 10.1168 8.05263 0.587776 -6.09237 61.1929
11899841 19.7603 23.2632 10.1168 8.05263 0.587776 -6.09237 61.1929
11899861 19.7304 23.3021 10.1064 8.11926 0.646663 -6.07432 61.2581
11899863 19.7304 23.3021 10.1064 8.11926 0.646663 -6.07432 61.2581
11899872 19.6108 23.2534 10.1272 8.15734 0.683892 -6.02947 61.1488
11899889 19.6008 23.2145 10.1376 8.18589 0.679594 -6.00891 61.1389
11899902 19.5709 23.2145 10.1584 8.21445 0.694773 -5.98756 61.1583
11899917 19.4015 23.0881 10.356 8.35722 0.689444 -5.82729 61.2028
11899923 19.4015 23.0881 10.356 8.35722 0.689444 -5.82729 61.2028
11899933 19.3019 22.9714 10.5223 8.38578 0.626406 -5.7285 61.1814
11899943 19.3019 22.9714 10.5223 8.38578 0.626406 -5.7285 61.1814
11899954 19.1723 22.8547 10.6263 8.52856 0.6475 -5.60758 61.1819
11899967 19.0528 22.7963 10.7927 8.55711 0.616041 -5.51464 61.1989
11899973 19.0528 22.7963 10.7927 8.55711 0.616041 -5.51464 61.1989
11899983 18.8834 22.5824 10.9798 8.76652 0.606796 -5.32233 61.2121
11899993 18.714 22.4559 11.1566 8.89026 0.602648 -5.17581 61.2167
11900017 18.5246 22.2712 11.4581 9.09015 0.561827 -4.95098 61.344
11900024 18.1659 22.2712 11.7596 9.09015 0.585687 -4.794 61.2868
11900040 18.1659 21.9697 11.7596 9.271 0.537536 -4.68517 61.1662
11900044 18.0164 21.7654 12.0404 9.51848 0.500134 -4.45618 61.3407
11900055 18.0164 21.7654 12.0404 9.51848 0.500134 -4.45618 61.3407
11900065 17.6676 21.4251 12.3835 9.77548 0.46913 -4.14693 61.2517
11900074 17.3587 21.1138 12.7266 10.0515 0.440818 -3.8435 61.2507
11900089 17.3587 21.1138 12.7266 10.0515 0.440818 -3.8435 61.2507
11900094 16.9824 20.7929 12.9346 10.4608 0.546327 -3.52618 61.1707
11900113 16.9824 20.7929 12.9346 10.4608 0.546327 -3.52618 61.1707
11900141 16.2425 20.1024 13.8391 11.0795 0.448996 -2.79764 61.2635
11900144 15.8461 19.655 14.4942 11.5745 0.361055 -2.298 61.5698
11900165 15.4321 19.1396 15.1388 12.0218 0.239122 -1.80076 61.7324
11900167 15.4321 19.1396 15.1388 12.0218 0.239122 -1.80076 61.7324
11900175 14.9741 18.4977 15.8043 12.5644 0.1147 -1.23781 61.8405
11900190 14.9741 18.4977 15.8043 12.5644 0.1147 -1.23781 61.8405
11900195 14.4632 17.6905 16.5841 13.2688 -0.0355005 -0.556602 62.0066
11900205 14.0404 16.8342 17.3937 14.0302 -0.228611 0.132265 62.2986
11900225 13.3534 15.8212 18.2009 15.0868 -0.258665 0.987743 62.4623
11900236 12.6839 15.0108 19.0081 16.1148 -0.225426 1.77373 62.8177
11900245 12.6839 15.0108 19.0081 16.1148 -0.225426 1.77373 62.8177
11900261 12.2083 14.357 19.6873 16.8382 -0.277549 2.36807 63.0908
11900265 12.2083 14.357 19.6873 16.8382 -0.277549 2.36807 63.0908
11900275 11.7326 13.915 20.1598 17.1754 -0.318401 2.78352 62.9828
11900286 11.4332 13.4729 20.3764 17.341 -0.397472 3.06865 62.6234
11900307 11.1337 12.9019 20.5536 17.7599 -0.411156 3.43497 62.3491
11900317 10.7021 12.3862 20.9473 18.3736 -0.356317 3.9015 62.4093
11900333 10.7021 12.3862 20.9473 18.3736 -0.356317 3.9015 62.4093
11900337 10.4202 11.8613 21.3804 19.0069 -0.371969 4.33368 62.6688
11900357 9.90933 11.3272 21.9415 19.5622 -0.383118 4.8455 62.7402
11900368 9.57461 10.8944 22.3746 19.9032 -0.45888 5.21353 62.7468
11900387 9.22228 10.5997 22.5715 20.137 -0.422655 5.49009 62.5304
11900404 9.09896 10.3234 22.9751 20.3318 -0.565469 5.71134 62.7293
11900408 9.09896 10.3234 22.9751 20.3318 -0.565469 5.71134 62.7293
11900418 8.90518 9.96425 23.4574 20.5948 -0.716576 6.00338 62.9217
11900429 8.73782 9.56826 23.8118 20.8871 -0.830996 6.28351 63.005
11900438 8.73782 9.56826 23.8118 20.8871 -0.830996 6.28351 63.005
11900452 8.51762 9.2091 24.2548 21.2573 -0.911617 6.59058 63.2388
11900460 8.51762 9.2091 24.2548 21.2573 -0.911617 6.59058 63.2388
11900468 8.16529 8.79469 24.7076 21.6275 -0.967956 6.96147 63.2951
11900478 7.77772 8.42633 25.2391 22.1438 -0.961949 7.35502 63.587
11900488 7.77772 8.42633 25.2391 22.1438 -0.961949 7.35502 63.587
11900501 7.35492 7.92904 25.5738 22.6504 -0.924797 7.78017 63.5082
11900508 7.35492 7.92904 25.5738 22.6504 -0.924797 7.78017 63.5082
11900526 7.04663 7.41333 25.9184 23.1278 -0.954188 8.16918 63.5061
11900528 6.6943 6.96208 26.0857 23.6052 -0.873266 8.53261 63.3472
11900554 6.28031 6.44637 26.3909 24.0046 -0.879328 8.9514 63.1221
11900558 5.9456 6.11484 26.5877 24.3943 -0.802717 9.2608 63.0424
11900569 5.9456 6.11484 26.5877 24.3943 -0.802717 9.2608 63.0424
11900580 5.66373 5.82936 26.8929 24.7158 -0.796923 9.53592 63.1017
11900589 5.35544 5.82936 26.9716 24.7158 -0.708558 9.66308 62.8722
11900607 5.35544 5.70964 26.9716 25.0762 -0.610496 9.74034 63.1129
11900609 5.27617 5.6636 26.9913 25.3198 -0.507547 9.81125 63.2508
11900634 5.22332 5.68201 26.9913 25.612 -0.362384 9.84858 63.5087
11900639 5.25855 5.64518 27.0898 25.6705 -0.405502 9.8619 63.664
11900660 5.32902 5.63597 27.2177 25.6413 -0.497267 9.84599 63.824
11900670 5.28497 5.73727 27.3752 25.5244 -0.546981 9.82701 63.9218
11900697 5.28497 5.73727 27.3752 25.5244 -0.546981 9.82701 63.9218
11900700 5.39948 5.90303 27.6312 25.4951 -0.633442 9.7372 64.4288
11900701 5.39948 5.90303 27.6312 25.4951 -0.633442 9.7372 64.4288
11900710 5.46995 5.9675 27.7099 25.388 -0.706738 9.68317 64.5353
11900727 5.49637 6.07801 27.828 25.2418 -0.775228 9.62858 64.6442
11900730 5.49637 6.07801 27.828 25.2418 -0.775228 9.62858 64.6442
11900740 5.44352 6.05038 28.0151 25.1736 -0.863662 9.66909 64.6826
11900757 5.44352 6.05038 28.0151 25.1736 -0.863662 9.66909 64.6826
11900769 5.35544 5.97671 28.0446 25.1152 -0.894739 9.72857 64.4919
11900785 5.33782 5.93987 28.0347 24.9203 -0.977831 9.73274 64.2328
11900787 5.33782 5.93987 28.0347 24.9203 -0.977831 9.73274 64.2328
11900790 5.29378 5.89382 28.1135 24.5989 -1.1403 9.7476 63.9
11900800 5.32021 5.77411 28.2611 24.404 -1.33441 9.77992 63.7595
11900820 5.39948 5.74648 28.5072 24.4819 -1.4338 9.78634 64.1351
11900839 5.36425 5.6636 28.7435 24.5112 -1.52956 9.85341 64.2825
11900842 5.36425 5.6636 28.7435 24.5112 -1.52956 9.85341 64.2825
11900852 5.32021 5.53467 28.8321 24.5599 -1.57896 9.93133 64.2468
11900872 5.19689 5.51625 28.8813 24.5112 -1.57972 9.98649 64.1056
11900882 5.21451 5.43337 28.8911 24.5307 -1.61606 10.0142 64.0697
11900893 5.21451 5.43337 28.8911 24.5307 -1.61606 10.0142 64.0697
11900902 5.19689 5.40574 28.8911 24.6768 -1.56049 10.0432 64.1706
11900919 5.19689 5.40574 28.8911 24.6768 -1.56049 10.0432 64.1706
11900922 5.02073 5.19393 28.9305 24.6183 -1.62278 10.1941 63.7635
11900932 5.01192 5.14789 28.9108 24.6378 -1.62342 10.2158 63.7085
11900946 5.01192 5.14789 28.9108 24.6378 -1.62342 10.2158 63.7085
11900952 4.98549 5.16631 29.0191 24.706 -1.61728 10.2322 63.8769
11900962 4.94145 5.16631 29.2061 24.6963 -1.67357 10.2627 64.0102
11900973 4.94145 5.16631 29.2061 24.6963 -1.67357 10.2627 64.0102
11900982 4.96788 5.16631 29.1668 24.6281 -1.69729 10.2443 63.929
11901002 4.96788 5.16631 29.1668 24.6281 -1.69729 10.2443 63.929
11901003 4.95907 5.1571 29.3046 24.667 -1.7318 10.2645 64.0878
11901012 5.02073 5.19393 29.2849 24.6865 -1.72356 10.2258 64.1861
11901032 4.97668 5.16631 29.2554 24.6183 -1.73681 10.2467 64.0167
11901043 5.00311 5.14789 29.1865 24.5501 -1.75759 10.2333 63.8876
11901055 5.00311 5.14789 29.1865 24.5501 -1.75759 10.2333 63.8876
