6489743 7.25803 9.42091 22.9948 20.7994 -0.0134289 6.72578 60.4732
6489750 7.10829 9.22752 23.231 21.004 -0.0444949 6.90907 60.5709
6489770 6.92332 9.02492 23.4378 21.1891 -0.060682 7.10159 60.5751
6489786 6.73834 8.73023 23.6838 21.4229 -0.111033 7.33917 60.5753
6489789 6.73834 8.73023 23.6838 21.4229 -0.111033 7.33917 60.5753
6489799 6.57098 8.55525 23.9792 21.7054 -0.11899 7.53773 60.8108
6489818 6.57098 8.55525 23.9792 21.7054 -0.11899 7.53773 60.8108
6489825 6.38601 8.37107 24.176 21.9003 -0.119455 7.72254 60.8334
6489829 6.21865 8.15926 24.3631 22.1633 -0.106364 7.91778 60.9043
6489840 6.21865 8.15926 24.3631 22.1633 -0.106364 7.91778 60.9043
6489849 6.04249 7.97508 24.619 22.3971 -0.118484 8.10992 61.0337
6489859 6.04249 7.97508 24.619 22.3971 -0.118484 8.10992 61.0337
6489870 5.8399 7.67118 24.7765 22.5822 -0.149077 8.34099 60.8698
6489880 5.69016 7.33965 24.9537 22.9135 -0.160399 8.58105 60.897
6489890 5.69016 7.33965 24.9537 22.9135 -0.160399 8.58105 60.897
6489901 5.48756 7.15547 25.121 23.0888 -0.149658 8.76708 60.8529
6489910 5.34663 6.9805 25.2391 23.196 -0.168397 8.91376 60.7623
6489920 5.34663 6.9805 25.2391 23.196 -0.168397 8.91376 60.7623
6489930 5.28497 6.79632 25.436 23.3616 -0.231226 9.04656 60.8789
6489949 5.16166 6.64897 25.4557 23.4298 -0.221841 9.16241 60.6961
6489959 5.15285 6.55688 25.5345 23.6441 -0.199668 9.23055 60.8883
6489970 5.15285 6.55688 25.5345 23.6441 -0.199668 9.23055 60.8883
6489980 5.07358 6.49242 25.5148 23.6734 -0.173886 9.28879 60.7541
6489990 5.02953 6.474 25.5246 23.8682 -0.0870124 9.33289 60.8963
6490011 5.01192 6.41874 25.6132 23.9461 -0.106674 9.37744 60.99
6490021 5.01192 6.41874 25.6132 23.9461 -0.106674 9.37744 60.99
6490031 4.96788 6.3727 25.6132 24.0241 -0.0755653 9.42064 60.9778
6490041 4.95026 6.32665 25.6723 24.063 -0.0954032 9.45509 61.0122
6490051 4.95026 6.32665 25.6723 24.063 -0.0954032 9.45509 61.0122
6490061 4.90622 6.21614 25.6329 24.0825 -0.0988036 9.5154 60.8378
6490071 4.91503 6.25298 25.5837 24.102 -0.0590414 9.49433 60.8537
6490092 4.94145 6.23456 25.6723 24.0923 -0.117691 9.49824 60.9405
6490106 4.9943 6.16089 25.5443 24.1215 -0.105317 9.49769 60.821
6490122 4.98549 6.2714 25.6723 24.0338 -0.144574 9.46046 60.963
6490132 4.98549 6.2714 25.6723 24.0338 -0.144574 9.46046 60.963
6490142 4.96788 6.29903 25.5541 23.9559 -0.109877 9.43856 60.7769
6490152 5.00311 6.36349 25.4065 23.9266 -0.0492021 9.38222 60.6997
6490162 5.00311 6.36349 25.4065 23.9266 -0.0492021 9.38222 60.6997
6490182 5.09119 6.41874 25.2588 23.8195 -0.0461295 9.30091 60.5883
6490183 5.22332 6.45558 25.0127 23.6539 -0.0524521 9.19398 60.3455
6490193 5.22332 6.45558 25.0127 23.6539 -0.0524521 9.19398 60.3455
6490204 5.32902 6.6766 24.8848 23.537 -9.23872e-05 9.03965 60.4273
6490214 5.32902 6.6766 24.8848 23.537 -9.23872e-05 9.03965 60.4273
6490224 5.55803 6.81473 24.619 23.3713 0.00375211 8.85083 60.3631
6490234 5.72539 7.03575 24.5206 23.196 -0.00587106 8.66983 60.4777
6490243 5.72539 7.03575 24.5206 23.196 -0.00587106 8.66983 60.4777
6490254 5.93679 7.27519 24.1367 23.0206 0.0920892 8.43442 60.3693
6490264 6.1658 7.46858 23.8118 22.7284 0.0911236 8.20259 60.1746
6490285 6.51813 7.80011 23.5263 22.4556 0.0875682 7.87652 60.3002
6490295 6.51813 7.80011 23.5263 22.4556 0.0875682 7.87652 60.3002
6490304 6.74715 8.15005 23.231 22.0756 0.102782 7.57662 60.2039
6490315 7.02021 8.56446 23.0637 21.6178 0.0407875 7.24207 60.2661
6490324 7.02021 8.56446 23.0637 21.6178 0.0407875 7.24207 60.2661
6490336 7.25803 8.93283 22.7782 21.2086 0.0436902 6.92847 60.1777
6490345 7.39016 9.30119 22.4731 20.8774 0.131294 6.66014 60.0418
6490354 7.39016 9.30119 22.4731 20.8774 0.131294 6.66014 60.0418
6490364 7.71606 9.67877 22.1482 20.4195 0.09754 6.29715 59.9625
6490385 8.03316 10.0932 21.6364 20.0395 0.193635 5.90686 59.8022
6490395 8.56166 10.48 21.2328 19.5232 0.0872672 5.44697 59.7976
6490405 8.56166 10.48 21.2328 19.5232 0.0872672 5.44697 59.7976
6490414 9.12539 10.9865 20.6618 19.114 0.130773 4.92522 59.8877
6490426 9.65389 11.4285 20.1008 18.5685 0.10139 4.41499 59.7516
6490444 10.2352 12.0179 19.4609 18.0229 0.144237 3.82445 59.7369
6490454 10.2352 12.0179 19.4609 18.0229 0.144237 3.82445 59.7369
6490464 10.8254 12.5428 18.8014 17.3312 0.103888 3.21788 59.5008
6490476 11.5477 13.1138 18.0828 16.6288 0.047189 2.53907 59.373
6490496 12.2523 13.7492 17.315 15.9339 0.0488579 1.83477 59.2504
6490506 12.8601 14.3662 16.5425 15.1439 0.0456125 1.13561 58.9127
6490516 12.8601 14.3662 16.5425 15.1439 0.0456125 1.13561 58.9127
6490526 13.4855 14.9372 15.8251 14.5252 0.0645638 0.491965 58.7729
6490536 13.4855 14.9372 15.8251 14.5252 0.0645638 0.491965 58.7729
6490547 13.9699 15.4252 15.2532 13.9255 0.0544697 -0.0554296 58.5739
6490556 14.5425 15.987 14.7125 13.4211 0.0652134 -0.612625 58.6631
6490577 15.0358 16.383 14.1927 12.9642 0.0506818 -1.09139 58.5756
6490587 15.4497 16.7145 13.7976 12.4882 -0.0190511 -1.50859 58.4501
6490597 15.4497 16.7145 13.7976 12.4882 -0.0190511 -1.50859 58.4501
6490607 15.8725 17.1751 13.3817 12.0885 0.00398755 -1.94236 58.5177
6490617 15.8725 17.1751 13.3817 12.0885 0.00398755 -1.94236 58.5177
6490627 16.2073 17.496 12.9346 11.7077 0.026527 -2.32947 58.3455
6490637 16.542 17.8558 12.5914 11.3936 0.0496894 -2.67529 58.3829
6490647 16.542 17.8558 12.5914 11.3936 0.0496894 -2.67529 58.3829
6490657 16.8591 18.2643 12.2795 11.0795 0.0877321 -3.01741 58.4824
6490667 17.1694 18.5463 11.9884 10.7844 0.0739425 -3.31935 58.4886
6490690 17.4683 18.8089 11.718 10.5084 0.0559479 -3.60255 58.5037
6490698 17.4683 18.8089 11.718 10.5084 0.0559479 -3.60255 58.5037
6490708 17.7274 19.0034 11.4789 10.2895 0.0369996 -3.83659 58.4992
6490718 17.9666 19.266 11.1982 10.0515 0.0653088 -4.09943 58.4823
6490728 17.9666 19.266 11.1982 10.0515 0.0653088 -4.09943 58.4823
6490739 18.1061 19.4314 11.0318 9.8897 0.0783235 -4.26349 58.4589
6490748 18.2954 19.6064 10.8446 9.65174 0.0505447 -4.47071 58.3982
6490760 18.2954 19.6064 10.8446 9.65174 0.0505447 -4.47071 58.3982
6490770 18.4947 19.6939 10.7511 9.55655 0.0020057 -4.58517 58.4963
6490781 18.4947 19.6939 10.7511 9.55655 0.0020057 -4.58517 58.4963
6490790 18.5744 19.8982 10.5431 9.41377 0.0831693 -4.75335 58.4295
6490801 18.7438 19.9468 10.5223 9.39474 0.0321478 -4.80489 58.6077
6490809 18.7438 19.9468 10.5223 9.39474 0.0321478 -4.80489 58.6077
6490827 18.8734 20.1121 10.356 9.28051 0.0696361 -4.95097 58.622
6490829 18.9531 20.2969 10.2208 9.24244 0.15561 -5.05511 58.7132
6490839 18.9531 20.2969 10.2208 9.24244 0.15561 -5.05511 58.7132
6490849 19.0328 20.3455 10.1584 9.08063 0.100195 -5.15359 58.6174
6490861 19.0328 20.3455 10.1584 9.08063 0.100195 -5.15359 58.6174
6490871 18.983 20.2775 10.0024 8.99496 0.123149 -5.21725 58.2579
6490881 19.0129 20.4039 9.96086 8.99496 0.182062 -5.25785 58.3726
6490901 18.993 20.3844 9.99205 8.99496 0.168931 -5.24045 58.3644
6490911 18.9631 20.4136 9.97125 9.03303 0.21939 -5.23434 58.381
6490921 18.9631 20.4136 9.97125 9.03303 0.21939 -5.23434 58.381
6490931 18.9531 20.4233 10.0128 9.1187 0.246158 -5.19029 58.508
6490942 18.9531 20.4233 10.0128 9.1187 0.246158 -5.19029 58.508
6490951 18.9033 20.4136 9.94006 9.16629 0.315186 -5.189 58.4233
6490962 18.7837 20.4039 10.0128 9.25196 0.367519 -5.11257 58.4524
6490982 18.6841 20.3747 10.0648 9.34714 0.416008 -5.04016 58.4707
6490992 18.6043 20.3844 10.1792 9.47088 0.456941 -4.9469 58.6389
6491013 18.5445 20.3261 10.3352 9.58511 0.438622 -4.83502 58.7909
6491023 18.425 20.2677 10.4183 9.79451 0.517324 -4.7058 58.9056
6491054 18.3652 20.1705 10.5015 9.94681 0.530052 -4.59972 58.984
6491056 18.3652 20.1705 10.5015 9.94681 0.530052 -4.59972 58.984
6491063 18.1958 20.0538 10.5639 10.023 0.559616 -4.503 58.8364
6491073 18.0961 19.9468 10.5327 10.1753 0.635391 -4.42588 58.7509
6491083 18.0961 19.9468 10.5327 10.1753 0.635391 -4.42588 58.7509
6491093 17.857 19.7815 10.6159 10.2704 0.67451 -4.29359 58.5248
6491103 17.6975 19.7037 10.6263 10.4037 0.763085 -4.20269 58.4312
6491113 17.6975 19.7037 10.6263 10.4037 0.763085 -4.20269 58.4312
6491123 17.558 19.5286 10.8031 10.6512 0.776675 -4.00551 58.5409
6491133 17.558 19.5286 10.8031 10.6512 0.776675 -4.00551 58.5409
6491143 17.3687 19.48 10.907 10.7654 0.841424 -3.88994 58.5211
6491153 17.1993 19.2757 11.063 10.9462 0.837705 -3.71017 58.4843
6491163 17.1993 19.2757 11.063 10.9462 0.837705 -3.71017 58.4843
6491173 17.0797 19.2563 11.2813 11.2223 0.899693 -3.52629 58.8396
6491183 17.0797 19.2563 11.2813 11.2223 0.899693 -3.52629 58.8396
6491194 16.9295 19.091 11.4269 11.4698 0.935331 -3.34125 58.9172
6491203 16.7974 18.9451 11.6245 11.6411 0.916952 -3.17167 59.0081
6491223 16.5332 18.8186 11.77 11.7363 0.956428 -3.01883 58.8581
6491234 16.357 18.6339 11.9156 11.8886 0.956655 -2.85399 58.795
6491257 16.357 18.6339 11.9156 11.8886 0.956655 -2.85399 58.795
6491261 16.0575 18.4783 12.1235 12.1265 1.03075 -2.62453 58.7859
6491264 16.0575 18.4783 12.1235 12.1265 1.03075 -2.62453 58.7859
6491275 15.8373 18.1573 12.3835 12.3074 0.955909 -2.37804 58.6855
6491285 15.5642 18.0114 12.7578 12.631 0.983816 -2.08266 58.9645
6491295 15.5642 18.0114 12.7578 12.631 0.983816 -2.08266 58.9645
6491304 15.3 17.7002 13.0697 12.9832 0.979504 -1.76467 59.0532
6491315 14.9301 17.4279 13.4024 13.4496 1.07458 -1.39484 59.21
6491324 14.9301 17.4279 13.4024 13.4496 1.07458 -1.39484 59.21
6491335 14.6041 17.1751 13.8495 13.8303 1.07289 -1.03415 59.4591
6491347 14.6041 17.1751 13.8495 13.8303 1.07289 -1.03415 59.4591
6491355 14.1725 16.7974 14.255 14.2396 1.09706 -0.624384 59.4646
6491365 13.8202 16.5488 14.6502 14.7536 1.1845 -0.24221 59.7728
6491375 13.8202 16.5488 14.6502 14.7536 1.1845 -0.24221 59.7728
6491386 13.4062 16.1712 15.0661 15.1534 1.1925 0.161063 59.7969
6491394 12.9834 15.7384 15.5339 15.6198 1.18613 0.609264 59.8755
6491415 12.5342 15.3424 15.9394 15.9434 1.17645 1.00562 59.7595
6491425 12.5342 15.3424 15.9394 15.9434 1.17645 1.00562 59.7595
6491435 12.1642 14.9187 16.3761 16.4289 1.17187 1.43319 59.888
6491450 11.7591 14.4767 16.8544 16.8477 1.13072 1.86853 59.9379
6491458 11.7591 14.4767 16.8544 16.8477 1.13072 1.86853 59.9379
6491467 11.4244 14.0347 17.2855 17.3215 1.10143 2.28447 60.066
6491476 11.0632 13.5742 17.6005 17.7599 1.11272 2.68083 59.9978
6491498 10.7813 13.1966 17.9942 18.1691 1.07669 3.03916 60.1413
6491520 10.5083 12.6994 18.3781 18.5685 0.989717 3.42593 60.1542
6491527 10.2264 12.331 18.6833 18.9971 1.0037 3.76582 60.2378
6491539 10.2264 12.331 18.6833 18.9971 1.0037 3.76582 60.2378
6491547 9.9886 11.981 18.9195 19.3868 1.0202 4.06548 60.276
6491557 9.68912 11.6587 19.3034 19.7473 0.998974 4.39651 60.3985
6491567 9.68912 11.6587 19.3034 19.7473 0.998974 4.39651 60.3985
6491577 9.50414 11.4377 19.52 19.9226 0.967228 4.59574 60.3845
6491588 9.29275 11.1706 19.7562 20.2539 0.982055 4.84842 60.4735
6491598 9.29275 11.1706 19.7562 20.2539 0.982055 4.84842 60.4735
6491608 9.01969 10.9128 19.9236 20.4779 1.01413 5.08893 60.334
6491618 9.01969 10.9128 19.9236 20.4779 1.01413 5.08893 60.334
6491630 8.82591 10.6826 20.1106 20.6241 0.983566 5.28513 60.2431
6491638 8.68497 10.526 20.2976 20.8579 0.994459 5.45283 60.3665
6491649 8.68497 10.526 20.2976 20.8579 0.994459 5.45283 60.3665
6491658 8.53523 10.3787 20.3764 20.9553 1.0052 5.5816 60.2456
6491669 8.53523 10.3787 20.3961 20.9553 0.996703 5.58468 60.2653
6491678 8.41192 10.2681 20.3961 21.1404 1.07968 5.69355 60.2165
6491691 8.33264 10.1576 20.524 21.384 1.11134 5.81582 60.3983
6491698 8.33264 10.1576 20.524 21.384 1.11134 5.81582 60.3983
6491711 8.11244 9.94583 20.6914 21.5203 1.10435 6.01131 60.27
6491718 7.96269 9.85374 20.8489 21.6567 1.11854 6.13934 60.322
6491728 7.96269 9.85374 20.8489 21.6567 1.11854 6.13934 60.322
6491738 7.85699 9.66035 21.0851 21.8516 1.06271 6.30711 60.454
6491748 7.85699 9.66035 21.0851 21.8516 1.06271 6.30711 60.454
6491760 7.66321 9.52221 21.2229 22.0562 1.11314 6.4733 60.4645
6491768 7.56632 9.36566 21.3607 22.2023 1.09137 6.60329 60.495
6491778 7.56632 9.36566 21.3607 22.2023 1.09137 6.60329 60.495
6491789 7.42539 9.23673 21.5379 22.3971 1.10176 6.75105 60.5972
6491800 7.23161 8.99729 21.7939 22.6407 1.07664 6.97429 60.6634
6491808 7.23161 8.99729 21.7939 22.6407 1.07664 6.97429 60.6634
6491818 7.00259 8.7026 22.0892 23.0011 1.07408 7.25016 60.7955
6491839 6.73834 8.5 22.2959 23.2447 1.11489 7.47847 60.7789
6491849 6.57098 8.25135 22.4042 23.459 1.1268 7.67255 60.6855
6491861 6.57098 8.25135 22.4042 23.459 1.1268 7.67255 60.6855
6491870 6.44767 8.05796 22.5518 23.5662 1.08236 7.82179 60.6236
6491879 6.3772 7.97508 22.7192 23.6344 1.03495 7.9073 60.7058
6491889 6.3772 7.97508 22.7192 23.6344 1.03495 7.9073 60.7058
6491902 6.29793 7.83694 22.8373 23.7513 1.00991 8.01676 60.7234
6491911 6.30674 7.78169 22.9751 23.761 0.929266 8.05128 60.8246
6491921 6.30674 7.78169 22.9751 23.761 0.929266 8.05128 60.8246
6491931 6.31554 7.70802 22.916 23.6734 0.886688 8.05913 60.6129
6491943 6.31554 7.70802 22.916 23.6734 0.886688 8.05913 60.6129
6491951 6.39482 7.72644 23.0342 23.6149 0.786713 8.02887 60.7703
6491965 6.51813 7.80011 23.0145 23.537 0.741115 7.94316 60.8697
6491972 6.51813 7.80011 23.0145 23.537 0.741115 7.94316 60.8697
6491981 6.56218 7.85536 22.9456 23.5272 0.769758 7.89664 60.8903
6491991 6.56218 7.85536 22.9456 23.5272 0.769758 7.89664 60.8903
6492001 6.65907 7.82774 22.857 23.3811 0.696906 7.84306 60.7249
6492014 6.65907 7.7909 22.857 23.2642 0.635219 7.84314 60.5711
6492021 6.65907 7.7909 22.857 23.2642 0.635219 7.84314 60.5711
6492031 6.68549 7.73564 22.8078 23.0791 0.547802 7.82625 60.308
6492041 6.62383 7.6896 22.7782 23.0109 0.540087 7.85549 60.1025
6492051 6.62383 7.6896 22.7782 23.0109 0.540087 7.85549 60.1025
6492061 6.63264 7.65276 22.8767 23.0401 0.491497 7.88128 60.2022
6492072 6.63264 7.65276 22.8767 23.0401 0.491497 7.88128 60.2022
6492082 6.54456 7.56988 23.0145 23.0888 0.456539 7.9683 60.2177
6492092 6.56218 7.56988 23.1523 23.235 0.450423 7.9946 60.5193
6492107 6.56218 7.56988 23.1523 23.235 0.450423 7.9946 60.5193
6492112 6.51813 7.57909 23.2803 23.235 0.418916 8.02261 60.6124
6492122 6.53575 7.56988 23.2803 23.2739 0.423592 8.0239 60.6598
6492142 6.5886 7.63434 23.2803 23.1862 0.392053 7.96932 60.6894
6492152 6.59741 7.63434 23.2015 23.1862 0.421348 7.95684 60.6195
6492162 6.59741 7.67118 23.2015 23.1862 0.436276 7.9429 60.6563
6492172 6.65026 7.70802 23.0145 23.0011 0.432482 7.86532 60.3739
6492182 6.65026 7.70802 23.0145 23.0011 0.432482 7.86532 60.3739
6492192 6.68549 7.73564 22.9456 23.0304 0.469789 7.83684 60.3971
6492202 6.78238 7.84615 22.7585 22.9622 0.52503 7.72806 60.3493
6492215 6.78238 7.84615 22.7585 22.9622 0.52503 7.72806 60.3493
6492222 6.86166 7.98429 22.5814 22.8355 0.571167 7.6094 60.2628
6492243 7.0114 8.07638 22.3746 22.7479 0.597155 7.48246 60.2103
6492253 7.24922 8.28819 22.0104 22.592 0.673649 7.24935 60.1398
6492263 7.24922 8.28819 22.0104 22.592 0.673649 7.24935 60.1398
6492283 7.48705 8.54605 21.6561 22.2705 0.697732 6.97805 59.9596
6492285 7.77772 8.88678 21.3804 22.0075 0.722739 6.67502 60.0524
6492305 8.0772 9.21831 21.2426 21.6957 0.661668 6.38581 60.2338
6492315 8.24456 9.45775 20.967 21.4132 0.690457 6.161 60.0825
6492324 8.24456 9.45775 20.967 21.4132 0.690457 6.161 60.0825
6492334 8.3943 9.66035 20.8686 21.2573 0.687429 5.99975 60.1805
6492344 8.3943 9.66035 20.8686 21.2573 0.687429 5.99975 60.1805
6492354 8.45596 9.78006 20.7209 20.9943 0.666156 5.87457 59.9512
6492365 8.6057 9.9182 20.6815 20.8968 0.635508 5.75381 60.1023
6492375 8.6057 9.9182 20.6815 20.8968 0.635508 5.75381 60.1023
6492385 8.72021 10.0471 20.6126 20.7994 0.628838 5.6443 60.1794
6492395 8.72021 10.0471 20.6126 20.7994 0.628838 5.6443 60.1794
6492405 8.79948 10.1484 20.4748 20.5851 0.607935 5.52728 60.0078
6492415 8.87876 10.2589 20.3567 20.5266 0.645664 5.4345 60.021
6492425 8.87876 10.2589 20.3567 20.5266 0.645664 5.4345 60.021
6492437 9.06373 10.4155 20.15 20.361 0.651282 5.2588 59.9902
6492445 9.15181 10.526 20.0417 20.2734 0.669184 5.15992 59.9929
6492457 9.15181 10.526 20.0417 20.2734 0.669184 5.15992 59.9929
6492465 9.31036 10.6918 19.835 20.137 0.701714 4.99461 59.9741
6492475 9.31036 10.6918 19.835 20.137 0.701714 4.99461 59.9741
6492484 9.3456 10.8575 19.5594 19.9032 0.777557 4.84183 59.6656
6492494 9.52176 11.0878 19.3526 19.7668 0.828797 4.64847 59.7289
6492504 9.52176 11.0878 19.3526 19.7668 0.828797 4.64847 59.7289
6492514 9.81244 11.3088 19.0278 19.4648 0.810763 4.37097 59.6138
6492525 10.0591 11.6219 18.8112 19.1335 0.790393 4.09147 59.6257
6492537 10.0591 11.6219 18.8112 19.1335 0.790393 4.09147 59.6257
6492545 10.4114 11.9074 18.4273 18.7536 0.765643 3.74678 59.4997
6492556 10.4114 11.9074 18.4273 18.7536 0.765643 3.74678 59.4997
6492569 10.7637 12.4139 18.0237 18.286 0.803682 3.31132 59.4873
6492576 11.2834 12.8835 17.5906 17.7891 0.755125 2.82454 59.5467
6492596 11.6093 13.3256 17.1181 17.2923 0.796351 2.39501 59.3453
6492606 12.0321 13.7308 16.6673 16.8572 0.796372 1.96372 59.2874
6492626 12.3228 14.0715 16.345 16.4574 0.786024 1.62376 59.1967
6492636 12.3228 14.0715 16.345 16.4574 0.786024 1.62376 59.1967
6492647 12.7016 14.4215 15.9498 16.0006 0.749326 1.22578 59.0734
6492656 13.0187 14.9372 15.6691 15.5532 0.761509 0.827964 59.1781
6492666 13.0187 14.9372 15.6691 15.5532 0.761509 0.827964 59.1781
6492691 13.3886 15.2595 15.2636 15.1153 0.729585 0.43985 59.027
6492692 13.6793 15.5542 14.9725 14.7536 0.702202 0.12534 58.9596
6492697 13.6793 15.5542 14.9725 14.7536 0.702202 0.12534 58.9596
6492710 13.9435 15.8581 14.7125 14.43 0.692192 -0.167713 58.9441
6492717 13.9435 15.8581 14.7125 14.43 0.692192 -0.167713 58.9441
6492733 14.2078 16.0791 14.411 14.0493 0.64241 -0.466383 58.7471
6492746 14.4896 16.3922 14.2135 13.8113 0.636777 -0.727526 58.9066
6492749 14.4896 16.3922 14.2135 13.8113 0.636777 -0.727526 58.9066
6492758 14.886 16.6777 13.8599 13.4686 0.594467 -1.07869 58.8923
6492767 15.2031 17 13.5688 13.1736 0.59447 -1.38961 58.9455
6492777 15.2031 17 13.5688 13.1736 0.59447 -1.38961 58.9455
6492787 15.4585 17.2918 13.2153 12.7548 0.584415 -1.732 58.7204
6492797 15.4585 17.2918 13.2153 12.7548 0.584415 -1.732 58.7204
6492807 15.7404 17.4765 12.841 12.4311 0.566894 -2.03752 58.4891
6492817 15.9606 17.7683 12.5914 12.2122 0.61011 -2.28726 58.5326
6492837 16.128 17.9531 12.3523 11.9457 0.607455 -2.51368 58.3791
6492847 16.3482 18.1184 12.1859 11.6697 0.537515 -2.72907 58.3222
6492860 16.3482 18.1184 12.1859 11.6697 0.537515 -2.72907 58.3222
6492867 16.586 18.3324 12.1028 11.5364 0.503784 -2.88927 58.5575
6492877 16.586 18.3324 12.1028 11.5364 0.503784 -2.88927 58.5575
6492897 16.771 18.488 11.9364 11.4127 0.509 -3.0482 58.608
6492899 16.8767 18.6825 11.822 11.308 0.550249 -3.1767 58.6891
6492908 16.8767 18.6825 11.822 11.308 0.550249 -3.1767 58.6891
6492918 16.9648 18.8186 11.6141 11.089 0.568011 -3.3547 58.4865
6492928 17.0698 18.877 11.4893 10.9748 0.553304 -3.46237 58.4109
6492938 17.0698 18.877 11.4893 10.9748 0.553304 -3.46237 58.4109
6492948 17.1694 18.9743 11.3749 10.8511 0.548658 -3.5766 58.3696
6492958 17.1694 18.9743 11.3749 10.8511 0.548658 -3.5766 58.3696
6492969 17.279 19.0229 11.2917 10.7368 0.509581 -3.67046 58.3305
6492978 17.279 19.091 11.2606 10.7368 0.551781 -3.69365 58.3674
6492989 17.279 19.091 11.2606 10.7368 0.551781 -3.69365 58.3674
6492998 17.4185 19.1785 11.1982 10.6607 0.522828 -3.78187 58.4559
6493009 17.4185 19.1785 11.1982 10.6607 0.522828 -3.78187 58.4559
6493018 17.3388 19.2077 11.1982 10.6036 0.545979 -3.79053 58.3482
6493030 17.4584 19.3244 11.2294 10.7273 0.58051 -3.78606 58.7394
6493038 17.4584 19.3244 11.2294 10.7273 0.58051 -3.78606 58.7394
6493050 17.4484 19.3146 11.219 10.7178 0.581381 -3.78867 58.6998
6493061 17.4982 19.4022 11.1462 10.6607 0.604033 -3.85647 58.7073
6493071 17.4982 19.4022 11.1462 10.6607 0.604033 -3.85647 58.7073
6493078 17.4883 19.4411 11.1566 10.6988 0.635794 -3.84641 58.7847
6493088 17.4883 19.4411 11.1566 10.6988 0.635794 -3.84641 58.7847
6493098 17.4385 19.3535 11.0422 10.6607 0.655437 -3.86934 58.4949
6493108 17.4783 19.3924 11.0318 10.6892 0.670567 -3.87845 58.5918
6493118 17.4783 19.3924 11.0318 10.6892 0.670567 -3.87845 58.5918
6493128 17.4783 19.4314 10.9486 10.5941 0.683668 -3.94346 58.4523
6493138 17.3587 19.4216 11.0214 10.6131 0.708118 -3.88921 58.4149
6493148 17.3587 19.4216 11.0214 10.6131 0.708118 -3.88921 58.4149
6493158 17.3488 19.4411 10.9902 10.6321 0.742239 -3.89495 58.4122
6493170 17.3488 19.4411 10.9902 10.6321 0.742239 -3.89495 58.4122
6493178 17.2691 19.3535 11.0734 10.7368 0.747845 -3.80241 58.4328
6493188 17.2691 19.4314 11.1358 10.832 0.791973 -3.76676 58.6682
6493200 17.2691 19.4314 11.1358 10.832 0.791973 -3.76676 58.6682
6493210 17.2093 19.3244 11.2502 10.813 0.715891 -3.70425 58.5968
6493220 17.1993 19.2466 11.3021 10.9272 0.712544 -3.63437 58.6752
6493239 17.0498 19.1007 11.3749 11.0224 0.725192 -3.52358 58.5478
6493260 16.8855 18.9451 11.4893 11.1937 0.75368 -3.37038 58.5136
6493269 16.815 18.8381 11.6453 11.327 0.726992 -3.24455 58.6254
6493281 16.815 18.8381 11.6453 11.327 0.726992 -3.24455 58.6254
6493292 16.7093 18.77 11.8532 11.5649 0.752339 -3.07174 58.8975
6493301 16.4539 18.5561 12.0612 11.7363 0.75556 -2.85997 58.8074
6493321 16.3306 18.3227 12.2067 11.8886 0.712329 -2.69571 58.7485
6493331 16.3306 18.3227 12.2067 11.8886 0.712329 -2.69571 58.7485
6493342 16.0223 18.0017 12.5602 12.1932 0.68579 -2.36585 58.7774
6493351 15.7845 17.7197 12.8202 12.5073 0.68939 -2.08477 58.8316
6493371 15.4762 17.4668 13.1529 12.8499 0.715783 -1.76606 58.9458
6493384 15.071 17.1264 13.6936 13.2307 0.673422 -1.33787 59.1217
6493391 15.071 17.1264 13.6936 13.2307 0.673422 -1.33787 59.1217
6493405 14.6394 16.7329 14.1615 13.5924 0.644585 -0.917985 59.1262
6493411 14.6394 16.7329 14.1615 13.5924 0.644585 -0.917985 59.1262
6493421 14.1285 16.2817 14.8061 14.1445 0.628167 -0.368832 59.3608
6493431 13.5912 15.9225 15.5755 14.8108 0.653821 0.218503 59.9
6493452 13.2212 15.5818 16.0954 15.4295 0.702241 0.676757 60.3279
6493462 12.6927 15.1398 16.6257 15.9054 0.715125 1.16756 60.3636
6493472 12.6927 15.1398 16.6257 15.9054 0.715125 1.16756 60.3636
6493482 12.2523 14.7346 17.0295 16.4003 0.766769 1.59963 60.4168
6493513 11.7855 14.2373 17.4134 16.8858 0.797436 2.05807 60.322
6493515 11.3187 13.7216 17.8564 17.3117 0.771594 2.52322 60.2084
6493522 11.3187 13.7216 17.8564 17.3117 0.771594 2.52322 60.2084
6493537 10.9399 13.3256 18.073 17.8086 0.88172 2.89692 60.147
6493542 10.5699 12.8835 18.4273 18.1983 0.867411 3.2887 60.0791
6493552 10.5699 12.8835 18.4273 18.1983 0.867411 3.2887 60.0791
6493562 10.244 12.5796 18.7817 18.4905 0.850487 3.60638 60.0959
6493572 10.244 12.5796 18.7817 18.4905 0.850487 3.60638 60.0959
6493585 9.86528 12.1836 19.077 18.9192 0.899547 3.98382 60.0451
6493592 9.60984 11.8521 19.4511 19.2212 0.836629 4.29298 60.1342
6493602 9.60984 11.8521 19.4511 19.2212 0.836629 4.29298 60.1342
6493612 9.3456 11.5758 19.8547 19.494 0.775495 4.58616 60.2701
6493622 9.09016 11.3548 20.1204 19.7668 0.79186 4.83379 60.3322
6493633 9.09016 11.3548 20.1204 19.7668 0.79186 4.83379 60.3322
6493642 8.90518 11.1154 20.3468 20.0883 0.807044 5.06517 60.4557
6493654 8.90518 11.1154 20.3468 20.0883 0.807044 5.06517 60.4557
6493662 8.66736 10.8667 20.5929 20.2831 0.781965 5.29926 60.4101
6493677 8.37668 10.6549 20.8686 20.4682 0.777677 5.54226 60.3684
6493685 8.37668 10.6549 20.8686 20.4682 0.777677 5.54226 60.3684
6493692 8.21813 10.4063 21.1147 20.7799 0.765646 5.76765 60.519
6493704 8.21813 10.4063 21.1147 20.7799 0.765646 5.76765 60.519
6493713 7.94508 10.1484 21.3312 20.9553 0.756639 6.01018 60.38
6493726 7.8658 10.0471 21.4887 21.1794 0.772515 6.12943 60.581
6493732 7.8658 10.0471 21.4887 21.1794 0.772515 6.12943 60.581
6493742 7.66321 9.84453 21.597 21.3742 0.809598 6.31545 60.4789
6493752 7.50466 9.69718 21.8332 21.608 0.81102 6.49029 60.6431
6493762 7.50466 9.69718 21.8332 21.608 0.81102 6.49029 60.6431
6493772 7.3285 9.45775 21.9317 21.8029 0.826344 6.6791 60.5208
6493782 7.3285 9.45775 21.9317 21.8029 0.826344 6.6791 60.5208
6493794 7.09948 9.2091 22.1876 22.0562 0.816718 6.92009 60.5524
6493802 6.85285 9.1078 22.3549 22.2802 0.899497 7.09814 60.5958
6493813 6.85285 9.1078 22.3549 22.2802 0.899497 7.09814 60.5958
6493822 6.74715 8.86836 22.5223 22.5238 0.874814 7.27739 60.6616
6493835 6.59741 8.68418 22.6798 22.7868 0.902826 7.45331 60.7482
6493855 6.50933 8.55525 22.7093 22.9817 0.953934 7.56138 60.7556
6493863 6.50933 8.55525 22.7093 22.9817 0.953934 7.56138 60.7556
6493877 6.34197 8.42633 22.7389 23.1765 1.039 7.69904 60.6837
6493883 6.29793 8.23294 22.7881 23.4006 1.04889 7.82066 60.7195
6493895 6.29793 8.23294 22.7881 23.4006 1.04889 7.82066 60.7195
6493904 6.13057 8.14085 22.7782 23.5467 1.14642 7.93452 60.5964
6493913 6.0601 8.03034 22.7684 23.7513 1.21809 8.0257 60.6101
6493923 6.0601 8.03034 22.7684 23.7513 1.21809 8.0257 60.6101
6493933 5.98964 7.80932 22.8964 23.8877 1.15998 8.16692 60.583
6493955 5.89275 7.73564 22.9357 24.0338 1.21332 8.25304 60.5979
6493965 5.88394 7.64355 22.9653 24.0728 1.18348 8.29941 60.5655
6493975 5.88394 7.64355 22.9653 24.0728 1.18348 8.29941 60.5655
6493986 5.93679 7.62514 22.9948 24.0143 1.11765 8.28297 60.571
6494002 5.98964 7.64355 23.172 23.9851 1.01457 8.27202 60.7903
6494013 5.98964 7.64355 23.172 23.9851 1.01457 8.27202 60.7903
6494015 5.98964 7.62514 23.172 23.8974 0.972638 8.26936 60.6842
6494024 5.98964 7.62514 23.172 23.8974 0.972638 8.26936 60.6842
6494034 6.07772 7.55146 23.1523 23.5954 0.79371 8.22795 60.3769
6494044 6.19223 7.6896 23.0834 23.3811 0.743654 8.09892 60.3463
6494064 6.34197 7.86457 23.0046 23.1375 0.685808 7.93777 60.3487
6494074 6.41244 7.8922 22.8964 22.9817 0.650135 7.86939 60.1827
6494085 6.41244 7.8922 22.8964 22.9817 0.650135 7.86939 60.1827
6494094 6.57098 8.12243 22.8767 22.8842 0.644711 7.70851 60.4543
6494106 6.57098 8.12243 22.8767 22.8842 0.644711 7.70851 60.4543
6494116 6.61503 8.16847 22.8078 22.8063 0.642407 7.65691 60.3976
6494126 6.74715 8.32503 22.7684 22.7089 0.626916 7.5323 60.5494
6494136 6.74715 8.32503 22.7684 22.7089 0.626916 7.5323 60.5494
6494146 6.78238 8.45395 22.6503 22.6699 0.698203 7.45184 60.5565
6494156 6.84404 8.52763 22.542 22.6212 0.728014 7.38207 60.5349
6494166 6.84404 8.52763 22.542 22.6212 0.728014 7.38207 60.5349
6494176 6.93212 8.57367 22.3746 22.553 0.75286 7.30271 60.4334
6494186 6.93212 8.57367 22.3746 22.553 0.75286 7.30271 60.4334
6494196 7.0114 8.62893 22.2762 22.4458 0.740185 7.22678 60.3624
6494207 7.04663 8.73023 22.1187 22.3874 0.809634 7.1486 60.283
6494216 7.04663 8.73023 22.1187 22.3874 0.809634 7.1486 60.283
6494228 7.12591 8.8039 22.0892 22.3777 0.813982 7.0874 60.3966
6494236 7.2228 8.77627 22.04 22.2997 0.751272 7.04537 60.3387
6494248 7.2228 8.77627 22.04 22.2997 0.751272 7.04537 60.3387
6494256 7.33731 8.89599 21.9218 22.2218 0.769594 6.93402 60.3769
6494277 7.40777 9.01571 21.7643 22.1536 0.827456 6.83472 60.3414
6494290 7.53109 9.14464 21.6364 21.9977 0.818646 6.70497 60.3098
6494297 7.53109 9.14464 21.6364 21.9977 0.818646 6.70497 60.3098
6494310 7.6456 9.25515 21.5773 21.7931 0.757152 6.58765 60.2712
6494317 7.70725 9.36566 21.5478 21.6372 0.725165 6.50008 60.2579
6494327 7.70725 9.36566 21.5478 21.6372 0.725165 6.50008 60.2579
6494337 7.81295 9.52221 21.4986 21.4034 0.669912 6.36654 60.2372
6494347 7.81295 9.52221 21.4986 21.4034 0.669912 6.36654 60.2372
6494357 7.95389 9.69718 21.2721 21.043 0.63124 6.16949 59.9662
6494367 8.23575 10.0932 21.0064 20.5364 0.579339 5.8159 59.8717
6494377 8.23575 10.0932 21.0064 20.5364 0.579339 5.8159 59.8717
6494387 8.63212 10.5997 20.652 19.9811 0.541487 5.3624 59.8649
6494397 8.63212 10.5997 20.652 19.9811 0.541487 5.3624 59.8649
6494407 8.94922 10.9312 20.2287 19.4648 0.511137 4.98869 59.5739
6494421 9.31036 11.3548 19.9137 18.9776 0.465265 4.59047 59.5566
6494428 9.31036 11.3548 19.9137 18.9776 0.465265 4.59047 59.5566
6494438 9.66269 11.7969 19.5889 18.549 0.459027 4.19774 59.5974
6494447 9.94456 12.2021 19.1951 18.1009 0.48922 3.82286 59.4426
6494460 9.94456 12.2021 19.1951 18.1009 0.48922 3.82286 59.4426
6494467 10.385 12.6257 18.89 17.6917 0.43731 3.41596 59.5923
6494487 10.7109 12.9572 18.4273 17.3117 0.475845 3.04786 59.4072
6494497 11.1425 13.3808 18.0139 16.9429 0.490639 2.63117 59.4801
6494507 11.1425 13.3808 18.0139 16.9429 0.490639 2.63117 59.4801
6494518 11.4596 13.7031 17.6694 16.5241 0.462574 2.28217 59.3562
6494528 11.7767 14.0163 17.315 16.2576 0.497818 1.96569 59.3655
6494539 11.7767 14.0163 17.315 16.2576 0.497818 1.96569 59.3655
6494548 12.0674 14.2557 17.0098 15.8292 0.425828 1.65208 59.1621
6494558 12.0674 14.2557 17.0098 15.8292 0.425828 1.65208 59.1621
6494568 12.2699 14.4951 16.7401 15.6198 0.467202 1.4194 59.125
6494578 12.5342 14.7438 16.5321 15.4104 0.459251 1.18149 59.2205
6494588 12.5342 14.7438 16.5321 15.4104 0.459251 1.18149 59.2205
6494600 12.7016 14.9464 16.3242 15.2391 0.489661 0.991868 59.2112
6494608 12.8425 15.1306 16.1994 15.0106 0.464368 0.820416 59.1831
6494620 12.8425 15.1306 16.1994 15.0106 0.464368 0.820416 59.1831
6494628 12.9922 15.3332 16.0538 14.8298 0.471589 0.6481 59.209
6494641 12.9922 15.3332 16.0538 14.8298 0.471589 0.6481 59.209
6494648 13.0275 15.416 15.9498 14.7346 0.496098 0.568501 59.1279
6494667 13.1155 15.545 15.9187 14.706 0.513116 0.496969 59.2852
6494669 13.1155 15.545 15.9187 14.706 0.513116 0.496969 59.2852
6494682 13.2741 15.6831 15.8667 14.5823 0.473288 0.376673 59.4062
6494690 13.3446 15.8397 15.7315 14.4015 0.491026 0.239916 59.3172
6494699 13.3446 15.8397 15.7315 14.4015 0.491026 0.239916 59.3172
6494709 13.556 15.941 15.5755 14.2682 0.454012 0.0876671 59.3406
6494730 13.6352 16.0515 15.4404 14.0683 0.440985 -0.0451103 59.1954
6494740 13.8378 16.1896 15.274 13.9636 0.439286 -0.199902 59.265
6494750 13.8378 16.1896 15.274 13.9636 0.439286 -0.199902 59.265
6494760 13.9964 16.3922 14.9621 13.6781 0.470874 -0.444303 59.0287
6494769 14.2342 16.6501 14.7125 13.3639 0.452533 -0.714314 58.9607
6494790 14.5513 16.954 14.3902 13.1165 0.478253 -1.01638 59.0119
6494801 14.5513 16.954 14.3902 13.1165 0.478253 -1.01638 59.0119
6494811 14.886 17.2042 13.9951 12.7452 0.454 -1.36406 58.8306
6494821 15.2736 17.6224 13.5688 12.374 0.49035 -1.7726 58.8388
6494832 15.2736 17.6224 13.5688 12.374 0.49035 -1.7726 58.8388
6494841 15.6171 17.9239 13.1217 11.9647 0.490311 -2.16313 58.6274
6494851 15.9606 18.2157 12.7474 11.6125 0.47842 -2.51546 58.5362
6494861 15.9606 18.2157 12.7474 11.6125 0.47842 -2.51546 58.5362
6494872 16.3482 18.595 12.3731 11.2413 0.476032 -2.90195 58.5576
6494881 16.3482 18.595 12.3731 11.2413 0.476032 -2.90195 58.5576
6494892 16.7269 18.8867 11.9676 10.8225 0.434351 -3.29351 58.4038
6494901 17.0897 19.1785 11.6869 10.4132 0.349149 -3.64105 58.3682
6494911 17.0897 19.1785 11.6869 10.4132 0.349149 -3.64105 58.3682
6494921 17.4385 19.4411 11.3541 9.9944 0.276026 -4.00091 58.2281
6494936 17.6676 19.5772 11.1774 9.76596 0.214037 -4.20228 58.1882
6494946 17.6676 19.5772 11.1774 9.76596 0.214037 -4.20228 58.1882
6494954 18.0064 19.7231 11.0526 9.58511 0.106728 -4.39249 58.3673
6494974 18.2057 19.8301 10.9278 9.31859 0.00648201 -4.57843 58.2823
6494982 18.3851 19.8495 10.8239 9.15677 -0.0870243 -4.70341 58.2153
6495002 18.5545 20.0635 10.7095 8.9664 -0.100391 -4.87413 58.2939
6495012 18.6143 20.083 10.6159 8.89978 -0.10628 -4.94261 58.2129
6495022 18.6143 20.083 10.6159 8.89978 -0.10628 -4.94261 58.2129
6495033 18.7239 20.1997 10.6575 8.87122 -0.132814 -4.9771 58.4523
6495044 18.7239 20.1997 10.6575 8.87122 -0.132814 -4.9771 58.4523
6495053 18.8734 20.2386 10.5847 8.81411 -0.173229 -5.05372 58.5108
6495063 18.973 20.2872 10.5431 8.78555 -0.189209 -5.1029 58.5889
6495073 18.973 20.2872 10.5431 8.78555 -0.189209 -5.1029 58.5889
6495083 19.0328 20.2775 10.5431 8.73796 -0.239167 -5.12768 58.5914
6495093 19.0727 20.3164 10.5119 8.72844 -0.230175 -5.15492 58.6294
6495110 19.0727 20.3164 10.5119 8.72844 -0.230175 -5.15492 58.6294
6495124 19.0826 20.2969 10.5327 8.74748 -0.243345 -5.13965 58.6598
6495147 19.0229 20.3164 10.4391 8.77604 -0.157805 -5.15522 58.5544
6495148 18.993 20.2775 10.5015 8.77604 -0.188304 -5.12217 58.548
6495153 18.993 20.2775 10.5015 8.77604 -0.188304 -5.12217 58.548
6495164 18.8834 20.2386 10.4391 8.84266 -0.103277 -5.09559 58.4037
6495173 18.9232 20.1997 10.5223 8.98544 -0.111049 -5.01831 58.6306
6495194 18.7438 20.151 10.6159 9.014 -0.0831768 -4.93765 58.5248
6495215 18.6542 19.9079 10.8343 9.09966 -0.205509 -4.77678 58.496
6495224 18.5047 19.869 10.959 9.29955 -0.125857 -4.63442 58.6323
6495234 18.5047 19.869 10.959 9.29955 -0.125857 -4.63442 58.6323
6495245 18.3154 19.7523 11.167 9.46137 -0.114433 -4.45669 58.696
6495254 18.2057 19.6259 11.4061 9.69933 -0.121602 -4.25696 58.937
6495276 18.0264 19.4703 11.5621 9.91825 -0.0847578 -4.07353 58.977
6495287 17.7773 19.2271 11.8012 10.0991 -0.107062 -3.84623 58.9047
6495298 17.7773 19.2271 11.8012 10.0991 -0.107062 -3.84623 58.9047
6495309 17.5979 19.0715 11.978 10.2514 -0.10737 -3.6775 58.8988
6495326 17.2591 18.8284 12.1443 10.3561 -0.0934273 -3.47862 58.5879
6495336 17.0399 18.5463 12.3211 10.6226 -0.0820085 -3.24 58.5299
6495346 17.0399 18.5463 12.3211 10.6226 -0.0820085 -3.24 58.5299
6495356 16.7534 18.3713 12.685 10.9653 -0.0433087 -2.92838 58.775
6495366 16.7534 18.3713 12.685 10.9653 -0.0433087 -2.92838 58.775
6495376 16.4451 18.0601 13.0593 11.4127 -0.0134304 -2.55179 58.9771
6495386 16.128 17.9239 13.496 11.6411 -0.0249192 -2.25923 59.189
6495396 16.128 17.9239 13.496 11.6411 -0.0249192 -2.25923 59.189
6495406 15.758 17.7002 13.7872 12.0123 0.0706077 -1.93868 59.2577
6495416 15.256 17.3112 14.2239 12.3455 0.074771 -1.52136 59.1365
6495428 15.256 17.3112 14.2239 12.3455 0.074771 -1.52136 59.1365
6495436 14.6834 16.9355 14.8581 12.9642 0.150645 -0.958094 59.4412
6495453 14.6834 16.9355 14.8581 12.9642 0.150645 -0.958094 59.4412
6495456 14.0492 16.4935 15.5651 13.5733 0.189543 -0.352935 59.6812
6495466 13.4503 15.987 16.3242 14.2682 0.200224 0.288633 60.0296
6495479 13.4503 15.987 16.3242 14.2682 0.200224 0.288633 60.0296
6495486 12.8073 15.3516 17.128 15.0202 0.180951 0.992249 60.3069
6495496 12.1026 14.7069 17.9155 15.8102 0.20611 1.71375 60.5352
6495507 12.1026 14.7069 17.9155 15.8102 0.20611 1.71375 60.5352
6495516 11.4596 13.9978 18.634 16.7049 0.25048 2.43803 60.7964
6495537 10.8254 13.2519 19.3231 17.4287 0.218669 3.12543 60.829
6495547 10.2617 12.6349 19.7661 18.1301 0.303179 3.701 60.7927
6495558 10.2617 12.6349 19.7661 18.1301 0.303179 3.701 60.7927
6495569 9.78601 12.0363 20.1697 18.5977 0.279886 4.19503 60.5897
6495577 9.39845 11.539 20.5043 18.9679 0.250012 4.60228 60.4097
6495591 9.39845 11.539 20.5043 18.9679 0.250012 4.60228 60.4097
6495598 8.95803 11.0878 20.9572 19.5622 0.303289 5.07063 60.5651
6495607 8.95803 11.0878 20.9572 19.5622 0.303289 5.07063 60.5651
6495617 8.5 10.5076 21.3411 20.0103 0.280342 5.55273 60.359
6495627 8.10363 10.0932 21.725 20.5364 0.331214 5.97055 60.4581
6495638 8.10363 10.0932 21.725 20.5364 0.331214 5.97055 60.4581
6495648 7.81295 9.79848 22.0498 20.8189 0.311941 6.26419 60.4801
6495657 7.50466 9.47616 22.1876 21.1501 0.387129 6.55443 60.3186
6495669 7.50466 9.47616 22.1876 21.1501 0.387129 6.55443 60.3186
6495680 7.31969 9.29198 22.4731 21.4814 0.40476 6.7718 60.5661
6495688 7.31969 9.29198 22.4731 21.4814 0.40476 6.7718 60.5661
6495700 7.1171 9.13543 22.6699 21.6665 0.418746 6.95273 60.589
6495708 6.91451 8.86836 22.916 21.9977 0.426516 7.19913 60.6966
6495721 6.91451 8.86836 22.916 21.9977 0.426516 7.19913 60.6966
6495728 6.74715 8.64735 23.0243 22.1926 0.440687 7.38039 60.6114
6495740 6.55337 8.52763 23.2113 22.3874 0.473925 7.54397 60.6797
6495751 6.55337 8.52763 23.2113 22.3874 0.473925 7.54397 60.6797
6495761 6.47409 8.32503 23.2901 22.4166 0.403869 7.6623 60.5058
6495768 6.47409 8.32503 23.2901 22.4166 0.403869 7.6623 60.5058
6495778 6.40363 8.35265 23.3787 22.5628 0.466692 7.70667 60.6977
6495788 6.36839 8.23294 23.4378 22.6504 0.443742 7.78228 60.6895
6495808 6.28912 8.12243 23.6248 22.7771 0.405174 7.89061 60.8134
6495818 6.07772 8.00271 23.7035 23.0109 0.506762 8.05183 60.7948
6495828 6.07772 8.00271 23.7035 23.0109 0.506762 8.05183 60.7948
6495838 5.99845 7.81853 23.8217 23.196 0.490844 8.18629 60.8346
6495848 5.99845 7.81853 23.8217 23.196 0.490844 8.18629 60.8346
6495859 5.83109 7.64355 23.8315 23.3811 0.561097 8.33897 60.6872
6495871 5.74301 7.59751 23.9988 23.4785 0.548428 8.41945 60.8179
6495880 5.74301 7.59751 23.9988 23.4785 0.548428 8.41945 60.8179
6495890 5.58446 7.45016 24.117 23.6539 0.576681 8.56902 60.8055
6495899 5.50518 7.30282 24.2646 23.839 0.563103 8.69184 60.9116
6495910 5.50518 7.30282 24.2646 23.839 0.563103 8.69184 60.9116
6495920 5.37306 7.17389 24.4615 24.141 0.605202 8.84445 61.1494
6495932 5.37306 7.17389 24.4615 24.141 0.605202 8.84445 61.1494
6495947 5.15285 6.96208 24.6091 24.3261 0.624958 9.04673 61.0502
6495951 5.04715 6.85157 24.7273 24.5307 0.657248 9.16316 61.1567
6495970 5.04715 6.85157 24.7273 24.5307 0.657248 9.16316 61.1567
6495971 4.87098 6.71343 24.619 24.6573 0.772569 9.28971 60.8607
6495982 4.79171 6.60293 24.6288 24.8424 0.831658 9.38373 60.8659
6496002 4.77409 6.53846 24.5402 24.9593 0.897616 9.41926 60.8121
6496022 4.76529 6.52925 24.5796 24.9691 0.884816 9.431 60.8432
6496032 4.72124 6.44637 24.6387 25.008 0.86101 9.49096 60.8143
6496044 4.72124 6.44637 24.6387 25.008 0.86101 9.49096 60.8143
6496052 4.72124 6.36349 24.7076 24.9691 0.783277 9.52708 60.7614
6496066 4.71244 6.38191 24.7273 24.9593 0.782117 9.5241 60.7809
6496072 4.71244 6.38191 24.7273 24.9593 0.782117 9.5241 60.7809
6496082 4.77409 6.43716 24.6977 24.8911 0.763339 9.46814 60.8001
6496092 4.77409 6.43716 24.6977 24.8911 0.763339 9.46814 60.8001
6496102 4.81813 6.45558 24.6682 24.8132 0.733444 9.4332 60.7551
6496112 4.84456 6.49242 24.6584 24.745 0.713891 9.4006 60.7403
6496122 4.84456 6.49242 24.6584 24.745 0.713891 9.4006 60.7403
6496132 5.00311 6.5753 24.6288 24.6573 0.657466 9.29303 60.8646
6496142 5.05596 6.63055 24.5796 24.5599 0.639063 9.2361 60.826
6496152 5.05596 6.63055 24.5796 24.5599 0.639063 9.2361 60.826
6496164 5.11762 6.70423 24.5206 24.4138 0.608912 9.16264 60.7562
6496183 5.24974 6.76869 24.4615 24.2871 0.553161 9.06664 60.767
6496195 5.32021 6.76869 24.3729 24.1702 0.513664 9.01856 60.632
6496215 5.40829 6.86078 24.4123 24.1702 0.497282 8.95131 60.8515
6496224 5.46995 6.86078 24.2942 24.1117 0.497407 8.90941 60.7366
6496236 5.46995 6.86078 24.2942 24.1117 0.497407 8.90941 60.7366
6496243 5.46995 6.8792 24.2252 24.0436 0.506267 8.88837 60.6179
6496268 5.50518 6.91603 24.1957 23.9559 0.483307 8.84812 60.5728
6496279 5.61088 7.01733 24.1268 23.9364 0.500906 8.75783 60.6914
6496287 5.61088 7.01733 24.1268 23.9364 0.500906 8.75783 60.6914
6496294 5.6285 6.9805 24.1563 23.9169 0.458357 8.76638 60.6822
6496305 5.6285 7.03575 24.176 23.8585 0.448808 8.74076 60.6987
6496314 5.6285 7.03575 24.176 23.8585 0.448808 8.74076 60.6987
6496324 5.68135 7.06338 24.1563 23.8195 0.430322 8.70325 60.7206
6496337 5.68135 7.06338 24.1563 23.8195 0.430322 8.70325 60.7206
6496344 5.7342 7.03575 24.0973 23.7026 0.374305 8.67509 60.5698
6496357 5.79586 7.03575 24.0284 23.6928 0.373378 8.64277 60.5528
6496378 5.79586 7.03575 24.0284 23.6928 0.373378 8.64277 60.5528
6496380 5.89275 7.14626 23.9201 23.6344 0.399303 8.54435 60.5935
6496384 5.9544 7.25677 23.8906 23.4201 0.343621 8.45136 60.5218
6496403 5.9544 7.25677 23.8906 23.4201 0.343621 8.45136 60.5218
6496406 6.04249 7.37649 23.9595 23.4201 0.326732 8.37863 60.7985
6496416 6.04249 7.37649 23.9595 23.4201 0.326732 8.37863 60.7985
6496429 6.07772 7.42254 23.9792 23.2642 0.259224 8.33251 60.7436
6496439 6.12176 7.487 23.9004 23.0888 0.228414 8.26277 60.598
6496457 6.30674 7.6896 23.7626 22.7186 0.140092 8.05709 60.4776
6496467 6.51813 7.90141 23.5362 22.2023 0.0205189 7.80917 60.158
6496476 6.51813 7.90141 23.5362 22.2023 0.0205189 7.80917 60.158
6496486 6.82643 8.30661 23.1818 21.608 -0.0390559 7.42374 59.9229
6496496 6.82643 8.30661 23.1818 21.608 -0.0390559 7.42374 59.9229
6496506 7.31088 8.86836 22.6503 20.9845 -0.0452444 6.88523 59.814
6496516 7.95389 9.43012 22.1679 20.2928 -0.166619 6.28545 59.8448
6496526 7.95389 9.43012 22.1679 20.2928 -0.166619 6.28545 59.8448
6496536 8.62332 9.97346 21.597 19.5232 -0.302944 5.65754 59.717
6496547 9.20466 10.3879 20.9867 19.0751 -0.305262 5.14696 59.6543
6496555 9.20466 10.3879 20.9867 19.0751 -0.305262 5.14696 59.6543
6496571 9.84767 10.7654 20.5536 18.4905 -0.479926 4.63423 59.6572
6496589 10.3233 11.1891 20.1204 18.0229 -0.516203 4.18174 59.6557
6496596 10.8694 11.6587 19.6479 17.4968 -0.570528 3.67419 59.6729
6496606 10.8694 11.6587 19.6479 17.4968 -0.570528 3.67419 59.6729
6496616 11.2922 12.1284 19.2247 16.9619 -0.598326 3.21253 59.6072
6496627 11.7679 12.552 18.7325 16.3813 -0.659163 2.72419 59.4337
6496636 11.7679 12.552 18.7325 16.3813 -0.659163 2.72419 59.4337
6496649 12.2435 13.0125 18.2108 15.8292 -0.679897 2.22208 59.296
6496656 12.2435 13.0125 18.2108 15.8292 -0.679897 2.22208 59.296
6496666 12.6399 13.4177 17.6694 15.4104 -0.626165 1.78117 59.1373
6496677 13.1155 13.786 17.2559 14.7632 -0.773199 1.30282 58.9207
6496687 13.1155 13.786 17.2559 14.7632 -0.773199 1.30282 58.9207
6496702 13.4767 14.0807 16.8752 14.3443 -0.819561 0.934594 58.777
6496707 13.8466 14.4859 16.5633 13.916 -0.853574 0.547534 58.8119
6496727 14.2342 14.7714 16.2514 13.5543 -0.918131 0.204066 58.8113
6496737 14.2342 14.7714 16.2514 13.5543 -0.918131 0.204066 58.8113
6496752 14.6394 15.0385 15.9291 13.2021 -0.989577 -0.139433 58.809
6496757 15.0181 15.4529 15.6691 12.8404 -1.01472 -0.498843 58.9805
6496767 15.0181 15.4529 15.6691 12.8404 -1.01472 -0.498843 58.9805
6496782 15.3528 15.7107 15.2532 12.5073 -1.01492 -0.842279 58.8241
6496788 15.7228 15.9502 14.9725 12.1456 -1.10541 -1.16214 58.791
6496798 15.7228 15.9502 14.9725 12.1456 -1.10541 -1.16214 58.791
6496810 16.0575 16.3369 14.619 11.7839 -1.08664 -1.52854 58.7973
6496820 16.0575 16.3369 14.619 11.7839 -1.08664 -1.52854 58.7973
6496828 16.3922 16.6224 14.2654 11.3746 -1.13404 -1.88594 58.6547
6496844 16.6741 16.8342 13.9119 11.07 -1.14626 -2.18663 58.4902
6496860 16.9207 17.0195 13.6312 10.7178 -1.2072 -2.46817 58.2892
6496870 17.1993 17.107 13.548 10.4894 -1.35017 -2.64011 58.3436
6496881 17.1993 17.107 13.548 10.4894 -1.35017 -2.64011 58.3436
6496890 17.3787 17.3209 13.4024 10.2895 -1.35752 -2.82773 58.3915
6496899 17.3787 17.3209 13.4024 10.2895 -1.35752 -2.82773 58.3915
6496912 17.5381 17.4571 13.2153 10.1657 -1.34068 -2.98431 58.3762
6496919 17.7573 17.5933 13.1841 10.0991 -1.38533 -3.08714 58.6338
6496935 17.7573 17.5933 13.1841 10.0991 -1.38533 -3.08714 58.6338
6496940 17.8769 17.7197 13.0281 9.9944 -1.36089 -3.21756 58.6191
6496950 18.0064 17.8267 12.9657 9.8897 -1.38692 -3.31691 58.6886
6496960 18.0064 17.8267 12.9657 9.8897 -1.38692 -3.31691 58.6886
6496970 18.1958 18.0309 12.841 9.70885 -1.40235 -3.49039 58.7765
6496988 18.1958 18.0309 12.841 9.70885 -1.40235 -3.49039 58.7765
6496990 18.2954 18.0892 12.685 9.6327 -1.38772 -3.59448 58.7024
6497003 18.3453 18.167 12.5602 9.58511 -1.34396 -3.67393 58.6576
6497024 18.3453 18.2351 12.6018 9.49944 -1.36862 -3.7011 58.6817
6497031 18.425 18.274 12.5083 9.43281 -1.37551 -3.77505 58.6401
6497041 18.425 18.274 12.5083 9.43281 -1.37551 -3.77505 58.6401
6497051 18.4648 18.4199 12.4771 9.41377 -1.32207 -3.82656 58.7756
6497061 18.4648 18.4199 12.4771 9.41377 -1.32207 -3.82656 58.7756
6497071 18.4549 18.3032 12.4251 9.35666 -1.37516 -3.83747 58.5398
6497082 18.3951 18.381 12.4251 9.28051 -1.35027 -3.86544 58.4817
6497091 18.3951 18.381 12.4251 9.28051 -1.35027 -3.86544 58.4817
6497101 18.3453 18.3324 12.5394 9.31859 -1.38109 -3.79758 58.5357
6497111 18.3951 18.3324 12.6122 9.25196 -1.46052 -3.80513 58.5916
6497136 18.405 18.3713 12.6746 9.36618 -1.42059 -3.75797 58.8171
6497142 18.405 18.3713 12.6746 9.36618 -1.42059 -3.75797 58.8171
6497152 18.3552 18.2059 12.6642 9.33763 -1.48381 -3.72914 58.563
6497163 18.3054 18.1768 12.7682 9.41377 -1.48432 -3.65646 58.6641
6497172 18.3054 18.1768 12.7682 9.41377 -1.48432 -3.65646 58.6641
6497195 18.3154 18.0892 12.9346 9.46137 -1.57282 -3.57361 58.8005
6497197 18.1958 18.0406 13.0385 9.55655 -1.54558 -3.47807 58.8315
6497209 18.1958 18.0406 13.0385 9.55655 -1.54558 -3.47807 58.8315
6497216 18.1161 17.8461 13.2257 9.65174 -1.63321 -3.3357 58.8396
6497233 18.1161 17.8461 13.2257 9.65174 -1.63321 -3.3357 58.8396
6497237 17.9467 17.6127 13.444 9.78499 -1.69804 -3.14611 58.7884
6497243 17.8072 17.496 13.6832 9.8897 -1.74292 -2.98855 58.876
6497259 17.8072 17.496 13.6832 9.8897 -1.74292 -2.98855 58.876
6497264 17.6079 17.3501 13.8703 9.9944 -1.75684 -2.82881 58.8227
6497274 17.4385 17.1848 14.1823 10.2324 -1.78003 -2.59374 59.0379
6497283 17.4385 17.1848 14.1823 10.2324 -1.78003 -2.59374 59.0379
6497293 17.2491 17.0584 14.3798 10.4513 -1.74137 -2.4036 59.1386
6497307 17.2491 17.0584 14.3798 10.4513 -1.74137 -2.4036 59.1386
6497313 17.0498 16.8066 14.6398 10.5941 -1.81456 -2.18884 59.0902
6497323 16.7798 16.5764 14.8789 10.813 -1.80756 -1.94696 59.0481
6497335 16.7798 16.5764 14.8789 10.813 -1.80756 -1.94696 59.0481
6497343 16.5244 16.383 15.1076 11.0224 -1.7898 -1.72195 59.0374
6497356 16.2425 16.1712 15.4196 11.2794 -1.78113 -1.45012 59.1126
6497375 15.9959 16.0238 15.6691 11.5269 -1.73698 -1.2219 59.2157
6497398 15.7756 15.7752 15.8459 11.8029 -1.70754 -0.988702 59.1996
6497404 15.6083 15.6002 16.0954 12.0409 -1.71144 -0.776534 59.3448
6497414 15.6083 15.6002 16.0954 12.0409 -1.71144 -0.776534 59.3448
6497424 15.3881 15.4805 16.1682 12.3169 -1.58325 -0.602358 59.3537
6497434 15.2383 15.37 16.2826 12.5454 -1.51657 -0.449325 59.4363
6497444 15.2383 15.37 16.2826 12.5454 -1.51657 -0.449325 59.4363
6497454 15.071 15.149 16.3034 12.8024 -1.44247 -0.281726 59.3257
6497464 15.071 15.149 16.3034 12.8024 -1.44247 -0.281726 59.3257
6497474 14.8067 14.9187 16.4593 13.1165 -1.36205 -0.037863 59.3013
6497484 14.6218 14.6885 16.5633 13.4686 -1.27561 0.182417 59.3422
6497494 14.6218 14.6885 16.5633 13.4686 -1.27561 0.182417 59.3422
6497504 14.3927 14.5504 16.6465 13.8684 -1.1018 0.396527 59.458
6497514 14.0756 14.3202 16.9272 14.1349 -1.07125 0.672668 59.458
6497535 13.8026 13.9702 17.1378 14.6013 -0.995116 0.999722 59.512
6497547 13.8026 13.9702 17.1378 14.6013 -0.995116 0.999722 59.512
6497554 13.3798 13.7031 17.4922 15.0297 -0.897224 1.36875 59.6048
6497573 12.9834 13.3072 17.8367 15.6103 -0.796264 1.79697 59.7376
6497577 12.9834 13.3072 17.8367 15.6103 -0.796264 1.79697 59.7376
6497585 12.5342 12.9112 18.2206 16.21 -0.682113 2.25096 59.8759
6497600 12.1466 12.5244 18.6833 16.7716 -0.637814 2.69031 60.1258
6497616 11.6886 12.2021 18.949 17.2825 -0.479469 3.07895 60.1222
6497627 11.6886 12.2021 18.949 17.2825 -0.479469 3.07895 60.1222
6497636 11.3098 11.9534 19.2247 17.7501 -0.344864 3.41434 60.2381
6497650 10.9663 11.6035 19.4806 18.3639 -0.198446 3.79249 60.4143
6497666 10.5964 11.2627 19.6972 18.8413 -0.0784576 4.14238 60.3975
6497676 10.3145 10.9496 19.8448 19.4453 0.0972539 4.46525 60.5542
6497686 10.3145 10.9496 19.8448 19.4453 0.0972539 4.46525 60.5542
6497699 10.0062 10.6457 19.9334 19.7278 0.179848 4.72764 60.3131
6497706 10.0062 10.6457 19.9334 19.7278 0.179848 4.72764 60.3131
6497721 9.64508 10.4155 20.0614 20.0298 0.307071 4.99502 60.1517
6497726 9.3544 10.1945 20.15 20.3123 0.417596 5.22738 60.0112
6497736 9.3544 10.1945 20.15 20.3123 0.417596 5.22738 60.0112
6497748 9.16062 10.0103 20.1992 20.5851 0.515211 5.40738 59.9552
6497756 8.84352 9.8169 20.4354 20.9261 0.609785 5.6732 60.0219
6497777 8.61451 9.56826 20.6225 21.2573 0.661221 5.91809 60.0625
6497787 8.61451 9.56826 20.6225 21.2573 0.661221 5.91809 60.0625
6497803 8.42953 9.43933 20.652 21.5691 0.801653 6.07894 60.0899
6497807 8.27979 9.31961 20.8784 21.9393 0.869238 6.26104 60.4171
6497817 8.27979 9.31961 20.8784 21.9393 0.869238 6.26104 60.4171
6497827 8.25337 9.21831 20.9572 22.1633 0.895792 6.34954 60.5921
6497837 8.04197 9.04334 21.1048 22.3582 0.930965 6.5347 60.5483
6497851 8.04197 9.04334 21.1048 22.3582 0.930965 6.5347 60.5483
6497870 7.9715 8.91441 21.2131 22.6212 0.967973 6.65719 60.7202
6497878 7.83057 8.8039 21.282 22.7966 1.02445 6.78044 60.713
6497891 7.63679 8.7026 21.3115 22.9622 1.12041 6.91294 60.6131
6497900 7.63679 8.7026 21.3115 22.9622 1.12041 6.91294 60.6131
6497910 7.52228 8.54605 21.3607 23.196 1.17897 7.04867 60.6251
6497918 7.38135 8.41712 21.3607 23.4201 1.27729 7.1763 60.5793
6497930 7.38135 8.41712 21.3607 23.4201 1.27729 7.1763 60.5793
6497938 7.19637 8.27898 21.4592 23.6441 1.34848 7.33624 60.5787
6497949 7.19637 8.27898 21.4592 23.6441 1.34848 7.33624 60.5787
6497960 7.02021 8.05796 21.6954 23.8779 1.32737 7.5419 60.6515
6497970 6.86166 7.8922 21.8726 24.1605 1.36476 7.71857 60.7869
6497978 6.86166 7.8922 21.8726 24.1605 1.36476 7.71857 60.7869
6497989 6.75596 7.6896 21.9415 24.3261 1.36634 7.86206 60.7132
6497999 6.57979 7.53304 22.1187 24.3845 1.32765 8.0153 60.6161
6498011 6.57979 7.53304 22.1187 24.3845 1.32765 8.0153 60.6161
6498018 6.59741 7.43174 22.2565 24.4917 1.26261 8.07514 60.7774
6498032 6.59741 7.43174 22.2565 24.4917 1.26261 8.07514 60.7774
6498040 6.5886 7.21073 22.3057 24.4917 1.15851 8.16828 60.5968
6498052 6.62383 7.14626 22.3156 24.5307 1.12903 8.18496 60.6163
6498065 6.62383 7.14626 22.3156 24.5307 1.12903 8.18496 60.6163
6498072 6.67668 7.11863 22.2762 24.4527 1.08158 8.16209 60.5242
6498080 6.70311 7.01733 22.2368 24.4722 1.05478 8.18853 60.4295
6498095 6.70311 7.01733 22.2368 24.4722 1.05478 8.18853 60.4295
6498101 6.72953 6.9805 22.1975 24.5307 1.06893 8.19468 60.4381
6498122 6.68549 6.91603 22.2565 24.6086 1.06779 8.25172 60.4666
6498131 6.67668 6.88841 22.2762 24.706 1.09069 8.27876 60.5473
6498144 6.67668 6.88841 22.2762 24.706 1.09069 8.27876 60.5473
6498151 6.60622 6.89762 22.3156 24.7937 1.14229 8.31638 60.6131
6498164 6.60622 6.75948 22.414 24.9106 1.09155 8.39316 60.6903
6498171 6.60622 6.75948 22.414 24.9106 1.09155 8.39316 60.6903
6498181 6.53575 6.68581 22.4632 24.9496 1.087 8.45838 60.6344
6498191 6.53575 6.68581 22.4632 24.9496 1.087 8.45838 60.6344
6498201 6.55337 6.66739 22.5223 24.9009 1.02755 8.45981 60.6439
6498211 6.5886 6.71343 22.5223 24.8229 0.999823 8.41996 60.6473
6498231 6.5886 6.66739 22.4928 24.7742 0.974935 8.42928 60.523
6498241 6.61503 6.69502 22.414 24.5989 0.938627 8.3806 60.3229
6498261 6.73834 6.7779 22.3156 24.4235 0.890991 8.27052 60.2553
6498282 6.83523 6.99892 22.0892 24.2481 0.965011 8.10264 60.1715
6498292 7.1171 7.16468 21.971 24.0241 0.871232 7.89192 60.2769
6498312 7.31969 7.52384 21.6856 23.6636 0.906327 7.602 60.1927
6498322 7.62798 7.73564 21.3706 23.2544 0.829959 7.31673 59.9886
6498332 7.62798 7.73564 21.3706 23.2544 0.829959 7.31673 59.9886
6498342 7.98912 8.21452 21.1245 22.7966 0.788972 6.91498 60.1247
6498353 7.98912 8.21452 21.1245 22.7966 0.788972 6.91498 60.1247
6498362 8.20933 8.68418 20.6225 22.29 0.895545 6.52584 59.8059
6498374 8.56166 9.11701 20.3961 21.8905 0.854594 6.15555 59.9653
6498383 8.56166 9.11701 20.3961 21.8905 0.854594 6.15555 59.9653
6498396 8.74663 9.43012 20.1106 21.5398 0.882843 5.88537 59.8272
6498403 9.03731 9.80769 19.8547 21.0722 0.831467 5.54154 59.7719
6498417 9.03731 9.80769 19.8547 21.0722 0.831467 5.54154 59.7719
6498422 9.30155 10.2405 19.579 20.663 0.845945 5.19368 59.7842
6498433 9.30155 10.2405 19.579 20.663 0.845945 5.19368 59.7842
6498442 9.53938 10.7654 19.2837 20.1467 0.87429 4.8026 59.7353
6498452 9.89171 11.2811 18.949 19.6986 0.893906 4.3818 59.8205
6498463 9.89171 11.2811 18.949 19.6986 0.893906 4.3818 59.8205
6498472 10.1912 11.7692 18.5651 19.2212 0.934818 3.97325 59.7468
6498492 10.4819 11.7692 18.2206 18.7536 0.768393 3.72892 59.2253
6498493 10.4819 12.1744 18.2206 18.7536 0.933054 3.60166 59.6305
6498509 10.7813 12.5704 17.9351 18.2372 0.878286 3.23078 59.5242
6498514 10.7813 12.5704 17.9351 18.2372 0.878286 3.23078 59.5242
6498523 10.9751 12.8835 17.5611 17.8963 0.945607 2.93311 59.316
6498535 11.2746 13.2427 17.2559 17.4579 0.915912 2.58222 59.2311
6498545 11.2746 13.2427 17.2559 17.4579 0.915912 2.58222 59.2311
6498563 11.6005 13.5834 16.9792 17.1072 0.890353 2.25301 59.2703
6498566 11.6005 13.5834 16.9792 17.1072 0.890353 2.25301 59.2703
6498574 11.856 13.9702 16.6881 16.762 0.922886 1.92926 59.2763
6498592 12.1114 14.3478 16.5113 16.4289 0.90656 1.63664 59.3994
6498598 12.1114 14.3478 16.5113 16.4289 0.90656 1.63664 59.3994
6498603 12.4197 14.6517 16.2306 16.0957 0.882676 1.32706 59.3977
6498621 12.6399 14.8543 15.9083 15.7912 0.88577 1.06563 59.1936
6498626 12.6399 14.8543 15.9083 15.7912 0.88577 1.06563 59.1936
6498633 12.8425 15.0661 15.6795 15.5437 0.882673 0.840819 59.1318
6498655 12.9746 15.2042 15.5028 15.2867 0.853655 0.664067 58.9683
6498665 13.2124 15.416 15.274 15.0487 0.838959 0.431097 58.9512
6498677 13.2124 15.416 15.274 15.0487 0.838959 0.431097 58.9512
6498687 13.4062 15.6555 15.0557 14.8108 0.850338 0.20484 58.9281
6498697 13.5119 15.8581 14.9101 14.5918 0.861147 0.0336152 58.8719
6498705 13.5119 15.8581 14.9101 14.5918 0.861147 0.0336152 58.8719
6498715 13.829 16.0238 14.7229 14.3539 0.774547 -0.197537 58.9296
6498724 13.829 16.0238 14.7229 14.3539 0.774547 -0.197537 58.9296
6498735 13.9523 16.2264 14.5462 14.1445 0.795144 -0.379179 58.8694
6498745 14.199 16.3554 14.3798 14.0112 0.758237 -0.550506 58.9453
6498754 14.199 16.3554 14.3798 14.0112 0.758237 -0.550506 58.9453
6498764 14.3839 16.4751 14.2862 13.8303 0.69319 -0.697517 58.9756
6498775 14.5689 16.6224 14.0887 13.6209 0.673068 -0.886669 58.901
6498787 14.5689 16.6224 14.0887 13.6209 0.673068 -0.886669 58.901
6498795 14.7363 16.8066 13.9327 13.4211 0.661612 -1.0669 58.8967
6498805 14.7363 16.8066 13.9327 13.4211 0.661612 -1.0669 58.8967
6498815 14.9124 17 13.7248 13.1831 0.657037 -1.27624 58.8203
6498826 15.1503 17.2042 13.5376 12.8404 0.577527 -1.52636 58.7325
6498846 15.3793 17.4863 13.3713 12.6215 0.576487 -1.75153 58.8583
6498856 15.6347 17.7294 13.0593 12.2788 0.559688 -2.05085 58.7023
6498866 15.6347 17.7294 13.0593 12.2788 0.559688 -2.05085 58.7023
6498876 15.9078 17.9725 12.8098 12.0028 0.535747 -2.31742 58.6929
6498889 15.9078 17.9725 12.8098 12.0028 0.535747 -2.31742 58.6929
6498897 16.1104 18.099 12.5291 11.7077 0.499299 -2.55942 58.4461
6498906 16.3746 18.381 12.3315 11.5078 0.504625 -2.79451 58.595
6498916 16.3746 18.381 12.3315 11.5078 0.504625 -2.79451 58.595
6498926 16.6389 18.5755 12.1235 11.2223 0.442019 -3.04009 58.5602
6498939 16.8415 18.7408 11.8012 10.9653 0.455645 -3.29462 58.3488
6498946 16.8415 18.7408 11.8012 10.9653 0.455645 -3.29462 58.3488
6498956 17.0996 18.8965 11.6972 10.7749 0.373912 -3.46956 58.4683
6498966 17.0996 18.8965 11.6972 10.7749 0.373912 -3.46956 58.4683
6498976 17.2292 19.0521 11.5205 10.6512 0.40783 -3.62076 58.4529
6498986 17.3986 19.1201 11.4061 10.4894 0.344431 -3.75506 58.4142
6498996 17.3986 19.1201 11.4061 10.4894 0.344431 -3.75506 58.4142
6499007 17.5481 19.2174 11.3645 10.299 0.258344 -3.877 58.429
6499016 17.7972 19.2952 11.2917 10.0705 0.118387 -4.03648 58.4547
6499040 17.7972 19.2952 11.2917 10.0705 0.118387 -4.03648 58.4547
6499042 17.9367 19.3341 11.2606 9.95633 0.0398278 -4.11726 58.4877
6499048 17.9367 19.3341 11.2606 9.95633 0.0398278 -4.11726 58.4877
6499057 18.0662 19.3438 11.167 9.75644 -0.0569761 -4.23941 58.3335
6499070 18.2655 19.3535 11.1982 9.65174 -0.196008 -4.30207 58.469
6499090 18.3253 19.3827 11.167 9.4804 -0.269544 -4.38537 58.3554
6499099 18.3253 19.3341 11.1566 9.47088 -0.290339 -4.38314 58.2869
6499111 18.3253 19.3341 11.1566 9.47088 -0.290339 -4.38314 58.2869
6499117 18.4648 19.2466 11.1982 9.38522 -0.442238 -4.40726 58.2948
6499146 18.4648 19.2466 11.1982 9.38522 -0.442238 -4.40726 58.2948
6499147 18.4848 19.3146 11.2917 9.36618 -0.468579 -4.39846 58.4573
6499148 18.5346 19.266 11.3333 9.42329 -0.503187 -4.36598 58.5572
6499168 18.4947 19.266 11.4373 9.46137 -0.513408 -4.31186 58.6594
6499178 18.5047 19.1785 11.5933 9.57559 -0.570875 -4.20911 58.852
6499198 18.425 18.984 11.6453 9.68981 -0.594288 -4.10439 58.744
6499209 18.425 18.984 11.6453 9.68981 -0.594288 -4.10439 58.744
6499219 18.2556 18.9159 11.7908 9.79451 -0.568436 -3.97898 58.7568
6499234 18.2257 18.8478 11.9988 9.90873 -0.622186 -3.857 58.981
6499248 18.2257 18.8478 11.9988 9.90873 -0.622186 -3.857 58.981
6499249 18.126 18.6339 12.1547 9.98488 -0.705446 -3.72336 58.8995
6499259 17.9168 18.5366 12.2483 10.0515 -0.671008 -3.61347 58.7532
6499269 17.9168 18.5366 12.2483 10.0515 -0.671008 -3.61347 58.7532
6499279 17.7474 18.3032 12.5187 10.1848 -0.756562 -3.40755 58.754
6499289 17.7474 18.3032 12.5187 10.1848 -0.756562 -3.40755 58.754
6499299 17.4783 18.1281 12.6954 10.3466 -0.724228 -3.2135 58.6485
6499311 17.1993 18.0017 12.945 10.5845 -0.663193 -2.98095 58.7305
6499331 16.9295 17.7391 13.1217 10.8796 -0.610404 -2.72729 58.67
6499341 16.6477 17.5933 13.392 11.1747 -0.540651 -2.46758 58.8077
6499361 16.3746 17.3209 13.7144 11.5364 -0.52236 -2.14893 58.9463
6499371 16.0223 17.3209 14.0991 11.5364 -0.535798 -1.9603 58.9787
6499381 16.0223 16.9632 14.0991 11.8886 -0.53822 -1.77991 58.9731
6499391 15.6259 16.7237 14.5358 12.3264 -0.469305 -1.39012 59.2118
6499406 15.6259 16.7237 14.5358 12.3264 -0.469305 -1.39012 59.2118
6499412 15.2472 16.3554 14.8789 12.8119 -0.404269 -0.989593 59.2933
6499422 14.8508 16.1067 15.3572 13.2688 -0.349295 -0.586964 59.5834
6499442 14.4104 15.7752 15.8459 13.7352 -0.311998 -0.151719 59.7666
6499459 13.9876 15.3608 16.293 14.173 -0.312106 0.280277 59.8143
6499462 13.9876 15.3608 16.293 14.173 -0.312106 0.280277 59.8143
6499472 13.556 15.0477 16.7297 14.5918 -0.269556 0.680314 59.9251
6499483 13.556 15.0477 16.7297 14.5918 -0.269556 0.680314 59.9251
6499492 13.186 14.7714 17.0787 14.9345 -0.232977 1.01445 59.9706
6499508 12.8513 14.5688 17.3642 15.2676 -0.157814 1.30181 60.0519
6499512 12.8513 14.5688 17.3642 15.2676 -0.157814 1.30181 60.0519
6499522 12.5782 14.2833 17.502 15.6579 -0.0579163 1.57403 60.0215
6499533 12.5782 14.2833 17.502 15.6579 -0.0579163 1.57403 60.0215
6499542 12.1995 13.9518 17.7678 16.0006 -0.00623316 1.90683 59.9196
6499558 11.9088 13.7124 18.0041 16.4099 0.0871748 2.1969 60.0351
6499572 11.4772 13.3716 18.2305 16.762 0.177968 2.54264 59.8413
6499583 11.1777 13.0861 18.6144 17.1364 0.179306 2.87102 60.0146
6499592 11.1777 13.0861 18.6144 17.1364 0.179306 2.87102 60.0146
6499608 10.9487 12.8375 18.7817 17.4871 0.24735 3.11779 60.055
6499612 10.9487 12.8375 18.7817 17.4871 0.24735 3.11779 60.055
6499622 10.614 12.4967 19.0573 17.8768 0.292373 3.45326 60.0449
6499634 10.2705 12.2481 19.3034 18.208 0.367418 3.74634 60.03
6499657 9.96218 11.9902 19.6676 18.5393 0.373882 4.05286 60.1593
6499663 9.60984 11.7692 19.8842 18.812 0.452444 4.32386 60.0753
6499673 9.60984 11.7692 19.8842 18.812 0.452444 4.32386 60.0753
6499687 9.46891 11.5574 20.1303 19.0653 0.424913 4.52558 60.2219
6499693 9.46891 11.5574 20.1303 19.0653 0.424913 4.52558 60.2219
6499714 9.25751 11.3917 20.2583 19.2504 0.468069 4.70251 60.1579
6499717 9.16943 11.1798 20.3075 19.416 0.465682 4.83769 60.0728
6499725 9.16943 11.1798 20.3075 19.416 0.465682 4.83769 60.0728
6499741 9.03731 11.0878 20.3665 19.6304 0.546512 4.95788 60.122
6499745 8.85233 10.8575 20.5732 19.8252 0.522873 5.16283 60.1083
6499753 8.85233 10.8575 20.5732 19.8252 0.522873 5.16283 60.1083
6499768 8.72021 10.6641 20.7406 20.0688 0.528339 5.33902 60.1937
6499777 8.72021 10.6641 20.7406 20.0688 0.528339 5.33902 60.1937
6499787 8.57047 10.4615 20.8981 20.2928 0.533774 5.51922 60.2229
6499794 8.31503 10.2221 21.1737 20.6728 0.582173 5.79032 60.3836
6499807 8.31503 10.2221 21.1737 20.6728 0.582173 5.79032 60.3836
6499814 8.22694 9.95504 21.3017 20.8968 0.547886 5.9663 60.3805
6499827 8.05078 9.74323 21.4592 21.0722 0.541013 6.15099 60.3254
6499834 8.05078 9.74323 21.4592 21.0722 0.541013 6.15099 60.3254
6499858 8.02435 9.63272 21.597 21.2573 0.524151 6.24607 60.5114
6499861 8.02435 9.63272 21.597 21.2573 0.524151 6.24607 60.5114
6499865 7.90984 9.37486 21.7742 21.4619 0.476173 6.43201 60.5208
6499875 7.7601 9.27356 21.7939 21.6665 0.572816 6.55272 60.494
6499895 7.68083 9.17226 21.9218 21.8321 0.578192 6.65785 60.607
6499905 7.60155 8.98808 21.8923 22.0562 0.640255 6.77891 60.5381
6499915 7.60155 8.98808 21.8923 22.0562 0.640255 6.77891 60.5381
6499925 7.58394 8.81311 21.8529 22.2607 0.676325 6.87067 60.5107
6499940 7.58394 8.81311 21.8529 22.2607 0.676325 6.87067 60.5107
6499945 7.46062 8.72102 21.8825 22.3777 0.726151 6.96831 60.4417
6499955 7.39896 8.67497 21.8628 22.4751 0.781432 7.01781 60.4118
6499967 7.39896 8.67497 21.8628 22.4751 0.781432 7.01781 60.4118
6499975 7.34611 8.61972 21.8726 22.5043 0.789362 7.06243 60.3427
6499992 7.3285 8.52763 21.8825 22.6212 0.802636 7.1192 60.3598
6499995 7.3285 8.52763 21.8825 22.6212 0.802636 7.1192 60.3598
6500005 7.31969 8.54605 21.9514 22.7479 0.834993 7.14113 60.5649
6500017 7.31969 8.54605 21.9514 22.7479 0.834993 7.14113 60.5649
6500025 7.21399 8.43554 21.8825 22.7186 0.853813 7.20778 60.2506
6500035 7.31088 8.47237 21.9514 22.855 0.852105 7.18517 60.5896
6500046 7.31088 8.47237 21.9514 22.855 0.852105 7.18517 60.5896
6500065 7.3285 8.46316 21.9317 22.7868 0.822097 7.17074 60.5102
6500067 7.2228 8.41712 21.9514 22.8355 0.859919 7.23527 60.4268
6500076 7.2228 8.41712 21.9514 22.8355 0.859919 7.23527 60.4268
6500087 7.26684 8.46316 21.9021 22.8258 0.876632 7.19457 60.4579
6500096 7.26684 8.46316 21.9021 22.8258 0.876632 7.19457 60.4579
6500107 7.23161 8.46316 21.8628 22.7381 0.873572 7.19109 60.2956
6500126 7.28446 8.43554 21.8726 22.7186 0.827825 7.18056 60.3112
6500136 7.23161 8.48158 21.9021 22.6894 0.844556 7.18311 60.3047
6500146 7.23161 8.48158 21.9021 22.6894 0.844556 7.18311 60.3047
6500158 7.15233 8.43554 21.9907 22.6115 0.790799 7.23068 60.1901
6500166 7.24041 8.5 21.8529 22.592 0.8302 7.15403 60.1853
6500176 7.24041 8.5 21.8529 22.592 0.8302 7.15403 60.1853
6500186 7.26684 8.57367 21.8234 22.4653 0.810245 7.09677 60.1292
6500196 7.36373 8.72102 21.784 22.3192 0.786066 6.98274 60.188
6500207 7.36373 8.72102 21.784 22.3192 0.786066 6.98274 60.188
6500216 7.46943 8.91441 21.6462 22.2218 0.838378 6.84232 60.2518
6500228 7.46943 8.91441 21.6462 22.2218 0.838378 6.84232 60.2518
6500236 7.61036 8.98808 21.5379 22.0464 0.783536 6.72598 60.1828
6500253 7.69845 9.13543 21.3706 21.9685 0.845426 6.60725 60.1729
6500277 7.69845 9.13543 21.3706 21.9685 0.845426 6.60725 60.1729
6500279 7.8658 9.21831 21.1442 21.7542 0.81794 6.45544 59.9824
6500280 8.06839 9.37486 20.9276 21.5691 0.812438 6.26963 59.9399
6500287 8.06839 9.37486 20.9276 21.5691 0.812438 6.26963 59.9399
6500300 8.40311 9.66956 20.6323 21.267 0.79253 5.95945 59.972
6500307 8.40311 9.66956 20.6323 21.267 0.79253 5.95945 59.972
6500317 8.7114 9.92741 20.1992 20.8968 0.800905 5.63923 59.7348
6500327 9.07254 10.2866 19.8153 20.6533 0.857475 5.29257 59.8277
6500337 9.07254 10.2866 19.8153 20.6533 0.857475 5.29257 59.8277
6500347 9.39845 10.572 19.3822 20.2636 0.861782 4.95048 59.6163
6500358 9.59223 10.8023 19.1065 20.0688 0.91165 4.72911 59.5698
6500377 9.82124 11.0417 18.8605 19.835 0.921357 4.49117 59.5584
6500387 9.82124 11.0417 18.8605 19.835 0.921357 4.49117 59.5584
6500403 9.9886 11.2904 18.6439 19.5719 0.93697 4.27017 59.4948
6500433 10.3233 11.7048 18.3486 19.3186 0.984791 3.92974 59.6953
6500435 10.3233 11.7048 18.3486 19.3186 0.984791 3.92974 59.6953
6500438 10.5699 12.1192 18.0434 18.8413 0.984937 3.57428 59.5738
6500440 10.8694 12.4323 17.7087 18.5003 0.989065 3.25336 59.5107
6500448 10.8694 12.4323 17.7087 18.5003 0.989065 3.25336 59.5107
6500464 11.1777 12.727 17.5119 18.1691 0.925747 2.96453 59.5856
6500475 11.1777 12.727 17.5119 18.1691 0.925747 2.96453 59.5856
6500478 11.4508 13.0585 17.187 17.8281 0.944477 2.64744 59.5244
6500494 11.7855 13.3348 16.8232 17.3897 0.891459 2.29871 59.3332
6500498 11.7855 13.3348 16.8232 17.3897 0.891459 2.29871 59.3332
6500508 12.0409 13.786 16.4801 16.9905 0.950903 1.93355 59.2976
6500521 12.3756 13.9886 16.1266 16.7049 0.925446 1.63878 59.1958
6500528 12.3756 13.9886 16.1266 16.7049 0.925446 1.63878 59.1958
6500548 12.6223 14.3386 15.8771 16.3432 0.921938 1.33305 59.1811
6500550 12.6223 14.3386 15.8771 16.3432 0.921938 1.33305 59.1811
6500558 12.8689 14.6425 15.5859 16.0101 0.929537 1.03658 59.1074
6500572 13.1508 14.9924 15.2532 15.7055 0.970322 0.714573 59.1019
6500578 13.1508 14.9924 15.2532 15.7055 0.970322 0.714573 59.1019
6500588 13.3358 15.2595 15.0661 15.3723 0.944382 0.468335 59.0336
6500598 13.556 15.2595 14.8373 15.3723 0.948137 0.354309 59.0251
6500608 13.556 15.4713 14.8373 15.0487 0.902483 0.218654 58.9133
6500619 13.9171 15.7844 14.6813 14.6965 0.796589 -0.0821668 59.0794
6500628 13.9171 15.7844 14.6813 14.6965 0.796589 -0.0821668 59.0794
6500643 14.1549 16.0515 14.3902 14.2777 0.757563 -0.391967 58.8743
6500648 14.4192 16.3462 14.0679 13.9446 0.767154 -0.702527 58.7778
6500658 14.4192 16.3462 14.0679 13.9446 0.767154 -0.702527 58.7778
6500669 14.6922 16.5856 13.8183 13.6305 0.72602 -0.978009 58.7266
6500690 14.9829 16.7053 13.652 13.2592 0.567263 -1.22279 58.5994
6500700 15.2648 16.9816 13.4128 12.9546 0.536826 -1.50447 58.6138
6500720 15.5466 17.2918 13.2257 12.5929 0.474104 -1.79512 58.657
6500730 15.9254 17.603 12.9138 12.2598 0.435942 -2.13489 58.7019
6500740 15.9254 17.603 12.9138 12.2598 0.435942 -2.13489 58.7019
6500750 16.2425 17.8753 12.5602 11.8315 0.386271 -2.49346 58.5095
6500760 16.4979 17.8753 12.2483 11.8315 0.410804 -2.64146 58.453
6500773 16.4979 18.1281 12.2483 11.5078 0.380999 -2.79278 58.3822
6500782 16.7886 18.381 12.0092 11.2413 0.352854 -3.06036 58.4201
6500795 16.7886 18.381 12.0092 11.2413 0.352854 -3.06036 58.4201
6500800 17.0698 18.6047 11.7388 10.8606 0.281721 -3.36558 58.2739
6500810 17.4086 18.8284 11.5309 10.6036 0.210938 -3.62398 58.3714
6500820 17.4086 18.8284 11.5309 10.6036 0.210938 -3.62398 58.3714
6500830 17.7274 19.0423 11.2606 10.3561 0.17575 -3.89297 58.3864
6500843 17.7274 19.0423 11.2606 10.3561 0.17575 -3.89297 58.3864
6500850 17.9566 19.1785 11.0422 10.1086 0.123653 -4.11359 58.2859
6500860 18.0164 19.3341 10.9486 9.91825 0.123382 -4.24709 58.2174
6500888 18.2954 19.3633 10.7719 9.74692 0.0184327 -4.41921 58.1775
6500890 18.415 19.4605 10.7823 9.64222 -0.0405371 -4.48998 58.3
6500899 18.415 19.4605 10.7823 9.64222 -0.0405371 -4.48998 58.3
6500910 18.5645 19.6745 10.7823 9.56607 -0.0453115 -4.58051 58.5873
6500919 18.5645 19.6745 10.7823 9.56607 -0.0453115 -4.58051 58.5873
6500931 18.714 19.6745 10.6263 9.43281 -0.0996426 -4.70404 58.4475
6500939 18.9033 19.8009 10.5951 9.29003 -0.173856 -4.81804 58.5893
6500949 18.9033 19.8009 10.5951 9.29003 -0.173856 -4.81804 58.5893
6500959 18.9531 19.8301 10.5431 9.20437 -0.197233 -4.87839 58.5307
6500969 19.1225 19.8787 10.5119 9.08063 -0.288036 -4.96862 58.5938
6500979 19.1225 19.8787 10.5119 9.08063 -0.288036 -4.96862 58.5938
6500991 19.262 19.9468 10.4807 8.95689 -0.35768 -5.05688 58.6464
6501001 19.262 19.9468 10.4807 8.95689 -0.35768 -5.05688 58.6464
6501011 19.3716 19.9468 10.3872 8.81411 -0.4263 -5.15651 58.5197
6501021 19.4115 19.8982 10.4183 8.69989 -0.527051 -5.18368 58.4279
6501031 19.4115 19.8982 10.4183 8.69989 -0.527051 -5.18368 58.4279
6501040 19.5211 19.8301 10.3976 8.6523 -0.614831 -5.21429 58.401
6501050 19.5709 19.7328 10.5431 8.59518 -0.764015 -5.17576 58.4421
6501062 19.5709 19.7328 10.5431 8.59518 -0.764015 -5.17576 58.4421
6501071 19.6307 19.6648 10.5431 8.6047 -0.814623 -5.17108 58.4433
6501091 19.6208 19.5578 10.7719 8.56663 -0.969037 -5.08571 58.517
6501102 19.6407 19.4605 10.8862 8.67133 -1.02076 -4.99762 58.6588
6501116 19.6407 19.4605 10.8862 8.67133 -1.02076 -4.99762 58.6588
6501122 19.6706 19.3535 10.9694 8.80459 -1.05524 -4.9109 58.7981
6501143 19.6208 19.2757 11.0734 8.81411 -1.10757 -4.85055 58.784
6501146 19.6208 19.2757 11.0734 8.81411 -1.10757 -4.85055 58.784
6501152 19.5809 19.1299 11.1774 8.94737 -1.1392 -4.73847 58.8355
6501172 19.4015 19.0034 11.2502 8.94737 -1.1522 -4.66041 58.6025
6501182 19.2521 18.8965 11.4061 9.16629 -1.10498 -4.48974 58.7209
6501199 19.2521 18.8965 11.4061 9.16629 -1.10498 -4.48974 58.7209
6501203 19.0328 18.7214 11.4997 9.26148 -1.0893 -4.35605 58.5154
6501213 18.8236 18.5561 11.6661 9.47088 -1.05213 -4.16361 58.5166
6501226 18.8236 18.5561 11.6661 9.47088 -1.05213 -4.16361 58.5166
6501233 18.6043 18.3129 11.9572 9.7374 -1.07111 -3.8958 58.6119
6501244 18.6043 18.3129 11.9572 9.7374 -1.07111 -3.8958 58.6119
6501255 18.3453 18.0309 12.2275 10.0515 -1.06145 -3.60508 58.6552
6501267 18.0363 17.8364 12.5187 10.3847 -0.992732 -3.30987 58.776
6501273 18.0363 17.8364 12.5187 10.3847 -0.992732 -3.30987 58.776
6501289 17.7175 17.5252 12.8722 10.8225 -0.950992 -2.93904 58.9373
6501295 17.3488 17.214 13.2777 11.2889 -0.897852 -2.53583 59.1293
6501303 17.3488 17.214 13.2777 11.2889 -0.897852 -2.53583 59.1293
6501313 16.9295 16.8158 13.7664 11.86 -0.850596 -2.05122 59.3717
6501323 16.9295 16.8158 13.7664 11.86 -0.850596 -2.05122 59.3717
6501333 16.4803 16.4567 14.1927 12.2884 -0.811182 -1.6298 59.418
6501343 16.0751 16.033 14.6502 12.7262 -0.826281 -1.19321 59.4845
6501357 16.0751 16.033 14.6502 12.7262 -0.826281 -1.19321 59.4845
6501363 15.7316 15.7384 15.0557 13.1165 -0.81002 -0.829408 59.6421
6501373 15.3264 15.3792 15.43 13.5829 -0.751163 -0.425192 59.7185
6501384 15.3264 15.3792 15.43 13.5829 -0.751163 -0.425192 59.7185
6501395 14.8684 15.1029 15.8979 14.0398 -0.677517 -0.00843823 59.9089
6501405 14.8684 15.1029 15.8979 14.0398 -0.677517 -0.00843823 59.9089
6501416 14.4808 14.6793 16.1578 14.4681 -0.623573 0.367749 59.786
6501428 14.0404 14.357 16.5633 14.925 -0.551786 0.774191 59.8857
6501434 14.0404 14.357 16.5633 14.925 -0.551786 0.774191 59.8857
6501445 13.6352 13.9702 16.9168 15.3819 -0.500792 1.17519 59.9041
6501455 13.1067 13.4269 17.3347 15.9149 -0.459851 1.68508 59.7832
6501465 13.1067 13.4269 17.3347 15.9149 -0.459851 1.68508 59.7832
6501477 12.6927 13.1046 17.817 16.4384 -0.402482 2.11268 60.0527
6501487 12.6927 13.1046 17.817 16.4384 -0.402482 2.11268 60.0527
6501499 12.1642 12.6717 18.2501 16.9905 -0.313012 2.59785 60.0766
6501505 11.8031 12.2757 18.6636 17.341 -0.353666 2.97729 60.0834
6501516 11.8031 12.2757 18.6636 17.341 -0.353666 2.97729 60.0834
6501526 11.3891 11.9995 19.0573 17.8573 -0.244462 3.36451 60.3032
6501536 11.0016 11.6679 19.3723 18.1301 -0.239258 3.69764 60.1719
6501546 11.0016 11.6679 19.3723 18.1301 -0.239258 3.69764 60.1719
6501556 10.7549 11.493 19.4314 18.4516 -0.100517 3.90026 60.1308
6501568 10.7549 11.493 19.4314 18.4516 -0.100517 3.90026 60.1308
6501576 10.429 11.3088 19.5397 18.6172 -0.0178277 4.11199 59.8946
6501586 10.2528 11.1614 19.6578 18.9192 0.0708401 4.2913 59.9913
6501596 10.2528 11.1614 19.6578 18.9192 0.0708401 4.2913 59.9913
6501606 10.015 11.0141 19.7956 19.0848 0.120297 4.46957 59.9095
6501617 9.83005 10.8207 19.8743 19.3576 0.19784 4.6544 59.8827
6501626 9.83005 10.8207 19.8743 19.3576 0.19784 4.6544 59.8827
6501642 9.58342 10.6918 20.0712 19.7181 0.314319 4.87329 60.0645
6501646 9.58342 10.6918 20.0712 19.7181 0.314319 4.87329 60.0645
6501656 9.42487 10.48 20.1795 19.9616 0.348562 5.0552 60.0459
6501666 9.25751 10.4339 20.3075 20.2149 0.449994 5.18925 60.2138
6501692 9.12539 10.2958 20.4551 20.4195 0.470492 5.33705 60.2958
6501701 8.87876 10.084 20.6028 20.7312 0.552958 5.5653 60.2967
6501717 8.72021 9.90899 20.7701 20.9163 0.553337 5.73415 60.3157
6501727 8.72021 9.90899 20.7701 20.9163 0.553337 5.73415 60.3157
6501737 8.63212 9.66956 20.8882 21.2476 0.577766 5.9154 60.4375
6501747 8.38549 9.47616 21.0064 21.5301 0.668231 6.12804 60.3981
6501757 8.38549 9.47616 21.0064 21.5301 0.668231 6.12804 60.3981
6501767 8.31503 9.31961 21.0654 21.7444 0.696328 6.24752 60.4445
6501777 8.31503 9.31961 21.0654 21.7444 0.696328 6.24752 60.4445
6501787 8.09482 9.17226 21.154 21.9977 0.794923 6.42631 60.4188
6501803 7.96269 9.01571 21.2328 22.3095 0.879741 6.58383 60.5206
6501807 7.96269 9.01571 21.2328 22.3095 0.879741 6.58383 60.5206
6501817 7.73368 8.86836 21.3017 22.514 0.971174 6.75638 60.4178
6501836 7.61036 8.73944 21.4395 22.7868 1.02202 6.90285 60.5761
6501839 7.61036 8.73944 21.4395 22.7868 1.02202 6.90285 60.5761
6501847 7.52228 8.61051 21.469 23.0109 1.0848 7.01514 60.6127
6501867 7.31088 8.61051 21.469 23.0109 1.17609 7.0922 60.4013
6501870 7.31088 8.50921 21.469 23.3324 1.26263 7.17105 60.6215
6501878 7.17876 8.3987 21.5478 23.5857 1.34154 7.30247 60.7109
6501897 7.17876 8.3987 21.5478 23.5857 1.34154 7.30247 60.7109
6501898 7.00259 8.25135 21.6954 23.7903 1.3762 7.4659 60.7396
6501908 6.85285 8.0948 21.8431 23.9656 1.38442 7.61922 60.7563
6501928 6.85285 8.0948 21.8431 23.9656 1.38442 7.61922 60.7563
6501932 6.73834 7.8922 21.912 24.1799 1.40879 7.77176 60.7225
6501939 6.73834 7.8922 21.9021 24.1799 1.41307 7.77059 60.7126
6501957 6.67668 7.73564 21.9021 24.1507 1.36754 7.84928 60.4652
6501959 6.71192 7.64355 21.9218 24.2189 1.33426 7.88114 60.4962
6501983 6.8 7.59751 21.8628 24.1799 1.28833 7.85368 60.4402
6501988 6.87047 7.62514 21.8332 24.1702 1.27755 7.81198 60.499
6502000 6.87047 7.62514 21.8332 24.1702 1.27755 7.81198 60.499
6502009 6.87047 7.62514 21.7939 24.2579 1.329 7.81772 60.5473
6502019 6.76477 7.56988 21.7742 24.3456 1.3963 7.88655 60.4544
6502029 6.76477 7.56988 21.7742 24.3456 1.3963 7.88655 60.4544
6502041 6.73834 7.52384 21.8332 24.443 1.4021 7.93233 60.5384
6502051 6.73834 7.52384 21.8332 24.443 1.4021 7.93233 60.5384
6502060 6.72073 7.54225 21.6856 24.5891 1.53832 7.93185 60.5377
6502072 6.70311 7.52384 21.6561 24.745 1.61215 7.96021 60.628
6502081 6.70311 7.52384 21.6561 24.745 1.61215 7.96021 60.628
6502094 6.72073 7.62514 21.4986 24.9106 1.77617 7.91621 60.755
6502115 6.63264 7.57909 21.4198 25.1542 1.92512 7.98598 60.7857
6502118 6.63264 7.57909 21.4198 25.1542 1.92512 7.98598 60.7857
6502121 6.57098 7.52384 21.4296 25.2321 1.9567 8.04035 60.7566
6502130 6.57098 7.52384 21.4296 25.2321 1.9567 8.04035 60.7566
6502142 6.49171 7.57909 21.3607 25.3198 2.07667 8.05161 60.7513
6502152 6.50933 7.60672 21.282 25.3393 2.1217 8.02765 60.7373
6502163 6.50933 7.60672 21.282 25.3393 2.1217 8.02765 60.7373
6502172 6.44767 7.60672 21.2721 25.3393 2.15366 8.04993 60.6658
6502185 6.46528 7.57909 21.1934 25.3003 2.15595 8.04023 60.5381
6502192 6.46528 7.57909 21.1934 25.3003 2.15595 8.04023 60.5381
6502208 6.45648 7.60672 21.1639 25.1834 2.13943 8.01618 60.4104
6502212 6.45648 7.60672 21.1639 25.1834 2.13943 8.01618 60.4104
6502222 6.44767 7.59751 21.095 25.008 2.10434 7.99471 60.1482
6502232 6.57979 7.73564 21.095 24.9106 2.06043 7.88037 60.321
6502257 6.6943 7.94745 21.0457 24.4917 1.95213 7.70092 60.1792
6502262 6.79119 8.13164 21.0261 23.9851 1.79343 7.53037 59.934
6502283 7.05544 8.63814 20.9867 23.4688 1.68946 7.17265 60.149
6502294 7.05544 8.63814 20.9867 23.4688 1.68946 7.17265 60.149
6502325 7.30207 9.01571 20.8686 22.9914 1.59381 6.86521 60.1777
6502336 7.58394 9.4117 20.7997 22.6407 1.51764 6.56348 60.436
6502345 7.76891 9.73402 20.6815 22.2315 1.45454 6.30879 60.416
6502348 7.84819 9.82611 20.5536 21.8516 1.36317 6.17453 60.0794
6502353 7.84819 9.82611 20.5536 21.8516 1.36317 6.17453 60.0794
6502365 8.06839 9.94583 20.5437 21.6957 1.25695 6.03081 60.2536
6502373 8.06839 9.94583 20.5437 21.6957 1.25695 6.03081 60.2536
6502389 8.10363 10.0563 20.4748 21.4814 1.23065 5.93756 60.1161
6502393 8.32383 10.1668 20.3764 21.3645 1.17509 5.7902 60.2315
6502403 8.32383 10.1668 20.3764 21.3645 1.17509 5.7902 60.2315
6502414 8.45596 10.2958 20.3173 21.0917 1.08634 5.64918 60.1607
6502423 8.57047 10.3971 20.1795 20.965 1.08637 5.53391 60.1121
6502437 8.57047 10.3971 20.1795 20.965 1.08637 5.53391 60.1121
6502443 8.7114 10.526 20.1697 20.7897 1.01111 5.41274 60.1967
6502454 8.7114 10.526 20.1697 20.7897 1.01111 5.41274 60.1967
6502464 8.79948 10.4892 20.1401 20.6436 0.912693 5.36729 60.0723
6502474 8.85233 10.5628 20.1401 20.5169 0.868654 5.30408 60.0722
6502485 8.85233 10.5628 20.1401 20.5169 0.868654 5.30408 60.0722
6502494 8.94041 10.5905 20.0417 20.3318 0.809693 5.21897 59.9044
6502507 9.03731 10.5997 20.0023 20.098 0.693893 5.13833 59.7373
6502514 9.03731 10.5997 20.0023 20.098 0.693893 5.13833 59.7373
6502527 9.21347 10.7194 19.9334 19.8934 0.613257 4.99349 59.7597
6502534 9.21347 10.7194 19.9334 19.8934 0.613257 4.99349 59.7597
6502544 9.31917 10.7839 19.835 19.6206 0.524837 4.874 59.5586
6502554 9.51295 11.0509 19.6873 19.3673 0.510743 4.65228 59.6185
6502566 9.51295 11.0509 19.6873 19.3673 0.510743 4.65228 59.6185
6502574 9.78601 11.2996 19.4019 19.0458 0.486094 4.37456 59.5333
6502584 10.0238 11.5298 19.2148 18.8023 0.458878 4.14553 59.5707
6502606 10.3497 11.7969 18.9294 18.4029 0.386953 3.82967 59.4788
6502626 10.7461 12.156 18.5947 18.0327 0.356081 3.45842 59.5295
6502636 11.1777 12.5612 18.2895 17.5163 0.256237 3.03979 59.5448
6502656 11.6446 12.994 17.817 16.9143 0.188136 2.54997 59.37
6502668 12.1202 13.4453 17.4134 16.4955 0.171152 2.1043 59.4744
6502676 12.1202 13.4453 17.4134 16.4955 0.171152 2.1043 59.4744
6502686 12.5959 13.7308 17.0394 15.8292 -0.0317723 1.65773 59.1952
6502696 12.5959 13.7308 17.0394 15.8292 -0.0317723 1.65773 59.1952
6502706 13.0363 14.0899 16.6465 15.2676 -0.137699 1.21644 59.0403
6502718 13.5295 14.5964 16.137 14.7536 -0.134061 0.702687 59.0166
6502738 14.1109 15.1029 15.5963 14.1064 -0.211275 0.124474 58.9165
6502747 14.6218 15.4897 15.0349 13.4686 -0.297821 -0.411488 58.615
6502767 15.2119 15.987 14.515 12.9356 -0.34284 -0.958658 58.6495
6502788 15.6964 16.4106 14.0263 12.3264 -0.421499 -1.47647 58.4597
6502798 16.2073 16.7237 13.5792 11.8315 -0.52761 -1.93352 58.3417
6502821 16.2073 16.7237 13.5792 11.8315 -0.52761 -1.93352 58.3417
6502824 16.5772 17.0486 13.2465 11.4317 -0.576018 -2.30198 58.304
6502828 16.956 17.3404 12.8722 11.0414 -0.621161 -2.67551 58.21
6502838 16.956 17.3404 12.8722 11.0414 -0.621161 -2.67551 58.21
6502853 17.3886 17.71 12.581 10.6512 -0.689402 -3.05148 58.3308
6502858 17.3886 17.71 12.581 10.6512 -0.689402 -3.05148 58.3308
6502868 17.6776 17.8947 12.3315 10.3371 -0.76291 -3.32338 58.2409
6502881 18.0064 18.0406 12.1028 10.1657 -0.815757 -3.54414 58.3156
6502888 18.0064 18.0406 12.1028 10.1657 -0.815757 -3.54414 58.3156
6502910 18.1559 18.2546 11.9884 9.95633 -0.828288 -3.71838 58.3552
6502913 18.3851 18.3907 11.8532 9.83259 -0.861676 -3.87178 58.4616
6502921 18.3851 18.3907 11.8532 9.83259 -0.861676 -3.87178 58.4616
6502930 18.5645 18.595 11.7492 9.65174 -0.882426 -4.03646 58.5604
6502938 18.5645 18.595 11.7492 9.65174 -0.882426 -4.03646 58.5604
6502952 18.6542 18.7311 11.5933 9.4804 -0.870658 -4.1854 58.459
6502959 18.8036 18.7895 11.5725 9.3757 -0.944181 -4.26492 58.5413
6502972 18.8036 18.7895 11.5725 9.3757 -0.944181 -4.26492 58.5413
6502987 18.8933 18.9354 11.4373 9.271 -0.907236 -4.38706 58.537
6502993 18.9033 19.0423 11.2917 9.25196 -0.812429 -4.46284 58.4893
6502999 18.9033 19.0423 11.2917 9.25196 -0.812429 -4.46284 58.4893
6503013 18.9631 19.1688 11.3125 9.17581 -0.823537 -4.5147 58.6202
6503030 19.0029 19.1979 11.2606 9.1187 -0.830846 -4.5634 58.5801
6503040 19.1225 19.2855 11.167 9.14726 -0.790483 -4.62187 58.7222
6503050 19.1225 19.2855 11.167 9.14726 -0.790483 -4.62187 58.7222
6503060 19.1923 19.3633 11.1566 9.06159 -0.818382 -4.67999 58.7737
6503070 19.1624 19.3438 11.167 9.1187 -0.793825 -4.64874 58.7919
6503079 19.1624 19.3438 11.167 9.1187 -0.793825 -4.64874 58.7919
6503091 19.1424 19.373 11.167 9.09015 -0.785345 -4.65991 58.7726
6503101 19.1424 19.373 11.167 9.09015 -0.785345 -4.65991 58.7726
6503111 19.0328 19.3049 11.1046 9.10918 -0.735809 -4.64308 58.5515
6503131 19.0029 19.266 11.115 9.14726 -0.72809 -4.61464 58.5312
6503132 19.0029 19.266 11.115 9.14726 -0.72809 -4.61464 58.5312
6503141 19.0029 19.3146 11.1774 9.14726 -0.732578 -4.60239 58.6422
6503151 18.9232 19.2368 11.219 9.25196 -0.70499 -4.52554 58.631
6503161 18.9232 19.2368 11.219 9.25196 -0.70499 -4.52554 58.631
6503172 18.8535 19.1396 11.4789 9.31859 -0.796975 -4.38733 58.7905
6503198 18.7239 19.0326 11.5205 9.39474 -0.774248 -4.30564 58.6717
6503201 18.6143 18.9256 11.6869 9.53751 -0.781943 -4.16466 58.7643
6503211 18.6143 18.9256 11.6869 9.53751 -0.781943 -4.16466 58.7643
6503222 18.4648 18.7895 11.8844 9.62318 -0.823909 -4.01963 58.7619
6503232 18.2257 18.6241 12.0924 9.87066 -0.775011 -3.79682 58.8128
6503247 18.2257 18.6241 12.0924 9.87066 -0.775011 -3.79682 58.8128
6503252 18.0463 18.4783 12.3107 10.0705 -0.767411 -3.60151 58.9058
6503262 18.0463 18.4783 12.3107 10.0705 -0.767411 -3.60151 58.9058
6503273 17.847 18.2157 12.5291 10.1943 -0.836124 -3.4037 58.786
6503284 17.5381 18.0212 12.7162 10.5274 -0.725178 -3.14159 58.8029
6503293 17.5381 18.0212 12.7162 10.5274 -0.725178 -3.14159 58.8029
6503302 17.3189 17.7683 13.0177 10.6512 -0.815715 -2.915 58.7561
6503314 16.9824 17.3987 13.3401 11.0034 -0.817524 -2.56393 58.7245
6503323 16.9824 17.3987 13.3401 11.0034 -0.817524 -2.56393 58.7245
6503337 16.7181 17.1945 13.6208 11.4127 -0.734472 -2.25949 58.9461
6503343 16.7181 17.1945 13.6208 11.4127 -0.734472 -2.25949 58.9461
6503353 16.3658 16.8066 14.1095 11.7648 -0.806072 -1.85398 59.0467
6503369 15.9694 16.5303 14.5046 12.2884 -0.697947 -1.44372 59.2927
6503383 15.5907 16.1528 14.9205 12.7262 -0.687064 -1.0347 59.3901
6503398 15.1767 15.7476 15.4092 13.2402 -0.670639 -0.572788 59.5736
6503403 15.1767 15.7476 15.4092 13.2402 -0.670639 -0.572788 59.5736
6503420 14.6746 15.3516 15.9498 13.7732 -0.627476 -0.0760925 59.7493
6503423 14.6746 15.3516 15.9498 13.7732 -0.627476 -0.0760925 59.7493
6503433 14.199 14.9003 16.4073 14.3158 -0.580965 0.407165 59.8224
6503443 13.8114 14.5135 16.8648 14.8583 -0.543042 0.848876 60.0481
6503453 13.8114 14.5135 16.8648 14.8583 -0.543042 0.848876 60.0481
6503464 13.3886 14.0163 17.2855 15.3533 -0.543152 1.30753 60.0436
6503473 12.9922 13.5834 17.6792 15.8483 -0.515676 1.73497 60.1031
6503493 12.543 13.0585 18.0926 16.3527 -0.50977 2.20924 60.0469
6503509 12.543 13.0585 18.0926 16.3527 -0.50977 2.20924 60.0469
6503513 12.1731 12.552 18.388 16.8858 -0.468022 2.63722 59.9988
6503523 11.8207 12.1192 18.7423 17.5066 -0.389311 3.0676 60.1888
6503533 11.8207 12.1192 18.7423 17.5066 -0.389311 3.0676 60.1888
6503543 11.4596 11.714 19.0967 18.0327 -0.335656 3.47142 60.3029
6503553 11.0632 11.318 19.4019 18.5295 -0.255987 3.8674 60.3126
6503575 10.7813 11.1062 19.6479 18.9192 -0.167036 4.13854 60.4547
6503584 10.7813 11.1062 19.6479 18.9192 -0.167036 4.13854 60.4547
6503599 10.429 10.7931 19.9236 19.2699 -0.119835 4.46195 60.4156
6503604 10.0943 10.4707 20.1204 19.757 0.00539124 4.79276 60.4425
6503626 9.74197 10.1668 20.3764 20.0785 0.0526011 5.10557 60.3637
6503635 9.49534 9.88136 20.5929 20.3805 0.071919 5.36786 60.3502
6503655 9.49534 9.88136 20.5929 20.3805 0.071919 5.36786 60.3502
6503657 9.23109 9.58667 20.839 20.6533 0.070411 5.6395 60.3101
6503664 9.23109 9.58667 20.839 20.6533 0.070411 5.6395 60.3101
6503676 8.98446 9.40249 21.0457 20.8189 0.0793338 5.84492 60.2516
6503685 8.70259 9.27356 21.2229 21.0138 0.150219 6.04369 60.2128
6503698 8.70259 9.27356 21.2229 21.0138 0.150219 6.04369 60.2128
6503706 8.58808 9.19068 21.4198 21.2086 0.161979 6.17053 60.4072
6503714 8.58808 9.19068 21.4198 21.2086 0.161979 6.17053 60.4072
6503725 8.47358 9.01571 21.6068 21.4424 0.155979 6.33315 60.5385
6503743 8.21813 8.86836 21.6954 21.647 0.248969 6.51739 60.4289
6503745 8.21813 8.86836 21.6954 21.647 0.248969 6.51739 60.4289
6503755 8.14767 8.72102 21.7939 21.7736 0.228807 6.62653 60.4362
6503765 7.94508 8.54605 21.9317 22.1146 0.323728 6.82764 60.5374
6503786 7.76891 8.35265 22.0203 22.3874 0.392729 7.00969 60.5292
6503796 7.57513 8.35265 22.1285 22.6115 0.519401 7.12377 60.6678
6503809 7.57513 8.21452 22.1285 22.6115 0.463533 7.17426 60.5297
6503816 7.48705 8.12243 22.286 22.6797 0.424674 7.26937 60.5752
6503826 7.48705 8.12243 22.286 22.6797 0.424674 7.26937 60.5752
6503836 7.31969 8.03955 22.2664 22.855 0.540882 7.38141 60.4806
6503846 7.29326 7.91062 22.3648 23.0109 0.521401 7.47079 60.5796
6503857 7.29326 7.91062 22.3648 23.0109 0.521401 7.47079 60.5796
6503867 7.2228 7.7909 22.414 23.1278 0.529218 7.56202 60.5555
6503877 7.12591 7.68039 22.5321 23.2252 0.514981 7.66575 60.5636
6503887 7.12591 7.68039 22.5321 23.2252 0.514981 7.66575 60.5636
6503900 7.02902 7.56988 22.542 23.3616 0.562164 7.76118 60.5025
6503917 6.96736 7.42254 22.6896 23.5857 0.556833 7.88395 60.6652
6503928 6.9057 7.33965 22.7684 23.7708 0.590754 7.96925 60.7845
6503937 6.9057 7.33965 22.7684 23.7708 0.590754 7.96925 60.7845
6503956 6.82643 7.27519 22.7684 23.9072 0.65302 8.03935 60.7772
6503958 6.71192 7.16468 22.857 24.0241 0.666523 8.14822 60.7576
6503968 6.71192 7.16468 22.857 24.0241 0.666523 8.14822 60.7576
6503983 6.66788 7.04496 22.8668 24.1994 0.703242 8.23147 60.7791
6503998 6.52694 6.97129 22.8471 24.2384 0.757465 8.31592 60.5838
6504008 6.4829 6.99892 22.857 24.3943 0.845221 8.34046 60.7331
6504020 6.4829 6.99892 22.857 24.3943 0.845221 8.34046 60.7331
6504029 6.39482 6.93445 22.7979 24.4332 0.897846 8.39704 60.5604
6504038 6.39482 6.93445 22.7487 24.443 0.922787 8.39273 60.521
6504060 6.39482 6.96208 22.7979 24.5014 0.935918 8.3938 60.6562
6504069 6.39482 6.96208 22.7979 24.5014 0.935918 8.3938 60.6562
6504080 6.36839 6.92524 22.6601 24.6378 1.04576 8.41808 60.5916
6504090 6.36839 7.00813 22.6207 24.706 1.12227 8.38922 60.7033
6504101 6.36839 7.00813 22.6207 24.706 1.12227 8.38922 60.7033
6504110 6.31554 6.97129 22.4435 24.8424 1.26072 8.4194 60.5728
6504125 6.35959 7.10022 22.2171 24.9203 1.42079 8.33643 60.5973
6504130 6.35959 7.10022 22.2171 24.9203 1.42079 8.33643 60.5973
6504140 6.32435 7.13705 22.1876 25.1152 1.53885 8.35395 60.7642
6504150 6.32435 7.13705 22.1876 25.1152 1.53885 8.35395 60.7642
6504160 6.33316 7.19231 22.0695 25.1931 1.63798 8.32494 60.7881
6504171 6.32435 7.21993 22.0104 25.1444 1.65965 8.30586 60.6991
6504180 6.32435 7.21993 22.0104 25.1444 1.65965 8.30586 60.6991
6504194 6.31554 7.26598 21.8923 25.0762 1.707 8.27093 60.55
6504200 6.32435 7.33965 21.8332 25.086 1.76122 8.23376 60.5832
6504210 6.32435 7.33965 21.8332 25.086 1.76122 8.23376 60.5832
6504220 6.40363 7.41333 21.7643 24.9691 1.74005 8.15431 60.5503
6504231 6.40363 7.41333 21.7643 24.9691 1.74005 8.15431 60.5503
6504250 6.45648 7.49621 21.6265 24.7742 1.73454 8.06451 60.3534
6504253 6.65026 7.64355 21.4395 24.4722 1.67178 7.87749 60.2055
6504261 6.65026 7.64355 21.4395 24.4722 1.67178 7.87749 60.2055
6504279 6.94974 7.9935 21.1245 24.102 1.6708 7.54946 60.1697
6504282 7.24041 8.32503 20.9375 23.6246 1.56825 7.23379 60.1275
6504302 7.61036 8.62893 20.7603 23.2252 1.44604 6.91066 60.2248
6504325 7.83057 8.96045 20.5929 22.6991 1.34651 6.6161 60.0831
6504334 8.15648 9.28277 20.4354 22.3777 1.27319 6.31689 60.2523
6504342 8.15648 9.28277 20.4354 22.3777 1.27319 6.31689 60.2523
6504360 8.35026 9.52221 20.2287 21.988 1.21952 6.07702 60.0892
6504362 8.57047 9.62351 20.0614 21.7249 1.13229 5.90002 59.9803
6504373 8.57047 9.62351 20.0614 21.7249 1.13229 5.90002 59.9803
6504382 8.72902 9.8169 19.9826 21.4814 1.07759 5.72858 60.0099
6504396 8.72902 9.8169 19.9826 21.4814 1.07759 5.72858 60.0099
6504402 8.86995 9.96425 19.835 21.3158 1.07322 5.58054 59.9849
6504412 9.08135 10.0287 19.7365 21.043 0.940818 5.42735 59.8896
6504422 9.08135 10.0287 19.7365 21.043 0.940818 5.42735 59.8896
6504435 9.27513 10.2958 19.52 20.7799 0.952303 5.19343 59.8708
6504446 9.51295 10.4155 19.3329 20.5266 0.876531 5.00045 59.788
6504462 9.75078 10.6641 19.1262 20.2149 0.837585 4.75087 59.756
6504479 9.75078 10.6641 19.1262 20.2149 0.837585 4.75087 59.756
6504482 10.015 10.8575 18.8998 19.8837 0.765365 4.50355 59.656
6504492 10.2881 11.1614 18.6636 19.5427 0.734407 4.21336 59.6558
6504514 10.6316 11.4101 18.388 19.192 0.663555 3.90921 59.6216
6504523 10.9311 11.6127 18.1517 18.7925 0.555754 3.63111 59.488
6504543 10.9311 11.6127 18.1517 18.7925 0.555754 3.63111 59.488
6504543 11.2041 11.8245 17.945 18.4418 0.470072 3.3724 59.4155
6504554 11.2041 11.8245 17.945 18.4418 0.470072 3.3724 59.4155
6504575 11.4508 12.0915 17.6989 18.1496 0.459433 3.1081 59.3908
6504578 11.856 12.331 17.5316 17.7891 0.307769 2.80646 59.5076
6504585 11.856 12.331 17.5316 17.7891 0.307769 2.80646 59.5076
6504599 12.2699 12.5796 17.1969 17.3994 0.215423 2.45939 59.4459
6504605 12.5694 12.9296 17 17.0487 0.171649 2.15366 59.5477
6504615 12.5694 12.9296 17 17.0487 0.171649 2.15366 59.5477
6504625 12.8689 13.1598 16.7505 16.6288 0.0712097 1.85594 59.408
6504635 12.8689 13.1598 16.7505 16.6288 0.0712097 1.85594 59.408
6504646 13.2653 13.3164 16.4593 16.3052 -0.0434339 1.56274 59.3461
6504655 13.5736 13.5926 16.2202 15.8959 -0.128736 1.25244 59.2822
6504669 13.5736 13.5926 16.2202 15.8959 -0.128736 1.25244 59.2822
6504674 13.8026 13.786 15.9914 15.5342 -0.200394 0.998994 59.1142
6504684 14.1109 13.8873 15.7627 15.1915 -0.337034 0.752127 58.9524
6504694 14.1109 13.8873 15.7627 15.1915 -0.337034 0.752127 58.9524
6504705 14.3047 14.0715 15.6587 14.925 -0.409985 0.561615 58.9599
6504717 14.3047 14.0715 15.6587 14.925 -0.409985 0.561615 58.9599
6504725 14.5777 14.2373 15.4924 14.6585 -0.497895 0.339813 58.9658
6504740 14.9301 14.4491 15.222 14.3824 -0.559722 0.0572973 58.9836
6504745 14.9301 14.4491 15.222 14.3824 -0.559722 0.0572973 58.9836
6504756 15.2824 14.7898 15.0245 14.0683 -0.612156 -0.248313 59.165
6504765 15.5026 14.7898 14.7749 13.7542 -0.736763 -0.449654 58.8215
6504775 15.5026 14.928 14.7749 13.7542 -0.676464 -0.483744 58.9597
6504789 15.8197 15.2319 14.4838 13.4115 -0.704062 -0.80315 58.9469
6504795 15.8197 15.2319 14.4838 13.4115 -0.704062 -0.80315 58.9469
6504805 16.1016 15.4529 14.1823 13.0213 -0.769968 -1.11071 58.758
6504816 16.3306 15.7568 13.8807 12.7167 -0.740331 -1.40324 58.6848
6504825 16.3306 15.7568 13.8807 12.7167 -0.740331 -1.40324 58.6848
6504844 16.6212 16.0146 13.4856 12.3264 -0.755297 -1.75126 58.4479
6504845 16.6212 16.0146 13.4856 12.3264 -0.755297 -1.75126 58.4479
6504855 16.7974 16.2633 13.1841 11.9267 -0.769959 -2.04996 58.1714
6504871 17.0598 16.5027 13.0697 11.7648 -0.797117 -2.24188 58.3971
6504876 17.0598 16.5027 13.0697 11.7648 -0.797117 -2.24188 58.3971
6504900 17.279 16.7421 12.7994 11.3936 -0.834265 -2.53241 58.2142
6504902 17.5182 16.8434 12.6226 11.308 -0.853205 -2.68416 58.2922
6504908 17.5182 16.8434 12.6226 11.308 -0.853205 -2.68416 58.2922
6504916 17.6377 17.0584 12.5291 11.1652 -0.832018 -2.82629 58.3903
6504936 17.7274 17.1362 12.4355 11.0414 -0.850745 -2.92764 58.3405
6504952 17.7872 17.2431 12.3835 10.9748 -0.836107 -2.99855 58.3886
6504967 17.837 17.3307 12.3315 10.9082 -0.825967 -3.06332 58.4074
6504977 17.8869 17.3598 12.2795 10.9367 -0.799571 -3.08669 58.463
6504986 17.8869 17.3598 12.2795 10.9367 -0.799571 -3.08669 58.463
6505006 17.9267 17.3696 12.3003 10.9653 -0.807771 -3.08154 58.5619
6505008 17.9267 17.3696 12.3003 10.9653 -0.807771 -3.08154 58.5619
6505016 17.837 17.3987 12.2587 10.9748 -0.736377 -3.07912 58.4693
6505029 17.8271 17.3793 12.3523 11.0224 -0.758645 -3.02957 58.5811
6505036 17.8271 17.3793 12.3523 11.0224 -0.758645 -3.02957 58.5811
6505052 17.7474 17.3696 12.4667 11.1652 -0.714605 -2.93242 58.7488
6505056 17.5979 17.2918 12.5394 11.308 -0.654455 -2.81992 58.7371
6505068 17.5979 17.2918 12.5394 11.308 -0.654455 -2.81992 58.7371
6505076 17.5082 17.2237 12.6434 11.3746 -0.661007 -2.73546 58.7499
6505087 17.5082 17.2237 12.6434 11.3746 -0.661007 -2.73546 58.7499
6505099 17.3986 17.2431 12.7162 11.4602 -0.59991 -2.66889 58.8182
6505123 17.279 17.2237 12.7786 11.6125 -0.518468 -2.57537 58.8938
6505128 17.2591 17.1848 12.7682 11.6697 -0.497966 -2.54901 58.8817
6505137 17.0598 17.1751 12.7474 11.7553 -0.373191 -2.48532 58.7376
6505147 17.0598 17.1751 12.7474 11.7553 -0.373191 -2.48532 58.7376
6505157 16.9472 17.1264 12.7994 11.7934 -0.352296 -2.42408 58.6664
6505177 16.7358 16.9632 12.9657 11.8981 -0.358692 -2.26297 58.5628
6505191 16.6477 16.8711 13.0385 12.117 -0.29745 -2.13804 58.6743
6505197 16.6477 16.8711 13.0385 12.117 -0.29745 -2.13804 58.6743
6505207 16.4451 16.8895 13.1633 12.2693 -0.191253 -2.01693 58.7672
6505217 16.3746 16.7421 13.2881 12.4597 -0.195727 -1.87778 58.8645
6505227 16.3746 16.7421 13.2881 12.4597 -0.195727 -1.87778 58.8645
6505238 16.172 16.6408 13.5064 12.6215 -0.176492 -1.70127 58.9408
6505247 16.172 16.6408 13.5064 12.6215 -0.176492 -1.70127 58.9408
6505262 15.943 16.5119 13.6208 12.7928 -0.110012 -1.53935 58.8686
6505267 15.7228 16.3462 13.9015 13.0308 -0.104819 -1.3059 59.0013
6505278 15.7228 16.3462 13.9015 13.0308 -0.104819 -1.3059 59.0013
6505288 15.4762 16.2264 14.0991 13.2592 -0.0379175 -1.10334 59.0609
6505298 15.2472 16.0515 14.3174 13.5543 0.0174046 -0.86873 59.1704
6505312 15.2472 16.0515 14.3174 13.5543 0.0174046 -0.86873 59.1704
6505318 14.9301 15.8673 14.6294 13.7542 0.0262201 -0.611797 59.1809
6505338 14.5249 15.5634 14.9725 14.1159 0.0768602 -0.253446 59.1766
6505348 14.1285 15.3147 15.4196 14.5062 0.114882 0.121906 59.369
6505368 13.8642 15.0569 15.8563 14.8679 0.0855982 0.453431 59.6453
6505386 13.4503 14.8174 16.2306 15.3343 0.196746 0.826594 59.8326
6505388 13.4503 14.8174 16.2306 15.3343 0.196746 0.826594 59.8326
6505398 13.1332 14.5688 16.5113 15.715 0.266707 1.13244 59.9283
6505412 13.1332 14.5688 16.5113 15.715 0.266707 1.13244 59.9283
6505418 12.7544 14.2465 16.9064 16.1148 0.291741 1.50453 60.0221
6505428 12.3492 13.9702 17.1181 16.5241 0.428161 1.83186 59.9616
6505439 12.3492 13.9702 17.1181 16.5241 0.428161 1.83186 59.9616
6505448 11.9969 13.7216 17.4627 16.9334 0.497127 2.16526 60.1145
6505462 11.9969 13.7216 17.4627 16.9334 0.497127 2.16526 60.1145
6505468 11.5653 13.3256 17.758 17.3799 0.575668 2.56053 60.0288
6505488 11.2218 12.994 18.0237 17.7209 0.612676 2.88411 59.9605
6505500 10.8254 12.7086 18.4962 18.0521 0.598797 3.24915 60.0823
6505512 10.5523 12.3034 18.7325 18.4223 0.600266 3.57416 60.0105
6505538 10.2793 12.0915 18.9983 18.7633 0.655776 3.83922 60.1324
6505541 10.2793 12.0915 19.3329 18.7633 0.513771 3.90099 60.4671
6505551 10.0767 11.8153 19.3329 19.0264 0.594181 4.09967 60.2513
6505563 9.8829 11.6127 19.5889 19.3284 0.608009 4.32566 60.4128
6505570 9.8829 11.6127 19.5889 19.3284 0.608009 4.32566 60.4128
6505586 9.64508 11.2811 19.8054 19.5719 0.581452 4.58956 60.3036
6505589 9.43368 11.1154 19.9137 19.7278 0.621268 4.758 60.1906
6505600 9.43368 11.1154 19.9137 19.7278 0.621268 4.758 60.1906
6505610 9.28394 10.8852 20.1204 20.0201 0.622138 4.96722 60.3096
6505620 9.28394 10.8852 20.1204 20.0201 0.622138 4.96722 60.3096
6505630 9.09016 10.6918 20.2189 20.1077 0.619909 5.1269 60.1085
6505640 8.97565 10.5997 20.337 20.3123 0.663909 5.24885 60.2246
6505650 8.97565 10.5997 20.337 20.3123 0.663909 5.24885 60.2246
6505660 8.82591 10.48 20.4158 20.5656 0.748053 5.39306 60.2872
6505671 8.58808 10.2405 20.7111 20.8384 0.736928 5.64464 60.3781
6505679 8.58808 10.2405 20.7111 20.8384 0.736928 5.64464 60.3781
6505704 8.48238 10.0103 20.8981 21.1599 0.738931 5.83775 60.5506
6505706 8.48238 10.0103 20.8981 21.1599 0.738931 5.83775 60.5506
6505710 8.27098 9.74323 20.9965 21.3255 0.746325 6.04309 60.3362
6505720 8.12124 9.53142 21.2032 21.6567 0.769949 6.24844 60.5126
6505741 7.95389 9.37486 21.3214 22.0756 0.895524 6.43918 60.7258
6505751 7.71606 9.0065 21.5379 22.4946 0.924641 6.74263 60.755
6505769 7.71606 9.0065 21.5379 22.4946 0.924641 6.74263 60.755
6505774 7.51347 8.67497 21.7348 22.8745 0.946251 7.01198 60.7977
6505786 7.51347 8.67497 21.7348 22.8745 0.946251 7.01198 60.7977
6505797 7.26684 8.28819 21.912 23.2544 0.973216 7.31489 60.7215
6505801 7.02021 7.91983 22.1581 23.6831 0.997281 7.62599 60.7812
6505811 7.02021 7.91983 22.1581 23.6831 0.997281 7.62599 60.7812
6505826 6.80881 7.71723 22.2664 23.9461 1.0653 7.82529 60.7385
6505831 6.51813 7.37649 22.6207 24.365 1.06876 8.15315 60.8804
6505853 6.31554 7.09101 22.8274 24.6378 1.062 8.39273 60.8718
6505861 6.31554 7.09101 22.8274 24.6378 1.062 8.39273 60.8718
6505878 6.0513 6.78711 23.0932 24.9301 1.05677 8.67168 60.8617
6505881 5.86632 6.61213 23.2015 25.1931 1.12424 8.85026 60.8731
6505892 5.86632 6.61213 23.2015 25.1931 1.12424 8.85026 60.8731
6505903 5.74301 6.39112 23.3393 25.2905 1.06944 9.00922 60.764
6505911 5.67254 6.28982 23.4378 25.3977 1.05976 9.09731 60.7978
6505927 5.67254 6.28982 23.4378 25.3977 1.05976 9.09731 60.7978
6505931 5.67254 6.28061 23.3885 25.3977 1.07724 9.09618 60.7394
6505941 5.67254 6.28061 23.3885 25.3977 1.07724 9.09618 60.7394
6505952 5.69896 6.17931 23.3787 25.3587 1.01475 9.12119 60.6157
6505961 5.70777 6.1701 23.3984 25.3295 0.987306 9.12042 60.6058
6505976 5.70777 6.1701 23.3984 25.3295 0.987306 9.12042 60.6058
6505981 5.76062 6.21614 23.4082 25.31 0.970972 9.08019 60.695
6505992 5.76062 6.21614 23.4082 25.31 0.970972 9.08019 60.695
6506003 5.76943 6.28061 23.4378 25.3003 0.976223 9.05309 60.7881
6506012 5.77824 6.3727 23.3885 25.2223 0.999096 9.00071 60.7618
6506032 5.86632 6.41874 23.2803 25.0275 0.948822 8.91757 60.5928
6506042 5.96321 6.59372 23.172 24.9009 0.972867 8.78675 60.6298
6506052 5.96321 6.59372 23.172 24.9009 0.972867 8.78675 60.6298
6506062 6.01606 6.73185 23.1129 24.8034 0.991651 8.69584 60.6643
6506072 6.01606 6.73185 23.1129 24.8034 0.991651 8.69584 60.6643
6506082 6.03368 6.75027 23.1326 24.7742 0.971401 8.68078 60.6908
6506093 6.09534 6.83315 23.0539 24.7352 0.996092 8.61215 60.7176
6506102 6.09534 6.83315 23.0539 24.7352 0.996092 8.61215 60.7176
6506116 6.18342 6.94366 22.9357 24.5891 0.99487 8.50701 60.6519
6506122 6.23627 6.9805 22.9751 24.5599 0.958413 8.47339 60.7518
6506143 6.23627 6.99892 22.9653 24.5209 0.954485 8.46103 60.7214
6506153 6.23627 6.99892 22.9653 24.5209 0.954485 8.46103 60.7214
6506168 6.28912 7.01733 22.9554 24.4332 0.908655 8.42297 60.6951
6506178 6.30674 7.10943 22.9948 24.365 0.893834 8.37757 60.776
6506188 6.30674 7.10943 22.9948 24.365 0.893834 8.37757 60.776
6506195 6.30674 7.07259 22.9849 24.3261 0.867924 8.38643 60.6903
6506204 6.30674 7.12784 23.0342 24.1605 0.802997 8.35242 60.6292
6506214 6.30674 7.12784 23.0342 24.1605 0.802997 8.35242 60.6292
6506223 6.35959 7.14626 23.0539 24.0338 0.728887 8.31322 60.5935
6506233 6.35959 7.14626 23.0539 24.0338 0.728887 8.31322 60.5935
6506243 6.43005 7.12784 22.9554 23.9461 0.6982 8.27257 60.4594
6506257 6.43005 7.22914 22.9849 23.8585 0.691128 8.22714 60.5026
6506263 6.43005 7.22914 22.9849 23.8585 0.691128 8.22714 60.5026
6506273 6.57979 7.2844 22.9456 23.7221 0.611705 8.12881 60.5318
6506283 6.64145 7.30282 22.8373 23.6052 0.591701 8.07252 60.3867
6506313 6.64145 7.30282 22.8373 23.6052 0.591701 8.07252 60.3867
6506318 6.75596 7.46858 22.8865 23.3713 0.494963 7.94446 60.4824
6506320 6.75596 7.46858 22.8865 23.3713 0.494963 7.94446 60.4824
6506323 6.85285 7.60672 22.6995 23.0791 0.470412 7.7988 60.2381
6506340 7.07306 7.83694 22.4632 22.6309 0.388142 7.54552 60.0042
6506343 7.07306 7.83694 22.4632 22.6309 0.388142 7.54552 60.0042
6506353 7.39016 8.17768 22.099 22.2607 0.396001 7.20668 59.9276
6506364 7.39016 8.17768 22.099 22.2607 0.396001 7.20668 59.9276
6506373 7.74249 8.54605 21.8726 21.8905 0.341994 6.86274 60.0517
6506388 8.06839 8.94204 21.6265 21.4424 0.286925 6.50602 60.0794
6506393 8.06839 8.94204 21.6265 21.4424 0.286925 6.50602 60.0794
6506403 8.52642 9.34724 21.2328 21.0235 0.254256 6.08248 60.1299
6506414 8.86114 9.66956 20.8686 20.4487 0.162315 5.71111 59.848
6506425 8.86114 9.66956 20.8686 20.4487 0.162315 5.71111 59.848
6506433 9.19586 10.0471 20.4748 20.0298 0.169989 5.33786 59.7476
6506444 9.19586 10.0471 20.4748 20.0298 0.169989 5.33786 59.7476
6506453 9.49534 10.3602 20.209 19.5914 0.103623 5.01497 59.656
6506463 9.8829 10.7194 19.9334 19.1822 0.0357181 4.6502 59.7179
6506485 10.2176 11.0233 19.5692 18.812 0.0203431 4.31224 59.6221
6506495 10.5964 11.4653 19.2247 18.3152 -0.0169978 3.89541 59.6016
6506515 10.9839 11.9258 18.8605 17.9547 0.0151217 3.49238 59.7249
6506525 10.9839 11.9258 18.8605 17.9547 0.0151217 3.49238 59.7249
6506540 11.2482 12.2481 18.4569 17.4871 0.0126868 3.14122 59.4403
6506545 11.6005 12.5336 18.1517 17.1266 -0.0387087 2.81362 59.4125
6506555 11.6005 12.5336 18.1517 17.1266 -0.0387087 2.81362 59.4125
6506565 11.9 12.9204 17.7875 16.6478 -0.0503361 2.43393 59.2557
6506575 12.314 13.3072 17.3741 16.2576 -0.0520423 2.02787 59.2528
6506585 12.314 13.3072 17.3741 16.2576 -0.0520423 2.02787 59.2528
6506595 12.6487 13.6479 17 15.8483 -0.0644848 1.6616 59.1449
6506610 12.6487 13.6479 17 15.8483 -0.0644848 1.6616 59.1449
6506615 12.8865 13.9518 16.6153 15.439 -0.0471443 1.32851 58.8926
6506625 13.2036 14.3017 16.3242 15.1439 -0.03483 1.00792 58.9734
6506646 13.5207 14.6333 16.0122 14.9155 0.00666678 0.704203 59.0817
6506659 13.6969 14.8635 15.7835 14.6394 0.00954866 0.473658 58.9833
6506666 13.6969 14.8635 15.7835 14.6394 0.00954866 0.473658 58.9833
6506676 14.0228 15.1398 15.5651 14.3919 -0.0237808 0.201586 59.1196
6506686 14.0228 15.1398 15.5651 14.3919 -0.0237808 0.201586 59.1196
6506696 14.2166 15.3976 15.274 14.2016 0.0459462 -0.0351897 59.0898
6506712 14.5161 15.6463 15.0037 13.897 0.009951 -0.320423 59.063
6506716 14.5161 15.6463 15.0037 13.897 0.009951 -0.320423 59.063
6506730 14.7098 15.9502 14.7229 13.5543 0.0304103 -0.606431 58.9373
6506736 14.9036 16.1159 14.4318 13.3449 0.0533193 -0.827309 58.7963
6506746 14.9036 16.1159 14.4318 13.3449 0.0533193 -0.827309 58.7963
6506756 15.1415 16.4106 14.2446 13.0213 0.0194639 -1.09307 58.818
6506766 15.1415 16.4106 14.2446 13.0213 0.0194639 -1.09307 58.818
6506781 15.344 16.5764 13.9535 12.7548 0.01432 -1.33351 58.6287
6506786 15.5819 16.825 13.7976 12.5549 0.000205636 -1.54558 58.7593
6506796 15.5819 16.825 13.7976 12.5549 0.000205636 -1.54558 58.7593
6506811 15.7052 17.0778 13.5376 12.2979 0.0566721 -1.77781 58.6185
6506831 15.8813 17.2626 13.3401 12.1361 0.0755876 -1.96208 58.6201
6506836 16.0839 17.5057 13.2153 11.9267 0.0566751 -2.15754 58.7316
6506846 16.0839 17.5057 13.2153 11.9267 0.0566751 -2.15754 58.7316
6506857 16.2777 17.7294 12.9969 11.7363 0.0813007 -2.36819 58.7403
6506866 16.4363 18.0212 12.737 11.5459 0.167605 -2.59818 58.7404
6506890 16.7005 18.274 12.5083 11.2223 0.122449 -2.87301 58.7051
6506906 16.8767 18.488 12.2691 11.0224 0.155392 -3.08744 58.6562
6506923 17.1096 18.7603 12.0092 10.7559 0.169435 -3.35249 58.635
6506928 17.1096 18.7603 12.0092 10.7559 0.169435 -3.35249 58.635
6506937 17.3288 18.9062 11.6765 10.4703 0.15896 -3.61968 58.3818
6506957 17.5381 19.1201 11.4269 10.2133 0.158003 -3.86408 58.2985
6506960 17.5381 19.1201 11.4269 10.2133 0.158003 -3.86408 58.2985
6506967 17.847 19.2466 11.2086 10.0039 0.0835717 -4.08562 58.3061
6506989 17.847 19.2466 11.2086 10.0039 0.0835717 -4.08562 58.3061
6506992 17.9566 19.3341 11.0838 9.81355 0.0460714 -4.22596 58.1881
6506997 18.1559 19.4994 10.9902 9.68981 0.0184715 -4.36493 58.3354
6507010 18.1559 19.4994 10.9902 9.68981 0.0184715 -4.36493 58.3354
6507020 18.2855 19.6161 10.8654 9.55655 0.00933409 -4.49551 58.3236
6507032 18.3751 19.7134 10.7511 9.51848 0.0452608 -4.58008 58.3581
6507037 18.3751 19.7134 10.7511 9.51848 0.0452608 -4.58008 58.3581
6507047 18.5346 19.8301 10.7719 9.39474 -0.0348628 -4.66368 58.5313
6507057 18.5346 19.8301 10.7719 9.39474 -0.0348628 -4.66368 58.5313
6507067 18.5545 19.8106 10.6575 9.34714 -0.0232249 -4.71833 58.3698
6507078 18.6342 19.9371 10.6471 9.33763 -0.00283122 -4.76123 58.556
6507087 18.6342 19.9371 10.6471 9.33763 -0.00283122 -4.76123 58.556
6507101 18.6542 19.9273 10.6159 9.26148 -0.0347421 -4.7993 58.4589
6507107 18.6741 20.0246 10.5951 9.26148 0.0072062 -4.82675 58.5553
6507124 18.6741 20.0246 10.5951 9.26148 0.0072062 -4.82675 58.5553
6507130 18.7837 20.0732 10.6367 9.24244 -0.0445783 -4.84654 58.7361
6507138 18.7837 20.0732 10.6367 9.24244 -0.0445783 -4.84654 58.7361
6507151 18.7438 20.0732 10.5951 9.20437 -0.0261679 -4.86661 58.6165
6507158 18.7438 20.0343 10.6783 9.26148 -0.0537857 -4.81243 58.7179
6507169 18.7438 20.0343 10.6783 9.26148 -0.0537857 -4.81243 58.7179
6507180 18.6841 20.0538 10.5847 9.21389 -0.000470877 -4.85319 58.5364
6507188 18.5944 19.9273 10.7407 9.28051 -0.0543132 -4.74025 58.5429
6507206 18.5944 19.9273 10.7407 9.28051 -0.0543132 -4.74025 58.5429
6507208 18.5844 19.8301 10.8031 9.36618 -0.0815883 -4.67158 58.5837
6507220 18.5844 19.8301 10.8031 9.36618 -0.0815883 -4.67158 58.5837
6507234 18.3951 19.7912 10.9278 9.48992 -0.0178292 -4.54794 58.604
6507240 18.2356 19.7037 11.1046 9.55655 -0.0341371 -4.42271 58.6004
6507250 18.2356 19.7037 11.1046 9.55655 -0.0341371 -4.42271 58.6004
6507262 18.1659 19.5481 11.219 9.66125 -0.0748962 -4.3094 58.5942
6507269 18.0164 19.3827 11.4477 9.76596 -0.134541 -4.14213 58.6128
6507280 18.0164 19.3827 11.4477 9.76596 -0.134541 -4.14213 58.6128
6507290 17.8769 19.3049 11.6349 9.9944 -0.0903085 -3.96674 58.8111
6507300 17.8769 19.3049 11.6349 9.9944 -0.0903085 -3.96674 58.8111
6507310 17.6178 18.9937 11.7804 10.1562 -0.106035 -3.7597 58.5482
6507329 17.4584 18.77 12.082 10.3942 -0.160185 -3.51394 58.7045
6507332 17.4584 18.77 12.082 10.3942 -0.160185 -3.51394 58.7045
6507340 17.1893 18.5172 12.3835 10.537 -0.221188 -3.27138 58.6269
6507354 16.9207 18.1768 12.8202 10.8701 -0.295143 -2.91061 58.7878
6507360 16.9207 18.1768 12.8202 10.8701 -0.295143 -2.91061 58.7878
6507370 16.6741 17.9045 13.1425 11.1747 -0.313029 -2.61344 58.8958
6507380 16.6741 17.9045 13.1425 11.1747 -0.313029 -2.61344 58.8958
6507390 16.3658 17.5057 13.5168 11.5554 -0.348412 -2.23924 58.9438
6507404 16.1016 17.0875 13.9951 11.9742 -0.437339 -1.83061 59.1584
6507410 16.1016 17.0875 13.9951 11.9742 -0.437339 -1.83061 59.1584
6507420 15.714 16.5764 14.3694 12.4882 -0.430608 -1.37774 59.148
6507432 15.2383 16.1343 14.9309 13.0879 -0.398618 -0.847064 59.3915
6507441 15.2383 16.1343 14.9309 13.0879 -0.398618 -0.847064 59.3915
6507451 14.8508 15.5726 15.5547 13.7161 -0.467718 -0.289601 59.6942
6507474 14.3839 15.0569 16.1162 14.3063 -0.474828 0.245975 59.8633
6507480 13.8907 14.6056 16.6985 14.8964 -0.452268 0.773469 60.0912
6507490 13.8907 14.6056 16.6985 14.8964 -0.452268 0.773469 60.0912
6507507 13.4415 14.1544 17.1378 15.458 -0.401579 1.24601 60.1917
6507511 13.4415 14.1544 17.1378 15.458 -0.401579 1.24601 60.1917
6507520 12.9482 13.6939 17.6005 16.0196 -0.346455 1.73689 60.2622
6507532 12.4637 13.2427 17.9745 16.4003 -0.330898 2.16418 60.0813
6507554 12.0409 12.7914 18.3584 16.8858 -0.300507 2.59964 60.0766
6507561 11.6622 12.3402 18.7817 17.4579 -0.268003 3.04702 60.242
6507577 11.6622 12.3402 18.7817 17.4579 -0.268003 3.04702 60.242
6507581 11.2922 12.0087 19.0967 17.8865 -0.204749 3.40446 60.2841
6507603 10.9927 11.5298 19.4019 18.3444 -0.215864 3.78896 60.2688
6507611 10.799 11.2167 19.5987 18.7341 -0.185136 4.05574 60.3485
6507621 10.799 11.2167 19.5987 18.7341 -0.185136 4.05574 60.3485
6507631 10.4907 10.9128 19.7267 19.0069 -0.12376 4.32266 60.137
6507642 10.3409 10.6918 19.9039 19.2894 -0.109442 4.52311 60.226
6507653 10.3409 10.6918 19.9039 19.2894 -0.109442 4.52311 60.226
6507662 10.1472 10.4523 20.0515 19.4258 -0.1334 4.71343 60.0768
6507676 9.96218 10.1853 20.1893 19.7083 -0.107399 4.93384 60.0451
6507682 9.96218 10.1853 20.1893 19.7083 -0.107399 4.93384 60.0451
6507692 9.81244 10.0195 20.4256 19.8544 -0.151418 5.1025 60.112
6507702 9.81244 10.0195 20.4256 19.8544 -0.151418 5.1025 60.112
6507712 9.48653 9.84453 20.6126 20.1857 -0.0286683 5.35526 60.1294
6507722 9.31917 9.57747 20.8489 20.4779 -0.0467584 5.58674 60.2234
6507732 9.31917 9.57747 20.8489 20.4779 -0.0467584 5.58674 60.2234
6507745 9.16943 9.45775 20.967 20.8384 0.0660747 5.75308 60.4326
6507755 9.16943 9.45775 20.967 20.8384 0.0660747 5.75308 60.4326
6507762 8.96684 9.2091 21.095 21.1014 0.102997 5.96808 60.3723
6507776 8.79067 9.07096 21.3017 21.3547 0.137705 6.14563 60.518
6507782 8.79067 9.07096 21.3017 21.3547 0.137705 6.14563 60.518
6507792 8.53523 8.77627 21.5281 21.6275 0.140762 6.41111 60.4671
6507806 8.29741 8.64735 21.7151 21.8613 0.204945 6.60058 60.5212
6507812 8.29741 8.64735 21.7151 21.8613 0.204945 6.60058 60.5212
6507822 8.05959 8.46316 22.04 22.0951 0.189075 6.82822 60.6578
6507836 8.05959 8.46316 22.04 22.0951 0.189075 6.82822 60.6578
6507842 7.80414 8.26977 22.1581 22.3582 0.274679 7.04132 60.5902
6507852 7.57513 8.0948 22.4731 22.6017 0.266817 7.26109 60.7447
6507864 7.57513 8.0948 22.4731 22.6017 0.266817 7.26109 60.7447
6507872 7.24041 7.92904 22.7585 22.9037 0.342667 7.51898 60.8317
6507882 6.88808 7.66197 23.1818 23.2155 0.331247 7.83805 60.9473
6507893 6.88808 7.66197 23.1818 23.2155 0.331247 7.83805 60.9473
6507902 6.57098 7.50542 23.4574 23.5272 0.41115 8.0841 61.0611
6507914 6.57098 7.50542 23.4574 23.5272 0.41115 8.0841 61.0611
6507922 6.26269 7.24756 23.6445 23.6636 0.412709 8.33577 60.8183
6507942 6.13938 7.11863 23.7626 23.8974 0.457206 8.47089 60.918
6507943 6.13938 7.11863 23.7626 23.8974 0.457206 8.47089 60.918
6507952 5.99845 6.93445 23.8709 23.9266 0.408271 8.61133 60.7304
6507970 5.81347 6.83315 23.9988 24.063 0.446346 8.75049 60.7085
6507973 5.81347 6.83315 23.9988 24.063 0.446346 8.75049 60.7085
6507983 5.65492 6.71343 24.1071 24.2189 0.482047 8.88657 60.6944
6507993 5.65492 6.71343 24.1071 24.2189 0.482047 8.88657 60.6944
6508003 5.58446 6.66739 24.1465 24.2676 0.496185 8.94132 60.666
6508013 5.53161 6.55688 24.1859 24.3748 0.500497 9.02045 60.6491
6508036 5.54922 6.55688 24.1662 24.4819 0.544581 9.02209 60.7542
6508044 5.45233 6.50163 24.2252 24.6281 0.597021 9.10237 60.8073
6508057 5.45233 6.50163 24.2252 24.6281 0.597021 9.10237 60.8073
6508063 5.50518 6.51083 24.2548 24.667 0.581712 9.08446 60.9378
6508082 5.50518 6.51083 24.2548 24.667 0.581712 9.08446 60.9378
6508091 5.46114 6.46479 24.1662 24.7158 0.63858 9.11626 60.8079
6508104 5.53161 6.53846 24.117 24.6768 0.643519 9.05062 60.8638
6508108 5.53161 6.53846 24.117 24.6768 0.643519 9.05062 60.8638
6508115 5.54922 6.55688 23.9988 24.6476 0.681609 9.02193 60.7525
6508127 5.60207 6.51083 23.9398 24.6183 0.654066 9.01053 60.671
6508134 5.60207 6.51083 23.9398 24.6183 0.654066 9.01053 60.671
6508148 5.66373 6.55688 23.8413 24.6086 0.68419 8.95723 60.6705
6508155 5.66373 6.55688 23.8413 24.6086 0.68419 8.95723 60.6705
6508165 5.66373 6.58451 23.9004 24.5307 0.639027 8.94444 60.6793
6508175 5.70777 6.55688 23.8709 24.5404 0.625715 8.93599 60.6759
6508186 5.70777 6.55688 23.8709 24.5404 0.625715 8.93599 60.6759
6508197 5.78705 6.62134 23.8512 24.5599 0.634253 8.8794 60.8195
6508206 5.78705 6.64897 23.9201 24.4819 0.58507 8.86765 60.8381
6508222 5.78705 6.64897 23.9201 24.4819 0.58507 8.86765 60.8381
6508226 5.8487 6.5753 23.9496 24.404 0.485778 8.86748 60.7776
6508236 5.8487 6.5753 23.9496 24.404 0.485778 8.86748 60.7776
6508248 5.76943 6.60293 23.9693 24.4138 0.525853 8.89074 60.7554
6508256 5.83109 6.68581 23.9299 24.3748 0.534171 8.82609 60.8216
6508270 5.83109 6.68581 23.9299 24.3748 0.534171 8.82609 60.8216
6508276 5.86632 6.64897 23.9004 24.3553 0.509104 8.82175 60.771
6508294 5.79586 6.59372 23.8807 24.3358 0.516844 8.86717 60.6061
6508296 5.79586 6.59372 23.8807 24.3358 0.516844 8.86717 60.6061
6508306 5.88394 6.69502 23.861 24.2384 0.489649 8.78084 60.6784
6508319 5.88394 6.69502 23.861 24.2384 0.489649 8.78084 60.6784
6508326 5.96321 6.65818 23.7232 24.1507 0.463864 8.74097 60.4953
6508342 6.01606 6.71343 23.7429 24.1799 0.467587 8.70371 60.6523
6508346 6.01606 6.71343 23.7429 24.1799 0.467587 8.70371 60.6523
6508356 6.10415 6.80553 23.6445 24.0241 0.446108 8.60678 60.5782
6508369 6.14819 6.84236 23.5756 23.9851 0.455692 8.56385 60.5512
6508376 6.14819 6.84236 23.5756 23.9851 0.455692 8.56385 60.5512
6508394 6.20104 6.94366 23.5067 23.8292 0.440302 8.47987 60.4806
6508397 6.20104 6.94366 23.5067 23.8292 0.440302 8.47987 60.4806
6508407 6.34197 7.10943 23.2212 23.6149 0.48151 8.30637 60.2875
6508420 6.55337 7.25677 22.9259 23.3226 0.457951 8.10168 60.0587
6508427 6.55337 7.25677 22.9259 23.3226 0.457951 8.10168 60.0587
6508446 6.86166 7.62514 22.6404 22.8453 0.403658 7.75328 59.9725
6508448 7.34611 8.02113 22.1679 22.3582 0.361165 7.30269 59.8933
6508457 7.34611 8.02113 22.1679 22.3582 0.361165 7.30269 59.8933
6508473 7.81295 8.55525 21.6954 21.8711 0.382891 6.80698 59.9347
6508477 7.81295 8.55525 21.6954 21.8711 0.382891 6.80698 59.9347
6508487 8.31503 8.99729 21.282 21.3742 0.322872 6.3393 59.9685
6508500 8.86995 9.49458 20.8489 20.8092 0.243631 5.82119 60.0226
6508507 8.86995 9.49458 20.8489 20.8092 0.243631 5.82119 60.0226
6508517 9.32798 9.8169 20.3468 20.3708 0.21418 5.40557 59.8625
6508527 9.68912 9.8169 20.0023 20.3708 0.207186 5.2273 59.8791
6508537 9.68912 10.2129 20.0023 19.8642 0.161308 5.01045 59.7685
6508553 10.0855 10.526 19.5889 19.533 0.160956 4.64824 59.7333
6508557 10.0855 10.526 19.5889 19.533 0.160956 4.64824 59.7333
6508567 10.4026 10.7839 19.2739 19.2602 0.153863 4.3572 59.7205
6508579 10.7285 11.1246 18.9983 18.9582 0.148803 4.03865 59.8095
6508603 11.1513 11.4009 18.6045 18.6269 0.113741 3.68311 59.7836
6508608 11.1513 11.4009 18.6045 18.6269 0.113741 3.68311 59.7836
6508617 11.4155 11.6679 18.1812 18.2665 0.141782 3.36737 59.5312
6508629 11.7326 11.981 17.7973 17.867 0.133932 3.01897 59.3781
6508653 12.0674 12.3126 17.3741 17.4676 0.143012 2.64982 59.2216
6508658 12.3492 12.5336 17.0295 17.1851 0.143802 2.36859 59.0974
6508668 12.3492 12.5336 17.0295 17.1851 0.143802 2.36859 59.0974
6508678 12.6927 12.8835 16.7297 16.9143 0.158498 2.04349 59.2203
6508688 12.6927 12.8835 16.7297 16.9143 0.158498 2.04349 59.2203
6508702 12.8865 13.2519 16.3969 16.5241 0.208479 1.72265 59.0594
6508710 13.2389 13.6663 16.0642 16.2195 0.246122 1.36306 59.1889
6508720 13.2389 13.6663 16.0642 16.2195 0.246122 1.36306 59.1889
6508729 13.5207 14.0163 15.7107 15.8673 0.275785 1.02538 59.115
6508749 13.8378 14.357 15.4508 15.6198 0.290313 0.727855 59.2654
6508750 13.8378 14.357 15.4508 15.6198 0.290313 0.727855 59.2654
6508758 14.1021 14.6609 15.0765 15.3152 0.337076 0.412998 59.1546
6508772 14.1021 14.6609 15.0765 15.3152 0.337076 0.412998 59.1546
6508778 14.243 14.9095 14.7125 14.925 0.373775 0.123737 58.79
6508789 14.5601 15.1582 14.4422 14.6394 0.338134 -0.162415 58.7999
6508799 14.5601 15.1582 14.4422 14.6394 0.338134 -0.162415 58.7999
6508810 14.8332 15.5081 14.1095 14.2872 0.362933 -0.496589 58.738
6508827 15.1326 15.766 13.7456 13.897 0.335127 -0.834306 58.5412
6508830 15.1326 15.766 13.7456 13.897 0.335127 -0.834306 58.5412
6508840 15.4938 16.0607 13.4544 13.6876 0.340748 -1.12761 58.6965
6508855 15.4938 16.0607 13.4544 13.6876 0.340748 -1.12761 58.6965
6508873 15.7228 16.2909 13.0801 13.3639 0.364333 -1.42914 58.4578
6508884 15.899 16.5027 12.9657 13.145 0.334549 -1.61271 58.5124
6508886 15.899 16.5027 12.9657 13.145 0.334549 -1.61271 58.5124
6508890 16.1192 16.7421 12.7058 12.9071 0.352386 -1.8594 58.4742
6508900 16.3658 16.8987 12.5706 12.7738 0.313967 -2.02701 58.6089
6508914 16.3658 16.8987 12.5706 12.7738 0.313967 -2.02701 58.6089
6508921 16.5684 17.0584 12.4043 12.5929 0.289395 -2.20802 58.624
6508939 16.5684 17.0584 12.4043 12.5929 0.289395 -2.20802 58.624
6508941 16.6917 17.2723 12.2691 12.4121 0.30846 -2.37431 58.6452
6508951 16.9031 17.4279 12.1028 12.2408 0.282413 -2.55328 58.6745
6508965 16.9031 17.4279 12.1028 12.2408 0.282413 -2.55328 58.6745
6508971 17 17.5057 11.9364 12.0694 0.272918 -2.69175 58.5115
6508981 17.1196 17.5933 11.8012 11.9838 0.28044 -2.80212 58.4978
6508992 17.1196 17.5933 11.8012 11.9838 0.28044 -2.80212 58.4978
6509001 17.2392 17.7294 11.7388 11.8505 0.256976 -2.91486 58.5579
6509017 17.2392 17.7294 11.7388 11.8505 0.256976 -2.91486 58.5579
6509022 17.2591 17.7489 11.5517 11.7077 0.27709 -3.02447 58.2673
6509031 17.3587 17.9531 11.5829 11.6601 0.286749 -3.09167 58.5548
6509043 17.3587 17.9531 11.5829 11.6601 0.286749 -3.09167 58.5548
6509051 17.5182 17.9725 11.4685 11.6316 0.263456 -3.17216 58.5908
6509069 17.4584 18.0601 11.4685 11.5649 0.298086 -3.19844 58.5519
6509082 17.5381 18.1087 11.4061 11.4888 0.27898 -3.26738 58.5417
6509094 17.5381 18.1087 11.4061 11.4888 0.27898 -3.26738 58.5417
6509102 17.5979 18.2157 11.3853 11.4698 0.299236 -3.31314 58.6686
6509112 17.6477 18.2449 11.3333 11.4222 0.292411 -3.35997 58.6481
6509133 17.6676 18.2546 11.3125 11.3365 0.260752 -3.39924 58.5713
6509146 17.6577 18.2157 11.2086 11.3365 0.293547 -3.42228 58.4184
6509152 17.6577 18.2157 11.2086 11.3365 0.293547 -3.42228 58.4184
6509162 17.6278 18.2157 11.3125 11.2984 0.245398 -3.39559 58.4544
6509185 17.6178 18.1573 11.3437 11.3365 0.227645 -3.36023 58.4554
6509196 17.558 18.1865 11.4789 11.3555 0.215569 -3.30582 58.579
6509203 17.558 18.1865 11.4789 11.3555 0.215569 -3.30582 58.579
6509213 17.5182 18.1184 11.4269 11.4698 0.274676 -3.26479 58.5333
6509225 17.5182 18.0503 11.6141 11.5269 0.189483 -3.17519 58.7095
6509233 17.5182 18.0503 11.6141 11.5269 0.189483 -3.17519 58.7095
6509244 17.4185 17.9823 11.6869 11.6221 0.212467 -3.08941 58.7097
6509253 17.4185 17.9823 11.6869 11.6221 0.212467 -3.08941 58.7097
6509267 17.2591 17.7878 11.7388 11.8124 0.256947 -2.94265 58.5981
6509273 17.0897 17.7586 12.0196 11.9838 0.268933 -2.76414 58.8516
6509283 17.0897 17.7586 12.0196 11.9838 0.268933 -2.76414 58.8516
6509294 16.9912 17.5835 12.03 12.1361 0.297248 -2.65796 58.7407
6509304 16.7798 17.3209 12.2275 12.3074 0.264776 -2.4471 58.6356
6509313 16.7798 17.3209 12.2275 12.3074 0.264776 -2.4471 58.6356
6509325 16.5684 17.2334 12.5187 12.5073 0.277779 -2.23769 58.8277
6509337 16.5684 17.2334 12.5187 12.5073 0.277779 -2.23769 58.8277
6509345 16.3306 16.9355 12.6954 12.7833 0.294864 -1.98844 58.7448
6509359 16.1016 16.7698 12.9554 13.0974 0.343785 -1.73576 58.9241
6509375 15.758 16.4935 13.3505 13.4115 0.33744 -1.39533 59.0135
6509391 15.5466 16.2725 13.652 13.7828 0.361416 -1.1099 59.2539
6509418 15.2472 16.0054 14.0055 14.154 0.381547 -0.780924 59.412
6509421 15.2472 16.0054 14.0055 14.154 0.381547 -0.780924 59.412
6509426 14.9477 15.7015 14.2758 14.4205 0.378504 -0.493597 59.3455
6509451 14.6394 15.3976 14.6398 14.8298 0.398389 -0.14304 59.5065
6509454 14.6394 15.3976 14.6398 14.8298 0.398389 -0.14304 59.5065
6509455 14.3311 15.0016 14.8893 15.1629 0.39748 0.181743 59.3849
6509465 13.9788 14.6609 15.326 15.5913 0.397691 0.57364 59.5569
6509481 13.9788 14.6609 15.326 15.5913 0.397691 0.57364 59.5569
6509486 13.5824 14.2465 15.7315 16.0577 0.415257 0.996421 59.618
6509496 13.5824 14.2465 15.7315 16.0577 0.415257 0.996421 59.618
6509506 13.1948 13.8413 16.0954 16.486 0.434878 1.39522 59.6175
6509516 12.7896 13.4545 16.7089 17.0585 0.422603 1.88044 60.0115
6509530 12.7896 13.4545 16.7089 17.0585 0.422603 1.88044 60.0115
6509537 12.4021 13.0217 17.1083 17.604 0.463668 2.31688 60.136
6509546 12.0585 12.6625 17.5512 18.0619 0.46185 2.70793 60.3342
6509566 11.7679 12.331 17.8466 18.5003 0.503278 3.03942 60.4457
6509582 11.7679 12.331 17.8466 18.5003 0.503278 3.03942 60.4457
6509586 11.3539 12.0455 18.2108 18.812 0.534937 3.38205 60.4222
6509596 11.0456 11.7416 18.4273 19.0848 0.561154 3.66296 60.2993
6509609 11.0456 11.7416 18.4273 19.0848 0.561154 3.66296 60.2993
6509616 10.7461 11.4469 18.6636 19.3186 0.563291 3.9358 60.1752
6509635 10.3674 11.097 18.8801 19.7083 0.648504 4.27727 60.0528
6509637 10.3674 11.097 18.8801 19.7083 0.648504 4.27727 60.0528
6509647 10.0326 10.8944 19.2148 20.0298 0.696635 4.56634 60.1716
6509662 10.0326 10.8944 19.2148 20.0298 0.696635 4.56634 60.1716
6509667 9.68912 10.572 19.4412 20.3221 0.734603 4.87355 60.0245
6509678 9.45129 10.3418 19.8153 20.663 0.72102 5.14801 60.2714
6509689 9.45129 10.3418 19.8153 20.663 0.72102 5.14801 60.2714
6509697 9.1342 10.1116 20.1008 21.0138 0.782964 5.43455 60.3603
6509713 8.86114 9.89057 20.3468 21.3742 0.850299 5.69744 60.4728
6509717 8.86114 9.89057 20.3468 21.3742 0.850299 5.69744 60.4728
6509727 8.61451 9.64193 20.7012 21.7054 0.837269 5.97156 60.6631
6509739 8.61451 9.64193 20.7012 21.7054 0.837269 5.97156 60.6631
6509747 8.27979 9.34724 20.8882 22.0464 0.91874 6.26823 60.5617
6509764 8.13886 9.19068 20.9965 22.2802 0.963405 6.42191 60.6063
6509768 8.13886 9.19068 20.9965 22.2802 0.963405 6.42191 60.6063
6509780 7.93627 9.05255 21.0359 22.4361 1.04054 6.57034 60.4608
6509789 7.79534 8.88678 21.1147 22.6407 1.08272 6.71932 60.4375
6509814 7.6456 8.77627 21.2721 22.7089 1.06262 6.84383 60.4029
6509819 7.6456 8.77627 21.2721 22.7089 1.06262 6.84383 60.4029
6509828 7.52228 8.67497 21.282 22.8258 1.11786 6.94234 60.305
