7215151 9.54819 9.45775 18.703 18.2762 -0.230943 4.81554 55.9851
7215163 10.4907 10.3787 17.6202 17.3117 -0.188357 3.78018 55.8012
7215171 11.5565 11.3917 16.3865 16.467 -0.0378102 2.66266 55.8016
7215181 11.5565 11.3917 16.3865 16.467 -0.0378102 2.66266 55.8016
7215191 12.4637 12.4967 15.3052 15.4104 0.0620723 1.55052 55.6761
7215201 13.3181 13.6203 14.1615 14.3443 0.218689 0.424054 55.4442
7215213 13.3181 13.6203 14.1615 14.3443 0.218689 0.424054 55.4442
7215221 14.1373 14.5596 13.0905 13.2783 0.276959 -0.634179 55.0657
7215241 14.9036 15.3792 12.1235 12.355 0.322765 -1.58989 54.7614
7215251 15.529 16.2449 11.2709 11.5649 0.4623 -2.45505 54.6098
7215273 16.2161 16.9171 10.5119 10.8606 0.481471 -3.23654 54.5057
7215284 16.7181 17.4863 9.90887 10.2419 0.506461 -3.87829 54.3552
7215295 16.7181 17.4863 9.90887 10.2419 0.506461 -3.87829 54.3552
7215306 17.1495 18.0406 9.40979 9.82307 0.599208 -4.39812 54.4229
7215323 17.6676 18.4491 9.07706 9.3757 0.494817 -4.85545 54.5695
7215334 18.1161 18.9256 8.75474 9.05207 0.504526 -5.26036 54.8485
7215354 18.3751 19.1396 8.40122 8.82363 0.542042 -5.55993 54.7396
7215363 18.6342 19.4216 8.22446 8.66181 0.557289 -5.7796 54.9421
7215375 18.6342 19.4216 8.22446 8.66181 0.557289 -5.7796 54.9421
7215383 18.8634 19.6356 7.91254 8.43337 0.589386 -6.05884 54.8449
7215393 18.8634 19.6356 7.91254 8.43337 0.589386 -6.05884 54.8449
7215403 18.973 19.7912 7.72538 8.20493 0.593159 -6.26221 54.6945
7215413 19.1125 20.083 7.55902 8.00504 0.646657 -6.47324 54.7596
7215428 19.1125 20.083 7.55902 8.00504 0.646657 -6.47324 54.7596
7215436 19.2919 20.258 7.43425 7.75756 0.588858 -6.67446 54.7417
7215444 19.4613 20.4428 7.31988 7.71948 0.628409 -6.78827 54.9435
7215464 19.6407 20.4914 7.18471 7.50056 0.532031 -6.96317 54.8174
7215475 19.6407 20.4914 7.18471 7.50056 0.532031 -6.96317 54.8174
7215484 19.7304 20.7248 7.03914 7.472 0.649181 -7.07998 54.9663
7215495 19.8001 20.8804 6.99755 7.31971 0.63751 -7.19027 54.9978
7215505 19.8001 20.8804 6.99755 7.31971 0.63751 -7.19027 54.9978
7215515 19.8898 21.0166 6.88318 7.24356 0.675577 -7.29914 55.0331
7215525 19.8898 21.0847 6.76881 7.16741 0.725484 -7.38606 54.9107
7215545 19.8798 21.1236 6.73761 7.15789 0.757763 -7.40667 54.8989
7215556 19.8798 21.1236 6.73761 7.15789 0.757763 -7.40667 54.8989
7215565 19.8798 21.2111 6.69602 7.1103 0.794911 -7.45518 54.8973
7215577 19.9496 21.3764 6.64404 7.09127 0.850901 -7.51636 55.0613
7215598 20.0293 21.532 6.48807 7.01512 0.921544 -7.64326 55.0645
7215605 20.0592 21.7168 6.3737 6.97704 1.02535 -7.73452 55.1268
7215619 20.0592 21.7168 6.3737 6.97704 1.02535 -7.73452 55.1268
7215626 20.119 21.8627 6.29052 6.82475 1.0336 -7.85881 55.097
7215646 20.0393 21.9308 6.12416 6.79619 1.16757 -7.93846 54.8904
7215659 19.9297 22.135 6.12416 6.68197 1.25894 -7.99839 54.8708
7215667 19.9297 22.135 6.12416 6.68197 1.25894 -7.99839 54.8708
7215679 19.9396 22.1836 6.03058 6.70101 1.32825 -8.03712 54.8549
7215688 19.8499 22.3587 5.92661 6.61534 1.46002 -8.12777 54.7506
7215698 19.8499 22.3587 5.92661 6.61534 1.46002 -8.12777 54.7506
7215708 19.82 22.5046 5.83303 6.58679 1.57016 -8.19393 54.7444
7215718 19.7005 22.5727 5.82263 6.51064 1.62993 -8.22427 54.6064
7215729 19.7005 22.5727 5.82263 6.51064 1.62993 -8.22427 54.6064
7215738 19.5211 22.7185 5.77064 6.5963 1.84186 -8.20579 54.6066
7215758 19.4912 22.7477 5.74985 6.58679 1.87513 -8.21859 54.5756
7215768 19.4314 22.913 5.80184 6.67245 1.98483 -8.17335 54.8187
7215778 19.4314 22.913 5.80184 6.67245 1.98483 -8.17335 54.8187
7215788 19.3617 23.0297 5.80184 6.78667 2.11574 -8.13103 54.9799
7215798 19.3617 23.0297 5.80184 6.78667 2.11574 -8.13103 54.9799
7215808 19.2122 23.1076 5.80184 6.8533 2.24959 -8.09404 54.9749
7215818 19.0926 23.1854 5.98899 6.86282 2.25222 -8.00642 55.1298
7215828 19.0926 23.1854 5.98899 6.86282 2.25222 -8.00642 55.1298
7215838 18.9132 23.1659 5.89541 6.95801 2.41899 -7.98044 54.9326
7215848 18.7937 23.1756 5.9578 7.1103 2.51395 -7.87679 55.0374
7215859 18.7937 23.1756 5.9578 7.1103 2.51395 -7.87679 55.0374
7215868 18.6641 23.3021 6.02018 7.2626 2.66084 -7.7875 55.249
7215878 18.6641 23.3021 6.02018 7.2626 2.66084 -7.7875 55.249
7215888 18.405 23.0784 6.06177 7.53863 2.79129 -7.59289 55.0838
7215898 18.2257 22.8741 6.19694 7.84323 2.85399 -7.36117 55.14
7215918 18.0662 22.7574 6.28012 8.16685 2.97533 -7.15842 55.2706
7215929 17.8669 22.6796 6.41529 8.48096 3.10156 -6.93967 55.4428
7215940 17.8669 22.6796 6.41529 8.48096 3.10156 -6.93967 55.4428
7215956 17.7872 22.5143 6.50887 8.57615 3.06679 -6.82923 55.3865
7215960 17.7872 22.5143 6.50887 8.57615 3.06679 -6.82923 55.3865
7215968 17.5082 22.2225 6.64404 8.71892 3.08076 -6.63446 55.0937
7215979 17.289 21.9989 6.69602 8.90929 3.15301 -6.47144 54.8932
7215989 17.289 21.9989 6.69602 8.90929 3.15301 -6.47144 54.8932
7215999 16.9736 21.7168 6.8208 9.04255 3.19181 -6.27648 54.5537
7216009 16.6741 21.3181 7.08073 9.33763 3.17074 -5.94751 54.4105
7216029 16.3658 21.0069 7.39266 9.85162 3.24992 -5.52806 54.617
7216039 16.3658 21.0069 7.39266 9.85162 3.24992 -5.52806 54.617
7216049 15.9782 20.5011 7.70459 10.2514 3.24684 -5.10424 54.4354
7216060 15.5819 20.0149 8.23486 10.9272 3.25306 -4.50192 54.7588
7216069 15.5819 20.0149 8.23486 10.9272 3.25306 -4.50192 54.7588
7216079 15.2119 19.48 8.83792 11.7268 3.23803 -3.83499 55.2566
7216090 14.8772 18.8284 9.59694 12.6215 3.1184 -3.08109 55.924
7216100 14.8772 18.8284 9.59694 12.6215 3.1184 -3.08109 55.924
7216110 14.4896 18.3129 10.2416 13.4591 3.11523 -2.41628 56.5033
7216120 14.4896 18.3129 10.2416 13.4591 3.11523 -2.41628 56.5033
7216130 14.0668 17.8461 10.8966 13.916 2.99629 -1.87754 56.7256
7216140 13.6705 17.4571 11.4373 14.192 2.88131 -1.45309 56.7569
7216150 13.6705 17.4571 11.4373 14.192 2.88131 -1.45309 56.7569
7216163 13.0451 16.9632 12.0612 14.4871 2.8043 -0.917653 56.5565
7216170 12.2964 16.3185 12.9865 14.9916 2.66252 -0.168772 56.593
7216180 12.2964 16.3185 12.9865 14.9916 2.66252 -0.168772 56.593
7216190 11.3098 15.5818 14.4422 15.6865 2.41852 0.851541 57.0203
7216200 11.3098 15.5818 14.4422 15.6865 2.41852 0.851541 57.0203
7216210 10.2881 14.6056 16.2098 16.5717 2.02836 2.05142 57.6752
7216220 9.42487 13.7216 17.5119 17.5358 1.85613 3.06764 58.1941
7216240 8.74663 12.7362 18.1419 18.0716 1.69826 3.82971 57.6963
7216250 8.0772 11.7784 18.7522 18.7146 1.59784 4.60844 57.3224
7216260 8.0772 11.7784 18.7522 18.7146 1.59784 4.60844 57.3224
7216271 7.68964 10.9036 19.5003 19.3381 1.32843 5.28764 57.4316
7216290 7.09067 10.0103 20.2976 20.059 1.16652 6.07118 57.4576
7216301 6.66788 9.21831 21.1147 20.5754 0.87325 6.72252 57.5762
7216311 6.66788 9.21831 21.1147 20.5754 0.87325 6.72252 57.5762
7216321 6.24508 8.5 21.7742 21.1112 0.690576 7.32433 57.6304
7216331 5.80466 7.86457 22.4829 21.4716 0.454944 7.88354 57.6238
7216341 5.80466 7.86457 22.4829 21.4716 0.454944 7.88354 57.6238
7216351 5.46995 7.33965 23.0539 21.7834 0.259873 8.33375 57.6468
7216361 5.46995 7.33965 23.0539 21.7834 0.259873 8.33375 57.6468
7216373 5.08238 6.78711 23.5854 22.0562 0.076279 8.80841 57.5111
7216381 4.87098 6.40032 23.9792 22.2607 -0.0821874 9.12046 57.5112
7216391 4.87098 6.40032 23.9792 22.2607 -0.0821874 9.12046 57.5112
7216401 4.69482 5.99512 24.2548 22.3874 -0.247276 9.40631 57.3321
7216411 4.54508 5.7649 24.5206 22.4556 -0.368829 9.6008 57.2861
7216421 4.54508 5.7649 24.5206 22.4556 -0.368829 9.6008 57.2861
7216433 4.47461 5.47021 24.8257 22.7673 -0.461775 9.81481 57.5379
7216445 4.47461 5.47021 24.8257 22.7673 -0.461775 9.81481 57.5379
7216453 4.29845 5.27681 25.121 23.0499 -0.473103 10.0255 57.7461
7216463 4.18394 5.02817 25.377 23.1668 -0.591263 10.215 57.7558
7216483 4.12228 4.77031 25.5148 23.2447 -0.703371 10.3726 57.6521
7216493 4.01658 4.6598 25.6427 23.2837 -0.744686 10.4813 57.6028
7216513 4.00777 4.52167 25.7018 23.2252 -0.853987 10.5465 57.4564
7216523 4.00777 4.52167 25.7018 23.2252 -0.853987 10.5465 57.4564
7216533 3.96373 4.49404 25.751 23.1765 -0.890559 10.5784 57.3853
7216544 3.9285 4.43879 25.8593 23.157 -0.954971 10.6256 57.3836
7216553 3.9285 4.43879 25.8593 23.157 -0.954971 10.6256 57.3836
7216564 3.97254 4.448 25.9774 23.0888 -1.04943 10.6057 57.4868
7216574 3.94611 4.38353 26.066 22.9817 -1.1533 10.6448 57.3773
7216593 3.94611 4.38353 26.066 22.9817 -1.1533 10.6448 57.3773
7216594 3.99016 4.39274 26.1644 22.9135 -1.23928 10.6233 57.4608
7216604 3.99016 4.39274 26.1644 22.9135 -1.23928 10.6233 57.4608
7216614 4.02539 4.3559 26.194 22.8063 -1.33194 10.6181 57.3816
7216624 4.08705 4.43879 26.3219 22.816 -1.36748 10.5644 57.6638
7216644 4.11347 4.46641 26.2334 22.6894 -1.38734 10.5237 57.5026
7216654 4.1487 4.50325 26.194 22.6602 -1.38214 10.4864 57.5061
7216664 4.1487 4.50325 26.194 22.6602 -1.38214 10.4864 57.5061
7216674 4.23679 4.57692 26.2432 22.6407 -1.41356 10.4173 57.6976
7216685 4.23679 4.57692 26.2432 22.6407 -1.41356 10.4173 57.6976
7216694 4.21036 4.51246 26.2334 22.6309 -1.43275 10.4558 57.5871
7216704 4.28964 4.52167 26.1841 22.553 -1.47662 10.4067 57.5485
7216714 4.28964 4.52167 26.1841 22.553 -1.47662 10.4067 57.5485
7216724 4.33368 4.57692 26.1152 22.4653 -1.48138 10.3503 57.4912
7216744 4.3601 4.61376 26.0266 22.3192 -1.50637 10.3033 57.3197
7216755 4.457 4.67822 25.879 22.251 -1.48727 10.2143 57.2652
7216776 4.58912 4.81636 25.6624 22.1049 -1.45625 10.0647 57.1728
7216788 4.69482 4.91766 25.4655 21.9685 -1.43489 9.94492 57.0465
7216806 5.00311 5.04659 25.1112 21.8613 -1.40576 9.71274 57.0222
7216816 5.27617 5.1571 24.747 21.8711 -1.3124 9.51375 57.0513
7216826 5.27617 5.1571 24.747 21.8711 -1.3124 9.51375 57.0513
7216836 5.60207 5.28602 24.3532 21.9198 -1.20252 9.28557 57.1611
7216846 5.60207 5.28602 24.3532 21.9198 -1.20252 9.28557 57.1611
7216856 5.91917 5.30444 24.0481 21.9782 -1.1723 9.11862 57.2499
7216867 6.19223 5.40574 23.6937 22.0269 -1.07 8.92973 57.3186
7216877 6.19223 5.40574 23.6937 22.0269 -1.07 8.92973 57.3186
7216888 6.50933 5.53467 23.2113 21.9003 -0.999777 8.67832 57.1556
7216898 6.77358 5.58072 22.8176 21.8808 -0.933197 8.50375 57.0527
7216918 7.13472 5.69122 22.4731 21.8418 -0.907727 8.26615 57.1408
7216929 7.13472 5.69122 22.4731 21.8418 -0.907727 8.26615 57.1408
7216937 7.42539 5.75569 22.1482 21.7931 -0.886174 8.07746 57.1224
7216948 7.62798 5.81094 21.8431 21.7931 -0.81778 7.93619 57.0751
7216957 7.62798 5.81094 21.8431 21.7931 -0.81778 7.93619 57.0751
7216969 7.82176 5.89382 21.597 21.7152 -0.793359 7.78478 57.0278
7216978 7.96269 5.99512 21.2623 21.7249 -0.660701 7.64669 56.9451
7216990 7.96269 5.99512 21.2623 21.7249 -0.660701 7.64669 56.9451
7217000 8.14767 6.05038 21.0654 21.5983 -0.687827 7.50917 56.8618
7217008 8.14767 6.05038 21.0654 21.5983 -0.687827 7.50917 56.8618
7217018 8.29741 6.13326 20.7111 21.5496 -0.584586 7.36355 56.6913
7217028 8.35907 6.23456 20.5732 21.5885 -0.488594 7.28604 56.7554
7217049 8.43834 6.26219 20.3173 21.4911 -0.44345 7.19565 56.509
7217059 8.43834 6.35428 20.2878 21.4132 -0.424238 7.14462 56.4936
7217071 8.43834 6.35428 20.2878 21.4132 -0.424238 7.14462 56.4936
7217079 8.57927 6.51083 20.209 21.4521 -0.36357 7.02303 56.7513
7217089 8.57927 6.51083 20.209 21.4521 -0.36357 7.02303 56.7513
7217099 8.59689 6.51083 20.2484 21.4424 -0.392641 7.02036 56.7985
7217109 8.68497 6.54767 20.1303 21.3255 -0.415468 6.93875 56.6884
7217121 8.68497 6.54767 20.1303 21.3255 -0.415468 6.93875 56.6884
7217129 8.79948 6.72264 19.9728 21.1404 -0.401351 6.77785 56.6353
7217144 8.91399 6.81473 19.7956 20.9358 -0.424653 6.64257 56.4601
7217149 8.91399 6.81473 19.7956 20.9358 -0.424653 6.64257 56.4601
7217159 9.06373 7.1831 19.4708 20.5072 -0.375383 6.33113 56.2248
7217179 9.27513 7.59751 19.1065 19.9713 -0.363186 5.95309 55.9505
7217190 9.66269 8.13164 18.7325 19.2407 -0.458537 5.42758 55.7675
7217207 9.66269 8.13164 18.7325 19.2407 -0.458537 5.42758 55.7675
7217218 9.97979 8.84074 18.3092 18.6659 -0.350547 4.88064 55.7956
7217229 10.2881 9.43012 18.0336 18.3054 -0.261384 4.44746 56.0572
7217240 10.6404 10.0655 17.5709 17.8183 -0.14594 3.92635 56.0952
7217251 10.6404 10.0655 17.5709 17.8183 -0.14594 3.92635 56.0952
7217260 11.1073 10.7194 16.8024 16.9619 -0.102706 3.22113 55.591
7217270 11.6622 11.5482 15.9498 16.1814 0.0531256 2.41795 55.3416
7217280 11.6622 11.5482 15.9498 16.1814 0.0531256 2.41795 55.3416
7217291 12.2699 12.4231 15.1284 15.4485 0.214031 1.59686 55.27
7217303 12.9218 13.2611 14.4734 14.7441 0.275299 0.821648 55.4004
7217313 12.9218 13.2611 14.4734 14.7441 0.275299 0.821648 55.4004
7217324 13.556 13.9886 13.7144 14.0493 0.346947 0.0594109 55.3082
7217331 13.556 13.9886 13.7144 14.0493 0.346947 0.0594109 55.3082
7217344 14.0933 14.6425 13.2153 13.3259 0.298399 -0.595524 55.2769
7217351 14.6658 15.2503 12.6122 12.6596 0.28621 -1.26231 55.1879
7217361 14.6658 15.2503 12.6122 12.6596 0.28621 -1.26231 55.1879
7217371 15.1767 15.9041 12.0508 12.0504 0.329393 -1.89726 55.182
7217381 15.6611 16.4567 11.4581 11.4793 0.37086 -2.50124 55.0552
7217391 15.6611 16.4567 11.4581 11.4793 0.37086 -2.50124 55.0552
7217403 16.0135 17.0681 10.959 10.9272 0.465178 -3.05506 54.9678
7217414 16.3922 17.0681 10.5119 10.4513 0.282606 -3.4444 54.4235
7217423 16.3922 17.5446 10.5119 10.4513 0.497156 -3.5447 54.9001
7217433 16.6917 18.0601 10.044 10.0039 0.605953 -4.02479 54.7997
7217443 16.6917 18.0601 10.044 10.0039 0.605953 -4.02479 54.7997
7217453 16.9648 18.2935 9.72171 9.61366 0.558975 -4.37493 54.5936
7217463 17.1096 18.6339 9.39939 9.32811 0.666857 -4.68579 54.471
7217474 17.1096 18.6339 9.39939 9.32811 0.666857 -4.68579 54.471
7217483 17.4285 19.0034 9.27462 9.13774 0.65552 -4.92838 54.8443
7217503 17.6676 19.266 8.9107 8.93785 0.74181 -5.22572 54.7822
7217514 17.8769 19.5772 8.72355 8.757 0.789016 -5.45382 54.9347
7217524 17.8769 19.5772 8.72355 8.757 0.789016 -5.45382 54.9347
7217535 18.0264 19.8593 8.45321 8.49048 0.852722 -5.72922 54.8293
7217545 18.1958 20.2094 8.21407 8.25252 0.934935 -5.99723 54.8717
7217555 18.1958 20.2094 8.21407 8.25252 0.934935 -5.99723 54.8717
7217565 18.3751 20.4233 8.01651 8.04311 0.945526 -6.21755 54.8581
7217575 18.3851 20.6859 7.81896 7.80515 1.04534 -6.43026 54.6952
7217595 18.6641 20.9193 7.6526 7.74804 1.06879 -6.59722 54.9841
7217605 18.6641 20.9193 7.6526 7.74804 1.06879 -6.59722 54.9841
7217617 18.7339 21.036 7.51743 7.63382 1.10092 -6.72382 54.9212
7217628 18.8634 21.2889 7.37187 7.52912 1.17283 -6.88006 55.0533
7217636 18.8634 21.2889 7.37187 7.52912 1.17283 -6.88006 55.0533
7217646 18.9631 21.5612 7.2263 7.45297 1.27927 -7.02265 55.2036
7217656 19.0029 21.7849 6.97676 7.23404 1.38151 -7.24846 54.9986
7217666 19.0029 21.7849 6.97676 7.23404 1.38151 -7.24846 54.9986
7217686 19.1524 22.028 6.88318 7.1103 1.4059 -7.39125 55.1739
7217688 19.1524 22.028 6.88318 7.1103 1.4059 -7.39125 55.1739
7217696 19.1325 22.2323 6.70642 6.91993 1.50629 -7.56624 54.9911
7217706 19.2222 22.4073 6.58165 6.82475 1.55729 -7.69219 55.0359
7217716 19.2222 22.4073 6.58165 6.82475 1.55729 -7.69219 55.0359
7217726 19.2819 22.6213 6.47768 6.65342 1.59676 -7.84205 55.0343
7217738 19.3218 22.8644 6.21774 6.56775 1.77028 -8.02251 54.9717
7217758 19.3617 22.9811 6.22813 6.47256 1.75492 -8.07782 55.0435
7217768 19.2919 23.0686 6.11376 6.31075 1.81333 -8.19641 54.7851
7217780 19.2919 23.0686 6.11376 6.31075 1.81333 -8.19641 54.7851
7217788 19.2521 23.0784 5.92661 6.27268 1.9129 -8.28846 54.5297
7217800 19.2521 23.0784 5.92661 6.27268 1.9129 -8.28846 54.5297
7217809 19.1325 23.0589 5.87462 6.19653 1.95732 -8.32626 54.2625
7217823 19.0129 23.0006 5.83303 6.22508 2.02497 -8.30992 54.0716
7217839 19.0627 23.1465 5.89541 6.26316 2.04693 -8.29093 54.3677
7217849 19.0627 23.1465 5.89541 6.26316 2.04693 -8.29093 54.3677
7217859 19.0229 23.2534 5.937 6.33931 2.12312 -8.24892 54.5526
7217874 19.0826 23.3701 5.9578 6.41545 2.16373 -8.22954 54.826
7217879 19.0826 23.3701 5.9578 6.41545 2.16373 -8.22954 54.826
7217889 19.0328 23.5257 5.9682 6.51064 2.28724 -8.19799 55.0374
7217899 18.9232 23.623 6.06177 6.69149 2.40938 -8.08135 55.2995
7217909 18.9232 23.623 6.06177 6.69149 2.40938 -8.08135 55.2995
7217919 18.7438 23.6814 6.10336 6.75812 2.52876 -8.02102 55.2867
7217939 18.4549 23.623 6.11376 6.99608 2.74085 -7.8735 55.1877
7217950 18.3951 23.6911 6.16575 7.01512 2.77985 -7.84517 55.267
7217971 18.2456 23.6522 6.18654 7.06271 2.84818 -7.7924 55.147
7217980 18.0164 23.5646 6.23853 7.08175 2.91043 -7.72134 54.9013
7218000 17.7773 23.3215 6.18654 7.11982 2.97652 -7.66262 54.4051
7218011 17.3986 23.0297 6.31132 7.24356 3.03956 -7.46717 53.9832
7218021 17.3986 23.0297 6.31132 7.24356 3.03956 -7.46717 53.9832
7218031 17.0698 22.6602 6.52966 7.48152 3.04343 -7.17851 53.7411
7218041 17.0698 22.6602 6.52966 7.48152 3.04343 -7.17851 53.7411
7218051 16.6389 22.2031 6.95596 7.93841 3.04574 -6.68475 53.7363
7218061 16.0927 21.746 7.663 8.49048 3.00077 -6.02455 53.9922
7218071 16.0927 21.746 7.663 8.49048 3.00077 -6.02455 53.9922
7218091 15.4057 21.143 8.85872 9.35666 2.84642 -5.02154 54.7641
7218092 14.9565 20.5011 10.4183 10.4132 2.4603 -3.89757 56.2892
7218114 14.613 19.7426 11.7908 11.584 2.1318 -2.8531 57.7303
7218137 13.9435 18.6339 13.0593 12.6976 1.85511 -1.75379 58.3344
7218141 13.1596 17.1556 14.2758 13.9731 1.57661 -0.529221 58.5642
7218163 12.3845 15.7384 15.482 15.2772 1.33704 0.671591 58.8819
7218173 11.4772 14.4491 16.5945 16.2385 1.11298 1.76314 58.7593
7218185 11.4772 14.4491 16.5945 16.2385 1.11298 1.76314 58.7593
7218191 10.5435 13.2427 17.63 16.9239 0.854054 2.7685 58.3401
7218207 10.5435 13.2427 17.63 16.9239 0.854054 2.7685 58.3401
7218213 9.52176 12.0271 18.6242 17.5066 0.601473 3.79214 57.6796
7218223 8.61451 10.922 19.6283 18.247 0.403324 4.79138 57.4118
7218243 7.79534 9.94583 20.7012 18.9095 0.156376 5.71983 57.3518
7218255 7.06425 9.0065 21.6364 19.6499 -0.019291 6.59435 57.357
7218263 7.06425 9.0065 21.6364 19.6499 -0.019291 6.59435 57.357
7218274 6.50052 8.25135 22.3156 20.0395 -0.22992 7.2504 57.107
7218294 6.11295 7.69881 22.8767 20.3221 -0.42481 7.73199 57.0105
7218304 5.80466 7.27519 23.4771 20.5559 -0.635028 8.12947 57.1129
7218315 5.80466 7.27519 23.4771 20.5559 -0.635028 8.12947 57.1129
7218324 5.55803 7.00813 23.9004 20.8189 -0.71196 8.41919 57.2855
7218336 5.21451 6.66739 24.2942 21.043 -0.785704 8.77031 57.219
7218344 5.21451 6.66739 24.2942 21.043 -0.785704 8.77031 57.219
7218357 5.00311 6.40953 24.6091 21.3547 -0.805205 9.03276 57.3765
7218374 4.79171 6.14247 25.062 21.6957 -0.873388 9.31418 57.6918
7218384 4.64197 5.80173 25.4262 22.0075 -0.975752 9.58664 57.8773
7218404 4.47461 5.54388 25.7412 22.3679 -0.990921 9.8294 58.1276
7218414 4.2456 5.21235 26.0168 22.6115 -1.04955 10.1152 58.0862
7218424 4.2456 5.21235 26.0168 22.6115 -1.04955 10.1152 58.0862
7218434 4.12228 4.87161 26.1841 22.7966 -1.13767 10.3459 57.9746
7218445 4.12228 4.87161 26.1841 22.7966 -1.13767 10.3459 57.9746
7218454 3.85803 4.55851 26.2727 22.9037 -1.15836 10.6159 57.593
7218465 3.73471 4.42958 26.2629 22.9622 -1.13516 10.7322 57.3894
7218475 3.73471 4.42958 26.2629 22.9622 -1.13516 10.7322 57.3894
7218486 3.66425 4.2546 26.5779 23.0791 -1.26287 10.8739 57.5758
7218495 3.58497 4.09805 26.7157 23.3226 -1.24736 11.0068 57.7213
7218511 3.58497 4.09805 26.7157 23.3226 -1.24736 11.0068 57.7213
7218516 3.47927 3.99675 26.8043 23.2837 -1.30426 11.1038 57.564
7218537 3.36477 3.92308 26.9224 23.4688 -1.25493 11.2094 57.679
7218546 3.30311 3.79415 27.0996 23.8097 -1.20625 11.3294 58.0066
7218558 3.30311 3.79415 27.0996 23.8097 -1.20625 11.3294 58.0066
7218568 3.21503 3.52709 27.2571 23.8779 -1.32483 11.5053 57.8771
7218579 3.12694 3.37053 27.3654 24.0241 -1.33783 11.6327 57.8869
7218588 3.12694 3.37053 27.3654 24.0241 -1.33783 11.6327 57.8869
7218599 2.95078 3.21398 27.6705 24.3748 -1.30242 11.8228 58.2101
7218608 2.82746 3.08505 27.8477 24.5891 -1.2858 11.9601 58.3493
7218628 2.7658 2.82719 28.1529 24.706 -1.44797 12.1294 58.4519
7218648 2.53679 2.56934 28.4186 24.8034 -1.53556 12.3738 58.3282
7218659 2.37824 2.46804 28.714 24.8619 -1.60995 12.5114 58.4221
7218669 2.37824 2.46804 28.714 24.8619 -1.60995 12.5114 58.4221
7218680 2.30777 2.30228 28.773 24.8619 -1.6811 12.6255 58.245
7218689 2.14922 2.19177 28.8222 24.8716 -1.6835 12.756 58.0349
7218710 2.07876 2.17335 28.8715 24.9203 -1.66104 12.8023 58.0439
7218719 2.07876 2.17335 28.8715 24.9203 -1.66104 12.8023 58.0439
7218731 2.03471 2.04442 28.8025 24.8327 -1.71542 12.8797 57.7143
7218739 2.06114 1.96154 28.901 24.745 -1.84485 12.9074 57.6686
7218759 2.09637 2.04442 29.088 24.8327 -1.85463 12.8605 58.0615
7218772 2.15803 2.03521 29.1865 24.8814 -1.90002 12.8408 58.2611
7218793 2.24611 2.17335 29.216 24.8911 -1.87848 12.7346 58.5266
7218800 2.24611 2.17335 29.216 24.8911 -1.87848 12.7346 58.5266
7218814 2.23731 2.17335 29.216 24.7742 -1.92879 12.7343 58.4008
7218820 2.26373 2.27465 29.216 24.7255 -1.915 12.6718 58.4799
7218830 2.26373 2.27465 29.216 24.7255 -1.915 12.6718 58.4799
7218840 2.25492 2.25623 29.1471 24.5404 -1.9783 12.6746 58.1986
7218850 2.24611 2.17335 29.029 24.4235 -2.02094 12.709 57.8719
7218870 2.11399 2.08126 28.8222 24.2287 -2.02036 12.8015 57.2461
7218883 2.11399 2.08126 28.8222 24.2287 -2.02036 12.8015 57.2461
7218890 2.11399 2.05363 28.7533 24.1117 -2.06107 12.8078 57.0327
7218919 2.20207 2.03521 28.7927 24.0338 -2.158 12.7723 57.0638
7218921 2.20207 2.03521 28.7927 24.0338 -2.158 12.7723 57.0638
7218922 2.26373 2.15493 28.7632 23.8974 -2.17879 12.6776 57.0793
7218931 2.29016 2.24702 28.901 24.0533 -2.12676 12.6324 57.4915
7218952 2.38705 2.39437 28.9207 24.063 -2.09915 12.5168 57.7651
7218962 2.38705 2.39437 28.9207 24.063 -2.09915 12.5168 57.7651
7218973 2.51036 2.41278 28.9797 24.0046 -2.19001 12.4495 57.9075
7218983 2.62487 2.55092 28.9502 23.9948 -2.1633 12.3284 58.1208
7219003 2.80104 2.7351 28.6647 23.839 -2.10705 12.1384 58.0398
7219013 2.96839 2.81798 28.5368 23.5857 -2.20239 12.0023 57.9088
7219023 2.96839 2.81798 28.5368 23.5857 -2.20239 12.0023 57.9088
7219033 3.13575 2.9377 28.2907 23.4395 -2.18377 11.8479 57.8037
7219043 3.13575 2.9377 28.2907 23.4395 -2.18377 11.8479 57.8037
7219053 3.27668 2.99296 28.1332 23.3032 -2.21543 11.7406 57.706
7219064 3.41762 3.14951 27.956 23.1668 -2.1916 11.5849 57.6899
7219073 3.41762 3.14951 27.956 23.1668 -2.1916 11.5849 57.6899
7219083 3.56736 3.29686 27.8379 23.0791 -2.17601 11.4361 57.7812
7219095 3.64663 3.35211 27.8772 23.0206 -2.22428 11.3735 57.8966
7219103 3.64663 3.35211 27.8772 23.0206 -2.22428 11.3735 57.8966
7219114 3.73471 3.40737 27.7788 22.894 -2.25382 11.294 57.8149
7219124 3.73471 3.40737 27.7788 22.894 -2.25382 11.294 57.8149
7219134 3.73471 3.49025 27.6508 22.7673 -2.22402 11.2398 57.6431
7219150 3.89326 3.65601 27.4244 22.6115 -2.1925 11.0671 57.5852
7219154 3.89326 3.65601 27.4244 22.6115 -2.1925 11.0671 57.5852
7219166 3.99896 3.72048 27.2571 22.4361 -2.22054 10.9663 57.4126
7219175 4.13109 3.91387 27.0405 22.1633 -2.22469 10.7842 57.2488
7219196 4.28083 4.19014 26.7944 21.7054 -2.27295 10.5393 56.9709
7219210 4.44819 4.5493 26.5582 21.043 -2.39145 10.2309 56.5987
7219215 4.44819 4.5493 26.5582 21.043 -2.39145 10.2309 56.5987
7219229 4.69482 5.07421 26.4302 20.6728 -2.3641 9.84684 56.872
7219235 4.69482 5.07421 26.4302 20.6728 -2.3641 9.84684 56.872
7219245 4.90622 5.5623 26.2334 20.3123 -2.30861 9.49163 57.0142
7219256 5.15285 5.99512 25.8691 19.9324 -2.2364 9.12744 56.9495
7219278 5.54041 6.50163 25.1112 19.3284 -2.13415 8.60391 56.4816
7219286 6.13057 7.19231 24.176 18.4808 -2.06927 7.86016 55.9797
7219315 6.87927 8.16847 22.8078 17.5163 -1.80698 6.84725 55.3718
7219318 6.87927 8.16847 22.8078 17.5163 -1.80698 6.84725 55.3718
7219327 7.99793 9.40249 21.2525 16.3908 -1.57015 5.5164 55.0437
7219339 9.45129 10.8299 19.7956 15.5056 -1.30949 4.05344 55.5824
7219347 9.45129 10.8299 19.7956 15.5056 -1.30949 4.05344 55.5824
7219358 10.843 12.1376 18.4273 14.5442 -1.15657 2.67844 55.9522
7219368 12.2171 13.4177 16.9584 13.5543 -0.98114 1.30316 56.1475
7219388 13.3974 14.5688 15.6067 12.4502 -0.885873 0.0242829 56.0231
7219408 14.2959 15.6002 14.307 11.4983 -0.675187 -1.1016 55.7014
7219421 15.2119 16.3738 13.2049 10.7368 -0.588082 -2.06492 55.5274
7219438 15.9078 17.1459 12.1859 10.042 -0.409643 -2.93743 55.2816
7219448 16.4539 17.7391 11.3645 9.49944 -0.26329 -3.63143 55.057
7219471 16.8503 18.3421 10.5951 9.06159 -0.018996 -4.24866 54.8491
7219479 16.8503 18.3421 10.5951 9.06159 -0.018996 -4.24866 54.8491
7219495 17.1794 18.7992 10.0752 8.64278 0.0856429 -4.73354 54.6966
7219501 17.4185 19.2368 9.56575 8.26204 0.236133 -5.18351 54.4832
7219518 17.558 19.5383 9.23303 8.10974 0.393566 -5.44285 54.4391
7219529 17.5082 19.6161 9.05627 7.95745 0.465989 -5.57204 54.1381
7219549 17.279 19.4216 9.19144 8.08119 0.478181 -5.39934 53.9733
7219559 17.279 19.4216 9.19144 8.08119 0.478181 -5.39934 53.9733
7219572 16.9472 19.0812 9.55535 8.38578 0.446784 -5.02708 53.9695
7219580 16.5508 18.6241 10.252 8.84266 0.3059 -4.44455 54.2696
7219600 16.0135 17.9725 11.2086 9.69933 0.204864 -3.57365 54.8939
7219610 15.1855 17.0486 12.737 10.9367 0.0281125 -2.29674 55.9079
7219621 15.1855 17.0486 12.737 10.9367 0.0281125 -2.29674 55.9079
7219630 14.1637 15.9502 14.7853 12.4406 -0.243393 -0.755475 57.3399
7219650 13.0451 14.6609 16.8752 14.0588 -0.511864 0.825731 58.64
7219661 12.1554 13.5005 17.8859 15.0202 -0.649171 1.85703 58.5621
7219671 12.1554 13.5005 17.8859 15.0202 -0.649171 1.85703 58.5621
7219682 11.8207 12.9296 17.6989 15.1915 -0.606585 2.11832 57.6407
7219691 11.715 12.6994 17.128 14.8393 -0.578351 2.0094 56.3816
7219705 11.715 12.6994 17.128 14.8393 -0.578351 2.0094 56.3816
7219711 11.8824 12.8743 16.5009 14.4015 -0.497456 1.65624 55.6591
7219733 11.8824 12.8743 16.5009 14.4015 -0.497456 1.65624 55.6591
7219738 12.0762 13.2703 15.9498 13.9351 -0.371461 1.23256 55.2314
7219741 12.5694 13.9978 15.3364 13.3735 -0.24175 0.581412 55.2771
7219751 12.5694 13.9978 15.3364 13.3735 -0.24175 0.581412 55.2771
7219761 13.2036 14.9003 14.4838 12.7452 -0.0189111 -0.237178 55.333
7219771 13.7674 15.8212 13.6832 12.0694 0.198823 -1.03973 55.3412
7219791 13.7674 15.8212 13.6832 12.0694 0.198823 -1.03973 55.3412
7219794 14.4104 16.779 12.9242 11.3746 0.369018 -1.86272 55.4881
7219813 14.7715 17.5349 12.2691 10.7654 0.569052 -2.51312 55.3409
7219824 15.1767 18.2449 11.7284 10.4323 0.797009 -3.03897 55.5822
7219834 15.1767 18.2449 11.7284 10.4323 0.797009 -3.03897 55.5822
7219843 15.3088 18.7603 11.2606 9.94681 0.966844 -3.49021 55.2765
7219856 15.4762 19.159 10.8343 9.68029 1.14639 -3.84063 55.1497
7219863 15.4762 19.159 10.8343 9.68029 1.14639 -3.84063 55.1497
7219879 15.5202 19.3827 10.6575 9.49944 1.22797 -4.01726 55.0599
7219884 15.344 19.4508 10.4807 9.41377 1.38957 -4.08681 54.6894
7219894 15.344 19.4508 10.4807 9.41377 1.38957 -4.08681 54.6894
7219904 15.0446 19.3438 10.7615 9.57559 1.42227 -3.85141 54.7254
7219914 15.0446 19.3438 10.7615 9.57559 1.42227 -3.85141 54.7254
7219941 14.6922 19.0326 11.1774 9.93729 1.41335 -3.4492 54.8395
7219948 14.2959 18.6922 11.8428 10.4798 1.37107 -2.89241 55.3107
7219950 14.2959 18.6922 11.8428 10.4798 1.37107 -2.89241 55.3107
7219954 13.8378 18.1184 12.789 11.2223 1.21226 -2.12935 55.9675
7219964 13.186 17.3501 13.8599 12.0314 1.03475 -1.23473 56.4274
7219984 12.3404 16.3462 15.2116 13.1545 0.853884 -0.0842401 57.0527
7220004 11.3891 15.02 16.9688 14.4871 0.496519 1.30824 57.8651
7220020 10.1736 13.6111 18.7226 16.1529 0.369793 2.83605 58.6601
7220035 9.17824 12.2297 20.1893 17.6235 0.204995 4.1552 59.2208
7220045 8.06839 10.6826 21.2525 18.7341 0.0407726 5.42301 58.7375
7220065 7.16114 9.21831 22.0006 19.7473 -0.0843525 6.54643 58.1273
7220075 7.16114 9.21831 22.0006 19.7473 -0.0843525 6.54643 58.1273
7220089 6.44767 8.24215 22.4337 20.1662 -0.206421 7.30762 57.2897
7220095 5.98083 7.56988 22.601 20.3221 -0.305419 7.80159 56.4738
7220119 5.63731 7.15547 22.8668 20.4195 -0.414224 8.15639 56.0791
7220126 5.46114 6.91603 23.2015 20.4585 -0.57469 8.37376 56.0371
7220138 5.46114 6.91603 23.2015 20.4585 -0.57469 8.37376 56.0371
7220147 5.39948 6.84236 23.5263 20.5364 -0.686923 8.47735 56.3046
7220166 5.42591 6.90683 23.7331 20.5559 -0.748949 8.46572 56.6217
7220182 5.4171 7.14626 24.0087 20.4292 -0.811514 8.38785 57.0013
7220198 5.5228 7.3857 24.3237 20.5266 -0.837161 8.29531 57.7588
7220208 5.51399 7.35807 24.6485 20.7117 -0.898422 8.3686 58.2323
7220218 5.51399 7.35807 24.6485 20.7117 -0.898422 8.3686 58.2323
7220230 5.44352 7.2844 24.7174 20.702 -0.934929 8.43328 58.1474
7220239 5.44352 7.2844 24.7174 20.702 -0.934929 8.43328 58.1474
7220253 5.35544 7.22914 24.619 20.663 -0.899591 8.47573 57.8666
7220259 5.40829 7.19231 24.4713 20.4779 -0.959767 8.43147 57.5499
7220279 5.33782 7.22914 24.3335 20.2831 -0.943938 8.40704 57.1836
7220289 5.3114 7.13705 24.3335 20.2344 -0.996859 8.45006 57.0164
7220300 5.3114 7.13705 24.3335 20.2344 -0.996859 8.45006 57.0164
7220310 5.24093 7.07259 24.5107 20.439 -0.977978 8.54899 57.2632
7220323 5.09119 6.79632 24.8651 20.5851 -1.12267 8.78026 57.3377
7220346 4.94145 6.60293 25.1506 20.8092 -1.16509 8.97728 57.5041
7220351 4.94145 6.60293 25.1506 20.8092 -1.16509 8.97728 57.5041
7220360 4.84456 6.474 25.2391 20.8871 -1.18488 9.08899 57.4448
7220370 4.83575 6.22535 25.4557 20.965 -1.34871 9.22717 57.4818
7220380 4.83575 6.22535 25.4557 20.965 -1.34871 9.22717 57.4818
7220391 4.7829 6.15168 25.5541 21.0722 -1.35211 9.30104 57.5609
7220401 4.71244 5.93066 25.6821 21.2378 -1.4011 9.45316 57.563
7220415 4.71244 5.93066 25.6821 21.2378 -1.4011 9.45316 57.563
7220430 4.66839 5.75569 25.9282 21.3255 -1.52373 9.57811 57.6778
7220441 4.59793 5.65439 25.9873 21.3645 -1.54778 9.66062 57.604
7220451 4.55389 5.52546 26.2038 21.3547 -1.68184 9.75379 57.6379
7220463 4.55389 5.52546 26.2038 21.3547 -1.68184 9.75379 57.6379
7220473 4.50984 5.44258 26.381 21.4911 -1.71085 9.83658 57.8245
7220488 4.37772 5.19393 26.4794 21.5788 -1.77184 10.0174 57.6299
7220493 4.37772 5.19393 26.4794 21.5788 -1.77184 10.0174 57.6299
7220503 4.34249 5.09263 26.5385 21.6567 -1.7923 10.0885 57.6304
7220523 4.28083 4.97291 26.6862 21.7347 -1.84631 10.1866 57.6746
7220535 4.17513 4.8532 26.8929 21.8808 -1.87451 10.3142 57.802
7220544 4.17513 4.8532 26.8929 21.8808 -1.87451 10.3142 57.802
7220559 4.12228 4.72427 27.0799 21.9685 -1.94725 10.4159 57.8949
7220563 4.043 4.51246 27.2079 22.1049 -2.00177 10.5647 57.8682
7220574 4.043 4.51246 27.2079 22.1049 -2.00177 10.5647 57.8682
7220585 4.0342 4.40195 27.3063 22.1926 -2.04799 10.6316 57.935
7220606 3.89326 4.3467 27.3063 22.212 -2.00874 10.7201 57.7583
7220614 3.85803 4.19935 27.3457 22.3289 -2.02463 10.813 57.732
7220631 3.85803 4.19935 27.3457 22.3289 -2.02463 10.813 57.732
7220635 3.77876 4.07963 27.5327 22.3582 -2.10984 10.9177 57.7493
7220645 3.72591 3.99675 27.5819 22.29 -2.17951 10.9774 57.5946
7220665 3.63782 3.9507 27.6016 22.3874 -2.12815 11.0461 57.5775
7220680 3.6114 3.92308 27.6115 22.3777 -2.13918 11.0706 57.5236
7220685 3.6114 3.92308 27.6115 22.3777 -2.13918 11.0706 57.5236
7220695 3.62902 3.85861 27.7493 22.4848 -2.18066 11.1084 57.7217
7220706 3.62902 3.85861 27.7493 22.4848 -2.18066 11.1084 57.7217
7220716 3.55855 3.8494 27.8576 22.5043 -2.19077 11.153 57.7698
7220726 3.57617 3.84019 27.9068 22.6699 -2.14372 11.1635 57.993
7220763 3.60259 3.78494 27.8379 22.6115 -2.18029 11.1681 57.8369
7220764 3.58497 3.82178 27.7887 22.6991 -2.09549 11.1619 57.8945
7220766 3.58497 3.82178 27.7887 22.6991 -2.09549 11.1619 57.8945
7220778 3.64663 3.85861 27.6902 22.8258 -2.00463 11.1194 58.0212
7220789 3.62902 3.97833 27.5229 22.855 -1.86191 11.0642 57.9852
7220797 3.62902 3.97833 27.5229 22.855 -1.86191 11.0642 57.9852
7220808 3.68187 4.02438 27.454 22.8355 -1.84321 11.0137 57.9957
7220818 3.68187 4.02438 27.454 22.8355 -1.84321 11.0137 57.9957
7220828 3.62021 3.98754 27.3063 22.8355 -1.7764 11.0479 57.7496
7220838 3.6114 3.85861 27.0602 22.7479 -1.77431 11.0875 57.2781
7220851 3.6114 3.85861 27.0602 22.7479 -1.77431 11.0875 57.2781
7220862 3.64663 4.00596 26.8535 22.5628 -1.72223 10.9772 57.0688
7220880 3.69948 3.97833 26.8141 22.4946 -1.77267 10.9581 56.9865
7220890 3.74352 4.01517 26.6566 22.3971 -1.75483 10.903 56.8125
7220897 3.74352 4.01517 26.6566 22.3971 -1.75483 10.903 56.8125
7220907 3.89326 4.19014 26.4598 22.29 -1.70363 10.7331 56.8331
7220921 4.07824 4.30065 26.0955 22.1049 -1.66503 10.5573 56.5793
7220929 4.07824 4.30065 26.0955 22.1049 -1.66503 10.5573 56.5793
7220942 4.56269 4.6598 25.5443 21.7639 -1.62889 10.1058 56.5307
7220959 4.94145 5.10184 24.9832 21.3547 -1.53779 9.65604 56.3812
7220969 5.59326 5.65439 24.3631 20.6825 -1.60739 9.00586 56.2932
7220979 5.59326 5.65439 24.3631 20.6825 -1.60739 9.00586 56.2932
7220989 6.28912 6.39112 23.5263 20.0103 -1.51824 8.23322 56.2169
7221003 6.89689 7.21993 22.8865 19.4745 -1.36734 7.5014 56.4778
7221019 7.5399 7.92904 22.3156 18.9289 -1.32134 6.81732 56.7134
7221029 7.5399 7.92904 22.3156 18.9289 -1.32134 6.81732 56.7134
7221039 8.09482 8.48158 21.6068 18.3444 -1.27179 6.20267 56.5276
7221054 8.74663 9.07096 20.8981 17.7989 -1.22752 5.54177 56.5145
7221063 8.74663 9.07096 20.8981 17.7989 -1.22752 5.54177 56.5145
7221071 9.32798 9.74323 20.0122 17.2338 -1.04901 4.84082 56.3172
7221080 9.9886 10.4431 19.2247 16.4574 -1.03036 4.07664 56.1138
7221092 9.9886 10.4431 19.2247 16.4574 -1.03036 4.07664 56.1138
7221101 10.5788 11.1798 18.3092 15.7912 -0.857948 3.31417 55.859
7221116 11.1777 11.981 17.4627 15.1344 -0.683765 2.53918 55.7558
7221131 11.7943 12.8191 16.6673 14.4776 -0.522302 1.7571 55.7583
7221142 11.7943 12.8191 16.6673 14.4776 -0.522302 1.7571 55.7583
7221151 12.2259 13.4177 15.8771 13.897 -0.355633 1.118 55.4176
7221161 12.7016 14.0439 15.2012 13.5543 -0.137199 0.543262 55.501
7221182 13.0891 14.5596 14.6502 13.2021 0.010106 0.0550175 55.501
7221191 13.4326 15.2319 13.9847 12.7167 0.239852 -0.531853 55.3659
7221203 13.4326 15.2319 13.9847 12.7167 0.239852 -0.531853 55.3659
7221215 13.785 15.9594 13.4024 12.2122 0.444442 -1.11898 55.359
7221223 13.785 15.9594 13.4024 12.2122 0.444442 -1.11898 55.359
7221233 14.2254 16.6408 12.5291 11.5745 0.664398 -1.84539 54.9698
7221243 14.7627 17.4376 11.822 11.089 0.880924 -2.52832 55.1114
7221254 14.7627 17.4376 11.822 11.089 0.880924 -2.52832 55.1114
7221264 15.2472 18.099 11.1046 10.4703 1.00943 -3.21495 54.921
7221274 15.714 18.6241 10.5743 9.97536 1.0527 -3.76818 54.8878
7221287 15.714 18.6241 10.5743 9.97536 1.0527 -3.76818 54.8878
7221294 16.1104 19.266 10.0024 9.50896 1.21255 -4.33566 54.8878
7221313 16.1104 19.266 10.0024 9.50896 1.21255 -4.33566 54.8878
7221315 16.4187 19.6453 9.60734 9.06159 1.22454 -4.76725 54.7329
7221325 16.8679 19.9662 9.22263 8.72844 1.18836 -5.17011 54.7852
7221335 16.8679 19.9662 9.22263 8.72844 1.18836 -5.17011 54.7852
7221344 17.2093 20.3164 8.88991 8.3953 1.19159 -5.53917 54.8108
7221355 17.5481 20.4233 8.52599 8.18589 1.15903 -5.83163 54.6833
7221364 17.5481 20.4233 8.52599 8.18589 1.15903 -5.83163 54.6833
7221376 17.847 20.5692 8.28685 7.89082 1.06522 -6.11018 54.5939
7221384 17.847 20.5692 8.28685 7.89082 1.06522 -6.11018 54.5939
7221397 17.9267 20.5109 8.22446 7.84323 1.01041 -6.15626 54.5053
7221404 18.1559 20.5789 8.13089 7.65286 0.891894 -6.31467 54.5186
7221414 18.1559 20.5789 8.13089 7.65286 0.891894 -6.31467 54.5186
7221426 18.405 20.7248 8.04771 7.70045 0.8986 -6.39101 54.878
7221434 18.5844 20.6665 8.04771 7.65286 0.767592 -6.42849 54.9514
7221444 18.5844 20.6665 8.04771 7.65286 0.767592 -6.42849 54.9514
7221455 18.7239 20.6373 7.99572 7.50056 0.646323 -6.52553 54.8575
7221475 18.8933 20.5595 7.82936 7.46249 0.593349 -6.62009 54.7447
7221485 19.0627 20.5498 7.95413 7.38634 0.418204 -6.62531 54.953
7221495 19.0627 20.5498 7.95413 7.38634 0.418204 -6.62531 54.953
7221506 19.1524 20.6178 7.89174 7.32923 0.410488 -6.69633 54.9912
7221515 19.272 20.5887 7.92294 7.39586 0.35775 -6.67147 55.1794
7221535 19.3517 20.5109 7.90214 7.32923 0.266024 -6.70615 55.0939
7221545 19.3517 20.5109 7.90214 7.32923 0.266024 -6.70615 55.0939
7221555 19.3417 20.4331 7.91254 7.27212 0.205112 -6.71135 54.9595
7221565 19.3916 20.4136 7.92294 7.27212 0.168744 -6.71182 55.0002
7221586 19.4414 20.4039 7.97492 7.29115 0.126442 -6.68987 55.1114
7221595 19.3816 20.4039 7.94373 7.24356 0.146493 -6.71192 54.9728
7221615 19.4513 20.4136 8.0685 7.32923 0.100881 -6.64116 55.2627
7221636 19.3218 20.3358 7.99572 7.30067 0.145105 -6.64953 54.954
7221646 19.2122 20.1608 8.03731 7.46249 0.170276 -6.52596 54.8727
7221656 19.2122 20.1608 8.03731 7.46249 0.170276 -6.52596 54.8727
7221666 19.1524 20.1219 8.16208 7.58623 0.178835 -6.41354 55.0226
7221676 19.0328 20.1608 8.30764 7.60526 0.193056 -6.337 55.1065
7221686 19.0328 20.1608 8.30764 7.60526 0.193056 -6.337 55.1065
7221697 18.9431 20.1024 8.37003 7.75756 0.247759 -6.23074 55.1731
7221706 18.9431 20.1024 8.37003 7.75756 0.247759 -6.23074 55.1731
7221717 18.8834 20.0635 8.4948 7.71948 0.183475 -6.18168 55.1611
7221728 18.7737 19.9565 8.56758 7.80515 0.190711 -6.08611 55.103
7221747 18.6442 19.869 8.69236 7.95745 0.222018 -5.94512 55.163
7221757 18.4349 19.7231 8.9107 8.06215 0.199354 -5.76406 55.1309
7221783 18.4349 19.7231 8.9107 8.06215 0.199354 -5.76406 55.1309
7221784 18.2954 19.6356 9.11865 8.22396 0.201479 -5.58722 55.2736
7221789 18.2356 19.5092 9.29541 8.37626 0.159863 -5.43335 55.4165
7221799 18.2356 19.5092 9.29541 8.37626 0.159863 -5.43335 55.4165
7221810 18.1161 19.3924 9.31621 8.46193 0.190872 -5.35311 55.2866
7221830 17.847 19.1201 9.44098 8.6523 0.219959 -5.14177 55.0604
7221840 17.6477 18.8284 9.63853 8.88074 0.192228 -4.89773 54.9954
7221851 17.6477 18.8284 9.63853 8.88074 0.192228 -4.89773 54.9954
7221860 17.3886 18.5366 9.90887 9.15677 0.179982 -4.59883 54.9909
7221870 17.0598 18.1476 10.2728 9.57559 0.177372 -4.18458 55.0558
7221880 17.0598 18.1476 10.2728 9.57559 0.177372 -4.18458 55.0558
7221890 16.7269 17.71 10.6367 10.1181 0.210384 -3.71851 55.1917
7221901 16.7269 17.71 10.6367 10.1181 0.210384 -3.71851 55.1917
7221912 16.2777 17.0486 11.2813 10.6797 0.0765532 -3.08351 55.2874
7221922 15.8285 16.3185 12.0716 11.5174 -0.0287846 -2.30321 55.7359
7221941 15.3 15.416 12.9138 12.5929 -0.091058 -1.38983 56.2227
7221951 14.7451 14.6148 13.808 13.5448 -0.173412 -0.530879 56.7127
7221961 14.7451 14.6148 13.808 13.5448 -0.173412 -0.530879 56.7127
7221971 14.1637 13.915 14.6709 14.3063 -0.268796 0.236226 57.0559
7221982 14.1637 13.915 14.6709 14.3063 -0.268796 0.236226 57.0559
7221991 13.3358 13.169 15.5651 14.925 -0.353935 1.04887 56.9949
7222002 12.6839 12.5336 16.3554 15.4866 -0.446525 1.74145 57.0594
7222011 12.6839 12.5336 16.3554 15.4866 -0.446525 1.74145 57.0594
7222021 12.2083 12.0179 16.8648 15.8102 -0.547022 2.22725 56.9012
7222031 11.8383 11.539 17.1969 16.1814 -0.57915 2.64316 56.7556
7222041 11.8383 11.539 17.1969 16.1814 -0.57915 2.64316 56.7556
7222051 11.3275 11.0049 17.6202 16.6573 -0.56766 3.16513 56.6098
7222073 10.9135 10.526 18.2108 17.0877 -0.665586 3.66394 56.7379
7222090 10.4907 10.1761 18.6636 17.6527 -0.581521 4.11953 56.983
7222093 10.4907 10.1761 18.6636 17.6527 -0.581521 4.11953 56.983
7222103 9.90933 9.70639 19.3822 18.1009 -0.649858 4.69379 57.0987
7222114 9.28394 9.3104 20.2583 18.6756 -0.67625 5.30337 57.5282
7222137 8.59689 8.82232 21.1737 19.1725 -0.768533 5.95348 57.7654
7222143 8.59689 8.82232 21.1737 19.1725 -0.768533 5.95348 57.7654
7222154 7.90984 8.15926 21.8726 19.6888 -0.839125 6.63511 57.6305
7222165 7.41658 7.64355 22.0892 20.0395 -0.796774 7.09979 57.1889
7222184 7.09948 7.23835 22.0301 20.439 -0.639124 7.42812 56.8069
7222194 6.94974 6.8792 22.1581 20.8676 -0.598454 7.703 56.8546
7222214 6.78238 6.54767 22.4435 21.345 -0.583553 7.99875 57.1186
7222229 6.47409 6.19772 22.8964 21.9295 -0.540546 8.38835 57.4977
7222235 6.47409 6.19772 22.8964 21.9295 -0.540546 8.38835 57.4977
7222245 6.21865 5.92145 23.3885 22.4751 -0.521806 8.72104 58.0037
7222255 6.21865 5.92145 23.3885 22.4751 -0.521806 8.72104 58.0037
7222266 5.85751 5.58992 23.6642 22.8063 -0.485794 9.07052 57.9179
7222276 5.6285 5.32286 23.8807 23.0304 -0.499453 9.32204 57.8624
7222285 5.6285 5.32286 23.8807 23.0304 -0.499453 9.32204 57.8624
7222299 5.39948 5.01896 24.117 23.2934 -0.520536 9.5952 57.8288
7222305 5.1 4.72427 24.432 23.498 -0.566928 9.89686 57.7542
7222315 5.1 4.72427 24.432 23.498 -0.566928 9.89686 57.7542
7222325 4.77409 4.43879 24.9045 23.7708 -0.634411 10.2255 57.8881
7222335 4.77409 4.43879 24.9045 23.7708 -0.634411 10.2255 57.8881
7222350 4.43057 4.17172 25.436 23.9754 -0.740992 10.5516 58.0137
7222356 4.043 3.91387 25.9873 24.1994 -0.824241 10.8945 58.1436
7222376 3.66425 3.59155 26.3121 24.2968 -0.902085 11.2382 57.8647
7222386 3.35596 3.39816 26.5483 24.4527 -0.88885 11.4917 57.7552
7222396 3.35596 3.39816 26.5483 24.4527 -0.88885 11.4917 57.7552
7222406 3.17979 3.27844 26.5779 24.5112 -0.854973 11.6333 57.5473
7222427 3.01244 3.19556 26.5287 24.4625 -0.823036 11.744 57.1991
7222441 2.95959 3.1403 26.4696 24.4625 -0.800613 11.7913 57.032
7222446 2.95959 3.1403 26.4696 24.4625 -0.800613 11.7913 57.032
7222456 2.98601 3.19556 26.4598 24.365 -0.826734 11.7469 57.0064
7222466 3.11813 3.25081 26.4302 24.3845 -0.836349 11.6587 57.1837
7222476 3.11813 3.25081 26.4302 24.3845 -0.836349 11.6587 57.1837
7222487 3.16218 3.31528 26.4598 24.5112 -0.781345 11.6174 57.4484
7222508 3.25026 3.3429 26.5385 24.706 -0.752038 11.5802 57.8377
7222518 3.22383 3.37974 26.6074 24.745 -0.736128 11.5818 57.956
7222530 3.22383 3.37974 26.6074 24.745 -0.736128 11.5818 57.956
7222538 3.25907 3.37053 26.5976 24.6476 -0.794189 11.5635 57.8747
7222558 3.2943 3.30607 26.6763 24.5794 -0.901021 11.5775 57.8561
7222572 3.38238 3.40737 26.6862 24.6086 -0.883445 11.4932 58.0845
7222581 3.38238 3.40737 26.6862 24.6086 -0.883445 11.4932 58.0845
7222589 3.42642 3.4442 26.6074 24.5014 -0.900403 11.445 57.9795
7222599 3.45285 3.42579 26.5385 24.4332 -0.921486 11.4329 57.8504
7222609 3.45285 3.42579 26.5385 24.4332 -0.921486 11.4329 57.8504
7222619 3.42642 3.53629 26.568 24.3066 -0.930011 11.3885 57.8373
7222629 3.43523 3.56392 26.6369 24.3163 -0.945571 11.3768 57.9524
7222639 3.43523 3.56392 26.6369 24.3163 -0.945571 11.3768 57.9524
7222649 3.45285 3.5455 26.6369 24.3066 -0.965492 11.3765 57.9419
7222660 3.45285 3.5455 26.6369 24.3066 -0.965492 11.3765 57.9419
7222669 3.43523 3.51788 26.6566 24.1605 -1.04445 11.3893 57.7702
7222682 3.43523 3.51788 26.6763 24.1507 -1.05701 11.3899 57.7801
7222691 3.43523 3.51788 26.6763 24.1507 -1.05701 11.3899 57.7801
7222703 3.48808 3.47183 26.7748 24.102 -1.16233 11.3899 57.8367
7222710 3.42642 3.41658 26.7748 23.9948 -1.21057 11.4367 57.6126
7222720 3.42642 3.41658 26.7748 23.9948 -1.21057 11.4367 57.6126
7222730 3.5057 3.49946 26.8633 23.9461 -1.26415 11.365 57.8146
7222740 3.5057 3.49946 26.8633 23.9461 -1.26415 11.365 57.8146
7222751 3.47927 3.37974 26.8929 23.8877 -1.34661 11.43 57.6396
7222761 3.48808 3.40737 27.0307 23.8974 -1.38957 11.4225 57.8236
7222771 3.48808 3.40737 27.0307 23.8974 -1.38957 11.4225 57.8236
7222781 3.5057 3.42579 26.9913 23.8 -1.41678 11.3975 57.7228
7222800 3.51451 3.52709 27.0012 23.7903 -1.38257 11.3473 57.833
7222801 3.51451 3.52709 27.0012 23.7903 -1.38257 11.3473 57.833
7222813 3.48808 3.57313 27.0208 23.7513 -1.37659 11.3371 57.8333
7222831 3.48808 3.53629 26.8535 23.7415 -1.3293 11.3427 57.6194
7222842 3.45285 3.6468 26.8043 23.7221 -1.25302 11.3039 57.626
7222852 3.45285 3.6468 26.8043 23.7221 -1.25302 11.3039 57.626
7222861 3.43523 3.62839 26.8338 23.6831 -1.2841 11.3198 57.5805
7222873 3.48808 3.71127 26.7551 23.6539 -1.24896 11.2509 57.6083
7222881 3.48808 3.71127 26.7551 23.6539 -1.24896 11.2509 57.6083
7222893 3.53212 3.72969 26.7748 23.5857 -1.2979 11.2193 57.6222
7222902 3.53212 3.72969 26.7748 23.5857 -1.2979 11.2193 57.6222
7222922 3.47047 3.72048 26.696 23.7026 -1.19094 11.254 57.5895
7222925 3.48808 3.70206 26.6862 23.7513 -1.18038 11.2569 57.6276
7222933 3.48808 3.70206 26.6862 23.7513 -1.18038 11.2569 57.6276
7222948 3.44404 3.79415 26.6763 23.761 -1.1119 11.235 57.6755
7222954 3.46166 3.78494 26.6862 23.7903 -1.11421 11.2338 57.723
7222964 3.46166 3.78494 26.6862 23.7903 -1.11421 11.2338 57.723
7222977 3.49689 3.80336 26.6173 23.8195 -1.07873 11.2068 57.737
7222990 3.60259 3.88624 26.4302 23.761 -1.03395 11.105 57.6801
7222994 3.60259 3.88624 26.4302 23.761 -1.03395 11.105 57.6801
7223009 3.69948 3.96912 26.1743 23.6928 -0.961061 11.0015 57.5357
7223014 3.69948 3.96912 26.1743 23.6928 -0.961061 11.0015 57.5357
7223024 3.87565 4.02438 25.7412 23.6149 -0.863464 10.8607 57.2561
7223034 4.1399 4.21777 25.2687 23.3811 -0.79363 10.6018 57.0074
7223044 4.1399 4.21777 25.2687 23.3811 -0.79363 10.6018 57.0074
7223054 4.58031 4.46641 24.8552 23.157 -0.793965 10.2435 57.059
7223064 5.07358 4.7519 24.3434 22.9524 -0.749552 9.83968 57.1213
7223074 5.07358 4.7519 24.3434 22.9524 -0.749552 9.83968 57.1213
7223084 5.6285 5.12947 23.9004 22.7771 -0.706165 9.38084 57.4354
7223095 5.6285 5.12947 23.9004 22.7771 -0.706165 9.38084 57.4354
7223106 6.17461 5.39653 23.3295 22.4069 -0.741908 8.9426 57.3075
7223118 6.57098 5.72806 22.7093 22.0075 -0.677355 8.52861 57.0158
7223125 6.57098 5.72806 22.7093 22.0075 -0.677355 8.52861 57.0158
7223135 7.07306 6.12405 21.8234 21.4911 -0.566822 7.99413 56.5116
7223145 7.07306 6.12405 21.8234 21.4911 -0.566822 7.99413 56.5116
7223155 7.61036 6.72264 20.8981 20.7799 -0.448959 7.32312 56.011
7223165 8.25337 7.39491 19.7464 20.0493 -0.250503 6.53292 55.4439
7223186 8.86995 8.15926 18.6833 19.2017 -0.087516 5.69683 54.9142
7223195 9.62746 9.08938 17.6202 18.3542 0.0895619 4.73316 54.6911
7223218 10.4554 10.2129 16.6465 17.6138 0.329849 3.71171 54.9286
7223226 11.1513 11.2259 15.8459 17.0585 0.582102 2.85642 55.2815
7223246 12.0057 12.3034 14.8685 16.3242 0.789773 1.86038 55.5017
7223256 12.0057 12.3034 14.8685 16.3242 0.789773 1.86038 55.5017
7223267 12.6487 13.2611 14.0783 15.5722 0.947773 1.0099 55.5603
7223278 13.2477 14.1636 13.3089 14.8679 1.11306 0.206553 55.588
7223289 13.2477 14.1636 13.3089 14.8679 1.11306 0.206553 55.588
7223298 13.8819 14.9464 12.633 14.2777 1.21513 -0.516018 55.739
7223308 14.3487 15.5358 12.0196 13.7732 1.32043 -1.10233 55.6773
7223318 14.3487 15.5358 12.0196 13.7732 1.32043 -1.10233 55.6773
7223329 14.842 16.1343 11.3957 13.1831 1.3859 -1.72734 55.5551
7223339 14.842 16.1343 11.3957 13.1831 1.3859 -1.72734 55.5551
7223348 15.2383 16.7882 10.7823 12.4882 1.47197 -2.37518 55.297
7223358 15.6699 17.3112 10.148 11.8505 1.52045 -2.99637 54.9797
7223368 15.6699 17.3112 10.148 11.8505 1.52045 -2.99637 54.9797
7223378 15.943 17.8461 9.55535 11.2413 1.64378 -3.57028 54.5858
7223389 16.2249 18.2351 9.16024 10.6892 1.62921 -4.03535 54.3095
7223413 16.4451 18.4783 8.76514 10.3561 1.67646 -4.38585 54.0446
7223418 16.4451 18.4783 8.76514 10.3561 1.67646 -4.38585 54.0446
7223427 16.542 18.8186 8.61957 10.1372 1.7528 -4.60218 54.1174
7223439 16.7886 19.159 8.44281 9.86114 1.74592 -4.87829 54.2516
7223449 16.7886 19.159 8.44281 9.86114 1.74592 -4.87829 54.2516
7223461 16.9295 19.6064 8.34924 9.69933 1.84437 -5.08039 54.5845
7223469 17.0399 19.8398 8.28685 9.57559 1.86725 -5.21095 54.7421
7223489 17.1993 20.0343 8.14128 9.47088 1.89834 -5.36635 54.8458
7223499 17.1993 20.0343 8.14128 9.47088 1.89834 -5.36635 54.8458
7223510 17.2591 20.3261 7.99572 9.31859 1.99905 -5.53854 54.8995
7223519 17.3587 20.54 7.97492 9.16629 1.98614 -5.65704 55.04
7223536 17.3587 20.54 7.97492 9.16629 1.98614 -5.65704 55.04
7223539 17.3488 20.8318 7.81896 8.95689 2.10211 -5.84228 54.9564
7223550 17.4683 21.143 7.6318 8.78555 2.19359 -6.04975 55.0287
7223561 17.4683 21.143 7.6318 8.78555 2.19359 -6.04975 55.0287
7223570 17.558 21.3959 7.46544 8.58567 2.25347 -6.24565 55.005
7223590 17.5481 21.5515 7.29908 8.33819 2.30308 -6.42957 54.7368
7223600 17.5879 21.853 7.2055 8.23348 2.41119 -6.5603 54.8799
7223629 17.5879 21.853 7.2055 8.23348 2.41119 -6.5603 54.8799
7223630 17.7274 22.1836 7.00795 8.0336 2.4939 -6.78845 54.9526
7223641 17.7872 22.5143 6.76881 7.86226 2.64895 -7.00962 54.9326
7223652 17.8072 22.8741 6.68563 7.65286 2.74184 -7.18182 55.0198
7223661 17.8072 22.8741 6.68563 7.65286 2.74184 -7.18182 55.0198
7223672 17.7374 23.02 6.45688 7.56719 2.91747 -7.31999 54.7815
7223681 17.7175 23.1173 6.45688 7.52912 2.95146 -7.34633 54.8207
7223692 17.7175 23.1173 6.45688 7.52912 2.95146 -7.34633 54.8207
7223702 17.6377 23.2145 6.3737 7.45297 3.04324 -7.4139 54.6789
7223711 17.5281 23.234 6.3737 7.54815 3.14548 -7.36238 54.684
7223721 17.5281 23.234 6.3737 7.54815 3.14548 -7.36238 54.684
7223731 17.5879 23.4577 6.24893 7.68141 3.32064 -7.39831 54.9759
7223752 17.5481 23.6035 6.21774 7.63382 3.39597 -7.44504 55.0032
7223762 17.568 23.8467 6.15535 7.69093 3.53516 -7.48315 55.261
7223771 17.568 23.8467 6.15535 7.69093 3.53516 -7.48315 55.261
7223784 17.568 23.9634 6.05138 7.43393 3.53436 -7.64661 55.0167
7223791 17.4783 24.0898 5.9682 7.32923 3.63276 -7.72909 54.8656
7223807 17.4783 24.0898 5.9682 7.32923 3.63276 -7.72909 54.8656
7223811 17.3886 24.1676 5.9682 7.34826 3.71727 -7.71963 54.8727
7223821 17.3886 24.1676 5.9682 7.34826 3.71727 -7.71963 54.8727
7223831 17.3189 24.1871 5.86422 7.28163 3.79018 -7.78385 54.6518
7223841 17.2989 24.2649 5.81223 7.24356 3.84352 -7.82906 54.6196
7223854 17.2989 24.2649 5.81223 7.24356 3.84352 -7.82906 54.6196
7223861 17.1993 24.401 5.83303 7.28163 3.95246 -7.80929 54.715
7223875 17.1694 24.4205 5.86422 7.31019 3.97022 -7.78303 54.7643
7223898 17.0498 24.4205 5.85382 7.29115 4.03183 -7.77951 54.6153
7223903 17.0498 24.4205 5.85382 7.29115 4.03183 -7.77951 54.6153
7223913 16.9119 24.3719 5.937 7.35778 4.06786 -7.6923 54.5786
7223923 16.8591 24.3719 6.03058 7.54815 4.11896 -7.5677 54.8097
7223934 16.8591 24.3719 6.03058 7.54815 4.11896 -7.5677 54.8097
7223945 16.8238 24.3232 6.14495 7.64334 4.09471 -7.47026 54.9354
7223954 16.6653 24.1968 6.29052 7.80515 4.11504 -7.30554 54.9578
7223974 16.586 24.1579 6.40489 7.99552 4.15388 -7.16579 55.1443
7223989 16.586 24.1579 6.40489 7.99552 4.15388 -7.16579 55.1443
7223994 16.4363 24.0023 6.49847 8.06215 4.14992 -7.05772 54.9992
7224005 16.3306 23.9731 6.71682 8.29059 4.16567 -6.86018 55.3111
7224015 16.3306 23.9731 6.71682 8.29059 4.16567 -6.86018 55.3111
7224025 15.987 23.7592 6.84159 8.40482 4.2439 -6.68266 54.9926
7224036 15.899 23.5355 7.15352 8.71892 4.15948 -6.39034 55.3069
7224046 15.899 23.5355 7.15352 8.71892 4.15948 -6.39034 55.3069
7224059 15.7052 23.1465 7.30948 9.05207 4.15837 -6.10998 55.2132
7224069 15.4762 22.8741 7.71498 9.41377 4.09919 -5.73772 55.4791
7224082 15.4762 22.8741 7.71498 9.41377 4.09919 -5.73772 55.4791
7224086 15.2472 22.2809 8.09969 9.85162 3.95898 -5.29298 55.4794
7224097 15.2472 22.2809 8.09969 9.85162 3.95898 -5.29298 55.4794
7224106 14.842 21.6876 8.57798 10.3085 3.86901 -4.77563 55.4161
7224116 14.3135 20.8124 9.3474 11.0319 3.68588 -3.98518 55.5051
7224126 14.3135 20.8124 9.3474 11.0319 3.68588 -3.98518 55.5051
7224136 13.7145 19.9079 10.2728 11.8791 3.49608 -3.08491 55.7742
7224154 12.9041 18.6533 11.6349 13.126 3.214 -1.81023 56.3183
7224168 12.0497 17.1459 13.3713 14.7156 2.81083 -0.290352 57.2824
7224179 12.0497 17.1459 13.3713 14.7156 2.81083 -0.290352 57.2824
7224188 11.2218 15.7476 15.0349 16.2576 2.46667 1.11302 58.2617
7224202 10.5876 14.7438 16.2202 17.0292 2.11897 2.02748 58.5807
7224219 9.78601 13.6939 16.9272 17.4189 1.90209 2.81867 57.8261
7224229 9.01088 12.552 17.7481 18.1203 1.70349 3.73635 57.4314
7224250 8.30622 11.6311 18.5258 18.9582 1.63584 4.58366 57.4212
7224260 9.96218 11.6311 19.2345 18.9582 0.582317 4.16471 59.7859
7224276 7.70725 10.7654 19.2345 19.6986 1.53392 5.34625 57.4058
7224281 7.17876 10.0011 19.8645 20.2928 1.41734 6.01115 57.3372
7224289 7.17876 10.0011 19.8645 20.2928 1.41734 6.01115 57.3372
7224299 6.68549 9.33803 20.337 20.9943 1.44269 6.61874 57.3548
7224309 6.2715 8.81311 20.7504 21.4132 1.39933 7.09516 57.2482
7224320 6.2715 8.81311 20.7504 21.4132 1.39933 7.09516 57.2482
7224332 5.96321 8.3987 21.0851 21.6762 1.32459 7.45741 57.1232
7224342 5.68135 8.04875 21.3903 21.949 1.28183 7.78242 57.0694
7224365 5.49637 7.91062 21.5281 21.91 1.22974 7.92446 56.8451
7224370 5.49637 7.91062 21.5281 21.91 1.22974 7.92446 56.8451
7224381 5.46995 7.7909 21.6265 21.9587 1.16682 8.00171 56.8461
7224391 5.44352 7.71723 21.6856 22.0075 1.14134 8.05548 56.8538
7224402 5.44352 7.71723 21.6856 22.0075 1.14134 8.05548 56.8538
7224411 5.44352 7.66197 21.6757 21.9782 1.11036 8.07314 56.7595
7224422 5.54922 7.69881 21.725 21.9003 1.02197 8.01182 56.8733
7224434 5.54922 7.69881 21.725 21.9003 1.02197 8.01182 56.8733
7224441 5.68135 7.7909 21.6954 21.7542 0.952306 7.8996 56.9218
7224453 5.68135 7.7909 21.6954 21.7542 0.952306 7.8996 56.9218
7224461 5.69896 7.86457 21.7446 21.686 0.924185 7.86056 56.9941
7224471 5.76062 7.95666 21.9218 21.608 0.821978 7.81154 57.2471
7224480 5.76062 7.95666 21.9218 21.608 0.821978 7.81154 57.2471
7224491 5.69896 7.8922 22.04 21.6957 0.806335 7.88754 57.3268
7224502 5.69896 7.8922 22.04 21.6957 0.806335 7.88754 57.3268
7224511 5.69016 7.82774 22.286 21.7931 0.713864 7.95907 57.5971
7224522 5.61969 7.7909 22.4435 21.8516 0.684178 8.02811 57.7057
7224532 5.61969 7.7909 22.4435 21.8516 0.684178 8.02811 57.7057
7224541 5.58446 7.64355 22.542 21.8223 0.581443 8.1095 57.5923
7224552 5.49637 7.39491 22.8373 21.9393 0.433737 8.29369 57.6678
7224572 5.36425 7.20152 23.1228 22.1926 0.391778 8.48711 57.8811
7224598 5.1 6.85157 23.4771 22.2607 0.231928 8.78488 57.6894
7224601 4.9943 6.60293 23.7035 22.3095 0.0931025 8.96085 57.6102
7224611 4.9943 6.60293 23.7035 22.3095 0.0931025 8.96085 57.6102
7224623 4.83575 6.36349 23.9299 22.4166 0.00626743 9.16157 57.5458
7224631 4.63316 6.11484 24.2056 22.592 -0.0573009 9.39678 57.5455
7224648 4.63316 6.11484 24.2056 22.592 -0.0573009 9.39678 57.5455
7224651 4.51865 5.88462 24.6584 22.7771 -0.222746 9.60399 57.8387
7224662 4.51865 5.88462 24.6584 22.7771 -0.222746 9.60399 57.8387
7224672 4.2456 5.55309 25.0127 22.9914 -0.308742 9.91443 57.8028
7224681 4.05181 5.39653 25.5148 23.0986 -0.461352 10.1181 58.0617
7224692 4.05181 5.39653 25.5148 23.0986 -0.461352 10.1181 58.0617
7224701 3.87565 5.22156 25.7707 23.0304 -0.602098 10.2863 57.8983
7224712 3.70829 5.02817 25.9479 23.0011 -0.705056 10.4565 57.6855
7224734 3.58497 4.90845 26.0168 22.9232 -0.770502 10.5635 57.4334
7224743 3.58497 4.90845 26.0168 22.9232 -0.770502 10.5635 57.4334
7224753 3.52332 4.91766 25.9676 22.7479 -0.798416 10.5695 57.1564
7224763 3.6114 5.03738 25.8101 22.6407 -0.763319 10.4559 57.0995
7224774 3.6114 5.03738 25.8101 22.6407 -0.763319 10.4559 57.0995
7224787 3.69948 5.07421 25.7904 22.3874 -0.890347 10.3783 56.9515
7224795 3.79637 5.22156 25.8593 22.3484 -0.911167 10.2724 57.2257
7224818 3.89326 5.29523 25.8494 22.3971 -0.892462 10.2006 57.4351
7224824 3.9285 5.32286 25.8593 22.4751 -0.863869 10.1804 57.5857
7224848 3.9285 5.32286 25.8593 22.4751 -0.863869 10.1804 57.5857
7224850 3.9285 5.2584 25.938 22.4069 -0.956543 10.2095 57.5318
7224855 3.9285 5.2584 25.938 22.4069 -0.956543 10.2095 57.5318
7224874 4.05181 5.28602 25.8002 22.3679 -0.955601 10.1286 57.506
7224877 4.07824 5.44258 25.7116 22.2802 -0.898528 10.0337 57.5127
7224904 4.20155 5.5623 25.6132 22.2023 -0.890148 9.91284 57.5793
7224905 4.22798 5.58992 25.4754 22.1633 -0.84852 9.87375 57.4566
7224922 4.22798 5.58992 25.4754 22.1633 -0.84852 9.87375 57.4566
7224926 4.34249 5.5623 25.4163 22.0756 -0.923777 9.82299 57.3968
7224935 4.34249 5.5623 25.4163 22.0756 -0.923777 9.82299 57.3968
7224947 4.34249 5.60834 25.3376 22.0562 -0.878708 9.79419 57.3446
7224956 4.34249 5.62676 25.2982 22.1438 -0.814341 9.79062 57.4113
7224968 4.34249 5.62676 25.2982 22.1438 -0.814341 9.79062 57.4113
7224976 4.43057 5.6636 25.1506 22.0756 -0.803328 9.71697 57.3204
7224991 4.42176 5.67281 25.1801 22.0367 -0.825474 9.71593 57.3113
7224996 4.42176 5.67281 25.1801 22.0367 -0.825474 9.71593 57.3113
7225006 4.47461 5.69122 25.0915 22.1146 -0.767042 9.68425 57.3719
7225016 4.47461 5.69122 25.0915 22.1146 -0.767042 9.68425 57.3719
7225026 4.43057 5.69122 25.0226 22.1438 -0.706117 9.69954 57.2882
7225036 4.47461 5.67281 25.0423 22.2218 -0.706437 9.69753 57.4115
7225048 4.47461 5.67281 25.0423 22.2218 -0.706437 9.69753 57.4115
7225057 4.47461 5.74648 24.9045 22.1926 -0.628091 9.65033 57.3181
7225066 4.55389 5.74648 24.806 22.1828 -0.624299 9.60612 57.2892
7225078 4.55389 5.74648 24.806 22.1828 -0.624299 9.60612 57.2892
7225086 4.58912 5.75569 24.6485 22.2413 -0.541934 9.57768 57.2346
7225108 4.74767 5.8662 24.2646 22.1146 -0.452457 9.41308 56.9931
7225129 4.93264 5.95829 24.0874 22.0075 -0.462544 9.26651 56.9858
7225136 5.16166 6.15168 23.6642 21.8418 -0.366205 9.02668 56.8193
7225149 5.50518 6.35428 23.3787 21.6665 -0.379193 8.74772 56.9046
7225157 5.50518 6.35428 23.3787 21.6665 -0.379193 8.74772 56.9046
7225170 5.81347 6.64897 23.1031 21.3547 -0.400931 8.43163 56.9202
7225178 5.81347 6.64897 23.1031 21.3547 -0.400931 8.43163 56.9202
7225188 6.22746 7.03575 22.6109 20.9553 -0.372735 7.9984 56.8294
7225203 6.72953 7.64355 21.9021 20.3123 -0.298564 7.38008 56.5876
7225210 6.72953 7.64355 21.9021 20.3123 -0.298564 7.38008 56.5876
7225218 7.29326 8.20531 21.1836 19.5817 -0.306524 6.73612 56.2638
7225231 7.90984 8.85915 20.2681 18.9192 -0.178528 6.00959 55.9563
7225238 7.90984 8.85915 20.2681 18.9192 -0.178528 6.00959 55.9563
7225255 8.58808 9.62351 19.3231 18.2665 -0.00949949 5.20903 55.8012
7225259 8.58808 9.62351 19.3231 18.2665 -0.00949949 5.20903 55.8012
7225269 9.2487 10.4892 18.5159 17.6332 0.160041 4.40477 55.887
7225279 9.86528 11.318 17.5906 16.9143 0.348556 3.58829 55.6882
7225289 9.86528 11.318 17.5906 16.9143 0.348556 3.58829 55.6882
7225305 10.5347 12.1008 16.5945 16.0957 0.482276 2.72606 55.3257
7225309 11.1865 12.1008 15.5339 16.0957 0.671935 2.27864 54.917
7225320 11.1865 13.0861 15.5339 15.2772 0.7456 1.7805 55.0838
7225342 11.9176 14.0439 14.6294 14.6299 0.962865 0.895795 55.2207
7225349 12.5782 14.8911 13.652 13.9255 1.17465 0.0294739 55.0469
7225372 13.2653 15.812 12.7058 13.2592 1.40809 -0.848145 55.0424
7225379 13.8995 16.6961 11.8636 12.5739 1.5931 -1.67846 55.0331
7225396 14.428 17.496 11.0006 11.8886 1.8043 -2.47243 54.8132
7225400 14.428 17.496 11.0006 11.8886 1.8043 -2.47243 54.8132
7225410 14.9036 18.2935 10.304 11.2032 1.96014 -3.20538 54.7043
7225421 14.9036 18.2935 10.304 11.2032 1.96014 -3.20538 54.7043
7225430 15.4674 19.091 9.58654 10.5465 2.09518 -3.95638 54.6913
7225446 15.9782 19.8884 8.99388 9.97536 2.23015 -4.62218 54.8359
7225450 15.9782 19.8884 8.99388 9.97536 2.23015 -4.62218 54.8359
7225460 16.4715 20.4817 8.39083 9.40425 2.29397 -5.24896 54.7483
7225470 16.9031 20.9971 7.89174 8.88074 2.3243 -5.79661 54.6727
7225496 17.3189 21.6098 7.49664 8.6047 2.45277 -6.22225 55.0301
7225500 17.3189 21.6098 7.49664 8.6047 2.45277 -6.22225 55.0301
7225510 17.558 22.028 7.10153 8.15734 2.51883 -6.65345 54.8449
7225521 17.837 22.5143 6.72722 7.82419 2.62929 -7.04881 54.9028
7225545 17.837 22.5143 6.72722 7.82419 2.62929 -7.04881 54.9028
7225548 18.0961 22.9228 6.51927 7.42441 2.60713 -7.38918 54.9626
7225559 18.2655 23.3507 6.23853 7.10078 2.70555 -7.71812 54.9555
7225561 18.2655 23.3507 6.23853 7.10078 2.70555 -7.71812 54.9555
7225573 18.5545 23.73 6.02018 6.91041 2.74639 -7.97442 55.2151
7225595 18.7837 24.0995 5.72905 6.58679 2.79605 -8.3065 55.1991
7225603 19.0428 24.4983 5.46911 6.20605 2.80372 -8.65667 55.2162
7225613 19.0428 24.4983 5.46911 6.20605 2.80372 -8.65667 55.2162
7225623 19.1823 24.8192 5.15719 5.91097 2.90119 -8.97046 55.0697
7225632 19.2321 24.9651 4.94924 5.59686 2.91388 -9.22061 54.7433
7225643 19.2321 24.9651 4.94924 5.59686 2.91388 -9.22061 54.7433
7225652 19.2321 25.1693 4.72049 5.3589 3.0174 -9.44976 54.4809
7225665 19.2321 25.1693 4.72049 5.3589 3.0174 -9.44976 54.4809
7225673 19.2421 25.2666 4.55413 5.19709 3.072 -9.60861 54.2599
7225683 19.272 25.5 4.48135 5.03527 3.1231 -9.74109 54.2886
7225693 19.272 25.5 4.48135 5.03527 3.1231 -9.74109 54.2886
7225703 19.4613 25.714 4.34618 4.92105 3.1352 -9.89338 54.4425
7225715 19.6008 25.7723 4.263 4.71165 3.04527 -10.046 54.3478
7225723 19.6008 25.7723 4.263 4.71165 3.04527 -10.046 54.3478
7225741 19.5709 25.8112 4.29419 4.75924 3.07948 -10.0106 54.4356
7225744 19.5709 25.8112 4.29419 4.75924 3.07948 -10.0106 54.4356
7225753 19.6905 25.9376 4.2318 4.71165 3.08172 -10.0835 54.5716
7225767 19.7403 26.0154 4.27339 4.68309 3.05453 -10.089 54.7123
7225773 19.7403 26.0154 4.27339 4.68309 3.05453 -10.089 54.7123
7225783 19.82 26.1808 4.2318 4.66405 3.09353 -10.1386 54.8967
7225803 19.8599 26.3267 4.2318 4.70213 3.14632 -10.1376 55.1205
7225816 19.83 26.4531 4.14862 4.69261 3.25041 -10.1884 55.1243
7225833 19.7304 26.5406 4.21101 4.59742 3.2665 -10.2023 55.0794
7225845 19.5909 26.5114 4.09664 4.57839 3.37838 -10.2489 54.7773
7225869 19.4713 26.3947 4.13823 4.5308 3.35382 -10.2311 54.535
7225874 19.2521 26.21 4.07584 4.50224 3.41612 -10.2379 54.0401
7225889 19.2521 26.21 4.07584 4.50224 3.41612 -10.2379 54.0401
7225895 19.0727 26.0543 4.05505 4.58791 3.49383 -10.1778 53.77
7225905 19.0727 26.0543 4.05505 4.58791 3.49383 -10.1778 53.77
7225915 18.9132 25.8501 4.14862 4.60694 3.45447 -10.0921 53.5189
7225926 18.7538 25.7626 4.31498 4.65454 3.4347 -9.96904 53.4859
7225946 18.7638 25.6362 4.37737 4.85442 3.42588 -9.83601 53.6317
7225958 18.704 25.5292 4.59572 5.03527 3.37179 -9.63595 53.8642
7225969 18.704 25.5292 4.59572 5.03527 3.37179 -9.63595 53.8642
7225978 18.704 25.4319 4.80367 5.32083 3.33811 -9.40227 54.2604
7225986 18.694 25.4319 5.0948 5.64446 3.32066 -9.12783 54.8652
7225999 18.694 25.4611 5.0948 5.64446 3.33219 -9.13095 54.8944
7226006 18.6542 25.4027 5.43792 5.95857 3.27718 -8.83456 55.4534
7226019 18.6542 25.4027 5.43792 5.95857 3.27718 -8.83456 55.4534
7226028 18.5246 25.3249 5.78104 6.28219 3.26467 -8.52747 55.9128
7226040 18.3054 25.1013 6.14495 6.6439 3.24528 -8.17266 56.1955
7226047 18.3054 25.1013 6.14495 6.6439 3.24528 -8.17266 56.1955
7226061 18.1559 24.8678 6.40489 6.99608 3.23578 -7.87495 56.4247
7226068 17.7573 24.4108 6.62324 7.38634 3.30048 -7.5186 56.1777
7226082 17.7573 24.4108 6.62324 7.38634 3.30048 -7.5186 56.1777
7226087 17.2989 23.8953 6.91437 7.63382 3.28108 -7.17032 55.7424
7226097 17.2989 23.8953 6.91437 7.63382 3.28108 -7.17032 55.7424
7226109 16.6741 23.3118 7.2159 8.00504 3.36318 -6.72877 55.2068
7226118 16.172 22.7185 7.6422 8.52856 3.37481 -6.18941 55.0613
7226138 15.6876 22.0572 8.11009 9.17581 3.37783 -5.57658 55.0307
7226147 15.6876 22.0572 8.9211 9.17581 2.96569 -5.27774 55.8417
7226157 15.2207 21.4153 8.9211 9.97536 3.26335 -4.79168 55.5325
7226175 14.6658 20.6762 9.87768 10.9653 3.15832 -3.87089 56.185
7226197 14.6658 20.6762 9.87768 10.9653 3.15832 -3.87089 56.185
7226200 14.0316 19.7523 11.0214 12.0028 2.94943 -2.84106 56.8081
7226201 13.3269 18.7895 12.2795 13.0974 2.73094 -1.75833 57.4934
7226209 13.3269 18.7895 12.2795 13.0974 2.73094 -1.75833 57.4934
7226225 12.5254 17.6711 13.7456 14.2111 2.41224 -0.577732 58.1531
7226229 11.5741 16.4843 15.2324 15.3057 2.12619 0.634784 58.5965
7226249 10.6404 15.2503 16.4281 16.3813 1.94336 1.76799 58.7001
7226259 10.6404 15.2503 16.4281 16.3813 1.94336 1.76799 58.7001
7226273 9.60984 13.8413 17.4233 17.3312 1.77792 2.91296 58.2056
7226279 8.77306 12.5888 18.2403 18.1983 1.63224 3.9126 57.8005
7226301 7.96269 11.4837 18.949 18.851 1.49486 4.8091 57.2465
7226310 7.39896 10.7378 19.3723 19.114 1.36012 5.3908 56.6231
7226324 7.39896 10.7378 19.3723 19.114 1.36012 5.3908 56.6231
7226330 7.00259 10.2405 19.707 19.2309 1.229 5.79239 56.1811
7226350 6.65907 9.93662 20.0318 19.3576 1.1625 6.10709 55.9851
7226360 6.45648 9.65114 20.5043 19.5914 1.01494 6.40214 56.2034
7226373 6.45648 9.65114 20.5043 19.5914 1.01494 6.40214 56.2034
7226380 6.32435 9.40249 21.0162 19.9324 0.879702 6.67531 56.6754
7226398 6.13057 9.08938 21.6265 20.2734 0.702751 7.0063 57.1198
7226411 5.92798 8.71181 22.3254 20.663 0.486499 7.37885 57.6282
7226431 5.74301 8.33424 22.6699 20.9066 0.358984 7.67494 57.6538
7226447 5.63731 8.03955 22.9948 21.2573 0.286883 7.91709 57.9289
7226453 5.63731 8.03955 22.9948 21.2573 0.286883 7.91709 57.9289
7226463 5.51399 7.82774 23.0834 21.306 0.232276 8.06697 57.7311
7226473 5.40829 7.61593 23.1917 21.4424 0.198749 8.22341 57.6583
7226483 5.40829 7.61593 23.1917 21.4424 0.198749 8.22341 57.6583
7226496 5.34663 7.47779 23.2212 21.3547 0.115284 8.29738 57.4003
7226504 5.29378 7.33044 23.1621 21.2378 0.0492573 8.35849 57.0242
7226521 5.29378 7.33044 23.1621 21.2378 0.0492573 8.35849 57.0242
7226524 5.32021 7.2844 23.1031 21.1501 0.00495315 8.34941 56.8578
7226546 5.33782 7.32124 23.0834 20.9748 -0.055179 8.30412 56.7172
7226554 5.33782 7.30282 23.3196 21.0917 -0.115223 8.35309 57.052
7226572 5.33782 7.30282 23.3196 21.0917 -0.115223 8.35309 57.052
7226575 5.23212 7.0818 23.7429 21.2768 -0.268796 8.5567 57.3336
7226585 5.08238 6.83315 24.3138 21.608 -0.412817 8.81946 57.8374
7226596 5.08238 6.83315 24.3138 21.608 -0.412817 8.81946 57.8374
7226605 4.95026 6.49242 24.7174 21.9685 -0.519018 9.09447 58.1286
7226625 4.71244 6.14247 25.0029 22.0269 -0.667675 9.37422 57.8847
7226635 4.59793 5.93987 25.2687 22.2413 -0.7259 9.5539 58.0477
7226645 4.59793 5.93987 25.2687 22.2413 -0.7259 9.5539 58.0477
7226655 4.47461 5.6636 25.4951 22.3679 -0.835407 9.75621 58.0012
7226665 4.28083 5.37811 25.6132 22.5043 -0.87043 9.98466 57.7764
7226675 4.28083 5.37811 25.6132 22.5043 -0.87043 9.98466 57.7764
7226696 4.11347 5.26761 25.5443 22.4653 -0.838475 10.0962 57.3907
7226698 4.11347 5.26761 25.5443 22.4653 -0.838475 10.0962 57.3907
7226707 4.06062 5.07421 25.6329 22.4751 -0.936459 10.2126 57.2428
7226725 4.02539 5.02817 25.6526 22.3679 -0.99953 10.2412 57.074
7226727 4.02539 5.02817 25.6526 22.3679 -0.99953 10.2412 57.074
7226736 3.99016 4.97291 25.751 22.3874 -1.04238 10.291 57.1015
7226751 3.99016 4.89924 25.8888 22.2997 -1.17384 10.3278 57.0779
7226766 4.02539 4.98212 26.0266 22.3095 -1.20347 10.2876 57.3436
7226776 4.02539 4.98212 26.0266 22.3095 -1.20347 10.2876 57.3436
7226789 4.06943 4.92687 26.3121 22.2607 -1.38699 10.3119 57.5691
7226799 4.09585 4.97291 26.4499 22.2802 -1.42417 10.2929 57.7989
7226822 4.06943 4.89924 26.6665 22.2997 -1.52626 10.3558 57.9349
7226826 4.10466 4.8532 26.6468 22.3387 -1.5358 10.3621 57.9433
7226837 4.10466 4.8532 26.6468 22.3387 -1.5358 10.3621 57.9433
7226848 4.043 4.80715 26.5779 22.3874 -1.48159 10.4077 57.8154
7226856 4.043 4.80715 26.5779 22.3874 -1.48159 10.4077 57.8154
7226872 4.10466 4.79794 26.4204 22.3484 -1.46463 10.369 57.6714
7226876 4.12228 4.84399 26.3318 22.2607 -1.45475 10.3267 57.5588
7226903 4.12228 4.82557 26.253 22.2705 -1.42648 10.3292 57.4714
7226908 4.09585 4.80715 26.0759 22.2218 -1.37358 10.3306 57.2006
7226925 4.09585 4.80715 26.0759 22.2218 -1.37358 10.3306 57.2006
7226928 4.15751 4.88082 25.938 22.251 -1.29472 10.2619 57.2274
7226949 4.27202 4.93608 25.6526 22.0854 -1.27451 10.149 56.9461
7226958 4.36891 5.01896 25.5049 22.0464 -1.23309 10.0537 56.9392
7226977 4.36891 5.01896 25.5049 22.0464 -1.23309 10.0537 56.9392
7226979 4.58912 5.21235 25.4065 22.0269 -1.20395 9.8625 57.2349
7226989 4.72124 5.30444 25.1506 21.9685 -1.13697 9.73669 57.1447
7227008 4.72124 5.30444 25.1506 21.9685 -1.13697 9.73669 57.1447
7227010 4.8886 5.51625 24.9045 21.91 -1.03408 9.54475 57.2193
7227036 5.08238 5.63597 24.4517 21.7444 -0.946006 9.35028 56.9144
7227039 5.33782 5.78332 24.117 21.5593 -0.929689 9.12589 56.7974
7227062 5.63731 6.14247 23.7331 21.2281 -0.881118 8.77181 56.7409
7227070 5.87513 6.43716 23.5362 21.0819 -0.830932 8.51193 56.9304
7227080 5.87513 6.43716 23.5362 21.0819 -0.830932 8.51193 56.9304
7227090 6.12176 6.82394 23.1818 20.7897 -0.742285 8.17656 56.9172
7227100 6.12176 6.82394 23.1818 20.7897 -0.742285 8.17656 56.9172
7227114 6.38601 7.21993 22.8373 20.439 -0.68756 7.82415 56.8822
7227120 6.65026 7.57909 22.3746 20.1564 -0.567897 7.47926 56.7604
7227139 6.65026 7.57909 22.3746 20.1564 -0.567897 7.47926 56.7604
7227142 6.94093 7.94745 21.8923 19.7765 -0.490332 7.10266 56.5572
7227152 7.39016 8.35265 21.2328 19.2991 -0.431426 6.60752 56.2747
7227171 7.88342 8.84074 20.465 18.851 -0.292937 6.04705 56.0401
7227181 8.40311 9.39328 19.707 18.2567 -0.206283 5.42521 55.7601
7227193 8.40311 9.39328 19.707 18.2567 -0.206283 5.42521 55.7601
7227203 9.00207 10.1668 18.9294 17.7307 -0.0151888 4.69947 55.8289
7227217 9.00207 10.1668 18.9294 17.7307 -0.0151888 4.69947 55.8289
7227223 9.60984 10.9865 18.2009 16.8667 0.0190556 3.89966 55.664
7227233 10.1736 11.9626 17.4823 16.2576 0.252461 3.11503 55.8761
7227244 10.1736 11.9626 17.4823 16.2576 0.252461 3.11503 55.8761
7227253 10.7021 12.8099 16.9688 15.8292 0.429857 2.47366 56.31
7227273 11.2658 13.5834 16.2618 15.3819 0.636235 1.80405 56.4929
7227283 11.7767 14.3846 15.2844 14.5728 0.846291 0.989646 56.0185
7227296 11.7767 14.3846 15.2844 14.5728 0.846291 0.989646 56.0185
7227305 12.2788 15.1121 14.3278 13.7637 1.02251 0.189425 55.4824
7227321 12.8073 15.9594 13.3089 12.9166 1.25465 -0.69315 54.9921
7227324 12.8073 15.9594 13.3089 12.9166 1.25465 -0.69315 54.9921
7227334 13.3005 16.7329 12.6018 12.098 1.33765 -1.46172 54.7333
7227347 13.8202 17.5835 11.9052 11.4793 1.52287 -2.19552 54.7882
7227354 13.8202 17.5835 11.9052 11.4793 1.52287 -2.19552 54.7882
7227364 14.3135 18.1865 11.3541 10.8035 1.51963 -2.83832 54.6576
7227374 14.3135 18.1865 11.3541 10.8035 1.51963 -2.83832 54.6576
7227384 14.7098 18.6339 10.8758 10.2609 1.51848 -3.36091 54.4805
7227400 15.1238 19.1688 10.4599 9.79451 1.54889 -3.86038 54.5471
7227406 15.1238 19.1688 10.4599 9.79451 1.54889 -3.86038 54.5471
7227414 15.6083 19.6356 10.1272 9.36618 1.49179 -4.3162 54.7373
7227426 15.987 19.9079 9.74251 9.014 1.46032 -4.70393 54.6514
7227452 16.3746 20.2483 9.54495 8.73796 1.39634 -5.01039 54.9058
7227477 16.3746 20.2483 9.54495 8.73796 1.39634 -5.01039 54.9058
7227479 16.6389 20.258 9.30581 8.50952 1.28987 -5.23143 54.7122
7227481 16.8855 20.2872 9.18104 8.25252 1.13228 -5.42221 54.6062
7227485 16.8855 20.2872 9.18104 8.25252 1.13228 -5.42221 54.6062
7227503 17.1594 20.3747 9.05627 8.17637 1.06606 -5.56035 54.7668
7227506 17.4883 20.4039 8.98349 8.04311 0.899163 -5.69903 54.9188
7227518 17.4883 20.4039 8.98349 8.04311 0.899163 -5.69903 54.9188
7227529 17.7773 20.5984 8.84832 7.92889 0.86202 -5.87416 55.1529
7227536 18.136 20.8026 8.67156 7.70997 0.770539 -6.11633 55.3201
7227558 18.3154 21.0069 8.45321 7.58623 0.823912 -6.30837 55.3617
7227583 18.5445 21.1916 8.25566 7.41489 0.815034 -6.51517 55.4067
7227588 18.8036 21.4737 7.97492 7.18645 0.848493 -6.7956 55.4387
7227609 18.993 21.5904 7.68379 6.84378 0.797218 -7.09182 55.1109
7227619 19.2321 21.7363 7.46544 6.61534 0.751168 -7.32643 55.0492
7227633 19.2321 21.7363 7.46544 6.61534 0.751168 -7.32643 55.0492
7227639 19.4015 21.8919 7.16391 6.39642 0.785205 -7.58373 54.8537
7227662 19.4912 22.0086 6.95596 6.14894 0.783059 -7.80012 54.6047
7227669 19.7204 22.2323 6.72722 6.00616 0.818676 -8.01465 54.686
7227690 19.9596 22.4268 6.52966 5.78723 0.788248 -8.24524 54.7032
7227706 20.0094 22.6699 6.3841 5.57783 0.84838 -8.43247 54.6412
7227710 20.0094 22.6699 6.3841 5.57783 0.84838 -8.43247 54.6412
7227720 20.2087 22.8741 6.20734 5.45409 0.873247 -8.6095 54.7442
7227740 20.3083 23.0589 5.98899 5.41601 0.993946 -8.75322 54.7723
7227756 20.4279 23.3215 5.9578 5.3589 1.0418 -8.83467 55.0661
7227761 20.4279 23.3215 5.9578 5.3589 1.0418 -8.83467 55.0661
7227771 20.4678 23.3021 5.81223 5.2542 1.03776 -8.94574 54.8363
7227781 20.4179 23.3021 5.81223 5.28275 1.07391 -8.92776 54.815
7227791 20.4179 23.3021 5.81223 5.28275 1.07391 -8.92776 54.815
7227802 20.4777 23.3021 5.81223 5.20661 1.01221 -8.96764 54.7986
7227812 20.4777 23.3021 5.81223 5.20661 1.01221 -8.96764 54.7986
7227824 20.4279 23.234 5.78104 5.31131 1.06674 -8.92247 54.7542
7227831 20.4279 23.2145 5.76024 5.29227 1.05981 -8.93773 54.695
7227853 20.4279 23.2145 5.76024 5.29227 1.05981 -8.93773 54.695
7227857 20.408 23.3507 5.73945 5.29227 1.13868 -8.95968 54.7904
7227861 20.398 23.4868 5.72905 5.28275 1.20341 -8.98225 54.8967
7227882 20.398 23.4868 5.72905 5.28275 1.20341 -8.98225 54.8967
7227884 20.4578 23.6522 5.74985 5.32083 1.25287 -8.98122 55.1806
7227893 20.4578 23.6522 5.74985 5.32083 1.25287 -8.98122 55.1806
7227910 20.4379 23.5744 5.71865 5.29227 1.23135 -8.99657 55.0232
7227914 20.3781 23.516 5.72905 5.21613 1.19669 -9.01241 54.8393
7227921 20.3781 23.516 5.72905 5.21613 1.19669 -9.01241 54.8393
7227933 20.2984 23.3799 5.71865 5.2542 1.19716 -8.97659 54.6511
7227941 20.1987 23.2923 5.83303 5.27324 1.16024 -8.89736 54.5973
7227957 20.1987 23.2923 5.83303 5.27324 1.16024 -8.89736 54.5973
7227963 20.0692 23.1562 5.87462 5.32083 1.16372 -8.8284 54.4208
7227973 20.0692 23.1562 5.87462 5.32083 1.16372 -8.8284 54.4208
7227983 20.0592 23.0103 6.03058 5.4065 1.06731 -8.70512 54.5066
7227992 20.0393 22.913 6.16575 5.50168 1.0114 -8.59164 54.6197
7228004 20.0393 22.913 6.16575 5.50168 1.0114 -8.59164 54.6197
7228013 20.0193 22.9228 6.34251 5.71109 1.03281 -8.4248 54.9957
7228023 19.8898 22.7185 6.48807 5.85386 0.998414 -8.26194 54.9503
7228043 19.7005 22.4268 6.65443 6.07279 0.97743 -8.03946 54.8545
7228054 19.7005 22.4268 6.65443 6.07279 0.97743 -8.03946 54.8545
7228063 19.4912 22.1934 6.90398 6.32979 0.968698 -7.77085 54.9183
7228078 19.2521 22.0864 7.19511 6.66293 1.04271 -7.46798 55.1965
7228083 19.2521 22.0864 7.19511 6.66293 1.04271 -7.46798 55.1965
7228110 19.1524 21.8919 7.50703 6.91993 0.970039 -7.1976 55.4712
7228111 18.9232 21.7557 7.78777 7.19597 1.00638 -6.92435 55.6627
7228136 18.694 21.532 8.0789 7.45297 0.991824 -6.64323 55.7579
7228138 18.694 21.532 8.0789 7.45297 0.991824 -6.64323 55.7579
7228144 18.405 21.0652 8.35963 7.69093 0.896722 -6.32727 55.5208
7228169 17.9965 20.7735 8.62997 7.96697 0.954527 -6.00711 55.3669
7228174 17.578 20.2775 9.02508 8.30963 0.898734 -5.57728 55.1901
7228185 17.0399 19.6453 9.59694 8.8617 0.847879 -4.95791 55.1438
7228208 17.0399 19.6453 9.59694 8.8617 0.847879 -4.95791 55.1438
7228209 16.4803 18.8673 10.2624 9.47088 0.724149 -4.2522 55.0809
7228215 16.4803 18.8673 10.2624 9.47088 0.724149 -4.2522 55.0809
7228233 15.6788 17.8072 11.4893 10.556 0.538051 -3.09033 55.5313
7228235 14.5073 16.3922 13.3505 12.2122 0.330615 -1.4178 56.4621
7228245 14.5073 16.3922 13.3505 12.2122 0.330615 -1.4178 56.4621
7228259 13.2653 14.8174 15.6587 14.5157 0.175565 0.538561 58.2571
7228265 11.9617 13.3072 17.8466 16.6764 0.0733018 2.32159 59.7917
7228285 10.799 11.7232 19.264 18.1593 -0.0752777 3.72869 59.9455
7228295 10.799 11.7232 19.264 18.1593 -0.0752777 3.72869 59.9455
7228310 9.61865 10.2958 19.9925 18.9874 -0.139214 4.85585 58.8943
7228315 8.64093 9.11701 20.5437 19.5427 -0.226878 5.79014 57.8444
7228326 8.64093 9.11701 20.5437 19.5427 -0.226878 5.79014 57.8444
7228338 7.88342 8.21452 21.0851 20.0201 -0.32077 6.55749 57.2031
7228347 7.37254 7.60672 21.4592 20.2831 -0.415143 7.07748 56.7215
7228362 7.37254 7.60672 21.4592 20.2831 -0.415143 7.07748 56.7215
7228366 6.98497 7.30282 21.8135 20.4195 -0.476031 7.41636 56.5208
7228376 6.98497 7.30282 21.8135 20.4195 -0.476031 7.41636 56.5208
7228388 6.71192 7.01733 22.0006 20.3415 -0.603522 7.6544 56.0714
7228396 6.62383 6.99892 22.286 20.4682 -0.639786 7.7509 56.377
7228406 6.62383 6.99892 22.286 20.4682 -0.639786 7.7509 56.377
7228417 6.44767 6.9805 22.6798 20.4779 -0.737384 7.88083 56.5859
7228426 6.34197 6.82394 23.1621 20.8189 -0.814234 8.08839 57.1469
7228446 6.22746 6.60293 23.5854 21.0235 -0.951636 8.29881 57.4393
7228456 6.22746 6.60293 23.5854 21.0235 -0.951636 8.29881 57.4393
7228467 6.03368 6.38191 23.8906 21.1014 -1.06297 8.51188 57.4076
7228477 5.99845 6.29903 24.1859 21.1891 -1.16875 8.60311 57.6725
7228496 5.91036 6.20693 24.2449 21.1307 -1.22524 8.67715 57.4929
7228506 5.8399 6.14247 24.3138 21.1112 -1.26294 8.73825 57.4074
7228516 5.8399 6.14247 24.3138 21.1112 -1.26294 8.73825 57.4074
7228532 5.86632 6.0688 24.5009 21.1696 -1.35784 8.7844 57.6056
7228541 5.86632 6.0688 24.5009 21.1696 -1.35784 8.7844 57.6056
7228546 5.68135 5.90303 24.6584 21.2768 -1.3734 8.95803 57.5195
7228556 5.61969 5.77411 24.8749 21.3547 -1.46025 9.06815 57.6235
7228582 5.46995 5.61755 25.1702 21.4716 -1.53778 9.2382 57.7294
7228588 5.23212 5.44258 25.4163 21.5301 -1.59481 9.4423 57.6211
7228598 5.23212 5.44258 25.4163 21.5301 -1.59481 9.4423 57.6211
7228609 5.14404 5.23998 25.6329 21.647 -1.68648 9.59765 57.6639
7228619 5.14404 5.23998 25.6329 21.647 -1.68648 9.59765 57.6639
7228630 4.87979 5.07421 25.7215 21.6567 -1.68767 9.79141 57.3322
7228639 4.76529 4.96371 26.0266 21.8321 -1.7348 9.93174 57.5877
7228659 4.63316 4.78873 26.2038 21.8516 -1.82536 10.0823 57.4773
7228672 4.52746 4.66901 26.3613 21.949 -1.85664 10.2024 57.5068
7228679 4.52746 4.66901 26.3613 21.949 -1.85664 10.2024 57.5068
7228695 4.30725 4.62297 26.5385 22.1244 -1.77905 10.3483 57.5931
7228700 4.18394 4.47562 26.7058 22.2607 -1.80188 10.4919 57.6262
7228720 4.10466 4.33749 26.9027 22.4653 -1.81826 10.619 57.8102
7228745 4.10466 4.33749 26.9027 22.4653 -1.81826 10.619 57.8102
7228747 3.96373 4.22698 26.9421 22.5335 -1.79712 10.7389 57.6663
7228755 3.86684 4.12568 27.0602 22.7479 -1.75324 10.8517 57.8006
7228760 3.86684 4.12568 27.0602 22.7479 -1.75324 10.8517 57.8006
7228772 3.77876 4.08884 27.0799 22.933 -1.65724 10.9221 57.8805
7228781 3.69948 4.03359 26.9815 23.0499 -1.55698 10.9838 57.7644
7228801 3.62021 3.9415 27.0898 23.1278 -1.57525 11.0738 57.7793
7228811 3.62021 3.9415 27.0898 23.1278 -1.57525 11.0738 57.7793
7228823 3.54093 3.80336 27.0405 23.1862 -1.55975 11.1729 57.5711
7228833 3.47047 3.76652 27.0898 23.2739 -1.52766 11.2308 57.6007
7228853 3.46166 3.78494 27.0405 23.3908 -1.44181 11.2308 57.678
7228872 3.46166 3.77573 26.9027 23.4298 -1.37174 11.2286 57.5699
7228873 3.46166 3.77573 26.9027 23.4298 -1.37174 11.2286 57.5699
7228884 3.43523 3.80336 26.8338 23.459 -1.30653 11.2254 57.5314
7228894 3.4 3.82178 26.8141 23.5175 -1.24878 11.2356 57.5534
7228904 3.4 3.82178 26.8141 23.5175 -1.24878 11.2356 57.5534
7228917 3.40881 3.89545 26.696 23.537 -1.16116 11.1915 57.5372
7228923 3.40881 3.89545 26.696 23.537 -1.16116 11.1915 57.5372
7228934 3.45285 3.91387 26.6271 23.5564 -1.13363 11.1599 57.5503
7228954 3.5057 3.91387 26.5287 23.6246 -1.08378 11.1338 57.5729
7228964 3.60259 3.97833 26.3416 23.5467 -1.05238 11.0426 57.4693
7228978 3.60259 3.97833 26.3416 23.5467 -1.05238 11.0426 57.4693
7228986 3.65544 4.11647 26.1448 23.459 -0.969358 10.9363 57.3757
7228994 3.84041 4.23619 25.7904 23.3032 -0.91458 10.7618 57.1701
7229004 3.84041 4.23619 25.7904 23.3032 -0.91458 10.7618 57.1701
7229014 4.00777 4.53088 25.436 23.157 -0.768352 10.5163 57.1317
7229026 4.23679 4.70585 24.9931 22.9622 -0.686236 10.2849 56.8979
7229035 4.23679 4.70585 24.9931 22.9622 -0.686236 10.2849 56.8979
7229047 4.457 4.94529 24.6485 22.7868 -0.604093 10.0373 56.8376
7229055 4.68601 4.94529 24.2056 22.7868 -0.511916 9.89721 56.6237
7229069 4.68601 5.23998 24.2056 22.5822 -0.471382 9.74943 56.7138
7229075 5.05596 5.68201 23.7232 22.251 -0.373006 9.31975 56.7122
7229085 5.05596 5.68201 23.7232 22.251 -0.373006 9.31975 56.7122
7229096 5.44352 6.09642 23.0145 21.8126 -0.243481 8.85814 56.367
7229105 5.98964 6.6766 22.2664 21.3255 -0.112827 8.24565 56.2581
7229117 5.98964 6.6766 22.2664 21.3255 -0.112827 8.24565 56.2581
7229125 6.4829 7.33965 21.5871 20.8384 0.0480026 7.62772 56.2481
7229144 6.4829 7.33965 21.5871 20.8384 0.0480026 7.62772 56.2481
7229148 6.84404 7.95666 21.0359 20.3318 0.181833 7.09482 56.1684
7229155 7.2228 8.6013 20.3961 19.6791 0.295854 6.50752 55.8992
7229172 7.2228 8.6013 20.3961 19.6791 0.295854 6.50752 55.8992
7229175 7.7513 9.26436 19.6479 18.9289 0.357085 5.81766 55.5925
7229185 8.52642 10.1392 18.6734 18.1009 0.469083 4.89953 55.4399
7229199 8.52642 10.1392 18.6734 18.1009 0.469083 4.89953 55.4399
7229206 9.44249 11.1338 17.4528 17.2338 0.666052 3.82996 55.2629
7229227 10.5347 12.4139 16.2306 16.2385 0.851306 2.57694 55.4177
7229236 11.6798 13.8229 15.0037 15.2105 1.05441 1.26843 55.7168
7229252 11.6798 13.8229 15.0037 15.2105 1.05441 1.26843 55.7168
7229258 12.8953 15.1582 13.6416 14.0302 1.18954 -0.102743 55.7253
7229268 13.9611 16.4751 12.3315 12.6691 1.28594 -1.47076 55.4368
7229288 14.9741 17.6224 11.1982 11.5459 1.35347 -2.67049 55.3406
7229306 15.8285 18.6047 10.096 10.4798 1.43613 -3.77865 55.0091
7229308 15.8285 18.6047 10.096 10.4798 1.43613 -3.77865 55.0091
7229318 16.5684 19.4119 9.12905 9.64222 1.53268 -4.71467 54.7516
7229332 16.5684 19.4119 9.12905 9.64222 1.53268 -4.71467 54.7516
7229338 17.2392 20.0246 8.52599 8.82363 1.41132 -5.46957 54.6134
7229348 17.8171 20.6081 7.91254 8.243 1.42975 -6.1202 54.5808
7229365 17.8171 20.6081 7.91254 8.243 1.42975 -6.1202 54.5808
7229374 18.3054 21.036 7.49664 7.729 1.35751 -6.62922 54.5671
7229391 18.7339 21.4153 7.05994 7.31019 1.34434 -7.09264 54.5193
7229393 18.7339 21.4153 7.05994 7.31019 1.34434 -7.09264 54.5193
7229406 19.0727 21.639 6.8 6.96753 1.25454 -7.41866 54.4792
7229409 19.0727 21.639 6.8 6.96753 1.25454 -7.41866 54.4792
7229419 19.272 21.8822 6.57125 6.67245 1.24609 -7.69619 54.3978
7229433 19.4513 21.9891 6.46728 6.55823 1.2066 -7.82552 54.466
7229457 19.4713 22.0864 6.33211 6.43449 1.25059 -7.94978 54.3243
7229459 19.6606 22.2128 6.33211 6.20605 1.11472 -8.08705 54.4116
7229469 19.6606 22.2128 6.33211 6.20605 1.11472 -8.08705 54.4116
7229485 19.8599 22.1934 6.32171 6.25364 1.03672 -8.09409 54.6286
7229499 19.9496 22.3295 6.3945 6.17749 0.985819 -8.12394 54.8511
7229513 20.1887 22.5435 6.32171 6.16797 0.996432 -8.21482 55.2219
7229520 20.1887 22.5435 6.32171 6.16797 0.996432 -8.21482 55.2219
7229530 20.3283 22.6116 6.23853 6.05375 0.949863 -8.32329 55.2321
7229542 20.4777 22.7088 6.20734 5.93953 0.887018 -8.41436 55.3334
7229560 20.6471 22.7574 6.20734 5.90146 0.812611 -8.45628 55.5134
7229571 20.6471 22.7574 6.20734 5.90146 0.812611 -8.45628 55.5134
7229580 20.687 22.8255 6.09297 5.75868 0.814715 -8.57799 55.3642
7229593 20.7966 22.8061 6.03058 5.67301 0.746703 -8.65157 55.3063
7229600 20.7966 22.8061 6.03058 5.67301 0.746703 -8.65157 55.3063
7229620 20.8564 22.8839 5.91621 5.58735 0.768691 -8.75303 55.2438
7229622 20.9162 22.7574 5.82263 5.56831 0.720489 -8.79404 55.0646
7229645 20.9261 22.7088 5.78104 5.46361 0.667474 -8.8531 54.8796
7229660 20.9062 22.6116 5.71865 5.39698 0.633159 -8.89624 54.6334
7229670 20.8763 22.5921 5.67706 5.42553 0.670803 -8.89643 54.571
7229680 20.8763 22.5921 5.67706 5.42553 0.670803 -8.89643 54.571
7229692 20.9859 22.6602 5.66667 5.41601 0.650299 -8.92495 54.7288
7229700 20.9859 22.6602 5.66667 5.41601 0.650299 -8.92495 54.7288
7229714 20.9361 22.6213 5.73945 5.37794 0.605243 -8.8999 54.6748
7229720 20.9859 22.6407 5.69786 5.37794 0.610062 -8.9258 54.7025
7229741 20.8962 22.5435 5.67706 5.34938 0.605673 -8.92663 54.4662
7229751 20.7468 22.4365 5.72905 5.49216 0.667608 -8.81234 54.4045
7229771 20.6571 22.3684 5.77064 5.5112 0.668368 -8.76778 54.3074
7229783 20.6372 22.3879 5.89541 5.7206 0.721025 -8.62237 54.641
7229812 20.697 22.3976 6.02018 5.79675 0.672543 -8.54401 54.9115
7229812 20.697 22.3976 6.02018 5.79675 0.672543 -8.54401 54.9115
7229823 20.6372 22.3101 6.17615 5.99664 0.677341 -8.37475 55.12
7229841 20.4578 22.3295 6.19694 6.15845 0.831133 -8.27813 55.1427
7229843 20.4578 22.3295 6.19694 6.15845 0.831133 -8.27813 55.1427
7229855 20.2485 22.2031 6.34251 6.29171 0.863999 -8.11935 55.0858
7229865 20.0393 22.1545 6.43609 6.58679 1.02591 -7.92448 55.2166
7229874 20.0393 22.1545 6.43609 6.58679 1.02591 -7.92448 55.2166
7229884 19.8001 22.1447 6.54006 6.77716 1.16794 -7.77051 55.2621
7229893 19.8001 22.1447 6.54006 6.77716 1.16794 -7.77051 55.2621
7229906 19.5709 22.2128 6.60245 6.95801 1.354 -7.64939 55.3442
7229913 19.4115 22.1058 6.66483 7.06271 1.39932 -7.54544 55.2449
7229928 19.4115 22.1058 6.66483 7.06271 1.39932 -7.54544 55.2449
7229933 19.1325 22.0864 6.72722 7.28163 1.58812 -7.39031 55.2277
7229943 18.7538 21.7849 6.83119 7.38634 1.63736 -7.21046 54.7562
7229953 18.7538 21.7849 6.83119 7.38634 1.63736 -7.21046 54.7562
7229965 18.3253 21.5709 6.99755 7.66237 1.79193 -6.93863 54.5562
7229984 17.8271 21.3862 7.2159 7.95745 1.97687 -6.63028 54.3866
7229999 17.3288 20.968 7.6318 8.44289 2.0462 -6.13063 54.3715
7230023 16.815 20.6178 8.18287 8.92833 2.08468 -5.5886 54.5441
7230028 16.2865 20.0732 8.87951 9.6327 2.0684 -4.87887 54.872
7230039 16.2865 20.0732 8.87951 9.6327 2.0684 -4.87887 54.872
7230047 15.714 19.5286 9.92966 10.5084 1.97257 -3.98824 55.6807
7230055 15.714 19.5286 9.92966 10.5084 1.97257 -3.98824 55.6807
7230071 15.1326 18.7797 11.1878 11.4602 1.73248 -2.98735 56.5604
7230075 14.3135 17.8753 12.5083 12.6501 1.61456 -1.83892 57.3471
7230085 14.3135 17.8753 12.5083 12.6501 1.61456 -1.83892 57.3471
7230115 13.4943 16.7421 13.8807 13.8303 1.37946 -0.653703 57.9475
7230117 12.4902 15.6831 15.2012 14.8774 1.23133 0.490631 58.2519
7230142 11.5212 14.6241 16.2826 15.7245 1.094 1.51201 58.1524
7230145 10.658 13.6295 17.1772 16.4955 0.987649 2.42888 57.9602
7230155 9.70674 12.6441 17.8958 17.2436 0.993711 3.3367 57.4902
7230179 9.70674 12.6441 17.8958 17.2436 0.993711 3.3367 57.4902
7230183 8.95803 11.7969 18.4962 17.9742 1.01214 4.11939 57.2253
7230186 8.32383 10.9957 19.0967 18.7244 1.00607 4.85685 57.1406
7230196 8.32383 10.9957 19.0967 18.7244 1.00607 4.85685 57.1406
7230206 7.66321 10.2129 19.8054 19.6011 1.0236 5.63796 57.2827
7230226 7.12591 9.47616 20.3764 20.3318 1.00579 6.30937 57.3103
7230236 6.61503 8.94204 20.839 20.8384 1.01616 6.84562 57.2345
7230247 6.61503 8.94204 20.839 20.8384 1.01616 6.84562 57.2345
7230256 6.30674 8.50921 21.1147 21.2963 1.04151 7.23305 57.2269
7230267 5.98964 8.0948 21.3607 21.686 1.06351 7.60415 57.1311
7230276 5.98964 8.0948 21.3607 21.686 1.06351 7.60415 57.1311
7230290 5.74301 7.87378 21.6364 21.9587 1.07196 7.85981 57.2119
7230296 5.74301 7.87378 21.6364 21.9587 1.07196 7.85981 57.2119
7230306 5.45233 7.53304 21.9514 22.3679 1.08947 8.20192 57.3046
7230325 5.24093 7.30282 22.2467 22.7479 1.11364 8.45979 57.5383
7230328 5.24093 7.30282 22.2467 22.7479 1.11364 8.45979 57.5383
7230338 4.95026 6.9805 22.542 23.1278 1.13543 8.78612 57.6005
7230357 4.69482 6.73185 22.857 23.459 1.14261 9.06331 57.7427
7230358 4.69482 6.73185 22.857 23.459 1.14261 9.06331 57.7427
7230368 4.50104 6.43716 23.1129 23.8097 1.13762 9.3287 57.8609
7230385 4.50104 6.43716 23.1129 23.8097 1.13762 9.3287 57.8609
7230388 4.22798 6.07801 23.4082 24.2092 1.14417 9.66227 57.9234
7230397 4.02539 5.72806 23.5362 24.5599 1.17821 9.94199 57.8495
7230408 4.02539 5.72806 23.5362 24.5599 1.17821 9.94199 57.8495
7230418 3.8228 5.47941 23.6051 24.8327 1.24878 10.1668 57.74
7230429 3.56736 5.21235 23.6642 25.086 1.3327 10.4217 57.5298
7230439 3.56736 5.21235 23.6642 25.086 1.3327 10.4217 57.5298
7230453 3.42642 5.03738 23.7528 25.2905 1.36885 10.5846 57.5071
7230459 3.42642 5.03738 23.7528 25.2905 1.36885 10.5846 57.5071
7230469 3.32953 4.79794 23.8118 25.4367 1.34781 10.7504 57.376
7230479 3.1886 4.6506 23.802 25.5438 1.40066 10.8875 57.185
7230504 3.17979 4.64139 23.9496 25.5731 1.34497 10.9083 57.3439
7230509 3.15337 4.59534 23.9988 25.4951 1.28325 10.939 57.2427
7230529 3.13575 4.62297 24.1662 25.4464 1.20594 10.9429 57.3713
7230540 3.13575 4.62297 24.1662 25.4464 1.20594 10.9429 57.3713
7230553 3.10052 4.5493 24.3434 25.6315 1.18739 11.0174 57.6247
7230560 3.05648 4.49404 24.5107 25.8458 1.19705 11.0883 57.9071
7230580 3.0829 4.49404 24.5993 26.0991 1.2488 11.0994 58.2754
7230590 3.04767 4.40195 24.6387 26.2842 1.28478 11.1713 58.3725
7230602 3.04767 4.40195 24.6387 26.2842 1.28478 11.1713 58.3725
7230610 2.9772 4.33749 24.6387 26.4986 1.37727 11.2458 58.4519
7230630 2.85389 4.1441 24.5895 26.6447 1.43625 11.3948 58.2321
7230650 2.79223 4.0428 24.432 26.6739 1.50694 11.461 57.9409
7230659 2.79223 4.0428 24.432 26.6739 1.50694 11.461 57.9409
7230675 2.69534 3.9507 24.2843 26.859 1.65692 11.5499 57.7894
7230678 2.61606 3.76652 24.2449 26.9564 1.67667 11.6748 57.584
7230683 2.61606 3.76652 24.2449 26.9564 1.67667 11.6748 57.584
7230695 2.52798 3.81257 24.1465 26.9857 1.79379 11.6903 57.4727
7230703 2.50155 3.68364 24.1859 27.0831 1.77503 11.7704 57.4542
7230713 2.50155 3.68364 24.1859 27.0831 1.77503 11.7704 57.4542
7230733 2.51917 3.6468 24.304 27.3754 1.81475 11.8022 57.8453
7230743 2.50155 3.48104 24.3434 27.4338 1.76157 11.8927 57.7598
7230770 2.51036 3.55471 24.3138 27.5702 1.85538 11.8601 57.9491
7230773 2.51036 3.55471 24.3138 27.5702 1.85538 11.8601 57.9491
7230776 2.46632 3.46262 24.2942 27.6384 1.8754 11.926 57.8615
7230806 2.45751 3.49025 24.3335 27.7163 1.90333 11.9234 57.9976
7230809 2.45751 3.49025 24.3335 27.7163 1.90333 11.9234 57.9976
7230809 2.41347 3.45341 24.4221 27.765 1.88741 11.9682 58.054
7230814 2.41347 3.45341 24.4221 27.765 1.88741 11.9682 58.054
7230834 2.43109 3.33369 24.4517 27.8722 1.86059 12.0228 58.0886
7230835 2.38705 3.36132 24.4713 27.9112 1.89835 12.0334 58.1309
7230844 2.38705 3.36132 24.4713 27.9112 1.89835 12.0334 58.1309
7230857 2.42228 3.38895 24.3631 27.804 1.90055 11.9931 57.9783
7230865 2.40466 3.41658 24.2351 27.5799 1.88977 11.97 57.6363
7230885 2.42228 3.62839 24.1268 27.3364 1.9194 11.8439 57.5139
7230906 2.47513 3.79415 24.2154 27.3851 1.93915 11.75 57.8698
7230915 2.50155 3.9415 24.3532 27.4241 1.93695 11.68 58.2203
7230927 2.50155 3.9415 24.3532 27.4241 1.93695 11.68 58.2203
7230936 2.50155 3.92308 24.2942 27.1805 1.86008 11.6711 57.8993
7230954 2.52798 3.87703 24.2843 26.9077 1.72426 11.6639 57.5971
7230957 2.52798 3.87703 24.2843 26.9077 1.72426 11.6639 57.5971
7230966 2.50155 3.89545 24.2745 26.7421 1.68146 11.6574 57.4136
7230982 2.48394 4.00596 24.304 26.5083 1.62574 11.6023 57.3022
7231009 2.58083 4.11647 24.4123 26.2648 1.47632 11.4981 57.3743
7231009 2.58083 4.11647 24.4123 26.2648 1.47632 11.4981 57.3743
7231016 2.64249 4.21777 24.4418 26.1576 1.4319 11.4182 57.4597
7231026 2.75699 4.38353 24.6091 26.1089 1.35082 11.2976 57.8586
7231037 2.75699 4.38353 24.6091 26.1089 1.35082 11.2976 57.8586
7231046 2.81865 4.43879 24.4615 26.0797 1.40068 11.2331 57.7986
7231060 2.81865 4.43879 24.4615 26.0797 1.40068 11.2331 57.7986
7231066 2.83627 4.51246 24.2745 25.9433 1.45267 11.1703 57.5665
7231086 3.04767 4.76111 23.9102 25.612 1.48925 10.9139 57.3311
7231096 3.27668 5.06501 23.2015 25.0373 1.60129 10.5771 56.5804
7231113 3.69948 5.55309 22.2467 24.1117 1.67174 10.0086 55.611
7231118 3.69948 5.55309 22.2467 24.1117 1.67174 10.0086 55.611
7231128 4.3513 6.32665 21.5675 23.2155 1.6333 9.22406 55.4609
7231140 5.07358 7.10022 21.1147 22.7771 1.64498 8.48595 56.0655
7231148 5.07358 7.10022 21.1147 22.7771 1.64498 8.48595 56.0655
7231158 5.8399 7.78169 20.5536 22.0854 1.54354 7.73651 56.2605
7231178 6.52694 8.64735 19.8448 21.2476 1.56538 6.90945 56.2667
7231195 7.29326 9.52221 19.1656 20.3513 1.5154 6.04486 56.3324
7231199 7.29326 9.52221 19.1656 20.3513 1.5154 6.04486 56.3324
7231209 8.02435 10.5352 18.5061 19.3576 1.4898 5.13196 56.4232
7231223 8.70259 11.4377 17.8958 18.3152 1.39949 4.27781 56.3512
7231239 9.39845 12.2849 17.502 17.5358 1.28712 3.5316 56.7212
7231251 9.39845 12.2849 17.502 17.5358 1.28712 3.5316 56.7212
7231259 9.81244 12.9756 17.1378 16.7811 1.23726 2.9443 56.7069
7231278 10.2793 13.5466 16.6985 16.1529 1.20052 2.38865 56.6772
7231289 10.2793 13.5466 16.6985 16.1529 1.20052 2.38865 56.6772
7231290 10.5876 14.1083 16.293 15.4961 1.20558 1.88364 56.485
7231306 10.843 14.5596 15.7211 14.6775 1.19754 1.34298 55.8012
7231310 10.843 14.5596 15.7211 14.6775 1.19754 1.34298 55.8012
7231320 11.2922 15.1029 14.9933 13.8494 1.20697 0.664626 55.2378
7231333 11.2922 15.1029 14.9933 13.8494 1.20697 0.664626 55.2378
7231340 11.7943 15.6278 14.307 13.0689 1.18406 -0.0126591 54.798
7231350 12.2876 16.208 13.6104 12.5073 1.28967 -0.653113 54.6133
7231370 12.8425 16.7698 13.0593 12.1361 1.37025 -1.20883 54.8076
7231385 13.1948 17.2626 12.6226 11.7458 1.45504 -1.6659 54.8258
7231392 13.1948 17.2626 12.6226 11.7458 1.45504 -1.6659 54.8258
7231402 13.6 17.885 12.2379 11.3841 1.55661 -2.14029 55.107
7231412 13.6 17.885 12.2379 11.3841 1.55661 -2.14029 55.107
7231422 14.0933 18.3421 11.874 10.9367 1.49855 -2.61321 55.2461
7231432 14.6041 18.8186 11.4789 10.5941 1.49997 -3.06776 55.4958
7231441 14.6041 18.8186 11.4789 10.5941 1.49997 -3.06776 55.4958
7231456 15.0358 19.3341 11.1046 10.2038 1.52554 -3.51882 55.6782
7231461 15.3088 19.5967 10.7303 9.8897 1.55212 -3.85918 55.5255
7231472 15.3088 19.5967 10.7303 9.8897 1.55212 -3.85918 55.5255
7231481 15.6699 19.9176 10.3976 9.55655 1.53338 -4.22209 55.5417
7231491 15.6699 19.9176 10.3976 9.55655 1.53338 -4.22209 55.5417
7231504 16.0575 20.1121 9.98165 9.17581 1.46799 -4.61225 55.3271
7231511 16.401 20.4233 9.55535 8.74748 1.45773 -5.03967 55.1272
7231525 16.401 20.4233 9.55535 8.74748 1.45773 -5.03967 55.1272
7231531 16.7005 20.6373 9.04587 8.28108 1.45065 -5.49098 54.6648
7231541 16.9648 20.9485 8.67156 7.94793 1.49457 -5.85715 54.5328
7231562 17.2292 21.1819 8.31804 7.69093 1.52775 -6.17478 54.4201
7231571 17.2292 21.1819 8.31804 7.69093 1.52775 -6.17478 54.4201
7231582 17.578 21.464 7.91254 7.41489 1.55803 -6.54261 54.3694
7231596 17.9666 21.6779 7.73578 7.17693 1.44458 -6.79978 54.5572
7231622 18.2257 21.9794 7.48624 7.04367 1.51236 -7.03622 54.735
7231623 18.405 22.1545 7.38226 6.93897 1.50605 -7.17144 54.8807
7231633 18.405 22.1545 7.38226 6.93897 1.50605 -7.17144 54.8807
7231648 18.694 22.4657 7.2159 6.79619 1.51886 -7.38084 55.1718
7231653 18.694 22.4657 7.2159 6.79619 1.51886 -7.38084 55.1718
7231663 18.9332 22.5824 7.03914 6.67245 1.48592 -7.55171 55.2271
7231673 19.0926 22.8255 6.86239 6.52016 1.53283 -7.74012 55.3007
7231699 19.2222 22.9811 6.75841 6.33931 1.50985 -7.89468 55.301
7231704 19.3019 23.0006 6.59205 6.32979 1.55567 -7.98035 55.2243
7231714 19.3019 23.0006 6.59205 6.32979 1.55567 -7.98035 55.2243
7231726 19.3218 22.9617 6.55046 6.12038 1.4602 -8.08289 54.9543
7231734 19.3218 22.9617 6.55046 6.12038 1.4602 -8.08289 54.9543
7231751 19.3816 23.0103 6.34251 6.08231 1.53626 -8.20017 54.8167
7231754 19.4513 23.1367 6.3633 6.05375 1.53432 -8.22769 55.0051
7231764 19.4513 23.1367 6.3633 6.05375 1.53432 -8.22769 55.0051
7231778 19.4115 23.0103 6.25933 5.99664 1.52536 -8.27553 54.6778
7231784 19.3617 22.9228 6.26972 6.04423 1.52734 -8.23389 54.5984
7231794 19.3617 22.9228 6.26972 6.04423 1.52734 -8.23389 54.5984
7231818 19.3218 22.738 6.30092 6.09183 1.47242 -8.17236 54.4525
7231829 19.3218 22.738 6.30092 6.09183 1.47242 -8.17236 54.4525
7231830 19.3517 22.6407 6.33211 6.16797 1.43363 -8.11827 54.4925
7231835 19.4812 22.6018 6.45688 6.40594 1.39666 -7.97701 54.9459
7231845 19.4812 22.6018 6.45688 6.40594 1.39666 -7.97701 54.9459
7231855 19.5012 22.6018 6.43609 6.58679 1.47451 -7.91284 55.1259
7231865 19.4613 22.5046 6.49847 6.70101 1.47094 -7.82187 55.1654
7231880 19.4613 22.5046 6.49847 6.70101 1.47094 -7.82187 55.1654
7231886 19.1823 22.5046 6.49847 6.78667 1.64196 -7.74987 54.972
7231908 19.0328 22.4559 6.51927 6.97704 1.76452 -7.63638 54.9851
7231917 18.9431 22.4851 6.71682 7.07223 1.76457 -7.5083 55.2173
7231932 18.9431 22.4851 6.71682 7.07223 1.76457 -7.5083 55.2173
7231936 18.8634 22.4462 6.71682 7.23404 1.85486 -7.42631 55.2605
7231957 18.6442 22.242 6.7792 7.29115 1.86954 -7.31919 54.9565
7231958 18.6442 22.242 6.7792 7.29115 1.86954 -7.31919 54.9565
7231968 18.415 22.1156 6.88318 7.46249 1.94978 -7.15744 54.8762
7231988 17.9566 21.7265 7.01835 7.66237 2.02982 -6.89864 54.3639
7231998 17.5281 21.4348 7.27829 8.01456 2.13937 -6.54402 54.2558
7232010 17.5281 21.4348 7.27829 8.01456 2.13937 -6.54402 54.2558
7232019 17.0299 21.0069 7.68379 8.49048 2.20603 -6.04927 54.211
7232030 16.5684 20.5011 8.29725 9.13774 2.18938 -5.40356 54.5045
7232040 16.5684 20.5011 8.29725 9.13774 2.18938 -5.40356 54.5045
7232053 15.9782 20.0343 9.06667 9.80403 2.18348 -4.685 54.8833
7232059 15.3352 19.4411 10.3144 10.6797 2.00429 -3.70686 55.7704
7232079 14.842 18.9548 11.5413 11.7648 1.8985 -2.75572 57.1029
7232107 14.2166 18.1865 12.4459 12.612 1.79949 -1.91745 57.4609
7232110 13.4679 17.2042 13.3505 13.5258 1.69929 -0.989402 57.5483
7232120 13.4679 17.2042 13.3505 13.5258 1.69929 -0.989402 57.5483
7232131 12.4902 16.0515 14.359 14.4871 1.60723 0.0795972 57.3878
7232140 11.5036 14.6793 15.6691 15.9339 1.48847 1.40694 57.786
7232160 10.3674 13.1506 17.4134 17.604 1.27009 2.94681 58.5354
7232174 10.3674 13.1506 17.4134 17.604 1.27009 2.94681 58.5354
7232180 9.18705 11.6679 19.1656 19.1822 1.05464 4.4321 59.2028
7232190 7.89223 10.2958 20.8095 20.3026 0.79959 5.79866 59.3001
7232200 7.89223 10.2958 20.8095 20.3026 0.79959 5.79866 59.3001
7232210 6.91451 9.05255 22.0104 21.1112 0.524125 6.89334 59.0887
7232224 6.03368 8.00271 22.6207 21.5885 0.402108 7.77042 58.2457
7232230 6.03368 8.00271 22.6207 21.5885 0.402108 7.77042 58.2457
7232240 5.32902 7.20152 22.9849 22.0854 0.422275 8.47378 57.6009
7232257 5.32902 7.20152 22.9849 22.0854 0.422275 8.47378 57.6009
7232261 4.84456 6.56609 23.2606 22.2607 0.316918 8.98722 56.932
7232270 4.56269 6.26219 23.5854 22.5433 0.288549 9.29805 56.9536
7232291 4.56269 6.26219 23.5854 22.5433 0.288549 9.29805 56.9536
7232294 4.2456 5.81094 23.9792 22.8355 0.185385 9.6951 56.8712
7232301 3.96373 5.48862 24.4517 23.2447 0.139087 10.038 57.1487
7232319 3.96373 5.48862 24.4517 23.2447 0.139087 10.038 57.1487
7232321 3.69948 5.17551 24.8159 23.6928 0.153792 10.3602 57.3837
7232331 3.69948 5.17551 24.8159 23.6928 0.153792 10.3602 57.3837
7232345 3.46166 4.81636 25.1801 24.2676 0.191525 10.6979 57.7257
7232352 3.32953 4.50325 25.4459 24.7255 0.195399 10.9489 58.0041
7232373 3.10052 4.29144 25.6624 25.1152 0.276646 11.1877 58.1696
7232383 2.96839 3.97833 25.5443 25.4951 0.414225 11.406 57.9861
7232393 2.96839 3.97833 25.5443 25.4951 0.414225 11.406 57.9861
7232404 2.80104 3.75731 25.5541 25.6315 0.447518 11.5927 57.744
7232418 2.67772 3.49025 25.5935 25.9238 0.495273 11.7923 57.6853
7232434 2.67772 3.40737 25.4754 26.1381 0.603294 11.8361 57.6986
7232453 2.67772 3.40737 25.4754 26.1381 0.603294 11.8361 57.6986
7232455 2.52798 3.31528 25.377 26.2453 0.720266 11.9495 57.4655
7232465 2.57202 3.17714 25.4163 26.4596 0.715134 12.0069 57.6251
7232486 2.57202 3.17714 25.4163 26.4596 0.715134 12.0069 57.6251
7232486 2.5456 3.18635 25.377 26.5375 0.781199 12.017 57.6464
7232494 2.5456 3.17714 25.3868 26.5862 0.793383 12.0244 57.6958
7232511 2.5456 3.17714 25.3868 26.5862 0.793383 12.0244 57.6958
7232515 2.63368 3.14951 25.3966 26.7032 0.787082 12.0026 57.883
7232525 2.63368 3.14951 25.3966 26.7032 0.787082 12.0026 57.883
7232535 2.52798 3.17714 25.3573 26.6739 0.851205 12.0356 57.7363
7232545 2.58083 3.09426 25.308 26.6155 0.790319 12.0442 57.5986
7232557 2.58083 3.09426 25.308 26.6155 0.790319 12.0442 57.5986
7232565 2.61606 3.08505 25.3376 26.5765 0.741085 12.0315 57.6152
7232575 2.61606 3.08505 25.3376 26.5765 0.741085 12.0315 57.6152
7232591 2.56321 3.11268 25.4262 26.7324 0.802147 12.0558 57.8344
7232595 2.51917 3.10347 25.4459 26.7226 0.805086 12.0812 57.7911
7232606 2.51917 3.10347 25.4459 26.7226 0.805086 12.0812 57.7911
7232615 2.50155 3.039 25.4951 26.7908 0.792542 12.1256 57.8265
7232629 2.49275 3.10347 25.623 26.9175 0.819254 12.1122 58.1367
7232645 2.53679 3.02059 25.7313 26.9857 0.745672 12.139 58.2744
7232655 2.48394 3.02059 25.8691 26.9857 0.708193 12.1704 58.3593
7232665 2.48394 3.00217 25.8691 26.898 0.663951 12.1747 58.2532
7232677 2.41347 2.92849 25.9577 26.8883 0.621068 12.2458 58.1879
7232700 2.41347 2.89166 26.0266 26.9467 0.599816 12.2691 58.2785
7232706 2.39585 2.87324 26.0955 26.9662 0.577754 12.2901 58.3308
7232717 2.39585 2.87324 26.0955 26.9662 0.577754 12.2901 58.3308
7232727 2.3342 2.79957 26.0955 26.8006 0.504225 12.346 58.0299
7232738 2.30777 2.7351 26.1546 26.8103 0.466767 12.392 58.0078
7232761 2.30777 2.7351 26.1546 26.8103 0.466767 12.392 58.0078
7232764 2.28135 2.79036 26.2334 26.7421 0.438341 12.3788 58.0472
7232768 2.28135 2.79036 26.2334 26.7421 0.438341 12.3788 58.0472
7232793 2.29016 2.68906 26.2137 26.6837 0.375324 12.4191 57.8765
7232794 2.27254 2.7351 26.1743 26.6739 0.415775 12.4034 57.8559
7232798 2.27254 2.7351 26.1743 26.6739 0.415775 12.4034 57.8559
7232808 2.29896 2.78115 26.1546 26.5765 0.390965 12.3638 57.8112
7232818 2.28135 2.74431 26.1054 26.5473 0.392202 12.386 57.6783
7232844 2.28135 2.74431 26.1054 26.5473 0.392202 12.386 57.6783
7232849 2.35181 2.81798 26.1251 26.4499 0.342435 12.3141 57.7447
7232858 2.37824 2.84561 26.1743 26.4499 0.321072 12.2909 57.848
7232870 2.39585 2.87324 26.2334 26.3427 0.253576 12.2673 57.8451
7232878 2.39585 2.87324 26.2334 26.3427 0.253576 12.2673 57.8451
7232888 2.42228 2.90087 26.2334 26.1771 0.182873 12.2339 57.7336
7232898 2.42228 2.90087 26.2334 26.1771 0.182873 12.2339 57.7336
7232908 2.49275 2.94691 26.194 26.0602 0.138819 12.1715 57.6938
7232921 2.53679 3.04821 26.253 25.9238 0.078845 12.0993 57.7618
7232938 2.62487 3.1403 26.2432 25.6997 -0.0121519 12.0029 57.7081
7232948 2.63368 3.16793 26.3023 25.5828 -0.0802591 11.9829 57.6867
7232973 2.72176 3.27844 26.2629 25.5244 -0.0786707 11.885 57.7874
7232979 2.72176 3.27844 26.2629 25.5244 -0.0786707 11.885 57.7874
7232990 2.73938 3.30607 26.1644 25.3393 -0.112297 11.8485 57.5491
7233000 2.83627 3.46262 26.1152 25.1347 -0.153872 11.7164 57.5488
7233027 2.96839 3.50867 25.9085 24.7742 -0.259811 11.6005 57.1598
7233029 3.10052 3.77573 25.6329 24.1702 -0.347339 11.3604 56.6793
7233040 3.10052 3.77573 25.6329 24.1702 -0.347339 11.3604 56.6793
7233055 3.38238 4.21777 25.0718 23.2934 -0.421247 10.926 55.9654
7233060 3.85803 4.76111 24.6288 22.6017 -0.503156 10.3702 55.8497
7233083 4.42176 5.39653 24.117 22.3484 -0.352575 9.76671 56.2837
7233090 4.42176 5.39653 24.117 22.3484 -0.352575 9.76671 56.2837
7233104 5.1 5.93987 23.3295 21.7639 -0.323208 9.09982 56.1332
7233110 5.91917 6.474 22.5715 21.1307 -0.394875 8.37209 56.0953
7233120 5.91917 6.474 22.5715 21.1307 -0.394875 8.37209 56.0953
7233131 6.71192 7.20152 21.9514 20.6046 -0.379486 7.60833 56.4694
7233140 7.50466 7.86457 21.3214 20.0103 -0.419368 6.86826 56.7009
7233151 7.50466 7.86457 21.3214 20.0103 -0.419368 6.86826 56.7009
7233160 8.27979 8.73023 20.6618 19.3479 -0.378622 6.05045 57.0197
7233174 8.27979 8.73023 20.6618 19.3479 -0.378622 6.05045 57.0197
7233180 8.96684 9.513 19.894 18.5977 -0.329185 5.26892 56.9716
7233190 9.72435 10.2313 19.0278 17.9158 -0.265853 4.47842 56.8992
7233201 9.72435 10.2313 19.0278 17.9158 -0.265853 4.47842 56.8992
7233210 10.429 10.9404 18.0828 17.1559 -0.183511 3.67507 56.6081
7233230 10.429 10.9404 18.0828 17.1559 -0.183511 3.67507 56.6081
7233240 11.6534 12.2481 16.2098 15.5342 -0.0363454 2.11405 55.6454
7233254 11.6534 12.2481 16.2098 15.5342 -0.0363454 2.11405 55.6454
7233260 12.3845 12.8559 15.2948 14.6013 -0.100663 1.26662 55.1365
7233270 12.9658 13.5005 14.4526 13.9922 0.0338256 0.54044 54.9111
7233280 12.9658 13.5005 14.4526 13.9922 0.0338256 0.54044 54.9111
7233290 13.556 14.2096 13.6832 13.2688 0.109315 -0.223053 54.7175
7233308 13.556 14.2096 13.6832 13.2688 0.109315 -0.223053 54.7175
7233312 14.058 14.753 13.0593 12.7357 0.17001 -0.828469 54.6061
7233321 14.5777 15.2595 12.5187 12.2693 0.197905 -1.38651 54.6252
7233341 15.0886 15.812 12.1131 11.8791 0.222859 -1.88779 54.8928
7233361 15.4938 16.3646 11.6972 11.4602 0.288001 -2.37228 55.0159
7233362 15.4938 16.3646 11.6972 11.4602 0.288001 -2.37228 55.0159
7233371 15.9254 16.8619 11.2813 11.1176 0.350049 -2.82362 55.1862
7233389 15.9254 16.8619 11.2813 11.1176 0.350049 -2.82362 55.1862
7233391 16.2777 17.3112 10.9694 10.7559 0.370592 -3.21716 55.3142
7233401 16.5508 17.71 10.5639 10.4513 0.473329 -3.59438 55.2759
7233416 16.5508 17.71 10.5639 10.4513 0.473329 -3.59438 55.2759
7233421 16.9119 18.1184 10.252 10.0896 0.471407 -3.97912 55.3719
7233431 17.0797 18.5074 9.80489 9.69933 0.59998 -4.37898 55.0914
7233451 17.4584 18.9548 9.47217 9.26148 0.582868 -4.80885 55.1468
7233461 17.4584 18.9548 9.47217 9.26148 0.582868 -4.80885 55.1468
7233471 17.7573 19.2855 8.99388 8.90929 0.656804 -5.22503 54.946
7233481 18.136 19.655 8.57798 8.52856 0.669256 -5.65175 54.8976
7233503 18.4449 19.9468 8.14128 8.22396 0.723457 -6.03388 54.7569
7233514 18.7339 20.2969 7.76697 7.85274 0.754246 -6.42567 54.6505
7233527 18.7339 20.2969 7.76697 7.85274 0.754246 -6.42567 54.6505
7233533 19.0826 20.754 7.41346 7.57671 0.836545 -6.79772 54.8268
7233554 19.3218 21.0652 7.10153 7.11982 0.806519 -7.18727 54.6084
7233563 19.6307 21.532 6.8 6.82475 0.878882 -7.53949 54.7875
7233584 19.8001 21.6876 6.57125 6.4916 0.828531 -7.81611 54.5506
7233594 19.9894 21.7557 6.28012 6.2346 0.792828 -8.08068 54.2599
7233614 20.119 21.8822 6.09297 6.13942 0.834173 -8.23349 54.2335
7233634 20.119 21.8822 6.09297 6.13942 0.834173 -8.23349 54.2335
7233635 20.2087 22.1156 6.03058 6.01568 0.869948 -8.35324 54.3705
7233644 20.388 22.6213 5.91621 5.94905 1.03239 -8.51325 54.8746
7233664 20.6272 23.02 5.78104 5.81579 1.09857 -8.7024 55.244
7233674 20.7966 23.2048 5.72905 5.6159 1.03668 -8.85057 55.3464
7233687 20.7966 23.2048 5.72905 5.6159 1.03668 -8.85057 55.3464
7233695 20.8564 23.3507 5.69786 5.52072 1.04516 -8.92777 55.4257
7233716 20.8664 23.5452 5.55229 5.38746 1.13547 -9.07074 55.3513
7233726 20.8664 23.73 5.40673 5.31131 1.25113 -9.18702 55.3144
7233747 20.9062 23.837 5.36514 5.22564 1.26109 -9.25807 55.334
7233756 20.8464 23.8078 5.25076 5.13046 1.29056 -9.34116 55.0354
7233767 20.8464 23.8078 5.25076 5.13046 1.29056 -9.34116 55.0354
7233776 20.7667 23.7981 5.1052 4.97816 1.32864 -9.46457 54.6481
7233794 20.6272 23.6522 4.99083 4.93057 1.36747 -9.50853 54.2008
7233798 20.6272 23.6522 4.99083 4.93057 1.36747 -9.50853 54.2008
7233808 20.6272 23.7592 4.94924 4.79731 1.37626 -9.59854 54.1329
7233820 20.6272 23.7592 4.94924 4.79731 1.37626 -9.59854 54.1329
7233829 20.5973 23.9342 4.94924 4.80683 1.4711 -9.60868 54.2876
7233838 20.6073 24.0898 4.91804 4.86394 1.57329 -9.61335 54.4791
7233848 20.6073 24.0898 4.91804 4.86394 1.57329 -9.61335 54.4791
7233879 20.6471 24.2065 4.93884 4.87346 1.5979 -9.61513 54.6659
7233888 20.3781 24.2551 4.94924 4.95913 1.78165 -9.55001 54.5416
7233903 20.3781 24.2551 4.94924 4.95913 1.78165 -9.55001 54.5416
7233908 20.3781 24.2649 5.02202 5.09239 1.80668 -9.45861 54.7574
7233918 20.3681 24.4497 5.05321 5.1495 1.89831 -9.43696 55.0205
7233930 20.3681 24.4497 5.05321 5.1495 1.89831 -9.43696 55.0205
7233939 20.3283 24.5566 5.07401 5.21613 1.98029 -9.405 55.175
7233956 20.3183 24.5955 5.0844 5.30179 2.03193 -9.36554 55.3
7233959 20.3183 24.5955 5.0844 5.30179 2.03193 -9.36554 55.3
7233969 20.2685 24.6733 5.13639 5.32083 2.07103 -9.33714 55.399
7233985 20.2685 24.6733 5.13639 5.32083 2.07103 -9.33714 55.399
7233989 20.0094 24.6344 5.06361 5.3589 2.23383 -9.32184 55.0663
7233999 19.8499 24.615 5.1156 5.49216 2.33401 -9.22159 55.0727
7234019 19.6606 24.508 5.0948 5.55879 2.4221 -9.1701 54.8222
7234032 19.3916 24.5177 5.0948 5.6159 2.5848 -9.11715 54.62
7234039 19.3916 24.5177 5.0948 5.6159 2.5848 -9.11715 54.62
7234049 19.3019 24.5275 5.13639 5.75868 2.67151 -9.02731 54.7244
7234072 19.0627 24.5955 5.15719 5.86338 2.85257 -8.95347 54.6788
7234082 18.7837 24.4497 5.18838 5.98712 2.97042 -8.83804 54.4089
7234116 18.4449 24.2454 5.29235 6.1299 3.06678 -8.66751 54.1126
7234119 18.146 24.0509 5.50031 6.34882 3.12395 -8.42275 54.046
7234121 18.146 24.0509 5.50031 6.34882 3.12395 -8.42275 54.046
7234130 17.8072 24.0509 5.79144 6.69149 3.28657 -8.10856 54.341
7234153 17.8072 24.0509 5.79144 6.69149 3.28657 -8.10856 54.341
7234155 17.5381 24.0509 6.09297 7.05319 3.41327 -7.79467 54.7352
7234160 17.3886 23.8661 6.48807 7.50056 3.38954 -7.40345 55.2434
7234184 17.0996 23.6035 6.99755 7.89082 3.32657 -6.96549 55.5916
7234191 16.6829 23.0881 7.60061 8.3953 3.22767 -6.39495 55.7669
7234214 16.2337 22.5435 8.31804 9.09966 3.15484 -5.70144 56.1949
7234221 16.2337 22.5435 8.31804 9.09966 3.15484 -5.70144 56.1949
7234244 15.6171 21.96 9.11865 9.70885 3.07291 -4.98618 56.4046
7234245 15.1326 21.1625 10.0648 10.4989 2.84207 -4.15012 56.8588
7234273 14.6746 20.3358 10.7407 11.2604 2.71037 -3.42284 57.0115
7234275 14.0933 19.1882 11.5309 12.0028 2.44955 -2.57355 56.8152
7234297 13.3181 17.5835 12.633 13.2212 2.1379 -1.334 56.7559
7234313 12.4461 15.7844 14.0991 15.1058 1.89126 0.254475 57.4354
7234323 11.5477 13.8413 16.0434 17.3605 1.53532 2.04488 58.7928
7234333 11.5477 13.8413 16.0434 17.3605 1.53532 2.04488 58.7928
7234348 10.614 12.0179 17.5414 18.9776 1.20037 3.52163 59.1509
7234353 9.68912 10.4523 18.7522 20.5169 1.06376 4.82935 59.4105
7234363 9.68912 10.4523 18.7522 20.5169 1.06376 4.82935 59.4105
7234378 8.69378 9.0065 19.8547 21.5593 0.853166 6.01725 59.1143
7234384 8.69378 9.0065 20.9178 21.5593 0.396436 6.17595 60.1774
7234394 7.61917 7.6896 20.9178 22.4361 0.677073 7.17112 58.6627
7234407 6.51813 6.63976 22.0498 23.1083 0.505924 8.23107 58.316
7234414 6.51813 6.63976 22.0498 23.1083 0.505924 8.23107 58.316
7234424 5.57565 5.83857 22.8767 23.6636 0.452885 9.09146 57.9545
7234437 4.7829 5.14789 23.4476 23.9364 0.372407 9.80197 57.3148
7234454 4.21036 4.5493 23.9988 24.2579 0.262192 10.391 57.0164
7234465 4.21036 4.5493 23.9988 24.2579 0.262192 10.391 57.0164
7234474 3.70829 4.052 24.5009 24.5599 0.177193 10.9028 56.821
7234492 3.34715 3.73889 25.0029 24.8521 0.10581 11.2666 56.9411
7234494 3.34715 3.73889 25.0029 24.8521 0.10581 11.2666 56.9411
7234510 3.15337 3.46262 25.308 25.0665 0.0296891 11.5173 56.9905
7234521 2.96839 3.38895 25.4655 25.2126 0.0734687 11.6561 57.0355
7234525 2.96839 3.38895 25.4655 25.2126 0.0734687 11.6561 57.0355
7234535 2.9772 3.35211 25.5443 25.2905 0.0529885 11.6783 57.1642
7234548 2.9772 3.35211 25.5443 25.2905 0.0529885 11.6783 57.1642
7234555 2.94197 3.37974 25.5738 25.2029 0.029251 11.6785 57.0984
7234565 3.00363 3.42579 25.6723 25.2516 0.00064075 11.6369 57.3533
7234586 3.01244 3.50867 25.7412 25.2418 -0.00135005 11.5979 57.5041
7234603 3.01244 3.4442 25.879 25.4367 -0.00455976 11.6472 57.7723
7234608 3.01244 3.4442 25.879 25.4367 -0.00455976 11.6472 57.7723
7234618 3.02124 3.46262 25.9479 25.4269 -0.0343844 11.6381 57.8587
7234634 3.04767 3.49025 25.9971 25.2711 -0.122592 11.607 57.8061
7234648 3.03005 3.51788 26.1152 25.1834 -0.191897 11.6042 57.8465
7234663 3.03005 3.51788 26.1152 25.1834 -0.191897 11.6042 57.8465
7234668 3.03886 3.50867 26.253 25.1347 -0.279866 11.6096 57.9352
7234679 3.05648 3.56392 26.3613 25.0275 -0.356136 11.5762 58.0092
7234699 3.10933 3.59155 26.4007 24.8034 -0.481406 11.5283 57.905
7234720 3.16218 3.60997 26.3416 24.706 -0.513589 11.4862 57.8198
7234721 3.16218 3.60997 26.3416 24.706 -0.513589 11.4862 57.8198
7234730 3.21503 3.62839 26.2826 24.6086 -0.545865 11.444 57.7346
7234746 3.23264 3.63759 26.3416 24.4722 -0.634696 11.427 57.6841
7234750 3.23264 3.63759 26.3416 24.4722 -0.634696 11.427 57.6841
7234762 3.30311 3.66522 26.3416 24.3163 -0.721541 11.3723 57.6263
7234772 3.30311 3.66522 26.3416 24.3163 -0.721541 11.3723 57.6263
7234780 3.2943 3.62839 26.3613 24.2774 -0.760004 11.392 57.5614
7234798 3.37358 3.68364 26.381 24.2287 -0.798678 11.3286 57.6669
7234800 3.37358 3.68364 26.381 24.2287 -0.798678 11.3286 57.6669
7234810 3.37358 3.72969 26.4204 24.0143 -0.890695 11.2964 57.538
7234826 3.47927 3.71127 26.4598 23.9754 -0.977172 11.2566 57.6257
7234830 3.47927 3.71127 26.4598 23.9754 -0.977172 11.2566 57.6257
7234840 3.52332 3.81257 26.5779 23.9169 -1.02529 11.1945 57.8307
7234855 3.52332 3.81257 26.5779 23.9169 -1.02529 11.1945 57.8307
7234860 3.62021 3.89545 26.6468 23.7318 -1.1399 11.1055 57.8942
7234870 3.58497 3.98754 26.7255 23.498 -1.22196 11.0694 57.796
7234883 3.58497 3.98754 26.7255 23.498 -1.22196 11.0694 57.796
7234893 3.69948 4.06121 26.7157 23.3032 -1.32002 10.9705 57.7795
7234911 3.67306 4.10726 26.824 23.2155 -1.3725 10.9632 57.8198
7234920 3.70829 4.09805 26.8535 23.1181 -1.44765 10.9467 57.7779
7234941 3.72591 4.20856 26.8338 23.0596 -1.423 10.8838 57.8279
7234951 3.66425 4.23619 26.7649 22.8745 -1.44182 10.8809 57.5398
7234971 3.72591 4.27302 26.6665 22.7479 -1.46809 10.8203 57.4133
7234989 3.76995 4.27302 26.6271 22.553 -1.56013 10.7834 57.2231
7234991 3.76995 4.36511 26.6271 22.553 -1.51745 10.7419 57.3152
7235003 3.91088 4.52167 26.3613 22.2997 -1.51104 10.5691 57.0936
7235014 3.91088 4.52167 26.3613 22.2997 -1.51104 10.5691 57.0936
7235021 4.13109 4.70585 25.9774 21.9198 -1.53474 10.3272 56.7341
7235040 4.38653 5.03738 25.6329 21.5106 -1.5342 10.0021 56.5674
7235043 4.38653 5.03738 25.6329 21.5106 -1.5342 10.0021 56.5674
7235053 4.63316 5.29523 25.2588 21.1696 -1.52028 9.7149 56.3569
7235066 4.98549 5.60834 24.9832 20.9943 -1.48754 9.38205 56.5713
7235083 5.30259 5.8662 24.619 20.8481 -1.41573 9.0839 56.6359
7235093 5.30259 5.8662 24.619 20.8481 -1.41573 9.0839 56.6359
7235104 5.70777 6.25298 23.9004 20.4 -1.31316 8.6222 56.2612
7235141 6.28031 6.60293 23.0342 19.9226 -1.24862 8.0785 55.84
7235157 6.98497 7.17389 22.1679 19.3576 -1.17691 7.3719 55.6844
7235159 7.7601 7.77248 21.4789 18.9582 -1.12039 6.67445 55.9696
7235160 7.7601 7.77248 21.4789 18.9582 -1.12039 6.67445 55.9696
7235164 8.56166 8.57367 20.9079 18.4126 -1.09967 5.89448 56.4559
7235186 8.56166 8.57367 20.9079 18.4126 -1.09967 5.89448 56.4559
7235187 9.38964 9.40249 20.2976 17.9352 -1.03005 5.11374 57.025
7235194 10.2264 10.1208 19.3822 17.1559 -1.02483 4.26933 56.8853
7235213 10.2264 10.1208 19.3822 17.1559 -1.02483 4.26933 56.8853
7235215 11.1601 10.8759 18.3486 16.229 -1.06146 3.32293 56.6136
7235225 12.0057 11.8245 17.2855 15.3152 -0.953133 2.33131 56.4309
7235245 12.7896 12.6717 16.0642 14.4015 -0.795984 1.34219 55.927
7235267 13.2741 13.3808 15.0037 13.6685 -0.555065 0.546917 55.3271
7235275 13.8202 14.0439 13.9951 13.0213 -0.341724 -0.231695 54.8805
7235302 13.8202 14.0439 13.9951 13.0213 -0.341724 -0.231695 54.8805
7235304 14.2078 14.6885 13.1737 12.4216 -0.124489 -0.908664 54.4916
7235306 14.7363 15.37 12.4043 11.9647 0.089106 -1.57978 54.4753
7235317 14.7363 15.37 12.4043 11.9647 0.089106 -1.57978 54.4753
7235342 15.2207 16.0791 11.8012 11.4888 0.250021 -2.2009 54.5898
7235344 15.5819 16.5856 11.2813 11.1366 0.393417 -2.67915 54.5854
7235358 15.9254 17.1945 10.907 10.7559 0.51018 -3.13702 54.7828
7235378 16.3746 17.8558 10.356 10.4798 0.728714 -3.64869 55.0663
7235394 16.8591 18.4783 9.92966 10.0134 0.770149 -4.17713 55.2804
7235399 16.8591 18.4783 9.92966 10.0134 0.770149 -4.17713 55.2804
7235409 17.3488 19.0618 9.53456 9.55655 0.781512 -4.68079 55.5017
7235421 17.7374 19.4703 9.03547 9.06159 0.795129 -5.18326 55.3047
7235439 18.0862 20.1316 8.56758 8.50952 0.898525 -5.73489 55.2948
7235449 18.0862 20.1316 8.56758 8.50952 0.898525 -5.73489 55.2948
7235460 18.3453 20.5109 8.21407 7.90985 0.846401 -6.20194 54.98
7235474 18.6243 20.9291 7.85015 7.55767 0.915334 -6.58979 54.9612
7235480 18.6243 20.9291 7.85015 7.55767 0.915334 -6.58979 54.9612
7235499 18.973 21.464 7.40306 7.11982 1.00423 -7.07265 54.9599
7235500 19.2321 21.8043 7.07034 6.78667 1.04228 -7.42696 54.8935
7235510 19.2321 21.8043 7.07034 6.78667 1.04228 -7.42696 54.8935
7235524 19.5311 22.2031 6.65443 6.46305 1.13061 -7.82566 54.8516
7235530 19.6706 22.4462 6.45688 6.24412 1.16882 -8.04915 54.8178
7235540 19.6706 22.4462 6.45688 6.24412 1.16882 -8.04915 54.8178
7235550 19.6506 22.5046 6.22813 6.10134 1.25133 -8.21123 54.4847
7235573 19.5311 22.4851 5.9578 5.82531 1.31115 -8.42941 53.7993
7235580 19.3218 22.3976 5.91621 5.73964 1.35794 -8.44874 53.3753
7235599 19.3218 22.3976 5.91621 5.73964 1.35794 -8.44874 53.3753
7235601 19.2819 22.4365 5.88502 5.7206 1.40187 -8.4707 53.3241
7235610 19.2819 22.4365 5.88502 5.7206 1.40187 -8.4707 53.3241
7235626 19.4015 22.4268 5.98899 5.8729 1.3546 -8.37203 53.6902
7235630 19.4215 22.5338 6.09297 5.94905 1.37432 -8.30965 53.9972
7235652 19.4613 22.6699 6.18654 6.22508 1.48834 -8.17328 54.5428
7235661 19.5709 22.9519 6.34251 6.37738 1.54586 -8.09237 55.2428
7235693 19.5709 22.9519 6.34251 6.37738 1.54586 -8.09237 55.2428
7235694 19.6008 23.0103 6.47768 6.52968 1.5559 -7.98398 55.6185
7235703 19.561 23.1562 6.60245 6.63438 1.62059 -7.90301 55.954
7235720 19.5012 23.3118 6.56086 6.78667 1.79683 -7.86997 56.1605
7235721 19.5012 23.3118 6.56086 6.78667 1.79683 -7.86997 56.1605
7235731 19.5211 23.3312 6.51927 6.77716 1.81127 -7.89579 56.1488
7235747 19.4912 23.341 6.42569 6.76764 1.87044 -7.93536 56.0255
7235771 19.3517 23.2437 6.22813 6.68197 1.95739 -8.02226 55.5055
7235787 19.1026 23.1756 6.11376 6.54871 2.0513 -8.08574 54.9407
7235799 18.8933 22.9325 5.98899 6.53919 2.11088 -8.08523 54.354
7235801 18.8933 22.9325 5.98899 6.53919 2.11088 -8.08523 54.354
7235821 18.6542 22.7769 5.9578 6.52968 2.17671 -8.05203 53.9185
7235823 18.3951 22.6796 6.07217 6.71053 2.28516 -7.8797 53.8574
7235845 18.2855 22.5532 6.12416 6.72004 2.26498 -7.82218 53.6829
7235853 18.126 22.349 6.3945 7.04367 2.25924 -7.52233 53.9132
7235873 18.126 22.349 6.3945 7.04367 2.25924 -7.52233 53.9132
7235874 18.0662 22.2906 6.70642 7.30067 2.21591 -7.27038 54.3639
7235883 18.0662 22.2906 6.70642 7.30067 2.21591 -7.27038 54.3639
7235902 17.8669 22.0378 7.08073 7.70997 2.19399 -6.88742 54.6954
7235905 17.6079 21.8238 7.68379 8.16685 2.125 -6.39834 55.2823
7235914 17.6079 21.8238 7.68379 8.16685 2.125 -6.39834 55.2823
7235931 17.3288 21.5223 8.25566 8.68085 2.06975 -5.89234 55.7877
7235934 17.3288 21.5223 8.25566 8.68085 2.06975 -5.89234 55.7877
7235944 17.0698 21.1527 8.88991 9.23292 1.96379 -5.35084 56.3453
7235964 16.7798 20.7735 9.48257 9.68029 1.84753 -4.8638 56.7161
7235967 16.7798 20.7735 9.48257 9.68029 1.84753 -4.8638 56.7161
7235974 16.4451 20.2288 9.90887 10.0039 1.71365 -4.44304 56.5867
7235995 16.1104 19.4897 10.4391 10.4418 1.49695 -3.90906 56.481
7235998 16.1104 19.4897 10.4391 10.4418 1.49695 -3.90906 56.481
7236004 15.7316 18.7214 10.907 10.6988 1.24045 -3.4376 56.0588
7236019 15.7316 18.7214 10.907 10.6988 1.24045 -3.4376 56.0588
7236024 15.0886 17.5154 11.5309 11.5269 1.08819 -2.57258 55.6618
7236034 14.5513 16.0515 12.5706 12.6215 0.694966 -1.4546 55.7949
7236054 13.8466 14.7254 13.7872 14.0493 0.505614 -0.195596 56.4084
7236071 13.1244 13.5374 15.1388 15.2105 0.212553 0.970243 57.0111
7236075 13.1244 13.5374 15.1388 15.2105 0.212553 0.970243 57.0111
7236085 12.2523 12.4415 16.5321 16.229 -0.0495806 2.10616 57.4549
7236098 12.2523 12.4415 16.5321 16.229 -0.0495806 2.10616 57.4549
7236106 11.1601 11.2904 18.1222 17.4189 -0.247024 3.386 57.9916
7236121 10.0591 10.2037 19.707 18.7536 -0.34433 4.64837 58.7233
7236125 10.0591 10.2037 19.707 18.7536 -0.34433 4.64837 58.7233
7236135 8.93161 9.12622 20.9375 20.0006 -0.314547 5.81741 58.9959
7236146 7.92746 8.11322 21.8825 20.8968 -0.339957 6.81876 58.82
7236155 7.92746 8.11322 21.8825 20.8968 -0.339957 6.81876 58.82
7236172 6.99378 7.26598 22.6601 21.4814 -0.388062 7.67493 58.4012
7236175 6.99378 7.26598 22.6601 21.4814 -0.388062 7.67493 58.4012
7236185 6.08653 6.49242 23.3492 22.0464 -0.386745 8.49079 57.9745
7236209 5.37306 5.79252 24.1268 22.6602 -0.451735 9.21997 57.9526
7236211 5.37306 5.79252 24.1268 22.6602 -0.451735 9.21997 57.9526
7236217 4.72124 5.17551 24.6781 23.2155 -0.436194 9.86241 57.7903
7236225 4.21036 4.69664 25.0915 23.6734 -0.403948 10.3667 57.6718
7236243 4.21036 4.69664 25.0915 23.6734 -0.403948 10.3667 57.6718
7236245 3.8228 4.3559 25.5148 23.9169 -0.462051 10.741 57.6104
7236255 3.8228 4.3559 25.5148 23.9169 -0.462051 10.741 57.6104
7236270 3.38238 4.0428 25.8494 24.2189 -0.421841 11.1256 57.4935
7236275 3.21503 3.75731 26.1349 24.443 -0.499409 11.3654 57.5502
7236297 3.02124 3.5455 26.5188 24.5794 -0.613539 11.5837 57.6649
7236305 2.82746 3.36132 26.6665 24.667 -0.636953 11.7723 57.5223
7236315 2.82746 3.36132 26.6665 24.667 -0.636953 11.7723 57.5223
7236327 2.73057 3.27844 26.8633 24.706 -0.698812 11.8691 57.5784
7236352 2.58964 3.10347 27.0701 24.8229 -0.752488 12.0341 57.5861
7236355 2.53679 3.07584 27.1094 24.9885 -0.685249 12.0824 57.7106
7236366 2.53679 3.07584 27.1094 24.9885 -0.685249 12.0824 57.7106
7236380 2.52798 3.02979 27.198 25.0373 -0.717632 12.115 57.7931
7236386 2.48394 2.96533 27.4244 25.0762 -0.805362 12.179 57.9499
7236413 2.45751 2.96533 27.7493 25.1736 -0.886019 12.2117 58.3458
7236421 2.45751 2.96533 27.7493 25.1736 -0.886019 12.2117 58.3458
7236431 2.37824 2.84561 27.9658 25.1444 -1.00887 12.3135 58.3341
