5777334 16.4803 18.3129 14.7957 13.4877 0.207916 -1.54808 63.0766
5777355 15.8197 17.6905 15.5132 14.173 0.209934 -0.907654 63.1964
5777365 15.1679 17.0389 16.4385 15.0106 0.174034 -0.178524 63.6559
5777375 15.1679 17.0389 16.4385 15.0106 0.174034 -0.178524 63.6559
5777386 14.4984 16.383 17.3052 15.734 0.122586 0.506353 63.9206
5777395 13.8378 15.766 18.1911 16.4289 0.0646055 1.17157 64.2238
5777405 13.8378 15.766 18.1911 16.4289 0.0646055 1.17157 64.2238
5777416 13.186 15.1029 18.9589 16.9714 -0.0274554 1.78484 64.2193
5777436 12.5342 14.6056 19.6381 17.4384 -0.0499353 2.32106 64.2163
5777448 11.9969 14.0255 20.2287 17.984 -0.0841424 2.84665 64.235
5777472 11.442 13.5282 20.7898 18.549 -0.0601038 3.35148 64.3089
5777476 10.9135 13.0769 21.3312 19.0069 -0.0625238 3.81193 64.3285
5777488 10.9135 13.0769 21.3312 19.0069 -0.0625238 3.81193 64.3285
5777498 10.4466 12.5981 21.8628 19.6304 -0.0313655 4.28783 64.5378
5777507 10.4466 12.5981 21.8628 19.6304 -0.0313655 4.28783 64.5378
5777518 10.0238 12.0915 22.2073 20.0493 -0.0350699 4.69332 64.372
5777528 9.68031 11.8337 22.6207 20.3903 -0.0298679 4.99736 64.525
5777540 9.68031 11.8337 22.6207 20.3903 -0.0298679 4.99736 64.525
5777549 9.29275 11.3732 23.0046 20.6728 -0.0976622 5.36452 64.3434
5777558 8.90518 11.0693 23.2803 20.8968 -0.0854433 5.65907 64.1516
5777568 8.90518 11.0693 23.2803 20.8968 -0.0854433 5.65907 64.1516
5777578 8.66736 10.7931 23.4673 21.2573 -0.0328213 5.90422 64.185
5777598 8.36788 10.5076 23.7232 21.6372 0.0209123 6.18462 64.2359
5777608 8.08601 10.2405 24.0284 22.0367 0.0632137 6.46168 64.3916
5777618 8.08601 10.2405 24.0284 22.0367 0.0632137 6.46168 64.3916
5777632 7.81295 9.90899 24.4812 22.5335 0.0573039 6.78737 64.7366
5777638 7.5399 9.513 24.9635 22.9622 -0.0108644 7.12684 64.9786
5777648 7.5399 9.513 24.9635 22.9622 -0.0108644 7.12684 64.9786
5777660 7.23161 9.2091 25.3376 23.3226 -0.0143796 7.42375 65.1009
5777679 6.95855 8.84995 25.5148 23.6246 0.000488758 7.69792 64.9479
5777689 6.80881 8.61051 25.751 23.8097 -0.0536978 7.88121 64.9801
5777709 6.5886 8.31582 25.8199 23.9559 -0.0528887 8.08703 64.6802
5777719 6.43005 8.18689 25.9282 24.063 -0.0419185 8.2128 64.6082
5777729 6.43005 8.18689 25.9282 24.063 -0.0419185 8.2128 64.6082
5777739 6.33316 8.16847 25.9085 24.0728 -0.000165403 8.25327 64.4829
5777749 6.33316 8.16847 25.9085 24.0728 -0.000165403 8.25327 64.4829
5777759 6.25389 8.02113 25.8987 24.1507 0.00749528 8.34233 64.3244
5777771 6.20984 8.00271 25.8002 24.2189 0.0823349 8.3619 64.2317
5777779 6.20984 8.00271 25.8002 24.2189 0.0823349 8.3619 64.2317
5777790 6.19223 7.9935 25.8396 24.3163 0.108016 8.38575 64.3417
5777799 6.15699 7.96587 25.9282 24.4722 0.13673 8.43359 64.5233
5777810 6.15699 7.96587 25.9282 24.4722 0.13673 8.43359 64.5233
5777820 6.1658 7.91983 26.0955 24.667 0.125498 8.48372 64.8482
5777830 6.1658 7.91983 26.0955 24.667 0.125498 8.48372 64.8482
5777845 6.10415 7.85536 26.0562 24.6963 0.151181 8.52847 64.712
5777854 6.01606 7.85536 26.1152 24.8521 0.222173 8.58189 64.8388
5777863 6.01606 7.85536 26.1152 24.8521 0.222173 8.58189 64.8388
5777870 6.08653 7.82774 25.9282 24.8814 0.268209 8.55063 64.7238
5777880 6.06891 7.87378 25.7805 24.8424 0.335601 8.52162 64.5656
5777891 6.06891 7.87378 25.7805 24.8424 0.335601 8.52162 64.5656
5777902 6.12176 7.93824 25.7018 24.8814 0.385216 8.47495 64.6432
5777913 6.08653 7.8922 25.6723 24.9983 0.437623 8.51328 64.6493
5777921 6.08653 7.8922 25.6723 24.9983 0.437623 8.51328 64.6493
5777932 6.13938 7.96587 25.8101 25.1542 0.449741 8.49684 65.0695
5777942 6.13938 7.96587 25.8101 25.1542 0.449741 8.49684 65.0695
5777951 6.08653 7.97508 25.751 25.2029 0.515419 8.51157 65.0155
5777962 6.02487 7.93824 25.6427 25.2029 0.568405 8.53646 64.8087
5777971 6.02487 7.93824 25.6427 25.2029 0.568405 8.53646 64.8087
5777982 6.09534 7.96587 25.5443 25.0567 0.534692 8.47631 64.6622
5777991 6.09534 7.96587 25.5443 25.0567 0.534692 8.47631 64.6622
5778001 6.04249 7.95666 25.4163 25.0275 0.591746 8.48301 64.443
5778014 6.11295 7.98429 25.4163 25.0957 0.600034 8.45423 64.6093
5778021 6.11295 7.98429 25.4163 25.0957 0.600034 8.45423 64.6093
5778032 6.11295 8.03955 25.3671 25.0178 0.610986 8.42126 64.5374
5778043 6.13057 8.04875 25.249 24.9593 0.632307 8.39346 64.3876
5778063 6.20984 8.1961 25.1604 24.8716 0.658578 8.29311 64.438
5778073 6.2715 8.18689 25.0718 24.8814 0.669506 8.26593 64.4116
5778083 6.2715 8.18689 25.0718 24.8814 0.669506 8.26593 64.4116
5778093 6.29793 8.26977 25.1506 24.9301 0.677273 8.23987 64.6483
5778113 6.2715 8.27898 25.2096 25.0567 0.715324 8.26541 64.8168
5778124 6.31554 8.27898 25.2588 25.0178 0.663763 8.25068 64.8711
5778134 6.31554 8.27898 25.2588 25.0178 0.663763 8.25068 64.8711
5778144 6.29793 8.32503 25.1801 25.0275 0.722855 8.2333 64.8305
5778154 6.26269 8.28819 25.2293 24.9788 0.68523 8.25921 64.759
5778174 6.28031 8.33424 25.2096 25.008 0.714281 8.23736 64.8322
5778184 6.28031 8.33424 25.2096 25.008 0.714281 8.23736 64.8322
5778194 6.28031 8.31582 25.0521 24.9398 0.74442 8.22036 64.5881
5778204 6.2715 8.35265 25.0226 24.8327 0.733271 8.1959 64.4794
5778214 6.2715 8.35265 25.0226 24.8327 0.733271 8.1959 64.4794
5778224 6.33316 8.38028 24.8848 24.784 0.755763 8.14401 64.3822
5778235 6.33316 8.38028 24.8651 24.6865 0.7269 8.13152 64.2651
5778245 6.33316 8.38028 24.8651 24.6865 0.7269 8.13152 64.2651
5778255 6.44767 8.46316 24.7371 24.7158 0.774559 8.05004 64.3637
5778267 6.44767 8.46316 24.7371 24.7158 0.774559 8.05004 64.3637
5778275 6.57098 8.5 24.3729 24.5404 0.819153 7.93374 63.9843
5778285 6.87047 8.78548 23.9792 24.2481 0.854686 7.64786 63.8832
5778295 6.87047 8.78548 23.9792 24.2481 0.854686 7.64786 63.8832
5778305 7.2228 9.12622 23.6346 23.7903 0.807169 7.30923 63.7739
5778315 7.67202 9.56826 23.3098 23.2447 0.717592 6.89262 63.7948
5778330 7.67202 9.56826 23.3098 23.2447 0.717592 6.89262 63.7948
5778335 8.13886 10.0748 23.0145 22.7284 0.644886 6.45656 63.9565
5778345 8.13886 10.0748 23.0145 22.7284 0.644886 6.45656 63.9565
5778355 8.49119 10.4063 22.916 22.2705 0.495267 6.15342 64.084
5778365 8.84352 10.6918 22.7782 21.8905 0.374025 5.87194 64.2041
5778375 8.84352 10.6918 22.7782 21.8905 0.374025 5.87194 64.2041
5778385 9.16943 10.9772 22.6699 21.4716 0.237021 5.59859 64.2883
5778395 9.16943 10.9772 22.6699 21.4716 0.237021 5.59859 64.2883
5778405 9.3544 11.3272 22.3254 20.8774 0.205344 5.28795 63.8844
5778415 9.70674 11.7416 21.9317 20.3026 0.159296 4.89598 63.6826
5778425 9.70674 11.7416 21.9317 20.3026 0.159296 4.89598 63.6826
5778436 10.0767 12.2297 21.2918 19.6206 0.190526 4.41469 63.2188
5778445 10.5259 12.7178 20.7209 19.0751 0.216541 3.93854 63.0396
5778455 10.5259 12.7178 20.7209 19.0751 0.216541 3.93854 63.0396
5778465 10.9311 13.2335 20.209 18.549 0.255215 3.47891 62.9226
5778475 10.9311 13.2335 20.209 18.549 0.255215 3.47891 62.9226
5778504 11.301 13.6018 19.9039 18.1691 0.224683 3.13693 62.9758
5778505 11.6534 14.0255 19.5987 17.8378 0.24209 2.79434 63.1154
5778507 11.6534 14.0255 19.5987 17.8378 0.24209 2.79434 63.1154
5778516 11.944 14.4307 19.2936 17.4189 0.242504 2.45798 63.0872
5778526 12.4109 14.974 18.8408 17.0292 0.29704 2.01212 63.2549
5778539 12.4109 14.974 18.8408 17.0292 0.29704 2.01212 63.2549
5778547 12.9041 15.4529 18.3683 16.5622 0.293347 1.55799 63.2874
5778556 12.9041 15.4529 18.3683 16.5622 0.293347 1.55799 63.2874
5778566 13.2036 15.8857 17.9155 16.1433 0.360245 1.18043 63.1481
5778576 13.5383 16.2817 17.5906 15.7626 0.362229 0.838929 63.1732
5778587 13.5383 16.2817 17.5906 15.7626 0.362229 0.838929 63.1732
5778597 13.7938 16.604 17.1673 15.3723 0.403267 0.510482 62.9375
5778607 14.1373 16.9632 16.8024 14.8488 0.347495 0.131662 62.7517
5778617 14.1373 16.9632 16.8024 14.8488 0.347495 0.131662 62.7517
5778627 14.4544 17.389 16.3346 14.4205 0.407577 -0.260797 62.5985
5778647 14.7803 17.6905 15.9602 14.154 0.44097 -0.564814 62.585
5778657 15.0269 18.0795 15.7211 13.8494 0.471011 -0.846239 62.6769
5778667 15.0269 18.0795 15.7211 13.8494 0.471011 -0.846239 62.6769
5778677 15.2912 18.3616 15.43 13.6209 0.502896 -1.10085 62.7037
5778686 15.5731 18.6825 15.2116 13.3449 0.49462 -1.36097 62.8121
5778698 15.5731 18.6825 15.2116 13.3449 0.49462 -1.36097 62.8121
5778707 15.8637 19.0423 15.0141 13.0213 0.470999 -1.63741 62.9414
5778728 16.0487 19.2466 14.7437 12.6881 0.455251 -1.88038 62.7271
5778738 16.3746 19.4994 14.6086 12.4311 0.376463 -2.1063 62.9137
5778750 16.3746 19.4994 14.6086 12.4311 0.376463 -2.1063 62.9137
5778759 16.6741 19.8301 14.3798 12.0218 0.317147 -2.40897 62.9058
5778768 16.9207 19.976 14.0783 11.6887 0.265566 -2.66416 62.6637
5778780 16.9207 19.976 14.0783 11.6887 0.265566 -2.66416 62.6637
5778788 17.1993 20.1899 13.8287 11.3746 0.21427 -2.92029 62.5926
5778798 17.1993 20.1899 13.8287 11.3746 0.21427 -2.92029 62.5926
5778808 17.5979 20.5011 13.496 11.07 0.190386 -3.23937 62.665
5778818 17.9566 20.7637 13.2465 10.7178 0.111043 -3.53102 62.6846
5778828 17.9566 20.7637 13.2465 10.7178 0.111043 -3.53102 62.6846
5778838 18.3552 21.036 12.9554 10.3656 0.0363141 -3.84382 62.7122
5778850 18.6641 21.2889 12.6538 10.1181 0.0355095 -4.10866 62.725
5778869 19.0727 21.4348 12.3939 9.85162 -0.0717759 -4.3652 62.753
5778879 19.0727 21.4348 12.3939 9.85162 -0.0717759 -4.3652 62.753
5778890 19.3318 21.6196 12.0404 9.59462 -0.0630915 -4.62953 62.5863
5778899 19.6008 21.8238 11.7908 9.38522 -0.0729337 -4.85184 62.6007
5778919 19.9396 22.0669 11.6349 9.18533 -0.128219 -5.05828 62.8267
5778931 20.2186 22.1642 11.4789 8.91881 -0.244716 -5.25285 62.7805
5778939 20.2186 22.1642 11.4789 8.91881 -0.244716 -5.25285 62.7805
5778952 20.4379 22.2128 11.3125 8.78555 -0.299622 -5.39116 62.7488
5778960 20.4379 22.2128 11.3125 8.78555 -0.299622 -5.39116 62.7488
5778969 20.5375 22.2614 11.1774 8.57615 -0.350624 -5.52627 62.5525
5778979 20.6571 22.2712 11.0318 8.45241 -0.38667 -5.63446 62.4125
5779000 20.7866 22.3101 11.0318 8.33819 -0.468323 -5.69745 62.4667
5779011 20.9162 22.2614 10.9174 8.3477 -0.490235 -5.74426 62.4428
5779032 20.9959 22.1739 10.9382 8.30963 -0.580996 -5.74884 62.4177
5779040 20.9959 22.1739 10.9382 8.30963 -0.580996 -5.74884 62.4177
5779050 21.0756 22.1447 11.0006 8.31915 -0.644521 -5.73246 62.5401
5779060 21.0756 22.1156 11.0838 8.49048 -0.61872 -5.64409 62.7655
5779082 21.1553 22.0864 11.2502 8.52856 -0.710304 -5.58462 63.0204
5779092 21.0657 21.9308 11.2917 8.66181 -0.700876 -5.49076 62.95
5779101 21.0657 21.9308 11.2917 8.66181 -0.700876 -5.49076 62.95
5779112 20.9361 21.8141 11.5309 8.74748 -0.755785 -5.34801 63.0285
5779127 20.9361 21.8141 11.5309 8.74748 -0.755785 -5.34801 63.0285
5779135 20.8664 21.639 11.6453 8.94737 -0.762795 -5.20922 63.098
5779144 20.8464 21.5515 11.7076 8.93785 -0.818774 -5.17558 63.0434
5779155 20.8464 21.5515 11.7076 8.93785 -0.818774 -5.17558 63.0434
5779164 20.7866 21.4445 11.8428 9.13774 -0.809664 -5.04272 63.2117
5779172 20.5873 21.2014 11.8012 9.25196 -0.769879 -4.94945 62.8419
5779191 20.2784 21.0069 11.978 9.50896 -0.693215 -4.731 62.7722
5779215 19.9894 20.7346 12.0924 9.77548 -0.627787 -4.51884 62.5918
5779223 19.7104 20.3747 12.2587 10.1657 -0.571394 -4.23792 62.5096
5779233 19.7104 20.3747 12.2587 10.1657 -0.571394 -4.23792 62.5096
5779243 19.3517 20.0246 12.6642 10.5941 -0.557701 -3.86001 62.6346
5779253 18.8834 19.5967 13.1529 11.1747 -0.503476 -3.37995 62.8076
5779273 18.4648 19.0618 13.756 11.8886 -0.502773 -2.8214 63.1712
5779283 18.4648 19.0618 13.756 11.8886 -0.502773 -2.8214 63.1712
5779293 17.8171 18.5463 14.2966 12.4502 -0.442578 -2.28568 63.1103
5779303 17.2093 18.2546 14.9621 13.0594 -0.337641 -1.75846 63.4853
5779323 16.6389 17.9239 15.5443 13.4686 -0.310905 -1.30941 63.5758
5779333 15.9518 17.3112 16.2202 14.154 -0.277673 -0.680939 63.6372
5779343 15.9518 17.3112 16.2202 14.154 -0.277673 -0.680939 63.6372
5779353 15.2472 16.8895 16.9688 14.8679 -0.179219 -0.0703365 63.9733
5779363 15.2472 16.8895 16.9688 14.8679 -0.179219 -0.0703365 63.9733
5779374 14.5073 16.383 17.5611 15.5151 -0.0665322 0.512604 63.9664
5779383 13.9259 15.9594 18.0631 16.1909 0.0628591 1.0217 64.1393
5779404 13.2741 15.4529 18.4962 16.762 0.173703 1.53113 63.9852
5779414 12.7104 15.1213 18.8801 17.2046 0.287652 1.93683 63.9164
5779424 12.7104 15.1213 18.8801 17.2046 0.287652 1.93683 63.9164
5779434 12.1114 14.6885 19.4019 17.5943 0.301558 2.39738 63.796
5779454 11.4155 14.2465 19.9137 18.1203 0.407228 2.91353 63.6961
5779469 10.843 13.8413 20.5043 18.6367 0.442851 3.39757 63.8253
5779474 10.843 13.8413 20.5043 18.6367 0.442851 3.39757 63.8253
5779484 10.385 13.5005 20.9867 19.2602 0.541478 3.82678 64.1324
5779494 9.89171 13.0677 21.6659 19.9616 0.569665 4.33557 64.5869
5779504 9.89171 13.0677 21.6659 19.9616 0.569665 4.33557 64.5869
5779514 9.30155 12.5612 22.3057 20.5364 0.575811 4.86347 64.7049
5779524 9.30155 12.5612 22.3057 20.5364 0.575811 4.86347 64.7049
5779534 8.82591 11.9902 22.8274 21.0527 0.536981 5.34745 64.6963
5779544 8.35907 11.4561 23.3196 21.608 0.534979 5.8182 64.7428
5779555 8.35907 11.4561 23.3196 21.608 0.534979 5.8182 64.7428
5779564 7.93627 10.922 23.7429 22.1341 0.531748 6.26059 64.7353
5779575 7.93627 10.922 24.1563 22.1341 0.369725 6.31606 65.1487
5779585 7.52228 10.351 24.1563 22.7089 0.533411 6.71746 64.7385
5779596 7.24922 10.0195 24.3827 23.0693 0.562754 6.99544 64.7208
5779616 7.05544 9.78927 24.2942 23.2642 0.661409 7.15345 64.403
5779625 6.88808 9.50379 24.3532 23.6149 0.729257 7.35929 64.36
5779638 6.88808 9.50379 24.3532 23.6149 0.729257 7.35929 64.36
5779645 6.67668 9.38407 24.2548 23.8682 0.903967 7.49307 64.1837
5779655 6.67668 9.38407 24.2548 23.8682 0.903967 7.49307 64.1837
5779665 6.53575 9.44854 24.2154 24.1117 1.092 7.54365 64.3114
5779680 6.44767 9.53142 24.1957 24.3358 1.24935 7.56909 64.5106
5779686 6.44767 9.53142 24.1957 24.3358 1.24935 7.56909 64.5106
5779695 6.43886 9.58667 24.2646 24.4138 1.27386 7.56976 64.7039
5779705 6.35959 9.52221 24.3237 24.4527 1.27272 7.63119 64.6582
5779716 6.35959 9.52221 24.3237 24.4527 1.27272 7.63119 64.6582
5779725 6.23627 9.44854 24.5206 24.5989 1.26943 7.73899 64.8042
5779735 6.23627 9.44854 24.5206 24.5989 1.26943 7.73899 64.8042
5779746 6.15699 9.36566 24.6485 24.6086 1.22289 7.81134 64.7798
5779756 6.18342 9.32882 24.7174 24.5891 1.16366 7.82049 64.8188
5779766 6.18342 9.32882 24.7174 24.5891 1.16366 7.82049 64.8188
5779785 6.09534 9.27356 24.8257 24.7352 1.18888 7.899 64.9299
5779788 5.99845 9.06176 25.0423 24.8034 1.08791 8.03906 64.9059
5779806 5.98964 8.96045 25.1112 24.8521 1.04439 8.09075 64.9134
5779828 5.81347 8.82232 25.1407 24.9593 1.09192 8.21745 64.7358
5779838 5.79586 8.73023 25.1407 24.9885 1.07578 8.25991 64.6553
5779848 5.79586 8.73023 25.1407 24.9885 1.07578 8.25991 64.6553
5779858 5.76943 8.65656 25.1013 24.9398 1.05698 8.28682 64.4671
5779868 5.71658 8.54605 25.1702 25.0665 1.05648 8.36615 64.4993
5779878 5.71658 8.54605 25.1702 25.0665 1.05648 8.36615 64.4993
5779888 5.66373 8.48158 25.2293 25.1931 1.07704 8.42769 64.5677
5779898 5.66373 8.48158 25.2293 25.1931 1.07704 8.42769 64.5677
5779908 5.63731 8.38949 25.3474 25.3587 1.06727 8.49939 64.733
5779918 5.54922 8.21452 25.4459 25.5926 1.08483 8.62811 64.8022
5779928 5.54922 8.21452 25.4459 25.5926 1.08483 8.62811 64.8022
5779938 5.46114 8.04875 25.6132 25.7874 1.0637 8.75607 64.9105
5779948 5.42591 7.96587 25.6821 25.9238 1.0699 8.81896 64.9977
5779958 5.42591 7.96587 25.6821 25.9238 1.0699 8.81896 64.9977
5779970 5.38187 7.95666 25.8002 26.0407 1.07981 8.86071 65.1794
5779978 5.38187 7.95666 25.8002 26.0407 1.07981 8.86071 65.1794
5779990 5.34663 7.80011 25.8494 26.1479 1.05608 8.94569 65.144
5779998 5.23212 7.78169 26.0266 26.1673 1.03142 9.01276 65.2078
5780011 5.23212 7.78169 26.0266 26.1673 1.03142 9.01276 65.2078
5780018 5.23212 7.65276 25.8987 26.1284 1.02074 9.04506 64.9119
5780028 5.13523 7.49621 25.9085 26.1966 1.023 9.14637 64.7365
5780038 5.13523 7.49621 25.9085 26.1966 1.023 9.14637 64.7365
5780048 5.07358 7.49621 25.9085 26.3037 1.08743 9.17904 64.782
5780058 5.07358 7.49621 25.9085 26.3037 1.08743 9.17904 64.782
5780068 5.02073 7.42254 25.8593 26.3524 1.11938 9.22631 64.655
5780078 4.97668 7.32124 25.938 26.4109 1.08953 9.29303 64.6469
5780088 4.97668 7.32124 25.938 26.4109 1.08953 9.29303 64.6469
5780104 5.00311 7.31203 25.8987 26.4888 1.12015 9.28997 64.7026
5780120 4.94145 7.26598 26.0168 26.5473 1.10196 9.34593 64.7715
5780129 4.98549 7.25677 26.0759 26.6155 1.08222 9.34395 64.9336
5780140 4.98549 7.25677 26.0759 26.6155 1.08222 9.34395 64.9336
5780149 4.97668 7.1831 26.1743 26.5862 1.0083 9.3809 64.9203
5780160 5.00311 7.16468 26.3318 26.4791 0.888315 9.38225 64.9787
5780169 5.00311 7.16468 26.3318 26.4791 0.888315 9.38225 64.9787
5780179 5.08238 7.10943 26.2334 26.3232 0.817356 9.35114 64.7484
5780189 5.06477 7.12784 26.2727 26.2842 0.801006 9.35088 64.7496
5780199 5.06477 7.12784 26.2727 26.2842 0.801006 9.35088 64.7496
5780209 5.16166 7.20152 26.2727 26.1284 0.731692 9.27315 64.7643
5780220 5.16166 7.20152 26.2727 26.1284 0.731692 9.27315 64.7643
5780229 5.17047 7.14626 26.1841 25.914 0.661999 9.26372 64.4149
5780241 5.25855 7.24756 26.1448 25.7192 0.60721 9.17146 64.3701
5780249 5.25855 7.24756 26.1448 25.7192 0.60721 9.17146 64.3701
5780262 5.4171 7.43174 26.1644 25.4367 0.499174 9.01915 64.45
5780269 5.61088 7.56988 25.8494 25.2711 0.536776 8.85047 64.3013
5780279 5.61088 7.56988 25.8494 25.2711 0.536776 8.85047 64.3013
5780289 5.88394 7.91062 25.436 25.0275 0.629559 8.55977 64.2581
5780315 6.15699 8.13164 25.1801 24.8034 0.621575 8.33057 64.2721
5780319 6.43886 8.42633 24.934 24.5599 0.626704 8.07082 64.3591
5780329 6.43886 8.42633 24.934 24.5599 0.626704 8.07082 64.3591
5780339 6.77358 8.76706 24.7371 24.141 0.542289 7.76268 64.4187
5780350 6.77358 8.76706 24.7371 24.141 0.542289 7.76268 64.4187
5780359 6.9057 8.96966 24.3827 23.8974 0.615159 7.57646 64.1555
5780369 7.25803 9.3104 23.9201 23.3713 0.588641 7.21651 63.8599
5780391 7.61036 9.75244 23.2507 22.6309 0.601754 6.76396 63.2445
5780402 8.11244 10.2681 22.6404 22.0367 0.615299 6.25535 63.0577
5780422 8.62332 10.7839 22.227 21.5788 0.598121 5.78962 63.213
5780433 8.62332 10.7839 22.227 21.5788 0.598121 5.78962 63.213
5780440 9.06373 11.364 21.7446 20.9553 0.598374 5.29217 63.1277
5780453 9.58342 12.11 21.41 20.4 0.597051 4.75169 63.5033
5780473 10.1383 12.7362 21.0457 19.7083 0.495222 4.21497 63.6286
5780483 10.7461 13.3532 20.652 19.0556 0.395989 3.66926 63.8069
5780493 10.7461 13.3532 20.652 19.0556 0.395989 3.66926 63.8069
5780500 11.3187 14.0439 19.9925 18.4808 0.475264 3.08073 63.8358
5780510 11.3187 14.0439 19.9925 18.4808 0.475264 3.08073 63.8358
5780522 11.8912 14.6148 19.2837 17.7599 0.471994 2.48725 63.5497
5780532 12.5078 15.2042 18.6537 17.039 0.426501 1.88804 63.4047
5780541 12.5078 15.2042 18.6537 17.039 0.426501 1.88804 63.4047
5780551 12.957 15.7476 18.0631 16.2576 0.39072 1.33664 63.0252
5780562 13.4326 16.208 17.4823 15.5913 0.352511 0.82109 62.7143
5780571 13.4326 16.208 17.4823 15.5913 0.352511 0.82109 62.7143
5780582 14.0228 16.7974 16.9272 15.0297 0.349277 0.271604 62.7771
5780591 14.0228 16.7974 16.9272 15.0297 0.349277 0.271604 62.7771
5780602 14.4368 17.1653 16.3657 14.4776 0.336453 -0.182263 62.4455
5780612 14.9829 17.6905 15.9291 14.0017 0.311574 -0.657146 62.6041
5780624 14.9829 17.6905 15.9291 14.0017 0.311574 -0.657146 62.6041
5780633 15.4145 18.1281 15.5651 13.6019 0.299156 -1.04664 62.7097
5780643 15.8109 18.595 15.2636 13.0403 0.223565 -1.45956 62.7098
5780653 15.8109 18.595 15.2636 13.0403 0.223565 -1.45956 62.7098
5780663 16.3834 19.0618 14.8269 12.5739 0.169209 -1.92002 62.846
5780675 16.3834 19.0618 14.8269 12.5739 0.169209 -1.92002 62.846
5780683 16.7622 19.4703 14.4006 12.1456 0.180411 -2.31438 62.7786
5780693 17.1993 19.8787 13.9431 11.7648 0.199544 -2.71639 62.786
5780703 17.1993 19.8787 13.9431 11.7648 0.199544 -2.71639 62.786
5780713 17.5481 20.2191 13.496 11.4127 0.23441 -3.07738 62.6759
5780725 17.847 20.4525 13.1113 11.1461 0.255898 -3.36703 62.557
5780733 17.847 20.4525 13.1113 11.1461 0.255898 -3.36703 62.557
5780743 18.0563 20.7151 12.7682 10.7368 0.251892 -3.67708 62.2764
5780764 18.3154 20.9291 12.6122 10.5084 0.20439 -3.87808 62.3651
5780774 18.5346 21.1819 12.5083 10.3561 0.197819 -4.03929 62.5809
5780784 18.5346 21.1819 12.5083 10.3561 0.197819 -4.03929 62.5809
5780794 18.8036 21.3084 12.3107 10.1562 0.139916 -4.22948 62.5789
5780804 18.983 21.4737 12.1755 10.0134 0.131127 -4.37406 62.6457
5780814 18.983 21.4737 12.1755 10.0134 0.131127 -4.37406 62.6457
5780824 19.1125 21.6001 12.0716 9.93729 0.140819 -4.47306 62.7215
5780835 19.1723 21.6001 12.03 9.8421 0.0957459 -4.52562 62.6445
5780845 19.1723 21.7363 12.03 9.8421 0.149757 -4.54834 62.7807
5780855 19.3218 21.853 11.9988 9.68981 0.0883669 -4.64965 62.8634
5780865 19.3218 21.853 11.9988 9.68981 0.0883669 -4.64965 62.8634
5780877 19.4314 21.9211 11.8428 9.58511 0.0923604 -4.76053 62.7804
5780885 19.5709 21.96 11.77 9.47088 0.0357956 -4.84851 62.7718
5780905 19.5809 21.96 11.7492 9.44233 0.0287563 -4.86573 62.7324
5780917 19.5211 21.9891 11.6453 9.47088 0.117224 -4.8847 62.6264
5780936 19.5809 22.0572 11.6661 9.47088 0.111967 -4.89872 62.775
5780948 19.5809 22.0572 11.6661 9.47088 0.111967 -4.89872 62.775
5780957 19.6506 22.1545 11.6349 9.42329 0.116226 -4.9505 62.8633
5780967 19.6208 22.1253 11.718 9.32811 0.0456244 -4.94486 62.7922
5780977 19.6208 22.1253 11.718 9.32811 0.0456244 -4.94486 62.7922
5780987 19.6307 22.1934 11.6661 9.38522 0.112054 -4.95571 62.8754
5780996 19.561 22.1447 11.6557 9.41377 0.136158 -4.931 62.7751
5781007 19.561 22.1447 11.6557 9.41377 0.136158 -4.931 62.7751
5781017 19.551 22.1642 11.718 9.48992 0.152993 -4.88864 62.9231
5781028 19.551 22.1642 11.718 9.48992 0.152993 -4.88864 62.9231
5781037 19.6208 22.2614 11.7076 9.50896 0.175121 -4.91267 63.0988
5781046 19.6008 22.2712 11.7076 9.55655 0.205609 -4.89603 63.1362
5781070 19.5012 22.2225 11.6557 9.47088 0.213441 -4.91577 62.8503
5781082 19.5012 22.2225 11.6557 9.47088 0.213441 -4.91577 62.8503
5781093 19.3716 22.1058 11.6972 9.54703 0.232771 -4.8388 62.7217
5781112 19.262 21.9891 11.7596 9.68029 0.258321 -4.7402 62.6911
5781113 19.262 21.9891 11.7596 9.68029 0.258321 -4.7402 62.6911
5781120 19.1624 21.9405 11.8324 9.71836 0.264981 -4.68099 62.6537
5781128 19.0029 21.8433 11.9676 9.91825 0.315225 -4.53365 62.732
5781149 18.8435 21.6585 12.2067 10.0039 0.244036 -4.37503 62.7126
5781162 18.6542 21.5904 12.4459 10.2324 0.287145 -4.18759 62.9228
5781169 18.6542 21.5904 12.4459 10.2324 0.287145 -4.18759 62.9228
5781179 18.425 21.4445 12.6642 10.3561 0.282806 -4.01873 62.8898
5781189 18.425 21.4445 12.6642 10.3561 0.282806 -4.01873 62.8898
5781203 18.1958 21.2208 12.9969 10.5655 0.235638 -3.77605 62.9791
5781209 18.0463 21.0263 13.2985 10.7559 0.173229 -3.56859 63.127
5781230 17.8072 20.7346 13.5376 10.9177 0.122023 -3.35406 62.997
5781240 17.4982 20.3747 13.808 11.2318 0.11934 -3.05976 62.9127
5781263 17.1295 20.0635 14.1303 11.5649 0.146544 -2.74244 62.8883
5781281 16.8503 19.7523 14.5254 11.8981 0.108981 -2.42259 63.026
5781292 16.4715 19.4605 14.9933 12.3074 0.119853 -2.04752 63.2327
5781316 16.172 19.0521 15.43 12.7452 0.0770152 -1.66773 63.3993
5781322 15.8285 18.7019 15.7939 13.2307 0.122041 -1.29947 63.555
5781341 15.5995 18.3616 16.1162 13.4782 0.0487894 -1.0306 63.5554
5781352 15.1767 17.8461 16.4489 14.0778 0.117359 -0.589155 63.5495
5781363 15.1767 17.8461 16.4489 14.0778 0.117359 -0.589155 63.5495
5781373 14.7363 17.3404 16.9064 14.6013 0.117576 -0.134206 63.5844
5781383 14.7363 17.3404 16.9064 14.6013 0.117576 -0.134206 63.5844
5781393 14.2518 16.6408 17.4331 15.2676 0.0878811 0.426484 63.5934
5781404 13.7497 16.1067 18.2009 15.972 0.0499994 1.01121 64.0294
5781413 13.7497 16.1067 18.2009 15.972 0.0499994 1.01121 64.0294
5781423 13.2565 15.4252 18.8112 16.6002 -0.0164777 1.57499 64.0932
5781433 12.7456 14.7438 19.4511 17.2923 -0.0625178 2.16104 64.2327
5781443 12.7456 14.7438 19.4511 17.2923 -0.0625178 2.16104 64.2327
5781453 12.2435 14.2373 20.0614 17.6819 -0.150134 2.63044 64.2241
5781464 12.2435 14.2373 20.0614 17.6819 -0.150134 2.63044 64.2241
5781473 11.7415 13.8597 20.5339 17.9352 -0.187445 3.01262 64.0703
5781483 11.3187 13.4361 21.1147 18.2178 -0.304061 3.412 64.0871
5781493 11.3187 13.4361 21.1147 18.2178 -0.304061 3.412 64.0871
5781503 10.9487 13.0493 21.5379 18.4321 -0.392871 3.74531 63.968
5781514 10.6052 12.7454 21.8726 18.6562 -0.421199 4.03374 63.8793
5781524 10.6052 12.7454 21.8726 18.6562 -0.421199 4.03374 63.8793
5781535 10.385 12.6165 22.0596 18.9679 -0.335878 4.22296 64.029
5781544 10.385 12.6165 22.0596 18.9679 -0.335878 4.22296 64.029
5781556 10.2881 12.4415 21.971 19.1628 -0.256363 4.32272 63.8634
5781564 10.1472 12.3402 22.0203 19.3868 -0.172317 4.44164 63.8944
5781578 10.1472 12.3402 22.0203 19.3868 -0.172317 4.44164 63.8944
5781584 9.96218 12.2757 21.9809 19.5427 -0.0488713 4.53699 63.7615
5781594 9.96218 12.2757 22.0498 19.5427 -0.0758067 4.54828 63.8304
5781604 9.7772 12.2021 22.0498 19.7181 0.0365168 4.65635 63.7471
5781614 9.61865 12.1192 22.1581 19.9713 0.122827 4.78921 63.8673
5781624 9.61865 12.1192 22.1581 19.9713 0.122827 4.78921 63.8673
5781634 9.41606 11.9074 22.3254 20.3221 0.190693 5.0001 63.9709
5781644 9.18705 11.6403 22.6306 20.5948 0.162962 5.24522 64.0528
5781654 9.18705 11.6403 22.6306 20.5948 0.162962 5.24522 64.0528
5781665 8.96684 11.4377 22.9259 20.9943 0.209582 5.48365 64.3247
5781674 8.96684 11.4377 22.9259 20.9943 0.209582 5.48365 64.3247
5781684 8.64974 11.1614 23.1917 21.2573 0.224611 5.75111 64.2601
5781706 8.40311 10.9404 23.4968 21.7152 0.292644 6.01075 64.5555
5781718 8.08601 10.6549 23.8118 22.1244 0.340715 6.30715 64.6771
5781726 7.80414 10.305 24.0382 22.7089 0.451577 6.62341 64.8562
5781749 7.59275 9.98267 24.432 23.1668 0.43143 6.90995 65.1741
5781765 7.2228 9.66956 24.6879 23.3713 0.435019 7.19772 64.9516
5781776 7.00259 9.33803 24.9143 23.6246 0.402969 7.44418 64.8796
5781785 7.00259 9.33803 24.9143 23.6246 0.402969 7.44418 64.8796
5781796 6.81762 9.04334 24.9832 23.7513 0.384623 7.63371 64.5955
5781805 6.65026 8.72102 25.2096 24.0338 0.346267 7.86326 64.6147
5781826 6.4829 8.69339 25.249 24.3358 0.50081 7.96972 64.7611
5781837 6.26269 8.37107 25.2687 24.5794 0.550181 8.19168 64.4818
5781846 6.26269 8.37107 25.2687 24.5794 0.550181 8.19168 64.4818
5781857 6.19223 8.25135 25.4065 24.706 0.526154 8.28789 64.5561
5781878 6.08653 8.18689 25.4754 24.7352 0.527346 8.35956 64.4841
5781888 6.01606 8.01192 25.6132 24.9496 0.51564 8.48452 64.5908
5781908 5.9544 7.97508 25.7412 25.1931 0.567588 8.55751 64.8638
5781922 5.91036 7.85536 25.8199 25.2711 0.538164 8.63255 64.8567
5781928 5.91036 7.85536 25.8199 25.2711 0.538164 8.63255 64.8567
5781938 5.82228 7.82774 25.879 25.349 0.568557 8.68815 64.878
5781948 5.82228 7.82774 25.879 25.349 0.568557 8.68815 64.878
5781958 5.8399 7.81853 25.8987 25.1639 0.48047 8.66894 64.721
5781968 5.86632 7.72644 26.0759 25.1639 0.365618 8.71021 64.8325
5781977 5.86632 7.72644 26.0759 25.1639 0.365618 8.71021 64.8325
5781989 5.86632 7.78169 26.0365 25.1736 0.405705 8.68714 64.8581
5781998 5.83109 7.69881 26.0168 25.31 0.447506 8.74164 64.8567
5782009 5.83109 7.69881 26.0168 25.31 0.447506 8.74164 64.8567
5782018 5.8399 7.68039 25.9479 25.3685 0.486255 8.74415 64.8367
5782029 5.8399 7.68039 25.9479 25.3685 0.486255 8.74415 64.8367
5782039 5.81347 7.74485 25.879 25.31 0.526059 8.71789 64.7473
5782050 5.81347 7.75406 25.8199 25.2613 0.534421 8.70404 64.6488
5782073 5.85751 7.80932 25.6821 25.2029 0.570303 8.64844 64.5518
5782079 5.91917 7.77248 25.6329 25.2223 0.558808 8.63642 64.5469
5782089 5.91917 7.77248 25.6329 25.2223 0.558808 8.63642 64.5469
5782100 5.92798 7.67118 25.623 25.2223 0.520799 8.66937 64.4446
5782110 5.92798 7.67118 25.623 25.2223 0.520799 8.66937 64.4446
5782136 5.98964 7.74485 25.6526 25.2321 0.516382 8.62364 64.6192
5782138 5.98964 7.85536 25.5935 25.2418 0.585204 8.57842 64.6803
5782140 5.98964 7.85536 25.5935 25.2418 0.585204 8.57842 64.6803
5782150 6.08653 7.91983 25.4951 25.0957 0.554949 8.49521 64.5971
5782160 6.10415 8.03034 25.308 24.9593 0.612348 8.4158 64.4018
5782170 6.10415 8.03034 25.308 24.9593 0.612348 8.4158 64.4018
5782180 6.22746 8.14085 25.2391 24.9203 0.617787 8.31994 64.5278
5782193 6.22746 8.14085 25.2391 24.9203 0.617787 8.31994 64.5278
5782200 6.24508 8.14085 25.0915 24.8424 0.640041 8.29013 64.3198
5782210 6.46528 8.22373 24.9045 24.8424 0.658169 8.1611 64.4359
5782220 6.46528 8.22373 24.9045 24.8424 0.658169 8.1611 64.4359
5782230 6.5886 8.42633 24.6485 24.7158 0.739741 8.00321 64.3792
5782241 6.77358 8.42633 24.5304 24.5599 0.654161 7.90721 64.2902
5782250 6.77358 8.45395 24.5304 24.5599 0.664619 7.89737 64.3178
5782263 7.00259 8.61972 24.2548 24.2774 0.638971 7.69467 64.1544
5782270 7.00259 8.61972 24.2548 24.2774 0.638971 7.69467 64.1544
5782280 7.1171 8.9052 24.1071 23.9266 0.627431 7.49612 64.0561
5782293 7.29326 9.18147 23.8512 23.7026 0.679228 7.2809 64.0285
5782300 7.29326 9.18147 23.8512 23.7026 0.679228 7.2809 64.0285
5782312 7.50466 9.50379 23.5953 23.3616 0.690013 7.02296 63.9653
5782332 7.50466 9.50379 23.5953 23.3616 0.690013 7.02296 63.9653
5782340 8.13005 10.2589 22.8964 22.592 0.71407 6.36361 63.8773
5782360 8.58808 10.7654 22.3353 21.9685 0.711066 5.87919 63.6573
5782370 9.15181 11.3272 21.7446 21.1794 0.634867 5.31008 63.403
5782381 9.15181 11.3272 21.7446 21.1794 0.634867 5.31008 63.403
5782390 9.68912 11.9995 21.2721 20.4877 0.601226 4.7451 63.4484
5782401 9.68912 11.9995 21.2721 20.4877 0.601226 4.7451 63.4484
5782411 10.1824 12.4875 20.8981 19.7862 0.470892 4.26516 63.3543
5782422 10.6845 13.0493 20.2878 19.1043 0.467858 3.72074 63.1258
5782433 10.6845 13.0493 20.2878 19.1043 0.467858 3.72074 63.1258
5782444 11.3451 13.7031 19.6873 18.4223 0.432682 3.10209 63.1579
5782451 11.8119 14.3109 19.1065 17.7112 0.438374 2.5488 62.9406
5782461 11.8119 14.3109 19.1065 17.7112 0.438374 2.5488 62.9406
5782471 12.358 14.8267 18.6931 17.1851 0.380817 2.06782 63.0629
5782491 12.7896 15.3792 18.3387 16.5812 0.329697 1.60514 63.0888
5782502 13.2477 15.8765 17.9351 16.0196 0.28269 1.1487 63.0789
5782514 13.2477 15.8765 17.9351 16.0196 0.28269 1.1487 63.0789
5782522 13.6705 16.3738 17.3642 15.458 0.316983 0.662827 62.8665
5782536 14.0933 16.8527 16.9272 14.944 0.308904 0.220953 62.8171
5782552 14.5425 17.3307 16.5217 14.3634 0.250903 -0.236158 62.7582
5782563 14.5425 17.3307 16.5217 14.3634 0.250903 -0.236158 62.7582
5782573 15.0181 17.8169 16.0226 13.8779 0.26066 -0.701634 62.7356
5782583 15.3881 18.3421 15.5235 13.3259 0.302154 -1.1699 62.5796
5782593 15.3881 18.3421 15.5235 13.3259 0.302154 -1.1699 62.5796
5782603 15.9166 18.7311 15.1596 12.8309 0.193897 -1.59419 62.6382
5782614 16.401 19.1396 14.6813 12.4121 0.187317 -2.02298 62.6341
5782623 16.401 19.1396 14.6813 12.4121 0.187317 -2.02298 62.6341
5782633 16.771 19.5772 14.359 11.8886 0.134116 -2.42044 62.5958
5782646 16.771 19.5772 14.359 11.8886 0.134116 -2.42044 62.5958
5782654 17.1594 19.8593 13.8807 11.5554 0.149918 -2.78182 62.4549
5782669 17.6278 20.2677 13.6832 11.1366 0.0372261 -3.1274 62.7153
5782674 17.6278 20.2677 13.6832 11.1366 0.0372261 -3.1274 62.7153
5782684 18.0862 20.4914 13.392 10.7464 -0.0958413 -3.45347 62.716
5782694 18.4549 20.8318 13.0281 10.3275 -0.129165 -3.81475 62.6424
5782704 18.4549 20.8318 13.0281 10.3275 -0.129165 -3.81475 62.6424
5782717 18.9431 21.1138 12.685 9.94681 -0.226317 -4.16944 62.6888
5782738 19.2122 21.3278 12.3315 9.62318 -0.237103 -4.46086 62.4947
5782744 19.5709 21.6293 12.0612 9.43281 -0.227287 -4.71485 62.6942
5782754 19.5709 21.6293 12.0612 9.43281 -0.227287 -4.71485 62.6942
5782764 19.6905 21.7168 11.7388 9.1187 -0.238426 -4.95057 62.2649
5782774 20.0293 21.9211 11.5517 8.94737 -0.285259 -5.15248 62.4494
5782795 20.2884 22.0961 11.3333 8.70941 -0.326867 -5.36827 62.4272
5782808 20.2884 22.0961 11.3333 8.70941 -0.326867 -5.36827 62.4272
5782815 20.4877 22.1934 11.2398 8.51904 -0.406408 -5.50664 62.4398
5782830 20.7866 22.4073 11.0838 8.38578 -0.429806 -5.67899 62.6635
5782835 20.7866 22.4073 11.0838 8.38578 -0.429806 -5.67899 62.6635
5782845 21.0358 22.524 10.8862 8.23348 -0.46446 -5.84882 62.6795
5782855 21.2351 22.6505 10.7927 8.10974 -0.504678 -5.96845 62.7879
5782865 21.2351 22.6505 10.7927 8.10974 -0.504678 -5.96845 62.7879
5782875 21.3746 22.7963 10.6887 7.96697 -0.517274 -6.09183 62.8265
5782898 21.5539 22.8936 10.5015 7.76708 -0.555992 -6.26129 62.7161
5782905 21.7732 22.913 10.4495 7.729 -0.628589 -6.32492 62.8647
5782915 21.7732 22.913 10.4495 7.729 -0.628589 -6.32492 62.8647
5782927 21.9226 22.9811 10.2936 7.59574 -0.652675 -6.4532 62.7931
5782937 22.0223 23.0784 10.252 7.50056 -0.674321 -6.52666 62.8532
5782947 22.0223 23.0784 10.252 7.50056 -0.674321 -6.52666 62.8532
5782957 22.1717 23.0978 10.1168 7.41489 -0.70693 -6.62515 62.8013
5782966 22.1717 23.0978 10.1168 7.41489 -0.70693 -6.62515 62.8013
5782986 22.2614 23.0784 9.98165 7.32923 -0.732426 -6.71076 62.6507
5782989 22.4308 23.1659 9.85688 7.29115 -0.729404 -6.80105 62.7448
5782996 22.4308 23.1659 9.85688 7.29115 -0.729404 -6.80105 62.7448
5783006 22.5404 23.2243 9.80489 7.23404 -0.751166 -6.86085 62.8036
5783017 22.6401 23.3701 9.64893 7.18645 -0.689164 -6.96346 62.8456
5783028 22.6401 23.3701 9.64893 7.18645 -0.689164 -6.96346 62.8456
5783038 22.67 23.3021 9.57615 7.20549 -0.692625 -6.97738 62.7537
5783048 22.67 23.3021 9.57615 7.20549 -0.692625 -6.97738 62.7537
5783058 22.5803 23.2534 9.51376 7.13886 -0.680859 -7.005 62.4864
5783069 22.5205 23.2534 9.49297 7.17693 -0.633816 -6.99125 62.4438
5783078 22.5205 23.2534 9.49297 7.17693 -0.633816 -6.99125 62.4438
5783090 22.4807 23.2243 9.47217 7.17693 -0.622109 -6.98972 62.354
5783098 22.381 23.2826 9.50336 7.24356 -0.544061 -6.94995 62.4105
5783114 22.381 23.2826 9.50336 7.24356 -0.544061 -6.94995 62.4105
5783118 22.371 23.3021 9.47217 7.37682 -0.46557 -6.91534 62.5221
5783128 22.371 23.3021 9.47217 7.37682 -0.46557 -6.91534 62.5221
5783141 22.2714 23.2243 9.57615 7.49104 -0.452444 -6.81598 62.5628
5783149 22.0522 23.1854 9.54495 7.70045 -0.284605 -6.71994 62.4829
5783164 22.0522 23.1854 9.54495 7.70045 -0.284605 -6.71994 62.4829
5783168 21.9924 23.0978 9.63853 7.79563 -0.294864 -6.63486 62.5244
5783178 21.8329 23.0589 9.83609 8.07167 -0.214346 -6.44529 62.7996
5783189 21.8329 23.0589 9.83609 8.07167 -0.214346 -6.44529 62.7996
5783198 21.8429 23.0395 9.98165 8.16685 -0.245209 -6.36209 63.0309
5783218 21.6336 22.9811 10.0648 8.32867 -0.154223 -6.24234 63.0083
5783228 21.4642 22.8158 10.1792 8.50952 -0.12631 -6.09619 62.9688
5783238 21.4642 22.8158 10.1792 8.50952 -0.12631 -6.09619 62.9688
5783248 21.2151 22.6213 10.304 8.74748 -0.0597626 -5.9117 62.8879
5783258 20.8962 22.4073 10.4911 8.98544 0.00214577 -5.69296 62.7801
5783268 20.8962 22.4073 10.4911 8.98544 0.00214577 -5.69296 62.7801
5783278 20.6073 22.135 10.7823 9.24244 -0.00481009 -5.42903 62.767
5783300 20.2585 21.7557 11.0422 9.56607 0.00841618 -5.12738 62.6225
5783309 19.9097 21.2208 11.5517 10.0515 -0.0753492 -4.6691 62.7337
5783329 19.2421 20.7443 12.0404 10.5941 0.022313 -4.15643 62.6208
5783339 18.6841 20.2872 12.7162 11.2699 0.062266 -3.57031 62.9573
5783351 18.6841 20.2872 12.7162 11.2699 0.062266 -3.57031 62.9573
5783362 18.1161 19.8009 13.4856 11.9076 0.0421911 -2.96723 63.3102
5783369 18.1161 19.8009 13.4856 11.9076 0.0421911 -2.96723 63.3102
5783379 17.4086 19.1104 14.2031 12.7072 0.0811756 -2.27232 63.4292
5783389 16.6301 18.488 15.1076 13.5448 0.115681 -1.52083 63.7705
5783399 16.6301 18.488 15.1076 13.5448 0.115681 -1.52083 63.7705
5783409 15.8725 17.8072 16.0122 14.2968 0.085637 -0.790162 63.9887
5783419 15.1062 17.0778 17.0098 15.0392 0.000366569 -0.0315213 64.2331
5783440 14.5249 16.5395 17.7087 15.6293 -0.0251263 0.529561 64.4025
5783451 14.5249 16.5395 17.7087 15.6293 -0.0251263 0.529561 64.4025
5783463 13.8995 15.8028 18.2009 16.1338 -0.0639364 1.0851 64.037
5783470 13.2565 15.1398 18.6636 16.6478 -0.0519842 1.62818 63.7076
5783480 13.2565 15.1398 18.6636 16.6478 -0.0519842 1.62818 63.7076
5783491 12.7192 14.3754 19.3231 17.3312 -0.131623 2.24939 63.7489
5783500 12.0762 13.5558 20.1401 18.208 -0.176801 2.98128 63.9801
5783513 12.0762 13.5558 20.1401 18.208 -0.176801 2.98128 63.9801
5783520 11.4508 12.6901 21.0261 19.4355 -0.135894 3.78948 64.6025
5783540 10.7197 11.8797 21.8628 20.5754 -0.0489548 4.57552 65.0376
5783550 10.1119 11.0693 22.5321 21.5009 -0.0283137 5.25615 65.2143
5783560 10.1119 11.0693 22.5321 21.5009 -0.0283137 5.25615 65.2143
5783571 9.4601 10.3418 23.044 22.2802 0.0452727 5.87835 65.1262
5783582 8.80829 9.69718 23.7035 22.9427 0.0491351 6.4789 65.1517
5783601 8.20052 8.92362 24.3138 23.5662 -0.00944287 7.09706 65.0042
5783613 8.20052 8.92362 24.3138 23.5662 -0.00944287 7.09706 65.0042
5783625 7.63679 8.31582 24.8257 24.1312 -0.00594705 7.627 64.9095
5783635 7.13472 7.78169 25.2195 24.5989 0.0101864 8.08729 64.7347
5783647 7.13472 7.78169 25.2195 24.5989 0.0101864 8.08729 64.7347
5783653 6.66788 7.39491 25.5345 24.9983 0.0738651 8.46884 64.5955
5783663 6.35959 7.05417 25.8396 25.3003 0.0601292 8.76623 64.5536
5783674 6.35959 7.05417 25.8396 25.3003 0.0601292 8.76623 64.5536
5783683 6.13938 6.83315 25.9676 25.5536 0.108454 8.96568 64.4937
5783693 6.13938 6.83315 25.9676 25.5536 0.108454 8.96568 64.4937
5783703 5.92798 6.75027 26.1743 25.5828 0.089553 9.09722 64.4353
5783713 5.87513 6.74106 26.4007 25.8556 0.123635 9.1657 64.8725
5783736 5.80466 6.66739 26.5287 25.8458 0.0693589 9.23005 64.8466
5783744 5.70777 6.5753 26.696 26.0602 0.0890613 9.33431 65.0392
5783758 5.70777 6.5753 26.696 26.0602 0.0890613 9.33431 65.0392
5783764 5.57565 6.52925 26.9126 26.2063 0.0948042 9.43229 65.2238
5783781 5.57565 6.52925 26.9126 26.2063 0.0948042 9.43229 65.2238
5783784 5.45233 6.41874 27.0602 26.3232 0.087887 9.54241 65.2545
5783794 5.37306 6.29903 27.0602 26.2842 0.0576764 9.61426 65.0165
5783815 5.27617 6.23456 27.0898 26.2648 0.051415 9.67632 64.8652
5783827 5.18808 6.18852 27.139 26.2842 0.0562131 9.73304 64.7998
5783835 5.18808 6.18852 27.139 26.2842 0.0562131 9.73304 64.7998
5783849 5.22332 6.12405 27.1587 26.3037 0.0176698 9.74738 64.8098
5783855 5.13523 6.05038 27.2669 26.4304 0.0302792 9.8281 64.8829
5783865 5.13523 6.05038 27.2669 26.4304 0.0302792 9.8281 64.8829
5783875 5.06477 6.02275 27.4638 26.635 0.0495225 9.89731 65.1863
5783887 5.06477 6.02275 27.4638 26.635 0.0495225 9.89731 65.1863
5783897 4.96788 5.98592 27.513 26.6447 0.0574827 9.95306 65.1115
5783907 4.96788 5.82936 27.5819 26.7421 0.00831783 10.0259 65.1213
5783917 4.96788 5.82936 27.5819 26.7421 0.00831783 10.0259 65.1213
5783927 4.8886 5.88462 27.5622 26.7908 0.0862151 10.0374 65.1263
5783938 4.82694 5.81094 27.7099 26.8688 0.0547677 10.1065 65.2166
5783947 4.82694 5.81094 27.7099 26.8688 0.0547677 10.1065 65.2166
5783961 4.73005 5.79252 27.8477 26.9175 0.0506371 10.1648 65.2878
5783967 4.73005 5.79252 27.8477 26.9175 0.0506371 10.1648 65.2878
5783977 4.60674 5.63597 27.8871 27.0246 0.0640005 10.2838 65.1544
5783987 4.62435 5.60834 27.9068 27.0734 0.0577211 10.2926 65.2128
5783996 4.62435 5.60834 27.9068 27.0734 0.0577211 10.2926 65.2128
5784006 4.56269 5.58992 27.9658 27.0539 0.0442147 10.3266 65.1723
5784017 4.56269 5.58992 27.9658 27.0539 0.0442147 10.3266 65.1723
5784026 4.457 5.50704 27.9757 27.0149 0.0343561 10.398 64.9546
5784037 4.55389 5.58992 27.9658 26.859 -0.0272319 10.316 64.9687
5784047 4.55389 5.58992 27.9658 26.859 -0.0272319 10.316 64.9687
5784057 4.41295 5.50704 27.9265 26.9467 0.0441134 10.4069 64.7932
5784070 4.457 5.54388 28.0643 27.0734 0.0368297 10.394 65.1385
5784088 4.44819 5.53467 28.1824 27.161 0.0249207 10.4155 65.3263
5784099 4.44819 5.53467 28.1824 27.161 0.0249207 10.4155 65.3263
5784108 4.39534 5.47941 28.1824 27.1221 0.00910759 10.455 65.1792
5784118 4.42176 5.45179 28.1233 27.0441 -0.0189036 10.4459 65.041
5784128 4.42176 5.45179 28.1233 27.0441 -0.0189036 10.4459 65.041
5784138 4.37772 5.49783 28.1135 26.9759 -0.00671446 10.4396 64.965
5784148 4.43057 5.50704 28.084 26.8883 -0.0459254 10.407 64.9098
5784158 4.43057 5.50704 28.084 26.8883 -0.0459254 10.407 64.9098
5784187 4.44819 5.57151 28.0938 26.8103 -0.0616774 10.3701 64.9238
5784190 4.44819 5.57151 28.0741 26.7421 -0.0804648 10.3638 64.8359
5784201 4.51865 5.59913 28.1922 26.6739 -0.16844 10.3291 64.984
5784209 4.51865 5.59913 28.1922 26.6739 -0.16844 10.3291 64.984
5784221 4.58912 5.62676 28.1529 26.5083 -0.233869 10.276 64.8771
5784229 4.64197 5.70043 28.1922 26.2258 -0.35052 10.2089 64.7604
5784239 4.64197 5.70043 28.1922 26.2258 -0.35052 10.2089 64.7604
5784249 4.7829 5.8662 28.0446 25.651 -0.509089 10.035 64.3447
5784269 4.87979 6.15168 27.8477 25.2321 -0.523984 9.83797 64.1113
5784272 4.87979 6.15168 27.8477 25.2321 -0.523984 9.83797 64.1113
5784279 5.1 6.49242 27.6016 24.8327 -0.537488 9.56832 64.0267
5784292 5.1 6.49242 27.6016 24.8327 -0.537488 9.56832 64.0267
5784300 5.47876 6.92524 27.0996 24.4527 -0.46922 9.18165 63.9563
5784316 5.91036 7.42254 26.7058 23.9754 -0.4758 8.75158 64.0141
5784320 5.91036 7.42254 26.7058 23.9754 -0.4758 8.75158 64.0141
5784330 6.3772 7.92904 26.6862 23.7708 -0.526364 8.37297 64.7632
5784342 6.76477 7.92904 26.3416 23.3421 -0.712687 8.15267 64.3776
5784350 6.76477 8.38028 26.3416 23.3421 -0.53371 7.99152 64.8288
5784363 7.25803 8.89599 25.692 22.5628 -0.578816 7.47585 64.4087
5784370 7.25803 8.89599 25.692 22.5628 -0.578816 7.47585 64.4087
5784380 7.83057 9.49458 24.9635 21.7347 -0.611041 6.88179 64.0233
5784390 8.51762 10.13 24.0776 20.8676 -0.628048 6.20296 63.5928
5784403 8.51762 10.13 24.0776 20.8676 -0.628048 6.20296 63.5928
5784411 9.18705 10.9036 23.2212 19.9129 -0.629412 5.46704 63.2247
5784420 9.18705 10.9036 23.2212 19.9129 -0.629412 5.46704 63.2247
5784431 9.83005 11.4653 22.4337 19.192 -0.638278 4.84662 62.9211
5784441 10.5083 12.2021 21.7446 18.5295 -0.603864 4.18289 62.9845
5784462 11.1513 12.8835 21.2032 17.8768 -0.631474 3.57567 63.1149
5784474 11.7679 13.5742 20.5142 17.302 -0.556475 2.96258 63.1583
5784482 11.7679 13.5742 20.5142 17.302 -0.556475 2.96258 63.1583
5784495 12.4549 14.2741 19.835 16.5717 -0.571834 2.29924 63.1357
5784502 13.0979 14.928 19.1951 15.8292 -0.608993 1.66498 63.0502
5784512 13.0979 14.928 19.1951 15.8292 -0.608993 1.66498 63.0502
5784521 13.6881 15.591 18.5455 15.0297 -0.641507 1.02524 62.8542
5784532 13.6881 15.591 18.5455 15.0297 -0.641507 1.02524 62.8542
5784542 14.0756 16.1067 18.0828 14.5252 -0.60779 0.579459 62.7904
5784552 14.6218 16.5488 17.6497 14.1159 -0.638263 0.141826 62.9361
5784571 15.0622 16.8987 17.187 13.6209 -0.688861 -0.275513 62.7688
5784585 15.0622 16.8987 17.187 13.6209 -0.688861 -0.275513 62.7688
5784593 15.4674 17.3598 16.7089 13.1069 -0.682214 -0.721082 62.643
5784608 15.899 17.7391 16.2098 12.6025 -0.707422 -1.15912 62.4503
5784613 15.899 17.7391 16.2098 12.6025 -0.707422 -1.15912 62.4503
5784624 16.2337 18.2351 15.7315 12.0314 -0.682408 -1.61637 62.2317
5784633 16.7181 18.7506 15.274 11.6316 -0.645292 -2.05929 62.3743
5784643 16.7181 18.7506 15.274 11.6316 -0.645292 -2.05929 62.3743
5784655 17.0996 19.1785 14.9621 11.1557 -0.692186 -2.44257 62.3959
5784663 17.578 19.5481 14.5878 10.7844 -0.733317 -2.821 62.4982
5784678 17.578 19.5481 14.5878 10.7844 -0.733317 -2.821 62.4982
5784683 18.0264 19.9857 14.2239 10.4798 -0.71142 -3.18302 62.7158
5784704 18.2655 20.1705 13.8807 10.2419 -0.692913 -3.432 62.5586
5784714 18.5346 20.3261 13.756 9.94681 -0.806242 -3.63421 62.5634
5784737 18.7538 20.365 13.6208 9.8421 -0.865874 -3.75251 62.5817
5784749 18.9033 20.5595 13.548 9.80403 -0.83092 -3.8472 62.8148
5784754 18.9033 20.5595 13.548 9.80403 -0.83092 -3.8472 62.8148
5784764 19.1225 20.6178 13.4648 9.65174 -0.921838 -3.96706 62.8569
5784785 19.2321 20.5984 13.4024 9.53751 -0.995156 -4.03627 62.7705
5784794 19.3318 20.5984 13.3297 9.43281 -1.04886 -4.10759 62.6926
5784818 19.4513 20.6276 13.2985 9.36618 -1.09815 -4.1632 62.7436
5784825 19.551 20.6859 13.3401 9.3757 -1.12363 -4.17484 62.9527
5784842 19.551 20.6859 13.3401 9.3757 -1.12363 -4.17484 62.9527
5784845 19.6606 20.7054 13.2777 9.38522 -1.12952 -4.21309 63.0289
5784867 19.7304 20.8221 13.2049 9.28051 -1.1234 -4.29909 63.0379
5784877 19.83 20.8513 13.1633 9.28051 -1.13328 -4.33365 63.1251
5784891 19.83 20.8513 13.1633 9.28051 -1.13328 -4.33365 63.1251
5784904 19.8499 20.9291 13.0593 9.17581 -1.11261 -4.41422 63.0141
5784907 19.9695 21.0263 12.9865 9.02352 -1.15316 -4.52 63.0059
5784916 19.9695 21.0263 12.9865 9.02352 -1.15316 -4.52 63.0059
5784927 20.0791 21.0749 12.8514 8.99496 -1.13515 -4.59705 63.0004
5784939 20.0791 21.0749 12.8514 8.99496 -1.13515 -4.59705 63.0004
5784947 20.1589 21.1041 12.737 8.85218 -1.16923 -4.69525 62.8522
5784962 20.2685 21.1916 12.6954 8.69989 -1.22199 -4.78833 62.8554
5784978 20.3781 21.2695 12.6018 8.61422 -1.23133 -4.87519 62.8636
5784988 20.4279 21.2597 12.5187 8.54759 -1.25062 -4.92911 62.7539
5785008 20.5475 21.3084 12.3627 8.48096 -1.24437 -5.02688 62.6995
5785018 20.5475 21.3084 12.3627 8.48096 -1.24437 -5.02688 62.6995
5785028 20.5475 21.3278 12.3419 8.46193 -1.23632 -5.0427 62.6791
5785038 20.6571 21.4348 12.3315 8.49048 -1.21727 -5.07119 62.9139
5785050 20.6571 21.4348 12.3315 8.49048 -1.21727 -5.07119 62.9139
5785058 20.7667 21.5223 12.2899 8.41433 -1.23821 -5.13978 62.9933
5785071 20.8165 21.5709 12.2691 8.37626 -1.24477 -5.17399 63.0328
5785090 20.8763 21.6779 12.2275 8.29059 -1.24275 -5.24068 63.0724
5785121 21.0457 21.8141 12.0404 8.20493 -1.21507 -5.37544 63.1051
5785130 21.0457 21.8141 12.0404 8.20493 -1.21507 -5.37544 63.1051
5785141 21.0258 21.7752 11.9988 8.21445 -1.20408 -5.37682 63.0142
5785151 20.956 21.8043 12.0092 8.21445 -1.16951 -5.36726 62.984
5785167 20.956 21.8043 12.0092 8.21445 -1.16951 -5.36726 62.984
5785170 20.8863 21.746 11.9468 8.1383 -1.17542 -5.39257 62.7174
5785180 20.7866 21.6585 11.9572 8.243 -1.13431 -5.3264 62.6453
5785200 20.7966 21.532 12.0404 8.32867 -1.18675 -5.25369 62.6977
5785210 20.7966 21.532 12.0404 8.32867 -1.18675 -5.25369 62.6977
5785221 20.7069 21.4348 12.1028 8.42385 -1.17724 -5.17369 62.6683
5785230 20.6372 21.3473 12.3003 8.57615 -1.19871 -5.03683 62.8609
5785242 20.6372 21.3473 12.3003 8.57615 -1.19871 -5.03683 62.8609
5785250 20.4977 21.2792 12.4355 8.72844 -1.16201 -4.91246 62.9408
5785264 20.4977 21.2792 12.4355 8.72844 -1.16201 -4.91246 62.9408
5785270 20.3482 21.1333 12.5914 8.79507 -1.19745 -4.79456 62.868
5785280 20.2186 20.9874 12.8098 9.014 -1.20063 -4.61264 63.0298
5785301 19.9097 20.8124 12.9138 9.17581 -1.1285 -4.44962 62.8117
5785312 19.5012 20.5206 13.3713 9.34714 -1.19727 -4.13691 62.7402
5785332 19.0826 20.2483 13.7872 9.64222 -1.18678 -3.80055 62.7603
5785342 19.0826 20.2483 13.7872 9.64222 -1.18678 -3.80055 62.7603
5785351 18.6043 19.8593 14.3486 9.98488 -1.23764 -3.37518 62.7971
5785364 18.0662 19.4216 15.0141 10.4323 -1.28167 -2.87003 62.9342
5785375 18.0662 19.4216 15.0141 10.4323 -1.28167 -2.87003 62.9342
5785381 17.4982 18.984 15.7211 10.9653 -1.29418 -2.32612 63.1686
5785397 16.9736 18.6436 16.3034 11.5459 -1.21617 -1.83591 63.4664
5785413 16.5155 18.2935 16.8752 12.0694 -1.18733 -1.37977 63.7537
5785423 15.8725 17.5641 17.6005 12.7072 -1.25571 -0.736297 63.7442
5785433 15.8725 17.5641 17.6005 12.7072 -1.25571 -0.736297 63.7442
5785443 15.1238 16.8434 18.4076 13.6019 -1.20596 0.00990808 63.9768
5785453 15.1238 16.8434 18.4076 13.6019 -1.20596 0.00990808 63.9768
5785467 14.2694 15.9686 19.4019 14.6585 -1.18364 0.891697 64.2983
5785474 13.3886 15.0385 20.4453 15.8578 -1.13457 1.82512 64.7301
5785483 13.3886 15.0385 20.4453 15.8578 -1.13457 1.82512 64.7301
5785493 12.5694 14.0991 21.3607 16.8191 -1.16113 2.66267 64.8484
5785503 11.6622 13.2887 22.0203 17.5358 -1.10759 3.39618 64.507
5785515 11.6622 13.2887 22.0203 17.5358 -1.10759 3.39618 64.507
5785528 11.0104 12.7178 22.5715 17.9255 -1.14387 3.91643 64.2251
5785547 10.3938 12.2389 23.0243 18.286 -1.13118 4.38147 63.943
5785554 9.90933 11.6127 23.5559 18.9484 -1.13395 4.91571 64.0263
5785564 9.90933 11.6127 23.5559 18.9484 -1.13395 4.91571 64.0263
5785574 9.40725 11.1614 24.1071 19.6206 -1.06239 5.40288 64.2964
5785584 8.88756 10.6641 24.5206 20.3318 -0.936346 5.89264 64.4041
5785594 8.88756 10.6641 24.5206 20.3318 -0.936346 5.89264 64.4041
5785615 8.47358 10.2037 25.0324 21.043 -0.872298 6.3468 64.7527
5785617 8.47358 10.2037 25.0324 21.043 -0.872298 6.3468 64.7527
5785627 8.00674 9.79848 25.4557 21.6275 -0.784597 6.76808 64.8884
5785635 7.68964 9.38407 25.8691 22.1244 -0.787778 7.12796 65.0672
5785649 7.68964 9.38407 25.8691 22.1244 -0.787778 7.12796 65.0672
5785655 7.33731 8.97887 26.1152 22.6797 -0.688826 7.4823 65.1111
5785665 7.04663 8.6013 26.2924 23.0499 -0.649285 7.77679 64.9902
5785675 7.04663 8.6013 26.2924 23.0499 -0.649285 7.77679 64.9902
5785685 6.78238 8.32503 26.5287 23.2837 -0.655559 8.01873 64.9197
5785695 6.78238 8.32503 26.5287 23.2837 -0.655559 8.01873 64.9197
5785707 6.46528 7.9935 26.6862 23.459 -0.657436 8.28581 64.604
5785717 6.26269 7.7909 27.0208 23.761 -0.667694 8.49726 64.8355
5785725 6.26269 7.7909 27.0208 23.761 -0.667694 8.49726 64.8355
5785738 6.06891 7.5883 27.198 23.9266 -0.676115 8.67545 64.7819
5785745 5.83109 7.36728 27.3555 24.102 -0.664026 8.87603 64.6559
5785766 5.71658 7.25677 27.5622 24.2676 -0.676832 8.99412 64.8032
5785782 5.71658 7.25677 27.5622 24.2676 -0.676832 8.99412 64.8032
5785787 5.64611 7.12784 27.7591 24.4625 -0.698099 9.10392 64.9955
5785796 5.55803 7.05417 27.9658 24.5404 -0.740686 9.18957 65.1184
5785808 5.55803 7.05417 27.9658 24.5404 -0.740686 9.18957 65.1184
5785818 5.46995 6.90683 28.0347 24.6476 -0.749435 9.29283 65.0591
5785828 5.38187 6.76869 28.0544 24.7645 -0.732321 9.38942 64.9695
5785848 5.29378 6.66739 28.1726 24.8911 -0.733501 9.48157 65.0248
5785858 5.29378 6.66739 28.1726 24.8911 -0.733501 9.48157 65.0248
5785870 5.12642 6.55688 28.3301 25.0665 -0.704184 9.61432 65.0798
5785878 5.01192 6.40032 28.4876 25.4074 -0.647591 9.75759 65.3072
5785898 4.86218 6.29903 28.5663 25.6997 -0.546308 9.88231 65.4272
5785909 4.70363 6.04117 28.7829 26.0894 -0.516601 10.0875 65.6171
5785918 4.70363 6.04117 28.7829 26.0894 -0.516601 10.0875 65.6171
5785928 4.44819 5.89382 28.901 26.4401 -0.386414 10.2764 65.6831
5785938 4.44819 5.89382 28.901 26.4401 -0.386414 10.2764 65.6831
5785948 4.29845 5.65439 28.9797 26.7324 -0.339378 10.4529 65.6649
5785958 4.10466 5.52546 28.96 26.8298 -0.271113 10.5839 65.42
5785968 4.10466 5.52546 28.96 26.8298 -0.271113 10.5839 65.42
5785980 4.00777 5.36891 28.8616 26.9564 -0.208618 10.6852 65.1947
5785990 3.91969 5.23077 28.8222 26.9662 -0.209801 10.7727 64.9389
5786009 3.79637 5.19393 28.7533 26.9467 -0.158086 10.8308 64.6903
5786022 3.79637 5.19393 28.7533 26.9467 -0.158086 10.8308 64.6903
5786029 3.75233 5.21235 28.7238 27.1415 -0.0471383 10.8516 64.83
5786039 3.73471 5.09263 28.7829 27.3364 -0.0340849 10.9225 64.9466
5786049 3.73471 5.09263 28.7829 27.3364 -0.0340849 10.9225 64.9466
5786059 3.69948 5.10184 28.7238 27.4728 0.0582069 10.9377 64.9979
5786069 3.62902 5.10184 28.7041 27.4923 0.100487 10.9659 64.9272
5786079 3.62902 5.10184 28.7041 27.4923 0.100487 10.9659 64.9272
5786089 3.62902 5.08342 28.8025 27.5312 0.0703692 10.9817 65.0462
5786100 3.62902 5.08342 28.8025 27.5312 0.0703692 10.9817 65.0462
5786109 3.64663 5.0558 28.773 27.5897 0.0867695 10.9875 65.0651
5786120 3.64663 5.11105 28.8124 27.6871 0.12992 10.9739 65.2572
5786140 3.70829 5.10184 28.8518 27.7163 0.0987023 10.9573 65.3782
5786153 3.70829 5.12026 28.8715 27.6579 0.0758886 10.9476 65.3579
5786175 3.70829 5.12026 28.8715 27.6579 0.0758886 10.9476 65.3579
5786177 3.73471 5.13868 28.8715 27.5702 0.0393152 10.9243 65.315
5786181 3.73471 5.13868 28.8715 27.5702 0.0393152 10.9243 65.315
5786191 3.77876 5.19393 28.8124 27.4728 0.028947 10.8751 65.2579
5786202 3.78756 5.21235 28.8222 27.4338 0.0139296 10.8625 65.256
5786223 3.90207 5.19393 28.714 27.239 -0.0703812 10.805 65.0489
5786233 3.88446 5.24919 28.586 27.2195 -0.000680983 10.7805 64.9391
5786243 3.88446 5.24919 28.586 27.2195 -0.000680983 10.7805 64.9391
5786253 3.98135 5.34128 28.5958 27.0246 -0.0813246 10.6935 64.9431
5786263 4.05181 5.39653 28.5466 26.8298 -0.143497 10.6274 64.8248
5786273 4.05181 5.39653 28.5466 26.8298 -0.143497 10.6274 64.8248
5786283 4.06062 5.45179 28.3596 26.635 -0.129236 10.5761 64.507
5786304 4.07824 5.57151 28.2513 26.4888 -0.104524 10.5041 64.3899
5786314 4.28083 5.61755 28.1332 26.3817 -0.160991 10.3899 64.4132
5786326 4.28083 5.61755 28.1332 26.3817 -0.160991 10.3899 64.4132
5786334 4.50984 5.7649 28.0643 26.2842 -0.203095 10.2302 64.6233
5786346 4.71244 5.90303 28.0544 26.1576 -0.272353 10.0875 64.8275
5786368 5.04715 6.15168 27.9461 25.9822 -0.329886 9.84141 65.1272
5786374 5.04715 6.15168 27.9461 25.9822 -0.329886 9.84141 65.1272
5786384 5.21451 6.36349 27.6804 25.7874 -0.285953 9.66007 65.0458
5786394 5.49637 6.66739 27.2571 25.5146 -0.220013 9.38037 64.9355
5786404 5.49637 6.66739 27.2571 25.5146 -0.220013 9.38037 64.9355
5786418 5.8487 7.01733 26.7354 25.1249 -0.170651 9.03672 64.7263
5786427 6.18342 7.3857 26.2334 24.706 -0.125971 8.68961 64.5085
5786435 6.18342 7.3857 26.2334 24.706 -0.125971 8.68961 64.5085
5786446 6.53575 7.8922 25.7313 24.1312 -0.0947431 8.26746 64.2905
5786468 6.9057 8.43554 25.0816 23.4395 -0.0439495 7.7933 63.8624
5786475 7.41658 8.96045 24.4024 22.7479 -0.043565 7.26615 63.5273
5786497 7.95389 9.63272 23.7035 22.1731 0.0584453 6.68655 63.4632
5786507 8.42953 10.2589 22.9948 21.5398 0.148064 6.13213 63.2231
5786527 9.12539 10.9865 22.1876 21.0917 0.301757 5.48202 63.3911
5786537 9.69793 11.585 21.5773 20.5461 0.337487 4.93021 63.4064
5786547 9.69793 11.585 21.5773 20.5461 0.337487 4.93021 63.4064
5786558 10.3321 12.4967 20.8981 19.7862 0.414395 4.21695 63.5132
5786567 10.3321 12.4967 20.8981 19.7862 0.414395 4.21695 63.5132
5786580 10.9223 13.3164 20.209 18.9095 0.431877 3.52285 63.3571
5786587 11.3803 14.0899 19.5889 18.1983 0.521287 2.92067 63.2574
5786601 11.3803 14.0899 19.5889 18.1983 0.521287 2.92067 63.2574
5786607 12.0762 14.6977 18.9786 17.5456 0.469422 2.31055 63.298
5786618 12.0762 14.6977 18.9786 17.5456 0.469422 2.31055 63.298
5786628 12.5518 15.2871 18.2206 16.8667 0.548825 1.72784 62.9263
5786638 13.3005 15.9502 17.502 16.2861 0.56859 1.07968 63.0388
5786658 13.8642 16.6593 16.7297 15.5722 0.65164 0.424601 62.8254
5786669 14.3663 17.214 16.1786 14.9059 0.628337 -0.118668 62.6648
5786678 14.3663 17.214 16.1786 14.9059 0.628337 -0.118668 62.6648
5786693 14.7803 17.7975 15.6899 14.2777 0.641525 -0.625986 62.5454
5786699 14.7803 17.7975 15.6899 14.2777 0.641525 -0.625986 62.5454
5786708 15.1767 18.3227 15.326 13.6971 0.606608 -1.07392 62.5224
5786720 15.6171 18.77 15.0765 13.1736 0.498921 -1.46968 62.6371
5786729 15.6171 18.77 15.0765 13.1736 0.498921 -1.46968 62.6371
5786743 16.1016 19.2466 14.6606 12.6881 0.467566 -1.91384 62.6968
5786748 16.586 19.7037 14.2031 12.2217 0.452971 -2.35948 62.7145
5786758 16.586 19.7037 14.2031 12.2217 0.452971 -2.35948 62.7145
5786768 17.0299 20.258 13.6416 11.7363 0.527725 -2.85085 62.6658
5786792 17.4783 20.6567 13.1529 11.2604 0.513959 -3.29069 62.5483
5786799 17.9566 21.1625 12.7162 10.6988 0.475103 -3.76694 62.5341
5786809 17.9566 21.1625 12.7162 10.6988 0.475103 -3.76694 62.5341
5786824 18.3751 21.5126 12.2691 10.2228 0.437307 -4.18304 62.3797
5786834 18.7538 21.7557 11.8844 9.78499 0.362867 -4.54498 62.1789
5786845 18.7538 21.7557 11.8844 9.78499 0.362867 -4.54498 62.1789
5786849 19.1524 22.1253 11.6453 9.46137 0.316182 -4.85003 62.3843
5786859 19.1524 22.1253 11.6453 9.46137 0.316182 -4.85003 62.3843
5786870 19.6706 22.3003 11.4269 9.09966 0.121012 -5.14685 62.4975
5786879 19.9396 22.5727 11.1462 8.81411 0.120437 -5.41485 62.4726
5786899 20.3083 22.845 10.8758 8.51904 0.0718802 -5.69763 62.5482
5786912 20.5475 22.9519 10.6471 8.30011 0.0230134 -5.89757 62.4466
5786935 20.8365 23.1756 10.4599 8.08119 -0.0158191 -6.10783 62.5532
5786941 20.8365 23.1756 10.4599 8.08119 -0.0158191 -6.10783 62.5532
5786950 21.1055 23.2048 10.2832 7.90985 -0.109607 -6.26781 62.5034
5786961 21.3646 23.4285 10.1584 7.75756 -0.134332 -6.429 62.7091
5786970 21.3646 23.4285 10.1584 7.75756 -0.134332 -6.429 62.7091
5786980 21.7333 23.5549 10.044 7.45297 -0.30638 -6.63959 62.7852
5786990 21.9226 23.5841 9.7737 7.35778 -0.301115 -6.79503 62.6382
5787004 21.9226 23.5841 9.7737 7.35778 -0.301115 -6.79503 62.6382
5787010 22.2714 23.7786 9.72171 7.11982 -0.435147 -6.96639 62.8915
5787020 22.2714 23.7786 9.72171 7.11982 -0.435147 -6.96639 62.8915
5787033 22.5205 23.7689 9.63853 6.94849 -0.573218 -7.08589 62.8764
5787041 22.8792 23.9537 9.46177 6.78667 -0.634374 -7.27262 63.0814
5787062 23.0785 23.8953 9.32661 6.68197 -0.725549 -7.37474 62.9824
5787073 23.1383 23.9245 9.13945 6.52968 -0.726753 -7.50663 62.7319
5787092 23.228 23.7786 9.12905 6.43449 -0.856628 -7.53788 62.5702
5787102 23.228 23.7786 9.12905 6.43449 -0.856628 -7.53788 62.5702
5787112 23.3177 23.6522 9.04587 6.24412 -0.990719 -7.6325 62.2599
5787122 23.4672 23.5063 8.99388 6.1299 -1.13727 -7.6935 62.0972
5787132 23.4672 23.5063 8.99388 6.1299 -1.13727 -7.6935 62.0972
5787143 23.517 23.4674 9.01468 6.06327 -1.20887 -7.71155 62.0623
5787153 23.4871 23.3701 9.02508 6.01568 -1.26271 -7.71022 61.898
5787173 23.4771 23.2826 9.13945 6.14894 -1.2833 -7.60813 62.0481
5787183 23.4771 23.2826 9.13945 6.14894 -1.2833 -7.60813 62.0481
5787193 23.4971 23.1951 9.26422 6.06327 -1.41203 -7.58582 62.0196
5787203 23.4871 23.2437 9.48257 6.30123 -1.36957 -7.42555 62.5146
5787223 23.4871 23.1076 9.64893 6.39642 -1.44958 -7.31545 62.64
5787234 23.4074 23.1076 9.88807 6.54871 -1.44523 -7.16696 62.9517
5787256 23.3376 23.0686 10.0544 6.7486 -1.41388 -7.02505 63.2093
5787264 23.1981 23.0395 10.3144 6.87234 -1.41928 -6.8706 63.4243
5787279 23.1981 23.0395 10.3144 6.87234 -1.41928 -6.8706 63.4243
5787285 22.9091 22.9422 10.3768 6.98656 -1.32767 -6.75983 63.2147
5787294 22.9091 22.9422 10.3768 6.98656 -1.32767 -6.75983 63.2147
5787304 22.6501 22.7477 10.5535 7.16741 -1.30249 -6.57733 63.1187
5787314 22.3511 22.5532 10.7303 7.33875 -1.26619 -6.39206 62.9733
5787324 22.3511 22.5532 10.7303 7.33875 -1.26619 -6.39206 62.9733
5787334 22.1518 22.3781 10.9694 7.44345 -1.31057 -6.224 62.9428
5787348 22.1518 22.3781 10.9694 7.44345 -1.31057 -6.224 62.9428
5787356 21.9326 22.2614 11.1878 7.66237 -1.26758 -6.03003 63.0442
5787364 21.6835 21.9113 11.3645 7.92889 -1.27519 -5.79633 62.8882
5787374 21.6835 21.9113 11.3645 7.92889 -1.27519 -5.79633 62.8882
5787384 21.3945 21.5709 11.6869 8.12878 -1.34659 -5.53108 62.7811
5787394 21.0258 21.1527 12.0196 8.45241 -1.37278 -5.19706 62.6505
5787415 20.7966 20.7346 12.4251 8.89978 -1.42681 -4.82205 62.856
5787424 20.7966 20.7346 12.4251 8.89978 -1.42681 -4.82205 62.856
5787437 20.2884 20.3164 12.9554 9.40425 -1.39886 -4.34654 62.9644
5787463 19.7403 19.7037 13.6832 9.98488 -1.4795 -3.7495 63.1121
5787467 19.7403 19.7037 13.6832 9.98488 -1.4795 -3.7495 63.1121
5787475 18.2954 18.5561 15.3156 11.3936 -1.4401 -2.39353 63.5607
5787485 18.2954 18.5561 15.3156 11.3936 -1.4401 -2.39353 63.5607
5787495 17.1594 17.7294 16.345 12.2503 -1.38803 -1.48705 63.4841
5787506 17.1594 17.7294 16.345 12.2503 -1.38803 -1.48705 63.4841
5787515 16.1456 16.825 17.6398 13.4306 -1.37796 -0.445078 64.041
5787529 15.1415 15.8765 19.0475 14.6394 -1.41915 0.618721 64.7048
5787535 15.1415 15.8765 19.0475 14.6394 -1.41915 0.618721 64.7048
5787545 14.2166 15.0016 20.0712 15.6103 -1.41598 1.49384 64.8997
5787555 13.3974 14.1636 20.78 16.467 -1.3682 2.24184 64.8079
5787565 13.3974 14.1636 20.78 16.467 -1.3682 2.24184 64.8079
5787575 12.5782 13.3164 21.3804 17.1656 -1.3488 2.94491 64.4406
5787585 12.5782 13.3164 21.3804 17.1656 -1.3488 2.94491 64.4406
5787599 11.8471 12.6625 21.912 17.7696 -1.29573 3.54533 64.1913
5787605 11.1777 12.2205 22.6109 18.4613 -1.20474 4.11212 64.4704
5787615 11.1777 12.2205 22.6109 18.4613 -1.20474 4.11212 64.4704
5787625 10.6052 11.7784 23.044 18.9874 -1.11906 4.57528 64.415
5787635 9.97098 11.2811 23.6248 19.5719 -1.06391 5.10744 64.4488
5787647 9.97098 11.2811 23.6248 19.5719 -1.06391 5.10744 64.4488
5787655 9.55699 10.8667 24.0776 20.1662 -1.00578 5.5252 64.6675
5787675 9.00207 10.5813 24.3434 20.6143 -0.832748 5.89726 64.541
5787685 8.62332 10.1484 24.6781 21.0138 -0.829612 6.26402 64.4636
5787695 8.62332 10.1484 24.6781 21.0138 -0.829612 6.26402 64.4636
5787705 8.20933 9.82611 24.9832 21.3158 -0.796877 6.58983 64.3344
5787726 7.94508 9.52221 25.0816 21.5106 -0.778151 6.81982 64.0595
5787742 7.80414 9.35645 25.1998 21.7834 -0.726525 6.974 64.1437
5787746 7.80414 9.35645 25.1998 21.7834 -0.726525 6.974 64.1437
5787758 7.60155 9.1078 25.3966 22.0172 -0.730313 7.18254 64.1232
5787767 7.40777 8.9052 25.6723 22.4458 -0.670871 7.40445 64.4311
5787778 7.40777 8.9052 25.6723 22.4458 -0.670871 7.40445 64.4311
5787791 7.30207 8.67497 25.8396 22.8063 -0.642343 7.58296 64.623
5787807 7.12591 8.46316 25.9873 23.0206 -0.630593 7.76015 64.597
5787817 7.04663 8.40791 26.0463 23.2447 -0.556155 7.83911 64.7456
5787827 7.04663 8.40791 26.0463 23.2447 -0.556155 7.83911 64.7456
5787839 6.98497 8.21452 26.0463 23.3616 -0.563082 7.94222 64.6074
5787847 6.87927 8.15926 26.1546 23.5077 -0.528152 8.02705 64.7009
5787862 6.87927 8.15926 26.1546 23.5077 -0.528152 8.02705 64.7009
5787867 6.78238 7.96587 26.2038 23.839 -0.455837 8.17116 64.791
5787889 6.59741 7.87378 26.2432 24.0046 -0.371699 8.29199 64.719
5787898 6.42124 7.70802 26.4105 24.2871 -0.32265 8.46139 64.8269
5787912 6.42124 7.70802 26.4105 24.2871 -0.32265 8.46139 64.8269
5787918 6.33316 7.5883 26.4204 24.4332 -0.28252 8.5524 64.7751
5787928 6.22746 7.47779 26.4401 24.5112 -0.262374 8.64089 64.6565
5787938 6.22746 7.47779 26.4401 24.5112 -0.262374 8.64089 64.6565
5787948 6.20984 7.47779 26.3318 24.5696 -0.191292 8.64244 64.5891
5787958 6.20984 7.47779 26.3318 24.5696 -0.191292 8.64244 64.5891
5787968 6.13057 7.41333 26.3909 24.7158 -0.151713 8.71518 64.6505
5787983 6.08653 7.37649 26.4204 24.8814 -0.0961319 8.76373 64.7648
5787999 5.98083 7.30282 26.6271 25.0275 -0.10687 8.86326 64.9382
5788010 5.9544 7.22914 26.7452 25.2613 -0.0802144 8.93303 65.1901
5788019 5.9544 7.22914 26.7452 25.2613 -0.0802144 8.93303 65.1901
5788032 5.86632 7.14626 26.8732 25.3685 -0.0861123 9.01759 65.2543
5788039 5.86632 7.14626 26.8732 25.3685 -0.0861123 9.01759 65.2543
5788055 5.76062 7.09101 27.011 25.4562 -0.0859082 9.09743 65.3188
5788060 5.64611 7.01733 27.1291 25.6413 -0.0445664 9.19408 65.4338
5788069 5.64611 7.01733 27.1291 25.6413 -0.0445664 9.19408 65.4338
5788079 5.57565 6.8792 27.0602 25.6607 -0.0367969 9.26711 65.1758
5788089 5.49637 6.85157 27.0405 25.6218 -0.0244424 9.30185 65.0103
5788105 5.49637 6.85157 27.0405 25.6218 -0.0244424 9.30185 65.0103
5788109 5.44352 6.7779 27.011 25.6705 -0.0023663 9.35091 64.9029
5788119 5.44352 6.7779 27.011 25.6705 -0.0023663 9.35091 64.9029
5788129 5.3114 6.70423 26.9815 25.7971 0.0804394 9.43671 64.7942
5788139 5.30259 6.70423 26.9618 25.8458 0.110197 9.44253 64.8144
5788160 5.24093 6.64897 27.0307 25.9627 0.131041 9.50248 64.8833
5788172 5.17047 6.59372 27.1587 26.1186 0.147298 9.57384 65.0415
5788179 5.17047 6.59372 27.1587 26.1186 0.147298 9.57384 65.0415
5788197 5.06477 6.53846 27.2866 26.2453 0.165939 9.65577 65.1351
5788210 5.02073 6.46479 27.326 26.1771 0.113538 9.69806 64.9886
5788220 4.9943 6.45558 27.3457 26.3135 0.164747 9.72429 65.109
5788230 4.9943 6.45558 27.3457 26.3135 0.164747 9.72429 65.109
5788246 4.95907 6.30823 27.3555 26.4693 0.177816 9.80707 65.0922
5788250 4.83575 6.26219 27.3949 26.4986 0.203913 9.8772 64.9914
5788275 4.86218 6.22535 27.4441 26.5862 0.193995 9.89194 65.1179
5788281 4.86218 6.22535 27.4441 26.5862 0.193995 9.89194 65.1179
5788293 4.76529 6.19772 27.4146 26.635 0.251028 9.94113 65.0126
5788302 4.73886 6.17931 27.4146 26.6739 0.269121 9.96136 65.0067
5788310 4.73886 6.17931 27.4146 26.6739 0.269121 9.96136 65.0067
5788320 4.77409 6.18852 27.4146 26.7129 0.273743 9.94734 65.0901
5788330 4.71244 6.09642 27.5524 26.8103 0.246236 10.0244 65.1716
5788341 4.71244 6.09642 27.5524 26.8103 0.246236 10.0244 65.1716
5788350 4.6772 6.0688 27.4737 26.7713 0.265148 10.0396 64.991
5788372 4.68601 6.12405 27.3949 26.6252 0.25773 9.99767 64.8302
5788380 4.64197 6.07801 27.4244 26.635 0.249523 10.0355 64.7794
5788402 4.64197 6.05038 27.3851 26.596 0.239411 10.0401 64.6734
5788413 4.58912 6.00433 27.4244 26.5862 0.223294 10.0808 64.6041
5788422 4.58912 6.00433 27.4244 26.5862 0.223294 10.0808 64.6041
5788434 4.73005 6.02275 27.3949 26.4596 0.138295 10.007 64.6073
5788442 4.73005 6.02275 27.3949 26.4596 0.138295 10.007 64.6073
5788457 4.72124 6.19772 27.3851 26.1868 0.107858 9.92069 64.4909
5788462 4.91503 6.40032 27.2374 25.8556 0.0401676 9.72956 64.4083
5788483 5.12642 6.68581 26.8732 25.5828 0.104639 9.48613 64.2682
5788493 5.33782 6.94366 26.8043 25.4464 0.0960648 9.29053 64.5322
5788506 5.33782 6.94366 26.8043 25.4464 0.0960648 9.29053 64.5322
5788515 5.46114 7.25677 26.6862 25.1931 0.117105 9.09359 64.5972
5788523 5.46114 7.25677 26.6862 25.1931 0.117105 9.09359 64.5972
5788533 5.69896 7.52384 26.3613 24.8911 0.13752 8.8475 64.4752
5788543 5.97202 7.92904 25.8888 24.3748 0.172594 8.5006 64.1647
5788555 5.97202 7.92904 25.8888 24.3748 0.172594 8.5006 64.1647
5788564 6.41244 8.42633 25.2195 23.6734 0.183499 8.01503 63.7316
5788578 7.00259 8.96966 24.4713 23.1181 0.241414 7.46137 63.5616
5788584 7.00259 8.96966 24.4713 23.1181 0.241414 7.46137 63.5616
5788594 7.71606 9.54984 23.802 22.7089 0.290346 6.87828 63.7767
5788604 7.71606 9.54984 23.802 22.7089 0.290346 6.87828 63.7767
5788617 8.2886 9.93662 23.2409 22.1828 0.231719 6.4098 63.6489
5788624 8.82591 10.3694 22.8176 21.6567 0.15026 5.9555 63.6697
5788645 9.2399 10.8207 22.286 21.1794 0.186586 5.52644 63.526
5788654 9.81244 11.2627 21.8332 20.663 0.110149 5.05442 63.5714
5788670 9.81244 11.2627 21.8332 20.663 0.110149 5.05442 63.5714
5788677 10.2881 11.7784 21.3804 20.1954 0.119942 4.59819 63.6424
5788685 10.2881 11.7784 21.3804 20.1954 0.119942 4.59819 63.6424
5788701 10.7813 12.2573 20.9572 19.7083 0.0891328 4.15047 63.7041
5788704 11.2394 12.6994 20.4847 19.2797 0.100061 3.72641 63.703
5788714 11.2394 12.6994 20.4847 19.2797 0.100061 3.72641 63.703
5788733 11.5301 12.948 20.0318 18.7731 0.0628769 3.39591 63.283
5788759 11.8736 13.1874 19.8153 18.4905 -0.004296 3.13527 63.3668
5788762 11.8736 13.1874 19.8153 18.4905 -0.004296 3.13527 63.3668
5788764 12.1554 13.5098 19.4019 18.0814 0.0133932 2.80721 63.1484
5788766 12.1554 13.5098 19.4019 18.0814 0.0133932 2.80721 63.1484
5788788 12.4813 13.8505 19.0278 17.6235 -0.0139549 2.45767 62.9831
5788790 12.8249 14.2096 18.6734 17.1072 -0.0722289 2.08853 62.8151
5788814 13.1684 14.5228 18.3781 16.724 -0.119357 1.77032 62.7932
5788817 13.5207 14.9095 18.132 16.467 -0.10957 1.46806 63.0292
5788828 13.5207 14.9095 18.132 16.467 -0.10957 1.46806 63.0292
5788838 13.9347 15.2503 17.9155 16.1338 -0.184272 1.15387 63.2343
5788847 14.287 15.591 17.4233 15.696 -0.168002 0.771747 62.9973
5788864 14.287 15.591 17.4233 15.696 -0.168002 0.771747 62.9973
5788866 14.7979 16.0791 17.0492 15.1915 -0.228371 0.324081 63.1177
5788877 14.7979 16.0791 17.0492 15.1915 -0.228371 0.324081 63.1177
5788888 15.2207 16.5488 16.4489 14.6489 -0.187683 -0.160245 62.8673
5788896 15.6435 16.9632 16.033 14.0588 -0.261009 -0.601657 62.6985
5788913 15.6435 16.9632 16.033 14.0588 -0.261009 -0.601657 62.6985
5788916 15.9959 17.4376 15.6587 13.4591 -0.302871 -1.03491 62.5513
5788928 15.9959 17.4376 15.6587 13.4591 -0.302871 -1.03491 62.5513
5788939 16.4275 17.8364 15.2324 12.8595 -0.386505 -1.4847 62.3557
5788948 16.8591 18.3227 14.9205 12.4502 -0.402358 -1.87309 62.5524
5788965 16.8591 18.3227 14.9205 12.4502 -0.402358 -1.87309 62.5524
5788968 17.3089 18.6144 14.619 11.9647 -0.539431 -2.24126 62.507
5788978 17.7573 18.9062 14.3174 11.5935 -0.629282 -2.57755 62.5744
5788989 17.7573 18.9062 14.3174 11.5935 -0.629282 -2.57755 62.5744
5788998 18.2855 19.266 14.0575 11.2223 -0.737952 -2.92968 62.8313
5789012 18.2855 19.266 14.0575 11.2223 -0.737952 -2.92968 62.8313
5789018 18.6342 19.6259 13.6936 10.7654 -0.771916 -3.3007 62.7191
5789035 19.0727 19.976 13.4024 10.4227 -0.825635 -3.63191 62.8738
5789039 19.0727 19.976 13.4024 10.4227 -0.825635 -3.63191 62.8738
5789048 19.4912 20.2094 13.1217 10.1562 -0.892098 -3.91149 62.9785
5789059 19.7304 20.4039 12.8202 9.78499 -0.94106 -4.19092 62.7394
5789083 20.0492 20.5984 12.4875 9.46137 -0.989248 -4.4808 62.5965
5789089 20.0492 20.5984 12.4875 9.46137 -0.989248 -4.4808 62.5965
5789099 20.3083 20.8026 12.2275 9.09015 -1.05844 -4.75582 62.4286
5789109 20.5973 20.9874 11.9676 8.91881 -1.06395 -4.96989 62.4711
5789119 20.5973 20.9874 11.9676 8.91881 -1.06395 -4.96989 62.4711
5789132 20.8962 21.25 11.822 8.64278 -1.12819 -5.19432 62.611
5789140 21.2251 21.4931 11.6349 8.44289 -1.16406 -5.4081 62.796
5789149 21.2251 21.4931 11.6349 8.44289 -1.16406 -5.4081 62.796
5789160 21.5539 21.6974 11.3437 8.25252 -1.17259 -5.64582 62.8475
5789170 21.7333 21.8822 11.0838 8.01456 -1.16417 -5.86404 62.7138
5789186 21.7333 21.8822 11.0838 8.01456 -1.16417 -5.86404 62.7138
5789190 21.9027 22.0767 10.8343 7.91937 -1.09229 -6.03169 62.733
5789201 21.9027 22.0767 10.8343 7.91937 -1.09229 -6.03169 62.733
5789214 22.102 22.2517 10.7407 7.729 -1.13889 -6.18019 62.8234
5789220 22.2315 22.3587 10.5847 7.61478 -1.13186 -6.30455 62.7897
5789230 22.2315 22.3587 10.5847 7.61478 -1.13186 -6.30455 62.7897
5789242 22.3013 22.5435 10.356 7.5196 -1.03402 -6.44987 62.7203
5789264 22.2614 22.5143 10.2104 7.37682 -1.03455 -6.53958 62.3629
5789270 22.2714 22.4949 10.1792 7.33875 -1.05043 -6.56225 62.2842
5789280 22.2714 22.4949 10.1792 7.33875 -1.05043 -6.56225 62.2842
5789290 22.2913 22.524 10.2728 7.31019 -1.09373 -6.54642 62.3983
5789300 22.3113 22.5629 10.3664 7.31971 -1.11691 -6.51886 62.5603
5789312 22.3113 22.5629 10.3664 7.31971 -1.11691 -6.51886 62.5603
5789320 22.371 22.631 10.4183 7.46249 -1.0718 -6.46946 62.8829
5789340 22.3312 22.5824 10.4599 7.44345 -1.10054 -6.44973 62.817
5789350 22.2814 22.6018 10.5015 7.55767 -1.04198 -6.39251 62.9424
5789381 22.1717 22.5046 10.5431 7.63382 -1.0248 -6.32411 62.8533
5789386 22.0721 22.5046 10.5639 7.71948 -0.959255 -6.27424 62.8601
5789391 22.0721 22.5046 10.5639 7.71948 -0.959255 -6.27424 62.8601
5789405 21.8927 22.3198 10.6575 7.82419 -0.959516 -6.15627 62.6942
5789412 21.8927 22.3198 10.6575 7.82419 -0.959516 -6.15627 62.6942
5789428 21.6137 22.2225 10.7823 8.01456 -0.861718 -5.9967 62.6331
5789432 21.4543 22.0961 10.9486 8.19541 -0.841933 -5.83936 62.6944
5789452 21.1952 21.9891 11.1254 8.42385 -0.760196 -5.6513 62.7336
5789463 20.966 21.8433 11.2398 8.67133 -0.674091 -5.47625 62.7203
5789483 20.5475 21.5223 11.6453 8.95689 -0.683537 -5.1381 62.6719
5789506 20.5475 21.5223 11.6453 8.95689 -0.683537 -5.1381 62.6719
5789508 20.0692 21.2111 11.9988 9.41377 -0.575455 -4.75359 62.6928
5789513 19.5709 20.8707 12.4979 9.79451 -0.559331 -4.33958 62.734
5789523 19.5709 20.8707 12.4979 9.79451 -0.559331 -4.33958 62.734
5789533 19.0328 20.5692 13.0801 10.3466 -0.474839 -3.84951 63.0288
5789544 18.5147 20.1608 13.6208 10.8606 -0.441009 -3.37114 63.1568
5789567 18.0064 19.7426 14.2239 11.4222 -0.420208 -2.86371 63.395
5789573 18.0064 19.7426 14.2239 11.4222 -0.420208 -2.86371 63.395
5789588 17.5182 19.2466 14.8061 12.0123 -0.418901 -2.34645 63.5832
5789593 17.0897 18.7797 15.3468 12.6691 -0.386487 -1.84398 63.8853
5789614 16.5244 18.2254 15.8563 13.2973 -0.335629 -1.31359 63.9033
5789624 16.0135 17.6419 16.5009 13.8303 -0.40718 -0.779244 63.9866
5789634 16.0135 17.6419 16.5009 13.8303 -0.40718 -0.779244 63.9866
5789644 15.6083 17.3015 17.0492 14.3539 -0.389564 -0.351413 64.3129
5789657 15.6083 17.3015 17.0492 14.3539 -0.389564 -0.351413 64.3129
5789665 15.1062 16.8895 17.443 14.6394 -0.398061 0.0202882 64.0781
5789674 14.7451 16.4935 17.7481 14.8869 -0.435546 0.327939 63.8736
5789684 14.7451 16.4935 17.7481 14.8869 -0.435546 0.327939 63.8736
5789694 14.3399 16.1343 17.945 15.2581 -0.350368 0.64282 63.6773
5789706 13.9171 15.6278 18.2797 15.7055 -0.339775 1.04838 63.5301
5789715 13.9171 15.6278 18.2797 15.7055 -0.339775 1.04838 63.5301
5789729 13.4767 15.1213 18.8309 16.2861 -0.353192 1.53473 63.7151
5789735 12.9218 14.5596 19.3723 16.9524 -0.30643 2.07897 63.8061
5789745 12.9218 14.5596 19.3723 16.9524 -0.30643 2.07897 63.8061
5789755 12.4637 14.0531 19.9137 17.4871 -0.327475 2.55423 63.9176
5789768 12.4637 14.0531 19.9137 17.4871 -0.327475 2.55423 63.9176
5789776 11.9617 13.7952 20.3272 17.7307 -0.298882 2.8914 63.8147
5789785 11.5124 13.4821 20.7701 18.0424 -0.297 3.24838 63.8071
5789805 10.9663 13.0953 21.41 18.5003 -0.305077 3.71614 63.9719
5789821 12.499 13.0953 21.9514 18.5003 -1.08057 3.37432 66.046
5789825 10.244 12.7086 21.9514 18.9874 -0.19543 4.22267 63.8914
5789835 9.82124 12.3862 22.4632 19.5622 -0.130798 4.62798 64.2329
5789845 9.82124 12.3862 22.4632 19.5622 -0.130798 4.62798 64.2329
5789855 9.28394 11.9534 23.0046 20.0493 -0.111163 5.09009 64.2913
5789868 8.82591 11.5482 23.6051 20.6825 -0.0774279 5.54737 64.6617
5789877 8.82591 11.5482 23.6051 20.6825 -0.0774279 5.54737 64.6617
5789885 8.32383 11.0233 24.2745 21.4619 -0.0434488 6.08201 65.0835
5789897 8.32383 11.0233 24.2745 21.4619 -0.0434488 6.08201 65.0835
5789907 7.8658 10.351 24.8848 22.1341 -0.101727 6.62261 65.2357
5789917 7.4342 9.79848 25.249 22.8355 -0.0188231 7.08508 65.3172
5789926 7.4342 9.79848 25.249 22.8355 -0.0188231 7.08508 65.3172
5789938 7.05544 9.22752 25.5345 23.4201 0.0221044 7.51214 65.2375
5789946 6.70311 8.71181 25.938 23.9656 0.0138849 7.92012 65.3186
5789962 6.70311 8.71181 25.938 23.9656 0.0138849 7.92012 65.3186
5789967 6.34197 8.12243 26.3909 24.5307 -0.0304893 8.36352 65.3859
5789977 6.34197 8.12243 26.3909 24.5307 -0.0304893 8.36352 65.3859
5789988 5.86632 7.52384 26.824 24.9009 -0.101975 8.83084 65.115
5789998 5.50518 7.14626 27.0701 25.3685 -0.0232369 9.16895 65.09
5790009 5.50518 7.14626 27.0701 25.3685 -0.0232369 9.16895 65.09
5790018 5.25855 6.74106 27.3162 25.5828 -0.0966251 9.45306 64.8986
5790032 4.97668 6.50163 27.4737 25.8264 -0.0472203 9.68419 64.7783
5790047 4.83575 6.28982 27.6804 25.8946 -0.128186 9.84135 64.7005
5790068 4.68601 6.01354 27.7788 26.0699 -0.147705 10.0272 64.5483
5790080 4.65078 5.93987 27.8674 26.2648 -0.121114 10.0911 64.7228
5790103 4.5715 5.74648 28.0151 26.3914 -0.173303 10.2176 64.7244
5790126 4.48342 5.70964 28.2513 26.6447 -0.146103 10.3019 65.0891
5790128 4.39534 5.65439 28.2021 26.8103 -0.0509948 10.3661 65.0621
5790148 4.39534 5.65439 28.2021 26.8103 -0.0509948 10.3661 65.0621
5790151 4.33368 5.55309 28.2119 26.9077 -0.0326037 10.4373 65.0064
5790158 4.30725 5.51625 28.2611 26.9272 -0.0480413 10.4669 65.0119
5790173 4.30725 5.51625 28.2611 26.9272 -0.0480413 10.4669 65.0119
5790178 4.26321 5.50704 28.2513 27.1805 0.0663489 10.5046 65.2021
5790188 4.19275 5.47021 28.2513 27.3266 0.135192 10.5566 65.2409
5790198 4.19275 5.47021 28.2513 27.3266 0.135192 10.5566 65.2409
5790209 4.20155 5.48862 28.1135 27.4241 0.229064 10.5432 65.2277
5790218 4.20155 5.48862 28.1135 27.4241 0.229064 10.5432 65.2277
5790228 4.06943 5.42416 28.1529 27.5994 0.307027 10.6349 65.2459
5790239 4.10466 5.36891 27.9954 27.5702 0.322527 10.6302 65.0391
5790249 4.10466 5.36891 27.9954 27.5702 0.322527 10.6302 65.0391
5790260 4.00777 5.461 27.828 27.541 0.449648 10.6189 64.8378
5790269 4.08705 5.58072 27.7394 27.5312 0.494877 10.5337 64.9384
5790283 4.08705 5.58072 27.7394 27.5312 0.494877 10.5337 64.9384
5790289 4.11347 5.59913 27.6804 27.5799 0.533006 10.5154 64.9729
5790299 4.11347 5.59913 27.6804 27.5799 0.533006 10.5154 64.9729
5790313 4.17513 5.59913 27.5622 27.5312 0.536859 10.4796 64.8677
5790319 4.19275 5.60834 27.4146 27.6481 0.635615 10.4669 64.8638
5790334 4.19275 5.60834 27.4146 27.6481 0.635615 10.4669 64.8638
5790339 4.31606 5.74648 27.2669 27.7163 0.722498 10.359 65.0458
5790349 4.28964 5.81094 27.2472 27.804 0.797397 10.3491 65.1518
5790359 4.28964 5.81094 27.2472 27.804 0.797397 10.3491 65.1518
5790369 4.27202 5.82936 27.2177 27.8138 0.826532 10.3473 65.1329
5790386 4.27202 5.82936 27.2177 27.8138 0.826532 10.3473 65.1329
5790390 4.33368 5.88462 27.1783 27.7845 0.827354 10.297 65.1812
5790400 4.32487 5.90303 27.1291 27.8527 0.882447 10.2946 65.2097
5790412 4.32487 5.90303 27.1291 27.8527 0.882447 10.2946 65.2097
5790420 4.37772 5.99512 26.9716 27.7456 0.918475 10.2192 65.09
5790433 4.39534 6.01354 26.8929 27.6968 0.931627 10.1958 64.9986
5790442 4.39534 6.01354 26.8929 27.6968 0.931627 10.1958 64.9986
5790457 4.50104 6.10563 26.7944 27.6774 0.955585 10.1105 65.0785
5790462 4.50104 6.10563 26.7944 27.6774 0.955585 10.1105 65.0785
5790472 4.53627 6.14247 26.6763 27.5994 0.973493 10.0679 64.9545
5790482 4.50104 6.19772 26.6468 27.4923 0.980198 10.0498 64.8378
5790507 4.58031 6.40953 26.5287 27.3072 1.00567 9.91413 64.8257
5790513 4.6772 6.51083 26.5287 27.2292 0.975502 9.83199 64.9459
5790523 4.6772 6.51083 26.5287 27.2292 0.975502 9.83199 64.9459
5790533 4.73005 6.69502 26.4598 27.1415 1.01757 9.72903 65.0264
5790543 4.73005 6.69502 26.2826 27.1415 1.08866 9.71463 64.8492
5790555 4.81813 6.82394 26.2826 26.8785 1.00371 9.61041 64.8032
5790563 4.91503 6.99892 26.1054 26.6057 0.999704 9.46935 64.6251
5790583 5.05596 7.19231 25.8987 26.2745 0.9749 9.29618 64.4214
5790593 5.2057 7.49621 25.7805 25.8946 0.933763 9.08085 64.377
5790605 5.2057 7.49621 25.7805 25.8946 0.933763 9.08085 64.377
5790614 5.32902 7.77248 25.5246 25.4367 0.919226 8.86469 64.0628
5790623 5.32902 7.77248 25.5246 25.4367 0.919226 8.86469 64.0628
5790633 5.60207 8.13164 25.3376 24.9009 0.817871 8.55952 63.9721
5790648 6.02487 8.63814 24.9931 24.4625 0.812042 8.13942 64.1185
5790667 6.47409 9.09859 24.7568 24.0046 0.727561 7.73821 64.3341
5790679 6.78238 9.54063 24.5304 23.5272 0.68152 7.39383 64.3806
5790694 7.15233 9.86295 24.2942 23.1473 0.606507 7.0806 64.4567
5790712 7.15233 9.86295 23.989 23.1473 0.728312 7.04293 64.1516
5790715 7.39896 10.2037 23.989 22.6894 0.585365 6.78484 64.281
5790726 7.77772 10.5168 23.5559 22.2315 0.551915 6.43541 64.0819
5790741 7.77772 10.5168 23.5559 22.2315 0.551915 6.43541 64.0819
5790745 8.15648 10.9036 23.0932 21.647 0.509742 6.03763 63.8003
5790755 8.59689 11.3824 22.6601 21.0722 0.469953 5.5923 63.7116
5790766 8.59689 11.3824 22.6601 21.0722 0.469953 5.5923 63.7116
5790775 9.01969 11.8337 22.1581 20.4779 0.446478 5.14637 63.4894
5790786 9.45129 12.1928 21.7053 19.9908 0.405398 4.74863 63.3402
5790795 9.45129 12.1928 21.7053 19.9908 0.405398 4.74863 63.3402
5790810 9.89171 12.5612 21.3312 19.5232 0.340205 4.36004 63.3073
5790815 9.89171 12.5612 21.3312 19.5232 0.340205 4.36004 63.3073
5790825 10.2969 13.0309 20.9276 19.0653 0.34416 3.9478 63.3207
5790836 10.8694 13.4637 20.4256 18.5295 0.2758 3.46557 63.2882
5790857 11.4596 14.0163 19.8153 17.8476 0.233194 2.8953 63.1387
5790865 11.4596 14.0163 19.8153 17.8476 0.233194 2.8953 63.1387
5790880 12.0057 14.5964 19.2345 17.2338 0.233877 2.34647 63.0704
5790885 12.6399 15.1398 18.5947 16.4955 0.159344 1.74421 62.8699
5790907 13.1244 15.7107 18.073 15.9434 0.181723 1.23657 62.8515
5790919 13.6088 16.2264 17.5414 15.5246 0.238812 0.770443 62.9013
5790929 13.6088 16.2264 17.5414 15.5246 0.238812 0.770443 62.9013
5790936 14.2694 16.7974 16.9792 15.0963 0.2554 0.23962 63.1423
5790948 14.8155 17.389 16.1994 14.3539 0.289983 -0.394684 62.7578
5790957 14.8155 17.389 16.1994 14.3539 0.289983 -0.394684 62.7578
5790971 15.4585 18.0406 15.482 13.6495 0.299215 -1.04607 62.6306
5790977 15.4585 18.0406 15.482 13.6495 0.299215 -1.04607 62.6306
5790987 16.0663 18.6533 14.6813 12.9832 0.3562 -1.69637 62.3842
5791011 16.6653 19.3049 13.9119 12.2312 0.385967 -2.37317 62.1134
5791014 16.6653 19.3049 13.9119 12.2312 0.385967 -2.37317 62.1134
5791018 17.1694 19.8106 13.3297 11.603 0.36931 -2.91879 61.9127
5791035 17.1694 19.8106 13.3297 11.603 0.36931 -2.91879 61.9127
5791039 17.568 20.2775 12.893 11.1557 0.392666 -3.34366 61.8941
5791048 18.2456 20.7637 12.4563 10.8415 0.36248 -3.78244 62.3071
5791059 18.2456 20.7637 12.4563 10.8415 0.36248 -3.78244 62.3071
5791068 18.5744 21.1527 12.0716 10.5274 0.414824 -4.12223 62.3262
5791083 19.0528 21.6682 11.6245 10.1943 0.473803 -4.53365 62.5397
5791088 19.0528 21.6682 11.6245 10.1943 0.473803 -4.53365 62.5397
5791098 19.4812 21.9891 11.2813 9.85162 0.430554 -4.87292 62.6033
5791108 19.4812 21.9891 11.2813 9.85162 0.430554 -4.87292 62.6033
5791118 19.82 22.3198 10.9382 9.55655 0.446269 -5.18365 62.6346
5791129 20.0193 22.5727 10.5951 9.2234 0.47332 -5.47347 62.4105
5791138 20.0193 22.5727 10.5951 9.2234 0.47332 -5.47347 62.4105
5791153 20.1887 22.6602 10.3352 8.9664 0.443548 -5.68315 62.1505
5791158 20.4279 22.738 10.2208 8.83315 0.370637 -5.81292 62.2198
5791169 20.4279 22.738 10.2208 8.83315 0.370637 -5.81292 62.2198
5791181 20.7468 23.0784 9.95046 8.67133 0.421345 -6.05395 62.4469
5791188 20.7468 23.0784 9.95046 8.67133 0.421345 -6.05395 62.4469
5791208 20.976 23.3312 9.74251 8.42385 0.414822 -6.27646 62.4736
5791209 21.0657 23.4285 9.61774 8.30011 0.418675 -6.3873 62.412
5791219 21.0657 23.4285 9.61774 8.30011 0.418675 -6.3873 62.412
5791233 21.1952 23.6522 9.43058 8.10022 0.451529 -6.56878 62.3782
5791239 21.2649 23.7008 9.28502 8.04311 0.479162 -6.65498 62.2939
5791259 21.3148 23.8272 9.22263 7.84323 0.45535 -6.76992 62.2079
5791269 21.3148 23.8272 9.22263 7.84323 0.45535 -6.76992 62.2079
5791280 21.3845 23.7883 9.18104 7.84323 0.428474 -6.78856 62.1971
5791289 21.5141 23.8856 9.25382 7.86226 0.391886 -6.78635 62.5157
5791304 21.5141 23.8856 9.25382 7.86226 0.391886 -6.78635 62.5157
5791310 21.6735 23.9634 9.29541 7.80515 0.318637 -6.8228 62.7375
5791320 21.813 24.0606 9.27462 7.74804 0.286603 -6.88061 62.8963
5791331 21.813 24.0606 9.27462 7.74804 0.286603 -6.88061 62.8963
5791340 21.9226 24.0509 9.26422 7.6243 0.194222 -6.9402 62.8621
5791356 21.9226 24.0509 9.26422 7.6243 0.194222 -6.9402 62.8621
5791360 21.9027 24.0509 9.22263 7.51008 0.173748 -6.99217 62.6863
5791370 22.0621 24.0704 9.25382 7.472 0.0900507 -7.01737 62.8583
5791390 22.1717 24.0801 9.24343 7.30067 -0.0136971 -7.09626 62.7959
5791400 22.1618 23.9439 9.25382 7.27212 -0.0796527 -7.08422 62.6317
5791420 22.2216 24.0898 9.18104 7.17693 -0.054197 -7.16939 62.6694
5791439 22.2216 24.0898 9.18104 7.17693 -0.054197 -7.16939 62.6694
5791441 22.3212 24.0509 9.06667 7.08175 -0.102055 -7.25131 62.5205
5791452 22.381 24.1093 9.10826 7.01512 -0.145687 -7.27483 62.6137
5791471 22.5106 24.0217 9.10826 6.93897 -0.262906 -7.30712 62.5795
5791482 22.5504 24.0509 9.14985 6.89138 -0.302498 -7.31773 62.6426
5791492 22.5504 24.0509 9.14985 6.89138 -0.302498 -7.31773 62.6426
5791502 22.6999 24.1773 9.12905 6.82475 -0.328994 -7.38252 62.831
5791515 22.8593 24.1093 9.17064 6.79619 -0.446689 -7.38894 62.9354
5791541 22.9191 24.1579 9.14985 6.75812 -0.457628 -7.42297 62.985
5791545 22.9191 24.1579 9.14985 6.75812 -0.457628 -7.42297 62.985
5791554 22.8792 24.0217 9.16024 6.6439 -0.547744 -7.43883 62.7051
5791566 23.0188 24.119 9.13945 6.60582 -0.569862 -7.4883 62.883
5791583 23.0088 24.0217 9.12905 6.5963 -0.605442 -7.48261 62.7559
5791593 23.0387 23.9731 8.99388 6.47256 -0.634979 -7.57352 62.4782
5791603 23.0387 23.9731 8.99388 6.47256 -0.634979 -7.57352 62.4782
5791614 23.0586 23.9634 9.08746 6.42497 -0.702702 -7.55813 62.5344
5791623 23.0586 23.9634 9.08746 6.42497 -0.702702 -7.55813 62.5344
5791639 23.0487 23.905 9.02508 6.44401 -0.690728 -7.56565 62.4228
5791645 23.1383 23.7786 9.03547 6.42497 -0.789641 -7.5644 62.3774
5791653 23.1383 23.7786 9.03547 6.42497 -0.789641 -7.5644 62.3774
5791664 23.1383 23.7494 9.12905 6.43449 -0.834037 -7.52367 62.4513
5791673 23.0586 23.7203 9.25382 6.39642 -0.879306 -7.47935 62.4291
5791689 23.0586 23.7203 9.25382 6.39642 -0.879306 -7.47935 62.4291
5791693 23.0885 23.73 9.32661 6.41545 -0.906998 -7.45112 62.5606
5791714 23.0088 23.7105 9.37859 6.52016 -0.861055 -7.38299 62.6181
5791724 22.9889 23.6327 9.46177 6.61534 -0.878237 -7.30744 62.6987
5791736 22.9889 23.6327 9.46177 6.61534 -0.878237 -7.30744 62.6987
5791744 22.959 23.5452 9.66972 6.70101 -0.947315 -7.1889 62.8749
5791759 22.8593 23.409 9.73211 6.83427 -0.934245 -7.0905 62.8347
5791774 22.7497 23.2145 9.88807 6.84378 -1.02856 -6.99383 62.6961
5791784 22.7497 23.2145 9.88807 6.84378 -1.02856 -6.99383 62.6961
5791794 22.68 23.0395 10.0544 6.97704 -1.0828 -6.85758 62.7509
5791808 22.6202 22.8547 10.2416 7.11982 -1.14872 -6.71112 62.8363
5791814 22.6202 22.8547 10.2416 7.11982 -1.14872 -6.71112 62.8363
5791824 22.5604 22.7185 10.3976 7.30067 -1.16658 -6.56921 62.9771
5791834 22.5604 22.7185 10.3976 7.30067 -1.16658 -6.56921 62.9771
5791844 22.371 22.4559 10.5743 7.44345 -1.2117 -6.39892 62.8448
5791857 22.2116 22.1642 10.7615 7.66237 -1.2526 -6.19875 62.7996
5791865 22.2116 22.1642 10.7615 7.66237 -1.2526 -6.19875 62.7996
5791881 21.9924 21.8919 11.0318 7.95745 -1.2624 -5.93931 62.8735
5791885 21.7134 21.5418 11.3437 8.243 -1.30181 -5.64951 62.8419
5791895 21.7134 21.5418 11.3437 8.243 -1.30181 -5.64951 62.8419
5791908 21.3945 21.2889 11.5829 8.61422 -1.22225 -5.36406 62.8805
5791915 21.0358 20.9193 11.926 9.00448 -1.20772 -5.01497 62.8856
5791944 21.0358 20.9193 11.926 9.00448 -1.20772 -5.01497 62.8856
5791945 20.6471 20.6081 12.3835 9.43281 -1.18503 -4.62307 63.0715
5791948 20.6471 20.6081 12.3835 9.43281 -1.18503 -4.62307 63.0715
5791959 20.2286 20.0927 12.7786 9.94681 -1.17679 -4.18639 63.0467
5791967 19.7503 19.6745 13.2881 10.4703 -1.14491 -3.71928 63.1832
5791984 19.7503 19.6745 13.2881 10.4703 -1.14491 -3.71928 63.1832
5791987 19.4015 19.2271 13.8391 11.07 -1.15819 -3.2389 63.5378
5791999 18.9631 18.7895 14.307 11.6982 -1.09101 -2.76373 63.7578
5792011 18.9631 18.7895 14.307 11.6982 -1.09101 -2.76373 63.7578
5792016 18.5147 18.2546 14.7541 12.3169 -1.05627 -2.2787 63.8403
5792038 17.9267 17.6224 15.1284 12.9071 -0.993043 -1.77252 63.5847
5792048 17.3089 17.1264 15.6899 13.4972 -0.933313 -1.23735 63.6224
5792069 17.3089 17.1264 15.6899 13.4972 -0.933313 -1.23735 63.6224
5792072 16.8503 16.6132 16.085 14.0493 -0.89342 -0.785214 63.5978
5792078 16.2865 16.0699 16.5217 14.6394 -0.826126 -0.282271 63.5175
5792100 15.6083 15.4713 17.0394 15.3247 -0.729634 0.303705 63.4437
5792108 15.6083 15.4713 17.0394 15.3247 -0.729634 0.303705 63.4437
5792118 14.8332 14.7069 17.7875 16.1148 -0.708885 1.03137 63.4424
5792133 13.9435 13.8873 18.7915 17.2143 -0.639687 1.92092 63.8367
5792138 13.9435 13.8873 18.7915 17.2143 -0.639687 1.92092 63.8367
5792148 12.9834 13.0861 19.9925 18.4711 -0.549601 2.88084 64.5331
5792160 12.0409 12.156 21.1343 19.7083 -0.503905 3.83897 65.0396
5792169 12.0409 12.156 21.1343 19.7083 -0.503905 3.83897 65.0396
5792186 11.3187 11.3548 21.9021 20.6338 -0.472386 4.56893 65.2094
5792189 11.3187 11.3548 21.9021 20.6338 -0.472386 4.56893 65.2094
5792199 10.6052 10.6181 22.414 21.3742 -0.394887 5.20638 65.0115
5792211 9.9886 10.0195 22.7881 21.8905 -0.334933 5.72077 64.6867
5792219 9.9886 10.0195 22.7881 21.8905 -0.334933 5.72077 64.6867
5792229 9.41606 9.59588 23.0735 22.2413 -0.253572 6.13342 64.3267
5792239 8.94041 9.2091 23.5362 22.7186 -0.21306 6.54583 64.4043
5792249 8.94041 9.2091 23.5362 22.7186 -0.21306 6.54583 64.4043
5792262 8.6057 8.84995 23.8709 23.0401 -0.227803 6.86427 64.3666
5792269 8.6057 8.84995 23.8709 23.0401 -0.227803 6.86427 64.3666
5792287 8.27098 8.59209 23.9988 23.3713 -0.119248 7.12414 64.2333
5792289 8.0772 8.40791 24.1071 23.7415 -0.0135496 7.3127 64.3338
5792313 7.83938 8.30661 24.1662 24.0533 0.13763 7.47454 64.3655
5792319 7.67202 8.15005 24.3729 24.3066 0.159577 7.64107 64.5016
5792339 7.67202 8.15005 24.3729 24.3066 0.159577 7.64107 64.5016
5792341 7.51347 7.96587 24.4615 24.6378 0.243399 7.80907 64.5787
5792350 7.51347 7.96587 24.4615 24.6378 0.243399 7.80907 64.5787
5792366 7.40777 7.95666 24.4812 24.7937 0.333157 7.86915 64.6393
5792370 7.33731 7.90141 24.4024 24.9398 0.426403 7.92111 64.581
5792380 7.33731 7.90141 24.4024 24.9398 0.426403 7.92111 64.581
5792395 7.37254 7.82774 24.3434 25.1249 0.478113 7.94853 64.6686
5792400 7.31969 7.6896 24.1957 25.2516 0.552997 8.01423 64.4566
5792428 7.38135 7.72644 24.117 25.4659 0.654662 7.99383 64.6907
5792430 7.38135 7.72644 24.117 25.4659 0.654662 7.99383 64.6907
5792440 7.24922 7.62514 24.0481 25.5244 0.718501 8.07598 64.4468
5792460 7.23161 7.68039 24.0284 25.6607 0.805387 8.07504 64.6011
5792461 7.23161 7.68039 24.0284 25.6607 0.805387 8.07504 64.6011
5792470 7.17876 7.67118 24.0382 25.8556 0.891897 8.11905 64.7437
5792493 7.17876 7.67118 24.0382 25.8556 0.891897 8.11905 64.7437
5792496 7.1171 7.56067 23.9792 25.8751 0.90633 8.17651 64.532
5792500 7.04663 7.55146 23.9496 26.0504 1.00841 8.22051 64.5981
5792510 7.04663 7.55146 23.9496 26.0504 1.00841 8.22051 64.5981
5792527 6.97617 7.52384 23.9398 26.1673 1.07388 8.267 64.6071
5792531 6.94974 7.42254 23.9792 26.2648 1.06722 8.32724 64.6162
5792555 6.87927 7.49621 24.0185 26.4206 1.16449 8.34619 64.8146
5792562 6.78238 7.49621 24.1563 26.4206 1.14798 8.39521 64.8556
5792571 6.78238 7.26598 24.1563 26.5668 1.11701 8.49326 64.7715
5792582 6.74715 7.32124 24.2252 26.5862 1.13097 8.49488 64.8799
5792594 6.74715 7.32124 24.2252 26.5862 1.13097 8.49488 64.8799
5792608 6.6943 7.25677 24.2745 26.6252 1.12305 8.54622 64.8508
5792612 6.67668 7.21993 24.2351 26.6544 1.14323 8.56501 64.7861
5792622 6.67668 7.21993 24.2351 26.6544 1.14323 8.56501 64.7861
5792633 6.59741 7.10022 24.3138 26.8006 1.15316 8.65968 64.812
5792642 6.59741 7.10022 24.3138 26.8006 1.15316 8.65968 64.812
5792659 6.47409 6.9805 24.2942 26.8883 1.1992 8.75531 64.637
5792662 6.46528 6.93445 24.4024 26.9467 1.16351 8.79152 64.7489
5792672 6.46528 6.93445 24.4024 26.9467 1.16351 8.79152 64.7489
5792685 6.39482 6.91603 24.3729 27.0441 1.23302 8.8307 64.7279
5792692 6.34197 6.86999 24.3827 27.161 1.27645 8.87917 64.7557
5792710 6.34197 6.86999 24.3827 27.161 1.27645 8.87917 64.7557
5792712 6.22746 6.86999 24.4713 27.1708 1.29054 8.9307 64.7396
5792722 6.22746 6.86999 24.4713 27.1708 1.29054 8.9307 64.7396
5792736 6.20984 6.75948 24.5796 27.3266 1.27038 9.00268 64.8756
5792742 6.0513 6.64897 24.6682 27.5117 1.32599 9.12752 64.8802
5792752 6.0513 6.64897 24.6682 27.5117 1.32599 9.12752 64.8802
5792762 6.00725 6.68581 24.8356 27.5994 1.32141 9.15318 65.128
5792772 5.86632 6.68581 24.9537 27.5994 1.33063 9.21607 65.1052
5792786 5.86632 6.50163 24.9537 27.6774 1.29194 9.29163 64.999
5792793 5.76943 6.474 25.1013 27.7163 1.27556 9.35449 65.0611
5792802 5.76943 6.474 25.1013 27.7163 1.27556 9.35449 65.0611
5792812 5.6285 6.40953 25.1112 27.6871 1.2944 9.42996 64.8363
5792822 5.61969 6.40953 25.121 27.7358 1.31178 9.4383 64.8861
5792837 5.61969 6.40953 25.121 27.7358 1.31178 9.4383 64.8861
5792842 5.48756 6.46479 25.1309 27.8332 1.41705 9.47643 64.9165
5792864 5.39948 6.36349 25.0718 27.8235 1.43667 9.54224 64.6583
5792873 5.37306 6.3727 25.1506 27.8138 1.4151 9.55459 64.7101
5792889 5.37306 6.3727 25.1506 27.8138 1.4151 9.55459 64.7101
5792894 5.35544 6.40953 25.1702 27.7845 1.41703 9.5465 64.7197
5792903 5.28497 6.42795 25.2884 27.7943 1.40784 9.57697 64.7956
5792914 5.28497 6.42795 25.2884 27.7943 1.40784 9.57697 64.7956
5792923 5.40829 6.41874 25.4065 27.7261 1.28158 9.53797 64.9596
5792939 5.4171 6.40953 25.4459 27.5799 1.20524 9.52914 64.8524
5792943 5.4171 6.40953 25.4459 27.5799 1.20524 9.52914 64.8524
5792953 5.47876 6.49242 25.4754 27.4436 1.1488 9.46549 64.8901
5792966 5.47876 6.49242 25.4754 27.4436 1.1488 9.46549 64.8901
5792975 5.51399 6.474 25.5246 27.2097 1.02173 9.44335 64.7223
5792983 5.53161 6.55688 25.6526 27.1123 0.957939 9.40809 64.8534
5792993 5.53161 6.55688 25.6526 27.1123 0.957939 9.40809 64.8534
5793004 5.67254 6.55688 25.7018 26.9564 0.824115 9.34588 64.8877
5793018 5.69016 6.52004 25.6624 26.7226 0.731516 9.32921 64.5953
5793024 5.69016 6.52004 25.6624 26.7226 0.731516 9.32921 64.5953
5793034 5.89275 6.63976 25.6034 26.3232 0.568914 9.16722 64.4591
5793044 5.89275 6.63976 25.6034 26.3232 0.568914 9.16722 64.4591
5793054 6.11295 6.80553 25.4065 25.6997 0.38493 8.9468 64.0247
5793068 6.41244 7.10943 25.1604 25.1834 0.281832 8.64829 63.8656
5793074 6.41244 7.10943 25.1604 25.1834 0.281832 8.64829 63.8656
5793093 6.70311 7.47779 25.0718 24.7547 0.17873 8.35348 64.0074
5793095 6.70311 7.47779 25.0718 24.7547 0.17873 8.35348 64.0074
5793104 7.09067 7.84615 24.7666 24.2774 0.104013 7.99626 63.9808
5793119 7.57513 8.24215 24.5107 23.9461 0.0398427 7.61727 64.2741
5793124 7.57513 8.24215 24.5107 23.9461 0.0398427 7.61727 64.2741
5793134 8.02435 8.63814 23.9988 23.4201 0.0136524 7.19938 64.0814
5793146 8.56166 9.14464 23.5263 22.7576 -0.0725791 6.69891 63.9902
5793154 8.56166 9.14464 23.5263 22.7576 -0.0725791 6.69891 63.9902
5793172 9.16943 9.73402 22.8668 21.9977 -0.119387 6.10677 63.768
5793174 9.16943 9.73402 22.8668 21.9977 -0.119387 6.10677 63.768
5793184 9.6715 10.3234 22.2762 21.1112 -0.202394 5.53604 63.3823
5793197 10.2088 11.0509 21.8628 20.2149 -0.318041 4.93025 63.3374
5793213 10.2088 11.0509 21.8628 20.2149 -0.318041 4.93025 63.3374
5793229 10.8166 11.6035 21.4986 19.6304 -0.425377 4.41601 63.549
5793230 11.2922 12.0271 21.0261 19.114 -0.463745 3.97596 63.4594
5793235 11.2922 12.0271 21.0261 19.114 -0.463745 3.97596 63.4594
5793250 11.8119 12.5244 20.3961 18.588 -0.432576 3.46991 63.3203
5793265 12.3228 13.1046 19.7267 17.9547 -0.392267 2.91261 63.1088
5793281 12.7808 13.6847 19.1951 17.3702 -0.365314 2.40353 63.0309
5793295 13.3093 14.2925 18.6045 16.6383 -0.391051 1.82377 62.8447
5793311 13.7585 14.8543 18.2206 15.953 -0.466628 1.32849 62.7864
5793327 14.3399 15.3976 17.7087 15.2486 -0.559226 0.770357 62.6949
5793338 14.3399 15.3976 17.7087 15.2486 -0.559226 0.770357 62.6949
5793347 14.8508 15.9778 17.0886 14.6013 -0.543934 0.206668 62.5185
5793357 15.4497 16.6132 16.5217 14.0112 -0.53799 -0.366649 62.5959
5793376 15.9342 17.1945 16.0226 13.4306 -0.532003 -0.880967 62.5819
5793393 16.4187 17.778 15.5132 12.9166 -0.493878 -1.38128 62.6264
5793398 16.4187 17.778 15.5132 12.9166 -0.493878 -1.38128 62.6264
5793408 16.7886 18.2643 15.0869 12.5263 -0.432783 -1.7808 62.6661
5793420 14.9917 18.2643 14.5982 12.5263 0.497156 -1.52322 60.3805
5793428 17.279 18.6728 14.5982 12.0409 -0.46474 -2.23182 62.5908
5793438 17.7673 19.1882 14.0991 11.6316 -0.417389 -2.68596 62.6862
5793448 17.7673 19.1882 14.0991 11.6316 -0.417389 -2.68596 62.6862
5793458 18.1659 19.5772 13.6312 11.0319 -0.475886 -3.14392 62.4062
5793475 18.5844 19.8884 13.2777 10.6512 -0.529818 -3.49606 62.4017
5793478 18.5844 19.8884 13.2777 10.6512 -0.529818 -3.49606 62.4017
5793488 18.9033 20.1705 12.893 10.3275 -0.521004 -3.81734 62.2943
5793502 18.9033 20.1705 12.893 10.3275 -0.521004 -3.81734 62.2943
5793508 19.2022 20.4622 12.6642 10.0039 -0.561616 -4.09007 62.3326
5793527 19.3716 20.6178 12.4459 9.78499 -0.568406 -4.28122 62.2203
5793529 19.3716 20.6178 12.4459 9.78499 -0.568406 -4.28122 62.2203
5793538 19.6706 20.8415 12.1859 9.68029 -0.534914 -4.48374 62.3783
5793554 19.8898 21.0749 12.082 9.44233 -0.581895 -4.66653 62.489
5793558 19.8898 21.0749 12.082 9.44233 -0.581895 -4.66653 62.489
5793568 20.1489 21.3278 11.8012 9.38522 -0.493549 -4.85698 62.6631
5793581 20.1489 21.3278 11.8012 9.38522 -0.493549 -4.85698 62.6631
5793591 20.2386 21.4445 11.7596 9.19485 -0.542344 -4.96394 62.6376
5793598 20.4179 21.6293 11.6661 9.04255 -0.562555 -5.10039 62.7558
5793608 20.4179 21.6293 11.6661 9.04255 -0.562555 -5.10039 62.7558
5793618 20.6372 21.7654 11.5309 8.92833 -0.586316 -5.2361 62.8618
5793628 20.8165 21.9697 11.3437 8.83315 -0.538979 -5.38633 62.9631
5793639 20.8165 21.9697 11.3437 8.83315 -0.538979 -5.38633 62.9631
5793648 20.956 22.1156 11.1774 8.69989 -0.523426 -5.52695 62.9489
5793669 21.0557 22.1836 11.0006 8.52856 -0.535341 -5.6661 62.7685
5793679 21.1254 22.3198 10.8966 8.3477 -0.540194 -5.79065 62.6896
5793699 21.245 22.417 10.7407 8.22396 -0.536785 -5.91539 62.6267
5793715 21.3347 22.4657 10.5847 8.06215 -0.557105 -6.04194 62.4472
5793719 21.3347 22.4657 10.5847 8.06215 -0.557105 -6.04194 62.4472
5793729 21.4642 22.524 10.6783 8.06215 -0.620271 -6.03739 62.7287
5793750 21.4842 22.5824 10.6783 7.99552 -0.631396 -6.07091 62.7404
5793759 21.5938 22.5435 10.6263 7.96697 -0.681345 -6.10803 62.7305
5793783 21.6934 22.6796 10.6055 7.95745 -0.660139 -6.15151 62.936
5793789 21.6536 22.6116 10.5431 7.92889 -0.659995 -6.16695 62.7371
5793810 21.6635 22.5824 10.5535 7.91937 -0.683726 -6.16395 62.7188
5793822 21.6635 22.5824 10.5535 7.91937 -0.683726 -6.16395 62.7188
5793830 21.6038 22.4657 10.6263 7.97648 -0.713192 -6.0952 62.6722
5793840 21.6635 22.3879 10.6991 7.89082 -0.831693 -6.09698 62.6413
5793858 21.6635 22.3879 10.6991 7.89082 -0.831693 -6.09698 62.6413
5793866 21.6635 22.349 10.8031 7.96697 -0.856395 -6.03093 62.7825
5793872 21.5938 22.3003 10.855 7.96697 -0.869602 -5.99657 62.7161
5793882 21.5938 22.3003 10.855 7.96697 -0.869602 -5.99657 62.7161
5793892 21.6038 22.1545 10.9174 8.05263 -0.922267 -5.92751 62.7283
5793904 21.6038 22.1545 10.9174 8.05263 -0.922267 -5.92751 62.7283
5793911 21.4144 22.0961 11.0734 8.15734 -0.89031 -5.80474 62.7413
5793922 21.3447 21.9211 11.2502 8.30963 -0.940755 -5.65995 62.8255
5793933 21.3447 21.9211 11.2502 8.30963 -0.940755 -5.65995 62.8255
5793943 21.2649 21.8335 11.3957 8.45241 -0.943154 -5.54049 62.9466
5793954 21.0557 21.6487 11.6349 8.62374 -0.960116 -5.34738 62.963
5793980 20.956 21.5126 11.7908 8.80459 -0.963181 -5.20262 63.064
5793983 20.7866 21.2305 12.0092 8.94737 -1.03928 -5.01653 62.9737
5793993 20.7866 21.2305 12.0092 8.94737 -1.03928 -5.01653 62.9737
5794004 20.6272 20.968 12.2587 9.21389 -1.07189 -4.78594 63.0678
5794014 20.6272 20.968 12.2587 9.21389 -1.07189 -4.78594 63.0678
5794025 20.2685 20.7248 12.4563 9.28051 -1.08377 -4.60461 62.7301
5794037 19.9596 20.3358 12.893 9.54703 -1.18341 -4.26921 62.7354
5794049 19.9596 20.3358 12.893 9.54703 -1.18341 -4.26921 62.7354
5794054 19.7503 19.9079 13.2985 10.0515 -1.22578 -3.8824 63.0082
5794064 19.3617 19.3535 13.7976 10.4323 -1.33983 -3.45192 62.945
5794084 19.3617 19.3535 13.7976 10.4323 -1.33983 -3.45192 62.945
5794086 18.983 18.9256 14.4006 11.089 -1.32849 -2.93833 63.3983
5794094 18.983 18.9256 14.4006 11.089 -1.32849 -2.93833 63.3983
5794118 18.3552 18.3032 14.9829 11.6982 -1.31698 -2.36282 63.3395
5794120 17.558 17.6322 15.8147 12.4311 -1.30424 -1.64206 63.436
5794151 16.8679 16.9447 16.6673 13.2212 -1.32229 -0.924045 63.7011
5794154 16.0663 16.1896 17.63 14.0398 -1.35586 -0.137545 63.9257
5794156 16.0663 16.1896 17.63 14.0398 -1.35586 -0.137545 63.9257
5794164 15.2824 15.4068 18.5159 14.963 -1.33572 0.652138 64.1682
5794181 15.2824 15.4068 18.5159 14.963 -1.33572 0.652138 64.1682
5794184 14.6482 14.7806 19.3231 15.5817 -1.40243 1.2768 64.3336
5794194 14.0404 14.2281 19.9925 16.3242 -1.3473 1.8692 64.5851
5794208 14.0404 14.2281 19.9925 16.3242 -1.3473 1.8692 64.5851
5794215 13.2917 13.6018 20.5437 16.9619 -1.27007 2.47179 64.3992
5794235 12.543 12.8651 21.2525 17.7112 -1.25023 3.15873 64.3717
5794245 12.0321 12.2389 21.9021 18.5198 -1.22718 3.74482 64.6929
5794257 12.0321 12.2389 21.9021 18.5198 -1.22718 3.74482 64.6929
5794265 11.3539 11.6679 22.5223 19.2309 -1.14909 4.33765 64.7751
5794282 10.7902 10.9865 22.9456 20.0201 -1.05388 4.90924 64.7422
5794285 10.7902 10.9865 22.9456 20.0201 -1.05388 4.90924 64.7422
5794295 10.1295 10.3142 23.4574 20.7897 -0.959602 5.51934 64.6909
5794308 10.1295 10.3142 23.4574 20.7897 -0.959602 5.51934 64.6909
5794315 9.62746 9.7156 23.7331 21.384 -0.87689 5.99765 64.4601
5794332 9.19586 9.25515 23.9792 21.686 -0.871037 6.36676 64.1161
5794335 9.19586 9.25515 23.9792 21.686 -0.871037 6.36676 64.1161
5794346 8.84352 9.02492 24.2351 21.9977 -0.801854 6.63739 64.1012
5794358 8.48238 8.71181 24.6288 22.3582 -0.795111 6.96297 64.1812
5794365 8.48238 8.71181 24.6288 22.3582 -0.795111 6.96297 64.1812
5794382 8.11244 8.5 25.1309 22.9817 -0.680432 7.30014 64.725
5794395 7.67202 8.20531 25.5935 23.4298 -0.628047 7.66078 64.9006
5794409 7.3285 7.91062 25.9873 23.9072 -0.574963 7.98098 65.1335
5794436 6.92332 7.63434 26.2432 24.2189 -0.504947 8.28312 65.0198
5794438 6.6943 7.36728 26.381 24.4819 -0.472116 8.5025 64.9245
5794447 6.6943 7.36728 26.381 24.4819 -0.472116 8.5025 64.9245
5794463 6.50052 7.20152 26.5976 24.745 -0.442612 8.68032 65.0446
5794468 6.50052 7.20152 26.5976 24.745 -0.442612 8.68032 65.0446
5794478 6.22746 6.95287 26.5877 24.9788 -0.341144 8.89298 64.7469
5794491 6.09534 6.82394 26.7846 25.2223 -0.320998 9.03048 64.9262
5794517 5.85751 6.63055 26.9716 25.5536 -0.248028 9.23745 65.0133
5794518 5.69016 6.3727 27.1587 25.7289 -0.287595 9.42828 64.9505
5794528 5.69016 6.3727 27.1587 25.7289 -0.287595 9.42828 64.9505
5794544 5.50518 6.22535 27.3555 25.9335 -0.269856 9.58754 65.0196
5794548 5.50518 6.22535 27.3555 25.9335 -0.269856 9.58754 65.0196
5794558 5.29378 5.97671 27.4737 26.0504 -0.285631 9.78175 64.7946
5794569 5.15285 5.95829 27.5721 26.255 -0.19697 9.86691 64.9382
5794595 5.10881 5.81094 27.5622 26.2648 -0.229877 9.9404 64.7467
5794599 4.95026 5.67281 27.7591 26.4596 -0.222453 10.0851 64.8418
5794608 4.95026 5.67281 27.7591 26.4596 -0.222453 10.0851 64.8418
5794619 4.8886 5.64518 27.9068 26.6544 -0.190395 10.1454 65.095
5794628 4.8886 5.64518 27.9068 26.6544 -0.190395 10.1454 65.095
5794644 4.74767 5.53467 28.1135 26.7616 -0.21674 10.2658 65.1574
5794648 4.6772 5.44258 28.3301 26.898 -0.25505 10.3542 65.3478
5794658 4.6772 5.44258 28.3301 26.898 -0.25505 10.3542 65.3478
5794670 4.59793 5.32286 28.4974 27.0246 -0.285676 10.4522 65.4428
5794678 4.4658 5.23077 28.6746 27.1708 -0.281818 10.5617 65.5419
5794692 4.4658 5.23077 28.6746 27.1708 -0.281818 10.5617 65.5419
5794698 4.41295 5.20314 28.8025 27.2292 -0.298236 10.6056 65.6479
5794708 4.41295 5.20314 28.8025 27.2292 -0.298236 10.6056 65.6479
5794722 4.2544 5.00054 28.8124 27.1221 -0.362095 10.7409 65.1894
5794728 4.26321 5.01896 28.9108 27.0246 -0.433333 10.7302 65.2176
5794738 4.26321 5.01896 28.9108 27.0246 -0.433333 10.7302 65.2176
5794750 4.2456 4.97291 28.8813 26.8395 -0.506024 10.7413 64.9393
5794758 4.23679 4.87161 28.7927 26.6544 -0.582226 10.7672 64.5555
5794778 4.27202 4.89003 28.8419 26.5862 -0.633869 10.7445 64.5902
5794788 4.27202 4.89003 28.8419 26.5862 -0.633869 10.7445 64.5902
5794803 4.26321 4.9545 28.7927 26.6252 -0.570972 10.7217 64.6356
5794808 4.32487 5.06501 28.8518 26.6447 -0.565191 10.6586 64.8863
5794827 4.32487 5.06501 28.8518 26.6447 -0.565191 10.6586 64.8863
5794829 4.3601 5.08342 28.9404 26.6057 -0.619835 10.6407 64.9896
5794854 4.3601 5.10184 28.9207 26.5765 -0.616708 10.6302 64.9591
5794859 4.53627 5.18472 29.0191 26.6642 -0.652276 10.5411 65.4043
5794869 4.53627 5.18472 29.0191 26.6642 -0.652276 10.5411 65.4043
5794880 4.48342 5.16631 28.8911 26.5862 -0.622629 10.555 65.1271
5794889 4.47461 5.27681 28.7533 26.5862 -0.52422 10.5056 65.091
5794905 4.47461 5.27681 28.7533 26.5862 -0.52422 10.5056 65.091
5794909 4.58031 5.42416 28.6352 26.4304 -0.522891 10.3875 65.07
5794922 4.63316 5.44258 28.4876 26.2453 -0.552729 10.3359 64.8086
5794940 4.77409 5.52546 28.3497 26.0115 -0.613551 10.2214 64.6608
5794960 4.83575 5.68201 28.3399 25.9335 -0.601977 10.13 64.7912
5794971 4.89741 5.82936 28.2218 25.7971 -0.576364 10.0297 64.7457
5794990 5.00311 5.99512 28.0938 25.7095 -0.537153 9.90834 64.8015
5795000 5.06477 6.07801 28.1036 25.6802 -0.542989 9.85137 64.9267
5795010 5.06477 6.07801 28.1036 25.6802 -0.542989 9.85137 64.9267
5795020 5.2057 6.18852 28.0741 25.5049 -0.610419 9.73896 64.9732
5795042 5.25855 6.30823 27.9461 25.2711 -0.627241 9.64368 64.784
5795052 5.47876 6.54767 27.8674 24.9398 -0.716704 9.4351 64.8337
5795072 5.7342 6.78711 27.6607 24.5696 -0.786909 9.19877 64.7516
5795083 5.92798 6.96208 27.4638 24.2871 -0.828657 9.0177 64.641
5795094 5.92798 6.96208 27.4638 24.2871 -0.828657 9.0177 64.641
5795105 6.08653 7.21073 27.2177 24.0143 -0.805523 8.81804 64.5293
5795132 6.20104 7.45937 26.9519 23.7805 -0.742739 8.63575 64.3929
5795152 6.36839 7.65276 26.4794 23.4006 -0.702062 8.41742 63.9012
5795154 6.63264 8.03034 26.2334 22.9719 -0.729527 8.11255 63.8683
5795167 6.88808 8.37107 25.8002 22.5335 -0.701225 7.80148 63.5929
5795172 6.88808 8.37107 25.8002 22.5335 -0.701225 7.80148 63.5929
5795182 7.24922 8.87757 25.2687 21.8808 -0.695175 7.3541 63.2763
5795203 7.69845 9.50379 24.7568 21.3645 -0.626539 6.85031 63.3235
5795222 8.1829 10.1116 24.3631 20.8774 -0.612655 6.36168 63.5349
5795223 8.1829 10.1116 24.3631 20.8774 -0.612655 6.36168 63.5349
5795233 8.69378 10.8391 23.7724 20.4195 -0.473766 5.80442 63.7248
5795249 9.19586 10.8391 23.2803 20.4195 -0.477572 5.56952 63.7347
5795253 9.19586 11.4009 23.2803 19.9811 -0.428355 5.32383 63.8581
5795263 9.80363 12.0271 22.6699 19.6693 -0.302768 4.79397 64.17
5795276 9.80363 12.0271 22.6699 19.6693 -0.302768 4.79397 64.17
5795283 10.2969 12.5152 22.0793 19.2017 -0.257178 4.32238 64.0931
5795302 10.7109 12.8835 21.6462 18.8023 -0.262038 3.94753 64.0429
5795303 10.7109 12.8835 21.6462 18.8023 -0.262038 3.94753 64.0429
5795313 11.1337 13.2059 21.1934 18.4321 -0.269341 3.58461 63.965
5795326 11.3979 13.2059 20.7603 18.4321 -0.203879 3.43013 63.7962
5795334 11.3979 13.6018 20.7603 17.8378 -0.282456 3.20726 63.5979
5795356 11.7855 14.0347 20.2484 17.1948 -0.317872 2.75588 63.2634
5795356 11.7855 14.0347 20.2484 17.1948 -0.317872 2.75588 63.2634
5795364 12.1907 14.4399 19.7661 16.5622 -0.379105 2.31048 62.9588
5795384 12.6135 14.8635 19.1754 16.0577 -0.345942 1.85524 62.7101
5795394 13.1244 15.3239 18.6833 15.5532 -0.371096 1.38506 62.6848
5795412 13.4503 15.6647 18.2797 15.2486 -0.325915 1.05678 62.6432
5795425 13.8995 16.1067 17.8958 14.8012 -0.353771 0.643702 62.7032
5795447 13.8995 16.1067 17.8958 14.8012 -0.353771 0.643702 62.7032
5795448 14.4544 16.6593 17.4725 14.2301 -0.412914 0.140637 62.8163
5795455 14.9829 17.2723 16.9792 13.7732 -0.36367 -0.357759 63.0077
5795468 14.9829 17.2723 16.9792 13.7732 -0.36367 -0.357759 63.0077
5795475 15.6083 17.8753 16.2514 13.0974 -0.352904 -0.987095 62.8324
5795485 16.2161 18.3421 15.5651 12.5739 -0.344986 -1.53574 62.6972
5795498 16.2161 18.3421 15.5651 12.5739 -0.344986 -1.53574 62.6972
5795505 16.7622 18.9159 14.9725 12.0123 -0.321734 -2.08097 62.6629
5795524 16.7622 18.9159 14.9725 12.0123 -0.321734 -2.08097 62.6629
5795525 17.3388 19.3633 14.3694 11.4983 -0.338276 -2.59734 62.5698
5795535 17.8769 19.762 13.7768 11.0224 -0.348046 -3.0846 62.4381
5795551 17.8769 19.762 13.7768 11.0224 -0.348046 -3.0846 62.4381
5795555 18.5147 20.2775 13.2257 10.556 -0.362331 -3.59826 62.5738
5795565 18.9631 20.6567 12.7058 10.1086 -0.361784 -4.03754 62.4343
5795577 18.9631 20.6567 12.7058 10.1086 -0.361784 -4.03754 62.4343
5795585 19.4713 21.0652 12.2379 9.66125 -0.393496 -4.47757 62.4357
5795607 19.8101 21.4153 11.8844 9.35666 -0.369194 -4.79882 62.4665
5795627 20.0592 21.6876 11.5933 9.1187 -0.338677 -5.0517 62.4588
5795627 20.0592 21.6876 11.5933 9.1187 -0.338677 -5.0517 62.4588
5795653 20.3283 21.9697 11.3125 8.8617 -0.323908 -5.31205 62.4722
5795654 20.7069 22.1836 11.063 8.63326 -0.380677 -5.55891 62.5868
5795668 21.0557 22.3879 10.7823 8.37626 -0.428829 -5.8189 62.6021
5795678 21.0557 22.3879 10.7823 8.37626 -0.428829 -5.8189 62.6021
5795688 21.2749 22.5143 10.6575 8.14782 -0.507349 -5.98708 62.5945
5795703 21.4842 22.6894 10.4703 7.86226 -0.561099 -6.20122 62.5061
5795708 21.4842 22.6894 10.4703 7.86226 -0.561099 -6.20122 62.5061
5795719 21.7134 22.9033 10.2936 7.729 -0.548626 -6.36839 62.6393
5795730 21.9127 22.9714 10.0648 7.54815 -0.583205 -6.54537 62.497
5795754 22.0522 23.1076 9.99205 7.46249 -0.588597 -6.63711 62.6143
5795780 22.1817 23.1756 9.73211 7.30067 -0.576019 -6.80987 62.3901
5795782 22.381 23.2437 9.71132 7.21501 -0.652911 -6.88199 62.551
5795789 22.381 23.2437 9.71132 7.21501 -0.652911 -6.88199 62.551
5795807 22.4308 23.3701 9.50336 7.10078 -0.5862 -7.01789 62.4051
5795809 22.5703 23.3896 9.48257 6.95801 -0.683214 -7.09594 62.4005
5795819 22.5703 23.3896 9.48257 6.95801 -0.683214 -7.09594 62.4005
5795833 22.7497 23.6035 9.44098 7.01512 -0.625712 -7.13998 62.8093
5795839 22.7497 23.6035 9.44098 7.01512 -0.625712 -7.13998 62.8093
5795849 22.9988 23.6911 9.39939 6.88186 -0.724651 -7.24347 62.9711
5795860 23.1483 23.8272 9.18104 6.77716 -0.685227 -7.39286 62.9337
5795883 23.3077 23.8272 9.05627 6.65342 -0.749213 -7.50071 62.8447
5795890 23.2778 23.9537 8.98349 6.52968 -0.708424 -7.58272 62.7447
5795915 23.4074 23.9926 8.86911 6.39642 -0.753012 -7.6919 62.6655
5795920 23.4074 23.9926 8.86911 6.39642 -0.753012 -7.6919 62.6655
5795933 23.517 24.0995 8.79633 6.34882 -0.742874 -7.76064 62.7617
5795947 23.6565 24.1093 8.68196 6.14894 -0.830817 -7.89216 62.5967
5795961 23.796 24.1093 8.59878 6.11086 -0.868267 -7.95233 62.6149
5795975 23.8558 24.0898 8.59878 6.07279 -0.915073 -7.97083 62.6172
5795992 23.8857 24.1287 8.44281 6.06327 -0.854328 -8.03936 62.5205
5796002 23.8957 24.1773 8.41162 6.00616 -0.849636 -8.07845 62.4908
5796011 23.8957 24.1773 8.41162 6.00616 -0.849636 -8.07845 62.4908
5796027 23.9156 24.1384 8.40122 6.05375 -0.849727 -8.06261 62.509
5796031 23.9156 24.1384 8.40122 6.05375 -0.849727 -8.06261 62.509
5796042 23.9953 24.2162 8.38043 5.9776 -0.871785 -8.11581 62.5696
5796053 24.0352 24.2649 8.37003 5.98712 -0.85912 -8.12586 62.6572
5796063 24.0352 24.2649 8.37003 5.98712 -0.85912 -8.12586 62.6572
5796078 24.0152 24.2746 8.29725 6.03471 -0.799713 -8.13404 62.6218
5796083 24.0252 24.2357 8.39083 6.0252 -0.85962 -8.09984 62.6769
5796093 24.0252 24.2357 8.39083 6.0252 -0.85962 -8.09984 62.6769
5796103 23.9953 24.1871 8.33884 6.10134 -0.816692 -8.08228 62.6226
5796128 23.9355 24.119 8.41162 6.12038 -0.841942 -8.03428 62.5865
5796133 23.796 23.9731 8.5156 6.16797 -0.868867 -7.94655 62.4527
5796159 23.7063 23.9148 8.61957 6.34882 -0.823748 -7.82544 62.5895
5796163 23.5768 23.8175 8.75474 6.45353 -0.822848 -7.71199 62.6026
5796184 23.3576 23.6133 9.02508 6.68197 -0.83259 -7.48201 62.6779
5796194 23.3576 23.6133 9.02508 6.68197 -0.83259 -7.48201 62.6779
5796204 23.1782 23.4966 9.11865 6.73908 -0.824049 -7.39224 62.5325
5796213 23.0885 23.3701 9.3578 7.11982 -0.777118 -7.14557 62.9363
5796231 23.0885 23.3701 9.3578 7.11982 -0.777118 -7.14557 62.9363
5796233 22.7896 23.1756 9.70092 7.30067 -0.799699 -6.89973 62.9668
5796261 22.381 22.7283 9.96086 7.53863 -0.828548 -6.61484 62.6088
5796263 22.0123 22.3684 10.5327 7.96697 -0.87851 -6.17387 62.8804
5796273 22.0123 22.3684 10.5327 7.96697 -0.87851 -6.17387 62.8804
5796292 21.5739 21.8919 10.9902 8.44289 -0.886068 -5.73126 62.8988
5796293 21.1852 21.4931 11.5725 8.98544 -0.901037 -5.24709 63.2363
5796304 21.1852 21.4931 11.5725 8.98544 -0.901037 -5.24709 63.2363
5796319 20.5973 20.861 12.1028 9.58511 -0.892362 -4.69635 63.1461
5796323 20.5973 20.861 12.1028 9.58511 -0.892362 -4.69635 63.1461
5796333 19.7802 19.9176 12.9865 10.4418 -0.953385 -3.86595 63.1261
5796348 19.0129 18.8867 14.0575 11.6221 -1.00725 -2.88304 63.5792
5796354 19.0129 18.8867 14.0575 11.6221 -1.00725 -2.88304 63.5792
5796372 17.9068 17.7294 15.4092 13.0974 -0.970159 -1.66728 64.1428
5796375 16.771 16.6593 16.8024 14.43 -0.960428 -0.509828 64.6627
5796384 16.771 16.6593 16.8024 14.43 -0.960428 -0.509828 64.6627
5796397 15.714 15.8949 18.0631 15.3247 -0.983682 0.410551 64.9968
5796404 15.714 15.8949 18.0631 15.3247 -0.983682 0.410551 64.9968
5796423 14.6746 15.1121 19.1065 15.9625 -1.04329 1.2217 64.8558
5796425 13.7145 14.3478 20.0417 16.5526 -1.10421 1.97939 64.6566
5796434 13.7145 14.3478 20.0417 16.5526 -1.10421 1.97939 64.6566
5796450 13.0627 13.7308 20.7997 17.1364 -1.15681 2.58211 64.7295
5796454 12.2523 13.0493 21.3214 17.8086 -1.05376 3.21931 64.4316
5796482 11.5477 12.4047 21.8628 18.6075 -0.930703 3.84599 64.4225
5796485 11.5477 12.4047 21.8628 18.6075 -0.930703 3.84599 64.4225
5796496 10.843 11.7508 22.4632 19.416 -0.829564 4.48686 64.4731
5796512 10.3938 11.1614 22.8274 19.9226 -0.830866 4.94396 64.3053
5796516 10.3938 11.1614 22.8274 19.9226 -0.830866 4.94396 64.3053
5796526 10.0238 10.7839 23.0243 20.1662 -0.819595 5.24612 63.9982
5796537 9.61865 10.5076 23.172 20.5169 -0.691897 5.5385 63.8151
5796545 9.61865 10.5076 23.172 20.5169 -0.691897 5.5385 63.8151
5796562 9.32798 10.1853 23.5362 21.1307 -0.603084 5.87883 64.1801
5796565 9.32798 10.1853 23.5362 21.1307 -0.603084 5.87883 64.1801
5796575 8.96684 9.87216 23.8118 21.7347 -0.455005 6.22209 64.3855
5796587 8.62332 9.59588 24.2252 22.3874 -0.333667 6.56933 64.8318
5796595 8.62332 9.59588 24.2252 22.3874 -0.333667 6.56933 64.8318
5796611 8.22694 9.32882 24.5206 22.8842 -0.205678 6.89242 64.9606
5796615 7.88342 8.97887 24.7666 23.3616 -0.119092 7.21627 64.9905
5796625 7.88342 8.97887 24.7666 23.3616 -0.119092 7.21627 64.9905
5796635 7.57513 8.66576 25.0127 23.8779 -0.0169531 7.51935 65.1316
5796646 7.57513 8.66576 25.0127 23.8779 -0.0169531 7.51935 65.1316
5796660 7.25803 8.38949 25.2588 24.2579 0.0500679 7.79627 65.1642
5796677 6.98497 8.05796 25.2391 24.7158 0.211394 8.05688 64.9978
5796688 6.98497 8.05796 25.2391 24.7158 0.211394 8.05688 64.9978
5796691 6.75596 7.82774 25.2096 24.9691 0.320873 8.24436 64.7624
5796695 6.75596 7.82774 25.2096 24.9691 0.320873 8.24436 64.7624
5796705 6.52694 7.59751 25.1112 25.0665 0.398844 8.41027 64.3021
5796717 6.34197 7.47779 25.1407 25.2905 0.50025 8.5473 64.251
5796726 6.34197 7.47779 25.1407 25.2905 0.50025 8.5473 64.251
5796745 6.20104 7.35807 25.2391 25.4659 0.538322 8.67029 64.2642
5796746 6.10415 7.29361 25.4262 25.5828 0.5225 8.75946 64.4067
5796774 6.01606 7.27519 25.436 25.7192 0.598291 8.81289 64.4465
5796775 6.01606 7.27519 25.436 25.7192 0.598291 8.81289 64.4465
5796787 5.90155 7.24756 25.436 25.8069 0.666568 8.87387 64.392
5796803 5.88394 7.27519 25.4459 25.953 0.735152 8.88497 64.558
5796807 5.88394 7.27519 25.4459 25.953 0.735152 8.88497 64.558
5796817 5.91917 7.33044 25.3868 26.0115 0.787318 8.85149 64.6479
5796829 5.83109 7.23835 25.5345 26.1479 0.780159 8.94483 64.7517
5796837 5.83109 7.23835 25.5345 26.1479 0.780159 8.94483 64.7517
5796847 5.85751 7.27519 25.6132 26.216 0.777578 8.9352 64.9619
5796857 5.85751 7.27519 25.6132 26.216 0.777578 8.9352 64.9619
5796870 5.76062 7.22914 25.7313 26.2648 0.770149 9.00342 64.9858
5796882 5.80466 7.14626 25.7313 26.255 0.718111 9.01688 64.9373
5796888 5.80466 7.14626 25.7313 26.255 0.718111 9.01688 64.9373
5796897 5.75181 7.10943 25.7904 26.2842 0.712806 9.05818 64.9359
5796907 5.72539 7.03575 25.7609 26.333 0.725639 9.09707 64.8549
5796918 5.72539 7.03575 25.7609 26.333 0.725639 9.09707 64.8549
5796932 5.66373 7.07259 25.879 26.4596 0.764301 9.12846 65.0749
5796949 5.60207 6.96208 25.879 26.5278 0.772968 9.19856 64.9709
5796960 5.54041 6.93445 25.8593 26.4986 0.784063 9.22752 64.8327
5796983 5.57565 6.85157 25.8888 26.4791 0.72003 9.24623 64.7951
5796990 5.54041 6.88841 25.8396 26.4986 0.774682 9.24298 64.767
5797007 5.54041 6.88841 25.8396 26.4986 0.774682 9.24298 64.767
5797009 5.53161 6.92524 25.8298 26.4304 0.770372 9.22554 64.717
5797019 5.53161 6.8792 25.9577 26.4888 0.724161 9.25934 64.8574
5797032 5.53161 6.8792 25.9577 26.4888 0.724161 9.25934 64.8574
5797043 5.46114 6.82394 26.0759 26.4791 0.680918 9.31597 64.84
5797057 5.46114 6.82394 26.0759 26.4791 0.680918 9.31597 64.84
5797065 5.44352 6.80553 26.1251 26.4401 0.646865 9.33039 64.8142
5797081 5.54922 6.74106 26.1546 26.3427 0.532481 9.30896 64.7876
5797090 5.50518 6.7779 26.2235 26.3817 0.551283 9.32113 64.8882
5797106 5.53161 6.81473 26.1152 26.2648 0.553352 9.27759 64.7263
5797121 5.51399 6.88841 26.1743 26.216 0.546426 9.25751 64.7927
5797130 5.51399 6.88841 26.1743 26.216 0.546426 9.25751 64.7927
5797141 5.5228 6.79632 26.194 26.0699 0.444952 9.27754 64.583
5797154 5.65492 6.83315 26.1546 25.8556 0.340793 9.19144 64.4983
5797160 5.65492 6.83315 26.1546 25.8556 0.340793 9.19144 64.4983
5797180 5.78705 6.98971 26.0562 25.6023 0.290519 9.05135 64.4352
5797182 5.9544 7.12784 25.8494 25.2029 0.205371 8.88056 64.1346
5797192 5.9544 7.12784 25.8494 25.2029 0.205371 8.88056 64.1346
5797206 6.19223 7.44095 25.7116 24.7645 0.117597 8.62034 64.1093
5797230 6.43886 7.73564 25.623 24.3943 0.0264823 8.37556 64.1918
5797233 6.72073 7.96587 25.5738 24.2384 -0.0349954 8.1689 64.4988
5797258 7.02902 8.13164 25.308 23.8682 -0.131044 7.93066 64.3369
5797263 7.39016 8.44475 25.1309 23.4201 -0.254796 7.62187 64.3858
5797273 7.39016 8.44475 25.1309 23.4201 -0.254796 7.62187 64.3858
5797285 7.7513 8.73944 24.7568 22.9817 -0.306326 7.29755 64.2292
5797293 7.7513 8.73944 24.7568 22.9817 -0.306326 7.29755 64.2292
5797314 8.03316 9.05255 24.4418 22.4166 -0.393233 6.98408 63.9441
5797315 8.48238 9.40249 23.9693 21.7931 -0.493376 6.57001 63.6473
5797324 8.48238 9.40249 23.9693 21.7931 -0.493376 6.57001 63.6473
5797341 8.9228 9.84453 23.4673 21.1209 -0.56216 6.11333 63.3555
5797344 9.33679 10.3142 23.1818 20.6923 -0.595099 5.71974 63.5251
5797354 9.33679 10.3142 23.1818 20.6923 -0.595099 5.71974 63.5251
5797367 9.76839 10.6273 22.7389 20.361 -0.598039 5.36357 63.4956
5797374 9.76839 10.6273 22.7389 20.361 -0.598039 5.36357 63.4956
5797392 10.156 10.968 22.4435 19.9713 -0.653189 5.02627 63.5389
5797394 10.4819 11.3456 22.1679 19.533 -0.697021 4.69241 63.5284
5797404 10.4819 11.3456 22.1679 19.533 -0.697021 4.69241 63.5284
5797419 10.8342 11.7416 21.8431 19.0458 -0.744441 4.32834 63.4647
5797424 11.3627 12.1192 21.3509 18.5295 -0.814721 3.88209 63.3623
5797434 11.3627 12.1192 21.3509 18.5295 -0.814721 3.88209 63.3623
5797444 11.8471 12.6257 20.8686 17.906 -0.863282 3.39186 63.2474
5797470 12.4549 13.169 20.1893 17.302 -0.860825 2.82041 63.1153
5797475 13.0803 13.74 19.4708 16.7144 -0.831929 2.22955 63.0055
5797485 13.0803 13.74 19.4708 16.7144 -0.831929 2.22955 63.0055
5797495 13.7585 14.2741 18.8506 16.1148 -0.881086 1.6507 62.998
5797505 14.4544 14.9003 18.1419 15.4866 -0.876974 1.01782 62.9832
5797522 14.4544 14.9003 18.1419 15.4866 -0.876974 1.01782 62.9832
5797527 15.0622 15.5542 17.5217 14.8203 -0.877346 0.411136 62.9583
5797535 15.7052 15.5542 16.8856 14.8203 -0.879997 0.106378 62.9652
5797547 15.7052 16.1712 16.8856 14.0398 -0.947376 -0.227139 62.8017
5797557 16.3658 16.7974 16.2202 13.3354 -0.977857 -0.862811 62.7188
5797577 17 17.389 15.482 12.6215 -0.988695 -1.50872 62.4925
5797587 17.5481 17.9628 14.8581 12.0885 -0.942597 -2.05683 62.4575
5797600 17.5481 17.9628 14.8581 12.0885 -0.942597 -2.05683 62.4575
5797607 18.0862 18.4783 14.2758 11.5269 -0.944757 -2.58831 62.3671
5797625 18.0862 18.4783 14.2758 11.5269 -0.944757 -2.58831 62.3671
5797626 18.5445 18.9159 13.7144 11.051 -0.920866 -3.06026 62.2258
5797638 18.9033 19.3244 13.444 10.7654 -0.903931 -3.36776 62.4371
5797649 18.9033 19.3244 13.444 10.7654 -0.903931 -3.36776 62.4371
5797657 19.1325 19.6356 13.2153 10.4513 -0.905305 -3.62815 62.4346
5797667 19.4912 19.9273 12.9034 10.2038 -0.904994 -3.91312 62.5257
5797701 19.6606 20.2483 12.7266 10.0325 -0.840324 -4.10492 62.668
5797702 19.6606 20.2483 12.4979 10.0325 -0.751816 -4.17491 62.4392
5797713 19.8699 20.4914 12.4979 9.85162 -0.807154 -4.3083 62.7108
5797728 20.0891 20.7637 12.2795 9.71836 -0.750396 -4.49994 62.8507
5797739 20.2585 20.968 12.0196 9.46137 -0.737052 -4.72325 62.7074
5797754 20.3681 21.25 11.8116 9.24244 -0.673062 -4.92181 62.6722
5797769 20.5475 21.4542 11.4997 9.02352 -0.627521 -5.15279 62.5249
5797779 20.7069 21.7168 11.3021 8.85218 -0.575303 -5.33799 62.5781
5797789 20.7069 21.7168 11.3021 8.85218 -0.575303 -5.33799 62.5781
5797805 20.7866 21.8335 11.2606 8.62374 -0.635926 -5.45622 62.5045
5797809 20.7866 21.8335 11.2606 8.62374 -0.635926 -5.45622 62.5045
5797819 20.8165 21.9794 11.0422 8.55711 -0.529777 -5.57654 62.3952
5797831 21.0158 22.1156 10.907 8.45241 -0.542037 -5.7061 62.4908
5797840 21.0158 22.1156 10.907 8.45241 -0.542037 -5.7061 62.4908
5797849 21.1653 22.3101 10.7927 8.37626 -0.507478 -5.82011 62.6443
5797859 21.2849 22.417 10.7095 8.31915 -0.501415 -5.89983 62.7306
5797870 21.2849 22.417 10.7095 8.31915 -0.501415 -5.89983 62.7306
5797884 21.3646 22.5532 10.5847 8.26204 -0.451714 -5.99169 62.7645
5797890 21.3646 22.5532 10.5847 8.26204 -0.451714 -5.99169 62.7645
5797900 21.4543 22.6602 10.5223 8.10022 -0.484641 -6.09495 62.737
5797911 21.5639 22.913 10.3456 8.08119 -0.36374 -6.21192 62.9037
