623365 13.4174 12.4012 20.1697 14.0056 -2.99208 2.08939 59.9938
623372 12.829 11.8871 20.5634 14.7921 -2.79383 2.65665 60.0717
623382 12.829 11.8871 20.5634 14.7921 -2.79383 2.65665 60.0717
623392 12.2495 11.419 21.0064 15.4933 -2.63575 3.19883 60.1682
623412 11.5821 10.905 21.3903 16.3651 -2.36641 3.80171 60.2425
623425 10.8972 10.3817 21.7643 17.2436 -2.08845 4.41114 60.2868
623432 10.8972 10.3817 21.7643 17.2436 -2.08845 4.41114 60.2868
623442 10.2123 9.86771 22.227 18.0229 -1.8849 5.0149 60.3299
623452 9.58006 9.33531 22.6699 18.8023 -1.7025 5.60302 60.3876
623462 9.58006 9.33531 22.6699 18.8023 -1.7025 5.60302 60.3876
623473 9.04442 8.81209 23.0735 19.3381 -1.64587 6.11147 60.2682
623483 9.04442 8.81209 23.0735 19.3381 -1.64587 6.11147 60.2682
623493 8.57025 8.37149 23.4181 19.9324 -1.52775 6.57018 60.2922
623503 8.11364 7.90335 23.6543 20.5948 -1.35638 7.02688 60.2661
623513 8.11364 7.90335 23.6543 20.5948 -1.35638 7.02688 60.2661
623523 7.71849 7.61879 23.8906 21.1891 -1.15909 7.38428 60.417
623535 7.30579 7.24244 24.117 21.7347 -1.01227 7.77404 60.3999
623543 7.30579 7.24244 24.117 21.7347 -1.01227 7.77404 60.3999
623553 6.87552 6.88445 24.5993 22.4069 -0.898318 8.20676 60.7661
623563 6.87552 6.88445 24.5993 22.4069 -0.898318 8.20676 60.7661
623573 6.43647 6.554 24.934 22.9232 -0.777866 8.59525 60.8477
623583 6.12913 6.29698 25.1506 23.2447 -0.71439 8.87085 60.8214
623603 5.94473 6.03996 25.062 23.5954 -0.565332 9.0711 60.6421
623614 5.70764 5.98488 25.0324 23.7903 -0.398633 9.20351 60.5152
623624 5.70764 5.98488 25.0324 23.7903 -0.398633 9.20351 60.5152
623633 5.56715 5.9757 24.8454 23.8974 -0.223693 9.25592 60.2857
623643 5.56715 5.9757 24.8454 23.8974 -0.223693 9.25592 60.2857
623655 5.54959 5.9757 24.6977 23.9072 -0.151531 9.24983 60.1302
623664 5.54959 6.08585 24.5698 23.9559 -0.032261 9.19786 60.1611
623675 5.54959 6.08585 24.5698 23.9559 -0.032261 9.19786 60.1611
623684 5.61983 6.12257 24.4517 23.9461 -0.00115633 9.14248 60.1402
623695 5.71643 6.18683 24.3335 23.9364 0.0304371 9.0655 60.1732
623714 5.84814 6.35205 24.2646 23.8877 0.0525951 8.93553 60.3525
623734 5.94473 6.47138 24.1268 23.6928 0.0384659 8.81624 60.2358
623746 6.06767 6.59989 24.2252 23.7318 0.0159949 8.73148 60.6246
623756 6.06767 6.59989 24.2252 23.7318 0.0159949 8.73148 60.6246
623766 6.13791 6.61825 24.1465 23.761 0.0390977 8.6917 60.6637
623776 6.15548 6.62743 24.2056 23.7805 0.019297 8.68943 60.769
623796 6.0062 6.5081 24.4024 23.9266 0.0107318 8.82958 60.8434
623806 6.0062 6.5081 24.4024 23.9266 0.0107318 8.82958 60.8434
623816 5.81302 6.41631 24.5206 24.0241 0.0439346 8.96321 60.7739
623830 5.67252 6.31533 24.5501 24.063 0.0642598 9.06551 60.601
623841 5.67252 6.31533 24.5501 24.063 0.0642598 9.06551 60.601
623849 5.64618 6.26026 24.6288 24.2481 0.0959903 9.12351 60.7834
623861 5.54959 6.11339 24.6977 24.3358 0.0831515 9.23543 60.6965
623866 5.54959 6.11339 24.6977 24.3358 0.0831515 9.23543 60.6965
623877 5.36519 5.99406 24.8454 24.5209 0.125316 9.38824 60.7256
623887 5.36519 5.99406 24.8454 24.5209 0.125316 9.38824 60.7256
623897 5.25103 5.79212 25.121 24.667 0.0358015 9.55387 60.8312
623907 5.16322 5.64525 25.1407 24.8716 0.0875354 9.6687 60.8208
623917 5.16322 5.64525 25.1407 24.8716 0.0875354 9.6687 60.8208
623927 5.04029 5.50756 25.2687 24.9203 0.0489593 9.79006 60.7369
623937 4.95248 5.46166 25.4459 24.9983 0.0253081 9.86636 60.8583
623947 4.95248 5.46166 25.4459 24.9983 0.0253081 9.86636 60.8583
623956 4.91736 5.33315 25.6034 25.1152 -0.0296772 9.95621 60.9691
623966 4.91736 5.33315 25.6034 25.1152 -0.0296772 9.95621 60.9691
623977 4.7593 5.13121 25.751 25.1444 -0.0965223 10.1187 60.7859
623987 4.71539 5.0486 25.9676 25.1931 -0.181064 10.1921 60.9247
623998 4.71539 5.0486 25.9676 25.1931 -0.181064 10.1921 60.9247
624007 4.62758 4.91091 26.1152 25.1639 -0.274593 10.2949 60.8176
624017 4.61002 4.82829 26.3121 25.1834 -0.373542 10.3532 60.9338
624028 4.61002 4.82829 26.3121 25.1834 -0.373542 10.3532 60.9338
624037 4.56612 4.7365 26.4991 25.1542 -0.481737 10.4216 60.9559
624048 4.56612 4.7365 26.4991 25.1542 -0.481737 10.4216 60.9559
624058 4.48709 4.70896 26.7058 25.2126 -0.520076 10.4858 61.1145
624067 4.45196 4.67225 26.8043 25.1736 -0.57705 10.5202 61.1021
624077 4.45196 4.67225 26.8043 25.1736 -0.57705 10.5202 61.1021
624087 4.40806 4.57127 26.9027 25.0178 -0.706792 10.5767 60.8998
624097 4.36415 4.62635 27.0012 24.8619 -0.771143 10.5678 60.8536
624117 4.3905 4.48866 27.2669 24.7352 -0.999293 10.6247 60.8813
624128 4.3905 4.48866 27.2669 24.7352 -0.999293 10.6247 60.8813
624138 4.31147 4.38769 27.3654 24.4819 -1.15911 10.6897 60.5465
624149 4.39928 4.41523 27.513 24.2676 -1.33239 10.636 60.5952
624158 4.39928 4.41523 27.513 24.2676 -1.33239 10.636 60.5952
624170 4.44318 4.44276 27.513 24.102 -1.40966 10.5938 60.501
624178 4.50465 4.50702 27.7197 23.9656 -1.54528 10.5459 60.697
624188 4.50465 4.50702 27.7197 23.9656 -1.54528 10.5459 60.697
624198 4.58368 4.63553 27.828 23.7903 -1.63794 10.4539 60.8375
624218 4.67149 4.66307 27.8477 23.5564 -1.76975 10.3895 60.7387
624228 4.78564 4.76404 27.8674 23.2934 -1.89242 10.281 60.7105
624240 4.78564 4.76404 27.8674 23.2934 -1.89242 10.281 60.7105
624249 4.90857 4.85583 27.6902 23.0109 -1.95652 10.1554 60.4655
624259 5.04029 5.08531 27.5426 22.6894 -1.99152 9.96719 60.3576
624271 5.04029 5.08531 27.5426 22.6894 -1.99152 9.96719 60.3576
624279 5.24225 5.3148 27.454 22.3971 -2.06276 9.75714 60.4081
624289 5.24225 5.3148 27.454 22.3971 -2.06276 9.75714 60.4081
624299 5.36519 5.4892 27.2768 22.0659 -2.11259 9.59057 60.1971
624309 5.58471 5.73704 27.0405 21.5983 -2.20558 9.3354 59.9606
624320 5.58471 5.73704 27.0405 21.5983 -2.20558 9.3354 59.9606
624329 5.90083 6.09503 26.8929 21.1599 -2.30596 9.00693 60.0486
624339 6.21694 6.51728 26.6862 20.5461 -2.43456 8.62934 59.9665
624349 6.21694 6.51728 26.6862 20.5461 -2.43456 8.62934 59.9665
624361 6.62965 7.11393 26.194 19.9519 -2.40353 8.11552 59.8894
624379 7.15651 7.7473 25.623 19.114 -2.48077 7.50323 59.6409
624391 7.87655 8.52754 24.8356 18.3834 -2.43244 6.7461 59.623
624401 7.87655 8.52754 24.8356 18.3834 -2.43244 6.7461 59.623
624411 8.60537 9.31695 24.0382 17.5456 -2.42877 5.96446 59.5061
624421 9.45713 10.1339 23.2015 16.7347 -2.43168 5.12668 59.5272
624431 9.45713 10.1339 23.2015 16.7347 -2.43168 5.12668 59.5272
624441 10.1772 10.7397 22.4632 15.9387 -2.51268 4.42145 59.3188
624452 10.1772 10.7397 22.4632 15.9387 -2.51268 4.42145 59.3188
624461 10.7918 11.3272 21.7053 15.209 -2.52436 3.75938 59.0334
624472 11.4855 11.9789 20.9178 14.432 -2.54716 3.03123 58.8143
624481 11.4855 11.9789 20.9178 14.432 -2.54716 3.03123 58.8143
624492 12.2407 12.6857 20.1106 13.7497 -2.5158 2.27956 58.7868
624503 12.9959 13.3375 19.1754 13.0769 -2.45662 1.51548 58.5857
624512 12.9959 13.3375 19.1754 13.0769 -2.45662 1.51548 58.5857
624522 13.7159 14.0994 18.3092 12.3757 -2.37182 0.735803 58.5002
624532 13.7159 14.0994 18.3092 12.3757 -2.37182 0.735803 58.5002
624542 14.313 14.6685 17.5512 11.7408 -2.34025 0.0799406 58.2735
624552 14.9365 15.3661 17 11.1628 -2.31232 -0.54899 58.4653
624562 14.9365 15.3661 17 11.1628 -2.31232 -0.54899 58.4653
624572 15.5248 15.8159 16.3299 10.6132 -2.32726 -1.13178 58.2837
624583 16.1043 16.4033 15.6598 10.2057 -2.20782 -1.70683 58.3732
624592 16.1043 16.4033 15.6598 10.2057 -2.20782 -1.70683 58.3732
624604 16.719 16.8623 14.9691 9.73188 -2.18501 -2.28552 58.2823
624613 16.719 16.8623 14.3196 9.73188 -1.9279 -2.48032 57.6328
624624 17.2591 17.3696 14.3196 9.18227 -2.16187 -2.87116 58.1305
624633 17.8769 17.8169 13.8247 8.76533 -2.19588 -3.3724 58.2839
624644 17.8769 17.8169 13.8247 8.76533 -2.19588 -3.3724 58.2839
624653 18.3751 18.2059 13.1134 8.38629 -2.10754 -3.89494 58.0808
624663 18.993 18.6144 12.6495 8.01672 -2.14991 -4.36077 58.2736
624675 18.993 18.6144 12.6495 8.01672 -2.14991 -4.36077 58.2736
624684 19.5809 18.9451 12.1649 7.65663 -2.20409 -4.80853 58.3475
624705 20.2087 19.3438 11.5155 7.24916 -2.19968 -5.34694 58.3171
624715 20.8365 19.762 11.0825 6.86065 -2.26175 -5.80494 58.5416
624726 20.8365 19.762 11.0825 6.86065 -2.26175 -5.80494 58.5416
624735 21.2948 20.1121 10.4845 6.54794 -2.19001 -6.25635 58.4394
624744 21.6436 20.2969 10.0515 6.25418 -2.20789 -6.60166 58.2462
624755 21.6436 20.2969 10.0515 6.25418 -2.20789 -6.60166 58.2462
624764 22.0322 20.5692 9.68041 6.05518 -2.18054 -6.90792 58.3371
624775 22.3212 20.7151 9.30928 5.7709 -2.21301 -7.21554 58.1165
624786 22.3212 20.7151 9.30928 5.7709 -2.21301 -7.21554 58.1165
624796 22.5504 20.8513 9.12371 5.52453 -2.2818 -7.42984 58.0499
624806 22.5504 20.8513 9.12371 5.52453 -2.2818 -7.42984 58.0499
624816 22.7796 20.9582 8.89691 5.32553 -2.32605 -7.63853 57.9603
624826 22.959 21.0069 8.76289 5.24972 -2.3566 -7.7494 57.9784
624837 22.959 21.0069 8.76289 5.24972 -2.3566 -7.7494 57.9784
624847 23.0985 21.0555 8.62887 5.10758 -2.40293 -7.88149 57.8904
624857 23.2579 21.036 8.59794 5.08863 -2.47117 -7.91836 57.9805
624867 23.2579 21.036 8.59794 5.08863 -2.47117 -7.91836 57.9805
624877 23.3974 21.0652 8.50515 5.05072 -2.49344 -7.99058 58.0185
624887 23.3974 21.0652 8.50515 5.05072 -2.49344 -7.99058 58.0185
624896 23.4672 21.1138 8.53608 5.04125 -2.5139 -7.99636 58.1583
624906 23.5369 21.1333 8.59794 5.08863 -2.5331 -7.96402 58.3568
624917 23.5369 21.1333 8.59794 5.08863 -2.5331 -7.96402 58.3568
624926 23.6764 21.2014 8.59794 5.12653 -2.53679 -7.97409 58.6023
624937 23.8458 21.2014 8.56701 5.12653 -2.58974 -8.00645 58.7408
624947 23.8458 21.25 8.56701 5.14548 -2.55804 -8.00482 58.8083
624957 23.8658 21.25 8.51546 5.15496 -2.54153 -8.02365 58.7862
624967 23.8658 21.25 8.51546 5.15496 -2.54153 -8.02365 58.7862
624977 23.7761 21.25 8.4433 5.18339 -2.46621 -8.03016 58.6528
624987 23.7562 21.1625 8.46392 5.13601 -2.52979 -8.02789 58.5186
624997 23.7562 21.1625 8.46392 5.13601 -2.52979 -8.02789 58.5186
625007 23.7661 20.9971 8.52577 5.15496 -2.62636 -7.97752 58.444
625027 23.7063 20.9874 8.49485 5.15496 -2.59618 -7.98133 58.3436
625037 23.6266 20.9388 8.50515 5.22129 -2.56112 -7.93566 58.2918
625048 23.6266 20.9388 8.50515 5.22129 -2.56112 -7.93566 58.2918
625057 23.507 20.7637 8.57732 5.31605 -2.58088 -7.83405 58.1641
625067 23.3177 20.6665 8.7732 5.46767 -2.55764 -7.66251 58.225
625077 23.3177 20.6665 8.7732 5.46767 -2.55764 -7.66251 58.225
625087 23.0586 20.4817 8.91753 5.733 -2.47524 -7.44699 58.1908
625097 23.0586 20.4817 8.91753 5.733 -2.47524 -7.44699 58.1908
625117 22.7298 20.2969 9.2268 6.01728 -2.42076 -7.15177 58.2708
625118 22.371 20.1121 9.6701 6.37737 -2.37126 -6.77484 58.5306
625128 22.371 20.1121 9.6701 6.37737 -2.37126 -6.77484 58.5306
625138 21.9127 19.8106 10.0619 6.87012 -2.2563 -6.33992 58.6553
625150 21.4244 19.4022 10.5464 7.54292 -2.13257 -5.78891 58.9159
625160 21.4244 19.4022 10.5464 7.54292 -2.13257 -5.78891 58.9159
625170 20.5674 18.877 11.2062 8.21572 -1.98793 -5.10203 58.8663
625180 19.5311 18.1184 12.1134 9.10647 -1.87686 -4.18629 58.8694
625201 18.5047 17.3307 13.1856 10.2152 -1.74911 -3.14875 59.2361
625212 18.5047 17.3307 13.1856 10.2152 -1.74911 -3.14875 59.2361
625222 17.3787 16.541 14.4021 11.3049 -1.64976 -2.06604 59.6267
625231 16.3063 15.6965 15.6598 12.4041 -1.6088 -0.983638 60.0668
625261 14.4886 14.3013 17.5217 14.2046 -1.44774 0.727826 60.5162
625271 14.4886 14.3013 17.5217 14.2046 -1.44774 0.727826 60.5162
625281 13.6018 13.6404 18.2108 15.0385 -1.29509 1.48957 60.4914
625291 13.6018 13.6404 18.2108 15.0385 -1.29509 1.48957 60.4914
625301 12.8115 12.9978 18.7522 15.6828 -1.19636 2.14768 60.2443
625312 12.0826 12.3278 19.2542 16.4125 -1.08053 2.81046 60.0771
625332 11.3889 11.6485 19.7365 17.1656 -0.964046 3.46967 59.9396
625343 10.7655 11.1069 20.3173 17.8086 -0.903066 4.06349 59.9983
625362 10.1684 10.5378 20.8784 18.4321 -0.865136 4.64978 60.0167
625382 9.55372 10.0054 21.469 19.2017 -0.753622 5.25776 60.2299
625393 9.07955 9.43629 22.0203 19.9908 -0.690891 5.82268 60.5269
625413 8.49122 8.91307 22.5321 20.7702 -0.551872 6.39915 60.7066
625424 7.96436 8.30724 23.0735 21.3937 -0.550292 6.96317 60.7388
625433 7.96436 8.30724 23.0735 21.3937 -0.550292 6.96317 60.7388
625443 7.42872 7.75648 23.6248 22.1341 -0.477046 7.52502 60.9441
625453 6.84039 7.19654 24.0579 22.7673 -0.383824 8.08096 60.8622
625463 6.84039 7.19654 24.0579 22.7673 -0.383824 8.08096 60.8622
625473 6.30475 6.71922 24.5009 23.4785 -0.249119 8.59512 61.0033
625494 5.76911 6.16847 24.8257 24.0728 -0.145298 9.11324 60.8361
625504 5.41787 5.85637 25.062 24.6086 -0.00609607 9.45027 60.9448
625514 5.41787 5.85637 25.062 24.6086 -0.00609607 9.45027 60.9448
625523 5.04029 5.64525 25.2391 25.0373 0.165293 9.74153 60.9619
625533 5.04029 5.64525 25.2391 25.0373 0.165293 9.74153 60.9619
625543 4.74174 5.34233 25.4557 25.3685 0.210717 10.0332 60.9083
625553 4.47831 5.14039 25.6329 25.5828 0.251505 10.2566 60.8344
625564 4.47831 5.14039 25.6329 25.5828 0.251505 10.2566 60.8344
625574 4.26756 4.96598 25.7313 25.8361 0.330254 10.444 60.801
625584 4.1095 4.79158 25.9873 26.0017 0.285977 10.6145 60.8901
625594 4.1095 4.79158 25.9873 26.0017 0.285977 10.6145 60.8901
625604 3.88998 4.66307 26.2629 26.1868 0.285652 10.7938 61.0027
625615 3.88998 4.66307 26.2629 26.1868 0.285652 10.7938 61.0027
625627 3.72314 4.52538 26.4204 26.2745 0.269246 10.9396 60.9434
625635 3.67045 4.39687 26.5779 26.3719 0.213242 11.0336 61.0171
625645 3.67045 4.39687 26.5779 26.3719 0.213242 11.0336 61.0171
625654 3.59143 4.43359 26.6566 26.3719 0.228262 11.0567 61.0536
625666 3.5124 4.35097 26.6468 26.3524 0.223547 11.124 60.8626
625675 3.5124 4.35097 26.6468 26.3524 0.223547 11.124 60.8626
625685 3.50362 4.35097 26.696 26.3524 0.206798 11.1309 60.903
625694 3.50362 4.35097 26.696 26.3524 0.206798 11.1309 60.903
625705 3.46849 4.36933 26.6369 26.216 0.1977 11.1257 60.6908
625714 3.50362 4.34179 26.6763 26.1284 0.119632 11.1193 60.6501
625725 3.50362 4.34179 26.6763 26.1284 0.119632 11.1193 60.6501
625736 3.60021 4.36933 26.6862 26.0504 0.0549346 11.0616 60.7061
625744 3.64411 4.36015 26.8535 26.0115 -0.0517502 11.055 60.8692
625771 3.72314 4.32343 26.9815 25.9335 -0.183579 11.0402 60.9616
625786 3.79339 4.30508 27.0405 25.8166 -0.292107 11.0142 60.9556
625796 3.86364 4.30508 27.1685 25.7484 -0.400518 10.9882 61.0856
625806 3.86364 4.30508 27.1685 25.7484 -0.400518 10.9882 61.0856
625816 3.9251 4.25918 27.2768 25.5633 -0.565094 10.9766 61.0244
625826 3.88998 4.24082 27.3555 25.388 -0.663957 10.993 60.8743
625834 3.88998 4.24082 27.3555 25.388 -0.663957 10.993 60.8743
625844 3.97779 4.25918 27.4737 25.2321 -0.804102 10.9452 60.9427
625856 3.97779 4.25918 27.4737 25.2321 -0.804102 10.9452 60.9427
625866 4.03926 4.27754 27.5032 25.008 -0.927566 10.8982 60.828
625876 4.04804 4.38769 27.5819 24.7742 -1.01497 10.8371 60.7919
625886 4.04804 4.38769 27.5819 24.7742 -1.01497 10.8371 60.7919
625896 4.17097 4.40605 27.7099 24.5794 -1.18927 10.7725 60.8663
625904 4.17097 4.40605 27.7099 24.5794 -1.18927 10.7725 60.8663
625916 4.18853 4.4703 27.8083 24.3845 -1.29086 10.7312 60.8517
625926 4.28512 4.50702 27.9265 24.2579 -1.41312 10.6743 60.9765
625939 4.28512 4.50702 27.9265 24.2579 -1.41312 10.6743 60.9765
625946 4.38171 4.5162 28.0938 23.9072 -1.66348 10.6167 60.8989
625956 4.39928 4.49784 28.0741 23.6928 -1.76493 10.6001 60.6641
625966 4.39928 4.49784 28.0741 23.6928 -1.76493 10.6001 60.6641
625976 4.53099 4.66307 28.0741 23.3811 -1.88005 10.4522 60.6493
625996 4.62758 4.7365 28.1233 23.1083 -2.02411 10.364 60.5957
626006 4.7593 4.92009 28.1036 22.855 -2.09763 10.2112 60.6381
626016 4.7593 4.92009 28.1036 22.855 -2.09763 10.2112 60.6381
626026 4.81198 5.08531 28.0052 22.5433 -2.14598 10.0878 60.4458
626036 4.97004 5.27808 27.9265 22.251 -2.22068 9.91203 60.4256
626048 4.97004 5.27808 27.9265 22.251 -2.22068 9.91203 60.4256
626057 5.18957 5.50756 27.8871 21.8613 -2.36071 9.69086 60.4455
626067 5.18957 5.50756 27.8871 21.8613 -2.36071 9.69086 60.4455
626077 5.41787 5.8013 27.7591 21.5009 -2.42846 9.43486 60.4791
626087 5.61983 6.13175 27.4737 21.0138 -2.46849 9.14752 60.239
626097 5.61983 6.13175 27.4737 21.0138 -2.46849 9.14752 60.239
626109 5.98864 6.59071 27.1193 20.4195 -2.53572 8.72268 60.1181
626117 6.32231 7.0405 26.824 19.8642 -2.59846 8.32427 60.051
626128 6.32231 7.0405 26.824 19.8642 -2.59846 8.32427 60.051
626137 6.73502 7.46274 26.568 19.3868 -2.68213 7.91913 60.1526
626148 6.73502 7.46274 26.568 19.3868 -2.68213 7.91913 60.1526
626156 7.01601 7.71976 26.1349 18.9679 -2.70029 7.61224 59.8386
626167 7.32335 8.00432 25.7805 18.5782 -2.7315 7.2959 59.6864
626177 7.32335 8.00432 25.7805 18.5782 -2.7315 7.2959 59.6864
626188 7.64824 8.2797 25.4163 18.1496 -2.78823 6.96827 59.4938
626197 8.02583 8.75702 25.0521 17.7404 -2.76143 6.54877 59.5754
626207 8.02583 8.75702 25.0521 17.7404 -2.76143 6.54877 59.5754
626217 8.42097 9.23434 24.5304 17.3312 -2.68234 6.1007 59.5169
626237 8.90393 9.68412 23.9102 16.8768 -2.63294 5.60816 59.3751
626248 9.45713 10.1982 23.1424 16.4409 -2.51546 5.04605 59.2387
626259 9.45713 10.1982 23.1424 16.4409 -2.51546 5.04605 59.2387
626267 10.1508 10.9141 22.414 15.8913 -2.4252 4.3558 59.3703
626277 10.9236 11.5934 21.5281 15.1806 -2.39661 3.59432 59.2257
626287 10.9236 11.5934 21.5281 15.1806 -2.39661 3.59432 59.2257
626297 11.7665 12.3094 20.6028 14.6026 -2.30146 2.81609 59.2813
626309 11.7665 12.3094 20.6028 14.6026 -2.30146 2.81609 59.2813
626318 12.6095 13.0529 19.5298 13.7971 -2.24164 1.94895 58.9893
626328 13.4788 13.9158 18.4076 13.0959 -2.06918 1.04645 58.8981
626338 13.4788 13.9158 18.4076 13.0959 -2.06918 1.04645 58.8981
626348 14.3306 14.7419 17.3544 12.3852 -1.93748 0.170134 58.812
626358 15.0506 15.5221 16.2887 11.5987 -1.804 -0.689044 58.4601
626378 15.8321 16.2748 15.3608 10.8501 -1.74392 -1.51654 58.3178
626388 15.8321 16.2748 15.3608 10.8501 -1.74392 -1.51654 58.3178
626398 16.4907 17.0875 14.3918 10.3004 -1.49925 -2.28745 58.2704
626413 17.1694 17.7391 13.433 9.61817 -1.39972 -3.06869 57.9597
626418 17.1694 17.7391 13.433 9.61817 -1.39972 -3.06869 57.9597
626428 17.9168 18.4588 12.6392 9.08751 -1.29496 -3.78184 58.1023
626438 17.9168 18.4588 12.6392 9.08751 -1.29496 -3.78184 58.1023
626448 18.4349 19.091 11.8969 8.55686 -1.15731 -4.41676 57.9797
626458 18.9631 19.5383 11.268 8.14939 -1.09783 -4.94243 57.9188
626471 18.9631 19.5383 11.268 8.14939 -1.09783 -4.94243 57.9188
626481 19.3318 19.9662 10.7526 7.80825 -0.998054 -5.37615 57.8588
626490 19.6606 20.3261 10.3196 7.50502 -0.929357 -5.75028 57.8113
626500 19.6606 20.3261 10.3196 7.50502 -0.929357 -5.75028 57.8113
626510 19.9496 20.5109 10.0722 7.24916 -0.978561 -6.00686 57.7818
626519 20.0193 20.5109 9.96907 7.09755 -1.03304 -6.11065 57.5968
626529 20.0193 20.7346 9.96907 7.09755 -0.932331 -6.14504 57.8205
626540 20.0094 20.7248 9.92784 6.97436 -0.97075 -6.20233 57.6364
626549 20.0094 20.7248 9.92784 6.97436 -0.97075 -6.20233 57.6364
626559 20.109 20.754 10.0928 6.92698 -1.08876 -6.17885 57.8828
626570 20.0991 20.7443 10.1856 6.94593 -1.11877 -6.13503 57.9748
626581 20.0991 20.7443 10.1856 6.94593 -1.11877 -6.13503 57.9748
626590 20.0592 20.6762 10.4433 6.94593 -1.23888 -6.02486 58.1246
626600 19.9297 20.6178 10.6186 7.14493 -1.19422 -5.86099 58.311
626616 19.9297 20.6178 10.6186 7.14493 -1.19422 -5.86099 58.311
626621 19.9097 20.6373 10.9175 7.28707 -1.23524 -5.70429 58.7516
626631 19.9097 20.6373 10.9175 7.28707 -1.23524 -5.70429 58.7516
626641 19.7802 20.6178 11.1443 7.38183 -1.24093 -5.5678 58.9242
626653 19.82 20.5887 11.2887 7.3913 -1.32374 -5.51597 59.0887
626671 19.9396 20.6859 11.2371 7.38183 -1.31193 -5.57181 59.2445
626682 19.9695 20.6665 11.1546 7.23969 -1.36286 -5.65176 59.0303
626692 19.9695 20.6665 11.1546 7.23969 -1.36286 -5.65176 59.0303
626702 19.9894 20.6373 11.0412 7.0786 -1.41063 -5.74678 58.7466
626712 19.9894 20.6373 11.0412 7.0786 -1.41063 -5.74678 58.7466
626722 20.0094 20.6762 10.8866 6.89855 -1.42004 -5.87485 58.4707
626732 20.2087 20.6859 10.7629 6.71851 -1.52765 -6.01614 58.376
626742 20.2087 20.6859 10.7629 6.71851 -1.52765 -6.01614 58.376
626752 20.5176 20.7832 10.6701 6.58584 -1.63033 -6.15937 58.5567
626762 20.7667 20.7832 10.4227 6.36789 -1.73049 -6.3659 58.3405
626772 20.7667 20.8513 10.4227 6.36789 -1.69934 -6.37597 58.4085
626784 21.0457 20.861 10.3093 6.28261 -1.79979 -6.49114 58.4986
626792 21.0457 20.861 10.3093 6.28261 -1.79979 -6.49114 58.4986
626802 21.3546 20.8513 10.0103 6.11204 -1.88658 -6.70778 58.3282
626812 21.534 20.9096 9.83505 5.94147 -1.94004 -6.87058 58.2201
626823 21.534 20.9096 9.83505 5.94147 -1.94004 -6.87058 58.2201
626832 21.7333 20.8221 9.74227 5.80881 -2.0844 -6.97108 58.1065
626844 21.8628 20.7346 9.72165 5.74248 -2.19916 -7.00979 58.0615
626863 21.9326 20.6957 9.7732 5.60981 -2.32728 -7.04482 58.0112
626873 21.9326 20.6957 9.7732 5.60981 -2.32728 -7.04482 58.0112
626883 22.0522 20.6178 9.80412 5.60033 -2.4271 -7.04239 58.0745
626893 22.2315 20.647 9.83505 5.63824 -2.47692 -7.04483 58.3519
626913 22.2814 20.6665 9.84536 5.67614 -2.47314 -7.03608 58.4693
626923 22.371 20.6276 9.93814 5.74248 -2.53034 -6.98322 58.6792
626933 22.371 20.6276 9.93814 5.74248 -2.53034 -6.98322 58.6792
626943 22.4209 20.5887 9.91753 5.90357 -2.48432 -6.93222 58.8306
626965 22.3411 20.3261 10.0103 5.96042 -2.58576 -6.82915 58.638
626974 22.1419 20.1413 10.1443 6.11204 -2.5764 -6.66903 58.5395
626986 22.1419 20.1413 10.1443 6.11204 -2.5764 -6.66903 58.5395
626994 21.8927 20.0051 10.3196 6.30156 -2.52294 -6.47911 58.519
627006 21.6536 19.6939 10.6495 6.52899 -2.59719 -6.19444 58.526
627017 21.6536 19.6939 10.6495 6.52899 -2.59719 -6.19444 58.526
627026 21.2948 19.3244 10.9485 6.83222 -2.60562 -5.86608 58.3999
627035 21.2948 19.3244 10.9485 6.83222 -2.60562 -5.86608 58.3999
627051 20.8962 18.9645 11.4227 7.14493 -2.65687 -5.46648 58.4284
627054 20.3681 18.5269 11.9072 7.59978 -2.63204 -4.97963 58.402
627064 20.3681 18.5269 11.9072 7.59978 -2.63204 -4.97963 58.402
627074 19.9097 18.1962 12.5567 8.11148 -2.61966 -4.45037 58.7741
627085 19.2321 17.6808 13.3505 8.70847 -2.62557 -3.77822 58.9719
627096 19.2321 17.6808 13.3505 8.70847 -2.62557 -3.77822 58.9719
627106 18.694 17.2334 14.1134 9.29599 -2.64508 -3.16449 59.3368
627116 18.694 17.2334 14.1134 9.29599 -2.64508 -3.16449 59.3368
627126 18.0064 16.7338 14.9381 9.95931 -2.62061 -2.47565 59.6377
627136 17.3089 16.2473 15.5979 10.49 -2.586 -1.87822 59.6441
627146 17.3089 16.2473 15.5979 10.49 -2.586 -1.87822 59.6441
627156 16.6312 15.6965 16.2887 11.0017 -2.60896 -1.26742 59.6181
627166 15.876 15.155 17 11.5323 -2.59754 -0.629247 59.5633
627177 15.876 15.155 17 11.5323 -2.59754 -0.629247 59.5633
627188 15.0857 14.4849 17.7973 12.1957 -2.60333 0.106364 59.5636
627208 14.1813 13.7597 18.6636 12.9064 -2.59566 0.914683 59.511
627217 13.2769 13.007 19.7365 13.854 -2.56889 1.83049 59.8744
627227 13.2769 13.007 19.7365 13.854 -2.56889 1.83049 59.8744
627237 12.39 12.3186 20.652 14.7921 -2.46511 2.67707 60.1526
627247 11.5294 11.6301 21.469 15.626 -2.38254 3.46914 60.2546
627267 10.7743 11.0243 22.1975 16.5546 -2.22657 4.19983 60.5507
627277 10.7743 11.0243 22.1975 16.5546 -2.22657 4.19983 60.5507
627287 10.0806 10.4552 22.7093 17.1851 -2.1304 4.80521 60.4302
627299 9.55372 9.92279 23.2015 17.8768 -2.04594 5.35097 60.5548
627308 9.55372 9.92279 23.2015 17.8768 -2.04594 5.35097 60.5548
627318 8.98295 9.43629 23.4968 18.4029 -1.92337 5.83908 60.3189
627329 8.61415 9.06911 23.6838 18.851 -1.81751 6.19039 60.2181
627338 8.61415 9.06911 23.6838 18.851 -1.81751 6.19039 60.2181
627348 8.18388 8.62851 24.0185 19.3868 -1.73831 6.6242 60.2177
627358 8.18388 8.62851 24.0185 19.3868 -1.73831 6.6242 60.2177
627368 7.75362 8.30724 24.3237 19.8447 -1.62934 7.00014 60.2292
627380 7.52531 7.9676 24.4812 20.2928 -1.55394 7.28785 60.2669
627390 7.52531 7.9676 24.4812 20.2928 -1.55394 7.28785 60.2669
627399 7.23554 7.69222 24.6584 20.6143 -1.48975 7.56097 60.2005
627411 7.07748 7.45356 24.8848 20.9943 -1.4544 7.7838 60.4101
627420 7.07748 7.45356 24.8848 20.9943 -1.4544 7.7838 60.4101
627433 6.90186 7.2608 24.9734 21.345 -1.35143 7.97499 60.481
627440 6.69112 7.12311 25.0226 21.5691 -1.25051 8.1393 60.4059
627451 6.69112 7.12311 25.0226 21.5691 -1.25051 8.1393 60.4059
627461 6.66477 7.0405 25.0816 21.7931 -1.20204 8.21298 60.58
627471 6.66477 7.0405 25.0816 21.7931 -1.20204 8.21298 60.58
627481 6.50671 6.92117 25.1506 21.9295 -1.1596 8.34242 60.5079
627491 6.38378 6.75594 25.2293 22.1049 -1.13779 8.48162 60.4739
627501 6.38378 6.75594 25.2293 22.1049 -1.13779 8.48162 60.4739
627512 6.27841 6.59071 25.2982 22.3679 -1.08119 8.62233 60.5352
627521 6.27841 6.59071 25.2982 22.3679 -1.08119 8.62233 60.5352
627531 6.09401 6.36123 25.3573 22.592 -1.03389 8.81408 60.4045
627541 5.94473 6.25108 25.4163 22.9622 -0.886433 8.95991 60.5743
627561 5.83058 6.06749 25.5443 23.1375 -0.895448 9.10791 60.5799
627572 5.6813 5.85637 25.6526 23.5077 -0.811301 9.2975 60.698
627582 5.6813 5.85637 25.6526 23.5077 -0.811301 9.2975 60.698
627591 5.57593 5.68197 25.9282 23.8097 -0.824821 9.46295 60.9958
627602 5.25981 5.46166 26.1054 24.141 -0.722741 9.72436 60.9678
627613 5.25981 5.46166 26.1054 24.141 -0.722741 9.72436 60.9678
627622 5.13688 5.18629 26.3909 24.3553 -0.81307 9.9288 61.0693
627633 5.13688 5.18629 26.3909 24.3553 -0.81307 9.9288 61.0693
627643 4.82955 4.93845 26.5582 24.6476 -0.738731 10.194 60.9737
627652 4.71539 4.68143 26.6763 24.7937 -0.787206 10.3685 60.8668
627681 4.58368 4.58963 26.6665 24.9106 -0.720124 10.47 60.7504
627692 4.46952 4.47948 26.7157 25.1347 -0.646004 10.5843 60.7994
627693 4.46952 4.47948 26.7157 25.1347 -0.646004 10.5843 60.7994
627703 4.36415 4.47948 26.8338 25.388 -0.544713 10.6553 61.0654
627716 4.36415 4.47948 26.8338 25.388 -0.544713 10.6553 61.0654
627724 4.19731 4.4703 26.8732 25.5633 -0.424227 10.7445 61.1041
627733 4.12707 4.40605 26.8929 25.6802 -0.381985 10.8107 61.1062
627744 4.12707 4.40605 26.8929 25.6802 -0.381985 10.8107 61.1062
627754 4.09194 4.31425 26.9126 25.8556 -0.341102 10.8776 61.1744
627765 3.91632 4.2041 27.0208 25.9433 -0.32324 11.0119 61.0845
627784 3.90754 4.13067 26.9618 25.9725 -0.314145 11.045 60.9725
627794 3.90754 4.13067 26.9618 25.9725 -0.314145 11.045 60.9725
627804 3.79339 4.13067 26.9126 25.8848 -0.284277 11.085 60.7214
627814 3.75826 4.13067 26.9519 26.0212 -0.229344 11.1114 60.8621
627835 3.79339 4.05724 26.9126 26.0602 -0.241907 11.1278 60.8234
627845 3.7407 4.05724 26.824 26.0309 -0.196402 11.143 60.6529
627855 3.7407 4.05724 26.824 26.0309 -0.196402 11.143 60.6529
627866 3.75826 4.12149 26.8043 26.0017 -0.18099 11.1046 60.6858
627876 3.75826 4.12149 26.8043 26.0017 -0.18099 11.1046 60.6858
627886 3.81095 4.16739 26.9126 26.0407 -0.211483 11.0718 60.9316
627896 3.82851 4.25 26.8732 26.0309 -0.172493 11.0258 60.9827
627906 3.82851 4.25 26.8732 26.0309 -0.172493 11.0258 60.9827
627916 3.81973 4.27754 26.7944 26.0407 -0.121424 11.0133 60.9324
627927 3.9251 4.33261 26.6763 25.8848 -0.157844 10.9267 60.8188
627935 3.9251 4.33261 26.6763 25.8848 -0.157844 10.9267 60.8188
627947 3.96901 4.43359 26.6763 25.7192 -0.202532 10.8539 60.7981
627956 3.96901 4.43359 26.6763 25.7192 -0.202532 10.8539 60.7981
627967 3.96023 4.48866 26.696 25.5244 -0.265051 10.8222 60.6693
627976 4.09194 4.61717 26.5976 25.4074 -0.273781 10.6967 60.7141
627996 4.17975 4.70896 26.4893 25.2418 -0.29621 10.6011 60.6198
628006 4.34659 4.88337 26.381 25.0567 -0.324513 10.4358 60.6677
628016 4.34659 4.88337 26.381 25.0567 -0.324513 10.4358 60.6677
628028 4.50465 5.03942 26.3515 24.7645 -0.433663 10.2799 60.66
628036 4.50465 5.03942 26.3515 24.7645 -0.433663 10.2799 60.66
628046 4.56612 5.21382 26.1743 24.5307 -0.411642 10.1492 60.4849
628056 4.74174 5.4892 26.0857 24.3845 -0.392789 9.94362 60.7012
628066 4.74174 5.4892 26.0857 24.3845 -0.392789 9.94362 60.7012
628076 4.90857 5.69114 26.0365 24.1605 -0.449635 9.76959 60.7967
628086 5.02273 5.79212 25.8396 23.9072 -0.480112 9.64272 60.5616
628096 5.02273 5.79212 25.8396 23.9072 -0.480112 9.64272 60.5616
628106 5.09298 6.04914 25.7412 23.5662 -0.504063 9.47037 60.4495
628117 5.09298 6.04914 25.7412 23.5662 -0.504063 9.47037 60.4495
628128 5.23347 6.16847 25.7609 23.3032 -0.629574 9.34296 60.466
628137 5.3564 6.31533 25.7018 23.0888 -0.683914 9.20876 60.4624
628149 5.3564 6.31533 25.7018 23.0888 -0.683914 9.20876 60.4624
628157 5.55837 6.5081 25.5837 22.7673 -0.772376 9.00845 60.4175
628168 5.58471 6.5081 25.564 22.3582 -0.950775 8.9551 60.015
628177 5.58471 6.61825 25.564 22.3582 -0.903232 8.91122 60.1251
628189 5.77789 6.80184 25.4557 21.9587 -1.03052 8.70953 59.9942
628197 5.77789 6.80184 25.4557 21.9587 -1.03052 8.70953 59.9942
628207 6.01498 7.07721 25.2687 21.4911 -1.13418 8.43771 59.852
628218 6.25207 7.32505 25.1899 21.004 -1.30202 8.18544 59.7711
628228 6.25207 7.32505 25.1899 21.004 -1.30202 8.18544 59.7711
628238 6.60331 7.68305 24.9734 20.3805 -1.47263 7.81373 59.6402
628249 6.97211 8.18791 24.6485 19.7862 -1.5297 7.36845 59.5948
628258 6.97211 8.18791 24.6485 19.7862 -1.5297 7.36845 59.5948
628268 7.4814 8.66523 24.2646 19.2407 -1.60938 6.87958 59.6519
628288 8.06973 9.2527 23.6937 18.51 -1.68022 6.26984 59.5261
628306 8.88636 10.0146 22.9062 17.7209 -1.70385 5.47461 59.5281
628315 8.88636 10.0146 22.9062 17.7209 -1.70385 5.47461 59.5281
628332 9.71178 10.703 22.0695 16.8294 -1.79082 4.6745 59.3137
628336 10.546 11.3456 21.2328 16.0145 -1.86793 3.89483 59.1388
628360 10.546 11.3456 21.2328 16.0145 -1.86793 3.89483 59.1388
628362 11.5997 12.0891 20.2287 15.0479 -1.98904 2.9478 58.9654
628364 11.5997 12.0891 20.2287 15.0479 -1.98904 2.9478 58.9654
628371 12.5832 12.851 19.1656 14.0909 -2.04758 1.99921 58.6906
628383 13.5227 13.567 18.2501 13.1527 -2.15976 1.10609 58.4926
628391 13.5227 13.567 18.2501 13.1527 -2.15976 1.10609 58.4926
628401 14.4272 14.3013 17.2855 12.2241 -2.22675 0.201178 58.238
628411 15.235 14.9347 16.3402 11.4565 -2.23579 -0.614052 57.9664
628421 15.235 14.9347 16.3402 11.4565 -2.23579 -0.614052 57.9664
628433 16.1482 15.6965 15.4845 10.7553 -2.22991 -1.44745 58.0846
628441 17 16.3299 14.6186 10.0541 -2.25618 -2.23886 58.0025
628452 17 16.3299 14.6186 10.0541 -2.25618 -2.23886 58.0025
628465 17.9367 16.9816 13.8557 9.4476 -2.30289 -2.99246 58.2216
628472 17.9367 16.9816 13.8557 9.4476 -2.30289 -2.99246 58.2216
628482 18.714 17.6127 13.0309 8.75585 -2.31286 -3.75297 58.1134
628492 19.4414 18.0795 12.4433 8.22519 -2.39733 -4.3442 58.1894
628512 20.0393 18.5269 11.9485 7.71349 -2.4676 -4.86987 58.2281
628524 20.5873 18.877 11.4742 7.29654 -2.52769 -5.33018 58.2351
628533 20.5873 18.877 11.4742 7.29654 -2.52769 -5.33018 58.2351
628544 21.0856 19.159 11.0309 6.92698 -2.59031 -5.74375 58.2025
628553 21.0856 19.159 11.0309 6.92698 -2.59031 -5.74375 58.2025
628566 21.534 19.373 10.7113 6.65217 -2.66866 -6.06056 58.2705
628572 21.9027 19.7037 10.3814 6.34894 -2.6705 -6.39631 58.3367
628582 21.9027 19.7037 10.3814 6.34894 -2.6705 -6.39631 58.3367
628592 22.1618 19.8495 10.1134 6.14047 -2.6968 -6.63109 58.2652
628603 19.82 19.8495 9.96907 6.14047 -1.70275 -6.33572 55.7791
628613 22.371 20.0149 9.96907 5.95095 -2.73312 -6.80871 58.3059
628623 22.5404 20.0927 9.76289 5.81828 -2.74519 -6.97044 58.2143
628633 22.5404 20.0927 9.76289 5.81828 -2.74519 -6.97044 58.2143
628645 22.6301 20.0149 9.69072 5.68562 -2.85255 -7.04965 58.0213
628653 22.66 20.0538 9.70103 5.67614 -2.85377 -7.05875 58.091
628667 22.66 20.0538 9.70103 5.67614 -2.85377 -7.05875 58.091
628673 22.6899 20.0149 9.68041 5.62876 -2.89874 -7.08337 58.014
628683 22.6401 19.9954 9.81443 5.63824 -2.93556 -7.01937 58.0882
628693 22.6401 19.9954 9.81443 5.63824 -2.93556 -7.01937 58.0882
628705 22.5703 19.9565 9.97938 5.75195 -2.93574 -6.89917 58.2582
628725 22.5205 19.9371 10.1546 5.78986 -2.97431 -6.80963 58.4021
628734 22.6002 19.9371 10.3505 5.82776 -3.05963 -6.73391 58.7156
628745 22.6002 19.9371 10.3505 5.82776 -3.05963 -6.73391 58.7156
628754 22.5803 19.9468 10.3814 5.82776 -3.05909 -6.72103 58.7363
628765 22.5106 19.976 10.4742 5.9699 -2.9861 -6.62874 58.9307
628776 22.5106 19.976 10.4742 5.9699 -2.9861 -6.62874 58.9307
628786 22.4906 19.9176 10.5052 5.96042 -3.02245 -6.60973 58.8738
628796 22.4906 19.9176 10.5052 5.96042 -3.02245 -6.60973 58.8738
628806 22.4109 19.8398 10.4536 5.96042 -3.01044 -6.60619 58.6647
628816 22.2814 19.8593 10.4021 5.932 -2.94664 -6.61993 58.4747
628827 22.2814 19.8593 10.4021 5.932 -2.94664 -6.61993 58.4747
628836 22.0821 19.762 10.4639 5.932 -2.94127 -6.5543 58.24
628848 21.8728 19.7328 10.4742 6.05518 -2.82059 -6.47017 58.1351
628856 21.8728 19.7328 10.4742 6.05518 -2.82059 -6.47017 58.1351
628870 21.7034 19.5967 10.7526 6.12152 -2.89552 -6.29815 58.1742
628876 21.7034 19.5967 10.7526 6.12152 -2.89552 -6.29815 58.1742
628888 21.5938 19.6745 10.8969 6.22575 -2.8217 -6.20275 58.3909
628897 21.6635 19.7815 10.9588 6.33946 -2.76686 -6.16584 58.7432
628908 21.6635 19.7815 10.9588 6.33946 -2.76686 -6.16584 58.7432
628917 21.803 19.9273 11.0412 6.32999 -2.78628 -6.18236 59.1016
628927 21.7831 19.869 11.0412 6.32051 -2.81072 -6.17407 59.0139
628937 21.7831 19.869 11.0412 6.32051 -2.81072 -6.17407 59.0139
628947 21.7532 19.7717 10.9588 6.33946 -2.80535 -6.17785 58.8232
628957 21.7532 19.7717 10.9588 6.33946 -2.80535 -6.17785 58.8232
628966 21.6735 19.7523 10.8763 6.39632 -2.7263 -6.17219 58.6984
628977 21.6934 19.762 10.9278 6.32999 -2.78015 -6.18198 58.7133
628988 21.6934 19.762 10.9278 6.32999 -2.78015 -6.18198 58.7133
628996 21.6934 19.7134 10.866 6.37737 -2.75731 -6.1799 58.6502
629007 21.544 19.7134 10.8247 6.37737 -2.68474 -6.17229 58.4595
629017 21.544 19.6453 10.8247 6.33946 -2.73503 -6.17574 58.3535
629028 21.3148 19.4897 10.9278 6.48161 -2.69321 -6.02821 58.2139
629037 21.3148 19.4897 10.9278 6.48161 -2.69321 -6.02821 58.2139
629051 20.976 19.1299 11.1031 6.71851 -2.68901 -5.77038 57.9274
629057 20.7268 19.0326 11.4227 7.00279 -2.62703 -5.49988 58.1849
629069 20.7268 19.0326 11.4227 7.00279 -2.62703 -5.49988 58.1849
629079 20.4877 18.9256 11.8454 7.41973 -2.55106 -5.1505 58.6784
629089 20.4877 18.9256 11.8454 7.41973 -2.55106 -5.1505 58.6784
629097 20.2386 18.7117 12.3196 7.74192 -2.58617 -4.80126 59.0117
629109 20.0791 18.6533 12.5876 8.11148 -2.48267 -4.55146 59.4316
629117 20.0791 18.6533 12.5876 8.11148 -2.48267 -4.55146 59.4316
629127 19.7304 18.6436 12.7216 8.31048 -2.31371 -4.3788 59.4061
629137 19.2919 18.4296 12.9691 8.5 -2.25177 -4.11868 59.1906
629148 19.2919 18.4296 12.9691 8.5 -2.25177 -4.11868 59.1906
629158 18.8933 18.0601 13.1237 8.72742 -2.22327 -3.85232 58.8045
629170 18.8933 18.0601 13.1237 8.72742 -2.22327 -3.85232 58.8045
629177 18.3154 17.7489 13.4948 9.04013 -2.14218 -3.46316 58.5992
629187 17.847 17.3112 13.9381 9.46656 -2.13761 -3.01049 58.5629
629197 17.847 17.3112 13.9381 9.46656 -2.13761 -3.01049 58.5629
629209 17.1694 16.8807 14.4845 9.90245 -2.08379 -2.48038 58.4371
629218 16.561 16.385 15.1237 10.5658 -2.01836 -1.85633 58.6354
629229 16.561 16.385 15.1237 10.5658 -2.01836 -1.85633 58.6354
629238 15.9287 15.871 15.9897 11.3239 -1.99769 -1.13835 59.1132
629249 15.9287 15.871 15.9897 11.3239 -1.99769 -1.13835 59.1132
629258 15.3667 15.4212 16.7835 11.9588 -2.00332 -0.515448 59.5302
629269 14.8838 14.9622 17.502 12.6221 -2.00164 0.0695622 59.9701
629279 14.8838 14.9622 17.502 12.6221 -2.00164 0.0695622 59.9701
629288 14.3306 14.6042 17.9056 13.1148 -1.88355 0.521802 59.9552
629298 13.8476 14.2095 18.2994 13.6265 -1.79674 0.967466 59.983
629309 13.8476 14.2095 18.2994 13.6265 -1.79674 0.967466 59.983
629318 13.3559 13.8974 18.5947 14.015 -1.68639 1.34217 59.863
629329 13.3559 13.8974 18.5947 14.015 -1.68639 1.34217 59.863
629338 12.8466 13.4384 18.9097 14.413 -1.6377 1.771 59.6077
629348 12.3636 13.0988 19.2542 14.9627 -1.48978 2.20036 59.6793
629360 12.3636 13.0988 19.2542 14.9627 -1.48978 2.20036 59.6793
629371 11.8543 12.7041 19.5987 15.5123 -1.3561 2.65275 59.6694
629380 11.3363 12.1901 20.022 16.0429 -1.31113 3.15615 59.5912
629391 11.3363 12.1901 20.022 16.0429 -1.31113 3.15615 59.5912
629399 10.7918 11.6577 20.4551 16.8958 -1.12605 3.73778 59.8004
629409 10.7918 11.6577 20.4551 16.8958 -1.12605 3.73778 59.8004
629420 10.2474 10.9968 20.9178 17.8086 -0.983749 4.37269 59.9706
629429 9.65909 10.4735 21.4198 18.7341 -0.775985 4.98153 60.2865
629440 9.65909 10.4735 21.4198 18.7341 -0.775985 4.98153 60.2865
629449 9.22004 9.98704 21.8431 19.416 -0.686347 5.4705 60.4662
629460 8.69318 9.40875 22.3648 20.0883 -0.644444 6.03199 60.555
629470 8.69318 9.40875 22.3648 20.0883 -0.644444 6.03199 60.555
629481 8.3156 8.93143 22.8078 20.7799 -0.580256 6.49481 60.8347
629493 8.3156 8.93143 22.8078 20.7799 -0.580256 6.49481 60.8347
629501 7.9468 8.49082 23.1228 21.2476 -0.547284 6.89039 60.8079
629511 7.6219 8.07775 23.2507 21.7639 -0.424518 7.24252 60.7143
629521 7.6219 8.07775 23.2507 21.7639 -0.424518 7.24252 60.7143
629531 7.27066 7.65551 23.4378 22.1633 -0.36743 7.60193 60.5272
629541 6.90186 7.25162 23.5657 22.5043 -0.295426 7.94952 60.2235
629551 6.90186 7.25162 23.5657 22.5043 -0.295426 7.94952 60.2235
629561 6.65599 6.96706 23.9102 23.0109 -0.242919 8.2497 60.5442
629571 6.65599 6.96706 23.9102 23.0109 -0.242919 8.2497 60.5442
629590 6.27841 6.58153 24.2351 23.2739 -0.272508 8.60933 60.369
629611 6.02376 6.33369 24.5698 23.7415 -0.213575 8.88938 60.6688
629613 6.02376 6.33369 24.5698 23.7415 -0.213575 8.88938 60.6688
629623 5.47056 5.92981 25.0127 24.3066 -0.101656 9.36738 60.7197
629633 5.47056 5.92981 25.0127 24.3066 -0.101656 9.36738 60.7197
629643 5.3125 5.73704 25.2982 24.6476 -0.0926718 9.56538 60.9953
629653 5.05785 5.5351 25.4655 24.9398 -0.0198662 9.79021 60.9983
629663 5.05785 5.5351 25.4655 24.9398 -0.0198662 9.79021 60.9983
629673 4.88223 5.39741 25.692 25.1542 -0.00925213 9.95484 61.1257
629683 4.88223 5.39741 25.692 25.1542 -0.00925213 9.95484 61.1257
629694 4.63636 5.17711 25.8101 25.4269 0.0645369 10.1777 61.0505
629703 4.4344 4.94762 25.9873 25.5146 0.0166625 10.3771 60.8839
629714 4.4344 4.94762 25.9873 25.5146 0.0166625 10.3771 60.8839
629723 4.3905 4.88337 26.0759 25.6997 0.0478029 10.4428 61.0494
629734 4.3905 4.88337 26.0759 25.6997 0.0478029 10.4428 61.0494
629743 4.17097 4.61717 26.1743 25.8458 0.0484109 10.6643 60.8083
629754 4.09194 4.49784 26.2334 26.0309 0.0835985 10.7654 60.8541
629763 4.09194 4.49784 26.2334 26.0309 0.0835985 10.7654 60.8541
629775 4.02169 4.41523 26.3219 26.0407 0.0461668 10.837 60.7996
629783 3.98657 4.34179 26.3909 26.1089 0.0301063 10.8925 60.8281
629795 3.98657 4.34179 26.3909 26.1089 0.0301063 10.8925 60.8281
629803 3.99535 4.38769 26.381 26.0894 0.0413805 10.8673 60.8534
629815 4.01291 4.33261 26.4105 26.1089 0.00741184 10.8865 60.8649
629824 4.01291 4.33261 26.4105 26.1089 0.00741184 10.8865 60.8649
629834 3.94267 4.28672 26.5976 26.2355 -0.00736415 10.9569 61.0625
629844 3.94267 4.28672 26.5976 26.2355 -0.00736415 10.9569 61.0625
629856 3.8812 4.2041 26.6468 26.1868 -0.0562474 11.0183 60.9189
629866 3.91632 4.17657 26.8043 26.2648 -0.114158 11.0304 61.1619
629876 3.91632 4.17657 26.8043 26.2648 -0.114158 11.0304 61.1619
629886 3.84607 4.12149 26.8929 26.1673 -0.184394 11.0833 61.0278
629896 3.81095 4.05724 26.8732 26.1868 -0.180577 11.1258 60.9282
629906 3.81095 4.05724 26.8732 26.1868 -0.180577 11.1258 60.9282
629918 3.89876 4.09395 26.7944 26.1284 -0.193252 11.0637 60.9155
629926 3.89876 4.09395 26.7944 26.1284 -0.193252 11.0637 60.9155
629936 3.84607 4.12149 26.8141 26.0504 -0.200668 11.0707 60.8321
629946 3.85486 4.13067 26.8929 26.0894 -0.216372 11.0706 60.9678
629956 3.85486 4.13067 26.8929 26.0894 -0.216372 11.0706 60.9678
629966 3.88998 4.17657 26.883 25.953 -0.264128 11.0265 60.9026
629976 3.9251 4.17657 26.9421 25.9433 -0.306363 11.0147 60.987
629986 3.9251 4.17657 26.9421 25.9433 -0.306363 11.0147 60.987
629996 3.93388 4.18575 26.9716 25.8166 -0.370701 11.0007 60.9079
630016 3.96023 4.22246 26.9618 25.7289 -0.398619 10.9674 60.8734
630027 4.01291 4.26836 26.9913 25.5438 -0.490013 10.9149 60.8164
630037 4.01291 4.26836 26.9913 25.5438 -0.490013 10.9149 60.8164
630047 4.10072 4.32343 26.9618 25.4269 -0.539416 10.8442 60.8129
630057 4.15341 4.43359 27.0307 25.2029 -0.636153 10.7644 60.8205
630067 4.15341 4.43359 27.0307 25.2029 -0.636153 10.7644 60.8205
630077 4.21488 4.5162 27.0012 25.0762 -0.667512 10.6925 60.8084
630087 4.21488 4.5162 27.0012 25.0762 -0.667512 10.6925 60.8084
630097 4.25878 4.55292 26.9126 24.9203 -0.700016 10.641 60.6446
630107 4.38171 4.71814 26.8437 24.745 -0.725938 10.5017 60.6885
630117 4.38171 4.71814 26.8437 24.745 -0.725938 10.5017 60.6885
630130 4.53977 4.88337 26.568 24.4917 -0.716215 10.326 60.4829
630137 4.53977 4.88337 26.568 24.4917 -0.716215 10.326 60.4829
630147 4.67149 5.18629 26.3909 24.2189 -0.685138 10.1092 60.4675
630157 4.83833 5.4892 26.2334 23.9851 -0.659573 9.8828 60.546
630167 4.83833 5.4892 26.2334 23.9851 -0.659573 9.8828 60.546
630177 5.05785 5.71868 25.9577 23.4493 -0.767492 9.62817 60.1835
630188 5.33884 6.10421 25.8002 22.9817 -0.852305 9.29984 60.2249
630208 5.74277 6.54482 25.4754 22.4264 -0.933297 8.87553 60.1893
630218 6.0501 4.53456 25.1702 21.7249 -2.15765 9.47563 57.4798
630228 6.0501 6.88445 25.1702 21.7249 -1.091 8.51432 59.8297
630249 6.56818 7.33423 24.7076 21.0235 -1.22332 8.00607 59.6335
630263 7.04236 7.83909 24.2843 20.2831 -1.34758 7.49029 59.4489
630268 7.70093 8.43575 23.7134 19.5232 -1.45493 6.84649 59.3733
630288 8.38585 9.04158 23.1129 18.7536 -1.56154 6.18252 59.2939
630298 9.06198 9.68412 22.729 18.0424 -1.70725 5.55096 59.5175
630311 9.06198 9.68412 22.729 18.0424 -1.70725 5.55096 59.5175
630320 9.57128 10.446 22.227 17.3215 -1.69173 4.91839 59.5658
630339 10.0279 10.9509 21.9021 16.6683 -1.80978 4.43122 59.5492
630350 10.5723 11.52 21.3607 15.9482 -1.87913 3.8425 59.4012
630359 10.5723 11.52 21.3607 15.9482 -1.87913 3.8425 59.4012
630371 11.2309 12.1992 20.7701 15.1616 -1.95417 3.159 59.3619
630379 11.9334 12.7684 19.8842 14.413 -1.96451 2.43958 58.999
630389 11.9334 12.7684 19.8842 14.413 -1.96451 2.43958 58.999
630400 12.6095 13.4935 19.0967 13.6929 -1.91867 1.70307 58.8926
630414 12.6095 13.4935 19.0967 13.6929 -1.91867 1.70307 58.8926
630421 13.2769 14.0535 18.2403 12.9727 -1.91782 0.994821 58.5433
630431 13.9881 14.7327 17.3445 12.2809 -1.85059 0.232565 58.3463
630442 13.9881 14.7327 17.3445 12.2809 -1.85059 0.232565 58.3463
630451 14.6906 15.3569 16.567 11.6745 -1.81262 -0.464761 58.289
630461 15.1823 15.8618 15.8351 11.1533 -1.72418 -1.04832 58.0324
630472 15.1823 15.8618 15.8351 11.1533 -1.72418 -1.04832 58.0324
630481 15.6829 16.3666 15.3402 10.7363 -1.68603 -1.54137 58.126
630493 15.6829 16.3666 15.3402 10.7363 -1.68603 -1.54137 58.126
630501 16.1043 16.7705 14.8454 10.3004 -1.67127 -1.99818 58.0207
630512 16.4292 17.0778 14.5052 10.073 -1.62845 -2.3058 58.0852
630521 16.4292 17.0778 14.5052 10.073 -1.62845 -2.3058 58.0852
630532 16.8771 17.496 14.1546 9.76031 -1.61929 -2.69132 58.288
630542 17.1594 17.8753 13.8866 9.52341 -1.56016 -2.98351 58.4447
630562 17.5182 18.2254 13.4948 9.26756 -1.50415 -3.32817 58.506
630573 17.5182 18.2254 13.4948 9.26756 -1.50415 -3.32817 58.506
630582 17.7773 18.4588 13.1031 8.9359 -1.49534 -3.65433 58.2751
630594 18.1061 18.9159 12.701 8.62319 -1.40028 -4.03568 58.3462
630602 18.1061 18.9159 12.701 8.62319 -1.40028 -4.03568 58.3462
630614 18.4549 19.2952 12.3196 8.31996 -1.35268 -4.39561 58.3896
630622 18.7239 19.2952 11.9381 8.03567 -1.43604 -4.66745 57.9929
630632 18.7239 19.48 11.9381 8.03567 -1.35207 -4.70027 58.1777
630643 19.1325 19.8398 11.5464 7.76087 -1.32044 -5.06139 58.2795
630652 19.1325 19.8398 11.5464 7.76087 -1.32044 -5.06139 58.2795
630662 19.4912 20.0635 11.1753 7.44816 -1.35567 -5.39669 58.1781
630672 19.8699 20.3358 10.7835 7.18283 -1.34718 -5.73455 58.172
630682 19.8699 20.3358 10.7835 7.18283 -1.34718 -5.73455 58.172
630694 20.2087 20.5595 10.4948 6.93645 -1.37784 -6.01471 58.1995
630702 20.3382 20.6567 10.1856 6.74693 -1.34655 -6.23084 57.9275
630723 20.5275 20.6665 10.1134 6.63322 -1.44167 -6.32908 57.9406
630733 20.5275 20.6665 10.1134 6.63322 -1.44167 -6.32908 57.9406
630744 20.6172 20.7248 10.0206 6.56689 -1.44405 -6.40982 57.9296
630754 20.7069 20.7054 10.1443 6.42475 -1.60444 -6.42703 57.9814
630775 20.7268 20.7346 10.1649 6.51003 -1.56838 -6.39524 58.1364
630784 20.7268 20.6957 10.2887 6.60479 -1.59264 -6.30935 58.316
630795 20.7268 20.6957 10.2887 6.60479 -1.59264 -6.30935 58.316
630805 20.8165 20.6665 10.3711 6.6806 -1.6403 -6.26071 58.5347
630814 20.8165 20.6665 10.3711 6.6806 -1.6403 -6.26071 58.5347
630824 20.8763 20.6957 10.5052 6.66165 -1.71274 -6.2323 58.7388
630835 21.0158 20.7832 10.5876 6.69008 -1.74781 -6.22613 59.0767
630848 21.0158 20.7832 10.5876 6.69008 -1.74781 -6.22613 59.0767
630855 21.1753 20.7929 10.5773 6.59532 -1.8449 -6.28894 59.1408
630866 21.3148 20.8026 10.433 6.50056 -1.88167 -6.39715 59.0509
630876 21.3148 20.8026 10.433 6.50056 -1.88167 -6.39715 59.0509
630891 21.4244 20.8318 10.2784 6.22575 -1.97633 -6.57385 58.7603
630894 21.4244 20.8318 10.2784 6.22575 -1.97633 -6.57385 58.7603
630904 21.5739 20.6665 10.1546 6.06466 -2.1371 -6.67667 58.4596
630916 21.7034 20.6859 10.0412 5.87514 -2.22258 -6.81056 58.3057
630927 21.7034 20.6859 10.0412 5.87514 -2.22258 -6.81056 58.3057
630936 21.813 20.6373 9.90722 5.72352 -2.30687 -6.92642 58.0811
630947 21.9226 20.6276 9.8866 5.62876 -2.39078 -6.98388 58.0656
630956 21.9226 20.6276 9.8866 5.62876 -2.39078 -6.98388 58.0656
630966 22.0023 20.5887 9.78351 5.54348 -2.44039 -7.06103 57.918
630976 22.0023 20.5887 9.78351 5.54348 -2.44039 -7.06103 57.918
630987 22.0721 20.6081 9.78351 5.48662 -2.48526 -7.09489 57.9503
630996 22.2814 20.6178 9.81443 5.55295 -2.54219 -7.08772 58.2666
631008 22.2814 20.6178 9.81443 5.55295 -2.54219 -7.08772 58.2666
631017 22.371 20.6276 9.90722 5.60981 -2.58088 -7.04468 58.5156
631028 22.4906 20.5109 9.96907 5.61929 -2.70078 -7.01823 58.5899
631047 22.5305 20.4622 10.0309 5.65719 -2.7445 -6.9796 58.6808
631058 22.5305 20.4622 10.0309 5.65719 -2.7445 -6.9796 58.6808
631067 22.5106 20.3455 10.0928 5.67614 -2.80668 -6.93062 58.625
631077 22.4607 20.3164 10.1649 5.74248 -2.79752 -6.868 58.6845
631088 22.4607 20.3164 10.1649 5.74248 -2.79752 -6.868 58.6845
631097 22.4209 20.1997 10.3196 5.79933 -2.86922 -6.76758 58.7394
631107 22.2415 20.0343 10.3196 5.97938 -2.79446 -6.65223 58.5748
631128 22.0621 19.9371 10.4227 5.97938 -2.81174 -6.57447 58.4013
631138 22.0621 19.9371 10.4227 5.97938 -2.81174 -6.57447 58.4013
631148 21.7831 19.7328 10.6598 6.21628 -2.78026 -6.3296 58.392
631157 21.4941 19.5189 10.866 6.48161 -2.72428 -6.08255 58.3606
631168 21.4941 19.5189 10.866 6.48161 -2.72428 -6.08255 58.3606
631179 21.1653 19.3244 11.1546 6.6427 -2.72482 -5.83981 58.287
631188 20.6671 18.984 11.567 7.05964 -2.65558 -5.41143 58.2777
631198 20.6671 18.984 11.567 7.05964 -2.65558 -5.41143 58.2777
631208 20.2784 18.663 12.0928 7.53344 -2.63572 -4.9469 58.5677
631218 20.2784 18.663 12.0928 7.53344 -2.63572 -4.9469 58.5677
631228 19.7304 18.274 12.6289 8.07358 -2.56002 -4.42076 58.7068
631238 19.2022 17.8461 13.268 8.68952 -2.51443 -3.83625 59.0059
631248 19.2022 17.8461 13.268 8.68952 -2.51443 -3.83625 59.0059
631257 18.6442 17.4474 13.9381 9.30546 -2.45618 -3.24798 59.3352
631268 17.9766 17.0097 14.4948 9.82664 -2.37533 -2.69732 59.3078
631278 17.9766 17.0097 14.4948 9.82664 -2.37533 -2.69732 59.3078
631288 17.289 16.5869 15.1546 10.4426 -2.27586 -2.08801 59.4731
631298 17.289 16.5869 15.1546 10.4426 -2.27586 -2.08801 59.4731
631308 16.6751 16.0821 15.7113 11.087 -2.19015 -1.50084 59.5555
631318 16.1043 15.4946 16.268 11.6555 -2.1934 -0.926215 59.5225
631328 16.1043 15.4946 16.268 11.6555 -2.1934 -0.926215 59.5225
631338 15.3755 14.8429 16.8247 12.3662 -2.10033 -0.25941 59.4093
631348 15.3755 14.8429 16.8247 12.3662 -2.10033 -0.25941 59.4093
631360 14.6291 14.182 17.443 13.1527 -1.99363 0.450606 59.4068
631368 13.9003 13.4476 18.3289 14.0909 -1.96206 1.27288 59.7677
631378 13.9003 13.4476 18.3289 14.0909 -1.96206 1.27288 59.7677
631390 13.0486 12.75 18.9983 15.1332 -1.73686 2.08567 59.93
631398 12.3636 11.9973 19.9039 16.0145 -1.765 2.87597 60.2793
631410 12.3636 11.9973 19.9039 16.0145 -1.765 2.87597 60.2793
631418 11.5207 11.3915 20.6028 16.8958 -1.58755 3.62181 60.4107
631431 11.5207 11.3915 20.6028 16.8958 -1.58755 3.62181 60.4107
631438 10.7567 10.7306 21.3115 17.7404 -1.48551 4.35205 60.5392
631448 10.063 10.1247 21.8431 18.5003 -1.35512 4.99469 60.5311
631458 10.063 10.1247 21.8431 18.5003 -1.35512 4.99469 60.5311
631471 9.48347 9.65659 22.2171 19.0264 -1.24937 5.49076 60.3836
631478 9.0093 9.23434 22.5321 19.5037 -1.16265 5.92048 60.2795
631488 9.0093 9.23434 22.5321 19.5037 -1.16265 5.92048 60.2795
631498 8.6844 8.88553 22.8373 19.9226 -1.12445 6.26307 60.3299
631513 8.6844 8.88553 22.8373 19.9226 -1.12445 6.26307 60.3299
631522 8.30682 8.4541 23.1129 20.2831 -1.11481 6.6414 60.1569
631532 8.00826 8.18791 23.3098 20.7897 -0.970413 6.94162 60.2956
631549 7.59556 7.82991 23.7134 21.2963 -0.902928 7.34279 60.4351
631561 7.21798 7.38931 24.1268 21.8418 -0.872311 7.7658 60.5759
631573 7.21798 7.38931 24.1268 21.8418 -0.872311 7.7658 60.5759
631579 6.76136 7.0405 24.432 22.3387 -0.748752 8.16429 60.5725
631601 6.35744 6.7284 24.806 22.7381 -0.699715 8.52507 60.63
631611 6.11157 6.41631 25.1702 23.235 -0.668991 8.83198 60.9331
631621 6.11157 6.41631 25.1702 23.235 -0.668991 8.83198 60.9331
631631 5.64618 6.08585 25.3179 23.6636 -0.500137 9.20293 60.7135
631641 5.37397 5.81048 25.436 24.1605 -0.345114 9.47963 60.7809
631651 5.37397 5.81048 25.436 24.1605 -0.345114 9.47963 60.7809
631661 5.16322 5.62689 25.5246 24.5599 -0.205773 9.68246 60.8746
631672 4.83833 5.62689 25.6624 24.9691 0.0389546 9.86132 61.0967
631683 4.83833 5.36069 25.6624 24.9691 -0.0702783 9.97011 60.8305
631692 4.71539 5.16793 25.7805 25.2711 -0.023365 10.1342 60.9349
631702 4.71539 5.16793 25.7805 25.2711 -0.023365 10.1342 60.9349
631712 4.50465 5.0486 25.8298 25.4269 0.0580162 10.287 60.8099
631722 4.3905 4.96598 25.9085 25.5536 0.0906616 10.3847 60.8186
631733 4.3905 4.96598 25.9085 25.5536 0.0906616 10.3847 60.8186
631743 4.27634 4.80994 26.1349 25.7971 0.0802249 10.5327 61.0183
631754 4.08316 4.6906 26.194 26.1479 0.229612 10.6932 61.1156
631763 4.08316 4.6906 26.194 26.1479 0.229612 10.6932 61.1156
631773 4.05682 4.65389 26.2432 26.294 0.264442 10.7334 61.2479
631784 4.05682 4.65389 26.2432 26.294 0.264442 10.7334 61.2479
631793 3.8812 4.5162 26.2727 26.4304 0.324321 10.8769 61.1005
631803 3.76705 4.43359 26.2235 26.5083 0.390327 10.9624 60.9324
631813 3.76705 4.43359 26.2235 26.5083 0.390327 10.9624 60.9324
631823 3.6968 4.36933 26.1251 26.6544 0.493833 11.023 60.8456
631836 3.58264 4.31425 25.9774 26.7811 0.63279 11.0942 60.6554
631844 3.58264 4.31425 25.9774 26.7811 0.63279 11.0942 60.6554
631854 3.58264 4.36015 26.0069 26.898 0.685543 11.0839 60.8477
631864 3.58264 4.36015 26.0069 26.898 0.685543 11.0839 60.8477
631874 3.5563 4.28672 26.066 26.9175 0.650162 11.1318 60.8265
631884 3.52118 4.2959 26.0955 27.161 0.753275 11.1602 61.0736
631896 3.52118 4.2959 26.0955 27.161 0.753275 11.1602 61.0736
631904 3.45093 4.2959 26.1546 27.2682 0.800464 11.2007 61.1696
631916 3.41581 4.26836 26.1054 27.3461 0.856006 11.2293 61.1357
631926 3.41581 4.26836 26.1054 27.3461 0.856006 11.2293 61.1357
631936 3.41581 4.18575 26.1251 27.3461 0.815013 11.266 61.0728
631946 3.42459 4.21328 26.0069 27.3461 0.872213 11.2431 60.991
631956 3.42459 4.21328 26.0069 27.3461 0.872213 11.2431 60.991
631966 3.44215 4.27754 25.9577 27.3266 0.903347 11.2037 61.0041
631976 3.44215 4.27754 25.9577 27.3266 0.903347 11.2037 61.0041
631988 3.44215 4.24082 25.9577 27.3948 0.915772 11.2237 61.0355
631998 3.45093 4.35097 25.9282 27.3266 0.941128 11.1666 61.0568
632007 3.45093 4.35097 25.9282 27.3266 0.941128 11.1666 61.0568
632017 3.38946 4.35097 25.9184 27.2974 0.959939 11.1905 60.9562
632027 3.46849 4.33261 26.0168 27.2682 0.865796 11.1688 61.0861
632037 3.46849 4.33261 26.0168 27.2682 0.865796 11.1688 61.0861
632048 3.46849 4.32343 26.0365 27.2292 0.838423 11.1715 61.0576
632058 3.46849 4.32343 26.0365 27.2292 0.838423 11.1715 61.0576
632068 3.43337 4.32343 26.0168 27.1415 0.826898 11.1799 60.9151
632078 3.45971 4.36015 26.0365 26.9857 0.760016 11.1442 60.842
632088 3.45971 4.36015 26.0365 26.9857 0.760016 11.1442 60.842
632098 3.50362 4.36933 26.1251 26.859 0.657144 11.119 60.857
632109 3.53874 4.41523 26.2432 26.859 0.611043 11.0918 61.0562
632118 3.53874 4.41523 26.2432 26.859 0.611043 11.0918 61.0562
632128 3.58264 4.37851 26.3121 26.6544 0.467029 11.08 60.9277
632138 3.58264 4.37851 26.3121 26.6544 0.467029 11.08 60.9277
632148 3.57386 4.4703 26.4007 26.4791 0.400019 11.0389 60.9239
632158 3.64411 4.50702 26.4204 26.3427 0.322264 10.9856 60.9142
632171 3.64411 4.50702 26.4204 26.3427 0.322264 10.9856 60.9142
632179 3.73192 4.53456 26.3909 26.0699 0.198305 10.9163 60.7272
632189 3.75826 4.60799 26.3909 25.9433 0.165626 10.8651 60.7004
632199 3.75826 4.60799 26.3909 25.9433 0.165626 10.8651 60.7004
632211 3.89876 4.6906 26.4302 25.6413 0.00118613 10.7521 60.6609
632222 3.89876 4.6906 26.4302 25.6413 0.00118613 10.7521 60.6609
632231 3.97779 4.67225 26.4696 25.4367 -0.139733 10.7147 60.5563
632242 4.1095 4.77322 26.509 25.1152 -0.301652 10.5958 60.5069
632251 4.1095 4.77322 26.509 25.1152 -0.301652 10.5958 60.5069
632261 4.16219 4.92927 26.4696 24.7352 -0.401054 10.4766 60.2963
632271 4.37293 5.17711 26.2924 24.3553 -0.470509 10.2407 60.1978
632281 4.37293 5.17711 26.2924 24.3553 -0.470509 10.2407 60.1978
632291 4.64514 5.52592 26.0955 23.8779 -0.555673 9.92669 60.1445
632301 4.64514 5.52592 26.0955 23.8779 -0.555673 9.92669 60.1445
632313 5.03151 5.95734 25.7215 23.2155 -0.659221 9.49877 59.9258
632321 5.54081 6.58153 25.1604 22.5433 -0.658743 8.9212 59.826
632331 5.54081 6.58153 25.1604 22.5433 -0.658743 8.9212 59.826
632341 6.11157 7.27916 24.4221 21.8029 -0.60876 8.26148 59.6157
632351 6.82283 7.98596 23.7724 21.1014 -0.631621 7.55623 59.6827
632361 6.82283 7.98596 23.7724 21.1014 -0.631621 7.55623 59.6827
632371 7.51653 8.72948 23.1523 20.3123 -0.681208 6.83763 59.7106
632381 7.51653 8.72948 23.1523 20.3123 -0.681208 6.83763 59.7106
632391 8.1751 9.52808 22.5223 19.3771 -0.751749 6.08938 59.6026
632402 8.89514 10.29 21.8628 18.549 -0.804973 5.34256 59.5969
632411 8.89514 10.29 21.8628 18.549 -0.804973 5.34256 59.5969
632422 9.63275 11.0977 21.154 17.6625 -0.850831 4.5559 59.547
632431 10.2738 11.7127 20.3862 16.7821 -0.915052 3.84967 59.1548
632443 10.2738 11.7127 20.3862 16.7821 -0.915052 3.84967 59.1548
632453 10.9236 12.3278 19.6676 16.1566 -0.891568 3.19243 59.0756
632463 10.9236 12.3278 19.6676 16.1566 -0.891568 3.19243 59.0756
632472 11.468 12.7959 19.0376 15.4554 -0.959167 2.6114 58.7569
632483 11.9948 13.3742 18.5553 14.8584 -0.985633 2.05282 58.7827
632493 11.9948 13.3742 18.5553 14.8584 -0.985633 2.05282 58.7827
632504 12.5217 13.8607 17.9253 14.1667 -1.03449 1.46464 58.4744
632513 13.0749 14.3839 17.4922 13.5318 -1.13341 0.914412 58.4828
632524 13.0749 14.3839 17.4922 13.5318 -1.13341 0.914412 58.4828
632533 13.6018 15.0356 17.0197 12.9727 -1.11425 0.346661 58.6298
632544 14.1023 15.4395 16.5464 12.4041 -1.19888 -0.15163 58.4923
632553 14.1023 15.4395 16.5464 12.4041 -1.19888 -0.15163 58.4923
632564 14.6467 15.9352 16 11.8829 -1.20951 -0.692457 58.4648
632574 14.6467 15.9352 16 11.8829 -1.20951 -0.692457 58.4648
632586 15.1911 16.3758 15.433 11.3618 -1.23649 -1.22654 58.3617
632594 15.8146 16.899 14.7732 10.8501 -1.2165 -1.82312 58.3368
632606 15.8146 16.899 14.7732 10.8501 -1.2165 -1.82312 58.3368
632614 16.4556 17.389 14.0619 10.3004 -1.21462 -2.4436 58.2069
632626 16.4556 17.389 14.0619 10.3004 -1.21462 -2.4436 58.2069
632634 17.0399 17.885 13.4536 9.78874 -1.2119 -3.01266 58.1672
632644 17.7274 18.3518 12.8557 9.22965 -1.29014 -3.60888 58.1646
632654 17.7274 18.3518 12.8557 9.22965 -1.29014 -3.60888 58.1646
632664 18.3353 18.7603 12.2784 8.77481 -1.32356 -4.13829 58.1487
632674 18.993 19.1979 11.6804 8.31996 -1.35565 -4.68899 58.1913
632684 18.993 19.1979 11.6804 8.31996 -1.35565 -4.68899 58.1913
632694 19.6008 19.6064 11.134 7.84615 -1.41022 -5.21429 58.1874
632703 19.6008 19.6064 11.134 7.84615 -1.41022 -5.21429 58.1874
632714 20.1489 19.9079 10.6392 7.45764 -1.47133 -5.6643 58.1536
632727 20.5973 20.1899 10.268 7.09755 -1.53813 -6.0414 58.1528
632734 20.5973 20.1899 10.268 7.09755 -1.53813 -6.0414 58.1528
632744 20.9859 20.3747 9.8866 6.83222 -1.57784 -6.36417 58.0795
632754 21.3347 20.6276 9.61856 6.58584 -1.60738 -6.64243 58.1667
632767 21.3347 20.6276 9.61856 6.58584 -1.60738 -6.64243 58.1667
632774 21.5141 20.8221 9.49485 6.41527 -1.6188 -6.80542 58.2463
632784 21.5141 20.8221 9.49485 6.41527 -1.6188 -6.80542 58.2463
632794 21.7333 20.8902 9.40206 6.21628 -1.72939 -6.95509 58.2418
632804 21.9226 20.9485 9.40206 6.14994 -1.80846 -7.01412 58.4231
632814 21.9226 20.9485 9.40206 6.14994 -1.80846 -7.01412 58.4231
632827 22.0123 21.0166 9.30928 5.96042 -1.86307 -7.14233 58.2986
632834 22.1917 21.1527 9.28866 5.95095 -1.86767 -7.19603 58.584
632844 22.1917 21.1527 9.28866 5.95095 -1.86767 -7.19603 58.584
632854 22.2814 21.1625 9.21649 5.87514 -1.90493 -7.26539 58.5355
632864 22.2814 21.1625 9.21649 5.87514 -1.90493 -7.26539 58.5355
632876 22.3312 21.1916 9.06186 5.76143 -1.90243 -7.37827 58.3461
632886 22.3611 21.2889 9.04124 5.76143 -1.86133 -7.40274 58.4526
632896 22.3611 21.2889 9.04124 5.76143 -1.86133 -7.40274 58.4526
632906 22.2714 21.25 8.96907 5.65719 -1.86305 -7.4539 58.1477
632916 22.1618 21.1625 8.94845 5.72352 -1.82091 -7.41055 57.9962
632926 22.1618 21.1625 8.94845 5.72352 -1.82091 -7.41055 57.9962
632936 22.0123 21.1138 9.04124 5.7709 -1.79881 -7.33039 57.9383
632948 22.0123 21.1138 9.04124 5.7709 -1.79881 -7.33039 57.9383
632956 21.7831 21.0944 9.23711 5.90357 -1.73319 -7.17107 58.0182
632968 21.7532 21.0749 9.47423 6.0078 -1.77701 -7.03465 58.3102
632976 21.7532 21.0749 9.47423 6.0078 -1.77701 -7.03465 58.3102
632987 21.5938 21.0555 9.68041 6.27313 -1.68318 -6.83305 58.6028
632996 21.4543 20.9582 9.8866 6.39632 -1.69788 -6.67759 58.6954
633006 21.4543 20.9582 9.8866 6.39632 -1.69788 -6.67759 58.6954
633016 21.3247 20.8999 10.1031 6.53846 -1.6943 -6.51895 58.8662
633029 21.3247 20.8999 10.1031 6.53846 -1.6943 -6.51895 58.8662
633037 21.1753 20.7735 10.268 6.59532 -1.73201 -6.39801 58.8121
633047 21.0856 20.754 10.433 6.75641 -1.69754 -6.26392 59.029
633056 21.0856 20.754 10.433 6.75641 -1.69754 -6.26392 59.029
633070 20.9361 20.647 10.5876 6.86065 -1.70082 -6.13272 59.0314
633077 20.8165 20.647 10.6701 6.86065 -1.68616 -6.0852 58.9943
633087 20.8165 20.5206 10.6701 6.85117 -1.74778 -6.06944 58.8584
633097 20.6671 20.365 10.8041 6.87012 -1.80392 -5.96813 58.7063
633107 20.6671 20.365 10.8041 6.87012 -1.80392 -5.96813 58.7063
633117 20.5774 20.151 10.8557 6.96488 -1.84338 -5.8689 58.549
633127 20.3482 19.8495 11.1237 7.05017 -1.95822 -5.65956 58.3716
633137 20.3482 19.8495 11.1237 7.05017 -1.95822 -5.65956 58.3716
633147 20.119 19.5383 11.5258 7.24916 -2.07816 -5.36067 58.4323
633157 20.119 19.5383 11.5258 7.24916 -2.07816 -5.36067 58.4323
633170 19.84 19.1396 11.8247 7.5903 -2.11271 -5.0256 58.3946
633177 19.4115 18.7603 12.433 7.94091 -2.19626 -4.56 58.5457
633187 19.4115 18.7603 12.433 7.94091 -2.19626 -4.56 58.5457
633197 19.0627 18.4102 12.8866 8.301 -2.23239 -4.16429 58.6605
633207 18.4748 18.0309 13.5155 8.81271 -2.18695 -3.61463 58.8339
633217 18.4748 18.0309 13.5155 8.81271 -2.18695 -3.61463 58.8339
633227 17.9267 17.5543 14.2268 9.36232 -2.21637 -3.01979 59.0702
633237 17.9267 17.5543 14.2268 9.36232 -2.21637 -3.01979 59.0702
633249 17.2591 17 14.7732 9.8456 -2.20231 -2.45601 58.8779
633257 16.7102 16.6328 15.4433 10.5753 -2.08276 -1.85082 59.3616
633266 16.7102 16.6328 15.4433 10.5753 -2.08276 -1.85082 59.3616
633276 16.1834 16.183 15.9381 11.0301 -2.06809 -1.36467 59.3347
633288 15.6477 15.7516 16.4433 11.6081 -1.98957 -0.844709 59.4508
633297 15.6477 15.7516 16.4433 11.6081 -1.98957 -0.844709 59.4508
633308 15.1121 15.3018 17.0492 12.0725 -2.01014 -0.32558 59.5356
633317 15.1121 15.3018 17.0492 12.0725 -2.01014 -0.32558 59.5356
633329 14.4623 14.7786 17.6398 12.5084 -2.02695 0.229154 59.3891
633337 13.874 14.2921 18.2994 13.0295 -2.03869 0.797417 59.495
633348 13.874 14.2921 18.2994 13.0295 -2.03869 0.797417 59.495
633357 13.3295 13.7781 18.9294 13.6739 -2.01258 1.38057 59.7109
633367 13.3295 13.7781 18.9294 13.6739 -2.01258 1.38057 59.7109
633378 12.671 13.209 19.5889 14.233 -2.01748 1.9954 59.7018
633389 12.0914 12.5572 20.3862 14.9627 -2.06582 2.67516 59.9975
633397 12.0914 12.5572 20.3862 14.9627 -2.06582 2.67516 59.9975
633409 11.3538 11.9422 21.1442 15.6355 -2.04756 3.36665 60.0757
633417 10.6074 11.2446 22.0498 16.422 -2.06829 4.13263 60.3238
633437 10.6074 11.2446 22.0498 16.422 -2.06829 4.13263 60.3238
633438 10.0367 10.703 22.7389 17.1169 -2.04454 4.73205 60.5955
633454 9.46591 10.1982 23.2704 17.7501 -1.9725 5.27888 60.6846
633468 9.0093 9.73002 23.7724 18.2762 -1.964 5.7518 60.788
633479 9.0093 9.73002 23.7724 18.2762 -1.964 5.7518 60.788
633488 8.59659 9.2068 23.989 18.6172 -1.97055 6.15866 60.4096
633498 8.26291 8.85799 24.2056 18.89 -1.95981 6.47032 60.2164
633508 8.26291 8.85799 24.2056 18.89 -1.95981 6.47032 60.2164
633519 7.97314 8.5 24.4221 19.3186 -1.90016 6.79269 60.2139
633529 7.69215 8.2338 24.5107 19.5135 -1.85804 7.0304 59.9501
633539 7.69215 8.2338 24.5107 19.5135 -1.85804 7.0304 59.9501
633549 7.56921 8.03186 24.7076 19.835 -1.83311 7.21809 60.1436
633560 7.56921 8.03186 24.7076 19.835 -1.83311 7.21809 60.1436
633569 7.32335 7.80238 24.9045 20.0006 -1.84275 7.44101 60.0308
633581 7.20919 7.65551 25.0029 20.3318 -1.75449 7.59227 60.1994
633591 7.20919 7.65551 25.0029 20.3318 -1.75449 7.59227 60.1994
633599 7.10382 7.55454 25.1998 20.6143 -1.70934 7.72808 60.4725
633609 6.90186 7.3067 25.4655 20.8579 -1.73579 7.95816 60.532
633619 6.90186 7.3067 25.4655 20.8579 -1.73579 7.95816 60.532
633631 6.7438 7.15065 25.6821 20.965 -1.77986 8.11492 60.5416
633641 6.7438 7.15065 25.6821 20.965 -1.77986 8.11492 60.5416
633651 6.56818 6.92117 25.9873 21.2476 -1.806 8.33576 60.7242
633661 6.3311 6.7743 26.3613 21.4424 -1.83704 8.54511 60.9091
633671 6.3311 6.7743 26.3613 21.4424 -1.83704 8.54511 60.9091
633682 6.07645 6.53564 26.5287 21.647 -1.81882 8.77568 60.7877
633692 5.88326 6.39795 26.7058 21.8613 -1.77895 8.94501 60.8484
633702 5.88326 6.39795 26.7058 21.8613 -1.77895 8.94501 60.8484
633712 5.6813 6.10421 26.9027 22.1146 -1.79482 9.18505 60.8028
633732 5.52324 5.90227 27.0799 22.2802 -1.81813 9.36108 60.7856
633743 5.39153 5.78294 27.2276 22.5043 -1.77808 9.49591 60.9063
633753 5.39153 5.78294 27.2276 22.5043 -1.77808 9.49591 60.9063
633763 5.18079 5.54428 27.2965 22.7479 -1.72172 9.70536 60.7694
633774 5.01395 5.34233 27.4933 22.9622 -1.72778 9.89099 60.8118
633793 4.82076 5.16793 27.6016 23.1278 -1.69911 10.0647 60.7181
633803 4.69783 5.16793 27.6705 23.1278 -1.67835 10.1211 60.6641
633813 4.69783 5.01188 27.6705 23.3519 -1.64847 10.2037 60.7321
633823 4.6188 4.91091 27.6607 23.5175 -1.58591 10.2907 60.7079
633834 4.6188 4.91091 27.6607 23.5175 -1.58591 10.2907 60.7079
633844 4.53099 4.77322 27.6312 23.6441 -1.54541 10.3924 60.5795
633854 4.58368 4.76404 27.5426 23.8195 -1.45887 10.3808 60.7098
633864 4.58368 4.76404 27.5426 23.8195 -1.45887 10.3808 60.7098
633876 4.52221 4.83747 27.4737 23.9851 -1.30441 10.3831 60.8184
633883 4.52221 4.83747 27.4737 23.9851 -1.30441 10.3831 60.8184
633894 4.51343 4.77322 27.454 24.0338 -1.30004 10.4158 60.7744
633904 4.48709 4.76404 27.4047 24.1312 -1.2324 10.4343 60.7871
633925 4.46952 4.82829 27.3358 24.2287 -1.12895 10.417 60.8623
633934 4.4344 4.77322 27.2965 24.2481 -1.11498 10.4532 60.7522
633944 4.4344 4.77322 27.2965 24.2481 -1.11498 10.4532 60.7522
633954 4.46952 4.80076 27.198 24.3066 -1.05315 10.424 60.7749
633964 4.46952 4.80076 27.198 24.3066 -1.05315 10.424 60.7749
633974 4.49587 4.86501 27.1291 24.3358 -0.996356 10.3831 60.8258
633986 4.53977 4.9568 26.8633 24.4527 -0.819562 10.3152 60.8126
634006 4.49587 4.92927 26.824 24.4332 -0.806385 10.3404 60.6823
634016 4.52221 5.10367 26.5287 24.5307 -0.583562 10.2414 60.6852
634026 4.52221 5.10367 26.5287 24.5307 -0.583562 10.2414 60.6852
634036 4.50465 5.27808 26.3121 24.5112 -0.423843 10.1575 60.606
634046 4.50465 5.27808 26.1152 24.5112 -0.34375 10.1418 60.4091
634056 4.62758 5.30562 26.1152 24.5599 -0.361878 10.0832 60.6083
634065 4.68027 5.4433 25.9085 24.5307 -0.253794 9.98525 60.5627
634075 4.68027 5.4433 25.9085 24.5307 -0.253794 9.98525 60.5627
634085 4.73295 5.59017 25.7707 24.4527 -0.190248 9.88503 60.5465
634098 4.88223 5.67279 25.6624 24.5501 -0.132357 9.78915 60.7676
634106 4.88223 5.67279 25.6624 24.5501 -0.132357 9.78915 60.7676
634116 4.92614 5.8013 25.4852 24.3163 -0.121324 9.68316 60.529
634126 5.07541 5.95734 25.3573 24.1994 -0.113842 9.53729 60.5894
634137 5.07541 5.95734 25.3573 24.1994 -0.113842 9.53729 60.5894
634147 5.18079 6.09503 25.1604 24.0143 -0.0958726 9.40411 60.4505
634157 5.18079 6.09503 25.1604 24.0143 -0.0958726 9.40411 60.4505
634167 5.30372 6.20518 24.9734 23.7026 -0.15341 9.26322 60.1848
634177 5.46178 6.43467 24.7863 23.3421 -0.196303 9.05424 60.0249
634189 5.46178 6.43467 24.7863 23.3421 -0.196303 9.05424 60.0249
634197 5.62862 6.59071 24.6387 23.1375 -0.22462 8.88988 59.9955
634207 5.62862 6.59071 24.6387 23.1375 -0.22462 8.88988 59.9955
634217 5.84814 6.87527 24.491 22.6407 -0.343835 8.6229 59.8551
634227 6.1906 7.2149 24.1662 22.2315 -0.380565 8.27519 59.8032
634247 6.58574 7.60961 23.7528 21.647 -0.453851 7.8541 59.5951
634257 7.0687 8.05939 23.2507 21.0332 -0.516221 7.3611 59.4121
634278 7.74483 8.69276 22.601 20.3123 -0.564773 6.69132 59.351
634288 7.74483 8.69276 22.601 20.3123 -0.564773 6.69132 59.351
634297 8.37707 9.39957 22.0498 19.5622 -0.61675 6.02018 59.3886
634307 9.12345 10.088 21.4198 18.8997 -0.653245 5.31859 59.531
634318 9.12345 10.088 21.4198 18.8997 -0.653245 5.31859 59.531
634328 9.87862 10.7948 20.7307 18.0814 -0.728402 4.57389 59.4856
634338 10.5021 11.419 20.022 17.2143 -0.799027 3.88335 59.1574
634348 10.5021 11.419 20.022 17.2143 -0.799027 3.88335 59.1574
634358 11.2485 12.1533 19.264 16.3841 -0.836192 3.11084 59.0499
634378 11.8456 12.7775 18.6144 15.5881 -0.890054 2.44265 58.8255
634390 12.5832 13.4843 17.9155 14.7921 -0.945212 1.69461 58.775
634399 12.5832 13.4843 17.9155 14.7921 -0.945212 1.69461 58.775
634409 13.1012 14.0994 17.2067 14.1193 -0.892465 1.05732 58.5266
634418 13.6193 14.7419 16.4948 13.3991 -0.846773 0.39466 58.2552
634431 13.6193 14.7419 16.4948 13.3991 -0.846773 0.39466 58.2552
634440 14.155 15.3294 15.9588 12.7642 -0.867645 -0.196201 58.2073
634453 14.155 15.3294 15.9588 12.7642 -0.867645 -0.196201 58.2073
634460 14.6204 15.77 15.4948 12.2336 -0.908338 -0.687023 58.1187
634470 15.0945 16.1922 15.0412 11.8261 -0.910278 -1.13993 58.1541
634480 15.0945 16.1922 15.0412 11.8261 -0.910278 -1.13993 58.1541
634490 15.4809 16.5869 14.6082 11.485 -0.867099 -1.54088 58.161
634498 15.9814 17.0389 14.1031 11.1059 -0.832781 -2.01221 58.2293
634520 16.4117 17.5641 13.6186 10.7269 -0.745565 -2.47689 58.3212
634529 16.4117 17.5641 13.6186 10.7269 -0.745565 -2.47689 58.3212
634540 16.9561 18.0892 13.0515 10.2341 -0.721864 -3.02404 58.331
634549 17.5082 18.6339 12.5464 9.77926 -0.701867 -3.54463 58.4677
634560 17.5082 18.6339 12.5464 9.77926 -0.701867 -3.54463 58.4677
634569 18.136 19.1493 11.8144 9.28651 -0.648525 -4.15792 58.3862
634581 18.7538 19.6259 11.134 8.75585 -0.646187 -4.75972 58.2695
634591 18.7538 19.6259 11.134 8.75585 -0.646187 -4.75972 58.2695
634601 19.3916 20.2483 10.4845 8.10201 -0.655118 -5.42365 58.2264
634614 19.3916 20.2483 10.4845 8.10201 -0.655118 -5.42365 58.2264
634621 20.0891 20.8221 9.75258 7.57135 -0.621723 -6.07552 58.2351
634631 20.6671 21.3862 9.13402 7.05964 -0.581697 -6.65947 58.2469
634641 20.6671 21.3862 9.13402 7.05964 -0.581697 -6.65947 58.2469
634651 21.1454 21.8433 8.56701 6.62375 -0.535147 -7.16694 58.1794
634661 21.6038 22.2809 8.06186 6.12152 -0.543845 -7.67237 58.068
634675 21.6038 22.2809 8.06186 6.12152 -0.543845 -7.67237 58.068
634682 22.0023 22.6894 7.63918 5.79933 -0.495796 -8.06462 58.1302
634692 22.0023 22.6894 7.63918 5.79933 -0.495796 -8.06462 58.1302
634702 22.2415 23.0103 7.24742 5.52453 -0.411081 -8.39652 58.0237
634712 22.5006 23.3215 6.92783 5.33501 -0.33223 -8.66643 58.0849
634732 22.5006 23.3215 6.92783 5.33501 -0.33223 -8.66643 58.0849
634742 22.9689 23.8467 6.54639 4.98439 -0.293185 -9.07121 58.3464
634755 22.9689 23.8467 6.54639 4.98439 -0.293185 -9.07121 58.3464
634763 23.0387 23.9731 6.3299 4.76644 -0.27063 -9.27119 58.1081
634776 23.0885 24.0898 6.24742 4.71906 -0.226612 -9.34181 58.1448
634783 23.0885 24.0898 6.24742 4.71906 -0.226612 -9.34181 58.1448
634793 23.2181 24.2357 6.12371 4.57692 -0.227472 -9.47988 58.1544
634803 23.2181 24.2357 6.12371 4.57692 -0.227472 -9.47988 58.1544
634812 23.2878 24.3038 6.12371 4.48216 -0.268732 -9.53282 58.1975
634822 23.3376 24.3524 6.07217 4.49164 -0.242798 -9.55977 58.2538
634833 23.3376 24.3524 6.07217 4.49164 -0.242798 -9.55977 58.2538
634843 23.4672 24.4497 6.05155 4.41583 -0.279713 -9.62147 58.3842
634853 23.4672 24.4497 6.05155 4.41583 -0.279713 -9.62147 58.3842
634863 23.4572 24.4302 6.05155 4.30212 -0.333284 -9.66682 58.2411
634873 23.5469 24.3524 6.05155 4.29264 -0.409229 -9.67192 58.2435
634883 23.5469 24.3524 6.05155 4.29264 -0.409229 -9.67192 58.2435
634893 23.5967 24.2454 6.03093 4.19788 -0.50987 -9.7157 58.071
634903 23.6764 24.226 6.03093 4.19788 -0.551988 -9.72118 58.1312
634918 23.6764 24.226 6.03093 4.19788 -0.551988 -9.72118 58.1312
634923 23.7163 24.1384 6.1134 4.09365 -0.687893 -9.72611 58.0618
634934 23.7163 24.1384 6.1134 4.09365 -0.687893 -9.72611 58.0618
634945 23.7163 24.0315 6.17526 4.14103 -0.740159 -9.66988 58.064
634955 23.7761 23.9439 6.18557 4.15998 -0.799845 -9.6549 58.0656
634965 23.7761 23.9439 6.18557 4.15998 -0.799845 -9.6549 58.0656
634975 23.796 23.8272 6.26804 4.14103 -0.902858 -9.619 58.0323
634984 23.8857 23.7592 6.4433 4.22631 -1.0047 -9.511 58.3145
634995 23.8857 23.7592 6.4433 4.22631 -1.0047 -9.511 58.3145
635005 23.8359 23.623 6.58763 4.18841 -1.12136 -9.44867 58.2349
635017 23.8359 23.623 6.58763 4.18841 -1.12136 -9.44867 58.2349
635025 23.796 23.4479 6.72165 4.24526 -1.21303 -9.34801 58.2109
635034 23.7661 23.2826 6.90722 4.30212 -1.3254 -9.22775 58.2581
635045 23.7661 23.2826 6.90722 4.30212 -1.3254 -9.22775 58.2581
635055 23.6764 22.9908 7.19588 4.39688 -1.49527 -9.03051 58.26
635064 23.5569 22.7185 7.45361 4.55797 -1.60154 -8.8177 58.287
635084 23.3675 22.5046 7.76289 4.72854 -1.66941 -8.57916 58.3635
635106 23.2679 22.2809 8.04124 4.89911 -1.76491 -8.36269 58.4891
635120 23.0188 22.028 8.39175 5.11706 -1.8211 -8.07898 58.5556
635136 22.8294 21.8335 8.82474 5.32553 -1.91076 -7.7821 58.8132
635148 22.5305 21.5126 9.27835 5.60033 -1.99244 -7.42452 58.9218
635156 22.5305 21.5126 9.27835 5.60033 -1.99244 -7.42452 58.9218
635169 22.2614 21.2111 9.76289 5.81828 -2.11457 -7.08458 59.0537
635176 22.2614 21.2111 9.76289 5.81828 -2.11457 -7.08458 59.0537
635186 21.8828 20.8221 10.3505 6.10256 -2.24342 -6.65636 59.1579
635196 21.4244 20.4136 10.9588 6.4437 -2.33195 -6.18721 59.2405
635206 21.4244 20.4136 10.9588 6.4437 -2.33195 -6.18721 59.2405
635216 20.9162 19.8495 11.6392 6.81327 -2.48764 -5.65197 59.2182
635228 20.4777 19.4216 12.2784 7.09755 -2.63049 -5.1936 59.2753
635240 20.4777 19.4216 12.2784 7.09755 -2.63049 -5.1936 59.2753
635256 19.9496 18.9354 12.8144 7.54292 -2.65256 -4.69114 59.2423
635266 19.3318 18.4394 13.3711 7.93144 -2.67975 -4.1817 59.0737
635276 18.694 18.0406 13.9072 8.2631 -2.67275 -3.70877 58.905
635287 18.694 18.0406 13.9072 8.2631 -2.67275 -3.70877 58.905
635297 18.0762 17.5057 14.5258 8.75585 -2.69284 -3.13444 58.8635
635307 17.3189 16.8807 15.299 9.26756 -2.75228 -2.45882 58.7661
635317 17.3189 16.8807 15.299 9.26756 -2.75228 -2.45882 58.7661
635328 16.5522 16.2198 16.0515 9.94036 -2.74131 -1.73066 58.7638
635340 15.8497 15.5313 17.0295 10.8027 -2.76341 -0.898988 59.2132
635351 15.8497 15.5313 17.0295 10.8027 -2.76341 -0.898988 59.2132
635360 15.1823 14.8979 18.0434 11.6081 -2.81243 -0.107661 59.7318
635371 15.1823 14.8979 18.0434 11.6081 -2.81243 -0.107661 59.7318
635382 14.4799 14.1636 19.0278 12.5842 -2.80467 0.738979 60.2554
635390 13.7686 13.5394 19.9334 13.3802 -2.79704 1.48599 60.6216
635400 13.7686 13.5394 19.9334 13.3802 -2.79704 1.48599 60.6216
635410 13.0573 12.7867 20.6717 14.1477 -2.80012 2.2193 60.6635
635423 12.2934 12.0707 21.4198 14.7542 -2.8446 2.92622 60.5381
635429 12.2934 12.0707 21.4198 14.7542 -2.8446 2.92622 60.5381
635438 11.5558 11.3548 22.1581 15.3512 -2.89969 3.62432 60.4198
635450 11.5558 11.3548 22.1581 15.3512 -2.89969 3.62432 60.4198
635460 10.8182 10.5745 22.8964 16.0808 -2.92331 4.36919 60.3699
635471 10.2211 9.98704 23.487 16.602 -2.95163 4.94573 60.2971
635479 10.2211 9.98704 23.487 16.602 -2.95163 4.94573 60.2971
635490 9.703 9.45464 23.9792 17.0877 -2.96384 5.45688 60.2245
635499 9.703 9.45464 23.9792 17.0877 -2.96384 5.45688 60.2245
635512 9.16736 9.01404 24.4024 17.4676 -2.95086 5.91709 60.0514
635519 8.69318 8.55508 24.934 17.9742 -2.94976 6.3983 60.1565
635534 8.69318 8.55508 24.934 17.9742 -2.94976 6.3983 60.1565
635538 8.20145 8.11447 25.3966 18.5003 -2.89944 6.87088 60.2128
635550 7.77996 7.73812 25.8888 18.89 -2.91918 7.27916 60.2969
635559 7.77996 7.73812 25.8888 18.89 -2.91918 7.27916 60.2969
635573 7.38481 7.45356 26.2924 19.416 -2.81089 7.64782 60.5468
635580 7.38481 7.45356 26.2924 19.416 -2.81089 7.64782 60.5468
635595 7.01601 7.12311 26.6665 19.8642 -2.75887 8.00848 60.6698
635600 6.67355 6.89363 26.8437 20.2734 -2.6161 8.29289 60.6842
635610 6.67355 6.89363 26.8437 20.2734 -2.6161 8.29289 60.6842
635620 6.43647 6.69168 26.9224 20.5559 -2.5209 8.50161 60.6064
635631 6.21694 6.53564 26.9421 20.7702 -2.42008 8.67273 60.4649
635641 6.21694 6.53564 26.9421 20.7702 -2.42008 8.67273 60.4649
635652 6.13791 6.44384 27.0208 21.004 -2.35573 8.77209 60.6066
635661 5.91839 6.29698 27.0307 21.1696 -2.26865 8.93434 60.4157
635671 5.91839 6.29698 27.0307 21.1696 -2.26865 8.93434 60.4157
635682 5.80424 6.15011 27.1193 21.4132 -2.21545 9.07093 60.4868
635692 5.80424 6.15011 27.1193 21.4132 -2.21545 9.07093 60.4868
635702 5.71643 6.10421 27.1488 21.5009 -2.17469 9.13565 60.4703
635712 5.65496 6.0216 27.2177 21.7444 -2.10537 9.22321 60.6387
635722 5.65496 6.0216 27.2177 21.7444 -2.10537 9.22321 60.6387
635732 5.60227 6.00324 27.2571 21.8223 -2.07373 9.26274 60.685
635744 5.52324 5.92981 27.2374 22.0075 -1.98664 9.33932 60.6979
635753 5.52324 5.92981 27.2374 22.0075 -1.98664 9.33932 60.6979
635766 5.54959 5.89309 27.1685 21.988 -1.9955 9.33523 60.5991
635773 5.54959 5.89309 27.1685 21.988 -1.9955 9.33523 60.5991
635786 5.43543 5.82883 27.2472 22.0172 -1.99767 9.41706 60.5287
635793 5.40909 5.87473 27.1685 22.0659 -1.91552 9.4064 60.5182
635803 5.40909 5.87473 27.1685 22.0659 -1.91552 9.4064 60.5182
635814 5.37397 5.78294 27.2177 22.1633 -1.91839 9.47112 60.5379
635823 5.32128 5.73704 27.2374 22.3484 -1.84404 9.52957 60.6441
635843 5.32128 5.71868 27.2079 22.5043 -1.77203 9.54836 60.7521
635854 5.32128 5.71868 27.2079 22.5043 -1.77203 9.54836 60.7521
635865 5.20713 5.63607 27.2768 22.7186 -1.69679 9.65313 60.8386
635874 5.15444 5.63607 27.2965 22.7966 -1.64998 9.68304 60.8835
635884 5.15444 5.63607 27.2965 22.7966 -1.64998 9.68304 60.8835
635894 5.04907 5.58099 27.2472 22.9232 -1.55924 9.75495 60.8005
635904 5.04907 5.49838 27.326 23.1278 -1.5364 9.81284 61.0012
635914 5.04907 5.49838 27.326 23.1278 -1.5364 9.81284 61.0012
635924 4.97882 5.40659 27.3162 23.235 -1.49887 9.8871 60.9365
635949 4.83833 5.2689 27.3654 23.2739 -1.50662 10.0085 60.7465
635956 4.82076 5.25054 27.4441 23.3519 -1.50429 10.0361 60.8673
635966 4.82076 5.25054 27.4441 23.3519 -1.50429 10.0361 60.8673
635976 4.69783 5.12203 27.4835 23.459 -1.48129 10.1517 60.7624
635990 4.65393 5.12203 27.4933 23.4201 -1.4851 10.1675 60.6894
636001 4.65393 5.12203 27.4933 23.4201 -1.4851 10.1675 60.6894
636012 4.68027 5.03024 27.5327 23.459 -1.5336 10.2009 60.7022
636021 4.68027 5.03024 27.5327 23.459 -1.5336 10.2009 60.7022
636026 4.59246 5.06695 27.5622 23.4493 -1.49926 10.2237 60.6709
636036 4.61002 5.02106 27.6016 23.5175 -1.51156 10.2439 60.7502
636046 4.61002 5.02106 27.6016 23.5175 -1.51156 10.2439 60.7502
636056 4.6188 4.97516 27.6312 23.4298 -1.58478 10.2548 60.6549
636066 4.6188 4.91091 27.6312 23.498 -1.58305 10.2869 60.6589
636078 4.6188 4.91091 27.6312 23.498 -1.58305 10.2869 60.6589
636086 4.67149 4.92927 27.6312 23.459 -1.61241 10.2543 60.6909
636096 4.67149 4.92927 27.6312 23.459 -1.61241 10.2543 60.6909
636106 4.62758 4.94762 27.6508 23.4201 -1.61211 10.2634 60.6461
636116 4.67149 5.02106 27.5426 23.3129 -1.60208 10.1976 60.548
636136 4.8032 5.18629 27.4441 23.2739 -1.55957 10.0635 60.7075
636146 4.88223 5.23218 27.3457 23.1668 -1.57891 9.99508 60.6269
636160 4.88223 5.23218 27.3457 23.1668 -1.57891 9.99508 60.6269
636167 4.90857 5.29644 27.2768 23.0791 -1.57273 9.94475 60.5609
636187 5.08419 5.4433 27.0405 22.816 -1.60033 9.76973 60.3841
636197 5.29494 5.67279 26.8141 22.4946 -1.63485 9.54129 60.2764
636207 5.29494 5.67279 26.8141 22.4946 -1.63485 9.54129 60.2764
636218 5.48812 5.91145 26.509 22.1146 -1.65396 9.30242 60.0232
636228 5.77789 6.27862 26.1546 21.647 -1.67349 8.95745 59.8581
636238 5.77789 6.27862 26.1546 21.647 -1.67349 8.95745 59.8581
636248 6.15548 6.71922 25.7215 21.1599 -1.67257 8.53637 59.7561
636258 6.15548 6.71922 25.7215 21.1599 -1.67257 8.53637 59.7561
636268 6.58574 7.19654 25.2293 20.702 -1.6397 8.0758 59.7136
636278 6.98967 7.88499 24.5895 20.2149 -1.45748 7.52267 59.679
636288 6.98967 7.88499 24.5895 20.2149 -1.45748 7.52267 59.679
636299 7.49897 8.55508 23.9595 19.6011 -1.38482 6.92109 59.6147
636308 8.01705 9.23434 23.3393 19.0361 -1.29385 6.32032 59.6268
636318 8.01705 9.23434 23.3393 19.0361 -1.29385 6.32032 59.6268
636328 8.58781 9.96868 22.6601 18.4223 -1.19757 5.66558 59.6389
636342 8.58781 9.96868 22.6601 18.4223 -1.19757 5.66558 59.6389
636348 9.08833 10.7122 21.912 17.7501 -1.06704 5.01027 59.4627
636358 9.71178 11.5751 21.0064 17 -0.9036 4.22971 59.2932
636368 9.71178 11.5751 21.0064 17 -0.9036 4.22971 59.2932
636379 10.4757 12.392 20.1008 16.1187 -0.874022 3.3895 59.0872
636391 11.1519 13.2549 19.0967 15.3227 -0.710124 2.55313 58.8262
636398 11.1519 13.2549 19.0967 15.3227 -0.710124 2.55313 58.8262
636408 11.8456 14.0351 18.132 14.4699 -0.629495 1.72391 58.4826
636418 11.8456 14.0351 18.132 14.4699 -0.629495 1.72391 58.4826
636428 12.548 14.9897 17.2166 13.6455 -0.483465 0.853838 58.3998
636438 13.391 15.8434 16.2887 12.8305 -0.430872 -0.0296187 58.3536
636448 13.391 15.8434 16.2887 12.8305 -0.430872 -0.0296187 58.3536
636458 14.3394 16.8348 15.1649 11.9777 -0.296582 -1.03696 58.3168
636468 14.3394 16.8348 15.1649 11.9777 -0.296582 -1.03696 58.3168
636478 15.1736 17.778 14.1031 11.087 -0.177003 -2.0024 58.1416
636487 16.0692 18.663 12.9175 10.3573 0.0144839 -2.96277 58.0071
636497 16.0692 18.663 12.9175 10.3573 0.0144839 -2.96277 58.0071
636507 16.8419 19.4411 11.9794 9.61817 0.102764 -3.8058 57.8806
636518 17.5481 20.0246 11.2577 8.99275 0.0914663 -4.49358 57.8232
636528 17.5481 20.0246 11.2577 8.99275 0.0914663 -4.49358 57.8232
636539 18.2655 20.6081 10.567 8.49052 0.114837 -5.13095 57.9312
636548 18.2655 20.6081 10.567 8.49052 0.114837 -5.13095 57.9312
636561 18.8435 21.0652 9.91753 7.95039 0.110158 -5.72224 57.7766
636568 19.4314 21.3862 9.3299 7.62821 0.109497 -6.19451 57.7757
636582 19.4314 21.3862 9.3299 7.62821 0.109497 -6.19451 57.7757
636590 19.7702 21.6098 8.90722 7.30602 0.103495 -6.55462 57.5933
636598 20.2386 21.8238 8.48454 7.12598 0.0982553 -6.8798 57.6729
636609 20.2386 21.8238 8.48454 7.12598 0.0982553 -6.8798 57.6729
636618 20.6073 22.0572 8.14433 6.93645 0.1048 -7.16518 57.7453
636642 21.0059 22.2517 7.85567 6.76589 0.0674129 -7.42133 57.8791
636651 21.3546 22.5046 7.60825 6.62375 0.0712007 -7.65018 58.0912
636660 21.3546 22.5046 7.60825 6.62375 0.0712007 -7.65018 58.0912
636669 21.7433 22.6699 7.48454 6.43423 -0.0530005 -7.84161 58.3319
636679 22.0123 22.9811 7.28866 6.28261 -0.0158966 -8.04806 58.5647
636691 22.0123 22.9811 7.28866 6.28261 -0.0158966 -8.04806 58.5647
636699 22.3312 23.1854 7.04124 6.12152 -0.0279292 -8.27049 58.6793
636710 22.3312 23.1854 7.04124 6.12152 -0.0279292 -8.27049 58.6793
636721 22.4607 23.4382 6.7835 5.88462 0.0335515 -8.51097 58.5671
636731 22.5803 23.6619 6.6701 5.71405 0.0535339 -8.66284 58.6264
636741 22.5803 23.6619 6.6701 5.71405 0.0535339 -8.66284 58.6264
636751 22.7397 23.7397 6.4433 5.48662 0.0185251 -8.8726 58.4094
636761 22.8394 23.8856 6.25773 5.33501 0.0529259 -9.03642 58.3177
636771 22.8394 23.8856 6.25773 5.33501 0.0529259 -9.03642 58.3177
636781 22.9889 24.012 6.1134 5.16444 0.0318229 -9.19453 58.2787
636801 23.0387 24.0023 5.98969 4.93701 -0.0384182 -9.34511 57.9677
636812 23.1782 23.9828 5.95876 4.84225 -0.134514 -9.40961 57.962
636821 23.1782 23.9828 5.95876 4.84225 -0.134514 -9.40961 57.962
636834 23.3277 24.0704 5.86598 4.73802 -0.166056 -9.51537 58.002
636841 23.3077 24.0023 5.90722 4.69064 -0.225371 -9.50963 57.9079
636854 23.3077 24.0023 5.90722 4.69064 -0.225371 -9.50963 57.9079
636862 23.3875 24.0509 5.82474 4.65273 -0.219522 -9.57274 57.9158
636874 23.3875 24.0509 5.82474 4.65273 -0.219522 -9.57274 57.9158
636882 23.4572 23.9439 5.98969 4.70959 -0.341383 -9.47546 58.1004
636895 23.5369 23.9926 6.07217 4.75697 -0.368226 -9.43315 58.3586
636912 23.5369 23.9439 6.15464 4.79487 -0.407648 -9.37818 58.4304
636922 23.5369 23.8661 6.28866 4.79487 -0.497799 -9.31483 58.4866
636942 23.4572 23.7203 6.35052 4.8233 -0.541623 -9.25523 58.3513
636963 23.3875 23.6522 6.48454 4.8612 -0.581743 -9.17025 58.3854
636973 23.3476 23.5355 6.58763 4.88963 -0.646895 -9.10014 58.3603
636983 23.3476 23.5355 6.58763 4.88963 -0.646895 -9.10014 58.3603
636993 23.228 23.2437 6.73196 5.01282 -0.731514 -8.94771 58.2165
637006 23.0088 23.0492 6.96907 5.13601 -0.77053 -8.75631 58.1631
637013 23.0088 23.0492 6.96907 5.13601 -0.77053 -8.75631 58.1631
637023 22.7298 22.8158 7.2268 5.2971 -0.793743 -8.52987 58.0695
637033 22.7298 22.8158 7.2268 5.2971 -0.793743 -8.52987 58.0695
637044 22.371 22.4559 7.60825 5.59086 -0.832592 -8.17595 58.0261
637053 21.9426 22.0961 8.20619 5.9699 -0.894417 -7.69459 58.2147
637065 21.9426 22.0961 8.20619 5.9699 -0.894417 -7.69459 58.2147
637073 21.524 21.7168 8.81443 6.33946 -0.97705 -7.21476 58.3948
637086 21.1254 21.3375 9.60825 6.87012 -1.07142 -6.61283 58.9413
637094 21.1254 21.3375 9.60825 6.87012 -1.07142 -6.61283 58.9413
637108 20.7268 20.9874 10.2784 7.32497 -1.13491 -6.09708 59.3176
637116 20.1589 20.5595 10.9485 7.87458 -1.12242 -5.51599 59.5414
637128 20.1589 20.5595 10.9485 7.87458 -1.12242 -5.51599 59.5414
637136 19.5909 20.1219 11.5361 8.31048 -1.13106 -5.00329 59.5593
637149 19.5909 20.1219 11.5361 8.31048 -1.13106 -5.00329 59.5593
637156 18.983 19.6259 12.1031 8.86009 -1.09118 -4.44311 59.572
637166 18.3154 19.1785 12.6495 9.33389 -1.03084 -3.9117 59.4772
637176 18.3154 19.1785 12.6495 9.33389 -1.03084 -3.9117 59.4772
637186 17.7274 18.663 13.1134 9.71293 -1.04061 -3.43588 59.2168
637196 17.0498 18.0795 13.6082 10.0825 -1.06088 -2.91701 58.8201
637206 17.0498 18.0795 13.6082 10.0825 -1.06088 -2.91701 58.8201
637218 16.5522 17.5057 14.2165 10.4615 -1.19237 -2.39543 58.7359
637226 16.5522 17.5057 14.2165 10.4615 -1.19237 -2.39543 58.7359
637236 15.9638 16.8256 14.9072 10.9732 -1.30911 -1.7664 58.6699
637246 15.3667 16.1647 15.8144 11.7029 -1.4029 -1.01969 59.0488
637272 14.875 15.4212 16.6804 12.3567 -1.59164 -0.318288 59.3333
637283 14.875 15.4212 16.6804 12.3567 -1.59164 -0.318288 59.3333
637297 14.2603 14.7419 17.5316 13.2001 -1.61126 0.434285 59.7339
637298 13.7774 14.0994 18.2403 13.8445 -1.69853 1.05269 59.9615
637307 13.7774 14.0994 18.2403 13.8445 -1.69853 1.05269 59.9615
637319 13.2417 13.5394 18.9195 14.432 -1.74191 1.63897 60.1327
637328 12.7851 12.8326 19.5495 14.9816 -1.87884 2.22283 60.1488
637337 12.7851 12.8326 19.5495 14.9816 -1.87884 2.22283 60.1488
637347 12.2583 12.1992 20.0811 15.5312 -1.91813 2.78545 60.0698
637362 11.6875 11.5383 20.7898 16.0619 -2.02951 3.40206 60.0775
637368 11.6875 11.5383 20.7898 16.0619 -2.02951 3.40206 60.0775
637378 11.108 10.7948 21.3903 16.6399 -2.11215 4.03636 59.933
637398 10.4406 10.2073 22.1384 17.2436 -2.13564 4.68117 60.0299
637410 9.94886 9.64741 22.6798 17.7794 -2.16545 5.21091 60.0554
637420 9.94886 9.64741 22.6798 17.7794 -2.16545 5.21091 60.0554
637431 9.60641 9.28942 23.0932 18.1983 -2.16488 5.58149 60.1873
637439 9.30785 8.93143 23.2999 18.5685 -2.12447 5.8967 60.1077
637452 9.30785 8.93143 23.2999 18.5685 -2.12447 5.8967 60.1077
637460 9.06198 8.74784 23.5559 18.7731 -2.11883 6.11564 60.1388
637470 8.81612 8.49082 23.7921 19.1238 -2.07298 6.37855 60.2228
637491 8.56147 8.30724 24.0185 19.4063 -2.01782 6.60671 60.2935
637501 8.56147 8.30724 24.0185 19.4063 -2.01782 6.60671 60.2935
637511 8.33316 8.08693 24.2252 19.6401 -2.00353 6.82883 60.2855
637521 8.07851 7.99514 24.432 19.835 -1.93915 7.00854 60.3406
637536 8.07851 7.99514 24.432 19.835 -1.93915 7.00854 60.3406
637542 7.92924 7.88499 24.5895 19.8739 -1.97411 7.1293 60.2776
637552 7.78874 7.82991 24.7273 20.0298 -1.92805 7.23927 60.3757
637562 7.78874 7.82991 24.7273 20.0298 -1.92805 7.23927 60.3757
637572 7.8063 7.7014 24.7962 20.1077 -1.98362 7.29898 60.4116
637582 7.8063 7.7014 24.7962 20.1077 -1.98362 7.29898 60.4116
637592 7.66581 7.53618 24.7765 20.2344 -1.93968 7.42588 60.2129
637602 7.56921 7.41685 24.934 20.3708 -1.95535 7.54311 60.2908
637612 7.56921 7.41685 24.934 20.3708 -1.95535 7.54311 60.2908
637622 7.37603 7.34341 25.0226 20.4974 -1.89153 7.66953 60.2394
637635 7.18285 7.17819 25.2588 20.702 -1.89048 7.8578 60.3219
637642 7.18285 7.17819 25.2588 20.702 -1.89048 7.8578 60.3219
637652 7.01601 7.02214 25.4459 20.9163 -1.87226 8.02745 60.4003
637664 7.01601 7.02214 25.4459 20.9163 -1.87226 8.02745 60.4003
637672 6.78771 6.86609 25.692 21.1599 -1.84019 8.23015 60.5056
637685 6.69112 6.73758 25.9971 21.4229 -1.86024 8.3793 60.8487
637692 6.69112 6.73758 25.9971 21.4229 -1.86024 8.3793 60.8487
637702 6.42769 6.58153 26.1152 21.6275 -1.78343 8.5759 60.752
637712 6.24329 6.37041 26.3416 21.8321 -1.80235 8.77485 60.7874
637733 6.02376 6.26944 26.5779 22.0172 -1.77169 8.94307 60.8883
637742 6.02376 6.26944 26.5779 22.0172 -1.77169 8.94307 60.8883
637753 5.8218 6.06749 26.7058 22.2607 -1.72514 9.13896 60.8559
637763 5.62862 5.88391 26.883 22.3874 -1.74405 9.31788 60.783
637783 5.46178 5.64525 27.0602 22.514 -1.79739 9.50884 60.6813
637793 5.3564 5.54428 27.1488 22.553 -1.81838 9.60385 60.6025
637803 5.3564 5.54428 27.1488 22.553 -1.81838 9.60385 60.6025
637813 5.21591 5.4892 27.2866 22.7186 -1.76852 9.71007 60.7104
637823 5.21591 5.4892 27.2866 22.7186 -1.76852 9.71007 60.7104
637833 5.18079 5.42495 27.3654 22.7966 -1.77917 9.76412 60.7677
637844 5.11054 5.35151 27.4933 22.8648 -1.80352 9.83952 60.8201
637855 5.11054 5.35151 27.4933 22.8648 -1.80352 9.83952 60.8201
637863 5.04029 5.24136 27.513 23.0206 -1.76408 9.92809 60.8153
637883 4.99638 5.20464 27.513 22.9622 -1.78925 9.95633 60.6762
637893 4.99638 5.14957 27.513 23.0986 -1.75339 9.99028 60.7575
637905 4.99638 5.14957 27.513 23.0986 -1.75339 9.99028 60.7575
637920 4.9437 5.14957 27.5229 23.0791 -1.74557 10.0112 60.6952
637927 4.96126 5.14957 27.6213 23.1181 -1.77278 10.0152 60.8502
637941 4.96126 5.14957 27.6213 23.1181 -1.77278 10.0152 60.8502
637945 4.9437 5.19546 27.5229 23.196 -1.67403 10.0019 60.858
637956 4.96126 5.223 27.4047 23.1862 -1.62762 9.97283 60.7753
637964 4.96126 5.223 27.4047 23.1862 -1.62762 9.97283 60.7753
637975 5.04029 5.35151 27.3063 23.0499 -1.62361 9.86808 60.748
637985 5.04029 5.35151 27.3063 23.0499 -1.62361 9.86808 60.748
637996 4.97004 5.35151 27.2669 22.894 -1.64985 9.88039 60.4825
638006 5.11932 5.36987 27.2374 22.7479 -1.75239 9.79655 60.4744
638016 5.11932 5.36987 27.2374 22.7479 -1.75239 9.79655 60.4744
638026 5.18079 5.45248 27.1587 22.6797 -1.73937 9.72483 60.4716
638036 5.22469 5.40659 27.1193 22.6797 -1.76142 9.72221 60.4302
638056 5.20713 5.51674 27.0504 22.6115 -1.70956 9.67231 60.3857
638076 5.28616 5.60853 26.9126 22.4458 -1.71956 9.57554 60.2531
638086 5.36519 5.70032 26.9027 22.4361 -1.70993 9.50428 60.4043
638106 5.42665 5.87473 26.6763 22.2802 -1.63796 9.3735 60.2579
638116 5.56715 6.08585 26.4794 22.1438 -1.58308 9.20021 60.2763
638127 5.56715 6.08585 26.4794 22.1438 -1.58308 9.20021 60.2763
638137 5.74277 6.30616 26.3023 21.9393 -1.57555 9.00456 60.2904
638157 5.88326 6.59989 26.0365 21.5983 -1.54761 8.77066 60.1179
638168 6.17304 6.98542 25.7018 21.1891 -1.54052 8.42618 60.0494
638178 6.17304 6.98542 25.7018 21.1891 -1.54052 8.42618 60.0494
638188 6.49793 7.47192 25.1702 20.6338 -1.48996 7.98865 59.7739
638198 6.90186 8.03186 24.5599 20.0493 -1.41941 7.47582 59.5429
638208 6.90186 8.03186 24.5599 20.0493 -1.41941 7.47582 59.5429
638218 7.56921 8.82127 23.9102 19.2894 -1.41332 6.74839 59.5901
638228 7.56921 8.82127 23.9102 19.2894 -1.41332 6.74839 59.5901
638238 8.22779 9.46382 23.172 18.5782 -1.41219 6.07113 59.4418
638248 8.85124 10.2165 22.5518 17.945 -1.36052 5.39643 59.5646
638259 8.85124 10.2165 22.5518 17.945 -1.36052 5.39643 59.5646
638268 9.5625 10.8866 21.7939 17.3994 -1.28697 4.71414 59.6424
638280 10.2562 11.6668 20.9572 16.5262 -1.27103 3.92895 59.4064
638298 10.9411 12.4471 20.1795 15.7302 -1.24091 3.16744 59.2979
638318 11.5119 13.1539 19.3428 14.8679 -1.2029 2.43177 58.8765
638328 12.0124 13.8515 18.6931 14.1382 -1.15672 1.78058 58.6953
638340 12.0124 13.8515 18.6931 14.1382 -1.15672 1.78058 58.6953
638350 12.5305 14.5032 18.0434 13.5033 -1.09564 1.1556 58.5805
638360 12.9607 15.1091 17.4627 12.9253 -1.02169 0.594825 58.4578
638369 12.9607 15.1091 17.4627 12.9253 -1.02169 0.594825 58.4578
638381 13.4525 15.6506 16.8557 12.4041 -0.965244 0.0402653 58.3629
638391 13.8827 15.6506 16.3299 12.0156 -1.09988 -0.307856 57.8789
638401 13.8827 16.1647 16.3299 12.0156 -0.870118 -0.437192 58.3929
638411 14.3042 16.743 15.8041 11.5892 -0.759831 -0.937853 58.4405
638421 14.3042 16.743 15.8041 11.5892 -0.759831 -0.937853 58.4405
638431 14.7696 17.2529 15.299 11.1249 -0.723261 -1.43687 58.4463
638441 15.1736 17.8364 14.7835 10.7079 -0.603728 -1.92778 58.5014
638452 15.1736 17.8364 14.7835 10.7079 -0.603728 -1.92778 58.5014
638461 15.6916 18.3421 14.1649 10.2625 -0.535367 -2.46477 58.4612
638474 15.6916 18.3421 14.1649 10.2625 -0.535367 -2.46477 58.4612
638481 16.0341 18.6728 13.6804 9.75084 -0.555098 -2.90918 58.1381
638491 16.4468 19.0229 13.299 9.38127 -0.576791 -3.29909 58.1499
638501 16.4468 19.0229 13.299 9.38127 -0.576791 -3.29909 58.1499
638511 16.8244 19.3924 12.8454 9.06856 -0.519831 -3.69071 58.1307
638521 17.1694 19.8301 12.4021 8.72742 -0.436077 -4.09521 58.129
638531 17.1694 19.8301 12.4021 8.72742 -0.436077 -4.09521 58.129
638541 17.6079 20.1219 11.9897 8.50948 -0.414836 -4.43866 58.2289
638551 17.6079 20.1219 11.9897 8.50948 -0.414836 -4.43866 58.2289
638562 17.9566 20.2483 11.6186 8.27258 -0.453697 -4.72849 58.096
638573 18.3353 20.5692 11.3196 7.98829 -0.471273 -5.0496 58.2124
638582 18.3353 20.5692 11.3196 7.98829 -0.471273 -5.0496 58.2124
638592 18.7339 20.7637 10.9485 7.77982 -0.488953 -5.35054 58.2259
638602 19.0528 20.9291 10.6804 7.57135 -0.52923 -5.5973 58.2336
638613 19.0528 20.9291 10.6804 7.57135 -0.52923 -5.5973 58.2336
638624 19.3019 21.1041 10.433 7.40078 -0.527976 -5.81361 58.2398
638633 19.5709 21.1527 10.1856 7.20178 -0.603138 -6.02372 58.111
638644 19.5709 21.1527 10.1856 7.20178 -0.603138 -6.02372 58.111
638653 19.8998 21.2111 10.0928 7.1165 -0.713713 -6.14751 58.3201
638665 19.8998 21.2111 10.0928 7.1165 -0.713713 -6.14751 58.3201
638673 20.119 21.25 9.89691 6.92698 -0.79001 -6.32683 58.1929
638686 20.3083 21.25 9.7732 6.77536 -0.884646 -6.45615 58.1069
638693 20.3083 21.25 9.7732 6.77536 -0.884646 -6.45615 58.1069
638703 20.4777 21.4056 9.61856 6.74693 -0.83424 -6.57125 58.2488
638723 20.5774 21.3181 9.63918 6.61427 -0.982049 -6.61457 58.1489
638733 20.7169 21.3667 9.56701 6.61427 -0.988124 -6.66842 58.2649
638743 20.7169 21.3667 9.56701 6.61427 -0.988124 -6.66842 58.2649
638753 20.7468 21.2792 9.53608 6.55741 -1.05226 -6.69289 58.1195
638763 20.8863 21.3667 9.56701 6.57637 -1.07465 -6.70665 58.3964
638773 20.8863 21.3667 9.56701 6.57637 -1.07465 -6.70665 58.3964
638786 21.0358 21.464 9.54639 6.51951 -1.1093 -6.77031 58.5656
638803 21.1155 21.4445 9.50515 6.51003 -1.13789 -6.79762 58.5752
638815 21.255 21.5029 9.51546 6.4437 -1.20233 -6.84606 58.717
638834 21.3845 21.5515 9.34021 6.36789 -1.19592 -6.96436 58.6441
638845 21.4842 21.6196 9.36082 6.32051 -1.2354 -6.99729 58.7851
638854 21.4842 21.6196 9.36082 6.32051 -1.2354 -6.99729 58.7851
638865 21.5938 21.7071 9.17526 6.19732 -1.22058 -7.13993 58.6735
638875 21.5938 21.7071 9.17526 6.19732 -1.22058 -7.13993 58.6735
638888 21.6735 21.746 9.12371 6.08361 -1.26547 -7.21824 58.6268
638896 21.823 21.7363 8.98969 6.06466 -1.28457 -7.29478 58.6136
638905 21.823 21.7363 8.98969 6.06466 -1.28457 -7.29478 58.6136
638916 21.8529 21.7265 8.85567 5.932 -1.30639 -7.39931 58.3671
638926 21.9027 21.6585 8.71134 5.81828 -1.35017 -7.49642 58.0908
638946 21.8927 21.7168 8.61856 5.80881 -1.2861 -7.54232 58.0369
638956 21.8329 21.5709 8.54639 5.78986 -1.30695 -7.55133 57.7401
638966 21.8329 21.5709 8.54639 5.78986 -1.30695 -7.55133 57.7401
638976 21.7632 21.5418 8.58763 5.82776 -1.29127 -7.50764 57.7203
638987 21.7632 21.5418 8.58763 5.82776 -1.29127 -7.50764 57.7203
638998 21.6237 21.4737 8.59794 5.94147 -1.21731 -7.43222 57.6368
639006 21.534 21.4737 8.75258 6.01728 -1.20965 -7.331 57.7775
639017 21.534 21.4737 8.75258 6.01728 -1.20965 -7.331 57.7775
639027 21.4144 21.5612 8.94845 6.08361 -1.17142 -7.22583 58.0077
639037 21.2948 21.6098 9.05155 6.28261 -1.0534 -7.10107 58.2388
639047 21.2948 21.6098 9.05155 6.28261 -1.0534 -7.10107 58.2388
639057 21.2649 21.6876 9.38144 6.54794 -1.02358 -6.88408 58.882
639081 21.1454 21.6001 9.5567 6.69008 -1.02212 -6.73784 58.9923
639088 20.966 21.5709 9.72165 6.85117 -0.958194 -6.58879 59.1098
639100 20.966 21.5709 9.72165 6.85117 -0.958194 -6.58879 59.1098
639108 20.7767 21.4056 9.87629 6.89855 -0.99598 -6.46422 58.9571
639118 20.4678 21.2403 10.0722 7.01226 -0.972654 -6.28234 58.7925
639128 20.4678 21.2403 10.0722 7.01226 -0.972654 -6.28234 58.7925
639138 20.1589 21.036 10.1856 7.21126 -0.894801 -6.09252 58.5917
639149 20.1589 21.036 10.1856 7.21126 -0.894801 -6.09252 58.5917
639158 19.7204 20.6762 10.433 7.25864 -0.954819 -5.86306 58.0882
639171 19.3019 20.472 10.7423 7.56187 -0.865346 -5.54505 58.078
639178 19.3019 20.472 10.7423 7.56187 -0.865346 -5.54505 58.078
639193 18.9033 20.1899 11.1856 7.86511 -0.874473 -5.17059 58.1439
639202 18.4449 19.869 11.7938 8.31048 -0.88125 -4.67567 58.4182
639211 18.4449 19.869 11.7938 8.31048 -0.88125 -4.67567 58.4182
639218 18.0961 19.5675 12.4021 8.82219 -0.895134 -4.18746 58.8879
639228 18.0961 19.5675 12.4021 8.82219 -0.895134 -4.18746 58.8879
639238 17.6776 19.2174 12.9278 9.41918 -0.830863 -3.68353 59.242
639249 17.2292 18.877 13.5258 9.82664 -0.862497 -3.21748 59.4586
639260 17.2292 18.877 13.5258 9.82664 -0.862497 -3.21748 59.4586
639269 16.7629 18.4491 14.0206 10.2625 -0.870618 -2.75539 59.4952
639280 16.2624 17.8461 14.5464 10.7837 -0.916472 -2.21532 59.4386
639300 15.6477 17.2334 15.0103 11.3712 -0.866224 -1.64512 59.2627
639311 15.6477 17.2334 15.0103 11.3712 -0.866224 -1.64512 59.2627
639322 14.9365 16.6328 15.6082 11.9303 -0.838113 -1.02289 59.1079
639331 14.2955 16.0454 16.2784 12.6126 -0.808625 -0.367167 59.2318
639341 14.2955 16.0454 16.2784 12.6126 -0.808625 -0.367167 59.2318
639351 13.5754 15.4762 17.1477 13.3802 -0.783269 0.371645 59.5795
639361 12.8115 14.7786 17.9844 14.1572 -0.77849 1.14298 59.7316
639371 12.8115 14.7786 17.9844 14.1572 -0.77849 1.14298 59.7316
639382 12.0739 14.0994 18.8309 15.1427 -0.691114 1.94534 60.1468
639392 12.0739 14.0994 19.4904 15.1427 -0.954776 2.08694 60.8064
639402 11.3099 13.3558 19.4904 16.223 -0.50579 2.74457 60.3792
639413 10.6777 12.8143 20.0712 17.1754 -0.312527 3.39685 60.7385
639422 10.6777 12.8143 20.0712 17.1754 -0.312527 3.39685 60.7385
639433 9.99277 12.1442 20.4945 17.9158 -0.176448 4.03156 60.5472
639442 9.49225 11.5567 20.8095 18.5977 -0.0609308 4.55493 60.4562
639455 9.49225 11.5567 20.8095 18.5977 -0.0609308 4.55493 60.4562
639463 9.01808 11.061 21.2032 18.9679 -0.079833 5.00215 60.2502
639473 8.58781 10.446 21.5576 19.455 -0.101757 5.49045 60.0464
639483 8.58781 10.446 21.5576 19.455 -0.101757 5.49045 60.0464
639493 8.27169 10.0972 21.8628 19.8739 -0.0679374 5.83169 60.1056
639503 8.27169 10.0972 21.8628 19.8739 -0.0679374 5.83169 60.1056
639513 7.93802 9.61987 22.2368 20.2052 -0.145759 6.22104 59.9999
639525 7.67459 9.28942 22.5912 20.5656 -0.170803 6.53504 60.1208
639533 7.67459 9.28942 22.5912 20.5656 -0.170803 6.53504 60.1208
639544 7.47262 8.92225 22.9948 20.965 -0.240299 6.85074 60.3547
639553 7.2531 8.61015 23.3885 21.1891 -0.348426 7.12623 60.4409
639575 7.01601 8.24298 23.9398 21.5009 -0.499158 7.45844 60.6996
639589 7.01601 8.24298 23.9398 21.5009 -0.499158 7.45844 60.6996
639595 6.76136 7.94924 24.4123 21.6567 -0.644813 7.73904 60.7796
639605 6.55062 7.59125 24.8749 21.7834 -0.8433 8.02212 60.8002
639614 6.55062 7.59125 24.8749 21.7834 -0.8433 8.02212 60.8002
639625 6.2345 7.24244 25.308 21.8905 -0.992808 8.33655 60.6755
639635 6.04132 6.97624 25.5837 22.0854 -1.05598 8.56486 60.6866
639645 6.04132 6.97624 25.5837 22.0854 -1.05598 8.56486 60.6866
639655 5.93595 6.73758 25.9282 22.1926 -1.20654 8.74603 60.7943
639665 5.93595 6.73758 25.9282 22.1926 -1.20654 8.74603 60.7943
639674 5.69008 6.42549 26.2235 22.3387 -1.2976 9.00988 60.6778
639684 5.47056 6.15929 26.4991 22.4556 -1.38435 9.24118 60.5846
639694 5.47056 6.15929 26.4991 22.4556 -1.38435 9.24118 60.5846
639705 5.453 6.01242 26.696 22.5433 -1.47983 9.33384 60.7047
639717 5.453 6.01242 26.696 22.5433 -1.47983 9.33384 60.7047
639725 5.33006 5.83801 26.9224 22.6309 -1.55773 9.48231 60.7214
639738 5.23347 5.56263 27.1685 22.7186 -1.69763 9.66272 60.6832
639745 5.23347 5.56263 27.1685 22.7186 -1.69763 9.66272 60.6832
639758 5.15444 5.42495 27.1783 22.816 -1.68876 9.76041 60.5738
639765 5.05785 5.35151 27.1783 22.7868 -1.69685 9.82761 60.3745
639775 5.05785 5.35151 27.1783 22.7868 -1.69685 9.82761 60.3745
639785 5.1281 5.2689 27.198 22.7966 -1.76377 9.83521 60.3916
639795 5.1281 5.2689 27.198 22.7966 -1.76377 9.83521 60.3916
639805 5.11932 5.28726 27.2965 22.894 -1.74701 9.84798 60.597
639815 5.09298 5.23218 27.3457 22.9232 -1.7672 9.88803 60.5941
639844 5.172 5.3148 27.4047 22.933 -1.7793 9.82768 60.8245
639852 5.16322 5.23218 27.454 22.9427 -1.82685 9.87002 60.7921
639860 5.16322 5.23218 27.454 22.9427 -1.82685 9.87002 60.7921
639864 5.20713 5.3148 27.4638 22.855 -1.84955 9.81174 60.8407
639875 5.20713 5.3148 27.4638 22.855 -1.84955 9.81174 60.8407
639888 5.23347 5.21382 27.3654 22.7381 -1.9186 9.82387 60.5508
639895 5.25981 5.35151 27.3752 22.6797 -1.89721 9.7526 60.6662
639906 5.25981 5.35151 27.3752 22.6797 -1.89721 9.7526 60.6662
639916 5.28616 5.30562 27.4047 22.5433 -1.99952 9.75133 60.5398
639926 5.34762 5.28726 27.4835 22.3874 -2.13057 9.72701 60.5058
639936 5.34762 5.28726 27.4835 22.3874 -2.13057 9.72701 60.5058
639946 5.47934 5.36069 27.5426 22.212 -2.24821 9.63317 60.5946
639956 5.47934 5.36069 27.5426 22.212 -2.24821 9.63317 60.5946
639966 5.55837 5.35151 27.5524 21.9685 -2.39563 9.58394 60.4308
639976 5.66374 5.33315 27.5524 21.8613 -2.49198 9.53893 60.4106
639986 5.66374 5.33315 27.5524 21.8613 -2.49198 9.53893 60.4106
639996 5.77789 5.4892 27.4835 21.7347 -2.49545 9.41165 60.4853
640006 5.80424 5.56263 27.3949 21.6372 -2.48318 9.35411 60.399
640016 5.80424 5.56263 27.3949 21.6372 -2.48318 9.35411 60.399
640026 5.94473 5.70032 27.4146 21.4132 -2.58207 9.223 60.4728
640038 5.94473 5.70032 27.4146 21.4132 -2.58207 9.223 60.4728
640047 6.0501 5.83801 27.2276 21.2086 -2.58232 9.08789 60.3243
640056 6.15548 5.90227 27.1685 21.1599 -2.59241 9.00968 60.3861
640066 6.15548 5.90227 27.1685 21.1599 -2.59241 9.00968 60.3861
640076 6.29597 6.09503 27.0504 20.9358 -2.61502 8.8432 60.3772
640086 6.41012 6.25108 26.8929 20.702 -2.63456 8.6963 60.2561
640097 6.41012 6.25108 26.8929 20.702 -2.63456 8.6963 60.2561
640107 6.57696 6.43467 26.7058 20.4682 -2.65011 8.51426 60.1857
640117 6.57696 6.43467 26.7058 20.4682 -2.65011 8.51426 60.1857
640127 6.66477 6.69168 26.5188 20.2831 -2.58019 8.33935 60.1584
640137 6.87552 7.02214 26.3416 20.0103 -2.56628 8.07996 60.2496
640149 6.87552 7.02214 26.3416 20.0103 -2.56628 8.07996 60.2496
640157 7.04236 7.29752 26.1251 19.8155 -2.51095 7.86342 60.2804
640169 7.18285 7.51782 25.7904 19.6206 -2.42665 7.66332 60.1117
640177 7.18285 7.51782 25.7904 19.6206 -2.42665 7.66332 60.1117
640187 7.38481 7.7473 25.4754 19.3576 -2.39944 7.42954 59.9651
640197 7.38481 7.7473 25.4754 19.3576 -2.39944 7.42954 59.9651
640207 7.52531 8.00432 25.1407 19.0848 -2.33322 7.20337 59.7551
640217 7.78874 8.35313 24.7666 18.7828 -2.26978 6.88733 59.6913
640227 7.78874 8.35313 24.7666 18.7828 -2.26978 6.88733 59.6913
640241 8.18388 8.86717 24.176 18.4126 -2.12951 6.42297 59.6397
640259 8.56147 9.34449 23.5854 17.9645 -2.03425 5.96508 59.4558
640268 9.07076 10.0238 22.857 17.4287 -1.88419 5.35308 59.3802
640281 9.07076 10.0238 22.857 17.4287 -1.88419 5.35308 59.3802
640288 9.60641 10.5745 22.0892 16.8389 -1.81113 4.75744 59.109
640298 10.2123 11.318 21.41 16.1756 -1.74599 4.07384 59.1159
640308 10.2123 11.318 21.41 16.1756 -1.74599 4.07384 59.1159
640318 10.8182 12.0065 20.5831 15.6165 -1.60032 3.39901 59.0243
640328 10.8182 12.0065 20.5831 15.6165 -1.60032 3.39901 59.0243
640338 11.5382 12.7592 19.8054 15.01 -1.51171 2.66898 59.1129
640348 12.3549 13.6679 18.8605 14.2046 -1.41434 1.78774 59.0878
640358 12.3549 13.6679 18.8605 14.2046 -1.41434 1.78774 59.0878
640368 13.0398 14.3931 17.8859 13.4275 -1.32139 0.990855 58.7463
640378 13.7247 15.155 17.0787 12.6789 -1.26606 0.224608 58.6373
640389 13.7247 15.155 17.0787 12.6789 -1.26606 0.224608 58.6373
640398 14.4008 15.7516 16.2474 11.9493 -1.26281 -0.502772 58.3491
640411 14.4008 15.7516 16.2474 11.9493 -1.26281 -0.502772 58.3491
640418 14.9365 16.3299 15.4948 11.3428 -1.18692 -1.14331 58.104
640428 15.5687 16.8898 14.7938 10.8122 -1.1455 -1.77025 58.0645
640438 15.5687 16.8898 14.7938 10.8122 -1.1455 -1.77025 58.0645
640448 16.0341 17.3015 14.2165 10.3763 -1.11036 -2.26387 57.9283
640466 16.4029 17.5738 13.8144 9.9214 -1.17917 -2.66169 57.7125
640482 16.4029 17.5738 13.8144 9.9214 -1.17917 -2.66169 57.7125
640488 16.8244 17.9336 13.4639 9.73188 -1.13141 -2.99261 57.9538
640489 16.8244 17.9336 13.4639 9.73188 -1.13141 -2.99261 57.9538
640503 17.0598 18.1573 13.1753 9.54236 -1.09406 -3.23627 57.9347
640511 17.4584 18.4685 12.9072 9.36232 -1.08887 -3.52016 58.1965
640520 17.4584 18.4685 12.9072 9.36232 -1.08887 -3.52016 58.1965
640530 17.9068 18.8381 12.5258 9.15385 -1.04435 -3.86788 58.4245
640540 18.2755 19.1396 12.1546 8.85061 -1.04413 -4.21339 58.4203
640551 18.2755 19.1396 12.1546 8.85061 -1.04413 -4.21339 58.4203
640561 18.704 19.48 11.7732 8.50948 -1.06374 -4.59269 58.4666
640571 19.0029 19.6939 11.3918 8.27258 -1.04015 -4.89175 58.3612
640593 19.2819 19.9176 11.0619 8.07358 -1.00823 -5.1592 58.335
640602 19.2819 19.9176 11.0619 8.07358 -1.00823 -5.1592 58.335
640612 19.4115 20.1608 10.6289 7.77982 -0.905375 -5.47513 57.9809
640623 19.7204 20.3747 10.4124 7.65663 -0.903229 -5.68033 58.1641
640632 19.7204 20.3747 10.4124 7.65663 -0.903229 -5.68033 58.1641
640645 20.0891 20.6957 10.0412 7.43868 -0.856435 -5.99973 58.2647
640652 20.3382 20.9291 9.80412 7.26812 -0.833553 -6.22092 58.3395
640664 20.3382 20.9291 9.80412 7.26812 -0.833553 -6.22092 58.3395
640674 20.687 21.2403 9.45361 6.97436 -0.825103 -6.5545 58.3552
640682 20.687 21.2403 9.45361 6.97436 -0.825103 -6.5545 58.3552
640696 20.9062 21.3862 9.16495 6.79431 -0.811434 -6.78087 58.2516
640702 21.2251 21.6001 8.90722 6.66165 -0.800827 -7.00148 58.3941
640723 21.3845 21.7071 8.73196 6.43423 -0.847597 -7.19014 58.2578
640733 21.5838 21.8141 8.49485 6.31104 -0.839102 -7.3686 58.2038
640743 21.5838 21.8141 8.49485 6.31104 -0.839102 -7.3686 58.2038
640753 21.803 21.9989 8.27835 6.2068 -0.804529 -7.54458 58.2871
640764 21.803 21.9989 8.27835 6.2068 -0.804529 -7.54458 58.2871
640772 21.9127 22.0961 8.13402 6.13099 -0.780617 -7.65621 58.2738
640786 22.092 22.2128 7.96907 6.04571 -0.772713 -7.7907 58.3196
640793 22.092 22.2128 7.96907 6.04571 -0.772713 -7.7907 58.3196
640803 22.2315 22.3392 7.87629 5.92252 -0.790678 -7.90788 58.3696
640813 22.3212 22.3392 7.7732 5.81828 -0.831255 -8.00033 58.2519
640823 22.3212 22.3976 7.7732 5.81828 -0.805405 -8.00734 58.3103
640833 22.4109 22.4559 7.64948 5.7709 -0.786422 -8.09263 58.2872
640843 22.4109 22.4559 7.64948 5.7709 -0.786422 -8.09263 58.2872
640854 22.4109 22.5435 7.70103 5.69509 -0.802632 -8.11259 58.3505
640863 22.5106 22.5824 7.65979 5.61929 -0.84316 -8.17528 58.372
640876 22.5106 22.5824 7.65979 5.61929 -0.84316 -8.17528 58.372
640883 22.5106 22.6116 7.58763 5.55295 -0.82972 -8.23379 58.2627
640903 22.5205 22.5921 7.56701 5.55295 -0.833926 -8.24092 58.2326
640913 22.5006 22.5727 7.56701 5.59086 -0.817469 -8.22122 58.2311
640923 22.5006 22.5727 7.56701 5.59086 -0.817469 -8.22122 58.2311
640933 22.4607 22.6018 7.57732 5.58138 -0.79646 -8.21964 58.2213
640943 22.4508 22.5921 7.52577 5.61929 -0.758381 -8.22279 58.1879
640954 22.4508 22.5921 7.52577 5.61929 -0.758381 -8.22279 58.1879
640964 22.3411 22.5435 7.62887 5.64771 -0.76461 -8.15184 58.1612
640973 22.3411 22.5435 7.62887 5.64771 -0.76461 -8.15184 58.1612
640987 22.2614 22.5727 7.6701 5.65719 -0.731452 -8.1257 58.1614
640995 22.2016 22.5046 7.80412 5.78038 -0.738029 -8.00858 58.2907
641015 22.1717 22.5435 7.89691 5.932 -0.680333 -7.9136 58.5441
641026 22.1419 22.5046 7.87629 5.94147 -0.672247 -7.90963 58.4642
641036 22.1419 22.5046 7.87629 5.94147 -0.672247 -7.90963 58.4642
641049 22.1419 22.6018 7.94845 6.02676 -0.622338 -7.85994 58.7189
641056 22.0322 22.4365 8.05155 6.1689 -0.629753 -7.73097 58.6892
641069 22.0322 22.4365 8.05155 6.1689 -0.629753 -7.73097 58.6892
641076 21.8927 22.3684 8.17526 6.17837 -0.64881 -7.65358 58.6148
641086 21.8927 22.3684 8.17526 6.17837 -0.64881 -7.65358 58.6148
641097 21.8529 22.242 8.2268 6.22575 -0.688303 -7.59444 58.5474
641108 21.7632 22.1642 8.24742 6.35842 -0.635538 -7.51408 58.5332
641120 21.7632 22.1642 8.24742 6.35842 -0.635538 -7.51408 58.5332
641131 21.5838 22.0961 8.28866 6.50056 -0.545508 -7.41178 58.4691
641142 21.2749 21.8238 8.4433 6.55741 -0.575306 -7.25429 58.0994
641147 21.2749 21.8238 8.4433 6.55741 -0.575306 -7.25429 58.0994
641157 20.966 21.639 8.63918 6.75641 -0.521439 -7.03685 58.0006
641167 20.966 21.639 8.63918 6.75641 -0.521439 -7.03685 58.0006
641179 20.5375 21.5223 8.91753 7.02174 -0.392674 -6.75542 57.9991
641187 20.3283 21.3181 9.29897 7.3534 -0.409849 -6.43084 58.2987
641202 20.3283 21.3181 9.29897 7.3534 -0.409849 -6.43084 58.2987
641207 20.109 21.1819 9.62887 7.66611 -0.379723 -6.14379 58.5859
641217 19.8101 20.968 10.0103 7.97882 -0.371638 -5.81675 58.7672
641238 19.6108 20.7832 10.3299 8.27258 -0.374991 -5.54054 58.9964
641248 19.6108 20.7832 10.3299 8.27258 -0.374991 -5.54054 58.9964
641258 19.1225 20.365 10.8041 8.59476 -0.410487 -5.11713 58.8864
641268 18.6442 20.0538 11.2784 8.96433 -0.383627 -4.69675 58.9407
641278 18.6442 20.0538 11.2784 8.96433 -0.383627 -4.69675 58.9407
641288 18.1659 19.5578 11.7732 9.40022 -0.416438 -4.21504 58.8971
641298 17.5481 18.9256 12.4021 9.9214 -0.469024 -3.60993 58.7972
641310 17.5481 18.9256 12.4021 9.9214 -0.469024 -3.60993 58.7972
641320 16.9298 18.3421 13.0619 10.5279 -0.476386 -2.97702 58.8616
641332 16.9298 18.3421 13.0619 10.5279 -0.476386 -2.97702 58.8616
641340 16.2887 17.6516 13.8866 11.2386 -0.543956 -2.23866 59.0655
641351 15.6477 16.9449 14.567 12.063 -0.509444 -1.51023 59.2226
641359 15.6477 16.9449 14.567 12.063 -0.509444 -1.51023 59.2226
641373 15.0418 16.3024 15.3711 12.7737 -0.561829 -0.806716 59.489
641380 14.4184 15.669 16.1546 13.4939 -0.59016 -0.110208 59.7359
641399 13.6896 14.9897 16.9691 14.233 -0.599474 0.631943 59.8814
641410 13.6896 14.9897 16.9691 14.233 -0.599474 0.631943 59.8814
641421 13.031 14.2554 17.6595 14.9342 -0.626624 1.3295 59.8801
641429 12.3988 13.6496 18.447 15.6449 -0.644861 2.00621 60.1403
641442 12.3988 13.6496 18.447 15.6449 -0.644861 2.00621 60.1403
641449 11.7314 12.8969 19.1459 16.2893 -0.703906 2.69888 60.0635
641465 11.1782 12.0616 19.8251 17.0974 -0.766407 3.41147 60.1623
641469 11.1782 12.0616 19.8251 17.0974 -0.766407 3.41147 60.1623
641481 10.6338 11.4465 20.3764 17.7989 -0.732198 4.00666 60.2556
641491 10.6338 11.4465 20.3764 17.7989 -0.732198 4.00666 60.2556
641499 10.2123 10.9509 20.7307 18.2957 -0.704637 4.45176 60.1896
641511 9.8874 10.5929 20.9768 18.5587 -0.713405 4.76257 60.0158
641524 9.8874 10.5929 20.9768 18.5587 -0.713405 4.76257 60.0158
641531 9.65031 10.3359 21.1737 18.7731 -0.715424 4.99574 59.9329
641541 9.36054 10.0697 21.469 18.9582 -0.752512 5.26176 59.8574
641552 9.36054 10.0697 21.469 18.9582 -0.752512 5.26176 59.8574
641562 9.0532 9.79428 21.7545 19.2115 -0.753157 5.54687 59.8134
641573 9.0532 9.79428 21.7545 19.2115 -0.753157 5.54687 59.8134
641582 8.78099 9.52808 22.099 19.5427 -0.754468 5.83795 59.9508
641596 8.5 9.06911 22.6404 19.9519 -0.880732 6.23901 60.1614
641602 8.5 9.06911 22.6404 19.9519 -0.880732 6.23901 60.1614
641612 8.1751 8.77538 23.172 20.3123 -0.934634 6.58573 60.4348
641625 7.88533 8.48164 23.6149 20.6046 -0.996114 6.89573 60.5865
641632 7.88533 8.48164 23.6149 20.6046 -0.996114 6.89573 60.5865
641642 7.53409 8.16037 24.0579 20.8676 -1.05741 7.23303 60.62
641662 7.18285 7.78402 24.5009 21.2086 -1.1088 7.59998 60.6763
641672 6.91064 7.47192 24.8651 21.4132 -1.1913 7.88706 60.6608
641683 6.91064 7.47192 24.8651 21.4132 -1.1913 7.88706 60.6608
641693 6.63843 7.12311 25.0915 21.6178 -1.23574 8.1728 60.4708
641705 6.43647 6.87527 25.2884 21.949 -1.19761 8.40449 60.5491
641713 6.43647 6.87527 25.2884 21.949 -1.19761 8.40449 60.5491
641728 6.20816 6.67333 25.4459 22.1146 -1.18547 8.60635 60.442
641735 6.13791 6.48974 25.564 22.2413 -1.22901 8.7314 60.4329
641744 6.13791 6.48974 25.564 22.2413 -1.22901 8.7314 60.4329
641754 6.07645 6.40713 25.7412 22.3484 -1.26379 8.81728 60.5732
641764 6.07645 6.40713 25.7412 22.3484 -1.26379 8.81728 60.5732
641776 5.92717 6.25108 25.8593 22.4264 -1.28549 8.95759 60.4639
641784 5.90083 6.15011 26.0168 22.6115 -1.3003 9.04198 60.6792
641794 5.90083 6.15011 26.0168 22.6115 -1.3003 9.04198 60.6792
641804 5.81302 6.06749 26.1349 22.5335 -1.38191 9.1136 60.549
641816 5.83936 5.9757 26.1644 22.4264 -1.49064 9.13216 60.4059
641826 5.83936 5.9757 26.1644 22.4264 -1.49064 9.13216 60.4059
641836 5.79545 5.99406 26.2137 22.4653 -1.4676 9.15091 60.4685
641846 5.79545 5.99406 26.2137 22.4653 -1.4676 9.15091 60.4685
641858 5.76911 5.89309 26.2235 22.4458 -1.514 9.20095 60.3316
641866 5.78667 5.84719 26.2629 22.5238 -1.52207 9.22355 60.4205
641876 5.78667 5.84719 26.2629 22.5238 -1.52207 9.22355 60.4205
641886 5.75155 5.91145 26.2826 22.4848 -1.50498 9.21003 60.4304
641896 5.76033 5.89309 26.2432 22.4653 -1.50969 9.20823 60.3619
641906 5.76033 5.89309 26.2432 22.4653 -1.50969 9.20823 60.3619
641916 5.83058 6.00324 26.2629 22.4556 -1.50062 9.13706 60.5523
641926 5.83058 6.00324 26.2629 22.4556 -1.50062 9.13706 60.5523
641936 5.85692 5.99406 26.2727 22.3777 -1.55283 9.12361 60.5014
641947 5.90961 6.04914 26.2826 22.2705 -1.59992 9.0712 60.5118
641957 5.90961 6.04914 26.2826 22.2705 -1.59992 9.0712 60.5118
641967 5.94473 6.12257 26.2432 22.1731 -1.60882 9.01459 60.4836
641977 6.02376 6.13175 26.2334 22.0756 -1.67442 8.96894 60.4645
641987 6.02376 6.13175 26.2334 22.0756 -1.67442 8.96894 60.4645
641997 6.10279 6.31533 26.0759 21.9393 -1.6233 8.83545 60.4332
642007 6.10279 6.31533 26.0759 21.9393 -1.6233 8.83545 60.4332
642017 6.08523 6.37041 25.9971 21.7249 -1.65634 8.79057 60.1777
642028 6.24329 6.58153 25.7904 21.6567 -1.57428 8.61652 60.2719
642037 6.24329 6.58153 25.7904 21.6567 -1.57428 8.61652 60.2719
642049 6.35744 6.71004 25.6821 21.4132 -1.62739 8.48394 60.1628
642057 6.52428 6.83855 25.5935 21.267 -1.66555 8.34337 60.2234
642071 6.52428 6.83855 25.5935 21.267 -1.66555 8.34337 60.2234
642077 6.59452 7.05886 25.4459 21.0235 -1.64581 8.18724 60.1227
642087 6.59452 7.05886 25.4459 21.0235 -1.64581 8.18724 60.1227
642097 6.7438 7.19654 25.2391 20.8579 -1.63586 8.03417 60.0374
642107 6.8843 7.45356 25.062 20.6241 -1.61128 7.83392 60.0239
642127 7.13017 7.63715 24.806 20.4195 -1.61667 7.61546 59.9928
642139 7.27944 7.94924 24.5796 20.1759 -1.5562 7.38365 59.9842
642148 7.27944 7.94924 24.5796 20.1759 -1.5562 7.38365 59.9842
642160 7.49019 8.24298 24.2449 19.9616 -1.47254 7.1255 59.9397
642168 7.49019 8.24298 24.2449 19.9616 -1.47254 7.1255 59.9397
642183 7.67459 8.47246 23.9792 19.7862 -1.41667 6.91468 59.9125
642190 7.91167 8.73866 23.6642 19.4648 -1.41036 6.64409 59.7792
642200 7.91167 8.73866 23.6642 19.4648 -1.41036 6.64409 59.7792
642210 8.28926 9.05076 23.2113 19.1335 -1.3891 6.28422 59.6849
642220 8.76343 9.43629 22.6601 18.7438 -1.36041 5.83963 59.6037
642230 8.76343 9.43629 22.6601 18.7438 -1.36041 5.83963 59.6037
642240 9.26395 9.84935 22.0695 18.208 -1.37903 5.34532 59.3908
642250 9.26395 9.84935 22.0695 18.208 -1.37903 5.34532 59.3908
642259 9.79959 10.3542 21.3903 17.6819 -1.33121 4.79141 59.226
642271 10.3704 10.8683 20.7997 17.1072 -1.35031 4.22726 59.1454
642279 10.3704 10.8683 20.7997 17.1072 -1.35031 4.22726 59.1454
642289 10.906 11.4098 20.1992 16.5736 -1.3208 3.66998 59.0886
642299 11.5294 11.8596 19.5594 16.0145 -1.36301 3.09978 58.9629
642309 11.5294 11.8596 19.5594 16.0145 -1.36301 3.09978 58.9629
642319 12.0124 12.4012 18.8998 15.3986 -1.32532 2.52541 58.712
642331 12.0124 12.4012 18.8998 15.3986 -1.32532 2.52541 58.712
642341 12.5832 12.8602 18.3289 14.9247 -1.33191 1.99593 58.697
642351 13.1451 13.4935 17.6891 14.432 -1.23753 1.39953 58.7597
642362 13.1451 13.4935 17.6891 14.432 -1.23753 1.39953 58.7597
642370 13.6632 14.0076 16.9897 13.9203 -1.16295 0.829418 58.5808
642382 14.0759 14.439 16.4639 13.437 -1.14004 0.355901 58.4158
642394 14.0759 14.439 16.4639 13.437 -1.14004 0.355901 58.4158
642404 14.5677 14.9622 15.9588 13.1054 -1.04911 -0.119233 58.594
642412 14.5677 14.9622 15.9588 13.1054 -1.04911 -0.119233 58.594
642421 14.9979 15.3569 15.4639 12.7547 -1.0031 -0.547054 58.5735
642431 15.4545 15.7883 14.9794 12.3662 -0.97262 -0.997793 58.5885
642441 15.4545 15.7883 14.9794 12.3662 -0.97262 -0.997793 58.5885
642451 16.078 16.3299 14.1959 11.9208 -0.864214 -1.61245 58.5246
642461 16.5434 16.8348 13.5773 11.3144 -0.845872 -2.18461 58.2699
642474 16.5434 16.8348 13.5773 11.3144 -0.845872 -2.18461 58.2699
642481 16.9912 17.214 12.8763 10.8785 -0.765644 -2.70456 57.9599
642492 16.9912 17.214 12.8763 10.8785 -0.765644 -2.70456 57.9599
642502 17.5481 17.603 12.3402 10.3668 -0.828977 -3.22619 57.858
642512 18.0164 17.992 11.7732 9.8835 -0.829841 -3.7332 57.6651
642522 18.0164 17.992 11.7732 9.8835 -0.829841 -3.7332 57.6651
642532 18.5744 18.488 11.3196 9.52341 -0.812805 -4.20153 57.9054
642542 18.983 18.8867 10.866 9.10647 -0.802088 -4.64124 57.8422
642552 18.983 18.8867 10.866 9.10647 -0.802088 -4.64124 57.8422
642563 19.5012 19.2952 10.4639 8.77481 -0.816354 -5.05495 58.0351
642574 19.5012 19.2952 10.4639 8.77481 -0.816354 -5.05495 58.0351
642587 19.9297 19.6648 10.1237 8.34838 -0.878401 -5.45641 58.0665
642592 20.408 20.1608 9.74227 8.04515 -0.83296 -5.85576 58.3561
642602 20.408 20.1608 9.74227 8.04515 -0.83296 -5.85576 58.3561
642612 20.7866 20.365 9.38144 7.65663 -0.922182 -6.21593 58.1897
642622 21.0059 20.6665 9.09278 7.41973 -0.864674 -6.48618 58.1849
642633 21.0059 20.6665 9.09278 7.41973 -0.864674 -6.48618 58.1849
642643 21.1952 20.9485 8.86598 7.23021 -0.808059 -6.70868 58.2399
642653 21.1952 20.9485 8.86598 7.23021 -0.808059 -6.70868 58.2399
642664 21.534 21.1819 8.58763 6.92698 -0.86412 -7.00697 58.2305
642675 21.6336 21.3959 8.46392 6.80379 -0.813885 -7.14317 58.2972
642696 21.8728 21.6098 8.15464 6.58584 -0.786527 -7.40483 58.2231
642704 22.1817 21.8335 7.92783 6.39632 -0.8055 -7.63406 58.3394
642725 22.3212 21.9794 7.84536 6.26366 -0.823288 -7.75341 58.4096
642734 22.3212 21.9794 7.84536 6.26366 -0.823288 -7.75341 58.4096
642745 22.4707 22.1934 7.62887 6.07414 -0.784716 -7.95681 58.3671
642755 22.6501 22.417 7.38144 5.82776 -0.766477 -8.20005 58.2763
642764 22.6501 22.417 7.38144 5.82776 -0.766477 -8.20005 58.2763
642774 22.7896 22.6505 7.14433 5.62876 -0.710611 -8.41742 58.2131
642786 22.8992 22.8061 7.03093 5.50557 -0.694722 -8.54252 58.2417
642795 22.8992 22.8061 7.03093 5.50557 -0.694722 -8.54252 58.2417
642808 23.0686 22.9714 6.75258 5.31605 -0.659849 -8.76927 58.1086
642816 23.1284 23.1951 6.59794 5.12653 -0.604972 -8.94063 58.0479
642826 23.1284 23.1951 6.59794 5.12653 -0.604972 -8.94063 58.0479
642836 23.2479 23.341 6.51546 4.99387 -0.614728 -9.05696 58.0982
642846 23.2479 23.341 6.51546 4.99387 -0.614728 -9.05696 58.0982
642856 23.3077 23.5452 6.40206 4.91806 -0.535706 -9.16218 58.1731
642866 23.4871 23.6619 6.29897 4.7854 -0.574745 -9.28968 58.2334
642887 23.6166 23.8175 6.2165 4.71906 -0.555328 -9.3795 58.3697
642898 23.6067 23.8759 6.15464 4.67168 -0.52041 -9.42984 58.3089
642906 23.6067 23.8759 6.15464 4.67168 -0.52041 -9.42984 58.3089
642917 23.7163 23.9537 6.08247 4.5864 -0.539395 -9.51367 58.3388
642927 23.7163 23.9537 6.08247 4.5864 -0.539395 -9.51367 58.3388
642939 23.7661 24.0606 5.95876 4.52007 -0.490592 -9.60832 58.3056
642947 23.7163 24.1287 5.91753 4.51059 -0.426659 -9.63143 58.2731
642957 23.7163 24.1287 5.91753 4.51059 -0.426659 -9.63143 58.2731
642967 23.806 24.1384 5.8866 4.43478 -0.480278 -9.68571 58.2658
642977 23.806 24.1384 5.8866 4.43478 -0.480278 -9.68571 58.2658
642987 23.6864 24.1093 5.84536 4.42531 -0.429332 -9.69365 58.0663
642998 23.6266 24.1093 5.86598 4.36845 -0.437668 -9.70362 57.9703
643008 23.6266 24.1093 5.86598 4.36845 -0.437668 -9.70362 57.9703
643017 23.6166 24.1093 5.83505 4.36845 -0.42033 -9.7159 57.9294
643032 23.5768 24.0995 5.92783 4.42531 -0.422102 -9.64765 58.0295
643052 23.5469 24.0606 5.93814 4.48216 -0.405942 -9.61277 58.0278
643057 23.5469 24.0606 5.93814 4.48216 -0.405942 -9.61277 58.0278
643068 23.4572 23.9828 5.97938 4.46321 -0.427824 -9.58771 57.8826
643078 23.3875 23.9926 6.01031 4.60535 -0.344789 -9.50873 57.9957
643088 23.3875 23.9926 6.01031 4.60535 -0.344789 -9.50873 57.9957
643101 23.3077 23.8953 6.16495 4.6243 -0.410861 -9.41861 57.9923
643108 23.2778 23.8661 6.25773 4.73802 -0.40051 -9.32621 58.1397
643118 23.2778 23.8661 6.25773 4.73802 -0.40051 -9.32621 58.1397
643128 23.3077 23.9439 6.42268 4.88963 -0.38285 -9.20515 58.564
643148 23.2181 23.8467 6.51546 4.95596 -0.397561 -9.12085 58.5362
643158 23.1882 23.8078 6.65979 5.16444 -0.372209 -8.9693 58.8202
643170 23.1882 23.8078 6.65979 5.16444 -0.372209 -8.9693 58.8202
643180 23.0188 23.6911 6.68041 5.28763 -0.306959 -8.88115 58.6779
643189 22.8892 23.5549 6.7835 5.36343 -0.321877 -8.78048 58.5911
643200 22.8892 23.5549 6.7835 5.36343 -0.321877 -8.78048 58.5911
643211 22.6999 23.409 6.94845 5.51505 -0.309125 -8.61636 58.5724
643220 22.4209 23.1756 7.1134 5.67614 -0.292236 -8.42846 58.386
643232 22.4209 23.1756 7.1134 5.67614 -0.292236 -8.42846 58.386
643239 22.1717 22.9228 7.31959 5.932 -0.272755 -8.18639 58.3461
643250 22.1717 22.9228 7.31959 5.932 -0.272755 -8.18639 58.3461
643260 21.8828 22.6018 7.54639 6.18785 -0.2746 -7.92278 58.2188
643269 21.4543 22.3781 7.7835 6.56689 -0.125788 -7.60071 58.1828
643280 21.4543 22.3781 7.7835 6.56689 -0.125788 -7.60071 58.1828
643289 21.0657 21.9697 8.23711 7.01226 -0.137609 -7.15092 58.2847
643299 21.0657 21.9697 8.23711 7.01226 -0.137609 -7.15092 58.2847
643312 20.6372 21.5709 8.74227 7.5903 -0.0931785 -6.63014 58.5407
643321 20.1589 21.1041 9.3299 8.22519 -0.067766 -6.04607 58.8181
643345 19.5809 20.5984 9.94845 8.88852 -0.0179753 -5.42452 59.0163
643351 18.8734 19.9954 10.8144 9.58974 -0.0432983 -4.67278 59.273
