10444461 9.68031 11.8245 34 34 0.598899 7.79207 89.5048
10444474 9.2487 11.3917 34 34 0.604394 8.01435 88.6404
10444479 9.2487 11.3917 34 34 0.604394 8.01435 88.6404
10444489 8.78187 11.0693 34 34 0.650951 8.22108 87.8512
10444499 8.78187 11.0693 34 34 0.650951 8.22108 87.8512
10444509 8.2886 10.6273 34 34 0.672692 8.47097 86.9159
10444527 7.91865 10.2774 34 34 0.684109 8.66699 86.196
10444540 7.55751 9.93662 34 34 0.695693 8.86129 85.4941
10444549 7.27565 9.73402 34 34 0.722969 8.99727 85.0097
10444559 7.27565 9.73402 34 34 0.722969 8.99727 85.0097
10444569 7.09948 9.66035 34 34 0.755331 9.068 84.7598
10444579 7.09948 9.66035 34 34 0.755331 9.068 84.7598
10444589 6.94093 9.50379 34 34 0.758737 9.15781 84.4447
10444599 6.89689 9.4117 34 34 0.745717 9.19682 84.3086
10444609 6.89689 9.4117 34 34 0.745717 9.19682 84.3086
10444620 6.82643 9.35645 34 34 0.751346 9.23296 84.1829
10444629 6.82643 9.29198 34 34 0.732765 9.25153 84.1184
10444640 6.82643 9.29198 34 34 0.732765 9.25153 84.1184
10444652 6.77358 9.21831 34 34 0.727668 9.28806 83.9919
10444660 6.77358 9.21831 34 34 0.727668 9.28806 83.9919
10444669 6.74715 9.14464 34 34 0.71446 9.31704 83.8918
10444680 6.63264 9.15385 34 34 0.752273 9.3476 83.7865
10444690 6.63264 9.15385 34 34 0.752273 9.3476 83.7865
10444700 6.54456 9.11701 34 34 0.768709 9.38396 83.6616
10444710 6.4829 8.95125 34 34 0.73961 9.45042 83.4341
10444721 6.4829 8.95125 34 34 0.73961 9.45042 83.4341
10444730 6.46528 8.98808 34 34 0.755751 9.44479 83.4534
10444746 6.46528 8.98808 34 34 0.755751 9.44479 83.4534
10444755 6.41244 8.92362 34 34 0.753331 9.4792 83.3361
10444765 6.51813 8.94204 34 34 0.726065 9.4428 83.4602
10444770 6.51813 8.94204 34 34 0.726065 9.4428 83.4602
10444783 6.57098 8.89599 34 34 0.696385 9.4408 83.467
10444790 6.56218 8.89599 34 34 0.699097 9.44338 83.4582
10444803 6.56218 8.9052 34 34 0.701779 9.44069 83.4674
10444810 6.65026 8.9052 34 34 0.674686 9.41492 83.5555
10444823 6.65026 8.9052 34 34 0.674686 9.41492 83.5555
10444830 6.66788 8.86836 34 34 0.658542 9.42054 83.5362
10444840 6.6943 8.89599 34 34 0.658476 9.40475 83.5903
10444850 6.6943 8.89599 34 34 0.658476 9.40475 83.5903
10444865 6.72073 8.88678 34 34 0.647688 9.39972 83.6075
10444872 6.72073 8.88678 34 34 0.647688 9.39972 83.6075
10444882 6.70311 8.84074 34 34 0.639671 9.41832 83.5438
10444892 6.8 8.85915 34 34 0.61534 9.38466 83.6592
10444902 6.8 8.85915 34 34 0.61534 9.38466 83.6592
10444912 6.75596 8.91441 34 34 0.644928 9.38139 83.6704
10444922 6.85285 8.87757 34 34 0.604534 9.3639 83.7304
10444942 6.83523 8.92362 34 34 0.623333 9.35563 83.7589
10444952 6.86166 8.92362 34 34 0.615251 9.34795 83.7853
10444963 6.86166 8.85915 34 34 0.596476 9.3667 83.7208
10444972 6.91451 8.84995 34 34 0.577644 9.35401 83.7645
10444993 6.91451 8.84995 34 34 0.577644 9.35401 83.7645
10445003 7.0114 8.89599 34 34 0.561509 9.31252 83.9074
10445013 7.0114 8.89599 34 34 0.561509 9.31252 83.9074
10445023 7.03782 8.9052 34 34 0.556144 9.3022 83.943
10445033 7.03782 8.9052 34 34 0.556144 9.3022 83.943
10445043 7.02021 8.96966 34 34 0.580266 9.28864 83.9899
10445054 7.12591 9.01571 34 34 0.561494 9.24484 84.1416
10445064 7.12591 9.01571 34 34 0.561494 9.24484 84.1416
10445074 7.15233 9.01571 34 34 0.553468 9.23723 84.168
10445083 7.19637 9.03413 34 34 0.545454 9.21925 84.2305
10445093 7.19637 9.03413 34 34 0.545454 9.21925 84.2305
10445105 7.30207 9.08938 34 34 0.529468 9.17306 84.3915
10445124 7.30207 9.04334 34 34 0.516108 9.18626 84.3454
10445134 7.33731 9.12622 34 34 0.529495 9.15244 84.4635
10445143 7.33731 9.12622 34 34 0.529495 9.15244 84.4635
10445154 7.47824 9.2091 34 34 0.510955 9.08861 84.6873
10445164 7.59275 9.27356 34 34 0.495136 9.03781 84.8663
10445175 7.59275 9.27356 34 34 0.495136 9.03781 84.8663
10445184 7.6544 9.43012 34 34 0.521749 8.97616 85.0845
10445204 7.83057 9.49458 34 34 0.487551 8.90854 85.3251
10445214 7.9715 9.69718 34 34 0.503591 8.81267 85.6687
10445225 7.9715 9.69718 34 34 0.503591 8.81267 85.6687
10445238 8.10363 10.0932 34 34 0.577036 8.66677 86.1968
10445245 8.57047 10.8207 34 34 0.643724 8.34332 87.3912
10445255 8.57047 10.8207 34 34 0.643724 8.34332 87.3912
10445268 9.32798 12.1744 32.74 34 1.1634 7.68977 88.2424
10445275 10.6668 13.9886 31.2536 33.4544 1.54498 6.72298 89.3635
10445285 10.6668 13.9886 31.2536 33.4544 1.54498 6.72298 89.3635
10445295 12.4461 16.3922 29.7377 31.6132 1.61371 5.40739 90.1892
10445306 12.4461 16.3922 29.7377 31.6132 1.61371 5.40739 90.1892
10445317 14.4456 18.9548 28.0151 29.4017 1.623 3.96671 90.8172
10445327 16.2777 21.3278 26.1841 27.1415 1.65166 2.5932 90.9312
10445355 16.2777 21.3278 26.1841 27.1415 1.65166 2.5932 90.9312
10445357 17.9367 23.3312 24.5599 25.2126 1.66059 1.40124 91.0405
10445367 19.4414 24.9846 23.2015 23.3811 1.57204 0.355461 91.0085
10445376 20.8564 26.5503 21.9415 21.5496 1.45823 -0.646161 90.8978
10445387 20.8564 26.5503 21.9415 21.5496 1.45823 -0.646161 90.8978
10445407 22.3312 28.0675 20.5437 19.7862 1.37191 -1.66464 90.7287
10445408 23.7163 29.6236 19.2739 18.0911 1.30216 -2.64179 90.7049
10445418 23.7163 29.6236 19.2739 18.0911 1.30216 -2.64179 90.7049
10445429 25.0018 30.9462 17.9647 16.6573 1.27999 -3.53196 90.57
10445439 26.3072 32.1619 16.7505 15.2962 1.21539 -4.37864 90.5157
10445451 26.3072 32.1619 16.7505 15.2962 1.21539 -4.37864 90.5157
10445459 27.5029 33.2706 15.6795 14.2016 1.18299 -5.11156 90.6546
10445470 28.4894 34 14.5566 13.2878 1.17392 -5.75284 90.3338
10445482 28.4894 34 14.5566 13.2878 1.17392 -5.75284 90.3338
10445492 29.5657 34 13.5688 12.4692 0.930414 -6.28227 89.6037
10445509 30.4226 34 12.7058 11.7363 0.733656 -6.74855 88.8647
10445519 31.0703 34 12.0092 11.1366 0.582972 -7.12872 88.2161
10445529 31.0703 34 12.0092 11.1366 0.582972 -7.12872 88.2161
10445539 31.6782 34 11.3541 10.6797 0.469553 -7.4638 87.7121
10445551 31.9472 34 10.8031 10.318 0.450143 -7.72258 87.0683
10445570 32.1465 34 10.4287 10.0325 0.420624 -7.91245 86.6078
10445580 32.1465 34 10.4287 10.0325 0.420624 -7.91245 86.6078
10445592 32.1864 34 10.1272 9.86114 0.448948 -8.04146 86.1748
10445602 32.1565 34 10.1272 9.7374 0.422475 -8.07218 86.0211
10445622 32.1964 34 10.0856 9.7374 0.42299 -8.08655 86.0194
10445632 32.1964 34 10.0544 9.72788 0.42949 -8.09748 85.9787
10445652 32.4056 34 10.1896 9.76596 0.338903 -8.06787 86.3612
10445662 32.4056 34 10.1896 9.76596 0.338903 -8.06787 86.3612
10445672 32.3558 34 10.4287 9.93729 0.332308 -7.9547 86.7218
10445682 32.5551 34 10.6471 10.28 0.307995 -7.82355 87.4821
10445693 32.5551 34 10.6471 10.28 0.307995 -7.82355 87.4821
10445702 32.4953 34 11.011 10.4894 0.279284 -7.66997 87.9957
10445712 32.575 34 11.3437 10.7273 0.228032 -7.53062 88.6461
10445722 32.575 34 11.3437 10.7273 0.228032 -7.53062 88.6461
10445732 32.7544 34 11.6141 11.0605 0.193453 -7.39356 89.4289
10445742 32.7544 34 11.6141 11.0605 0.193453 -7.39356 89.4289
10445753 32.874 34 11.822 11.1461 0.125259 -7.33049 89.8421
10445763 32.8441 34 11.9884 11.1842 0.097692 -7.27723 90.0167
10445773 32.8441 34 11.9884 11.1842 0.097692 -7.27723 90.0167
10445783 32.8042 34 11.978 11.2128 0.119606 -7.26932 89.995
10445795 32.7245 34 12.0092 11.1747 0.122631 -7.26417 89.9084
10445803 32.7245 34 12.0092 11.1747 0.122631 -7.26417 89.9084
10445813 32.575 34 12.0196 11.1176 0.145739 -7.26287 89.7122
10445823 32.575 34 12.0196 11.1176 0.145739 -7.26287 89.7122
10445834 32.5053 34 11.9156 11.0414 0.173414 -7.30166 89.4623
10445844 32.4555 34 11.9052 10.9748 0.17187 -7.3166 89.3354
10445854 32.4555 34 11.9052 10.9748 0.17187 -7.3166 89.3354
10445864 32.4455 34 11.822 10.9748 0.198141 -7.33654 89.2423
10445874 32.3359 34 11.8116 10.9558 0.226778 -7.33449 89.1033
10445885 32.3359 34 11.8116 10.9558 0.226778 -7.33449 89.1033
10445897 32.3359 34 11.822 11.0414 0.24763 -7.31044 89.1993
10445907 32.3359 34 11.822 11.0414 0.24763 -7.31044 89.1993
10445914 32.286 34 11.9156 11.1747 0.272176 -7.24953 89.3763
10445924 32.3259 34 11.978 11.2128 0.253826 -7.22801 89.5167
10445934 32.3259 34 11.978 11.2128 0.253826 -7.22801 89.5167
10445945 32.296 34 12.0508 11.346 0.278518 -7.17436 89.6928
10445955 32.296 34 12.1547 11.3936 0.262359 -7.13695 89.8444
10445965 32.296 34 12.1547 11.3936 0.262359 -7.13695 89.8444
10445975 32.286 34 12.1651 11.5078 0.293648 -7.10541 89.959
10445985 32.1665 34 12.2171 11.6125 0.341389 -7.05644 89.9961
10445998 32.1665 34 12.2171 11.6125 0.341389 -7.05644 89.9961
10446007 32.1067 34 12.3211 11.7458 0.365412 -6.99314 90.1736
10446017 32.1067 34 12.3211 11.7458 0.365412 -6.99314 90.1736
10446026 32.027 34 12.4355 11.8791 0.39202 -6.92579 90.3415
10446044 31.9771 34 12.4667 12.0123 0.433499 -6.88148 90.4561
10446058 31.8875 34 12.4459 11.9742 0.454259 -6.88768 90.3076
10446068 31.8675 34 12.4355 12.0789 0.491238 -6.86306 90.3819
10446078 31.8675 34 12.4355 12.0789 0.491238 -6.86306 90.3819
10446088 31.8077 34 12.4147 12.098 0.519142 -6.8581 90.3204
10446098 31.8077 34 12.4771 12.098 0.501528 -6.84301 90.3828
10446109 31.6483 34 12.4771 12.1361 0.55691 -6.81939 90.2614
10446118 31.6483 34 12.5291 12.2217 0.565374 -6.78616 90.3991
10446128 31.6483 34 12.5291 12.2217 0.565374 -6.78616 90.3991
10446138 31.6084 34 12.5602 12.3264 0.596091 -6.74983 90.4951
10446148 31.6483 34 12.6538 12.4026 0.578928 -6.71276 90.7047
10446158 31.6483 34 12.6538 12.4026 0.578928 -6.71276 90.7047
10446168 31.6284 34 12.7058 12.4597 0.585255 -6.68485 90.7939
10446179 31.6284 34 12.7058 12.4597 0.585255 -6.68485 90.7939
10446189 31.4889 34 12.7266 12.5549 0.644317 -6.64436 90.7703
10446199 31.3095 34 12.7578 12.6881 0.721952 -6.58863 90.7554
10446210 31.3095 34 12.7578 12.6881 0.721952 -6.58863 90.7554
10446219 31.0504 34 12.841 12.9071 0.830317 -6.49279 90.7984
10446229 30.7315 33.7374 13.0177 13.1926 0.876921 -6.32867 90.6793
10446249 30.2732 33.2609 13.3089 13.7256 0.939754 -6.04507 90.5685
10446261 32.1366 33.2609 13.8495 13.7256 0.269002 -6.10216 92.9726
10446269 29.5856 32.7746 13.8495 14.3443 1.01702 -5.65954 90.5541
10446282 28.9877 32.016 14.515 15.2105 1.02609 -5.17113 90.7292
10446290 28.9877 32.016 14.515 15.2105 1.02609 -5.17113 90.7292
10446303 28.3101 31.1018 15.326 16.248 1.02043 -4.58937 90.9859
10446312 27.5528 30.1098 16.3761 17.6625 1.04781 -3.86429 91.7012
10446322 27.5528 30.1098 16.3761 17.6625 1.04781 -3.86429 91.7012
10446330 26.646 28.758 17.5119 19.4453 1.09501 -2.99588 92.3611
10446340 25.5498 27.0366 18.9294 21.6275 1.12326 -1.93727 93.1433
10446350 25.5498 27.0366 18.9294 21.6275 1.12326 -1.93727 93.1433
10446375 24.1846 25.0818 20.5929 24.102 1.17235 -0.729796 93.9614
10446376 24.1846 25.0818 20.5929 24.102 1.17235 -0.729796 93.9614
10446380 22.5703 23.02 22.3943 26.557 1.21967 0.533254 94.5417
10446390 20.966 21.1625 24.2646 28.6029 1.1934 1.69571 94.996
10446412 19.3318 19.4508 25.6624 30.2785 1.24972 2.71712 94.7235
10446423 17.7175 17.8267 26.7255 31.5255 1.30848 3.63136 93.7952
10446442 16.4539 16.4198 27.7099 32.6848 1.32436 4.4261 93.2684
10446452 16.4539 16.4198 27.7099 32.6848 1.32436 4.4261 93.2684
10446462 15.1503 15.149 28.7435 33.8246 1.36751 5.2121 92.8674
10446473 13.9788 14.0807 29.6491 34 1.21386 5.8211 91.7086
10446483 13.9788 14.0807 29.6491 34 1.21386 5.8211 91.7086
10446493 12.9746 13.0769 30.5153 34 0.990143 6.37051 90.5669
10446503 12.1202 12.3034 31.3914 34 0.777078 6.84204 89.815
10446523 11.3627 11.6311 32.2478 34 0.566038 7.27027 89.2416
10446535 11.3627 11.6311 32.2478 34 0.566038 7.27027 89.2416
10446543 10.5788 11.0417 32.8089 34 0.467616 7.66518 88.4294
10446553 10.0591 10.6089 33.3109 34 0.352037 7.95242 87.9789
10446563 10.0591 10.6089 33.3109 34 0.352037 7.95242 87.9789
10446573 9.58342 10.305 33.6948 34 0.29307 8.1876 87.5833
10446584 9.09896 10.0195 34 34 0.264162 8.41639 87.1185
10446593 9.09896 10.0195 34 34 0.264162 8.41639 87.1185
10446604 8.74663 9.8169 34 34 0.309098 8.56651 86.5635
10446613 8.74663 9.8169 34 34 0.309098 8.56651 86.5635
10446624 8.32383 9.59588 34 34 0.370127 8.74309 85.9197
10446633 7.99793 9.35645 34 34 0.397906 8.90036 85.3544
10446653 7.77772 9.19989 34 34 0.418395 9.00632 84.9776
10446663 7.77772 9.19989 34 34 0.418395 9.00632 84.9776
10446673 7.50466 9.04334 34 34 0.454968 9.1283 84.548
10446688 7.28446 8.89599 34 34 0.478595 9.23365 84.1805
10446693 7.28446 8.89599 34 34 0.478595 9.23365 84.1805
10446703 7.09948 8.76706 34 34 0.497094 9.32436 83.8665
10446713 6.92332 8.7026 34 34 0.531918 9.39435 83.6259
10446723 6.92332 8.7026 34 34 0.531918 9.39435 83.6259
10446734 6.83523 8.58288 34 34 0.523761 9.45512 83.4181
10446744 6.83523 8.58288 34 34 0.523761 9.45512 83.4181
10446754 6.66788 8.53684 34 34 0.561553 9.51784 83.2047
10446764 6.54456 8.48158 34 34 0.583258 9.57058 83.0261
10446775 6.54456 8.48158 34 34 0.583258 9.57058 83.0261
10446786 6.47409 8.38028 34 34 0.575161 9.62151 82.8544
10446794 6.35078 8.33424 34 34 0.599703 9.67194 82.685
10446806 6.35078 8.33424 34 34 0.599703 9.67194 82.685
10446814 6.22746 8.26977 34 34 0.618902 9.7281 82.4972
10446827 6.11295 8.11322 34 34 0.608161 9.80962 82.2262
10446835 6.11295 8.11322 34 34 0.608161 9.80962 82.2262
10446847 5.97202 8.03955 34 34 0.630254 9.87454 82.0116
10446855 5.97202 8.03955 34 34 0.630254 9.87454 82.0116
10446868 5.86632 8.02113 34 34 0.657853 9.91224 81.8875
10446875 5.8399 7.96587 34 34 0.649703 9.93712 81.8058
10446889 5.8399 7.96587 34 34 0.649703 9.93712 81.8058
10446895 5.83109 7.88299 34 34 0.627768 9.9651 81.7141
10446905 5.77824 7.85536 34 34 0.63611 9.98971 81.6336
10446917 5.77824 7.85536 34 34 0.63611 9.98971 81.6336
10446927 5.77824 7.88299 34 34 0.644356 9.98126 81.6612
10446937 5.77824 7.88299 34 34 0.644356 9.98126 81.6612
10446947 5.81347 7.84615 34 34 0.622305 9.98175 81.6596
10446959 5.82228 7.78169 34 34 0.600278 9.99878 81.604
10446968 5.82228 7.78169 34 34 0.600278 9.99878 81.604
10446980 5.83109 7.84615 34 34 0.616774 9.97636 81.6772
10446991 5.82228 7.77248 34 34 0.597528 10.0016 81.5948
10447008 5.85751 7.69881 34 34 0.564423 10.0134 81.5563
10447018 5.85751 7.69881 34 34 0.564423 10.0134 81.5563
10447028 5.81347 7.68039 34 34 0.572717 10.0326 81.4939
10447041 5.8399 7.67118 34 34 0.561666 10.0273 81.5111
10447049 5.8399 7.67118 34 34 0.561666 10.0273 81.5111
10447062 5.88394 7.65276 34 34 0.542343 10.0194 81.5367
10447069 5.87513 7.65276 34 34 0.545099 10.0221 81.5279
10447082 5.87513 7.65276 34 34 0.545099 10.0221 81.5279
10447089 5.98083 7.74485 34 34 0.539616 9.96155 81.7257
10447102 5.98083 7.74485 34 34 0.539616 9.96155 81.7257
10447109 5.93679 7.61593 34 34 0.51474 10.0145 81.5527
10447121 5.98964 7.66197 34 34 0.512034 9.9842 81.6516
10447129 5.98964 7.66197 34 34 0.512034 9.9842 81.6516
10447141 5.98964 7.68039 34 34 0.517556 9.97856 81.67
10447152 6.06891 7.73564 34 34 0.509363 9.93749 81.8046
10447160 6.06891 7.73564 34 34 0.509363 9.93749 81.8046
10447170 6.13057 7.74485 34 34 0.492907 9.9159 81.8754
10447181 6.23627 7.75406 34 34 0.462797 9.88098 81.9903
10447202 6.21865 7.76327 34 34 0.471023 9.88353 81.9819
10447212 6.21865 7.76327 34 34 0.471023 9.88353 81.9819
10447222 6.23627 7.76327 34 34 0.465551 9.87819 81.9995
10447232 6.34197 7.83694 34 34 0.454795 9.82389 82.1789
10447244 6.34197 7.83694 34 34 0.454795 9.82389 82.1789
10447252 6.43005 7.91983 34 34 0.452271 9.77235 82.3499
10447262 6.47409 7.96587 34 34 0.452384 9.74528 82.44
10447272 6.47409 7.96587 34 34 0.452384 9.74528 82.44
10447285 6.50052 8.04875 34 34 0.468883 9.71251 82.5493
10447293 6.50052 8.04875 34 34 0.468883 9.71251 82.5493
10447305 6.56218 8.05796 34 34 0.452611 9.69132 82.6201
10447313 6.73834 8.14085 34 34 0.423056 9.61414 82.8792
10447335 6.79119 8.20531 34 34 0.425956 9.57935 82.9965
10447343 6.84404 8.32503 34 34 0.445175 9.52835 83.1691
10447354 6.84404 8.32503 34 34 0.445175 9.52835 83.1691
10447363 6.98497 8.37107 34 34 0.415716 9.47333 83.356
10447374 7.09067 8.59209 34 34 0.448546 9.37778 83.6828
10447395 7.09067 8.59209 34 34 0.448546 9.37778 83.6828
10447397 7.28446 8.79469 34 34 0.449052 9.26285 84.0791
10447404 7.28446 8.79469 34 34 0.449052 9.26285 84.0791
10447414 7.45181 9.03413 34 34 0.468215 9.14603 84.4859
10447424 7.6544 9.43012 34 34 0.521749 8.97616 85.0845
10447435 7.6544 9.43012 34 34 0.521749 8.97616 85.0845
10447445 7.9715 9.82611 34 34 0.540403 8.77689 85.7976
10447455 8.37668 10.6089 34 34 0.641543 8.45217 86.9856
10447466 8.37668 10.6089 34 34 0.641543 8.45217 86.9856
10447475 9.05492 11.7692 33.8917 34 0.7954 7.95814 88.7159
10447485 9.05492 11.7692 33.8917 34 0.7954 7.95814 88.7159
10447495 9.96218 13.2519 32.7203 34 1.2702 7.25633 89.9344
10447508 11.3363 15.0753 31.7458 32.9576 1.3584 6.30388 91.115
10447516 11.3363 15.0753 31.7458 32.9576 1.3584 6.30388 91.115
10447529 12.7456 16.9816 30.5843 31.4281 1.3843 5.27883 91.7395
10447535 13.9699 18.6728 29.2652 29.7914 1.42559 4.32073 91.6993
10447556 15.0798 20.1316 27.8871 28.2034 1.46989 3.43024 91.3019
10447565 15.0798 20.1316 27.8871 28.2034 1.46989 3.43024 91.3019
10447575 15.9959 21.5709 26.7157 26.7616 1.54348 2.62134 91.0441
10447586 17.1694 23.1173 25.308 25.2126 1.61122 1.6905 90.8073
10447599 17.1694 23.1173 25.308 25.2126 1.61122 1.6905 90.8073
10447605 18.5545 24.6344 23.9299 23.6636 1.60097 0.727771 90.7825
10447615 18.5545 24.6344 23.9299 23.6636 1.60097 0.727771 90.7825
10447625 19.8898 26.0933 22.6503 22.0854 1.55386 -0.206254 90.7187
10447636 21.1952 27.4354 21.3312 20.5364 1.50427 -1.12095 90.4982
10447645 21.1952 27.4354 21.3312 20.5364 1.50427 -1.12095 90.4982
10447657 22.4906 28.6316 19.9629 19.1725 1.48201 -1.99209 90.2576
10447667 23.786 29.7792 18.9294 17.9255 1.37947 -2.77212 90.4201
10447675 23.786 29.7792 18.9294 17.9255 1.37947 -2.77212 90.4201
10447685 24.8025 30.7517 18.0139 16.9429 1.34742 -3.41352 90.511
10447695 24.8025 30.7517 18.0139 16.9429 1.34742 -3.41352 90.511
10447705 25.6196 31.4325 17.1477 16.0767 1.31318 -3.95912 90.2764
10447715 26.3271 32.016 16.5737 15.4199 1.25508 -4.37521 90.3367
10447725 26.3271 32.016 16.5737 15.4199 1.25508 -4.37521 90.3367
10447735 26.8652 32.6093 16.033 14.8869 1.27164 -4.73832 90.3944
10447746 27.4033 32.9788 15.5755 14.5252 1.25029 -5.01997 90.4828
10447772 27.7222 33.2706 15.2532 14.3158 1.27289 -5.20481 90.5618
10447775 27.7222 33.2706 15.2532 14.3158 1.27289 -5.20481 90.5618
10447785 27.9115 33.4067 15.1284 14.0588 1.22247 -5.32526 90.5055
10447797 28.0809 33.4262 15.0661 14.0683 1.19911 -5.35727 90.6415
10447807 28.0809 33.4262 15.0661 14.0683 1.19911 -5.35727 90.6415
10447817 28.3101 33.5915 15.1076 14.0207 1.15196 -5.40041 91.03
10447827 28.5592 33.6693 15.0972 13.916 1.0765 -5.46054 91.2418
10447837 28.5592 33.6693 15.0972 13.916 1.0765 -5.46054 91.2418
10447847 28.7286 33.6791 15.0972 13.9351 1.03572 -5.47496 91.44
10447867 28.7087 33.5235 15.0141 13.8303 0.996706 -5.49884 91.0765
10447877 28.7286 33.3679 15.2324 13.9922 0.930506 -5.39939 91.321
10447887 28.7286 33.3679 15.2324 13.9922 0.930506 -5.39939 91.321
10447897 28.7087 33.2998 15.3676 14.1254 0.914994 -5.33032 91.5014
10447907 28.609 33.1733 15.5755 14.2396 0.881141 -5.23494 91.5975
10447918 28.609 33.1733 15.5755 14.2396 0.881141 -5.23494 91.5975
10447928 28.6987 33.1442 15.6483 14.2968 0.842673 -5.21274 91.7879
10447937 28.6987 33.1442 15.6483 14.2968 0.842673 -5.21274 91.7879
10447946 28.7784 33.0566 15.6483 14.192 0.769547 -5.235 91.6754
10447964 28.8283 33.1053 15.5443 14.1159 0.777501 -5.28528 91.5938
10447968 28.8283 33.1053 15.5443 14.1159 0.777501 -5.28528 91.5938
10447977 29.0475 33.1053 15.4092 14.0493 0.736231 -5.35322 91.6112
10447987 29.197 33.2317 15.2948 13.8875 0.716999 -5.44363 91.6109
10448007 29.3464 33.3679 15.1388 13.6876 0.701916 -5.55292 91.5407
10448017 29.3464 33.3679 15.1388 13.6876 0.701916 -5.55292 91.5407
10448027 29.5258 33.397 14.9829 13.5067 0.655019 -5.6502 91.4124
10448037 29.7251 33.504 14.8893 13.2973 0.598073 -5.74997 91.4157
10448047 29.7251 33.504 14.8893 13.2973 0.598073 -5.74997 91.4157
10448057 29.9642 33.6207 14.6606 13.1355 0.583109 -5.87467 91.381
10448069 29.9642 33.6207 14.6606 13.1355 0.583109 -5.87467 91.381
10448078 30.1635 33.8249 14.411 12.9642 0.605974 -6.01114 91.3637
10448091 30.4824 33.9805 14.1927 12.8119 0.578713 -6.14291 91.4675
10448098 30.4824 33.9805 14.1927 12.8119 0.578713 -6.14291 91.4675
10448108 30.612 34 14.0055 12.5929 0.541463 -6.25151 91.2104
10448118 31.0205 34 13.756 12.3359 0.427896 -6.40889 91.1124
10448128 31.0205 34 13.756 12.3359 0.427896 -6.40889 91.1124
10448138 31.3095 34 13.5064 12.098 0.35255 -6.55099 90.9139
10448148 31.3095 34 13.5064 12.098 0.35255 -6.55099 90.9139
10448158 31.6184 34 13.2049 11.8791 0.290996 -6.70343 90.7024
10448168 31.9373 34 12.9657 11.6316 0.201181 -6.84931 90.5346
10448179 31.9373 34 12.9657 11.6316 0.201181 -6.84931 90.5346
10448188 32.1366 34 12.6538 11.3936 0.167218 -7.00054 90.184
10448198 32.3757 34 12.4043 11.2699 0.135997 -7.11299 90.0499
10448208 32.3757 34 12.4043 11.2699 0.135997 -7.11299 90.0499
10448220 32.5152 34 12.2171 11.0129 0.0781417 -7.23468 89.7452
10448228 32.5152 34 12.2171 11.0129 0.0781417 -7.23468 89.7452
10448243 32.6448 34 12.0404 10.8415 0.0436723 -7.33237 89.5267
10448248 32.7743 34 11.8324 10.7464 0.0390649 -7.41925 89.3531
10448258 32.7743 34 11.8324 10.7464 0.0390649 -7.41925 89.3531
10448268 32.9537 34 11.7908 10.7083 -0.0101253 -7.45442 89.4528
10448280 33.1032 34 11.8012 10.6607 -0.0680208 -7.47634 89.5651
10448288 33.1032 34 11.8012 10.6607 -0.0680208 -7.47634 89.5651
10448298 33.1829 34 11.6972 10.6702 -0.0586048 -7.50674 89.5503
10448310 33.1829 34 11.6972 10.6702 -0.0586048 -7.50674 89.5503
10448318 33.2726 34 11.718 10.7083 -0.0786871 -7.49946 89.6989
10448332 33.4021 34 11.822 10.7273 -0.138077 -7.4795 89.9515
10448338 33.4021 34 11.822 10.7273 -0.138077 -7.4795 89.9515
10448348 33.4619 34 11.8324 10.7464 -0.152139 -7.47714 90.0407
10448358 33.442 34 11.9676 10.794 -0.170614 -7.42994 90.2035
10448368 33.442 34 11.9676 10.794 -0.170614 -7.42994 90.2035
10448379 33.5217 34 11.9884 10.9177 -0.163771 -7.40076 90.4278
10448389 33.5217 34 11.9884 10.9177 -0.163771 -7.40076 90.4278
10448399 33.5516 34 12.1963 10.9653 -0.215687 -7.34016 90.7132
10448409 33.5815 34 12.3523 11.051 -0.242572 -7.28335 90.9847
10448429 33.5416 34 12.3419 11.1747 -0.194608 -7.25223 91.0582
10448443 33.3324 34 12.4043 11.3651 -0.101964 -7.1727 91.1017
10448449 33.3324 34 12.4043 11.3651 -0.101964 -7.1727 91.1017
10448459 33.2526 34 12.5187 11.5364 -0.0643164 -7.09649 91.3077
10448480 32.9637 33.8152 12.5498 11.6982 -2.23517e-05 -7.0085 91.0269
10448490 32.6448 33.6013 12.7058 11.9267 0.0487775 -6.86855 90.8785
10448499 32.6448 33.6013 12.7058 11.9267 0.0487775 -6.86855 90.8785
10448509 32.296 33.2998 12.9346 12.3074 0.103647 -6.66361 90.8377
10448519 31.8875 33.2998 13.1841 12.7167 0.25934 -6.46953 91.088
10448529 31.8875 33.008 13.1841 12.7167 0.179839 -6.44212 90.7962
10448539 31.4789 32.5801 13.6208 13.2402 0.198144 -6.13693 90.92
10448561 30.9308 32.1522 14.1095 13.9826 0.300109 -5.75665 91.1751
10448573 30.3828 31.5006 14.7541 14.8393 0.328767 -5.29477 91.4768
10448585 30.3828 31.5006 14.7541 14.8393 0.328767 -5.29477 91.4768
10448595 29.5955 30.6447 15.43 15.9434 0.42643 -4.7264 91.6137
10448604 28.7186 29.3513 16.3242 17.4774 0.485957 -3.96234 91.8714
10448610 28.7186 29.3513 16.3242 17.4774 0.485957 -3.96234 91.8714
10448629 27.6026 27.7757 17.5709 19.416 0.546274 -2.98673 92.3653
10448632 27.6026 27.7757 17.5709 19.416 0.546274 -2.98673 92.3653
10448642 26.337 26.1224 18.8801 21.686 0.696367 -1.91776 93.0256
10448652 24.8423 24.2649 20.4059 24.1507 0.845405 -0.728761 93.6638
10448662 24.8423 24.2649 20.4059 24.1507 0.845405 -0.728761 93.6638
10448672 23.0885 22.2906 22.1581 26.4499 0.929353 0.515306 93.9871
10448684 21.1753 20.5595 24.0973 28.6126 1.03224 1.74311 94.4446
10448692 21.1753 20.5595 24.0973 28.6126 1.03224 1.74311 94.4446
10448701 19.3218 18.8478 25.9774 30.5318 1.07743 2.90555 94.6789
10448713 19.3218 18.8478 25.9774 30.5318 1.07743 2.90555 94.6789
10448722 17.4683 17.3112 27.5229 32.1198 1.17551 3.94977 94.4222
10448732 15.899 15.9778 28.7435 33.396 1.25812 4.82832 94.0162
10448742 15.899 15.9778 28.7435 33.396 1.25812 4.82832 94.0162
10448752 14.5601 14.7898 29.7082 34 1.21471 5.53819 93.0581
10448762 13.3181 13.8044 30.4464 34 1.10296 6.11406 91.569
10448773 13.3181 13.8044 30.4464 34 1.10296 6.11406 91.569
10448782 12.3052 12.8835 31.293 34 0.90774 6.64846 90.4817
10448794 12.3052 12.8835 31.293 34 0.90774 6.64846 90.4817
10448802 11.3451 12.1376 32.0214 34 0.774014 7.12907 89.5041
10448816 10.4378 11.539 32.8581 34 0.63124 7.57832 88.835
10448822 10.4378 11.539 32.8581 34 0.63124 7.57832 88.835
10448832 9.59223 10.9312 33.7736 34 0.443214 8.02691 88.297
10448842 9.59223 10.9312 33.7736 34 0.443214 8.02691 88.297
10448852 8.77306 10.3879 34 34 0.46317 8.40498 87.1609
10448862 8.04197 9.88136 34 34 0.535184 8.74209 85.9233
10448907 7.39016 9.29198 34 34 0.561461 9.09009 84.6821
10448908 6.70311 8.74865 34 34 0.612792 9.44526 83.4518
10448909 6.70311 8.74865 34 34 0.612792 9.44526 83.4518
10448913 6.23627 8.33424 34 34 0.635207 9.70616 82.5705
10448933 5.76943 7.88299 34 34 0.647122 9.98395 81.6524
10448943 5.48756 7.59751 34 34 0.650534 10.1588 81.0851
10448953 5.48756 7.59751 34 34 0.650534 10.1588 81.0851
10448964 5.2057 7.41333 34 34 0.684586 10.3042 80.619
10448974 5.02073 7.2844 34 34 0.704709 10.4031 80.3051
10448984 5.02073 7.2844 34 34 0.704709 10.4031 80.3051
10448994 4.87979 7.22914 34 34 0.733176 10.4653 80.1089
10449004 4.87979 7.22914 34 34 0.733176 10.4653 80.1089
10449014 4.74767 7.16468 34 34 0.756145 10.528 79.9124
10449033 4.73005 7.11863 34 34 0.747845 10.5483 79.8487
10449034 4.73005 7.11863 34 34 0.747845 10.5483 79.8487
10449045 4.61554 7.01733 34 34 0.75402 10.6176 79.6329
10449054 4.50104 6.88841 34 34 0.751793 10.6961 79.3894
10449067 4.50104 6.88841 34 34 0.751793 10.6961 79.3894
10449075 4.50984 6.84236 34 34 0.734863 10.7082 79.3522
10449086 4.40415 6.72264 34 34 0.732529 10.7814 79.1268
10449106 4.38653 6.59372 34 34 0.698653 10.8292 78.9802
10449115 4.38653 6.59372 34 34 0.698653 10.8292 78.9802
10449128 4.27202 6.49242 34 34 0.704759 10.9 78.7644
10449138 4.22798 6.51083 34 34 0.724819 10.9084 78.7388
10449148 4.22798 6.51083 34 34 0.724819 10.9084 78.7388
10449157 4.15751 6.38191 34 34 0.70805 10.9742 78.5394
10449167 4.06062 6.24377 34 34 0.697008 11.0522 78.3044
10449178 4.06062 6.24377 34 34 0.697008 11.0522 78.3044
10449194 4.11347 6.19772 34 34 0.665376 11.0499 78.3112
10449198 4.11347 6.19772 34 34 0.665376 11.0499 78.3112
10449207 3.99896 6.05959 34 34 0.659963 11.1342 78.0585
10449221 3.94611 5.93066 34 34 0.637081 11.1952 77.8768
10449237 3.91969 5.82015 34 34 0.611162 11.2414 77.7398
10449252 3.83161 5.70043 34 34 0.602597 11.3117 77.532
10449260 3.83161 5.70043 34 34 0.602597 11.3117 77.532
10449268 3.83161 5.59913 34 34 0.570679 11.3461 77.4307
10449278 3.83161 5.59913 34 34 0.570679 11.3461 77.4307
10449288 3.76114 5.54388 34 34 0.576526 11.389 77.305
10449298 3.76114 5.44258 34 34 0.544479 11.4236 77.2037
10449318 3.73471 5.43337 34 34 0.550309 11.4358 77.1681
10449328 3.75233 5.47021 34 34 0.556147 11.4172 77.2225
10449339 3.75233 5.47021 34 34 0.556147 11.4172 77.2225
10449349 3.79637 5.44258 34 34 0.532827 11.4115 77.239
10449359 3.79637 5.44258 34 34 0.532827 11.4115 77.239
10449369 3.78756 5.43337 34 34 0.532824 11.4177 77.2209
10449379 3.78756 5.42416 34 34 0.529906 11.4209 77.2117
10449389 3.78756 5.42416 34 34 0.529906 11.4209 77.2117
10449399 3.90207 5.42416 34 34 0.492099 11.3817 77.3262
10449409 3.89326 5.461 34 34 0.506672 11.3722 77.3543
10449419 3.89326 5.461 34 34 0.506672 11.3722 77.3543
10449429 4.06943 5.62676 34 34 0.501096 11.2561 77.6962
10449449 4.1487 5.67281 34 34 0.489613 11.2138 77.8215
10449461 4.2456 5.90303 34 34 0.530219 11.1041 78.1486
10449469 4.2456 5.90303 34 34 0.530219 11.1041 78.1486
10449481 4.42176 5.94908 34 34 0.487208 11.0301 78.3708
10449489 4.56269 6.11484 34 34 0.493199 10.9286 78.6775
10449502 4.56269 6.11484 34 34 0.493199 10.9286 78.6775
10449509 4.72124 6.28061 34 34 0.493458 10.8222 79.0018
10449519 4.72124 6.28061 34 34 0.493458 10.8222 79.0018
10449529 4.73886 6.40953 34 34 0.527704 10.7744 79.1484
10449539 4.95907 6.60293 34 34 0.516531 10.6404 79.562
10449549 4.95907 6.60293 34 34 0.516531 10.6404 79.562
10449560 5.26736 6.88841 34 34 0.505596 10.4504 80.1558
10449569 5.55803 7.13705 34 34 0.489196 10.2804 80.6951
10449590 5.93679 7.56988 34 34 0.500908 10.0286 81.5067
10449610 6.42124 8.01192 34 34 0.48241 9.74732 82.4332
10449620 7.02021 8.83153 34 34 0.540039 9.32866 83.8517
10449630 7.02021 8.83153 34 34 0.540039 9.32866 83.8517
10449652 7.80414 9.97346 34 34 0.632247 8.78243 85.7776
10449653 8.70259 11.2996 34 34 0.737759 8.18125 88.0022
10449660 8.70259 11.2996 34 34 0.737759 8.18125 88.0022
10449671 10.0503 13.0677 34 34 0.8279 7.38856 91.118
10449692 11.3363 15.0937 32.681 33.2596 1.17356 6.4161 92.3705
10449702 12.6135 17.107 31.3914 31.6229 1.2738 5.38534 92.7348
10449712 12.6135 17.107 31.3914 31.6229 1.2738 5.38534 92.7348
10449722 13.7145 19.0034 29.9149 29.8109 1.40219 4.38231 92.4437
10449734 14.8684 20.7248 28.3202 27.7456 1.44061 3.35033 91.659
10449742 14.8684 20.7248 28.3202 27.7456 1.44061 3.35033 91.659
10449755 16.2953 22.6991 26.4893 25.4756 1.48146 2.13895 90.9594
10449763 16.2953 22.6991 26.4893 25.4756 1.48146 2.13895 90.9594
10449772 17.9168 24.401 24.8257 23.4103 1.39941 0.980337 90.5538
10449782 19.6008 26.0252 23.1818 21.4814 1.30799 -0.159953 90.2892
10449792 19.6008 26.0252 23.1818 21.4814 1.30799 -0.159953 90.2892
10449802 21.2351 27.5618 21.5576 19.7862 1.2634 -1.24022 90.1407
10449812 22.7497 28.9331 20.1697 18.3639 1.21309 -2.18628 90.2163
10449832 24.2345 30.139 18.949 17.0877 1.11801 -3.04226 90.4102
10449862 24.2345 30.139 18.949 17.0877 1.11801 -3.04226 90.4102
10449865 25.5199 31.238 17.758 15.991 1.09139 -3.81334 90.5069
10449868 26.7356 32.1716 16.6361 15.1439 1.0872 -4.48695 90.6872
10449895 27.772 33.0566 15.7211 14.3634 1.07986 -5.07256 90.9131
10449897 28.7087 33.8249 14.8477 13.5829 1.0585 -5.62359 90.9642
10449914 29.5457 34 14.0471 12.9071 0.915536 -6.06491 90.4999
10449924 29.5457 34 14.0471 12.9071 0.915536 -6.06491 90.4999
10449934 30.2732 34 13.3089 12.4216 0.788742 -6.42352 90.0036
10449947 30.8312 34 12.7786 11.9457 0.652084 -6.71766 89.5555
10449954 30.8312 34 12.7786 11.9457 0.652084 -6.71766 89.5555
10449964 31.2696 34 12.1859 11.5364 0.584552 -7.00299 88.992
10449975 31.6383 34 11.8532 11.2128 0.485098 -7.19903 88.7043
10449985 31.6383 34 11.8532 11.2128 0.485098 -7.19903 88.7043
10449996 31.8875 34 11.4581 10.9272 0.447947 -7.39222 88.2728
10450006 32.0868 34 11.2086 10.6321 0.380093 -7.54816 87.9275
10450025 32.296 34 10.959 10.4894 0.351682 -7.66675 87.7444
10450035 32.296 34 10.959 10.4894 0.351682 -7.66675 87.7444
10450048 32.3957 34 10.8135 10.3561 0.327468 -7.74727 87.5652
10450057 32.4355 34 10.7303 10.2514 0.310463 -7.79947 87.4172
10450067 32.4355 34 10.7303 10.2514 0.310463 -7.79947 87.4172
10450078 32.3957 34 10.7719 10.2228 0.301898 -7.79278 87.3904
10450087 32.3757 34 10.9174 10.3085 0.289762 -7.73098 87.6017
10450097 32.3757 34 10.9174 10.3085 0.289762 -7.73098 87.6017
10450109 32.286 34 11.063 10.5084 0.329897 -7.63418 87.8574
10450129 32.2761 34 11.3437 10.6988 0.305417 -7.51262 88.3186
10450138 32.2063 34 11.5933 11.0319 0.346813 -7.35907 88.8315
10450148 32.2063 34 11.5933 11.0319 0.346813 -7.35907 88.8315
10450158 32.017 34 11.8948 11.327 0.396463 -7.19338 89.2388
10450170 31.8077 34 12.2275 11.6982 0.463301 -7.00107 89.7335
10450179 31.8077 34 12.2275 11.6982 0.463301 -7.00107 89.7335
10450192 31.4889 34 12.4771 11.9742 0.558236 -6.84414 89.9402
10450198 31.0504 34 12.9346 12.5073 0.696829 -6.56552 90.4922
10450208 31.0504 34 12.9346 12.5073 0.696829 -6.56552 90.4922
10450218 30.612 34 13.4544 12.9642 0.795823 -6.2935 91.0306
10450228 30.612 34 13.4544 12.9642 0.795823 -6.2935 91.0306
10450238 30.1835 34 13.808 13.383 0.927928 -6.07269 91.3744
10450248 29.6155 33.7082 14.2966 13.9922 1.03378 -5.73638 91.6125
10450260 29.6155 33.7082 14.2966 13.9922 1.03378 -5.73638 91.6125
10450269 29.0774 33.1539 14.8581 14.6394 1.05142 -5.3528 91.7288
10450289 28.4695 32.3856 15.4612 15.4199 1.05597 -4.90112 91.7362
10450304 27.6723 31.7145 16.2618 16.2671 1.10087 -4.38304 91.9157
10450309 27.6723 31.7145 16.2618 16.2671 1.10087 -4.38304 91.9157
10450319 26.8453 30.9073 17.2166 17.2046 1.0985 -3.79687 92.1737
10450329 25.9285 29.964 18.2009 18.3834 1.14026 -3.13184 92.4768
10450339 25.9285 29.964 18.2009 18.3834 1.14026 -3.13184 92.4768
10450349 24.7925 28.8358 19.3723 19.5817 1.14835 -2.3775 92.5823
10450359 24.7925 28.8358 19.3723 19.5817 1.14835 -2.3775 92.5823
10450372 23.796 27.4645 20.5536 20.9748 1.1019 -1.57328 92.7889
10450379 22.7796 25.9279 21.8628 22.553 1.0305 -0.6913 93.1233
10450399 21.813 24.1968 23.0834 24.102 0.912708 0.189212 93.1952
10450409 20.7368 22.4559 24.2449 25.6705 0.844362 1.08304 93.1082
10450419 20.7368 22.4559 24.2449 25.6705 0.844362 1.08304 93.1082
10450430 19.7005 20.7929 25.5246 27.2 0.742298 1.96817 93.218
10450440 19.7005 20.7929 25.5246 27.2 0.742298 1.96817 93.218
10450450 18.5645 19.1396 26.6173 28.6418 0.699121 2.83258 92.9632
10450463 17.6876 17.7489 27.6705 29.9278 0.623032 3.57316 93.0348
10450470 17.6876 17.7489 27.6705 29.9278 0.623032 3.57316 93.0348
10450486 16.8062 16.4659 28.5761 30.9117 0.537747 4.2393 92.76
10450491 16.0575 15.3147 29.3341 31.7983 0.46522 4.82573 92.5046
10450501 16.0575 15.3147 29.3341 31.7983 0.46522 4.82573 92.5046
10450522 15.3705 14.4122 30.0232 32.5874 0.43456 5.32959 92.3933
10450533 14.6306 13.565 30.9682 33.6201 0.427431 5.88346 92.7838
10450543 13.7409 12.7362 32.0313 34 0.260511 6.4136 92.5084
10450557 13.7409 12.7362 32.0313 34 0.260511 6.4136 92.5084
10450563 12.8865 11.9442 32.9959 34 0.0168025 6.88774 91.8267
10450573 12.0762 11.1798 34 34 -0.24555 7.35469 91.256
10450583 12.0762 11.1798 34 34 -0.24555 7.35469 91.256
10450593 11.1689 10.572 34 34 -0.166273 7.7321 89.741
10450604 10.3674 10.0379 34 34 -0.0931606 8.07555 88.4053
10450613 10.3674 10.0379 34 34 -0.0931606 8.07555 88.4053
10450627 9.6715 9.53142 34 34 -0.0401616 8.39371 87.2029
10450633 9.6715 9.53142 34 34 -0.0401616 8.39371 87.2029
10450643 9.10777 9.21831 34 34 0.0320107 8.63133 86.3261
10450653 8.68497 8.95125 34 34 0.0777364 8.8217 85.6362
10450663 8.68497 8.95125 34 34 0.0777364 8.8217 85.6362
10450675 8.27098 8.8039 34 34 0.156602 8.97887 85.0749
10450683 7.93627 8.65656 34 34 0.212869 9.11552 84.5928
10450693 7.93627 8.65656 34 34 0.212869 9.11552 84.5928
10450704 7.68964 8.59209 34 34 0.26769 9.20454 84.2817
10450724 7.38135 8.53684 34 34 0.344232 9.30939 83.9182
10450734 7.1171 8.48158 34 34 0.408047 9.4023 83.5987
10450744 7.1171 8.48158 34 34 0.408047 9.4023 83.5987
10450755 6.87927 8.31582 34 34 0.431681 9.52068 83.1951
10450764 6.64145 8.1961 34 34 0.469184 9.62651 82.8376
10450786 6.3772 8.04875 34 34 0.506985 9.74949 82.426
10450795 6.3772 8.04875 34 34 0.506985 9.74949 82.426
10450804 6.13057 7.8922 34 34 0.536934 9.87114 82.0228
10450814 5.86632 7.71723 34 34 0.56718 10.005 81.5835
10450824 5.86632 7.71723 34 34 0.56718 10.005 81.5835
10450838 5.66373 7.60672 34 34 0.597692 10.1014 81.2704
10450844 5.50518 7.3857 34 34 0.58119 10.2192 80.8909
10450854 5.50518 7.3857 34 34 0.58119 10.2192 80.8909
10450864 5.39948 7.35807 34 34 0.606316 10.2608 80.7576
10450875 5.39948 7.35807 34 34 0.606316 10.2608 80.7576
10450885 5.24974 7.21993 34 34 0.612092 10.3512 80.4697
10450895 5.28497 7.20152 34 34 0.595298 10.3459 80.4865
10450908 5.28497 7.20152 34 34 0.595298 10.3459 80.4865
10450915 5.32902 7.15547 34 34 0.567332 10.3465 80.4845
10450925 5.35544 7.05417 34 34 0.528151 10.3701 80.4096
10450936 5.35544 7.05417 34 34 0.528151 10.3701 80.4096
10450947 5.32902 7.05417 34 34 0.536543 10.3784 80.3832
10450957 5.32902 7.05417 34 34 0.536543 10.3784 80.3832
10450967 5.36425 6.89762 34 34 0.477615 10.4168 80.2619
10450979 5.39067 6.78711 34 34 0.435421 10.4435 80.1778
10450987 5.39067 6.78711 34 34 0.435421 10.4435 80.1778
10450997 5.34663 6.71343 34 34 0.426805 10.4809 80.0601
10451009 5.28497 6.52925 34 34 0.389743 10.5594 79.8142
10451017 5.28497 6.52925 34 34 0.389743 10.5594 79.8142
10451027 5.29378 6.46479 34 34 0.367045 10.5772 79.7586
10451037 5.29378 6.46479 34 34 0.367045 10.5772 79.7586
10451048 5.27617 6.29903 34 34 0.32135 10.6361 79.5752
10451058 5.3114 6.30823 34 34 0.313002 10.6218 79.6196
10451078 5.3114 6.30823 34 34 0.313002 10.6218 79.6196
10451088 5.36425 6.32665 34 34 0.301918 10.5989 79.6909
10451098 5.36425 6.32665 34 34 0.301918 10.5989 79.6909
10451108 5.50518 6.40953 34 34 0.28291 10.5272 79.9147
10451120 5.50518 6.40953 34 34 0.28291 10.5272 79.9147
10451128 5.56684 6.49242 34 34 0.289029 10.4811 80.0593
10451140 5.77824 6.6766 34 34 0.279149 10.3558 80.4548
10451148 5.77824 6.6766 34 34 0.279149 10.3558 80.4548
10451165 5.98083 6.81473 34 34 0.258031 10.2489 80.7956
10451168 6.21865 6.94366 34 34 0.223321 10.1348 81.1623
10451178 6.21865 6.94366 34 34 0.223321 10.1348 81.1623
10451188 6.57979 7.10943 34 34 0.162089 9.9727 81.6892
10451198 6.57979 7.10943 34 34 0.162089 9.9727 81.6892
10451210 6.93212 7.22914 34 34 0.0903785 9.82922 82.1613
10451219 7.29326 7.40412 34 34 0.0335127 9.66825 82.6974
10451239 7.59275 7.51463 34 34 -0.0235006 9.54656 83.1074
10451249 7.85699 7.57909 34 34 -0.0832677 9.44985 83.4361
10451259 7.85699 7.57909 34 34 -0.0832677 9.44985 83.4361
10451269 8.20052 7.64355 34 34 -0.16607 9.33088 83.8441
10451288 8.20052 7.64355 34 34 -0.16607 9.33088 83.8441
10451291 8.54404 7.6896 33.8425 34 -0.207236 9.20752 84.0761
10451302 8.91399 7.93824 33.1534 34 -0.0384465 8.98175 84.0057
10451310 8.91399 7.93824 33.1534 34 -0.0384465 8.98175 84.0057
10451323 9.45129 8.38028 32.5038 34 0.126049 8.6569 84.3353
10451330 10.2 9.13543 31.6474 34 0.378919 8.17435 84.9828
10451340 10.2 9.13543 31.6474 34 0.378919 8.17435 84.9828
10451351 11.2218 10.4431 30.7122 34 0.726217 7.47548 86.3771
10451370 12.4373 12.2849 29.7082 34 1.17026 6.61298 88.4304
10451380 13.9171 14.6425 28.586 33.0453 1.43714 5.50029 90.1908
10451392 13.9171 14.6425 28.586 33.0453 1.43714 5.50029 90.1908
10451402 15.4585 17.0389 27.3457 31.0676 1.4581 4.27604 90.9108
10451412 17.0698 19.4994 26.0955 28.9925 1.45288 3.03068 91.6573
10451422 17.0698 19.4994 26.0955 28.9925 1.45288 3.03068 91.6573
10451433 18.5844 21.6585 24.6879 26.8201 1.41858 1.84169 91.7508
10451442 17.5979 21.6585 23.3196 26.8201 2.11447 1.82614 89.396
10451456 20.1489 23.3993 23.3196 24.9106 1.31877 0.765218 91.7784
10451461 21.7333 25.2471 21.8135 23.0206 1.28545 -0.35064 91.8146
10451490 23.2181 26.8324 20.2976 21.3255 1.26596 -1.37891 91.6736
10451491 24.6331 28.2717 18.7915 19.6499 1.23075 -2.37504 91.3462
10451502 24.6331 28.2717 18.7915 19.6499 1.23075 -2.37504 91.3462
10451512 26.0082 29.4971 17.315 18.1496 1.18817 -3.30452 90.9699
10451522 26.0082 29.4971 17.315 18.1496 1.18817 -3.30452 90.9699
10451533 27.0844 30.5767 15.8771 16.7144 1.19931 -4.16657 90.2526
10451542 28.061 31.5297 14.6709 15.6865 1.24635 -4.87503 89.9481
10451553 28.061 31.5297 14.6709 15.6865 1.24635 -4.87503 89.9481
10451562 28.7884 32.1911 13.6624 14.6965 1.24158 -5.47702 89.3384
10451572 29.476 32.8427 13.0489 13.9351 1.19057 -5.9351 89.3026
10451582 29.476 32.8427 13.0489 13.9351 1.19057 -5.9351 89.3026
10451592 30.2831 33.5624 12.4563 13.3639 1.16737 -6.36117 89.6657
10451602 30.2831 33.5624 12.4563 13.3639 1.16737 -6.36117 89.6657
10451613 30.9308 34 12.0508 12.8119 1.06641 -6.69339 89.7935
10451625 31.4988 34 11.7284 12.3169 0.862604 -6.94408 89.5442
10451633 31.4988 34 11.7284 12.3169 0.862604 -6.94408 89.5442
10451643 32.0469 34 11.5829 11.9076 0.636005 -7.12938 89.5374
10451655 32.7046 34 11.3645 11.5364 0.409377 -7.33275 89.6055
10451663 32.7046 34 11.3645 11.5364 0.409377 -7.33275 89.6055
10451675 33.2726 34 11.1358 11.2223 0.227025 -7.5166 89.6306
10451683 33.2726 34 11.1358 11.2223 0.227025 -7.5166 89.6306
10451700 33.8804 34 10.9382 10.8987 0.0222921 -7.6981 89.7173
10451703 34 34 10.6679 10.5655 -0.0286832 -7.8614 89.2334
10451726 34 34 10.4807 10.2228 -0.0726849 -7.99794 88.7036
10451735 34 34 10.2416 9.87066 -0.105244 -8.15229 88.1123
10451750 34 34 10.2416 9.87066 -0.105244 -8.15229 88.1123
10451754 34 34 9.92966 9.55655 -0.106621 -8.31796 87.4862
10451764 34 34 9.92966 9.55655 -0.106621 -8.31796 87.4862
10451775 34 34 9.70092 9.26148 -0.126332 -8.45842 86.9624
10451784 34 34 9.55535 9.07111 -0.139749 -8.54939 86.6265
10451804 34 34 9.38899 8.83315 -0.161166 -8.65982 86.2221
10451818 34 34 9.25382 8.71892 -0.155543 -8.72845 85.9727
10451824 34 34 9.25382 8.71892 -0.155543 -8.72845 85.9727
10451834 34 34 9.24343 8.61422 -0.183211 -8.76026 85.8576
10451845 34 34 9.24343 8.61422 -0.183211 -8.76026 85.8576
10451854 34 34 9.17064 8.56663 -0.176123 -8.79362 85.7373
10451864 34 34 9.18104 8.48096 -0.204313 -8.81453 85.662
10451874 34 34 9.18104 8.48096 -0.204313 -8.81453 85.662
10451885 34 34 9.12905 8.5 -0.183655 -8.82369 85.6291
10451894 34 34 9.18104 8.50952 -0.195916 -8.80659 85.6906
10451909 34 34 9.18104 8.50952 -0.195916 -8.80659 85.6906
10451914 34 34 9.26422 8.56663 -0.203189 -8.76768 85.8308
10451924 34 34 9.26422 8.56663 -0.203189 -8.76768 85.8308
10451936 34 34 9.19144 8.56663 -0.182143 -8.78785 85.7581
10451947 34 34 9.38899 8.61422 -0.225216 -8.72004 86.0032
10451956 34 34 9.38899 8.61422 -0.225216 -8.72004 86.0032
10451966 34 34 9.47217 8.68085 -0.229624 -8.6788 86.153
10451979 34 34 9.59694 8.80459 -0.229262 -8.61069 86.4015
10451986 34 34 9.59694 8.80459 -0.229262 -8.61069 86.4015
10452001 34 34 9.66972 8.89026 -0.225122 -8.56747 86.56
10452006 34 34 9.66972 8.89026 -0.225122 -8.56747 86.56
10452016 34 34 9.7841 9.08063 -0.202461 -8.48479 86.8647
10452026 34 34 9.89847 9.12822 -0.221267 -8.44108 87.0267
10452035 34 34 9.89847 9.12822 -0.221267 -8.44108 87.0267
10452046 34 34 10.0128 9.23292 -0.223486 -8.38222 87.2458
10452055 34 34 10.1584 9.29955 -0.245506 -8.32549 87.458
10452066 34 34 10.1584 9.29955 -0.245506 -8.32549 87.458
10452075 34 34 10.3664 9.46137 -0.257607 -8.22729 87.8277
10452087 34 34 10.3664 9.46137 -0.257607 -8.22729 87.8277
10452100 34 34 10.4911 9.80403 -0.194547 -8.10432 88.2952
10452109 34 34 10.6471 10.1086 -0.151671 -7.98443 88.7557
10452117 34 34 10.6471 10.1086 -0.151671 -7.98443 88.7557
10452132 34 34 10.8239 10.4989 -0.0909552 -7.83853 89.3227
10452137 34 34 10.9278 10.8511 -0.0213772 -7.72249 89.7789
10452147 34 34 10.9278 10.8511 -0.0213772 -7.72249 89.7789
10452157 34 34 11.1982 11.1747 -0.00649393 -7.57315 90.3729
10452177 34 34 11.3229 11.6125 0.0796169 -7.43349 90.9355
10452187 33.9502 34 11.5933 12.0504 0.138366 -7.25592 91.5938
10452207 33.6512 33.8736 11.7908 12.4692 0.245336 -7.07057 91.7848
10452222 33.4021 33.5624 12.0092 12.869 0.277665 -6.87366 91.8426
10452238 33.0434 33.2706 12.2275 13.3449 0.365832 -6.65086 91.8864
10452248 33.0434 33.2706 12.2275 13.3449 0.365832 -6.65086 91.8864
10452259 32.7345 32.9399 12.3731 13.7161 0.421873 -6.47073 91.7636
10452268 32.4056 32.726 12.6018 14.0683 0.486597 -6.28443 91.8017
10452278 32.4056 32.726 12.6018 14.0683 0.486597 -6.28443 91.8017
10452291 31.9971 32.405 12.7786 14.4395 0.56453 -6.08774 91.6202
10452298 31.7181 32.1133 13.0385 14.9059 0.616345 -5.86541 91.7758
10452314 31.7181 32.1133 13.0385 14.9059 0.616345 -5.86541 91.7758
10452319 31.3195 31.6854 13.1841 15.4295 0.712535 -5.63063 91.6184
10452329 31.3195 31.6854 13.1841 15.4295 0.712535 -5.63063 91.6184
10452339 30.8312 31.0435 13.4752 16.0291 0.756788 -5.31364 91.379
10452349 30.3529 30.4794 13.8495 16.8191 0.845933 -4.9448 91.501
10452362 30.3529 30.4794 13.8495 16.8191 0.845933 -4.9448 91.501
10452369 29.8447 29.7208 14.2862 17.6138 0.875652 -4.53704 91.4655
10452381 29.3962 28.8164 14.7333 18.6562 0.912353 -4.06483 91.6021
10452389 29.3962 28.8164 14.7333 18.6562 0.912353 -4.06483 91.6021
10452400 28.7186 27.7174 15.4092 19.9908 0.974673 -3.43591 91.836
10452409 28.7186 27.7174 15.4092 19.9908 0.974673 -3.43591 91.836
10452420 27.9713 26.3169 16.2098 21.6178 1.01873 -2.68043 92.1158
10452429 27.1143 24.8581 17.128 23.4103 1.08803 -1.85397 92.5107
10452444 27.1143 24.8581 17.128 23.4103 1.08803 -1.85397 92.5107
10452450 26.1079 23.3215 18.1812 25.3295 1.17331 -0.95523 92.9401
10452460 24.7925 21.8043 19.3034 27.0246 1.27336 -0.0433883 92.9249
10452472 24.7925 21.8043 19.3034 27.0246 1.27336 -0.0433883 92.9249
10452481 23.2978 20.258 20.7111 28.7685 1.34832 0.955083 93.0353
10452491 21.7732 20.258 22.286 30.5026 1.76688 1.70177 94.8198
10452508 21.7732 18.8965 22.286 30.5026 1.4284 1.9451 93.4582
10452511 20.3681 17.6322 23.6838 31.9542 1.47759 2.82541 93.6383
10452520 20.3681 17.6322 23.6838 31.9542 1.47759 2.82541 93.6383
10452534 19.0328 16.558 24.7962 33.1037 1.5597 3.57936 93.4907
10452540 17.9965 15.6647 25.436 33.9513 1.66136 4.14722 93.0485
10452550 17.9965 15.6647 25.436 33.9513 1.66136 4.14722 93.0485
10452560 16.8943 14.928 26.0562 34 1.62646 4.60945 91.8784
10452573 16.8943 14.928 26.0562 34 1.62646 4.60945 91.8784
10452582 15.9254 14.2096 26.6665 34 1.54672 5.04366 90.8015
10452592 14.9741 13.565 27.3654 34 1.45308 5.47686 89.9045
10452602 14.9741 13.565 27.3654 34 1.45308 5.47686 89.9045
10452612 14.0316 12.994 28.0544 34 1.37741 5.89842 89.0801
10452622 13.1948 12.4507 28.9108 34 1.22664 6.31213 88.5564
10452632 13.1948 12.4507 28.9108 34 1.22664 6.31213 88.5564
10452642 12.4461 11.8797 29.5802 34 1.09589 6.69823 87.9061
10452652 11.7679 11.8797 30.2496 34 1.09853 6.92888 87.8972
10452662 11.7679 11.4285 30.2496 34 0.975189 7.04204 87.4459
10452672 11.0544 10.9772 31.0174 34 0.834435 7.40716 87.049
10452685 11.0544 10.9772 31.0174 34 0.834435 7.40716 87.049
10452693 10.4731 10.572 31.7852 34 0.666189 7.72888 86.8303
10452708 9.87409 10.1484 32.4152 34 0.53772 8.05077 86.4377
10452723 9.36321 9.72481 33.1534 34 0.350225 8.36003 86.2415
10452733 8.73782 9.24594 33.7047 34 0.234404 8.70379 85.6884
10452743 8.73782 9.24594 33.7047 34 0.234404 8.70379 85.6884
10452753 8.22694 8.95125 34 34 0.212586 8.94979 85.1782
10452763 8.22694 8.95125 34 34 0.212586 8.94979 85.1782
10452774 7.7601 8.57367 34 34 0.241175 9.1896 84.3338
10452783 7.34611 8.28819 34 34 0.281605 9.3919 83.6343
10452796 7.34611 8.28819 34 34 0.281605 9.3919 83.6343
10452803 6.94974 8.02113 34 34 0.322819 9.58694 82.9709
10452814 6.94974 8.02113 34 34 0.322819 9.58694 82.9709
10452824 6.5886 7.80932 34 34 0.370374 9.75791 82.3979
10452834 6.29793 7.5883 34 34 0.393951 9.91261 81.8862
10452845 6.29793 7.5883 34 34 0.393951 9.91261 81.8862
10452854 5.98083 7.35807 34 34 0.423303 10.0803 81.3389
10452864 5.78705 7.17389 34 34 0.428244 10.1973 80.9609
10452874 5.78705 7.17389 34 34 0.428244 10.1973 80.9609
10452885 5.51399 7.11863 34 34 0.497517 10.2999 80.6326
10452895 5.51399 7.11863 34 34 0.497517 10.2999 80.6326
10452907 5.32902 6.84236 34 34 0.471908 10.4455 80.1714
10452915 5.2057 6.74106 34 34 0.480121 10.517 79.9468
10452930 5.2057 6.74106 34 34 0.480121 10.517 79.9468
10452935 5.10881 6.5753 34 34 0.460094 10.6011 79.6841
10452945 5.06477 6.50163 34 34 0.451466 10.639 79.5664
10452955 5.06477 6.50163 34 34 0.451466 10.639 79.5664
10452965 4.95907 6.41874 34 34 0.459725 10.6999 79.3778
10452975 4.85337 6.32665 34 34 0.46517 10.7641 79.18
10452995 4.86218 6.34507 34 34 0.468042 10.7552 79.2072
10453005 4.86218 6.34507 34 34 0.468042 10.7552 79.2072
10453015 4.91503 6.24377 34 34 0.419644 10.771 79.1588
10453025 4.95026 6.33586 34 34 0.436899 10.7296 79.2861
10453035 4.95026 6.33586 34 34 0.436899 10.7296 79.2861
10453045 5.05596 6.35428 34 34 0.408736 10.6894 79.4102
10453066 5.12642 6.29903 34 34 0.36909 10.6845 79.4254
10453067 5.12642 6.29903 34 34 0.36909 10.6845 79.4254
10453076 5.25855 6.42795 34 34 0.366876 10.6003 79.6865
10453087 5.25855 6.42795 34 34 0.366876 10.6003 79.6865
10453097 5.32021 6.52004 34 34 0.3757 10.551 79.8402
10453107 5.47876 6.63976 34 34 0.36228 10.4623 80.1185
10453127 5.61969 6.73185 34 34 0.346032 10.3884 80.3515
10453137 5.61969 6.73185 34 34 0.346032 10.3884 80.3515
10453147 5.74301 6.86999 34 34 0.349504 10.3061 80.613
10453157 5.90155 7.00813 34 34 0.341913 10.2133 80.9097
10453182 6.04249 7.15547 34 34 0.342676 10.1238 81.198
10453187 6.25389 7.33044 34 34 0.329891 10.0048 81.5843
10453199 6.25389 7.33044 34 34 0.329891 10.0048 81.5843
10453210 6.47409 7.49621 34 34 0.311732 9.88706 81.9703
10453218 6.66788 7.6896 34 34 0.310147 9.77006 82.3575
10453237 6.66788 7.6896 34 34 0.310147 9.77006 82.3575
10453240 6.98497 7.92904 34 34 0.284651 9.6038 82.914
10453248 6.98497 7.92904 34 34 0.284651 9.6038 82.914
10453264 7.31088 8.24215 34 34 0.278646 9.41563 83.553
10453268 7.81295 8.69339 34 34 0.260463 9.1402 84.5063
10453278 7.81295 8.69339 34 34 0.260463 9.1402 84.5063
10453291 8.54404 9.13543 34 34 0.172558 8.80967 85.6795
10453298 9.33679 9.78006 34 34 0.127208 8.41682 87.1169
10453317 9.33679 9.78006 34 34 0.127208 8.41682 87.1169
10453320 10.1119 10.6733 33.0156 34 0.440145 7.89805 87.8009
10453329 10.1119 10.6733 33.0156 34 0.440145 7.89805 87.8009
10453339 11.0368 11.6679 32.1986 34 0.684038 7.3384 88.9033
10453349 11.8736 12.8559 31.3619 34 1.00465 6.7652 90.0914
10453361 11.8736 12.8559 31.3619 34 1.00465 6.7652 90.0914
10453369 12.7984 13.9978 30.3874 34 1.31932 6.18385 91.1837
10453384 13.5383 15.2411 29.4227 33.055 1.46154 5.53902 91.2571
10453399 14.4984 16.5395 28.5368 31.847 1.46336 4.8149 91.4218
10453412 14.4984 16.5395 28.5368 31.847 1.46336 4.8149 91.4218
10453420 15.3793 17.9531 27.5918 30.5123 1.50223 4.06376 91.4365
10453432 16.357 19.6161 26.4204 29.051 1.6102 3.19838 91.4445
10453440 16.357 19.6161 26.4204 29.051 1.6102 3.19838 91.4445
10453450 17.3886 21.0555 25.2982 27.4241 1.5885 2.34925 91.1664
10453460 18.6043 22.6116 24.117 25.7679 1.55272 1.42737 91.1008
10453474 18.6043 22.6116 24.117 25.7679 1.55272 1.42737 91.1008
10453481 19.8101 24.0801 22.8274 24.0436 1.51114 0.492638 90.7612
10453497 19.8101 24.0801 22.8274 24.0436 1.51114 0.492638 90.7612
10453501 20.8962 25.3152 21.6462 22.3874 1.42948 -0.361992 90.2451
10453510 21.9426 26.5212 20.6422 20.9358 1.35278 -1.14709 90.0417
10453522 21.9426 26.5212 20.6422 20.9358 1.35278 -1.14709 90.0417
10453537 22.9191 27.6007 19.7858 19.6109 1.25303 -1.85558 89.9164
10453544 23.9256 28.5051 19.0475 18.588 1.14363 -2.46407 90.0662
10453550 23.9256 28.5051 19.0475 18.588 1.14363 -2.46407 90.0662
10453560 24.8124 29.3513 18.3683 17.6625 1.06243 -3.01564 90.1944
10453570 24.8124 29.3513 18.3683 17.6625 1.06243 -3.01564 90.1944
10453582 25.6295 30.032 17.7776 16.9334 0.98432 -3.47736 90.3726
10453590 26.4068 30.6058 17.2658 16.248 0.878555 -3.89369 90.5265
10453600 26.4068 30.6058 17.2658 16.248 0.878555 -3.89369 90.5265
10453610 27.0844 31.1894 16.9688 15.7436 0.791252 -4.21406 90.9861
10453623 27.6225 31.6756 16.6465 15.2962 0.740576 -4.49724 91.2408
10453632 27.6225 31.6756 16.6465 15.2962 0.740576 -4.49724 91.2408
10453642 28.2802 32.0841 16.2514 14.8298 0.651297 -4.80338 91.4454
10453664 28.629 32.405 15.9602 14.3539 0.593799 -5.04442 91.3481
10453673 29.0674 32.7065 15.6899 13.9636 0.52304 -5.26982 91.4274
10453688 29.0674 32.7065 15.6899 13.9636 0.52304 -5.26982 91.4274
10453693 29.5457 33.0469 15.2844 13.6114 0.499576 -5.52476 91.4885
10453703 29.9045 33.2803 14.9621 13.2497 0.455022 -5.73976 91.3966
10453718 29.9045 33.2803 14.9621 13.2497 0.455022 -5.73976 91.3966
10453731 30.2532 33.4846 14.5566 13.0118 0.461775 -5.94201 91.3061
10453740 30.2532 33.4846 14.5566 13.0118 0.461775 -5.94201 91.3061
10453749 30.5322 33.7082 14.1303 12.6691 0.470898 -6.16891 91.0398
10453753 30.7415 34 13.7976 12.4121 0.514847 -6.35482 90.9511
10453764 30.7415 34 13.7976 12.4121 0.514847 -6.35482 90.9511
10453773 31.0404 34 13.5792 12.117 0.41256 -6.50413 90.7367
10453785 31.3693 34 13.3713 11.8695 0.3115 -6.64305 90.6101
10453794 31.3693 34 13.3713 11.8695 0.3115 -6.64305 90.6101
10453805 31.8077 34 13.1841 11.6982 0.194719 -6.76901 90.69
10453827 32.1366 34 12.9242 11.5459 0.133869 -6.89792 90.6067
10453837 32.4555 34 12.685 11.2889 0.0410378 -7.04664 90.4294
10453855 32.7444 34 12.4251 11.0795 -0.0249326 -7.18676 90.249
10453865 33.0932 34 12.2275 10.9082 -0.114307 -7.30766 90.2289
10453875 33.0932 34 12.2275 10.9082 -0.114307 -7.30766 90.2289
10453885 33.3224 34 11.9988 10.6702 -0.180838 -7.44295 89.9914
10453896 33.6014 34 11.7596 10.4418 -0.255917 -7.58328 89.8028
10453905 33.6014 34 11.7596 10.4418 -0.255917 -7.58328 89.8028
10453918 33.7708 34 11.4373 10.2895 -0.256613 -7.71708 89.4976
10453925 33.7708 34 11.4373 10.2895 -0.256613 -7.71708 89.4976
10453943 33.8904 34 11.2398 10.0705 -0.296968 -7.83291 89.2007
10453954 34 34 11.115 9.90873 -0.338745 -7.91524 89.0237
10453958 34 34 11.115 9.90873 -0.338745 -7.91524 89.0237
10453968 34 34 11.0006 9.8421 -0.325997 -7.96193 88.8427
10453975 34 34 11.0006 9.8421 -0.325997 -7.96193 88.8427
10453991 34 34 10.855 9.71836 -0.320829 -8.03174 88.5734
10453998 34 34 10.7199 9.58511 -0.321266 -8.10175 88.305
10454005 34 34 10.7199 9.58511 -0.321266 -8.10175 88.305
10454015 34 34 10.5431 9.50896 -0.293623 -8.16811 88.0521
10454025 34 34 10.3768 9.42329 -0.271486 -8.23461 87.8
10454037 34 34 10.3768 9.42329 -0.271486 -8.23461 87.8
10454047 34 34 10.2728 9.32811 -0.269595 -8.28743 87.6009
10454058 34 34 10.1896 9.32811 -0.246091 -8.30957 87.5177
10454067 34 34 10.1896 9.32811 -0.246091 -8.30957 87.5177
10454077 34 34 10.1688 9.41377 -0.215521 -8.2923 87.5826
10454098 34 34 10.1376 9.50896 -0.179315 -8.2753 87.6466
10454108 34 34 10.1792 9.57559 -0.171961 -8.24659 87.7548
10454118 34 34 10.1792 9.57559 -0.171961 -8.24659 87.7548
10454128 34 34 10.148 9.74692 -0.11408 -8.20953 87.8949
10454141 34 34 10.1272 9.83259 -0.0837401 -8.19241 87.9598
10454150 34 34 10.1272 9.83259 -0.0837401 -8.19241 87.9598
10454158 34 34 10.1688 10.0325 -0.0386417 -8.12892 88.2013
10454169 34 34 10.1688 10.0325 -0.0386417 -8.12892 88.2013
10454178 34 34 10.1896 10.2038 0.00401437 -8.07864 88.3934
10454190 34 34 10.2416 10.3942 0.0430346 -8.01554 88.6358
10454199 34 34 10.2416 10.3942 0.0430346 -8.01554 88.6358
10454213 34 34 10.0856 10.3847 0.0845015 -8.05859 88.4703
10454219 33.99 34 10.044 10.3275 0.0830352 -8.08356 88.3616
10454229 33.99 34 10.044 10.3275 0.0830352 -8.08356 88.3616
10454239 33.8605 34 9.98165 10.318 0.134951 -8.09223 88.1602
10454249 33.8605 34 9.98165 10.318 0.134951 -8.09223 88.1602
10454262 33.5715 34 9.7737 10.299 0.272059 -8.12926 87.6442
10454269 33.2626 34 9.69052 10.2133 0.361434 -8.14971 87.1665
10454279 33.2626 34 9.69052 10.2133 0.361434 -8.14971 87.1665
10454289 32.8042 34 9.40979 10.3085 0.60519 -8.16306 86.5225
10454299 32.3458 34 9.3682 10.299 0.751325 -8.14039 86.013
10454309 32.3458 34 9.3682 10.299 0.751325 -8.14039 86.013
10454322 31.8376 34 9.51376 10.5084 0.919232 -8.00412 85.8598
10454329 31.8376 34 9.51376 10.5084 0.919232 -8.00412 85.8598
10454343 31.3792 34 9.57615 10.8606 1.13766 -7.85562 85.816
10454363 30.881 34 9.87768 11.4507 1.36065 -7.57793 86.2094
10454367 30.881 34 9.87768 11.4507 1.36065 -7.57793 86.2094
10454371 30.3728 34 10.4599 12.4787 1.61662 -7.11833 87.3115
10454379 29.6852 34 11.3645 14.192 2.00083 -6.40876 89.2418
10454389 29.6852 33.9514 11.3645 14.192 1.98829 -6.40408 89.1932
10454401 29.0076 32.4245 12.9346 16.6764 1.96574 -5.24277 91.043
10454410 29.0076 32.4245 12.9346 16.6764 1.96574 -5.24277 91.043
10454425 28.1208 30.8101 14.8685 19.9811 2.07984 -3.85175 93.7804
10454430 26.8353 28.7969 17.1378 23.3519 2.12638 -2.36302 96.1219
10454440 26.8353 28.7969 17.1378 23.3519 2.12638 -2.36302 96.1219
10454452 25.0416 26.4628 19.1459 26.3232 2.21671 -0.93355 96.9736
10454460 25.0416 26.4628 19.1459 26.3232 2.21671 -0.93355 96.9736
10454472 23.0686 24.0995 21.3607 28.749 2.16371 0.453588 97.2779
10454480 21.0756 21.9211 23.4082 30.6877 2.09205 1.71474 97.0926
10454496 21.0756 21.9211 23.4082 30.6877 2.09205 1.71474 97.0926
10454501 18.9631 19.8301 25.0324 32.149 2.07961 2.87393 95.9746
10454510 16.9472 17.992 26.3712 33.2986 2.10663 3.92097 94.6089
10454525 16.9472 17.992 26.3712 33.2986 2.10663 3.92097 94.6089
10454531 15.2119 16.2633 27.7001 34 1.97244 4.86581 93.1752
10454541 15.2119 16.2633 27.7001 34 1.97244 4.86581 93.1752
10454555 13.6088 14.8174 28.9305 34 1.71802 5.6653 91.3568
10454568 12.3404 13.6295 30.22 34 1.4051 6.3616 90.1899
10454572 12.3404 13.6295 30.22 34 1.4051 6.3616 90.1899
10454584 11.213 12.6717 31.2339 34 1.18517 6.9597 89.1186
10454592 10.2881 11.8429 32.1199 34 0.973067 7.47679 88.2508
10454602 10.2881 11.8429 32.1199 34 0.973067 7.47679 88.2508
10454612 9.57461 11.2351 32.868 34 0.796244 7.8797 87.6777
10454622 8.93161 10.8299 33.5472 34 0.673217 8.20978 87.3087
10454633 8.93161 10.8299 33.5472 34 0.673217 8.20978 87.3087
10454643 8.52642 10.5076 34 34 0.569075 8.43911 87.034
10454658 8.52642 10.5076 34 34 0.569075 8.43911 87.034
10454663 8.20052 10.2866 34 34 0.602996 8.58734 86.4871
10454673 7.90104 10.1208 34 34 0.645119 8.71491 86.0218
10454684 7.90104 10.1208 34 34 0.645119 8.71491 86.0218
10454693 7.6456 9.83532 34 34 0.640413 8.86498 85.4809
10454704 7.3285 9.65114 34 34 0.683293 9.00575 84.9796
10454714 7.3285 9.65114 34 34 0.683293 9.00575 84.9796
10454724 7.12591 9.50379 34 34 0.702438 9.10501 84.6297
10454734 7.12591 9.50379 34 34 0.702438 9.10501 84.6297
10454745 6.94093 9.33803 34 34 0.71106 9.20533 84.279
10454754 6.78238 9.3104 34 34 0.751555 9.25892 84.0928
10454774 6.57979 9.24594 34 34 0.795144 9.3362 83.8257
10454784 6.40363 9.19989 34 34 0.83617 9.40089 83.6035
10454795 6.40363 9.19989 34 34 0.83617 9.40089 83.6035
10454806 6.39482 9.12622 34 34 0.817579 9.42498 83.521
10454817 6.39482 9.12622 34 34 0.817579 9.42498 83.521
10454825 6.26269 9.08938 34 34 0.847813 9.47449 83.3521
10454841 6.25389 9.04334 34 34 0.837195 9.49061 83.2972
10454846 6.25389 9.04334 34 34 0.837195 9.49061 83.2972
10454855 6.24508 9.07096 34 34 0.847942 9.48508 83.316
10454866 6.22746 9.04334 34 34 0.845397 9.49838 83.2708
10454876 6.22746 9.04334 34 34 0.845397 9.49838 83.2708
10454891 6.20104 8.97887 34 34 0.834888 9.52515 83.1799
10454905 6.10415 8.89599 34 34 0.840917 9.57827 83.0001
10454915 6.09534 8.85915 34 34 0.83293 9.5918 82.9545
10454926 6.09534 8.85915 34 34 0.83293 9.5918 82.9545
10454939 6.08653 8.88678 34 34 0.843722 9.58622 82.9733
10454945 6.0513 8.81311 34 34 0.833234 9.61853 82.8644
10454963 6.0513 8.81311 34 34 0.833234 9.61853 82.8644
10454967 6.10415 8.92362 34 34 0.848955 9.5701 83.0278
10454987 6.11295 8.84074 34 34 0.822079 9.59204 82.9537
10455006 6.15699 8.93283 34 34 0.835189 9.55174 83.0898
10455013 6.15699 8.93283 34 34 0.835189 9.55174 83.0898
10455018 6.1658 8.96966 34 34 0.843161 9.53826 83.1355
10455027 6.26269 8.95125 34 34 0.807723 9.51512 83.2139
10455037 6.26269 8.95125 34 34 0.807723 9.51512 83.2139
10455047 6.36839 8.97887 34 34 0.783014 9.47591 83.3473
10455058 6.36839 8.97887 34 34 0.783014 9.47591 83.3473
10455072 6.3772 9.02492 34 34 0.79366 9.45981 83.4021
10455077 6.43886 9.02492 34 34 0.774604 9.44174 83.4638
10455087 6.43886 9.02492 34 34 0.774604 9.44174 83.4638
10455097 6.52694 9.07096 34 34 0.760791 9.40252 83.5979
10455109 6.60622 9.19989 34 34 0.773713 9.3419 83.8061
10455130 6.76477 9.22752 34 34 0.73303 9.28794 83.9923
10455138 6.80881 9.35645 34 34 0.756738 9.23803 84.1653
10455149 6.80881 9.35645 34 34 0.756738 9.23803 84.1653
10455159 6.91451 9.513 34 34 0.769445 9.16274 84.4275
10455173 6.91451 9.513 34 34 0.769445 9.16274 84.4275
10455179 7.09948 9.60509 34 34 0.739515 9.0837 84.7046
10455189 7.25803 9.87216 34 34 0.767684 8.9633 85.1302
10455209 7.51347 10.1668 34 34 0.774208 8.80943 85.6803
10455227 7.81295 10.7746 33.9016 34 0.884542 8.55263 86.4892
10455230 7.81295 10.7746 33.9016 34 0.884542 8.55263 86.4892
10455239 8.22694 11.6587 33.242 34 1.20218 8.15292 87.1277
10455251 8.22694 11.6587 33.242 34 1.20218 8.15292 87.1277
10455260 8.77306 12.8375 32.5333 34 1.56878 7.64479 88.1438
10455276 9.50414 14.2189 31.8935 34 1.9029 7.05849 89.6165
10455280 9.50414 14.2189 31.8935 34 1.9029 7.05849 89.6165
10455290 10.244 15.591 31.2339 34 2.22717 6.4894 91.069
10455300 10.9751 16.7145 30.663 33.5713 2.35187 5.9633 91.924
10455313 10.9751 16.7145 30.663 33.5713 2.35187 5.9633 91.924
10455322 11.6005 17.778 29.9838 32.3536 2.32983 5.39036 91.7159
10455330 11.6005 17.778 29.9838 32.3536 2.32983 5.39036 91.7159
10455343 12.2699 18.8576 29.2849 31.204 2.32129 4.80723 91.6164
10455350 13.001 19.8398 28.5269 30.1129 2.30233 4.23023 91.4807
10455366 13.001 19.8398 28.5269 30.1129 2.30233 4.23023 91.4807
10455373 13.785 21.1138 27.5819 28.9244 2.37167 3.54589 91.4051
10455382 14.6922 22.3101 26.5582 27.6092 2.37711 2.82414 91.1697
10455402 15.6876 23.6327 25.4557 26.3232 2.41843 2.05138 91.0992
10455412 15.6876 23.6327 25.4557 26.3232 2.41843 2.05138 91.0992
10455424 16.5596 24.8095 24.4418 25.1054 2.45103 1.34929 90.9163
10455434 17.6377 25.9765 23.3492 23.8 2.42102 0.584187 90.7635
10455457 18.7638 27.1533 22.3353 22.5822 2.37699 -0.165069 90.8346
10455463 19.8599 28.1939 21.282 21.384 2.32474 -0.890857 90.7198
10455473 19.8599 28.1939 21.282 21.384 2.32474 -0.890857 90.7198
10455483 20.8464 29.0984 20.3075 20.1467 2.23764 -1.57479 90.399
10455493 20.8464 29.0984 20.3075 20.1467 2.23764 -1.57479 90.399
10455505 21.803 29.8862 19.4117 19.2212 2.18458 -2.16829 90.3221
10455513 22.7098 30.6156 18.762 18.3249 2.06516 -2.69407 90.4124
10455523 22.7098 30.6156 18.762 18.3249 2.06516 -2.69407 90.4124
10455533 23.6266 31.3158 18.132 17.4871 1.94461 -3.20058 90.5615
10455543 24.5334 31.8604 17.5808 16.7716 1.79561 -3.64338 90.7462
10455553 24.5334 31.8604 17.5808 16.7716 1.79561 -3.64338 90.7462
10455563 25.3904 32.5315 17.0098 16.0482 1.69801 -4.09934 90.9798
10455573 25.3904 32.5315 17.0098 16.0482 1.69801 -4.09934 90.9798
10455583 26.1178 32.9205 16.4593 15.4961 1.60435 -4.46452 90.9937
10455594 26.8353 33.29 15.981 14.944 1.48756 -4.81057 91.0504
10455603 26.8353 33.29 15.981 14.944 1.48756 -4.81057 91.0504
10455613 27.5328 33.6304 15.5339 14.3729 1.35515 -5.14819 91.0701
10455624 28.051 33.7471 15.1908 13.9826 1.23334 -5.37937 90.9716
10455639 28.051 33.7471 15.1908 13.9826 1.23334 -5.37937 90.9716
10455644 28.619 33.8152 14.8997 13.64 1.08177 -5.58861 90.9739
10455670 29.0475 33.8249 14.6294 13.3068 0.951159 -5.77086 90.8086
10455675 29.4461 33.8638 14.4838 13.145 0.846449 -5.88546 90.9387
10455692 29.4461 33.8638 14.4838 13.145 0.846449 -5.88546 90.9387
10455695 29.8347 33.893 14.4318 12.8309 0.675184 -6.01135 90.9904
10455705 30.2233 33.8833 14.3382 12.6215 0.533471 -6.11865 91.0663
10455716 30.2233 33.8833 14.3382 12.6215 0.533471 -6.11865 91.0663
10455728 30.6917 33.8638 14.1719 12.4597 0.400272 -6.23838 91.1871
10455745 31.0106 33.893 14.0159 12.2122 0.295937 -6.36586 91.1317
10455759 31.3792 33.9514 13.9743 12.098 0.190309 -6.44263 91.4029
10455777 31.6583 33.9708 13.7976 11.8791 0.107896 -6.56352 91.3057
10455791 32.0967 33.9805 13.7352 11.7363 -0.0314206 -6.65315 91.5487
10455807 32.4156 33.9805 13.548 11.5364 -0.122063 -6.77386 91.4805
10455817 32.7544 34 13.444 11.327 -0.238034 -6.88061 91.5254
10455828 32.7544 34 13.444 11.327 -0.238034 -6.88061 91.5254
10455839 33.143 34 13.2985 11.1366 -0.356218 -6.99533 91.5781
10455848 33.143 34 13.2985 11.1366 -0.356218 -6.99533 91.5781
10455858 33.3722 34 13.1217 10.9177 -0.431082 -7.11061 91.4116
10455869 33.6811 34 12.9657 10.7178 -0.527848 -7.2234 91.3647
10455878 33.6811 34 12.9657 10.7178 -0.527848 -7.2234 91.3647
10455892 34 34 12.8306 10.5179 -0.632922 -7.33206 91.3485
10455898 34 34 12.685 10.318 -0.650248 -7.41683 91.003
10455918 34 34 12.4667 10.1657 -0.634688 -7.50851 90.6324
10455940 34 34 12.2483 10.023 -0.616299 -7.59855 90.2713
10455948 34 34 12.1651 9.8897 -0.631683 -7.65286 90.0548
10455961 34 34 12.1651 9.8897 -0.631683 -7.65286 90.0548
10455968 34 34 12.0092 9.77548 -0.62196 -7.72103 89.7846
10455978 34 34 12.0508 9.59462 -0.684962 -7.75633 89.6454
10456000 34 34 12.0508 9.59462 -0.684962 -7.75633 89.6454
10456008 34 34 11.9468 9.61366 -0.651272 -7.77791 89.5605
10456019 34 34 11.9156 9.55655 -0.659157 -7.80039 89.4721
10456029 34 34 11.8428 9.56607 -0.636609 -7.81653 89.4089
10456040 34 34 11.8428 9.56607 -0.636609 -7.81653 89.4089
10456052 34 34 11.822 9.56607 -0.630943 -7.82183 89.3881
10456061 34 33.9611 11.7388 9.57559 -0.616674 -7.83754 89.2755
10456075 34 33.9611 11.7388 9.57559 -0.616674 -7.83754 89.2755
10456080 34 34 11.7388 9.69933 -0.570089 -7.80905 89.4382
10456090 34 33.9027 11.7284 9.80403 -0.565119 -7.77718 89.4352
10456110 34 33.893 11.8012 9.98488 -0.536166 -7.71198 89.6791
10456122 34 33.893 11.8012 9.98488 -0.536166 -7.71198 89.6791
10456130 34 33.8736 11.9052 10.0705 -0.545657 -7.66247 89.8493
10456142 34 33.8152 11.8948 10.3656 -0.4757 -7.58609 90.0756
10456164 34 33.7082 12.03 10.6036 -0.475457 -7.48403 90.3418
10456172 34 33.5332 12.082 11.0319 -0.418343 -7.35037 90.647
10456186 34 33.5332 12.082 11.0319 -0.418343 -7.35037 90.647
10456192 34 33.3873 12.2899 11.5078 -0.382401 -7.17051 91.185
10456202 34 33.3873 12.2899 11.5078 -0.382401 -7.17051 91.185
10456212 33.4818 33.0761 12.5706 12.0314 -0.259165 -6.90368 91.1599
10456222 32.864 32.7454 12.8722 12.7833 -0.0568271 -6.5667 91.2649
10456242 32.1465 32.2105 13.3713 13.6685 0.0988156 -6.12449 91.3969
10456252 31.2298 32.2105 13.9327 14.8393 0.511682 -5.63942 92.2123
10456271 31.2298 31.3839 13.9327 14.8393 0.290161 -5.55475 91.3857
10456279 30.0141 30.1876 14.8997 16.6669 0.528702 -4.68057 91.7683
10456297 30.0141 30.1876 14.8997 16.6669 0.528702 -4.68057 91.7683
10456300 28.4297 28.6024 16.2098 19.0751 0.822717 -3.53357 92.3169
10456304 26.4766 26.7449 18.0631 22.0269 1.13387 -2.11089 93.3115
10456313 26.4766 26.7449 18.0631 22.0269 1.13387 -2.11089 93.3115
10456329 24.5135 24.7317 20.2287 24.9593 1.31013 -0.644445 94.4332
10456334 22.4906 22.7283 22.601 27.5605 1.36219 0.777301 95.3804
10456344 22.4906 22.7283 22.601 27.5605 1.36219 0.777301 95.3804
10456353 20.677 20.8026 24.4123 29.733 1.42387 1.98676 95.6249
10456375 18.9132 19.0715 25.4852 31.2722 1.56879 2.97217 94.7422
10456384 17.4185 17.6127 26.2727 32.4997 1.71133 3.79642 93.8037
10456404 16.1016 16.2909 26.8338 33.4544 1.83694 4.51482 92.6807
10456420 14.9653 15.1398 27.6804 34 1.76883 5.16019 91.7854
10456435 13.9876 14.2649 28.4974 34 1.59227 5.66033 90.7499
10456446 13.9876 14.2649 28.4974 34 1.59227 5.66033 90.7499
10456455 12.9306 13.4085 29.531 34 1.37613 6.20763 89.87
10456467 11.9793 12.6625 30.5843 34 1.14848 6.71482 89.226
10456475 11.9793 12.6625 30.5843 34 1.14848 6.71482 89.226
10456489 11.2041 12.1192 31.5883 34 0.935405 7.13039 88.9116
10456495 10.385 11.5206 32.4152 34 0.770047 7.55931 88.3207
10456505 10.385 11.5206 32.4152 34 0.770047 7.55931 88.3207
10456515 9.74197 11.0878 33.2224 34 0.602892 7.90316 88.0521
10456537 9.05492 10.6089 33.9016 34 0.471762 8.26316 87.5654
10456547 8.56166 10.2958 34 34 0.499126 8.48676 86.8574
10456558 8.56166 10.2958 34 34 0.499126 8.48676 86.8574
10456567 8.02435 9.90899 34 34 0.548285 8.73933 85.9333
10456581 7.63679 9.62351 34 34 0.582546 8.92673 85.2603
10456587 7.63679 9.62351 34 34 0.582546 8.92673 85.2603
10456597 7.29326 9.30119 34 34 0.5934 9.11506 84.5945
10456615 7.29326 9.30119 34 34 0.5934 9.11506 84.5945
10456618 6.95855 9.09859 34 34 0.636482 9.26921 84.0571
10456627 6.72953 8.88678 34 34 0.644985 9.39715 83.6163
10456637 6.72953 8.88678 34 34 0.644985 9.39715 83.6163
10456650 6.47409 8.7026 34 34 0.66981 9.5261 83.1767
10456657 6.2715 8.54605 34 34 0.68661 9.63246 82.8176
10456667 6.2715 8.54605 34 34 0.68661 9.63246 82.8176
10456678 6.1658 8.42633 34 34 0.684243 9.69969 82.5921
10456697 6.03368 8.32503 34 34 0.695542 9.7697 82.3587
10456707 5.9456 8.23294 34 34 0.695845 9.824 82.1785
10456719 5.9456 8.23294 34 34 0.695845 9.824 82.1785
10456728 5.88394 8.1961 34 34 0.704241 9.85379 82.08
10456742 5.83109 8.04875 34 34 0.677109 9.91456 81.8798
10456748 5.83109 8.04875 34 34 0.677109 9.91456 81.8798
10456758 5.76943 8.03955 34 34 0.693724 9.93614 81.809
10456768 5.76943 8.03955 34 34 0.693724 9.93614 81.809
10456779 5.70777 8.02113 34 34 0.707629 9.96057 81.7289
10456788 5.67254 8.06717 34 34 0.732395 9.95727 81.7397
10456798 5.67254 8.06717 34 34 0.732395 9.95727 81.7397
10456810 5.70777 8.02113 34 34 0.707629 9.96057 81.7289
10456818 5.63731 8.01192 34 34 0.727078 9.98493 81.6492
10456833 5.63731 8.01192 34 34 0.727078 9.98493 81.6492
10456838 5.6285 8.03955 34 34 0.73806 9.97917 81.668
10456848 5.6285 8.03955 34 34 0.73806 9.97917 81.668
10456859 5.56684 8.02113 34 34 0.752038 10.0037 81.588
10456868 5.56684 8.00271 34 34 0.74656 10.0093 81.5695
10456889 5.56684 8.06717 34 34 0.765714 9.98958 81.634
10456902 5.58446 8.03955 34 34 0.751948 9.99265 81.624
10456909 5.58446 8.03955 34 34 0.751948 9.99265 81.624
10456919 5.55803 8.08559 34 34 0.77396 9.98664 81.6436
10456935 5.56684 8.08559 34 34 0.771183 9.98395 81.6524
10456940 5.56684 8.04875 34 34 0.760245 9.99522 81.6156
10456950 5.61969 8.08559 34 34 0.754511 9.96779 81.7053
10456972 5.65492 8.04875 34 34 0.732473 9.96828 81.7037
10456980 5.7342 8.03034 34 34 0.702056 9.94969 81.7645
10456995 5.7342 8.03034 34 34 0.702056 9.94969 81.7645
10457000 5.68135 8.08559 34 34 0.735089 9.94896 81.7669
10457024 5.75181 8.11322 34 34 0.721127 9.91906 81.865
10457033 5.76943 8.03955 34 34 0.693724 9.93614 81.809
10457042 5.76943 8.03955 34 34 0.693724 9.93614 81.809
10457052 5.80466 8.13164 34 34 0.709996 9.89739 81.9363
10457062 5.85751 8.08559 34 34 0.679764 9.89532 81.9431
10457072 5.85751 8.08559 34 34 0.679764 9.89532 81.9431
10457082 5.93679 8.14085 34 34 0.671333 9.85452 82.0776
10457093 5.97202 8.14085 34 34 0.660318 9.84385 82.1129
10457102 5.97202 8.14085 34 34 0.660318 9.84385 82.1129
10457112 5.9544 8.20531 34 34 0.684917 9.82969 82.1597
10457123 5.9544 8.20531 34 34 0.684917 9.82969 82.1597
10457133 5.83109 8.24215 34 34 0.734422 9.85585 82.0732
10457146 5.85751 8.5 34 34 0.802138 9.77005 82.3575
10457153 5.85751 8.5 34 34 0.802138 9.77005 82.3575
10457167 5.87513 8.75785 34 34 0.872147 9.68748 82.633
10457173 5.96321 9.03413 34 34 0.925002 9.5791 82.9973
10457193 6.11295 9.37486 34 34 0.976762 9.4347 83.4878
10457204 6.11295 9.37486 34 34 0.976762 9.4347 83.4878
10457214 6.24508 9.78006 34 34 1.05176 9.27845 84.0251
10457224 6.42124 10.3787 34 34 1.16669 9.05663 84.7999
10457244 6.6943 11.0878 34 34 1.28041 8.7812 85.7821
10457254 7.04663 12.0639 34 34 1.43992 8.41852 87.1105
10457274 7.68964 13.4821 34 34 1.62397 7.8772 89.1718
10457294 7.68964 13.4821 34 34 1.62397 7.8772 89.1718
10457296 8.41192 14.8911 33.183 32.7433 1.69213 7.16523 89.2293
10457306 9.60104 16.558 31.8442 31.2917 1.79304 6.21148 89.2949
10457317 9.60104 16.558 31.8442 31.2917 1.79304 6.21148 89.2949
10457325 11.0808 18.099 30.8303 29.9862 1.71508 5.27301 89.9964
10457342 12.6575 19.4703 30.033 28.7393 1.51787 4.39678 90.9
10457345 12.6575 19.4703 30.033 28.7393 1.51787 4.39678 90.9
10457356 14.2078 20.8124 29.1077 27.4143 1.34124 3.52328 91.5422
10457375 15.6083 21.9989 28.0741 26.0602 1.19265 2.70224 91.7414
10457388 17.2491 23.3215 26.8929 24.745 1.06403 1.80036 92.2085
10457397 17.2491 23.3215 26.8929 24.745 1.06403 1.80036 92.2085
10457412 18.993 24.5469 25.623 23.3713 0.892168 0.884188 92.5343
10457417 20.6671 25.8112 24.3335 21.7834 0.700364 -0.0585401 92.5952
10457427 20.6671 25.8112 24.3335 21.7834 0.700364 -0.0585401 92.5952
10457437 22.2116 27.0269 22.7782 20.1857 0.602677 -1.02079 92.2024
10457448 23.5768 28.0675 21.2032 18.6269 0.523207 -1.93728 91.4745
10457468 24.9519 29.1081 19.6086 17.1559 0.468898 -2.85643 90.8245
10457478 24.9519 29.1081 19.6086 17.1559 0.468898 -2.85643 90.8245
10457488 26.058 30.0029 18.3289 15.9625 0.436741 -3.6141 90.3523
10457498 27.0047 30.7517 17.2559 14.944 0.398833 -4.26148 89.9564
10457519 27.8916 31.4228 16.3034 14.173 0.390035 -4.81753 89.7907
10457528 28.6389 31.9285 15.7107 13.5733 0.32059 -5.22251 89.8515
10457538 28.6389 31.9285 15.7107 13.5733 0.32059 -5.22251 89.8515
10457564 29.177 32.4537 15.274 13.0594 0.295112 -5.55177 89.964
10457566 29.177 32.4537 15.274 13.0594 0.295112 -5.55177 89.964
10457569 29.6952 32.901 15.0037 12.8404 0.288197 -5.76382 90.4403
10457584 30.1237 33.1928 14.6917 12.5834 0.265142 -5.96765 90.5916
10457590 30.1237 33.1928 14.6917 12.5834 0.265142 -5.96765 90.5916
10457607 30.5522 33.5137 14.4942 12.3455 0.223535 -6.14257 90.9056
10457611 30.8312 33.8152 14.4318 12.2408 0.217095 -6.23756 91.319
10457631 30.8312 33.8152 14.4318 12.2408 0.217095 -6.23756 91.319
10457633 31.1999 34 14.307 12.0599 0.150982 -6.36141 91.5668
10457640 31.449 34 14.1303 11.9457 0.100085 -6.45284 91.525
10457655 31.449 34 14.1303 11.9457 0.100085 -6.45284 91.525
10457661 31.6981 34 13.9431 11.7458 0.0286043 -6.56699 91.387
10457671 31.6981 34 13.9431 11.7458 0.0286043 -6.56699 91.387
10457681 31.7878 34 13.7768 11.4888 -0.0208035 -6.67558 91.0534
10457691 31.9572 34 13.5376 11.3175 -0.0488237 -6.78908 90.8123
10457702 31.9572 34 13.5376 11.3175 -0.0488237 -6.78908 90.8123
10457711 32.0668 34 13.2673 11.07 -0.0730366 -6.92384 90.4041
10457726 32.0668 34 13.2673 11.07 -0.0730366 -6.92384 90.4041
10457730 32.2163 34 12.9969 10.9462 -0.0740305 -7.03305 90.1595
10457740 32.1665 34 12.841 10.7654 -0.0674084 -7.1113 89.7729
10457762 32.1864 34 12.6642 10.6607 -0.0530481 -7.18258 89.5113
10457774 32.306 34 12.633 10.6131 -0.090982 -7.21254 89.5521
10457782 32.306 34 12.633 10.6131 -0.090982 -7.21254 89.5521
10457799 32.3259 34 12.5914 10.5274 -0.108983 -7.24587 89.4448
10457802 32.3259 34 12.5914 10.5274 -0.108983 -7.24587 89.4448
10457812 32.4953 34 12.4979 10.4323 -0.156812 -7.30752 89.4254
10457822 32.5152 34 12.4043 10.3942 -0.147052 -7.34212 89.3137
10457832 32.5152 34 12.4043 10.3942 -0.147052 -7.34212 89.3137
10457849 32.4455 34 12.4251 10.4323 -0.122705 -7.32141 89.3028
10457852 32.3359 34 12.4875 10.4037 -0.117579 -7.30351 89.227
10457862 32.3359 34 12.4875 10.4037 -0.117579 -7.30351 89.227
10457872 32.2362 34 12.5394 10.5084 -0.0748381 -7.25578 89.2841
10457882 32.2362 34 12.5394 10.5084 -0.0748381 -7.25578 89.2841
10457892 32.1166 34 12.5914 10.5179 -0.0532806 -7.23006 89.226
10457902 32.1067 34 12.5394 10.556 -0.0252634 -7.23266 89.2021
10457923 32.2063 34 12.4459 10.575 -0.0216216 -7.25991 89.2272
10457932 32.1266 34 12.4771 10.537 -0.0187144 -7.2547 89.1406
10457943 32.1266 34 12.4771 10.537 -0.0187144 -7.2547 89.1406
10457953 32.1764 34 12.3939 10.5084 -0.0173777 -7.28695 89.0787
10457963 32.1764 34 12.3939 10.5084 -0.0173777 -7.28695 89.0787
10457973 32.0868 34 12.4251 10.5845 0.0204027 -7.25234 89.0964
10457984 32.0967 34 12.4251 10.6321 0.0309408 -7.24132 89.1539
10457993 32.0967 34 12.4251 10.6321 0.0309408 -7.24132 89.1539
10458006 32.0768 34 12.3731 10.6417 0.0538141 -7.25019 89.0915
10458013 32.2163 34 12.3731 10.6512 0.0173092 -7.25993 89.2406
10458023 32.2163 34 12.3731 10.6512 0.0173092 -7.25993 89.2406
10458050 32.2562 34 12.2587 10.6797 0.0462085 -7.28481 89.1946
10458051 32.2562 34 12.2587 10.6797 0.0462085 -7.28481 89.1946
10458053 32.3359 34 12.2067 10.6702 0.0357598 -7.30707 89.2128
10458063 32.296 34 12.1547 10.7368 0.0801951 -7.29997 89.1876
10458073 32.296 34 12.1547 10.7368 0.0801951 -7.29997 89.1876
10458083 32.286 34 12.1547 10.7368 0.0829965 -7.29911 89.1776
10458093 32.1964 34 12.1443 10.7273 0.108519 -7.29634 89.068
10458103 32.1964 34 12.1443 10.7273 0.108519 -7.29634 89.068
10458115 32.2362 34 12.1443 10.8035 0.118548 -7.28074 89.184
10458123 32.2362 34 12.1443 10.8035 0.118548 -7.28074 89.184
10458138 32.1565 34 12.1131 10.9177 0.181648 -7.2531 89.1874
10458143 32.0868 34 12.03 11.0985 0.275129 -7.22268 89.2153
10458154 32.0868 34 12.03 11.0985 0.275129 -7.22268 89.2153
10458163 31.8775 34 12.2275 11.1461 0.291631 -7.14341 89.2511
10458183 31.8675 34 12.4147 11.346 0.29673 -7.04691 89.6282
10458189 31.8675 34 12.4147 11.346 0.29673 -7.04691 89.6282
10458207 31.7878 34 12.6538 11.6316 0.330272 -6.91145 90.0732
10458208 31.7878 34 12.6538 11.6316 0.330272 -6.91145 90.0732
10458214 31.6981 34 12.7682 11.8791 0.390929 -6.81566 90.3454
10458230 31.7181 34 13.0177 12.0599 0.364587 -6.71404 90.7957
10458236 31.7181 34 13.0177 12.0599 0.364587 -6.71404 90.7957
10458253 31.3792 34 13.1529 12.3074 0.488564 -6.59167 90.8395
10458256 31.0106 34 13.4544 12.631 0.594437 -6.40946 91.096
10458285 30.2034 33.893 13.9639 13.0784 0.769186 -6.09853 91.1387
10458288 30.2034 33.893 13.9639 13.0784 0.769186 -6.09853 91.1387
10458296 28.9777 32.7843 14.7853 14.0207 0.839698 -5.45822 90.5681
10458315 27.2438 31.4325 16.2722 15.5627 0.960985 -4.44831 90.5112
10458318 27.2438 31.4325 16.2722 15.5627 0.960985 -4.44831 90.5112
10458327 25.49 30.1098 18.4372 17.6235 1.0381 -3.19754 91.6605
10458345 23.517 28.5246 21.1147 20.3123 1.12478 -1.70345 93.4686
10458348 23.517 28.5246 21.1147 20.3123 1.12478 -1.70345 93.4686
10458359 21.3347 26.4434 24.176 23.1278 1.06761 -0.0748158 95.0819
10458368 18.983 26.4434 27.1291 23.1278 0.903773 0.757273 95.6833
10458377 18.983 24.0315 27.1291 26.2355 1.07774 1.61086 96.3791
10458390 16.7886 21.4737 29.4719 29.1484 1.12548 3.15197 96.8826
10458397 16.7886 21.4737 29.4719 29.1484 1.12548 3.15197 96.8826
10458407 14.9917 19.2563 30.9977 31.4086 1.20933 4.36995 96.6543
10458417 13.2917 17.1848 32.0411 32.9381 1.25453 5.42179 95.4557
10458427 13.2917 17.1848 32.0411 32.9381 1.25453 5.42179 95.4557
10458437 11.856 15.5265 32.6613 34 1.33165 6.26497 94.0438
10458447 11.856 15.5265 32.6613 34 1.33165 6.26497 94.0438
10458459 10.614 14.0899 33.2224 34 1.15679 6.93791 91.9263
10458467 9.55699 12.8651 33.557 34 1.04221 7.52423 89.9791
10458491 9.55699 12.8651 33.557 34 1.04221 7.52423 89.9791
10458495 8.69378 11.9902 34 34 0.929272 8.00301 88.684
10458498 8.02435 11.1983 34 34 0.909716 8.38843 87.2226
10458521 8.02435 11.1983 34 34 0.909716 8.38843 87.2226
10458524 7.63679 10.7102 34 34 0.889838 8.62561 86.347
10458538 7.31969 10.4339 34 34 0.907898 8.78909 85.7536
10458550 7.16995 10.1392 34 34 0.87015 8.91302 85.3092
10458575 6.99378 10.0287 34 34 0.892389 8.99365 85.0225
10458579 6.87927 9.85374 34 34 0.877598 9.07562 84.733
10458589 6.87927 9.85374 34 34 0.877598 9.07562 84.733
10458600 6.78238 9.78006 34 34 0.886232 9.12418 84.5624
10458610 6.62383 9.59588 34 34 0.882229 9.22236 84.2197
10458630 6.53575 9.513 34 34 0.885573 9.27163 84.0488
10458647 6.53575 9.513 34 34 0.885573 9.27163 84.0488
10458652 6.32435 9.31961 34 34 0.895238 9.38909 83.644
10458662 6.1658 9.22752 34 34 0.917855 9.46239 83.3933
10458674 6.1658 9.22752 34 34 0.917855 9.46239 83.3933
10458682 6.02487 9.07096 34 34 0.916442 9.54997 83.0958
10458695 5.91036 9.03413 34 34 0.941524 9.59476 82.9445
10458702 5.91036 9.03413 34 34 0.941524 9.59476 82.9445
10458720 5.83109 8.98808 34 34 0.95298 9.63198 82.8192
10458723 5.71658 8.88678 34 34 0.959465 9.69633 82.6034
10458744 5.64611 8.85915 34 34 0.973588 9.7257 82.5053
10458753 5.64611 8.85915 34 34 0.973588 9.7257 82.5053
10458766 5.67254 8.88678 34 34 0.973311 9.7095 82.5593
10458775 5.61088 8.87757 34 34 0.990045 9.73074 82.4884
10458789 5.61088 8.87757 34 34 0.990045 9.73074 82.4884
10458794 5.66373 8.94204 34 34 0.992155 9.69561 82.6058
10458804 5.67254 8.97887 34 34 1.00009 9.68197 82.6514
10458822 5.67254 8.97887 34 34 1.00009 9.68197 82.6514
10458826 5.68135 9.0065 34 34 1.00533 9.6711 82.6879
10458855 5.68135 9.0065 34 34 1.00533 9.6711 82.6879
10458860 5.69016 8.89599 34 34 0.97045 9.70148 82.5862
10458864 5.71658 9.0065 34 34 0.994256 9.66059 82.7231
10458865 5.71658 9.0065 34 34 0.994256 9.66059 82.7231
10458880 5.7342 8.92362 34 34 0.964648 9.68006 82.6578
10458885 5.78705 8.94204 34 34 0.953409 9.6588 82.7291
10458894 5.78705 8.94204 34 34 0.953409 9.6588 82.7291
10458904 5.82228 8.96045 34 34 0.947717 9.64282 82.7827
10458914 5.82228 8.96045 34 34 0.947717 9.64282 82.7827
10458928 5.83109 8.96045 34 34 0.944954 9.6402 82.7915
10458934 5.9544 9.08938 34 34 0.943774 9.56535 83.0438
10458955 5.9544 9.18147 34 34 0.97042 9.53814 83.1359
10458964 6.00725 9.16306 34 34 0.948596 9.52798 83.1703
10458978 6.00725 9.16306 34 34 0.948596 9.52798 83.1703
10458988 6.11295 9.29198 34 34 0.952891 9.45898 83.4049
10458995 6.11295 9.29198 34 34 0.952891 9.45898 83.4049
10459006 6.11295 9.27356 34 34 0.947577 9.46439 83.3865
10459015 6.22746 9.39328 34 34 0.946483 9.39586 83.6207
10459030 6.22746 9.39328 34 34 0.946483 9.39586 83.6207
10459037 6.26269 9.47616 34 34 0.959373 9.36145 83.7389
10459047 6.24508 9.38407 34 34 0.938368 9.39341 83.6292
10459067 6.28031 9.43012 34 34 0.940683 9.36972 83.7104
10459079 6.28031 9.43012 34 34 0.940683 9.36972 83.7104
10459089 6.2715 9.31961 34 34 0.911614 9.40451 83.5911
10459097 6.31554 9.34724 34 34 0.905925 9.3836 83.6628
10459107 6.31554 9.34724 34 34 0.905925 9.3836 83.6628
10459117 6.3772 9.35645 34 34 0.889498 9.36297 83.7337
10459129 6.35078 9.31961 34 34 0.887063 9.38139 83.6704
10459137 6.35078 9.31961 34 34 0.887063 9.38139 83.6704
10459153 6.3772 9.31961 34 34 0.878891 9.37369 83.6968
10459157 6.3772 9.31961 34 34 0.878891 9.37369 83.6968
10459167 6.46528 9.34724 34 34 0.859642 9.34004 83.8125
10459177 6.5886 9.37486 34 34 0.829604 9.29628 83.9635
10459187 6.5886 9.37486 34 34 0.829604 9.29628 83.9635
10459201 6.65026 9.33803 34 34 0.800043 9.2891 83.9883
10459207 6.66788 9.3104 34 34 0.786668 9.292 83.9783
10459229 6.72953 9.3104 34 34 0.767753 9.27417 84.0399
10459259 6.80881 9.36566 34 34 0.759387 9.23538 84.1745
10459262 6.85285 9.35645 34 34 0.743264 9.22535 84.2093
10459268 6.85285 9.35645 34 34 0.743264 9.22535 84.2093
10459292 6.93212 9.40249 34 34 0.732312 9.18936 84.3346
10459296 7.05544 9.49458 34 34 0.721213 9.12773 84.55
10459298 7.05544 9.49458 34 34 0.721213 9.12773 84.55
10459309 7.19637 9.60509 34 34 0.710103 9.05619 84.8015
10459325 7.19637 9.60509 34 34 0.710103 9.05619 84.8015
10459329 7.3285 9.78927 34 34 0.72276 8.96679 85.1178
10459339 7.5487 10.1208 34 34 0.750586 8.81244 85.6695
10459358 7.5487 10.1208 34 34 0.750586 8.81244 85.6695
10459363 7.7601 10.5352 34 34 0.803953 8.63975 86.2953
10459369 8.06839 11.2351 34 34 0.90681 8.36676 87.3035
10459390 8.06839 11.2351 34 34 0.90681 8.36676 87.3035
10459392 8.52642 12.1928 34 34 1.03315 7.99388 88.7193
10459399 8.52642 12.1928 34 34 1.03315 7.99388 88.7193
10459417 9.18705 13.4821 33.6653 33.2011 1.06966 7.40442 89.5356
10459419 10.2881 15.0569 32.5628 31.7593 1.10556 6.52032 89.6671
10459429 10.2881 15.0569 32.5628 31.7593 1.10556 6.52032 89.6671
10459443 11.715 16.8711 31.2831 30.1421 1.11514 5.4725 90.0114
10459449 13.2653 18.7408 30.0232 28.5152 1.09548 4.39544 90.5445
10459459 13.2653 18.7408 30.0232 28.5152 1.09548 4.39544 90.5445
10459498 14.9741 20.7832 28.6352 26.8103 1.09213 3.2381 91.2028
10459500 18.0662 24.4497 25.938 23.7221 1.1303 1.16259 92.176
10459509 18.0662 24.4497 25.938 23.7221 1.1303 1.16259 92.176
10459525 19.6506 25.9863 24.5501 22.1536 1.06647 0.173285 92.3406
10459529 21.1454 27.4548 23.1228 20.5169 1.00379 -0.806676 92.2398
10459539 21.1454 27.4548 23.1228 20.5169 1.00379 -0.806676 92.2398
10459552 22.6102 28.8261 21.6659 18.89 0.934854 -1.77413 91.9921
10459559 22.6102 28.8261 21.6659 18.89 0.934854 -1.77413 91.9921
10459577 24.0152 29.9542 20.1204 17.2825 0.848472 -2.71961 91.3724
10459579 25.3505 31.0629 18.6144 15.8387 0.807995 -3.62515 90.8666
10459601 26.6858 32.0452 17.2264 14.6489 0.767586 -4.44599 90.6063
10459609 27.8716 32.901 16.085 13.5448 0.688362 -5.16737 90.4025
10459631 28.6788 33.5624 15.118 12.6786 0.678644 -5.73834 90.0378
10459640 28.6788 33.5624 15.118 12.6786 0.678644 -5.73834 90.0378
10459651 29.5158 34 14.2966 11.9933 0.607094 -6.21774 89.8057
10459660 30.0838 34 13.7248 11.5269 0.480849 -6.52017 89.3355
10459675 30.0838 34 13.7248 11.5269 0.480849 -6.52017 89.3355
10459680 30.6319 34 13.2673 11.1747 0.357994 -6.76797 89.0739
10459690 30.9707 34 12.841 10.8415 0.290424 -6.9859 88.6532
10459702 30.9707 34 12.841 10.8415 0.290424 -6.9859 88.6532
10459712 31.16 34 12.6226 10.5941 0.229535 -7.11895 88.3767
10459726 31.16 34 12.6226 10.5941 0.229535 -7.11895 88.3767
10459732 31.1899 34 12.4979 10.4132 0.205854 -7.19836 88.101
10459742 31.1999 34 12.5394 10.3275 0.166979 -7.21035 88.0669
10459753 31.1999 34 12.5394 10.3275 0.166979 -7.21035 88.0669
10459763 31.2995 34 12.6642 10.2324 0.076139 -7.2117 88.1961
10459774 31.6284 34 12.7578 10.1848 -0.0568479 -7.22909 88.5709
10459793 32.027 34 12.7162 10.1086 -0.17854 -7.2934 88.8518
10459804 32.4156 34 12.6434 10.0039 -0.296165 -7.37146 89.0629
10459827 32.7444 34 12.4979 9.96585 -0.357714 -7.44563 89.2081
10459834 32.7444 34 12.4979 9.96585 -0.357714 -7.44563 89.2081
10459844 33.0533 34 12.2275 9.65174 -0.457969 -7.61938 88.9326
10459855 33.3224 34 11.9364 9.4804 -0.501011 -7.75964 88.7392
10459864 33.3224 34 11.9364 9.4804 -0.501011 -7.75964 88.7392
10459875 33.5914 34 11.6245 9.25196 -0.554989 -7.92068 88.4679
10459884 33.5914 34 11.6245 9.25196 -0.554989 -7.92068 88.4679
10459900 33.7409 34 11.1462 9.04255 -0.524434 -8.11197 87.9296
10459904 33.9601 34 10.9382 8.76652 -0.607954 -8.25679 87.6649
10459914 33.9601 34 10.9382 8.76652 -0.607954 -8.25679 87.6649
10459925 34 34 10.5431 8.56663 -0.567243 -8.41873 87.1097
10459934 34 34 10.252 8.42385 -0.52729 -8.53597 86.6758
10459950 34 34 10.252 8.42385 -0.52729 -8.53597 86.6758
10459954 34 34 9.96086 8.27156 -0.489751 -8.657 86.2324
10459975 34 34 9.71132 8.14782 -0.455253 -8.75985 85.8591
10459984 34 34 9.56575 8.05263 -0.441819 -8.82666 85.6184
10460001 34 34 9.56575 8.05263 -0.441819 -8.82666 85.6184
10460004 34 34 9.46177 7.94793 -0.443113 -8.88487 85.4097
10460014 34 34 9.39939 7.90985 -0.43651 -8.913 85.3092
10460035 34 34 9.3474 7.84323 -0.441414 -8.9463 85.1906
10460051 34 34 9.3474 7.84323 -0.441414 -8.9463 85.1906
10460055 34 34 9.54495 7.86226 -0.492547 -8.88557 85.4072
10460065 34 34 9.73211 7.90985 -0.531939 -8.8201 85.642
10460088 34 34 9.89847 7.92889 -0.573705 -8.76864 85.8274
10460124 34 34 10.044 7.96697 -0.603724 -8.7179 86.011
10460135 34 34 10.044 7.96697 -0.603724 -8.7179 86.011
10460144 34 34 10.1792 7.93841 -0.650506 -8.68853 86.1176
10460147 34 34 10.2416 7.93841 -0.668132 -8.67138 86.18
10460161 34 34 10.2416 7.93841 -0.668132 -8.67138 86.18
10460166 34 34 10.1064 7.79563 -0.672507 -8.74798 85.9021
10460176 34 34 9.96086 7.78611 -0.634058 -8.79093 85.747
10460188 34 34 9.96086 7.78611 -0.634058 -8.79093 85.747
10460195 34 34 9.81529 7.71948 -0.612558 -8.84995 85.5348
10460213 34 34 9.81529 7.71948 -0.612558 -8.84995 85.5348
10460217 34 34 9.68012 7.59574 -0.611068 -8.92236 85.2759
10460225 34 34 9.55535 7.53863 -0.592497 -8.97349 85.094
10460237 34 34 9.55535 7.53863 -0.592497 -8.97349 85.094
10460245 34 34 9.3578 7.5196 -0.541429 -9.03467 84.8774
10460259 34 34 9.31621 7.39586 -0.566728 -9.08158 84.7121
10460283 34 34 9.19144 7.41489 -0.524944 -9.11167 84.6063
10460288 34 34 9.19144 7.41489 -0.524944 -9.11167 84.6063
10460297 34 34 9.20183 7.39586 -0.533696 -9.11413 84.5977
10460307 34 34 9.16024 7.42441 -0.513048 -9.11785 84.5847
10460330 34 34 9.09786 7.472 -0.480627 -9.12207 84.5699
10460338 34 34 9.10826 7.52912 -0.466445 -9.10283 84.6374
10460362 34 34 9.10826 7.66237 -0.426413 -9.06494 84.7706
10460368 34 34 9.10826 7.66237 -0.426413 -9.06494 84.7706
10460378 34 34 9.17064 7.74804 -0.418812 -9.02298 84.9187
10460394 34 34 9.23303 7.92889 -0.382841 -8.95437 85.1619
10460397 34 34 9.23303 7.92889 -0.382841 -8.95437 85.1619
10460408 34 34 9.337 7.986 -0.395848 -8.90914 85.323
10460418 34 34 9.3578 8.18589 -0.342487 -8.84746 85.5437
10460428 34 34 9.3578 8.18589 -0.342487 -8.84746 85.5437
10460438 34 34 9.47217 8.38578 -0.316332 -8.76018 85.8579
10460464 34 34 9.54495 8.55711 -0.286824 -8.69281 86.1021
10460468 34 34 9.63853 8.71892 -0.266221 -8.62274 86.3575
10460478 34 34 9.63853 8.71892 -0.266221 -8.62274 86.3575
10460488 34 34 9.71132 8.89026 -0.237022 -8.55615 86.6016
10460510 34 34 9.70092 9.18533 -0.148353 -8.47898 86.8863
10460518 34 34 9.90887 9.3757 -0.152709 -8.37183 87.2846
10460541 34 34 9.90887 9.3757 -0.152709 -8.37183 87.2846
10460542 34 34 9.91927 9.62318 -0.0845551 -8.30298 87.5424
10460549 33.5117 34 10.2416 9.93729 0.0524521 -8.09656 87.6906
10460570 32.874 34 10.4911 10.3751 0.287789 -7.86544 87.7402
10460579 32.027 34 10.8966 11.0605 0.607175 -7.51327 87.9841
10460592 32.027 34 10.8966 11.0605 0.607175 -7.51327 87.9841
10460599 31.1501 34 11.6141 12.0885 0.935355 -6.99713 88.8526
10460615 31.1501 34 11.6141 12.0885 0.935355 -6.99713 88.8526
10460619 29.7351 33.7471 12.9242 13.8589 1.37008 -6.09855 90.2653
10460629 28.1706 32.0841 14.9413 16.4955 1.4908 -4.71438 91.6915
10460639 28.1706 32.0841 14.9413 16.4955 1.4908 -4.71438 91.6915
10460649 26.1676 29.9737 17.8072 19.9616 1.58675 -2.9346 93.9101
10460662 23.7761 27.659 21.469 24.0728 1.67223 -0.911555 96.9769
10460670 23.7761 27.659 21.469 24.0728 1.67223 -0.911555 96.9769
10460683 21.4343 25.1791 24.5796 27.4241 1.67039 0.81988 98.6171
10460690 21.4343 25.1791 24.5796 27.4241 1.67039 0.81988 98.6171
10460706 19.0229 22.8741 26.5188 29.4894 1.74196 2.16197 97.9052
10460710 16.8503 20.8513 27.7394 30.8923 1.85653 3.25903 96.3332
10460720 16.8503 20.8513 27.7394 30.8923 1.85653 3.25903 96.3332
10460730 15.2207 18.9645 28.5269 31.9639 1.89614 4.16772 94.6761
10460745 13.785 17.2918 29.3341 33.0258 1.92603 5.02209 93.4366
10460764 12.4813 15.8949 30.0428 33.8831 1.96469 5.77717 92.3022
10460772 12.4813 15.8949 30.0428 33.8831 1.96469 5.77717 92.3022
10460782 11.3627 14.7438 30.85 34 1.7951 6.38936 90.9565
10460792 10.4554 13.7216 31.7064 34 1.54636 6.93055 89.8834
10460802 10.4554 13.7216 31.7064 34 1.54636 6.93055 89.8834
10460812 9.63627 12.8835 32.5136 34 1.32918 7.41191 89.0334
10460826 9.06373 12.2297 33.1239 34 1.14289 7.77514 88.4173
10460832 9.06373 12.2297 33.1239 34 1.14289 7.77514 88.4173
10460842 8.57047 11.8337 33.6358 34 1.03005 8.04719 88.0399
10460852 8.57047 11.8337 33.6358 34 1.03005 8.04719 88.0399
10460862 8.24456 11.493 33.9508 34 0.940153 8.24738 87.6883
10460875 7.98031 11.3732 34 34 0.971034 8.35337 87.3535
10460898 7.92746 11.4009 34 34 0.994354 8.36012 87.3283
10460903 7.89223 11.4193 34 34 1.00991 8.36462 87.3115
10460912 7.89223 11.4193 34 34 1.00991 8.36462 87.3115
10460923 7.96269 11.539 34 34 1.02178 8.31383 87.5017
10460946 8.01554 11.585 34 34 1.01869 8.28751 87.6006
10460953 8.11244 11.6219 34 34 1.00002 8.25202 87.7343
10460969 8.11244 11.6219 34 34 1.00002 8.25202 87.7343
10460973 8.15648 11.7876 34 34 1.03224 8.19655 87.9441
10460984 8.25337 11.8337 34 34 1.01613 8.1589 88.0871
10460995 8.25337 11.8337 34 34 1.01613 8.1589 88.0871
10461003 8.27098 11.9626 34 34 1.04598 8.12044 88.2336
10461019 8.27098 11.9626 34 34 1.04598 8.12044 88.2336
10461023 8.32383 12.0547 34 34 1.05537 8.08252 88.3785
10461033 8.49119 12.1652 34 34 1.03603 8.01018 88.6564
10461049 8.49119 12.1652 34 34 1.03603 8.01018 88.6564
10461053 8.62332 12.3126 33.8622 34 1.07746 7.92691 88.7981
10461064 8.73782 12.4691 33.8622 34 1.08598 7.85714 89.0691
10461079 8.73782 12.4691 33.8622 34 1.08598 7.85714 89.0691
10461084 8.85233 12.6165 33.813 34 1.10638 7.78617 89.2818
10461094 8.85233 12.6165 33.813 34 1.10638 7.78617 89.2818
10461104 8.96684 12.8191 33.7244 34 1.1529 7.6983 89.5103
10461114 9.16943 13.0309 33.4684 34 1.22479 7.57256 89.6687
10461132 9.16943 13.0309 33.4684 34 1.22479 7.57256 89.6687
10461134 9.49534 13.2979 33.1042 34 1.30659 7.39358 89.8975
10461144 9.75959 13.6571 32.7302 34 1.43304 7.20715 90.1469
10461164 10.2176 14.0991 32.1888 34 1.57249 6.93969 90.5055
10461174 10.2176 14.0991 32.1888 34 1.57249 6.93969 90.5055
10461188 10.7021 14.6425 31.7852 34 1.68859 6.65655 91.1297
10461195 11.2041 15.3147 31.2733 33.5226 1.74121 6.28765 91.3148
10461208 11.2041 15.3147 31.2733 33.5226 1.74121 6.28765 91.3148
10461217 11.7062 16.0423 30.85 32.7627 1.7099 5.88832 91.3613
10461233 12.3316 16.8803 30.2791 31.9054 1.68908 5.41148 91.3964
10461237 12.3316 16.8803 30.2791 31.9054 1.68908 5.41148 91.3964
10461247 12.9218 17.9142 29.6393 30.941 1.72129 4.88058 91.4162
10461258 13.5648 18.8965 28.7632 29.8693 1.76682 4.30951 91.0937
10461267 13.5648 18.8965 28.7632 29.8693 1.76682 4.30951 91.0937
10461282 14.199 20.0927 27.8871 28.8269 1.87724 3.69577 91.0057
10461287 14.199 20.0927 27.8871 28.8269 1.87724 3.69577 91.0057
10461298 14.9477 21.0069 26.8141 27.6871 1.9159 3.07554 90.4558
10461309 15.7052 21.9405 25.8494 26.6447 1.94991 2.4709 90.1398
10461318 15.7052 21.9405 25.8494 26.6447 1.94991 2.4709 90.1398
10461334 16.7269 22.9228 24.8257 25.5438 1.92013 1.78626 90.0193
10461338 17.6876 23.7883 23.9201 24.5404 1.86828 1.16492 89.9364
10461360 18.7638 24.7803 23.0539 23.5467 1.80526 0.508592 90.1447
10461368 18.7638 24.7803 23.0539 23.5467 1.80526 0.508592 90.1447
10461391 19.6905 25.6362 22.2565 22.4946 1.71621 -0.0958496 90.0777
10461393 20.7268 26.5309 21.5379 21.4424 1.58152 -0.71102 90.2381
10461404 20.7268 26.5309 21.5379 21.4424 1.58152 -0.71102 90.2381
10461408 21.7433 27.4645 20.8784 20.5461 1.4865 -1.28816 90.6323
10461422 22.7995 28.1939 20.0515 19.5427 1.3483 -1.88755 90.5877
10461429 22.7995 28.1939 20.0515 19.5427 1.3483 -1.88755 90.5877
10461445 23.8159 28.9622 19.3428 18.7244 1.24604 -2.42903 90.8453
10461449 23.8159 28.9622 19.3428 18.7244 1.24604 -2.42903 90.8453
10461459 24.7726 29.6625 18.6734 17.8963 1.12982 -2.94468 91.0047
10461469 25.8488 30.4211 17.8859 17.1461 1.0494 -3.48916 91.3019
10461493 27.0445 31.3255 17.0591 16.2385 0.943741 -4.10273 91.6676
10461502 28.4297 32.4439 15.9602 15.2296 0.891668 -4.83641 92.0634
10461520 29.8148 33.4846 14.9101 14.0969 0.773665 -5.57259 92.3063
10461530 29.8148 33.4846 14.9101 14.0969 0.773665 -5.57259 92.3063
10461546 30.881 34 13.8911 13.0308 0.615084 -6.20227 91.8029
10461551 31.9373 34 13.0281 12.0218 0.290266 -6.74061 90.9873
10461560 31.9373 34 13.0281 12.0218 0.290266 -6.74061 90.9873
10461575 32.7644 34 12.2587 11.1937 0.0472933 -7.2013 90.2168
10461580 33.4719 34 11.5309 10.4894 -0.143418 -7.61826 89.4921
10461601 33.9701 34 11.0838 9.88018 -0.329942 -7.92826 88.9341
10461612 33.9701 34 11.0838 9.88018 -0.329942 -7.92826 88.9341
10461625 34 34 10.6055 9.44233 -0.330269 -8.16922 88.0478
10461632 34 34 10.2312 9.07111 -0.332202 -8.36708 87.3023
10461653 34 34 9.98165 8.79507 -0.341848 -8.50861 86.7767
10461662 34 34 9.72171 8.61422 -0.320692 -8.62863 86.3359
10461678 34 34 9.72171 8.61422 -0.320692 -8.62863 86.3359
10461682 33.99 34 9.57615 8.55711 -0.292917 -8.6835 86.1233
10461692 33.99 34 9.57615 8.55711 -0.292917 -8.6835 86.1233
10461703 33.8406 34 9.58654 8.48096 -0.275336 -8.69064 85.9081
10461713 33.7409 34 9.61774 8.49048 -0.252816 -8.67208 85.8491
10461728 33.7409 34 9.61774 8.49048 -0.252816 -8.67208 85.8491
10461732 33.7509 34 9.73211 8.59518 -0.257848 -8.61256 86.0782
10461742 33.6911 34 9.82569 8.72844 -0.228517 -8.54603 86.2452
10461752 33.6911 34 9.82569 8.72844 -0.228517 -8.54603 86.2452
10461762 33.6612 34 10.1272 8.92833 -0.247958 -8.40766 86.7167
10461773 33.6612 34 10.1272 8.92833 -0.247958 -8.40766 86.7167
10461782 33.4918 34 10.2624 9.24244 -0.147055 -8.27394 86.9966
10461795 33.5516 34 10.5743 9.48992 -0.181466 -8.12993 87.6158
10461802 33.5516 34 10.5743 9.48992 -0.181466 -8.12993 87.6158
10461812 33.5914 34 10.855 9.77548 -0.190151 -7.98456 88.222
10461824 33.5018 34 11.1566 9.94681 -0.200757 -7.8548 88.6051
10461848 33.4719 34 11.3853 10.1467 -0.199567 -7.74233 89.0039
10461852 33.4719 34 11.3853 10.1467 -0.199567 -7.74233 89.0039
10461863 33.3423 34 11.5517 10.3751 -0.145307 -7.63122 89.2691
10461873 33.2227 34 11.7284 10.3751 -0.161219 -7.57657 89.3263
10461883 33.2227 34 11.7284 10.3751 -0.161219 -7.57657 89.3263
10461897 33.0135 34 11.7804 10.3942 -0.112046 -7.54118 89.1881
10461903 32.9039 34 11.8428 10.4227 -0.0908226 -7.50902 89.1694
10461913 32.9039 34 11.8428 10.4227 -0.0908226 -7.50902 89.1694
10461923 32.8042 34 11.9052 10.3751 -0.0938088 -7.4969 89.0846
10461949 32.5252 34 11.9572 10.3847 -0.0274941 -7.45777 88.8671
10461953 32.4455 34 12.0508 10.4894 -0.00193715 -7.40098 88.9856
10461974 32.2063 34 12.2171 10.5655 0.0399083 -7.31951 88.989
10461984 31.9373 34 12.3627 10.7749 0.1333 -7.20736 89.0749
10462004 31.6782 34 12.7474 11.1176 0.1932 -7.00442 89.5432
10462032 31.3593 34 13.0385 11.5364 0.316492 -6.80237 89.9342
10462040 31.0604 33.7666 13.7664 12.1456 0.299054 -6.43302 90.7389
10462060 31.0604 33.7666 13.7664 12.1456 0.299054 -6.43302 90.7389
10462062 30.7216 33.0177 14.4942 12.8404 0.176343 -5.9959 91.0739
10462064 30.2034 31.909 15.4612 13.8113 0.0152618 -5.39038 91.3849
10462074 30.2034 31.909 15.4612 13.8113 0.0152618 -5.39038 91.3849
10462089 29.5657 30.3141 16.7817 15.3057 -0.197765 -4.53299 91.9671
10462094 29.5657 30.3141 16.7817 15.3057 -0.197765 -4.53299 91.9671
10462104 28.8283 28.6121 18.2305 17.3312 -0.299819 -3.52874 93.0021
10462114 27.9912 27.1922 19.707 19.6109 -0.236796 -2.5183 94.5013
10462145 27.1243 26.1127 20.78 21.0527 -0.194281 -1.79936 95.0697
10462147 25.9883 26.1127 21.6757 21.0527 -0.131443 -1.48253 94.8294
10462154 25.9883 24.79 21.6757 22.1633 -0.187768 -1.1001 94.6174
10462165 24.6131 23.3993 22.6109 23.3129 -0.136212 -0.333524 93.9362
10462175 24.6131 23.3993 22.6109 23.3129 -0.136212 -0.333524 93.9362
10462187 23.0487 21.9308 23.6642 24.6573 -0.0334188 0.5373 93.3009
10462195 21.524 20.6081 24.6781 26.216 0.167179 1.41282 93.0263
10462210 21.524 20.6081 24.6781 26.216 0.167179 1.41282 93.0263
10462216 20.0393 19.2368 25.8101 27.6676 0.284386 2.29666 92.7538
10462225 20.0393 19.2368 25.8101 27.6676 0.284386 2.29666 92.7538
10462237 18.6043 17.9434 26.8338 28.9925 0.40535 3.13053 92.3741
10462246 17.2093 16.9263 27.6902 30.2103 0.607687 3.8732 92.0361
10462258 17.2093 16.9263 27.6902 30.2103 0.607687 3.8732 92.0361
10462265 16.1456 16.033 28.5171 31.3891 0.749168 4.51663 92.0848
10462286 15.0886 15.3055 29.2061 32.451 0.94018 5.09439 92.0513
10462297 14.2606 14.7254 29.7082 33.435 1.13741 5.5613 92.1291
10462317 13.4855 14.3017 30.0625 34 1.29388 5.92413 91.8498
10462328 12.8513 13.9518 30.476 34 1.26659 6.19083 91.2791
10462344 12.8513 13.9518 30.476 34 1.26659 6.19083 91.2791
10462348 12.2523 13.4729 31.0567 34 1.14666 6.49879 90.782
10462358 11.6534 13.0677 31.6375 34 1.04496 6.79234 90.3586
10462371 11.6534 13.0677 31.6375 34 1.04496 6.79234 90.3586
10462378 11.072 12.6165 32.0805 34 0.964689 7.08352 89.769
10462388 10.5523 12.2665 32.6022 34 0.87004 7.34447 89.4211
10462398 10.5523 12.2665 32.6022 34 0.87004 7.34447 89.4211
10462408 10.0326 11.935 33.1928 34 0.759736 7.6085 89.1605
10462421 10.0326 11.935 33.1928 34 0.759736 7.6085 89.1605
10462428 9.43368 11.5022 33.813 34 0.635365 7.923 88.7488
10462449 8.8171 11.0417 34 34 0.633007 8.21907 87.8588
10462451 8.8171 11.0417 34 34 0.633007 8.21907 87.8588
10462458 8.31503 10.6181 34 34 0.662312 8.46632 86.9331
10462480 7.74249 10.2589 34 34 0.731513 8.72054 86.0014
10462482 7.74249 10.2589 34 34 0.731513 8.72054 86.0014
10462488 7.20518 9.87216 34 34 0.783691 8.97818 85.0773
10462509 7.20518 9.87216 34 34 0.783691 8.97818 85.0773
10462511 6.77358 9.54063 34 34 0.820458 9.19521 84.3142
10462518 6.39482 9.21831 34 34 0.84421 9.39808 83.6131
10462539 6.39482 9.21831 34 34 0.84421 9.39808 83.6131
10462544 6.15699 9.08017 34 34 0.877967 9.50828 83.2372
10462549 5.92798 8.76706 34 34 0.858298 9.66895 82.695
10462569 5.92798 8.76706 34 34 0.858298 9.66895 82.695
10462572 5.7342 8.55525 34 34 0.857055 9.79054 82.2895
10462579 5.7342 8.55525 34 34 0.857055 9.79054 82.2895
10462596 5.48756 8.2974 34 34 0.858909 9.94346 81.785
10462599 5.29378 7.96587 34 34 0.822082 10.1047 81.2597
10462609 5.29378 7.96587 34 34 0.822082 10.1047 81.2597
10462621 5.10881 7.70802 34 34 0.804043 10.2423 80.8168
10462629 4.87098 7.70802 34 34 0.8802 10.3168 80.579
10462646 4.87098 7.45016 34 34 0.802767 10.398 80.3212
10462649 4.71244 7.22914 34 34 0.787047 10.5186 79.9416
10462659 4.71244 7.22914 34 34 0.787047 10.5186 79.9416
10462671 4.51865 7.0818 34 34 0.805005 10.628 79.6004
10462684 4.41295 6.96208 34 34 0.802878 10.7008 79.375
10462699 4.41295 6.96208 34 34 0.802878 10.7008 79.375
10462702 4.37772 6.89762 34 34 0.794667 10.7331 79.2753
10462711 4.29845 6.90683 34 34 0.823298 10.7559 79.2053
10462731 4.29845 6.90683 34 34 0.823298 10.7559 79.2053
10462733 4.36891 7.01733 34 34 0.83403 10.6971 79.3862
10462758 4.42176 7.06338 34 34 0.830856 10.6652 79.4851
10462760 4.65078 7.27519 34 34 0.82089 10.5236 79.926
10462770 4.65078 7.27519 34 34 0.82089 10.5236 79.926
10462785 4.80933 7.35807 34 34 0.794819 10.4468 80.1674
10462792 4.8886 7.33965 34 34 0.763774 10.4275 80.2283
10462802 4.8886 7.33965 34 34 0.763774 10.4275 80.2283
10462812 5.03834 7.49621 34 34 0.762987 10.3307 80.5345
10462822 5.03834 7.49621 34 34 0.762987 10.3307 80.5345
10462837 5.11762 7.55146 34 34 0.754267 10.2885 80.6691
10462842 5.19689 7.54225 34 34 0.726214 10.2666 80.7391
10462852 5.19689 7.54225 34 34 0.726214 10.2666 80.7391
10462863 5.17927 7.60672 34 34 0.751194 10.2519 80.786
10462872 5.27617 7.68039 34 34 0.742441 10.1987 80.9566
10462887 5.27617 7.68039 34 34 0.742441 10.1987 80.9566
10462892 5.21451 7.64355 34 34 0.751022 10.2294 80.8581
10462902 5.21451 7.64355 34 34 0.751022 10.2294 80.8581
10462912 5.2057 7.61593 34 34 0.745538 10.2408 80.8216
10462922 5.28497 7.60672 34 34 0.717545 10.2189 80.8917
10462943 5.28497 7.60672 34 34 0.717545 10.2189 80.8917
10462945 5.24974 7.5883 34 34 0.723222 10.2356 80.838
10462952 5.11762 7.5883 34 34 0.765336 10.277 80.7059
10462973 5.11762 7.44095 34 34 0.721008 10.3232 80.5586
10462975 5.09119 7.34886 34 34 0.701663 10.3605 80.4401
10462982 5.09119 7.34886 34 34 0.701663 10.3605 80.4401
10462999 5.11762 7.25677 34 34 0.665373 10.3812 80.3744
10463002 5.07358 7.20152 34 34 0.662702 10.4126 80.2751
10463012 5.07358 7.20152 34 34 0.662702 10.4126 80.2751
10463024 5.1 7.25677 34 34 0.670999 10.3868 80.3568
10463032 5.1 7.25677 34 34 0.670999 10.3868 80.3568
10463046 5.13523 7.16468 34 34 0.631833 10.4048 80.2999
10463053 5.21451 7.2844 34 34 0.642833 10.342 80.4989
10463069 5.21451 7.2844 34 34 0.642833 10.342 80.4989
10463073 5.24093 7.34886 34 34 0.653905 10.3134 80.5898
10463083 5.44352 7.37649 34 34 0.597921 10.2413 80.82
10463093 5.44352 7.37649 34 34 0.597921 10.2413 80.82
10463103 5.65492 7.54225 34 34 0.581095 10.124 81.1972
10463114 5.65492 7.54225 34 34 0.581095 10.124 81.1972
10463123 5.98964 7.84615 34 34 0.567147 9.92797 81.8358
10463139 6.4829 8.2974 34 34 0.547987 9.64354 82.7803
10463155 7.27565 9.08938 34 34 0.537467 9.18063 84.365
10463175 8.43834 10.3602 34 34 0.553548 8.50269 86.7986
10463179 8.43834 10.3602 34 34 0.553548 8.50269 86.7986
10463183 9.90933 12.11 33.5078 33.7272 0.677848 7.59891 89.2543
10463193 9.90933 12.11 33.5078 33.7272 0.677848 7.59891 89.2543
10463203 11.671 14.2004 32.4349 32.3146 0.664636 6.43528 90.6209
10463213 13.8554 16.2817 31.0863 30.7948 0.579998 5.17462 92.0182
10463227 13.8554 16.2817 31.0863 30.7948 0.579998 5.17462 92.0182
10463234 16.0311 18.0892 29.4916 28.8562 0.38465 3.93013 92.4681
10463251 17.9865 19.6161 27.8083 26.898 0.1948 2.77931 92.309
10463254 17.9865 19.6161 27.8083 26.898 0.1948 2.77931 92.309
10463267 19.7702 21.25 26.1448 25.008 0.0930429 1.64895 92.173
10463277 21.2351 22.8839 24.5599 23.2642 0.0960022 0.604482 91.943
10463301 22.4906 24.3816 23.0539 21.4716 0.0844479 -0.385138 91.3977
10463305 22.4906 24.3816 23.0539 21.4716 0.0844479 -0.385138 91.3977
10463314 23.7562 25.782 21.6265 19.6011 0.000140071 -1.3734 90.7659
10463333 25.0117 27.1728 20.1401 17.8281 -0.0418738 -2.36537 90.1527
10463336 25.0117 27.1728 20.1401 17.8281 -0.0418738 -2.36537 90.1527
10463349 26.0979 28.5246 18.9392 16.4574 -0.0152856 -3.20363 90.0191
10463357 27.0246 29.7889 17.8958 15.2391 0.0299037 -3.94871 89.9484
10463372 27.0246 29.7889 17.8958 15.2391 0.0299037 -3.94871 89.9484
10463378 27.9414 31.0046 17.0098 14.2587 0.0864714 -4.60194 90.2145
10463398 28.7784 31.9674 16.2202 13.5638 0.14708 -5.1301 90.5298
10463408 29.4361 32.8621 15.5443 12.888 0.212082 -5.59886 90.7306
10463428 29.9941 33.6499 15.0141 12.3455 0.271183 -5.98073 91.0036
10463444 30.3728 34 14.4734 12.0123 0.320861 -6.25485 90.8585
10463448 30.3728 34 14.4734 12.0123 0.320861 -6.25485 90.8585
10463458 30.6618 34 13.9951 11.6792 0.28291 -6.47374 90.3361
10463468 30.6618 34 13.9951 11.6792 0.28291 -6.47374 90.3361
10463479 30.8312 34 13.6208 11.4031 0.264636 -6.64524 89.8551
10463493 31.1102 34 13.2257 11.1842 0.236911 -6.81975 89.5201
10463498 31.1102 34 13.2257 11.1842 0.236911 -6.81975 89.5201
10463509 31.1999 34 12.9657 10.9462 0.218999 -6.9499 89.1119
10463519 31.2397 34 12.737 10.8415 0.243419 -7.03591 88.8183
10463529 31.2397 34 12.737 10.8415 0.243419 -7.03591 88.8183
10463544 31.2995 34 12.6434 10.7368 0.223809 -7.09055 88.6798
10463549 31.3593 34 12.5291 10.7654 0.247318 -7.11727 88.6538
10463559 31.3593 34 12.5291 10.7654 0.247318 -7.11727 88.6538
10463569 31.5985 34 12.4251 10.7273 0.198242 -7.17391 88.7509
10463579 31.5985 34 12.4251 10.7273 0.198242 -7.17391 88.7509
10463593 31.738 34 12.3315 10.6607 0.166574 -7.22626 88.7302
10463599 31.8775 34 12.1547 10.5179 0.137123 -7.31871 88.5501
10463609 31.8775 34 12.1547 10.5179 0.137123 -7.31871 88.5501
10463619 31.9373 34 12.1235 10.556 0.139692 -7.32215 88.6168
10463629 32.0569 34 12.0196 10.4037 0.0924706 -7.39718 88.4801
10463642 32.0569 34 12.0196 10.4037 0.0924706 -7.39718 88.4801
10463649 32.0569 34 11.926 10.3371 0.100267 -7.43781 88.3199
10463659 32.0569 34 11.926 10.3371 0.100267 -7.43781 88.3199
10463669 32.1166 34 11.8636 10.3847 0.114414 -7.44668 88.3649
10463679 32.2462 34 11.7908 10.3085 0.0768304 -7.4956 88.3455
10463690 32.2462 34 11.7908 10.3085 0.0768304 -7.4956 88.3455
10463700 32.3458 34 11.6661 10.1943 0.0516951 -7.56503 88.2062
10463713 32.3458 34 11.6661 10.1943 0.0516951 -7.56503 88.2062
10463721 32.4455 34 11.6869 10.061 -0.0202119 -7.6022 88.1934
10463736 32.6049 34 11.5205 9.95633 -0.0479907 -7.68515 88.0817
10463751 32.7145 34 11.4373 9.83259 -0.0907153 -7.74762 87.9844
10463761 32.8042 34 11.3437 9.68029 -0.133118 -7.8187 87.8282
10463770 32.8042 34 11.3437 9.68029 -0.133118 -7.8187 87.8282
10463783 32.9138 34 11.1358 9.57559 -0.135241 -7.9091 87.6252
10463791 32.9138 34 11.1358 9.57559 -0.135241 -7.9091 87.6252
10463806 32.8939 34 11.1046 9.47088 -0.150797 -7.94308 87.4694
10463811 33.0234 34 11.011 9.39474 -0.182924 -7.99808 87.4292
10463821 33.0234 34 11.011 9.39474 -0.182924 -7.99808 87.4292
10463830 33.0733 34 10.959 9.31859 -0.204265 -8.03581 87.3509
10463840 33.0832 34 10.8135 9.2234 -0.193207 -8.10026 87.1201
10463854 33.0832 34 10.8135 9.2234 -0.193207 -8.10026 87.1201
10463861 33.2128 34 10.7407 9.2234 -0.209357 -8.1298 87.1768
10463871 33.2128 34 10.7407 9.2234 -0.209357 -8.1298 87.1768
10463881 33.2526 34 10.7615 9.17581 -0.240365 -8.14005 87.1899
10463893 33.4021 34 10.7511 9.15677 -0.285307 -8.1596 87.31
10463907 33.4021 34 10.7511 9.15677 -0.285307 -8.1596 87.31
10463912 33.5615 34 10.7407 9.09966 -0.343972 -8.18996 87.4019
10463922 33.6811 34 10.7511 9.10918 -0.377823 -8.19399 87.5414
10463947 33.6811 34 10.7511 9.10918 -0.377823 -8.19399 87.5414
10463951 33.8206 34 10.6575 9.10918 -0.390737 -8.22961 87.5873
10463955 33.8206 34 10.6575 9.10918 -0.390737 -8.22961 87.5873
10463976 33.8505 34 10.5951 9.06159 -0.395408 -8.26112 87.5072
10463977 33.8705 34 10.6159 9.06159 -0.406854 -8.25713 87.548
10463982 33.8705 34 10.6159 9.06159 -0.406854 -8.25713 87.548
10463994 33.8705 34 10.5743 9.06159 -0.395162 -8.26818 87.5064
10464002 33.8206 34 10.6471 9.12822 -0.382297 -8.22732 87.5959
10464012 33.8206 34 10.6471 9.12822 -0.382297 -8.22732 87.5959
10464026 33.7309 34 10.6055 9.1187 -0.348108 -8.23395 87.4552
10464032 33.7309 34 10.6055 9.1187 -0.348108 -8.23395 87.4552
10464043 33.8705 34 10.6263 9.14726 -0.384936 -8.23163 87.644
10464053 33.9004 34 10.7511 9.17581 -0.420031 -8.19338 87.8272
10464063 33.9004 34 10.7511 9.17581 -0.420031 -8.19338 87.8272
10464075 33.8705 34 10.7927 9.271 -0.395785 -8.15499 87.9341
10464083 33.721 34 10.8654 9.271 -0.374308 -8.12416 87.8574
10464093 33.721 34 10.8654 9.271 -0.374308 -8.12416 87.8574
10464104 33.6712 34 11.063 9.41377 -0.374478 -8.031 88.1479
10464113 33.6712 34 11.063 9.41377 -0.374478 -8.031 88.1479
10464128 33.4719 34 11.167 9.64222 -0.282227 -7.92854 88.2811
10464133 33.3124 34 11.4061 9.92777 -0.223011 -7.78011 88.6463
10464144 33.3124 34 11.4061 9.92777 -0.223011 -7.78011 88.6463
10464157 33.0135 34 11.718 10.1848 -0.153726 -7.61008 88.9163
10464164 32.7345 34 12.2379 10.7464 -0.0629827 -7.31456 89.7188
10464184 32.7345 34 12.2379 10.7464 -0.0629827 -7.31456 89.7188
10464186 32.4953 34 12.7682 11.4127 0.0411212 -6.99982 90.6762
10464212 32.1067 32.9886 13.6728 12.4502 -0.0933856 -6.40864 91.2182
10464215 31.6483 31.6951 14.7229 14.0017 -0.183146 -5.64019 92.068
10464226 31.6483 31.6951 14.7229 14.0017 -0.183146 -5.64019 92.068
10464240 30.9508 29.9931 16.085 16.2004 -0.225841 -4.61096 93.2294
10464245 29.9941 28.1842 17.7875 18.9192 -0.178696 -3.39437 94.885
10464268 28.7984 26.385 19.1754 21.5788 -0.0026077 -2.25602 95.9376
10464276 27.2239 24.6247 20.3862 23.4688 0.126263 -1.25287 95.7036
10464296 27.2239 24.6247 20.3862 23.4688 0.126263 -1.25287 95.7036
10464298 25.4103 22.8936 21.6265 25.0373 0.235346 -0.259057 94.9677
10464307 25.4103 22.8936 21.6265 25.0373 0.235346 -0.259057 94.9677
10464323 23.4373 21.2597 23.0145 26.5765 0.367084 0.778567 94.288
10464327 21.5141 19.7912 24.4615 27.9989 0.483781 1.78452 93.7656
10464350 19.6506 18.3324 25.9184 29.5089 0.60814 2.80123 93.4103
10464357 17.8769 17.0292 27.2866 31.0481 0.781253 3.76906 93.2408
10464376 17.8769 17.0292 27.2866 31.0481 0.781253 3.76906 93.2408
10464378 16.2161 15.7936 28.6155 32.3633 0.894022 4.67303 92.9885
10464388 16.2161 15.7936 28.6155 32.3633 0.894022 4.67303 92.9885
10464402 14.6746 14.6977 29.8952 33.8052 1.05645 5.53245 93.0727
10464408 13.3269 13.8229 31.0371 34 0.938004 6.16475 92.1869
10464418 13.3269 13.8229 31.0371 34 0.938004 6.16475 92.1869
10464428 12.2259 13.0125 31.8147 34 0.815967 6.68451 91.0531
10464438 11.1953 12.3034 32.4349 34 0.743094 7.16131 89.9336
10464453 11.1953 12.3034 32.4349 34 0.743094 7.16131 89.9336
10464458 10.2352 11.714 32.8384 34 0.743428 7.5837 88.7877
10464468 10.2352 11.714 32.8384 34 0.743428 7.5837 88.7877
10464479 9.43368 11.2535 33.3109 34 0.712773 7.9474 87.9981
10464488 8.7114 10.8207 33.9016 34 0.631261 8.2982 87.4337
10464508 8.13886 10.4247 34 34 0.660163 8.5665 86.5636
10464518 7.55751 10.0932 34 34 0.740117 8.81767 85.6507
10464531 7.55751 10.0932 34 34 0.740117 8.81767 85.6507
10464538 7.09067 9.79848 34 34 0.797454 9.03134 84.8892
10464556 7.09067 9.79848 34 34 0.797454 9.03134 84.8892
10464558 6.68549 9.6143 34 34 0.868571 9.19935 84.2998
10464568 6.29793 9.36566 34 34 0.916684 9.38337 83.6636
10464584 6.29793 9.36566 34 34 0.916684 9.38337 83.6636
10464589 6.02487 9.15385 34 34 0.940436 9.5255 83.1787
10464599 5.74301 8.86836 34 34 0.945801 9.69394 82.6114
10464609 5.74301 8.86836 34 34 0.945801 9.69394 82.6114
10464623 5.45233 8.73023 34 34 0.997141 9.82279 82.1826
10464634 5.45233 8.73023 34 34 0.997141 9.82279 82.1826
10464639 5.16166 8.47237 34 34 1.01389 9.98958 81.634
10464649 4.98549 8.2974 34 34 1.01864 10.0975 81.2829
10464660 4.98549 8.2974 34 34 1.01864 10.0975 81.2829
10464669 4.73886 8.10401 34 34 1.04065 10.2341 80.8429
10464687 4.53627 7.81853 34 34 1.02118 10.3874 80.3548
10464691 4.53627 7.81853 34 34 1.02118 10.3874 80.3548
10464699 4.42176 7.61593 34 34 0.997704 10.488 80.0377
10464713 4.42176 7.61593 34 34 0.997704 10.488 80.0377
10464719 4.21036 7.37649 34 34 0.994548 10.6324 79.5869
10464729 4.043 7.0818 34 34 0.960127 10.7821 79.1248
10464740 4.043 7.0818 34 34 0.960127 10.7821 79.1248
10464749 3.91088 6.82394 34 34 0.92496 10.9098 78.7348
10464765 3.70829 6.58451 34 34 0.918415 11.056 78.2928
10464771 3.70829 6.58451 34 34 0.918415 11.056 78.2928
10464780 3.58497 6.32665 34 34 0.879741 11.1835 77.9116
10464791 3.58497 6.32665 34 34 0.879741 11.1835 77.9116
10464801 3.45285 6.07801 34 34 0.84649 11.3121 77.5309
10464815 3.35596 5.95829 34 34 0.84148 11.3858 77.3142
10464821 3.35596 5.95829 34 34 0.84148 11.3858 77.3142
10464837 3.32953 5.83857 34 34 0.812846 11.4358 77.1681
10464842 3.25907 5.72806 34 34 0.801757 11.4979 76.9871
10464852 3.25907 5.72806 34 34 0.801757 11.4979 76.9871
10464862 3.27668 5.73727 34 34 0.798747 11.4887 77.014
10464872 3.27668 5.73727 34 34 0.798747 11.4887 77.014
10464882 3.33834 5.7649 34 34 0.786787 11.458 77.1032
10464892 3.45285 5.93066 34 34 0.800496 11.3622 77.3835
10464905 3.45285 5.93066 34 34 0.800496 11.3622 77.3835
10464912 3.49689 5.94908 34 34 0.791579 11.3409 77.446
10464922 3.58497 6.08722 34 34 0.805387 11.2642 77.6722
10464938 3.58497 6.08722 34 34 0.805387 11.2642 77.6722
10464942 3.62902 6.16089 34 34 0.81369 11.2245 77.7899
10464968 3.69948 6.26219 34 34 0.821784 11.1667 77.9617
10464972 3.79637 6.29903 34 34 0.801152 11.1219 78.0954
10464983 3.79637 6.29903 34 34 0.801152 11.1219 78.0954
10464999 3.89326 6.31744 34 34 0.774887 11.0834 78.2107
10465005 3.94611 6.3727 34 34 0.774586 11.0474 78.3188
10465013 3.94611 6.3727 34 34 0.774586 11.0474 78.3188
10465023 3.99016 6.42795 34 34 0.777179 11.0144 78.4181
10465034 3.99016 6.42795 34 34 0.777179 11.0144 78.4181
10465047 4.0342 6.44637 34 34 0.768396 10.9937 78.4806
10465054 4.20155 6.63055 34 34 0.77031 10.8778 78.8321
10465074 4.27202 6.63976 34 34 0.750124 10.8517 78.9118
10465084 4.43057 6.69502 34 34 0.715458 10.7818 79.1256
10465097 4.43057 6.69502 34 34 0.715458 10.7818 79.1256
10465108 4.52746 6.84236 34 34 0.72915 10.7025 79.3698
10465132 4.70363 6.9805 34 34 0.714344 10.6011 79.6841
10465134 4.89741 7.10022 34 34 0.688398 10.5008 79.9976
10465144 4.89741 7.10022 34 34 0.688398 10.5008 79.9976
10465162 5.05596 7.19231 34 34 0.665542 10.4211 80.2483
10465166 5.25855 7.2844 34 34 0.628811 10.3281 80.5429
10465175 5.25855 7.2844 34 34 0.628811 10.3281 80.5429
10465189 5.56684 7.33965 34 34 0.547796 10.2143 80.9065
10465195 5.56684 7.33965 34 34 0.547796 10.2143 80.9065
10465214 5.78705 7.46858 34 34 0.517359 10.106 81.2556
10465224 6.25389 7.72644 34 34 0.449055 9.88402 81.9803
10465225 6.25389 7.72644 34 34 0.449055 9.88402 81.9803
10465243 6.64145 7.87378 34 34 0.373363 9.72271 82.5152
10465254 7.15233 8.10401 34 34 0.285766 9.50264 83.2563
10465265 7.15233 8.10401 34 34 0.285766 9.50264 83.2563
10465267 7.87461 8.5 34 34 0.185302 9.17789 84.3746
10465277 8.58808 9.09859 34 34 0.148946 8.80767 85.6867
10465292 8.58808 9.09859 34 34 0.148946 8.80767 85.6867
10465297 9.4601 9.92741 33.4488 34 0.293237 8.30204 86.8363
10465318 10.4554 11.1062 32.7695 34 0.532424 7.67701 88.3312
10465327 11.6358 12.7546 31.8836 34 0.89595 6.89455 90.274
10465356 11.6358 12.7546 31.8836 34 0.89595 6.89455 90.274
10465360 13.0451 15.0477 30.6827 32.4607 1.03595 5.76263 91.2362
10465361 14.5777 17.3793 29.3439 30.5513 1.09113 4.56247 91.8522
10465368 14.5777 17.3793 29.3439 30.5513 1.09113 4.56247 91.8522
10465389 16.0663 19.6453 27.9363 28.3788 1.09248 3.35828 92.0267
10465390 16.0663 19.6453 27.9363 28.3788 1.09248 3.35828 92.0267
10465399 17.6477 21.7363 26.509 26.0991 0.99974 2.15629 91.9921
10465413 19.4613 23.9245 24.8946 23.839 0.924757 0.870792 92.1194
10465419 19.4613 23.9245 24.8946 23.839 0.924757 0.870792 92.1194
10465429 21.1254 25.9863 23.2999 21.7542 0.899208 -0.334876 92.1658
10465439 22.68 27.8827 21.7348 19.7278 0.868177 -1.4833 92.0253
10465451 22.68 27.8827 21.7348 19.7278 0.868177 -1.4833 92.0253
10465462 24.1348 29.3804 20.1992 17.7989 0.777283 -2.54344 91.5133
10465469 24.1348 29.3804 20.1992 17.7989 0.777283 -2.54344 91.5133
10465479 25.3505 30.635 18.7719 16.1529 0.732997 -3.47499 90.9103
10465489 26.3669 31.6756 17.6595 14.9059 0.704986 -4.21769 90.608
10465499 26.3669 31.6756 17.6595 14.9059 0.704986 -4.21769 90.608
10465511 27.3136 32.5801 16.5841 13.8113 0.690478 -4.90064 90.2891
10465519 28.1706 33.4262 15.8043 13.0308 0.686193 -5.43421 90.4318
10465536 28.1706 33.4262 15.8043 13.0308 0.686193 -5.43421 90.4318
10465539 28.898 34 14.9933 12.4216 0.700432 -5.89337 90.3129
10465551 28.898 34 14.9933 12.4216 0.700432 -5.89337 90.3129
10465561 29.3265 34 14.3798 11.8695 0.603741 -6.20878 89.5759
10465571 29.6553 34 14.0367 11.5554 0.521976 -6.39736 89.2475
10465590 29.8148 34 13.8287 11.2794 0.459915 -6.52924 88.9229
10465601 30.0639 34 13.8495 11.1366 0.3434 -6.58243 89.05
10465621 30.4127 34 13.9535 11.07 0.196737 -6.60625 89.4362
10465634 30.4127 34 13.9535 11.07 0.196737 -6.60625 89.4362
10465641 30.7216 34 14.0263 10.9367 0.0526458 -6.64973 89.6846
10465658 31.0404 34 13.9951 10.8415 -0.0539646 -6.7098 89.8771
10465661 31.0404 34 13.9951 10.8415 -0.0539646 -6.7098 89.8771
10465670 31.439 34 13.8287 10.7178 -0.152797 -6.81651 89.9856
10465685 31.5985 34 13.7144 10.6226 -0.191869 -6.88185 89.9355
10465690 31.5985 34 13.7144 10.6226 -0.191869 -6.88185 89.9355
10465701 31.738 34 13.5896 10.537 -0.219952 -6.94569 89.8645
10465712 31.738 34 13.5896 10.537 -0.219952 -6.94569 89.8645
10465722 31.8277 34 13.4752 10.3656 -0.261316 -7.02367 89.6685
10465738 31.9174 34 13.4856 10.28 -0.313054 -7.05013 89.6829
10465742 31.9174 34 13.4856 10.28 -0.313054 -7.05013 89.6829
10465752 32.0768 34 13.3505 10.2514 -0.327796 -7.10452 89.6786
10465764 32.2562 34 13.2673 10.1848 -0.373062 -7.15722 89.7082
10465772 32.2562 34 13.2673 10.1848 -0.373062 -7.15722 89.7082
10465790 32.5152 34 13.1945 10.0134 -0.472647 -7.24015 89.7232
10465792 32.5152 34 13.1945 10.0134 -0.472647 -7.24015 89.7232
10465802 32.6348 34 13.1633 9.93729 -0.518422 -7.2771 89.7354
10465815 32.8939 34 13.0593 9.8421 -0.58776 -7.34879 89.7953
10465832 32.8939 34 13.0593 9.8421 -0.58776 -7.34879 89.7953
10465839 33.0234 34 12.8826 9.65174 -0.629281 -7.45147 89.5577
10465842 33.2526 34 12.945 9.60414 -0.721994 -7.46704 89.8017
10465852 33.2526 34 12.945 9.60414 -0.721994 -7.46704 89.8017
10465869 33.4918 34 12.893 9.50896 -0.799778 -7.52386 89.8937
10465888 33.4918 34 12.893 9.50896 -0.799778 -7.52386 89.8937
10465890 33.7011 34 12.789 9.4804 -0.836286 -7.57443 89.9705
10465893 33.9302 34 12.685 9.33763 -0.91093 -7.65527 89.9529
10465903 33.9302 34 12.685 9.33763 -0.91093 -7.65527 89.9529
10465925 34 34 12.633 9.29003 -0.929405 -7.68606 89.9231
10465929 34 34 12.6434 9.23292 -0.948666 -7.69785 89.8764
10465933 34 34 12.6434 9.23292 -0.948666 -7.69785 89.8764
10465943 34 34 12.5914 9.2234 -0.937493 -7.71339 89.8148
10465963 34 34 12.5706 9.18533 -0.942922 -7.72829 89.756
10465978 34 34 12.5602 9.10918 -0.962161 -7.75023 89.6694
10465983 34 34 12.5602 9.10918 -0.962161 -7.75023 89.6694
10465993 34 34 12.6538 9.18533 -0.965197 -7.70725 89.8392
10466004 34 34 12.685 9.06159 -1.00935 -7.73066 89.7466
10466013 34 34 12.685 9.06159 -1.00935 -7.73066 89.7466
10466029 34 34 12.737 9.08063 -1.01772 -7.71269 89.8176
10466033 34 34 12.737 9.08063 -1.01772 -7.71269 89.8176
10466043 34 34 12.7162 9.10918 -1.0039 -7.71073 89.8254
10466053 34 34 12.8514 9.17581 -1.02068 -7.65982 90.0272
10466063 34 34 12.8514 9.17581 -1.02068 -7.65982 90.0272
10466078 34 34 12.9554 9.20437 -1.04009 -7.62651 90.1597
10466084 34 34 13.0593 9.32811 -1.03201 -7.56951 90.3874
10466105 34 34 13.2569 9.40425 -1.06237 -7.50137 90.6611
10466125 34 34 13.4232 9.45185 -1.09254 -7.4484 90.8751
10466135 34 33.9417 13.704 9.54703 -1.1556 -7.35103 91.1927
10466149 34 33.9417 13.704 9.54703 -1.1556 -7.35103 91.1927
10466156 33.9302 33.8152 13.9119 9.59462 -1.21431 -7.27199 91.252
10466166 33.6114 33.6693 14.255 9.74692 -1.21879 -7.11177 91.2827
10466179 33.6114 33.6693 14.255 9.74692 -1.21879 -7.11177 91.2827
10466185 33.3025 33.4943 14.6813 9.95633 -1.23947 -6.91628 91.4344
10466195 33.3025 33.4943 14.6813 9.95633 -1.23947 -6.91628 91.4344
10466212 32.9138 33.2803 14.9517 10.1943 -1.2018 -6.74099 91.3401
10466216 32.4754 33.0761 15.4092 10.5274 -1.16983 -6.49509 91.4881
10466238 31.9273 32.7941 15.8043 10.794 -1.13437 -6.26204 91.3196
10466247 31.2796 32.3467 16.4281 11.2223 -1.13358 -5.91211 91.2767
10466257 31.2796 32.3467 16.4281 11.2223 -1.13358 -5.91211 91.2767
