1325308 28.3001 33.3192 5.10309 4.68116 1.60957 -10.8892 71.4036
1325310 28.8183 32.9886 5.15464 4.61483 1.26804 -10.9053 71.5763
1325364 28.8581 32.9108 5.25773 4.57692 1.17725 -10.8795 71.6036
1325366 28.9279 32.8913 5.20619 4.52954 1.14833 -10.9182 71.5549
1325431 29.2368 32.8232 5.25773 4.50111 0.985047 -10.9236 71.8189
1325432 29.3863 32.7065 5.41237 4.51059 0.839558 -10.8663 72.0158
1325491 29.6055 32.5606 5.51546 4.55797 0.691324 -10.8167 72.2396
1325493 29.7351 32.4731 5.62887 4.53902 0.569323 -10.7854 72.3761
1325555 29.9144 32.23 6.25773 4.8612 0.313601 -10.447 73.2633
1325557 29.5756 31.7923 6.39175 4.88963 0.245908 -10.3414 72.6493
1325619 28.5393 30.7225 6.50515 4.8612 0.190899 -10.172 70.6282
1325621 27.9613 30.0709 6.54639 4.8233 0.139236 -10.0853 69.4019
1325683 25.1911 27.6979 6.59794 4.84225 0.29192 -9.66486 64.3292
1325685 25.1911 27.6979 6.59794 4.84225 0.29192 -9.66486 64.3292
1325686 19.5909 24.333 21.784 12.5936 -1.42024 -1.82873 78.3015
1325747 19.5909 24.333 21.784 12.5936 -1.42024 -1.82873 78.3015
1325748 18.993 24.2941 27.769 19.9129 -0.702161 0.72467 90.9689
1325810 13.1451 17.0778 26.9815 24.8814 0.558123 3.95438 82.0858
1325812 11.828 15.0724 26.2334 24.2092 0.394404 4.56581 77.3429
1325874 8.94783 11.263 25.2293 24.4332 0.543511 6.32253 69.8733
1325876 8.94783 11.263 25.2293 24.4332 0.543511 6.32253 69.8733
1325938 7.21798 8.72948 27.8477 29.6842 1.13911 8.48901 73.4794
1325939 7.21798 8.72948 27.8477 29.6842 1.13911 8.48901 73.4794
1326001 6.9282 8.33477 28.8911 31.9736 1.47419 8.98525 76.1278
1326003 6.83161 8.32559 28.6647 31.8275 1.53892 8.98917 75.6495
1326066 6.47159 7.68305 28.3399 31.467 1.46651 9.25865 73.9616
1326067 6.47159 7.68305 28.3399 31.467 1.46651 9.25865 73.9616
1326129 6.19938 7.27916 28.5368 32.0029 1.53539 9.53707 74.0182
1326131 6.09401 7.16901 28.7238 32.1295 1.51138 9.63154 74.1163
1326133 5.77789 6.69168 29.1963 32.8115 1.52025 9.97717 74.4773
1326193 5.75155 6.54482 29.2652 32.9479 1.5018 10.0491 74.5094
1326194 5.75155 6.54482 29.2652 32.9479 1.5018 10.0491 74.5094
1326257 5.25103 5.90227 29.6491 33.7077 1.58028 10.5093 74.5101
1326258 5.25103 5.90227 29.6491 33.7077 1.58028 10.5093 74.5101
1326320 4.82955 5.45248 29.9936 34 1.55815 10.8471 74.2757
1326322 4.71539 5.23218 30.1019 34 1.49052 10.9699 74.0495
1326384 4.33781 4.90173 30.6039 34 1.34067 11.2463 73.8435
1326386 4.33781 4.90173 30.6039 34 1.34067 11.2463 73.8435
1326387 3.98657 4.54374 30.6532 34 1.33364 11.5032 73.1835
1326448 3.88998 4.47948 30.5941 34 1.36897 11.5588 72.9636
1326449 3.88998 4.47948 30.5941 34 1.36897 11.5588 72.9636
1326512 3.56508 4.46112 30.6532 34 1.45946 11.687 72.6794
1326513 3.53874 4.44276 30.5843 34 1.48823 11.7003 72.5658
1326575 3.48605 4.5162 30.7024 34 1.48813 11.698 72.7046
1326576 3.5563 4.66307 30.6236 34 1.53863 11.6149 72.843
1326579 3.60899 4.7365 30.6433 34 1.53592 11.5698 72.9888
1326639 3.64411 4.76404 30.7122 34 1.50701 11.5503 73.1204
1326643 3.64411 4.76404 30.7122 34 1.50701 11.5503 73.1204
1326703 3.67045 4.71814 30.7811 34 1.45776 11.5606 73.1697
1326704 3.62655 4.7824 30.6827 34 1.52999 11.5486 73.0916
1326766 3.56508 4.86501 30.4957 34 1.64697 11.5321 72.9258
1326768 3.59143 4.90173 30.2988 34 1.72118 11.4997 72.7919
1326830 3.77583 5.17711 29.5507 34 2.01735 11.2955 72.5036
1326832 3.77583 5.17711 29.5507 34 2.01735 11.2955 72.5036
1326833 5.6374 7.63715 26.2924 32.6069 2.87992 9.48226 72.1738
1326897 5.6374 7.63715 26.2924 32.6069 2.87992 9.48226 72.1738
1326898 6.87552 9.22516 24.9241 30.8436 2.87646 8.2791 71.8684
1326959 11.8895 16.3575 19.7661 23.9656 3.01045 3.22695 71.9786
1326960 13.47 18.6144 18.0336 21.7931 3.09546 1.61496 71.9112
1327022 17.2989 24.1773 13.5464 16.1282 3.324 -2.48803 71.1509
1327024 17.2989 24.1773 13.5464 16.1282 3.324 -2.48803 71.1509
1327025 22.4408 30.0904 8.72165 10.3952 3.25311 -6.99551 71.648
1327085 22.4408 30.0904 8.72165 10.3952 3.25311 -6.99551 71.648
1327087 23.3974 31.2963 7.90722 9.37179 3.25244 -7.79769 71.9728
1327149 25.211 33.4359 6.25773 7.23021 3.18757 -9.39053 72.1349
1327150 25.6096 33.8833 5.94845 6.79431 3.15618 -9.70784 72.2357
1327213 26.0281 34 5.36082 5.90357 2.9858 -10.2599 71.2925
1327214 26.0281 34 5.36082 5.90357 2.9858 -10.2599 71.2925
1327276 26.0979 34 5.04124 5.534 2.96961 -10.5109 70.6731
1327278 26.078 34 4.97938 5.46767 2.98133 -10.556 70.525
1327279 25.7093 34 4.8866 5.534 3.18628 -10.5423 70.1299
1327341 25.6495 34 4.8866 5.70457 3.26324 -10.4765 70.2406
1327342 25.5299 34 4.80412 5.71405 3.34771 -10.4953 70.0481
1327404 25.211 34 4.8866 5.7709 3.46125 -10.4239 69.8685
1327405 25.1114 34 4.84536 5.76143 3.51583 -10.4359 69.7182
1327468 25.1413 34 4.83505 5.80881 3.52242 -10.4243 69.7851
1327469 25.0815 34 4.79381 5.82776 3.56959 -10.4285 69.7031
1327532 24.9619 34 4.85567 5.733 3.56411 -10.4327 69.5506
1327533 24.932 34 4.83505 5.76143 3.59362 -10.4279 69.5285
1327534 24.8124 34 4.93814 5.82776 3.62081 -10.3581 69.5783
1327595 24.9519 34 4.95876 5.72352 3.52299 -10.3978 69.6342
1327597 24.9021 34 5.07217 5.74248 3.50282 -10.3463 69.7168
1327659 24.932 34 5.08247 5.7709 3.49515 -10.3342 69.7854
1327661 25.0615 34 5.13402 5.78986 3.42725 -10.3174 69.9854
1327723 25.3904 34 5.47423 5.92252 3.19899 -10.17 70.7871
1327724 25.3605 34 5.60825 5.96042 3.16924 -10.1069 70.9292
1327727 25.2309 33.504 6.28866 6.39632 2.9336 -9.67166 71.4199
1327790 25.1612 33.115 6.71134 6.74693 2.78436 -9.37163 71.7345
1327791 25.1612 33.115 6.71134 6.74693 2.78436 -9.37163 71.7345
1327850 24.3939 31.1018 8.72165 8.84114 2.33628 -7.7882 73.0585
1327852 23.796 29.8862 9.7732 10.272 2.23423 -6.84351 73.7274
1327914 20.1688 24.615 14.2577 16.2988 2.15264 -2.83261 75.3403
1327916 18.4848 22.4462 15.9897 18.3542 2.10094 -1.31262 75.2748
1327978 13.6896 15.9995 20.6323 23.9851 1.90518 3.01354 74.3064
1327980 12.3636 14.2095 21.8726 25.3977 1.81836 4.20427 73.8435
1327980 10.0981 10.9784 24.0677 27.8917 1.61023 6.34267 73.036
1328042 10.0981 10.9784 24.0677 27.8917 1.61023 6.34267 73.036
1328043 9.66787 10.4001 24.6584 28.5054 1.56329 6.77899 73.2318
1328105 8.3595 9.02322 26.4893 30.2688 1.49823 7.96633 74.1408
1328107 7.90289 8.66523 27.011 30.6877 1.49428 8.30733 74.2668
1328169 7.27944 8.30724 27.4835 30.5805 1.40013 8.65111 73.6507
1328171 7.27066 8.30724 27.5819 30.5805 1.36803 8.6624 73.7403
1328233 7.01601 7.88499 27.9855 31.2819 1.40404 8.97278 74.1685
1328235 6.86674 7.81155 28.0643 31.506 1.47699 9.06926 74.2486
1328237 6.73502 7.49028 28.1824 31.9249 1.51273 9.25879 74.3326
1328297 6.58574 7.40767 28.3694 32.2172 1.56533 9.37112 74.58
1328298 6.38378 7.25162 28.5663 32.4413 1.5885 9.51975 74.643
1328360 5.77789 6.66415 28.8518 33.435 1.82977 10.0051 74.7288
1328362 5.62862 6.41631 28.9896 33.6883 1.83558 10.1642 74.7227
1328424 5.23347 5.96652 29.088 34 1.89971 10.4771 74.288
1328426 5.23347 5.96652 29.088 34 1.89971 10.4771 74.288
1328489 4.96126 5.81048 29.0191 34 1.97521 10.6207 73.7908
1328490 4.83833 5.72786 28.9896 34 2.00527 10.6905 73.5558
1328552 4.64514 5.49838 29.0782 34 1.97177 10.844 73.2217
1328553 4.64514 5.49838 29.0782 34 1.97177 10.844 73.2217
1328616 4.47831 5.38823 28.9305 34 2.05345 10.934 72.7971
1328618 4.47831 5.38823 28.9305 34 2.05345 10.934 72.7971
1328679 4.35537 5.34233 29.1077 34 2.01883 11.004 72.8054
1328683 4.34659 5.35151 29.1274 34 2.01768 11.0049 72.8255
1328743 4.45196 5.61771 29.0585 34 2.08786 10.869 73.1282
1328745 4.45196 5.61771 29.0585 34 2.08786 10.869 73.1282
1328807 4.78564 5.85637 28.773 34 2.14456 10.6513 73.415
1328808 4.99638 6.09503 28.5171 34 2.23533 10.4796 73.6085
1328870 6.66477 7.64633 26.883 32.2367 2.15686 9.15323 73.4308
1328872 7.56921 8.63769 25.9479 30.8241 2.03643 8.3377 72.9789
1328874 10.3879 11.8045 22.9653 27.1415 1.93394 5.79142 72.2993
1328934 11.4153 12.8693 21.6856 25.5731 1.86654 4.81681 71.5433
1328936 12.6622 14.4941 20.1893 23.5857 1.8427 3.51441 70.9313
1328998 15.8585 18.3907 16.8969 19.3771 1.77687 0.430664 70.5232
1329000 17.2691 20.2872 15.2887 17.3799 1.81895 -1.044 70.2248
1329062 21.5938 25.3347 11.4227 12.641 1.7464 -4.83111 70.9922
1329063 22.8494 26.8518 10.3402 11.3333 1.74978 -5.89025 71.3747
1329125 26.068 30.6058 7.68041 8.0262 1.68679 -8.48998 72.3804
1329127 26.7157 31.2574 7.15464 7.21126 1.58917 -9.04226 72.339
1329128 27.6524 32.6871 6.14433 5.99833 1.68616 -9.97421 72.4821
1329189 27.6524 32.6871 6.14433 5.99833 1.68616 -9.97421 72.4821
1329190 27.8716 32.9302 5.94845 5.76143 1.67957 -10.1553 72.5117
1329253 27.7122 33.4748 5.45361 5.36343 1.96949 -10.4932 72.0041
1329255 27.6923 33.7763 5.35052 5.27815 2.08457 -10.5774 72.0972
1329316 27.8118 34 4.75258 4.8233 2.19186 -10.9758 71.3877
1329318 27.8318 34 4.37113 4.65273 2.27569 -11.1793 70.8556
1329380 27.6424 34 3.71134 4.02731 2.40467 -11.6538 69.3811
1329382 27.6424 34 3.71134 4.02731 2.40467 -11.6538 69.3811
1329445 27.0545 34 3.17526 3.64827 2.73229 -11.9842 67.878
1329446 26.905 34 3.18557 3.64827 2.78926 -11.9734 67.7389
1329508 26.1577 34 3.24742 3.72408 3.09812 -11.8844 67.1292
1329510 26.1577 34 3.24742 3.72408 3.09812 -11.8844 67.1292
1329572 25.6893 34 3.61856 4.1505 3.27706 -11.545 67.4584
1329573 25.5897 34 3.63918 4.34002 3.37107 -11.4573 67.5689
1329574 25.5299 34 3.75258 4.52954 3.40908 -11.336 67.812
1329635 25.7093 34 3.83505 4.65273 3.33901 -11.2662 68.197
1329637 25.6993 34 4 4.7854 3.31684 -11.1515 68.4847
1329700 25.5598 34 4.17526 5.23077 3.44219 -10.9084 68.9658
1329700 25.3804 34 4.25773 5.24025 3.48516 -10.8632 68.8784
1329763 24.5334 34 4.43299 5.56243 3.86554 -10.6243 68.5288
1329764 24.5334 34 4.43299 5.56243 3.86554 -10.6243 68.5288
1329767 23.3376 34 4.65979 6.06466 4.43243 -10.2729 68.0621
1329827 23.1981 34 5 6.50056 4.47695 -9.97783 68.6987
1329828 22.949 34 5.38144 6.89855 4.5386 -9.67853 69.229
1329890 22.5504 34 8.07216 9.43813 4.32603 -7.90705 74.0607
1329892 22.5504 34 8.07216 9.43813 4.32603 -7.90705 74.0607
1329954 20.4179 32.8719 11.7423 12.6789 4.30781 -5.5723 77.711
1329955 19.0129 31.0143 12.3608 13.5223 4.33501 -4.77091 75.9103
1330018 15.1823 24.615 15.3711 18.0132 4.1249 -1.31447 73.1816
1330019 14.0408 22.2809 16.9897 20.2539 3.90954 0.187969 73.5653
1330021 11.1519 16.4033 21.2623 25.9043 3.31011 3.93688 74.7218
1330084 10.5372 15.2192 22.099 26.9954 3.19917 4.6769 74.8508
1330085 10.5372 15.2192 22.099 26.9954 3.19917 4.6769 74.8508
1330145 9.0093 11.8045 23.6937 29.4504 2.89083 6.55716 73.958
1330146 8.63171 11.0335 24.0677 29.957 2.81281 6.99408 73.69
1330209 7.93802 9.74838 25.1604 30.863 2.54817 7.80161 73.7098
1330210 7.49019 8.9865 25.8987 31.6327 2.44241 8.32099 74.008
1330276 6.26085 6.97624 27.9166 33.5129 2.11328 9.68152 74.6666
1330279 5.87448 6.43467 28.6451 33.9513 1.95794 10.0701 74.9055
1330402 4.68905 4.88337 30.1019 34 1.38868 11.1021 73.6743
1330404 4.2061 4.2959 31.0567 34 1.03083 11.5326 73.5587
1330464 3.88998 3.94708 32.1691 34 0.637794 11.8231 74.0061
1330468 3.81973 3.80022 32.3955 34 0.53536 11.9115 74.0154
1330528 3.72314 3.80022 32.9074 34 0.39289 11.9676 74.4307
1330529 3.67924 3.78186 33.1239 34 0.328052 11.999 74.585
1330592 3.67045 3.73596 33.557 33.9415 0.150198 12.0337 74.905
1330593 3.57386 3.65335 33.6948 33.8149 0.0667483 12.0989 74.737
1330656 3.54752 3.62581 33.8228 33.2693 -0.159962 12.1023 74.2655
1330657 3.57386 3.69924 33.8917 33.1427 -0.209817 12.0636 74.3075
1330719 3.91632 3.78186 34 32.6848 -0.487226 11.8952 74.383
1330721 3.97779 3.82775 34 32.6458 -0.505091 11.8548 74.4514
1330783 3.98657 3.8094 34 32.6361 -0.517611 11.8578 74.4321
1330785 3.95145 3.80022 34 32.6556 -0.502519 11.8746 74.4072
1330847 3.98657 3.84611 34 32.1295 -0.679721 11.823 73.9622
1330848 3.98657 3.84611 34 32.1295 -0.679721 11.823 73.9622
1330911 4.18853 4.03888 34 32.4023 -0.585346 11.6927 74.6297
1330911 4.18853 4.03888 34 32.4023 -0.585346 11.6927 74.6297
1330913 4.47831 4.45194 32.8877 32.1295 -0.26523 11.3771 73.9474
1330974 4.70661 4.82829 32.1297 31.6619 -0.11801 11.099 73.3265
1330975 5.15444 5.46166 31.2733 31.0871 0.041458 10.6358 72.9765
1331038 7.47262 8.74784 27.7887 28.408 0.654057 8.28041 72.4171
1331039 7.47262 8.74784 27.7887 28.408 0.654057 8.28041 72.4171
1331102 11.3363 13.8607 23.9496 23.8 0.813884 4.6375 72.9466
1331103 12.5656 15.5221 21.4296 22.0464 1.24829 3.22544 71.5638
1331106 16.5346 20.5984 16.6392 17.1948 1.62733 -0.697293 70.967
1331165 18.0264 22.3295 15.0928 15.7302 1.73526 -2.00893 71.1789
1331167 18.0264 22.3295 15.0928 15.7302 1.73526 -2.00893 71.1789
1331229 22.6102 28.1939 9.94845 11.2007 2.37514 -6.18214 71.9533
1331230 22.6102 28.1939 9.94845 11.2007 2.37514 -6.18214 71.9533
1331293 24.3341 30.6642 7.73196 9.14437 2.69305 -7.95593 71.8746
1331294 24.4238 30.9949 7.40206 8.68952 2.74734 -8.24925 71.5102
1331300 23.8558 30.8781 6.79381 8.4621 3.10425 -8.4608 69.9899
1331357 23.6864 30.8198 6.90722 8.68004 3.17656 -8.32865 70.0935
1331359 23.6864 30.8198 6.90722 8.68004 3.17656 -8.32865 70.0935
1331361 23.6067 31.3741 7.13402 9.54236 3.55017 -8.01827 71.6572
1331421 23.4871 31.5492 7.20619 9.77926 3.69165 -7.92487 72.0218
1331422 23.4871 31.5492 7.20619 9.77926 3.69165 -7.92487 72.0218
1331484 23.3077 32.3272 7.18557 10.073 4.08368 -7.89707 72.8936
1331485 23.4174 32.7746 7.13402 9.82664 4.11806 -8.0444 73.1526
1331548 23.238 34 6.38144 8.86957 4.56971 -8.68828 72.489
1331549 23.0287 34 6.12371 8.63266 4.69465 -8.8331 71.7851
1331551 22.7198 34 5.56701 7.90301 4.84978 -9.24275 70.1898
1331611 22.7198 34 5.56701 7.90301 4.84978 -9.24275 70.1898
1331615 22.5703 34 5.43299 7.8272 4.94908 -9.30327 69.8305
1331675 22.3511 34 5.28866 7.65663 5.05685 -9.39569 69.2964
1331677 22.2913 34 5.26804 7.63768 5.08631 -9.40479 69.197
1331741 21.8628 34 5.51546 8.2631 5.34337 -9.0645 69.6414
1331742 21.7632 34 5.58763 8.51895 5.42729 -8.94305 69.8698
1331803 21.5041 34 6.19588 9.35284 5.50747 -8.435 71.0528
1331804 21.3347 34 6.28866 9.61817 5.61288 -8.30159 71.2415
1331866 20.6372 34 6.97938 10.5279 5.86023 -7.71991 72.1444
1331868 20.2984 33.8541 7.23711 10.869 5.94658 -7.48278 72.2586
1331931 18.714 30.9268 8.89691 13.437 5.81903 -5.69092 71.9746
1331932 17.9566 29.4193 9.93814 15.2754 5.78594 -4.57968 72.5895
1331994 15.0243 23.0103 14.8866 22.4166 5.14883 -0.145616 75.3378
1331995 15.0243 23.0103 14.8866 22.4166 5.14883 -0.145616 75.3378
1332058 11.9773 17.0875 18.6144 26.8395 4.47385 3.29899 74.5187
1332060 11.9773 17.0875 18.6144 26.8395 4.47385 3.29899 74.5187
1332122 9.10589 12.392 21.5478 30.5415 4.17188 6.23575 73.5872
1332123 8.45609 11.4282 22.3648 31.545 4.11696 6.91631 73.7941
1332187 6.79649 8.86717 24.5895 34 3.86557 8.67152 74.2531
1332188 6.79649 8.86717 24.5895 34 3.86557 8.67152 74.2531
1332252 5.453 7.0405 26.1152 34 3.26141 9.83802 72.6087
1332254 5.453 7.0405 26.1152 34 3.26141 9.83802 72.6087
1332255 5.04907 6.5081 26.8043 34 2.99011 10.2086 72.3615
1332313 4.89101 6.37959 27.0898 34 2.90174 10.3273 72.3604
1332315 4.83833 6.37041 27.2472 34 2.85858 10.3591 72.456
1332316 4.82955 6.2878 27.6213 34 2.69353 10.4148 72.7386
1332376 4.70661 6.26944 27.9068 34 2.62615 10.482 72.8828
1332378 4.70661 6.26944 27.9068 34 2.62615 10.482 72.8828
1332441 4.51343 5.93898 28.3891 34 2.41498 10.6951 72.8415
1332442 4.51343 5.93898 28.3891 34 2.41498 10.6951 72.8415
1332504 4.46952 5.76458 28.6352 34 2.28486 10.7867 72.8693
1332506 4.60124 5.8013 28.7238 34 2.21407 10.7324 73.1263
1332568 4.60124 5.74622 29.4227 34 1.93923 10.792 73.7702
1332570 4.64514 5.7095 29.6786 34 1.81868 10.8041 74.0333
1332632 4.67149 5.4433 30.4563 34 1.44679 10.9308 74.5711
1332634 4.67149 5.4433 30.4563 34 1.44679 10.9308 74.5711
1332696 4.28512 5.03024 31.0272 34 1.25026 11.2409 74.3426
1332697 4.25878 4.92009 31.106 34 1.19652 11.2931 74.2848
1332759 4.17975 4.83747 31.1453 34 1.18401 11.3524 74.1626
1332761 4.22366 4.82829 31.1158 34 1.17599 11.3386 74.1678
1332823 4.25 4.81911 31.0764 34 1.17764 11.3305 74.1455
1332824 4.27634 4.85583 30.9977 34 1.20795 11.3043 74.1299
1332889 4.42562 4.99352 30.663 34 1.31776 11.1857 74.0821
1332890 4.60124 5.16793 30.3972 33.9903 1.40234 11.0479 74.1566
1332951 5.69886 6.58153 28.2119 31.886 1.57392 9.90991 72.3783
1332952 6.89308 7.85745 26.8929 30.4636 1.57235 8.86307 72.107
1333014 10.7567 13.2365 22.8471 25.0665 1.63375 4.98987 71.9068
1333017 12.03 15.2376 21.3312 23.1668 1.75682 3.6014 71.7655
1333018 15.7443 20.2969 16.8969 18.0911 2.02269 -0.222415 71.0293
1333078 15.7443 20.2969 16.8969 18.0911 2.02269 -0.222415 71.0293
1333080 16.7541 21.8141 15.5464 16.6683 2.1834 -1.3464 70.7829
1333142 20.2087 26.3364 12.0103 12.6884 2.38821 -4.59963 71.2438
1333146 21.3048 27.6201 10.9381 11.5987 2.44041 -5.53894 71.4617
1333206 24.2943 30.9657 8.26804 8.9359 2.53204 -7.87758 72.4639
1333206 24.2943 30.9657 8.26804 8.9359 2.53204 -7.87758 72.4639
1333269 25.9883 33.4651 6.07217 6.63322 2.78479 -9.71774 72.1588
1333271 25.9883 33.4651 6.07217 6.63322 2.78479 -9.71774 72.1588
1333333 26.5164 34 5.18557 5.68562 2.79588 -10.4315 71.3876
1333334 26.4367 34 5.06186 5.4961 2.81625 -10.5386 70.9947
1333398 26.1278 33.9417 4.87629 5.34448 2.94566 -10.6378 70.2902
1333400 26.1278 33.9417 4.87629 5.34448 2.94566 -10.6378 70.2902
1333461 26.3669 34 5.05155 5.57191 2.87131 -10.5106 70.9904
1333462 26.3669 34 5.05155 5.57191 2.87131 -10.5106 70.9904
1333524 26.4367 34 5.28866 5.87514 2.84557 -10.3225 71.6005
1333526 26.4367 34 5.34021 5.89409 2.83141 -10.2976 71.671
1333588 26.1876 34 5.25773 5.85619 2.94906 -10.3238 71.3015
1333591 26.1876 34 5.25773 5.85619 2.94906 -10.3238 71.3015
1333652 25.4801 34 5.29897 5.84671 3.20976 -10.2656 70.6257
1333653 25.4801 34 5.29897 5.84671 3.20976 -10.2656 70.6257
1333716 25.1811 34 5.52577 6.10256 3.31724 -10.0734 70.8095
1333717 25.1213 33.9903 5.75258 6.30156 3.30845 -9.91856 71.1657
1333720 24.6032 33.4359 6.87629 7.27759 3.1977 -9.11831 72.193
1333779 24.4138 32.9788 7.52577 7.85563 3.05564 -8.65925 72.7741
1333781 24.4138 32.9788 7.52577 7.85563 3.05564 -8.65925 72.7741
1333844 23.1184 30.8003 10.8144 10.67 2.49907 -6.45217 75.4032
1333845 22.2913 29.6138 11.9794 12.063 2.43791 -5.50303 75.9475
1333907 18.8136 24.722 15.0412 15.7871 2.23704 -2.56319 74.3639
1333908 17.5381 22.8741 16.1546 17.2338 2.17316 -1.42759 73.8007
1333971 14.0145 16.9908 19.9728 22.1438 1.75987 2.27934 73.1219
1333971 12.8993 15.1733 21.4001 23.839 1.60715 3.51236 73.3117
1333973 10.3528 11.1344 24.6485 27.3266 1.1774 6.22521 73.4624
1334034 9.77324 10.2441 25.2391 27.9794 1.09613 6.8002 73.2358
1334040 9.35176 9.61987 25.7313 28.3885 1.00057 7.2132 73.0915
1334098 8.51756 8.79374 26.696 29.0607 0.90358 7.89239 73.068
1334100 8.18388 8.50918 27.0602 29.4017 0.911349 8.15437 73.155
1334161 7.71849 8.59179 27.7197 29.4115 0.873151 8.33744 73.4415
1334163 7.74483 8.92225 27.6804 29.2751 0.941327 8.20843 73.6225
1334225 8.29804 9.75756 27.3949 28.4957 0.865605 7.67484 73.9462
1334227 8.29804 9.75756 27.3949 28.4957 0.865605 7.67484 73.9462
1334289 7.70971 8.50918 28.9699 29.4212 0.419104 8.47853 74.61
1334294 7.24432 7.92171 29.6393 29.7427 0.261852 8.89681 74.548
1334354 6.01498 6.39795 31.4111 30.6487 -0.127375 9.99968 74.4728
1334355 5.61983 5.86555 31.8836 30.941 -0.234465 10.3632 74.31
1334416 4.93492 4.87419 33.0452 31.3404 -0.594884 11.0338 74.1947
1334418 4.82955 4.81911 33.2519 31.4865 -0.596803 11.1087 74.3871
1334420 4.75052 4.64471 33.3503 31.584 -0.629689 11.208 74.3295
1334480 4.69783 4.59881 33.3799 31.5937 -0.634564 11.2448 74.2702
1334481 4.75052 4.67225 33.3503 31.4865 -0.653806 11.1933 74.2596
1334544 4.95248 4.75486 33.5373 31.5255 -0.738752 11.1051 74.7702
1334546 4.95248 4.75486 33.5373 31.5255 -0.738752 11.1051 74.7702
1334608 4.83833 4.5621 33.872 31.4865 -0.890103 11.2277 74.759
1334609 4.83833 4.5621 33.872 31.4865 -0.890103 11.2277 74.759
1334672 4.68027 4.34179 34 31.3209 -1.01474 11.3593 74.343
1334673 4.70661 4.35097 34 31.3307 -1.01662 11.3472 74.3882
1334674 4.62758 4.31425 34 31.2625 -1.02786 11.3849 74.2043
1334735 4.67149 4.27754 34 31.0481 -1.13038 11.3719 73.9972
1334737 4.67149 4.27754 34 31.0481 -1.13038 11.3719 73.9972
1334800 4.96126 4.43359 34 30.337 -1.42093 11.1774 73.7318
1334801 4.96126 4.43359 34 30.337 -1.42093 11.1774 73.7318
1334865 5.44421 4.68143 33.9311 29.6453 -1.71251 10.8784 73.702
1334866 5.88326 4.94762 33.3602 29.012 -1.80449 10.5613 73.2031
1334927 8.78099 7.7473 29.8853 25.6607 -1.82391 8.12032 72.0744
1334928 10.2299 9.34449 28.3497 24.2968 -1.70942 6.86897 72.2209
1334929 14.6204 14.2279 23.4476 19.7181 -1.43099 2.98222 72.0139
1334990 16.0956 15.9995 21.5576 18.1106 -1.2343 1.58295 71.7632
1334992 16.0956 15.9995 21.5576 18.1106 -1.2343 1.58295 71.7632
1335054 20.1788 20.9193 16.2371 13.5128 -0.699998 -2.40265 70.8481
1335055 21.3646 22.5532 14.6804 12.3283 -0.410104 -3.57604 70.9265
1335120 24.3042 26.8421 10.8351 9.59922 0.454751 -6.43583 71.5806
1335121 24.8722 27.8633 9.95876 9.08751 0.738281 -7.03993 71.7818
1335182 26.0182 30.5864 7.95876 7.83668 1.53527 -8.45493 72.4
1335185 26.347 31.4422 7.36082 7.41026 1.77254 -8.89291 72.5603
1335248 26.915 33.2609 6.10309 6.29208 2.25119 -9.87598 72.5711
1335249 26.8652 33.5818 5.73196 5.9699 2.4098 -10.1343 72.1488
1335315 26.3869 34 4.76289 5.32553 2.90023 -10.7056 70.4753
1335317 26.1079 34 4.27835 4.97492 3.09565 -10.9978 69.3611
1335373 25.8886 34 4.12371 4.93701 3.23595 -11.0577 68.9493
1335374 25.8886 34 4.12371 4.93701 3.23595 -11.0577 68.9493
1335436 25.6295 34 3.84536 4.71906 3.38892 -11.2323 68.194
1335441 25.6295 34 3.84536 4.71906 3.38892 -11.2323 68.194
1335500 25.211 34 3.25773 4.36845 3.70291 -11.577 66.8372
1335502 25.211 34 3.25773 4.36845 3.70291 -11.577 66.8372
1335564 24.942 34 3.16495 4.26421 3.82595 -11.642 66.3711
1335566 24.7925 34 3.09278 4.35897 3.95268 -11.6253 66.2443
1335628 24.5234 34 3.15464 4.44426 4.07055 -11.5523 66.1223
1335629 24.5234 34 3.15464 4.44426 4.07055 -11.5523 66.1223
1335630 24.1249 34 3.21649 4.53902 4.24924 -11.4684 65.8804
1335691 24.1747 34 3.23711 4.5864 4.23293 -11.4438 65.9982
1335693 24.2644 34 3.26804 4.66221 4.20344 -11.4059 66.1946
1335756 24.4338 34 3.52577 4.76644 4.04899 -11.2718 66.726
1335759 24.5135 34 3.65979 4.76644 3.95623 -11.2237 66.9397
1335819 24.7925 34 3.7732 4.90858 3.83216 -11.14 67.4743
1335820 24.7925 34 3.7732 4.90858 3.83216 -11.14 67.4743
1335883 24.7726 34 3.91753 5.15496 3.85616 -10.9883 67.8451
1335884 24.6131 34 4.03093 5.20234 3.89051 -10.9173 67.8464
1335948 23.0985 34 5.42268 6.51951 4.34467 -9.8108 69.0407
1335949 23.0586 33.2511 6.40206 7.41026 3.99329 -9.09074 70.1221
1336010 22.7298 30.917 11.9588 12.1767 2.70152 -5.69115 77.7823
1336012 21.8529 29.3804 13.5567 13.6076 2.41667 -4.60518 78.3976
1336017 18.8535 25.1013 16.3299 15.8439 1.89214 -2.32125 76.1285
1336074 17.1196 22.7185 17.8072 17.3117 1.70215 -0.944379 74.957
1336076 15.6829 20.2483 19.4708 18.9484 1.35947 0.501958 74.3503
1336077 13.0661 15.8985 22.4239 22.1828 0.880548 3.18917 73.5713
1336141 11.8895 13.9158 24.0185 23.7221 0.588012 4.47382 73.5458
1336142 11.8895 13.9158 24.0185 23.7221 0.588012 4.47382 73.5458
1336202 9.08833 9.53726 28.0741 27.2585 -0.123966 7.44481 73.9582
1336203 9.08833 9.53726 28.0741 27.2585 -0.123966 7.44481 73.9582
1336265 8.13998 7.9676 29.4916 28.3203 -0.454426 8.46279 73.9195
1336266 7.83264 7.55454 29.7869 28.4762 -0.539307 8.73234 73.6503
1336332 7.297 6.81102 30.2988 29.2946 -0.505489 9.25736 73.7014
1336333 7.14773 6.62743 30.6532 29.5771 -0.539276 9.41588 74.0054
1336393 6.55062 5.87473 31.6671 30.4149 -0.646929 9.99699 74.5073
1336394 6.28719 5.63607 31.8639 30.5415 -0.663775 10.1876 74.3287
1336456 5.94473 5.41577 32.3364 30.6487 -0.745398 10.4158 74.3456
1336458 5.87448 5.33315 32.5235 30.7656 -0.771566 10.4867 74.4967
1336521 5.46178 5.01188 33.0452 30.8825 -0.877854 10.7768 74.4013
1336524 5.43543 4.93845 33.2913 30.9507 -0.950713 10.8291 74.6159
1336525 5.2686 4.70896 33.5866 31.0287 -1.04485 10.9872 74.5928
1336585 5.2686 4.70896 33.5866 31.0287 -1.04485 10.9872 74.5928
1336586 5.25981 4.71814 33.5964 30.9507 -1.06923 10.9834 74.5251
1336648 4.9876 4.65389 33.685 31.243 -0.930586 11.1211 74.5695
1336649 4.9876 4.65389 33.685 31.243 -0.930586 11.1211 74.5695
1336711 5.1281 4.75486 33.4783 31.1553 -0.904571 11.0212 74.5165
1336714 5.18079 4.87419 33.4192 31.1553 -0.861093 10.958 74.6295
1336776 5.28616 5.09449 32.9959 30.8143 -0.799721 10.8025 74.1909
1336776 5.28616 5.09449 32.9959 30.8143 -0.799721 10.8025 74.1909
1336778 6.56818 6.82019 30.8107 28.9049 -0.565553 9.50575 73.1039
1336839 6.56818 6.82019 30.8107 28.9049 -0.565553 9.50575 73.1039
1336840 7.34091 7.65551 29.846 28.0378 -0.512335 8.82696 72.8802
1336903 10.0806 11.4833 26.2038 24.6183 -0.0631332 6.06298 72.386
1336905 11.0289 13.2365 24.5895 22.9232 0.188538 4.85815 71.7781
1336967 14.1023 19.0521 19.6676 17.8086 1.09399 0.917854 70.6306
1336969 14.1023 19.0521 19.6676 17.8086 1.09399 0.917854 70.6306
1337032 18.7937 27.2311 12.732 12.1862 2.78099 -4.46274 70.9429
1337032 18.7937 27.2311 12.732 12.1862 2.78099 -4.46274 70.9429
1337033 22.4308 32.123 8.47423 8.91695 3.52175 -7.74814 71.945
1337095 23.5369 33.4846 7.42268 7.97882 3.62583 -8.62019 72.423
1337096 24.4736 34 6.45361 7.21126 3.56399 -9.31724 72.1385
1337158 26.2673 34 4.80412 5.66667 3.0377 -10.5593 70.7381
1337161 26.2673 34 4.80412 5.66667 3.0377 -10.5593 70.7381
1337222 26.9549 34 3.69072 4.35897 2.79452 -11.5004 69.0046
1337223 26.9549 34 3.69072 4.35897 2.79452 -11.5004 69.0046
1337287 27.0246 34 3.27835 3.85674 2.77061 -11.8595 68.1597
1337288 27.1143 34 3.1134 3.7146 2.75487 -11.9851 67.9423
1337349 27.7819 34 2.75258 3.22185 2.46742 -12.3547 67.7564
1337350 27.7819 34 2.75258 3.22185 2.46742 -12.3547 67.7564
1337413 28.9777 34 2.54639 2.99443 1.99592 -12.574 68.5185
1337414 29.2268 34 2.5567 2.84281 1.84304 -12.6396 68.6264
1337477 29.3564 34 2.49485 2.81438 1.807 -12.6804 68.6656
1337478 28.9179 34 2.56701 2.767 1.93476 -12.6554 68.2519
1337482 27.8716 34 2.78351 3.01338 2.34904 -12.43 67.6685
1337540 27.5528 34 2.89691 3.10814 2.46399 -12.3334 67.5578
1337541 27.2438 34 2.95876 3.2029 2.59634 -12.2576 67.4055
1337604 26.5662 34 3.34021 3.66722 2.87123 -11.889 67.5737
1337606 26.4865 34 3.47423 3.93255 2.93542 -11.7272 67.8933
1337668 26.0879 34 3.60825 4.16945 3.12135 -11.5619 67.8656
1337671 25.9185 34 3.76289 4.40635 3.20356 -11.4006 68.0878
1337732 25.4004 34 4.20619 5.15496 3.47157 -10.9158 68.7615
1337733 25.4701 34 4.37113 5.40134 3.45167 -10.766 69.2426
1337736 25.1313 34 5.1134 6.14994 3.51775 -10.1999 70.3947
1337798 25.1313 34 5.1134 6.14994 3.51775 -10.1999 70.3947
1337801 24.9021 34 5.43299 6.48161 3.58196 -9.95263 70.8167
1337862 22.7696 33.7763 8.07216 8.67057 3.95869 -8.14653 73.2887
1337863 22.7696 33.7763 8.07216 8.67057 3.95869 -8.14653 73.2887
1337926 19.5111 29.6527 12.7629 12.9158 3.43874 -4.70691 74.8426
1337927 18.4349 27.8146 14.4639 15.2564 3.34744 -3.26364 75.9699
1337989 15.3667 21.9989 17.6891 20.3903 3.09276 0.141903 75.4449
1337990 15.3667 21.9989 17.6891 20.3903 3.09276 0.141903 75.4449
1338050 11.6699 15.3753 21.469 25.4562 2.59985 4.03134 73.9704
1338052 11.0114 14.4665 22.3451 26.2063 2.47076 4.67522 74.0293
1338114 10.2035 13.5027 23.0932 27.4533 2.57878 5.42209 74.2527
1338116 10.063 13.2732 23.0834 27.8819 2.69468 5.57776 74.3016
1338178 9.22882 12.3461 23.2901 29.1971 3.0462 6.26075 74.0622
1338179 9.22882 12.3461 23.2901 29.1971 3.0462 6.26075 74.0622
1338182 8.27169 11.4741 23.6149 30.3954 3.38374 6.96849 73.7561
1338242 7.99948 11.2354 23.6937 30.863 3.52523 7.18005 73.7916
1338243 7.72727 10.9141 23.9201 31.5547 3.65018 7.45452 74.1162
1338305 6.44525 9.34449 25.1998 33.3083 3.70394 8.62441 74.2978
1338307 6.13791 8.81209 25.4655 33.3668 3.58331 8.9213 73.7823
1338369 5.48812 7.85745 26.2826 33.9123 3.39918 9.55582 73.5405
1338370 5.33884 7.69222 26.5483 34 3.33144 9.68694 73.5794
1338433 4.97004 7.24244 27.0996 34 3.128 10.0025 73.3121
1338434 4.82955 7.11393 27.3162 34 3.06043 10.1091 73.2596
1338497 4.64514 6.66415 28.2316 34 2.6473 10.3865 73.5409
1338499 4.61002 6.59071 28.5466 34 2.52012 10.4436 73.7473
1338561 4.65393 6.41631 29.0191 34 2.27539 10.5175 74.0893
1338561 4.67149 6.41631 29.1175 33.961 2.22079 10.515 74.1664
1338624 4.99638 6.30616 29.5999 33.1914 1.65375 10.4237 74.0938
1338625 5.00517 6.2419 29.8066 32.8699 1.45422 10.4357 73.9236
1338628 5.33006 6.31533 30.1511 32.4218 1.09674 10.2928 74.2183
1338688 5.58471 6.41631 30.161 32.11 0.935969 10.1525 74.272
1338689 5.58471 6.41631 30.161 32.11 0.935969 10.1525 74.272
1338752 6.04132 6.58153 30.3086 31.1553 0.467992 9.88862 74.0868
1338754 6.18182 6.62743 30.1708 30.902 0.398201 9.79877 73.8821
1338815 6.85795 7.42603 29.3341 29.8109 0.355735 9.16416 73.429
1338817 6.85795 7.42603 29.3341 29.8109 0.355735 9.16416 73.429
1338879 8.15754 9.15173 27.5229 27.804 0.438944 7.85097 72.6362
1338880 8.76343 10.1064 26.6271 26.7811 0.517771 7.16782 72.278
1338881 11.5294 14.6501 22.916 22.1146 0.814223 3.97087 71.2102
1338943 12.7939 16.385 21.2623 20.2539 0.913304 2.61771 70.6951
1338944 14.234 18.2059 19.7169 18.4223 0.94839 1.21125 70.5791
1339007 17.4185 22.0864 16.2887 14.9153 1.1648 -1.76095 70.7088
1339008 18.9132 23.837 14.6082 13.4749 1.33778 -3.10596 70.8334
1339071 22.8095 28.3301 10.4845 10.1962 1.82131 -6.36147 71.8203
1339071 24.0551 29.9445 9.24742 9.1728 2.00732 -7.3694 72.4198
1339134 26.3968 32.9497 6.87629 7.25864 2.3595 -9.22918 73.4814
1339136 26.3968 32.9497 6.87629 7.25864 2.3595 -9.22918 73.4814
1339198 26.5762 33.2414 5.8866 6.33946 2.47006 -9.9089 72.0437
1339200 26.5662 33.115 5.7732 6.30156 2.46569 -9.95174 71.756
1339261 26.2274 33.0275 5.74227 6.12152 2.5237 -9.9955 71.1187
1339263 26.2175 33.0275 5.71134 6.21628 2.56943 -9.97238 71.1725
1339325 26.4666 33.893 5.71134 6.1689 2.7284 -10.0663 72.2399
1339327 26.4666 33.893 5.71134 6.1689 2.7284 -10.0663 72.2399
1339332 26.7157 34 5.45361 6.17837 2.76755 -10.1766 72.3477
1339389 26.7157 34 5.45361 6.17837 2.76755 -10.1766 72.3477
1339393 26.5762 34 5.38144 6.18785 2.85194 -10.1892 72.1455
1339455 26.1079 34 5.27835 6.04571 3.03068 -10.2441 71.4319
1339456 26.058 34 5.20619 6.0078 3.06698 -10.2798 71.272
1339517 25.3306 34 5.09278 5.99833 3.39915 -10.2751 70.4217
1339518 25.1313 34 4.96907 5.9699 3.52129 -10.3166 70.0703
1339580 24.7227 34 4.95876 5.91304 3.67541 -10.3135 69.5946
1339582 24.7526 34 4.95876 5.99833 3.6892 -10.2846 69.7097
1339644 25.0117 34 4.97938 6.03623 3.58615 -10.2809 70.0273
1339646 25.0615 34 4.94845 5.98885 3.56393 -10.3125 69.9989
1339708 24.8423 34 5.15464 6.25418 3.65019 -10.128 70.2511
1339709 24.8423 34 5.15464 6.25418 3.65019 -10.128 70.2511
1339771 24.2245 34 5.42268 6.43423 3.84804 -9.92437 70.0814
1339773 24.0152 34 5.58763 6.62375 3.92332 -9.78344 70.2266
1339836 22.7298 32.8719 7.34021 8.01672 3.81159 -8.50737 70.9586
1339837 21.6835 31.6367 9.28866 9.80769 3.6153 -7.08895 72.4165
1339899 16.3414 23.8953 18.634 22.0367 3.38551 0.0804609 80.9075
1339901 16.3414 23.8953 18.634 22.0367 3.38551 0.0804609 80.9075
1339963 12.0124 17.2918 18.6242 22.7186 3.31712 2.55609 70.647
1339965 11.1694 16.0821 19.2837 23.5564 3.2762 3.33606 70.0917
1340027 9.98399 14.1911 21.1048 25.6997 3.10021 4.78223 70.9797
1340029 9.50981 13.4293 22.1285 26.8785 3.01247 5.43489 71.9461
1340034 8.71952 12.1717 24.0874 28.9341 2.80697 6.52058 73.9128
1340091 8.55269 12.1717 24.5895 29.2556 2.77766 6.66238 74.5694
1340095 8.55269 11.9147 24.5895 29.2556 2.7008 6.7373 74.3124
1340156 8.11364 11.2079 25.3474 29.1777 2.34421 7.15068 73.8466
1340157 8.01705 11.0059 25.3573 28.9925 2.25703 7.22206 73.3728
1340218 7.67459 10.189 26.3219 29.2556 1.85456 7.7029 73.4411
1340219 7.56921 9.79428 26.8929 29.4407 1.61909 7.93181 73.6971
1340286 7.14773 8.70194 28.6057 29.6258 0.868756 8.5815 74.0811
1340290 7.08626 8.36231 29.1175 29.6355 0.604448 8.75409 74.2016
1340290 6.46281 7.3067 30.791 29.8401 -0.0359446 9.44782 74.4006
1340351 6.3311 7.01296 31.2733 29.7719 -0.275418 9.61856 74.3893
1340409 6.05888 6.21436 32.6416 29.314 -1.06834 10.0397 74.2289
1340410 6.03254 6.04914 33.0648 29.2361 -1.28126 10.1272 74.3826
1340473 5.84814 5.42495 34 29.2458 -1.73693 10.4617 74.5189
1340475 5.6813 5.29644 34 29.1971 -1.74848 10.5601 74.1749
1340537 5.61105 4.94762 34 28.9633 -1.93823 10.6916 73.522
1340542 5.61105 4.94762 34 28.9633 -1.93823 10.6916 73.522
1340543 5.74277 4.99352 34 28.7782 -2.03056 10.6187 73.5145
1340602 5.69886 4.92009 34 28.8172 -2.02951 10.662 73.4361
1340603 5.65496 4.91091 34 28.9633 -1.96545 10.6891 73.5292
1340667 5.59349 5.0486 34 29.0315 -1.87088 10.6665 73.6736
1340668 5.59349 5.0486 34 29.0315 -1.87088 10.6665 73.6736
1340725 6.25207 6.47138 32.3167 28.0963 -1.3677 9.78094 73.1365
1340729 6.25207 6.47138 32.3167 28.0963 -1.3677 9.78094 73.1365
1340732 7.77996 8.50918 29.2357 26.6934 -0.627626 8.23337 72.2182
1340742 8.77221 9.74838 27.7591 25.69 -0.379667 7.27984 71.9697
1340752 9.97521 11.3731 26.0463 24.5404 -0.0375405 6.09683 71.935
1340773 11.1782 13.1447 24.5599 23.2642 0.232425 4.88611 72.147
1340783 12.2846 14.8062 22.8767 21.9587 0.557384 3.70059 71.9262
1340803 13.3032 16.385 21.3607 20.7507 0.860643 2.5954 71.7997
1340813 13.3032 16.385 21.3607 20.7507 0.860643 2.5954 71.7997
1340825 14.1901 17.8947 19.835 19.5914 1.20998 1.53994 71.5112
1340833 15.1999 19.5189 18.3978 18.4321 1.52109 0.44259 71.5487
1340843 15.1999 19.5189 18.3978 18.4321 1.52109 0.44259 71.5487
1340853 16.1482 21.357 16.9381 17.1072 1.87901 -0.725344 71.5505
1340863 16.9298 22.8158 15.5361 15.9387 2.20746 -1.74194 71.2203
1340873 16.9298 22.8158 15.5361 15.9387 2.20746 -1.74194 71.2203
1340883 17.7673 24.226 14.4021 14.8774 2.4322 -2.67574 71.2727
1340904 18.5047 25.3249 13.4948 13.8729 2.52759 -3.46822 71.1974
1340914 19.2321 26.3656 12.5567 13.1812 2.71881 -4.176 71.3355
1340934 19.83 27.3186 11.7629 12.461 2.86761 -4.81799 71.3725
1340955 20.4777 28.1356 11.0103 11.864 2.97658 -5.40073 71.4876
1340964 21.2649 29.1957 10.3918 11.2196 3.03813 -6.00425 72.072
1340983 21.2649 29.1957 10.3918 11.2196 3.03813 -6.00425 72.072
1340984 22.0821 30.2168 9.49485 10.5468 3.17482 -6.68862 72.3406
1341047 22.8593 31.2283 8.71134 9.90245 3.28744 -7.31908 72.7014
1341048 22.8593 31.2283 8.71134 9.90245 3.28744 -7.31908 72.7014
1341111 24.0451 32.9302 6.85567 8.10201 3.52112 -8.76183 71.933
1341112 24.2743 33.2414 6.41237 7.5903 3.5463 -9.12627 71.5184
1341174 24.7227 34 5.61856 6.88907 3.70199 -9.73218 71.2304
1341175 24.8124 34 5.48454 6.69955 3.66306 -9.85154 70.9965
1341177 24.922 34 5.12371 6.41527 3.67917 -10.0871 70.461
1341238 24.8224 34 4.97938 6.43423 3.78455 -10.1249 70.236
1341239 24.8224 34 4.97938 6.43423 3.78455 -10.1249 70.236
1341301 24.9121 34 4.73196 6.39632 3.83789 -10.2335 70.0404
1341303 24.8722 34 4.73196 6.36789 3.84572 -10.241 69.9721
1341369 24.6729 34 4.50515 6.25418 3.9881 -10.3512 69.4323
1341370 24.6729 34 4.45361 6.25418 4.00964 -10.37 69.3807
1341434 24.4039 34 4.3299 6.14994 4.14328 -10.4359 68.8837
1341435 24.364 34 4.25773 6.18785 4.20221 -10.4459 68.8096
1341436 24.2345 34 4.20619 6.10256 4.25349 -10.4881 68.5432
1341496 24.2345 34 4.20619 6.10256 4.25349 -10.4881 68.5432
1341497 24.2145 34 4.19588 6.06466 4.25492 -10.5047 68.4751
1341557 24.1946 34 4.19588 6.08361 4.26918 -10.4963 68.4741
1341558 24.2145 34 4.31959 6.10256 4.21365 -10.4446 68.6367
1341620 24.3341 34 4.36082 6.13099 4.15398 -10.4268 68.8259
1341622 24.2943 34 4.41237 6.09309 4.13754 -10.4191 68.7997
1341623 24.3042 34 4.58763 6.31104 4.12526 -10.2753 69.2029
1341684 24.3042 34 4.58763 6.31104 4.12526 -10.2753 69.2029
1341685 24.2943 34 4.71134 6.4058 4.10602 -10.1951 69.4114
1341748 23.9455 34 4.96907 6.70903 4.23509 -9.96804 69.6236
1341749 23.8359 34 5.02062 6.82274 4.29334 -9.90091 69.6792
1341812 23.3775 34 5.76289 7.30602 4.31734 -9.43453 70.4464
1341813 23.3775 34 5.76289 7.30602 4.31734 -9.43453 70.4464
1341816 22.4707 32.8135 7.86598 8.98328 3.97184 -7.99246 72.1334
1341875 21.9924 31.6659 9.37113 10.291 3.61201 -6.95499 73.3204
1341877 21.2649 30.3919 11.1649 12.0346 3.33858 -5.70239 74.8563
1341939 17.7374 25.1791 16.3918 17.6625 2.82977 -1.72707 76.9707
1341943 16.3765 23.2729 17.6398 18.9387 2.68772 -0.604287 76.228
1342006 13.3208 18.3324 20.0614 21.6762 2.25725 2.06111 73.3907
1342007 12.6271 17.1556 20.6815 22.1828 2.07504 2.70107 72.647
1342067 11.4592 15.4579 22.0498 23.5077 1.88226 3.858 72.4746
1342071 11.0465 14.7235 22.8274 24.2968 1.76504 4.39422 72.8943
1342072 9.82593 12.4838 25.0029 26.7421 1.48441 5.9622 74.0547
1342082 9.38688 11.7862 25.5935 27.3754 1.40984 6.43276 74.1419
1342091 8.93905 11.7862 26.1841 27.843 1.50697 6.68244 74.7523
1342100 8.93905 11.0702 26.1841 27.843 1.27977 6.89213 74.0364
1342111 8.63171 10.4644 26.7748 28.2521 1.1164 7.27119 74.123
1342121 8.63171 10.4644 26.7748 28.2521 1.1164 7.27119 74.123
1342131 8.30682 9.87689 27.1094 28.5834 1.03011 7.61591 73.8765
1342142 7.96436 9.28942 27.6213 29.0023 0.915721 7.99361 73.8774
1342154 7.96436 9.28942 27.6213 29.0023 0.915721 7.99361 73.8774
1342160 7.578 8.61015 28.1824 29.4991 0.794944 8.42566 73.8697
1342171 7.578 8.61015 28.1824 29.4991 0.794944 8.42566 73.8697
1342184 7.19163 8.03186 28.7632 29.9375 0.681302 8.82198 73.9242
1342191 6.8843 7.55454 29.3439 30.337 0.560999 9.15587 74.1198
1342201 6.8843 7.55454 29.3439 30.337 0.560999 9.15587 74.1198
1342211 6.50671 7.20572 29.8755 30.5123 0.45068 9.44843 74.1003
1342221 6.31353 6.88445 30.2594 30.6097 0.310951 9.65432 74.0671
1342235 6.31353 6.88445 30.2594 30.6097 0.310951 9.65432 74.0671
1342242 6.14669 6.68251 30.5744 30.7364 0.235295 9.80879 74.14
1342262 5.89205 6.42549 30.8992 31.0092 0.21669 10.0216 74.2259
1342275 5.6813 6.15011 31.1946 31.1943 0.157812 10.2177 74.2202
1342284 5.6813 6.15011 31.1946 31.1943 0.157812 10.2177 74.2202
1342295 5.4969 5.98488 31.5292 31.4086 0.123402 10.3715 74.4196
1342302 5.30372 5.77376 31.7556 31.5547 0.0904441 10.5325 74.3878
1342317 5.30372 5.77376 31.7556 31.5547 0.0904441 10.5325 74.3878
1342322 5.08419 5.57181 32.0608 31.7788 0.0690043 10.7087 74.4956
1342333 5.08419 5.57181 32.0608 31.7788 0.0690043 10.7087 74.4956
1342343 4.88223 5.38823 32.1395 31.886 0.0849307 10.8529 74.296
1342352 4.76808 5.27808 32.3955 32.0126 0.0426829 10.9521 74.4543
1342362 4.76808 5.27808 32.3955 32.0126 0.0426829 10.9521 74.4543
1342372 4.67149 5.12203 32.4841 32.0029 -0.010322 11.0446 74.2805
1342382 4.6188 5.06695 32.5628 32.0905 -0.00811219 11.0913 74.3391
1342393 4.6188 5.06695 32.5628 32.0905 -0.00811219 11.0913 74.3391
1342403 4.61002 5.02106 32.7991 32.1295 -0.086683 11.1248 74.5597
1342413 4.61002 5.02106 32.7991 32.1295 -0.086683 11.1248 74.5597
1342423 4.59246 4.92009 32.9566 32.1587 -0.157517 11.176 74.6279
1342433 4.51343 4.81911 33.0353 32.2269 -0.168477 11.2467 74.5948
1342443 4.51343 4.81911 33.0353 32.2269 -0.168477 11.2467 74.5948
1342453 4.42562 4.81911 33.1436 32.2172 -0.178577 11.2826 74.6055
1342464 4.32903 4.64471 33.3208 32.3633 -0.214909 11.3941 74.6579
1342473 4.32903 4.64471 33.3208 32.3633 -0.214909 11.3941 74.6579
1342484 4.28512 4.59881 33.3109 32.4023 -0.199392 11.4272 74.5972
1342493 4.28512 4.59881 33.3109 32.4023 -0.199392 11.4272 74.5972
1342504 4.24122 4.48866 33.3306 32.49 -0.198931 11.487 74.5505
1342513 4.19731 4.45194 33.4094 32.4705 -0.22953 11.5184 74.5291
1342525 4.19731 4.45194 33.4094 32.4705 -0.22953 11.5184 74.5291
1342534 4.13585 4.49784 33.3799 32.5484 -0.157398 11.5262 74.562
1342545 4.09194 4.43359 33.5177 32.5289 -0.216931 11.5702 74.5721
1342557 4.09194 4.43359 33.5177 32.5289 -0.216931 11.5702 74.5721
1342568 4.03048 4.44276 33.6161 32.6166 -0.1965 11.5974 74.706
1342579 4.03048 4.44276 33.6161 32.6166 -0.1965 11.5974 74.706
1342587 3.96023 4.36015 33.6259 32.6069 -0.207616 11.6519 74.5532
1342595 3.98657 4.34179 33.7539 32.6264 -0.258446 11.6557 74.7086
1342604 3.98657 4.34179 33.7539 32.6264 -0.258446 11.6557 74.7086
1342614 3.96023 4.30508 33.7933 32.5971 -0.285074 11.6786 74.6557
1342624 3.94267 4.22246 33.813 32.5387 -0.333649 11.7128 74.5168
1342634 3.94267 4.22246 33.813 32.5387 -0.333649 11.7128 74.5168
1342645 3.88998 4.21328 33.8523 32.5874 -0.315805 11.7388 74.543
1342654 3.88998 4.21328 33.8523 32.5874 -0.315805 11.7388 74.543
1342664 3.90754 4.25918 33.7933 32.5192 -0.309636 11.7105 74.4792
1342675 3.88998 4.2041 33.8917 32.5971 -0.328645 11.7443 74.5829
1342684 3.88998 4.2041 33.8917 32.5971 -0.328645 11.7443 74.5829
1342696 3.94267 4.23164 33.8523 32.5874 -0.327007 11.7134 74.614
1342704 3.88998 4.19492 33.7736 32.5387 -0.312504 11.7398 74.3972
1342716 3.88998 4.19492 33.7736 32.5387 -0.312504 11.7398 74.3972
1342724 3.94267 4.30508 33.6456 32.5679 -0.240162 11.677 74.4613
1342738 3.94267 4.30508 33.6456 32.5679 -0.240162 11.677 74.4613
1342744 3.90754 4.31425 33.5472 32.6653 -0.159587 11.6863 74.4343
1342754 4.02169 4.36933 33.3602 32.5777 -0.146267 11.6133 74.3288
1342779 4.0656 4.47948 33.183 32.49 -0.0940233 11.546 74.218
1342785 4.0656 4.47948 33.183 32.49 -0.0940233 11.546 74.218
1342795 4.1095 4.58045 32.9172 32.451 0.00160336 11.4798 74.0582
1342808 4.25 4.74568 32.6416 32.3731 0.076738 11.3536 74.0103
1342825 4.44318 5.03024 32.1002 31.886 0.126889 11.1312 73.4595
1342835 4.84711 5.5351 31.3619 31.1456 0.161767 10.7269 72.8897
1342846 4.84711 5.5351 31.3619 31.1456 0.161767 10.7269 72.8897
1342856 5.47056 6.37041 30.5449 30.4052 0.261068 10.1199 72.791
1342869 6.16426 7.41685 29.4522 29.4797 0.441307 9.38124 72.513
1342875 6.16426 7.41685 29.4522 29.4797 0.441307 9.38124 72.513
1342886 7.13017 8.72948 28.3694 28.3788 0.553897 8.44714 72.6079
1342896 7.13017 8.72948 28.3694 28.3788 0.553897 8.44714 72.6079
1342905 8.21901 10.2257 26.9126 26.9759 0.715461 7.35011 72.3332
1342918 9.51859 11.9514 25.2982 25.388 0.873995 6.07353 72.1562
1342927 9.51859 11.9514 25.2982 25.388 0.873995 6.07353 72.1562
1342937 11.0377 13.8974 23.5362 23.5175 0.986609 4.60875 71.9888
1342957 12.7763 16.0178 21.5084 21.4814 1.11949 2.96632 71.7839
1342967 14.4711 18.4102 19.3428 19.3771 1.38734 1.22316 71.6011
1342987 16.2273 20.7346 17.128 17.1364 1.58499 -0.568077 71.2262
1342998 18.2057 23.1465 14.8041 15.1522 1.85418 -2.39717 71.3085
1343007 18.2057 23.1465 14.8041 15.1522 1.85418 -2.39717 71.3085
1343019 20.0492 25.2082 12.8351 13.3423 1.983 -4.00649 71.4348
1343027 20.0492 25.2082 12.8351 13.3423 1.983 -4.00649 71.4348
1343037 21.6038 27.163 11.0825 11.6271 2.13494 -5.46836 71.4764
1343046 22.9889 29.0109 9.70103 10.291 2.29608 -6.66904 71.9917
1343058 22.9889 29.0109 9.70103 10.291 2.29608 -6.66904 71.9917
1343067 24.2644 30.7323 8.29897 9.03066 2.48858 -7.81189 72.3263
1343080 25.4103 32.2981 7.24742 8.00725 2.62035 -8.72778 72.963
1343101 26.337 33.7471 6.41237 7.20178 2.78144 -9.45816 73.6983
1343108 26.337 33.7471 5.7732 7.20178 3.02449 -9.67213 73.0592
1343121 26.915 34 5.7732 6.55741 2.6859 -9.94962 73.2456
1343128 27.3834 34 5.27835 6.07414 2.54772 -10.3177 72.7358
1343138 27.3834 34 5.27835 6.07414 2.54772 -10.3177 72.7358
1343149 27.4033 34 4.90722 5.70457 2.56685 -10.5793 72.0151
1343162 27.4431 34 4.5567 5.45819 2.60935 -10.7955 71.458
1343169 27.4431 34 4.5567 5.45819 2.60935 -10.7955 71.458
1343179 27.4431 34 4.42268 5.28763 2.60767 -10.9059 71.1535
1343188 27.4431 34 4.42268 5.28763 2.60767 -10.9059 71.1535
1343199 27.2538 34 4.20619 5.13601 2.71829 -11.03 70.596
1343210 26.9947 34 4 4.98439 2.85431 -11.1484 69.9791
1343225 26.9947 34 4 4.98439 2.85431 -11.1484 69.9791
1343229 26.6958 34 3.78351 4.76644 2.99194 -11.2958 69.2457
1343239 26.4068 34 3.65979 4.6243 3.11457 -11.382 68.6909
1343249 26.4068 34 3.65979 4.6243 3.11457 -11.382 68.6909
1343259 26.2274 34 3.50515 4.40635 3.18238 -11.5167 68.1389
1343269 26.2274 34 3.50515 4.40635 3.18238 -11.5167 68.1389
1343279 26.0481 34 3.36082 4.28317 3.27744 -11.6123 67.6921
1343290 25.9683 34 3.23711 4.17893 3.32921 -11.6983 67.3844
1343311 25.8089 34 3.17526 4.14103 3.41036 -11.7302 67.1252
1343320 25.8089 34 3.09278 4.04627 3.4148 -11.8009 66.948
1343331 25.8089 34 3.09278 4.04627 3.4148 -11.8009 66.948
1343342 25.6694 34 3.03093 4.02731 3.49442 -11.8267 66.7276
1343352 25.6694 34 3.03093 4.02731 3.49442 -11.8267 66.7276
1343360 25.6096 34 2.98969 4.03679 3.54068 -11.8366 66.6361
1343372 25.6295 34 2.98969 4.00836 3.52299 -11.849 66.6276
1343380 25.6295 34 2.98969 4.00836 3.52299 -11.849 66.6276
1343394 25.7491 34 2.93814 4.03679 3.50305 -11.864 66.7241
1343402 25.8687 34 3 4.04627 3.42882 -11.8409 66.915
1343411 25.8687 34 3 4.04627 3.42882 -11.8409 66.915
1343420 26.0082 34 2.96907 4.1126 3.40414 -11.8334 67.0899
1343440 26.058 34 3 4.09365 3.36389 -11.8309 67.1517
1343452 26.1079 34 3.07217 4.21683 3.35209 -11.7555 67.3969
1343472 26.2474 34 3.06186 4.29264 3.32218 -11.7363 67.6019
1343482 26.2573 34 3.12371 4.34002 3.30731 -11.6936 67.7211
1343504 26.1876 34 3.12371 4.40635 3.35772 -11.6641 67.7176
1343511 26.0481 34 3.21649 4.3874 3.37124 -11.6281 67.652
1343525 26.0481 34 3.21649 4.3874 3.37124 -11.6281 67.652
1343531 26.068 34 3.20619 4.43478 3.38235 -11.6145 67.709
1343547 26.068 34 3.20619 4.43478 3.38235 -11.6145 67.709
1343553 26.0281 34 3.2268 4.54849 3.42665 -11.5598 67.8034
1343563 25.8886 34 3.23711 4.57692 3.48996 -11.5375 67.7027
1343573 25.8886 34 3.23711 4.57692 3.48996 -11.5375 67.7027
1343583 25.7691 34 3.16495 4.55797 3.56486 -11.5672 67.492
1343593 25.51 34 3.14433 4.5864 3.69274 -11.5509 67.2407
1343603 25.51 34 3.14433 4.5864 3.69274 -11.5509 67.2407
1343613 25.3306 34 3.25773 4.6243 3.73292 -11.4819 67.2126
1343623 25.3306 34 3.25773 4.6243 3.73292 -11.4819 67.2126
1343633 25.0815 34 3.14433 4.66221 3.9007 -11.4987 66.888
1343643 24.9619 34 3.23711 4.75697 3.94213 -11.4182 66.956
1343654 24.9619 34 3.23711 4.75697 3.94213 -11.4182 66.956
1343668 24.932 34 3.25773 4.70959 3.93122 -11.4272 66.8993
1343674 24.8722 34 3.37113 4.88016 3.96166 -11.3122 67.1235
1343694 24.663 34 3.45361 5.12653 4.09335 -11.172 67.2431
1343704 24.663 34 3.45361 5.12653 4.09335 -11.172 67.2431
1343714 24.4936 34 3.47423 5.2592 4.19899 -11.1027 67.227
1343724 24.3142 34 3.64948 5.52453 4.28255 -10.9219 67.4882
1343744 24.2046 34 3.72165 5.71405 4.3568 -10.8151 67.6403
1343754 23.9455 34 3.84536 5.92252 4.47906 -10.6724 67.7134
1343775 23.7562 34 3.94845 6.14047 4.58245 -10.5388 67.8451
1343785 23.7562 34 3.94845 6.14047 4.58245 -10.5388 67.8451
1343797 23.4771 34 4.03093 6.28261 4.71103 -10.4359 67.7907
1343805 23.2878 34 4.14433 6.53846 4.82059 -10.285 67.9706
1343818 23.2878 34 4.14433 6.53846 4.82059 -10.285 67.9706
1343825 22.9789 34 4.30928 6.70903 4.93434 -10.1388 67.9972
1343835 22.6301 34 4.52577 6.94593 5.06228 -9.94652 68.1018
1343845 22.6301 34 4.52577 6.94593 5.06228 -9.94652 68.1018
1343863 22.1618 34 4.74227 7.19231 5.2456 -9.7422 68.0964
1343865 22.1618 34 4.74227 7.19231 5.2456 -9.7422 68.0964
1343875 21.6137 34 5.06186 7.47659 5.4294 -9.48068 68.1522
1343885 20.9959 34 5.60825 8.01672 5.61512 -9.04337 68.6209
1343896 20.9959 34 5.60825 8.01672 5.61512 -9.04337 68.6209
1343907 20.2386 33.3095 6.50515 8.89799 5.60678 -8.29824 68.9512
1343915 20.2386 33.3095 6.01031 8.89799 5.82802 -8.46666 68.4564
1343929 19.1923 31.8312 8.64948 11.0964 5.32925 -6.62947 70.7694
1343935 18.1659 30.1779 13.4021 15.8155 4.6497 -3.69893 77.5614
1343955 16.921 27.873 18.7325 22.1049 4.182 -0.693077 85.6313
1343967 15.5336 25.1791 20.8292 25.5633 4.12709 0.978107 87.1051
1343975 15.5336 25.1791 20.8292 25.5633 4.12709 0.978107 87.1051
1343986 14.0935 22.5824 20.2878 25.5244 4.15983 1.66138 82.488
1343995 14.0935 22.5824 20.2878 25.5244 4.15983 1.66138 82.488
1344007 12.952 20.6373 19.3822 24.7158 4.18954 2.02903 77.6872
1344017 12.2144 19.3633 18.9589 24.141 4.12808 2.3144 74.6775
1344027 12.2144 19.3633 18.9589 24.141 4.12808 2.3144 74.6775
1344037 11.547 18.2838 18.7128 23.9559 4.131 2.65614 72.4994
1344046 10.8884 17.1362 18.8014 24.1117 4.07332 3.14823 70.9377
1344073 10.2035 15.9811 19.6676 24.8619 3.87895 3.89135 70.7141
1344081 10.2035 15.9811 19.6676 24.8619 3.87895 3.89135 70.7141
1344086 9.47469 14.9071 20.839 26.0115 3.72193 4.73142 71.2323
1344097 9.07955 13.9984 22.1581 27.3461 3.48119 5.46132 72.5821
1344116 8.60537 13.0621 23.2507 28.3983 3.27494 6.134 73.3165
1344126 8.25413 12.3553 24.2351 29.1387 3.04283 6.64293 73.9832
1344137 8.25413 12.3553 24.2351 29.1387 3.04283 6.64293 73.9832
1344147 8.02583 11.7954 24.9931 29.8011 2.87395 7.03066 74.6154
1344157 8.02583 11.7954 24.9931 29.8011 2.87395 7.03066 74.6154
1344168 7.7624 11.1436 25.5935 30.3175 2.70834 7.41909 74.817
1344178 7.51653 10.6388 25.938 30.6877 2.63164 7.71662 74.781
1344191 7.51653 10.6388 25.938 30.6877 2.63164 7.71662 74.781
1344198 7.32335 10.1614 26.0463 30.561 2.48097 7.92039 74.0921
1344212 7.22676 10.088 25.8002 30.1226 2.45217 7.90743 73.2376
1344218 7.22676 10.088 25.8002 30.1226 2.45217 7.90743 73.2376
1344228 7.34969 10.1247 25.5049 29.5868 2.3623 7.7758 72.5662
1344248 7.4375 10.3175 25.2293 29.051 2.32584 7.60571 72.0353
1344259 7.6219 10.5929 25.2982 28.8367 2.2493 7.44719 72.3497
1344268 7.6219 10.5929 25.2982 28.8367 2.2493 7.44719 72.3497
1344278 7.91167 10.7673 25.4262 28.8756 2.15984 7.3217 72.9808
1344290 8.04339 10.8315 25.6821 29.0997 2.10631 7.31235 73.6567
1344309 8.12242 10.8499 25.8298 29.2264 2.06815 7.31148 74.0284
1344321 8.09607 10.8499 26.0759 29.2264 1.98804 7.34488 74.2482
1344329 8.09607 10.6938 26.0759 29.3725 1.98496 7.40691 74.2383
1344345 8.06095 10.5653 26.3909 29.4309 1.86186 7.49425 74.4481
1344349 8.06095 10.5653 26.3909 29.4309 1.86186 7.49425 74.4481
1344360 8.00826 10.3634 26.5287 29.4309 1.76823 7.58522 74.3313
1344369 7.92045 10.2441 26.7944 29.4309 1.66693 7.6746 74.3899
1344389 7.86777 9.92279 27.0012 29.4699 1.52292 7.81302 74.2616
1344399 7.86777 9.92279 27.0012 29.4699 1.52292 7.81302 74.2616
1344412 7.6219 9.57397 27.2768 29.5576 1.42944 8.03155 74.0303
1344420 7.41994 9.2527 27.6312 29.7037 1.31924 8.24151 74.0075
1344434 7.41994 9.2527 27.6312 29.7037 1.31924 8.24151 74.0075
1344440 7.23554 8.88553 27.9461 29.8109 1.18937 8.45365 73.8781
1344450 7.04236 8.46328 28.2808 30.0252 1.07209 8.69789 73.8117
1344460 7.04236 8.46328 28.2808 30.0252 1.07209 8.69789 73.8117
1344469 6.87552 8.12365 28.6057 30.2883 0.991538 8.91046 73.8931
1344481 6.87552 8.12365 28.6057 30.2883 0.991538 8.91046 73.8931
1344490 6.68233 7.73812 29.0093 30.5221 0.868332 9.15006 73.9518
1344501 6.5155 7.49946 29.4719 30.5318 0.690317 9.3197 74.0187
1344512 6.5155 7.49946 29.4719 30.5318 0.690317 9.3197 74.0187
1344523 6.43647 7.24244 29.7869 30.5415 0.527176 9.45505 74.0074
1344531 6.34866 7.06803 30.161 30.5221 0.36453 9.56812 74.0997
1344540 6.34866 7.06803 30.161 30.5221 0.36453 9.56812 74.0997
1344551 6.30475 6.95788 30.5252 30.5805 0.238159 9.64989 74.3683
1344570 6.20816 6.74676 30.8303 30.5318 0.0807554 9.77041 74.3171
1344580 6.09401 6.71922 31.2142 30.5221 -0.022456 9.84374 74.5495
1344591 6.09401 6.71922 31.2142 30.5221 -0.022456 9.84374 74.5495
1344601 6.18182 6.65497 31.5391 30.4636 -0.201203 9.85427 74.8395
1344611 6.15548 6.5081 31.7458 30.5415 -0.284065 9.93125 74.9509
1344620 6.15548 6.5081 31.7458 30.5415 -0.284065 9.93125 74.9509
1344631 6.03254 6.48974 32.051 30.4441 -0.383121 9.99225 75.0174
1344641 6.03254 6.48974 32.051 30.4441 -0.383121 9.99225 75.0174
1344654 5.97107 6.26026 32.2774 30.3564 -0.544889 10.0987 74.8651
1344662 5.91839 6.16847 32.5727 30.2493 -0.691944 10.1594 74.9088
1344682 5.90961 6.00324 32.6711 30.0057 -0.861965 10.2086 74.5897
1344697 5.83058 5.92981 32.868 29.8304 -0.986582 10.2616 74.4587
1344702 5.83058 5.92981 32.868 29.8304 -0.986582 10.2616 74.4587
1344712 5.84814 5.86555 33.0353 29.6063 -1.14706 10.2739 74.3553
1344732 5.8657 5.82883 33.0747 29.4894 -1.21944 10.2755 74.2586
1344743 5.87448 5.81965 33.1436 29.3628 -1.29234 10.2719 74.2005
1344753 5.87448 5.81965 33.1436 29.3628 -1.29234 10.2719 74.2005
1344765 5.88326 5.81965 33.183 29.3335 -1.31807 10.2696 74.2194
1344773 5.94473 5.8013 33.2125 29.314 -1.3605 10.2556 74.2726
1344786 5.94473 5.8013 33.2125 29.314 -1.3605 10.2556 74.2726
1344793 5.95351 5.77376 33.1534 29.2361 -1.38197 10.2532 74.1168
1344802 5.95351 5.77376 33.1534 29.2361 -1.38197 10.2532 74.1168
1344812 5.95351 5.81965 33.1338 29.1777 -1.38017 10.2325 74.0846
1344822 6.04132 5.89309 32.9074 29.0802 -1.34444 10.1566 73.922
1344832 6.04132 5.89309 32.9074 29.0802 -1.34444 10.1566 73.922
1344841 6.21694 6.03996 32.7302 28.9828 -1.32634 10.029 73.9699
1344853 6.38378 6.15929 32.2577 28.6613 -1.30028 9.87774 73.4621
1344863 6.38378 6.15929 32.2577 28.6613 -1.30028 9.87774 73.4621
1344873 6.77014 6.58153 31.5883 28.184 -1.22838 9.52231 73.1239
1344883 6.77014 6.58153 31.5883 28.184 -1.22838 9.52231 73.1239
1344894 7.32335 7.10475 30.8107 27.5215 -1.20525 9.05111 72.7602
1344904 8.05217 7.91253 29.8952 26.6739 -1.1584 8.397 72.5338
1344923 8.87758 8.88553 28.901 25.6802 -1.11025 7.63393 72.3443
1344933 8.87758 8.88553 28.901 25.6802 -1.11025 7.63393 72.3443
1344943 9.8874 10.1156 27.7197 24.7645 -0.940555 6.72145 72.4872
1344953 10.827 11.2446 26.6468 23.761 -0.85132 5.86434 72.4794
1344963 10.827 11.2446 26.6468 23.761 -0.85132 5.86434 72.4794
1344973 11.6963 12.4471 25.3474 22.6699 -0.667508 4.96267 72.1607
1344984 12.6622 13.7046 23.9299 21.5788 -0.455192 3.9948 71.8756
1345006 13.7423 15.0081 22.5321 20.4195 -0.29525 2.9709 71.702
1345014 13.7423 15.0081 22.5321 20.4195 -0.29525 2.9709 71.702
1345023 14.9189 16.4033 20.967 19.0458 -0.153047 1.82742 71.3351
1345033 15.876 17.7294 19.5397 17.9255 0.0841469 0.814624 71.0706
1345043 15.876 17.7294 19.5397 17.9255 0.0841469 0.814624 71.0706
1345053 16.8332 18.9062 18.3683 16.801 0.17831 -0.12059 70.9086
1345063 17.7573 19.9954 17.2658 15.9861 0.337437 -0.950833 71.0046
1345075 17.7573 19.9954 17.2658 15.9861 0.337437 -0.950833 71.0046
1345083 18.6143 21.1916 16.1443 15.1048 0.541064 -1.80638 71.0551
1345093 18.6143 21.1916 16.1443 15.1048 0.541064 -1.80638 71.0551
1345102 19.5211 22.3976 14.9794 14.2046 0.738961 -2.68656 71.1027
1345120 20.3183 23.4577 13.9691 13.4181 0.909308 -3.45449 71.1631
1345131 20.3183 23.4577 13.9691 13.4181 0.909308 -3.45449 71.1631
1345143 21.0955 24.4302 13.0515 12.7642 1.06787 -4.14415 71.3415
1345144 21.7732 25.3736 12.1856 12.1104 1.23358 -4.79772 71.4427
1345165 22.3411 26.3656 11.4742 11.6271 1.45432 -5.34872 71.808
1345176 22.3411 26.3656 10.6907 11.6271 1.74615 -5.57319 71.0245
1345185 22.939 27.2992 10.6907 10.9732 1.61424 -5.96107 71.9022
1345195 23.517 28.2426 10.0103 10.5184 1.80999 -6.48048 72.2883
1345215 23.9654 29.3221 9.29897 9.9214 2.06154 -7.04761 72.5079
1345229 24.5633 30.4308 8.63918 9.4097 2.27195 -7.58702 73.043
1345240 24.5633 30.4308 8.63918 9.4097 2.27195 -7.58702 73.043
1345257 25.3804 32.4634 7.3299 8.20624 2.71167 -8.64834 73.38
1345279 25.5996 33.1247 6.82474 7.65663 2.85393 -9.06547 73.2057
1345288 25.5996 33.1247 6.82474 7.65663 2.85393 -9.06547 73.2057
1345301 25.7392 33.7277 6.35052 7.22074 3.03224 -9.42568 73.0381
1345308 25.8189 34 6.05155 6.89855 3.10164 -9.66115 72.769
1345322 25.8189 34 6.05155 6.89855 3.10164 -9.66115 72.769
1345327 25.8288 34 5.61856 6.63322 3.18595 -9.9008 72.0806
1345337 25.8587 34 5.41237 6.34894 3.16875 -10.0735 71.62
1345346 25.8587 34 5.41237 6.34894 3.16875 -10.0735 71.62
1345357 25.8488 34 5.16495 6.18785 3.22118 -10.2166 71.2016
1345368 25.8488 34 5.16495 6.18785 3.22118 -10.2166 71.2016
1345378 25.7093 34 4.95876 6.02676 3.30955 -10.3382 70.6948
1345392 25.4402 34 4.85567 5.95095 3.43612 -10.3849 70.2468
1345408 25.2309 34 4.74227 5.87514 3.54408 -10.4398 69.8484
1345418 25.0615 34 4.65979 5.79933 3.6241 -10.4866 69.5207
1345427 25.0615 34 4.65979 5.79933 3.6241 -10.4866 69.5207
1345439 24.8423 34 4.58763 5.7709 3.73585 -10.5094 69.2009
1345462 24.7128 34 4.41237 5.66667 3.83095 -10.6045 68.7918
1345468 24.5633 34 4.36082 5.66667 3.91544 -10.6142 68.5908
1345489 24.5434 34 4.31959 5.58138 3.91501 -10.6603 68.4443
1345499 24.6331 34 4.27835 5.55295 3.8858 -10.6921 68.4644
1345509 24.6331 34 4.27835 5.55295 3.8858 -10.6921 68.4644
1345520 24.7028 34 4.30928 5.62876 3.86675 -10.6565 68.6409
1345551 24.7526 34 4.2268 5.59086 3.86881 -10.7047 68.5703
1345552 24.8822 34 4.2165 5.56243 3.80993 -10.7273 68.6611
1345559 24.8822 34 4.2165 5.56243 3.80993 -10.7273 68.6611
1345575 24.9719 34 4.26804 5.60033 3.76249 -10.6994 68.8402
1345580 24.9918 34 4.20619 5.56243 3.76832 -10.738 68.7604
1345590 24.9918 34 4.20619 5.56243 3.76832 -10.738 68.7604
1345600 24.942 34 4.20619 5.56243 3.78918 -10.7349 68.7106
1345620 24.8623 34 4.16495 5.47715 3.81361 -10.7775 68.5043
1345630 24.8324 34 4.2268 5.46767 3.79724 -10.7559 68.5268
1345650 24.8722 34 4.18557 5.43924 3.78902 -10.7846 68.497
1345665 24.9121 34 4.20619 5.39186 3.74894 -10.7971 68.5101
1345681 25.0117 34 4.17526 5.37291 3.71425 -10.822 68.5599
1345691 25.0117 34 4.17526 5.37291 3.71425 -10.822 68.5599
1345700 25.0117 34 4.09278 5.30658 3.72822 -10.8781 68.4111
1345711 25.1712 34 4.16495 5.26867 3.61949 -10.8748 68.6048
1345720 25.1712 34 4.16495 5.26867 3.61949 -10.8748 68.6048
1345734 25.3605 34 4.18557 5.2592 3.52921 -10.882 68.8053
1345740 25.4103 34 4.16495 5.21182 3.50232 -10.9105 68.7871
1345750 25.4103 34 4.16495 5.21182 3.50232 -10.9105 68.7871
1345760 25.5199 34 4.16495 5.26867 3.47473 -10.8957 68.9536
1345770 25.5199 34 4.16495 5.26867 3.47473 -10.8957 68.9536
1345782 25.49 34 4.2165 5.21182 3.44802 -10.8959 68.9184
1345792 25.4801 34 4.19588 5.24972 3.4725 -10.8888 68.9257
1345812 25.5299 34 4.2268 5.20234 3.42437 -10.8979 68.959
1345825 25.51 34 4.34021 5.2971 3.41551 -10.8188 69.1473
1345847 25.5996 34 4.35052 5.30658 3.37744 -10.8168 69.2567
1345853 25.5996 34 4.35052 5.30658 3.37744 -10.8168 69.2567
1345862 25.6295 34 4.4433 5.42029 3.36272 -10.7419 69.4931
1345872 25.6694 34 4.47423 5.48662 3.3545 -10.7084 69.6302
1345881 25.6694 34 4.47423 5.48662 3.3545 -10.7084 69.6302
1345893 25.6993 34 4.56701 5.60033 3.33995 -10.6342 69.8666
1345901 25.6993 34 4.56701 5.60033 3.33995 -10.6342 69.8666
1345916 25.6893 34 4.6701 5.57191 3.2934 -10.6063 69.9313
1345923 25.6694 34 4.81443 5.78986 3.31064 -10.473 70.2737
1345931 25.6694 34 4.81443 5.78986 3.31064 -10.473 70.2737
1345941 25.6495 34 4.97938 5.78986 3.25233 -10.4121 70.4187
1345952 25.5199 34 5.03093 5.94147 3.33036 -10.3304 70.4923
1345962 25.5199 34 5.03093 5.94147 3.33036 -10.3304 70.4923
1345972 25.3306 34 5.31959 6.10256 3.33993 -10.1569 70.7527
1345991 25.1612 34 5.49485 6.33946 3.40987 -9.99927 70.9955
1346007 25.0018 33.8347 5.90722 6.65217 3.35379 -9.72264 71.3958
1346023 24.8623 33.3776 6.36082 6.99331 3.19434 -9.40422 71.594
1346033 24.4736 32.5315 7 7.51449 2.9965 -8.91167 71.5196
1346043 24.4736 32.5315 7 7.51449 2.9965 -8.91167 71.5196
1346055 23.8757 31.5881 7.98969 8.47157 2.84819 -8.134 71.9251
1346063 22.8095 32.5315 9.58763 9.99721 3.38053 -7.15831 74.9258
1346077 22.8095 30.0418 9.58763 9.99721 2.63745 -6.88878 72.4361
1346084 21.4144 27.9022 12.3299 12.8495 2.35159 -4.8601 74.496
1346099 21.4144 27.9022 12.3299 12.8495 2.35159 -4.8601 74.496
1346104 19.541 25.286 15.9278 16.6589 2.09137 -2.37174 77.4138
1346114 17.5182 22.4559 19.2345 20.2928 1.88553 -0.0842965 79.5015
1346124 17.5182 22.4559 19.2345 20.2928 1.88553 -0.0842965 79.5015
1346134 15.8848 19.9176 21.0457 22.3095 1.67277 1.43121 79.1576
1346144 15.8848 19.9176 21.0457 22.3095 1.67277 1.43121 79.1576
1346154 14.515 17.6516 21.9809 23.1765 1.40068 2.52007 77.324
1346167 13.3559 15.7333 22.6306 23.839 1.18642 3.45038 75.5587
1346190 12.188 14.0718 23.3885 24.5794 1.03554 4.38678 74.2277
1346194 11.2045 12.6674 24.1662 25.4367 0.930026 5.25301 73.4748
1346215 10.265 11.4098 25.1899 26.255 0.755587 6.10713 73.1197
1346224 10.265 11.4098 25.1899 26.255 0.755587 6.10713 73.1197
1346234 9.29907 10.1706 26.2235 27.0539 0.584877 6.97094 72.7471
1346244 8.55269 9.24352 27.326 28.0086 0.469512 7.69957 73.1308
1346257 8.55269 9.24352 27.326 28.0086 0.469512 7.69957 73.1308
1346267 7.85899 8.5 28.3005 28.8172 0.393894 8.32075 73.4767
1346280 7.41994 7.84827 29.1668 29.5966 0.289783 8.81282 74.0315
1346284 7.41994 7.84827 29.1668 29.5966 0.289783 8.81282 74.0315
1346295 7.03357 7.33423 29.8755 30.1421 0.190651 9.20539 74.3854
1346316 6.59452 6.86609 30.5941 30.6779 0.118893 9.59649 74.7327
1346326 6.28719 6.5081 31.1257 30.9312 0.00884831 9.87178 74.8522
1346347 6.0062 6.15929 31.4013 31.0968 -0.0506729 10.1119 74.6636
1346356 5.79545 5.9757 31.6966 31.0968 -0.140648 10.264 74.5646
1346369 5.79545 5.9757 31.6966 31.0968 -0.140648 10.264 74.5646
1346377 5.6374 5.72786 31.7458 31.0676 -0.198072 10.4036 74.1787
1346400 5.42665 5.43413 31.982 31.0968 -0.296773 10.5934 73.9397
1346413 5.33006 5.3148 32.2478 31.2332 -0.347333 10.6918 74.1259
1346422 5.33006 5.3148 32.2478 31.2332 -0.347333 10.6918 74.1259
1346425 5.14566 5.19546 32.5924 31.4281 -0.374679 10.828 74.3616
1346435 5.03151 5.01188 32.927 31.6911 -0.420415 10.9644 74.6615
1346445 5.03151 5.01188 32.927 31.6911 -0.420415 10.9644 74.6615
1346459 4.90857 4.91091 33.2125 31.847 -0.455129 11.0659 74.879
1346465 4.90857 4.91091 33.2125 31.847 -0.455129 11.0659 74.879
1346483 4.66271 4.72732 33.4684 32.0224 -0.461228 11.238 74.8808
1346487 4.54855 4.5621 33.7244 32.1198 -0.530675 11.3535 74.9548
1346506 4.37293 4.4703 33.9508 32.1393 -0.571895 11.4596 74.9333
1346517 4.2061 4.34179 34 32.1003 -0.590776 11.5647 74.6482
1346530 4.2061 4.34179 34 32.1003 -0.590776 11.5647 74.6482
1346537 4.11829 4.18575 34 32.1003 -0.61564 11.6518 74.4043
1346557 3.93388 4.04806 34 32.0808 -0.609289 11.7668 74.0627
1346566 3.88998 4.04806 34 32.1198 -0.581352 11.7844 74.0578
1346578 3.88998 4.04806 34 32.1198 -0.581352 11.7844 74.0578
1346588 3.85486 4.03888 34 32.1782 -0.552759 11.8029 74.072
1346600 3.86364 3.96544 34 32.2659 -0.550744 11.8301 74.095
1346618 3.89876 4.00216 34 32.2172 -0.566465 11.802 74.1181
1346628 3.89876 4.00216 34 32.2172 -0.566465 11.802 74.1181
1346638 3.79339 3.87365 34 32.0808 -0.623386 11.8811 73.7478
1346648 3.86364 3.89201 34 31.9834 -0.674084 11.8447 73.739
1346658 3.86364 3.89201 34 31.9834 -0.674084 11.8447 73.739
1346668 3.84607 3.92873 34 31.9639 -0.662287 11.8369 73.7387
1346677 3.87242 3.92873 34 31.9347 -0.681154 11.826 73.7358
1346698 3.89876 4.01134 34 31.9347 -0.661102 11.7865 73.8448
1346718 3.8812 3.97462 34 31.8762 -0.688428 11.8036 73.732
1346728 3.81973 4.01134 34 31.886 -0.65196 11.8131 73.717
1346742 3.81973 4.01134 34 31.886 -0.65196 11.8131 73.717
1346749 3.81973 4.04806 34 31.9347 -0.622271 11.8018 73.8025
1346759 3.78461 3.97462 34 31.8762 -0.656538 11.8388 73.6355
1346779 3.84607 3.99298 34 31.8372 -0.684018 11.808 73.6763
1346789 3.84607 3.99298 34 31.8372 -0.684018 11.808 73.6763
1346799 3.81973 3.99298 34 31.808 -0.685517 11.8164 73.6207
1346811 3.85486 4.06641 34 31.7885 -0.678302 11.776 73.7098
1346834 3.89876 4.13985 34 31.6814 -0.704537 11.7287 73.72
1346839 3.89876 4.12149 34 31.6132 -0.734749 11.7324 73.6334
1346862 3.93388 4.24082 34 31.7593 -0.653878 11.683 73.934
1346870 3.93388 4.24082 34 31.7593 -0.653878 11.683 73.934
1346882 3.94267 4.28672 34 31.7983 -0.627355 11.665 74.0277
1346890 3.99535 4.35097 34 31.7593 -0.63594 11.6212 74.1056
1346906 3.99535 4.35097 34 31.7593 -0.63594 11.6212 74.1056
1346911 4.10072 4.47948 33.9606 31.6034 -0.667089 11.5283 74.1443
1346921 4.37293 4.7824 33.3109 31.2625 -0.555758 11.2747 73.7287
1346941 4.87345 5.2689 32.5431 30.902 -0.423197 10.8652 73.5875
1346952 4.87345 5.2689 32.5431 30.902 -0.423197 10.8652 73.5875
1346962 5.53202 5.95734 31.5391 30.2006 -0.311759 10.2931 73.229
1346974 6.42769 7.02214 30.4169 29.2556 -0.193807 9.48192 73.1223
1346996 7.37603 8.37149 29.1668 28.0865 -0.0290334 8.52849 73.0008
1347003 8.44731 9.71166 27.7985 27.0149 0.164703 7.53458 72.9724
1347011 8.44731 9.71166 27.7985 27.0149 0.164703 7.53458 72.9724
1347030 9.48347 11.2171 26.3023 25.5438 0.336051 6.43977 72.5466
1347032 10.4933 12.8326 24.7666 24.2092 0.616118 5.32143 72.3017
1347052 10.4933 12.8326 24.7666 24.2092 0.616118 5.32143 72.3017
1347054 11.5294 14.5216 23.1129 22.6602 0.883901 4.11882 71.8241
1347073 12.7149 16.1647 21.4001 20.9943 1.0677 2.84427 71.2739
1347083 13.9706 18.1379 19.5594 19.3089 1.37962 1.4286 70.9767
1347095 13.9706 18.1379 19.5594 19.3089 1.37962 1.4286 70.9767
1347104 15.4106 20.3066 17.5709 17.4287 1.68055 -0.15223 70.7169
1347113 16.7102 22.5046 15.6804 15.7113 2.06256 -1.66199 70.6065
1347134 18.4748 24.8484 13.5979 13.9108 2.35998 -3.34901 70.8319
1347145 18.4748 24.8484 13.5979 13.9108 2.35998 -3.34901 70.8319
1347154 20.2984 27.4159 11.567 12.1767 2.70342 -5.03174 71.458
1347164 22.2515 29.9834 9.58763 10.4994 2.98795 -6.66764 72.3219
1347174 22.2515 29.9834 9.58763 10.4994 2.98795 -6.66764 72.3219
1347189 23.8757 32.337 7.97938 8.96433 3.22807 -8.05172 73.1564
1347194 25.2011 34 6.6701 7.60925 3.31316 -9.17014 73.4804
1347212 25.2011 34 6.6701 7.60925 3.31316 -9.17014 73.4804
1347214 26.1477 34 5.69072 6.72798 3.06256 -9.86593 72.5664
1347224 26.1477 34 5.69072 6.72798 3.06256 -9.86593 72.5664
1347237 26.7157 34 5.02062 5.97938 2.87352 -10.3985 71.7157
1347245 27.0645 34 4.51546 5.46767 2.77551 -10.7846 71.0476
1347266 27.1841 34 4.14433 5.04125 2.74012 -11.084 70.3696
1347275 27.1442 34 3.86598 4.75697 2.77594 -11.2921 69.7671
1347285 27.1442 34 3.86598 4.75697 2.77594 -11.2921 69.7671
1347295 26.9848 34 3.58763 4.46321 2.85752 -11.5014 69.0356
1347307 26.9848 34 3.58763 4.46321 2.85752 -11.5014 69.0356
1347315 26.646 34 3.31959 4.17893 3.01323 -11.6988 68.1445
1347330 26.2673 34 3.15464 3.96098 3.16811 -11.832 67.3829
1347335 26.2673 34 3.15464 3.96098 3.16811 -11.832 67.3829
1347345 25.8986 34 2.91753 3.74303 3.353 -11.9979 66.5592
1347356 25.5698 34 2.70103 3.42085 3.4822 -12.2043 65.6916
1347365 25.5698 34 2.70103 3.42085 3.4822 -12.2043 65.6916
1347377 25.5 34 2.65979 3.35452 3.50867 -12.246 65.5143
1347385 25.5 34 2.65979 3.35452 3.50867 -12.246 65.5143
1347401 25.5498 34 2.45361 3.21237 3.53018 -12.3936 65.2158
1347405 25.6395 34 2.37113 3.10814 3.49265 -12.4757 65.1188
1347416 25.6395 34 2.37113 3.10814 3.49265 -12.4757 65.1188
1347426 25.7989 34 2.28866 3.0039 3.42453 -12.5607 65.0915
1347435 25.7989 34 2.28866 3.0039 3.42453 -12.5607 65.0915
1347447 26.0481 34 2.2268 2.89019 3.30519 -12.6443 65.1651
1347456 26.4467 34 2.18557 2.88071 3.14766 -12.68 65.5129
1347470 26.4467 34 2.18557 2.88071 3.14766 -12.68 65.5129
1347477 26.9549 34 2.13402 2.89967 2.95914 -12.7116 65.9885
1347493 27.5029 34 2.13402 2.82386 2.70344 -12.762 66.4608
1347497 27.5029 34 2.13402 2.82386 2.70344 -12.762 66.4608
1347506 27.9414 34 2.1134 2.767 2.51124 -12.8089 66.8218
1347517 27.9414 34 2.1134 2.767 2.51124 -12.8089 66.8218
1347529 28.1805 34 2.01031 2.68172 2.42658 -12.8951 66.8726
1347540 28.3599 34 1.87629 2.46377 2.33417 -13.0479 66.7
1347546 28.3599 34 1.87629 2.46377 2.33417 -13.0479 66.7
1347557 28.5393 34 1.72165 2.46377 2.32404 -13.1182 66.7247
1347567 28.4795 34 1.62887 2.31215 2.33505 -13.22 66.4205
1347577 28.4795 34 1.62887 2.31215 2.33505 -13.22 66.4205
1347588 28.3001 34 1.52577 2.2932 2.44533 -13.2672 66.1191
1347596 28.3001 34 1.52577 2.2932 2.44533 -13.2672 66.1191
1347611 27.8318 34 1.47423 2.18896 2.62729 -13.3221 65.495
1347618 27.204 34 1.50515 2.12263 2.85874 -13.3213 64.8318
1347627 27.204 34 1.50515 2.12263 2.85874 -13.3213 64.8318
1347638 26.4965 34 1.46392 2.16054 3.19714 -13.3042 64.1209
1347648 25.7292 34 1.56701 2.2553 3.52435 -13.1956 63.5515
1347659 25.7292 34 1.56701 2.2553 3.52435 -13.1956 63.5515
1347667 25.1612 34 1.60825 2.2932 3.77552 -13.144 63.0626
1347685 24.7028 34 1.7732 2.4922 3.97668 -12.9678 62.9682
1347698 24.7028 34 1.7732 2.4922 3.97668 -12.9678 62.9682
1347699 24.5035 34 1.93814 2.65329 4.04614 -12.8169 63.095
1347710 24.5035 34 1.93814 2.65329 4.04614 -12.8169 63.095
1347719 24.4039 34 2.05155 2.94705 4.13692 -12.6348 63.4025
1347733 24.5932 34 2.28866 3.2408 4.03872 -12.413 64.1227
1347742 24.5932 34 2.28866 3.2408 4.03872 -12.413 64.1227
1347756 24.8025 34 2.42268 3.50613 3.97064 -12.2523 64.7313
1347761 25.1213 34 2.57732 3.73356 3.83408 -12.1065 65.4322
1347771 25.1213 34 2.57732 3.73356 3.83408 -12.1065 65.4322
1347781 25.5 34 2.76289 3.96098 3.6611 -11.954 66.2239
1347791 25.5 34 2.76289 3.96098 3.6611 -11.954 66.2239
1347803 25.779 34 2.82474 4.24526 3.6057 -11.8272 66.849
1347810 26.0979 34 3 4.37793 3.43828 -11.7197 67.4758
1347826 26.0979 34 3 4.37793 3.43828 -11.7197 67.4758
1347831 26.2274 34 3.05155 4.49164 3.39847 -11.6609 67.7706
1347840 26.337 34 3.1134 4.65273 3.37807 -11.579 68.1032
1347852 26.337 34 3.1134 4.65273 3.37807 -11.579 68.1032
1347861 26.2274 34 3.18557 4.70011 3.40871 -11.5268 68.1131
1347872 26.2274 34 3.18557 4.70011 3.40871 -11.5268 68.1131
1347881 26.0281 34 3.17526 4.64326 3.47838 -11.5429 67.8466
1347891 25.779 34 3.14433 4.65273 3.59942 -11.5385 67.5761
1347900 25.779 34 3.14433 4.65273 3.59942 -11.5385 67.5761
1347910 25.4103 34 3.21649 4.67168 3.73147 -11.4836 67.2985
1347920 24.9519 34 3.26804 4.67168 3.90621 -11.4391 66.8917
1347930 24.9519 34 3.26804 4.67168 3.90621 -11.4391 66.8917
1347944 24.4238 34 3.28866 4.75697 4.15398 -11.3687 66.4694
1347951 24.4238 34 3.28866 4.75697 4.15398 -11.3687 66.4694
1347966 23.9754 34 3.3299 4.76644 4.33664 -11.3238 66.0717
1347972 23.5469 34 3.43299 4.90858 4.5261 -11.202 65.8885
1347992 23.2081 34 3.52577 5.05072 4.68076 -11.0888 65.7846
1348003 23.0985 34 3.7732 5.31605 4.70041 -10.8802 66.1877
1348023 23.527 34 4.1134 5.61929 4.45249 -10.6589 67.2597
1348043 24.1747 34 4.39175 5.89409 4.13657 -10.4927 68.4605
1348053 24.7726 34 4.71134 6.31104 3.87819 -10.2622 69.7949
1348073 25.1712 34 5.14433 6.84169 3.69822 -9.94667 71.1572
1348084 25.3406 34 5.58763 7.40078 3.61978 -9.61278 72.329
1348093 25.3406 34 5.58763 7.40078 3.61978 -9.61278 72.329
1348109 25.2708 34 6.30928 8.21572 3.60306 -9.09519 73.7958
1348113 25.2708 34 6.30928 8.21572 3.60306 -9.09519 73.7958
1348123 25.1811 34 7.16495 9.22965 3.60022 -8.49212 75.5757
1348134 24.922 34 8.27835 10.4142 3.61201 -7.77487 77.6145
1348143 24.922 34 8.27835 10.4142 3.61201 -7.77487 77.6145
1348159 24.1647 33.9417 9.42268 11.5039 3.75102 -7.05651 79.0329
1348166 22.9191 32.1716 10.5567 12.5084 3.58392 -6.14651 78.1558
1348174 22.9191 32.1716 10.5567 12.5084 3.58392 -6.14651 78.1558
1348184 21.3945 30.0904 11.6289 13.6076 3.47837 -5.1319 76.7213
1348206 19.6805 27.6688 12.732 14.7637 3.34689 -3.97897 74.8449
1348216 18.0862 25.1985 14.0619 16.2609 3.16251 -2.64144 73.6074
1348236 16.561 22.8839 15.5155 17.9255 2.99543 -1.2356 72.8858
1348246 15.4019 20.9485 17.1181 19.6011 2.74727 0.0757277 73.0696
1348256 15.4019 20.9485 17.1181 19.6011 2.74727 0.0757277 73.0696
1348266 14.3306 19.3146 18.4765 21.1307 2.6068 1.22084 73.2524
1348277 13.4525 19.3146 19.9334 21.1307 2.39039 1.68566 73.8312
1348285 13.4525 17.9628 19.9334 22.2705 2.32528 2.19819 73.6192
1348300 12.6271 16.6604 21.1147 23.459 2.15867 3.10439 73.8611
1348305 12.6271 16.6604 21.1147 23.459 2.15867 3.10439 73.8611
1348315 11.7753 15.5221 22.1482 24.4917 2.05927 3.92409 73.9374
1348325 11.0201 14.4206 23.0834 25.6023 1.99638 4.70376 74.1264
1348349 10.4494 13.3834 23.9299 26.4401 1.83422 5.36448 74.2028
1348355 10.4494 13.3834 23.9299 26.4401 1.83422 5.36448 74.2028
1348365 9.92252 12.5297 24.491 27.1026 1.76199 5.90338 74.0458
1348376 9.45713 11.7036 25.0718 27.6481 1.63195 6.40748 73.8806
1348397 9.02686 11.0427 25.5148 28.0476 1.54437 6.82303 73.6319
1348407 8.64928 10.3909 25.9676 28.4372 1.43349 7.22267 73.445
1348421 8.64928 10.3909 25.9676 28.4372 1.43349 7.22267 73.445
1348426 8.23657 9.91361 26.5385 28.7393 1.32027 7.5845 73.4279
1348437 8.23657 9.91361 26.5385 28.7393 1.32027 7.5845 73.4279
1348447 7.75362 9.30778 27.1488 29.2361 1.23949 8.03108 73.4463
1348456 7.40238 8.72948 27.7493 29.6648 1.10223 8.41968 73.5459
1348469 7.40238 8.72948 27.7493 29.6648 1.10223 8.41968 73.5459
1348477 7.05114 8.28888 28.2316 30.0739 1.04556 8.75115 73.6456
1348492 6.75258 7.92171 28.7435 30.3662 0.945947 9.03354 73.784
1348498 6.75258 7.92171 28.7435 30.3662 0.945947 9.03354 73.784
1348515 6.60331 7.80238 29.1077 30.6 0.907856 9.1688 74.1134
1348518 6.60331 7.80238 29.1077 30.6 0.907856 9.1688 74.1134
1348528 6.41012 7.41685 29.5605 30.7169 0.729755 9.40237 74.1044
1348541 6.34866 7.18737 29.9444 30.9117 0.606933 9.54135 74.3922
1348548 6.34866 7.18737 29.9444 30.9117 0.606933 9.54135 74.3922
1348558 6.12913 6.83855 30.3775 31.0968 0.479817 9.77405 74.4421
1348568 5.90961 6.43467 30.8205 31.2527 0.321591 10.0236 74.4175
1348579 5.90961 6.43467 30.8205 31.2527 0.321591 10.0236 74.4175
1348588 5.6813 6.16847 31.1257 31.4183 0.262073 10.2215 74.3938
1348599 5.51446 5.89309 31.4899 31.4378 0.109833 10.3962 74.3352
1348619 5.41787 5.69114 31.6867 31.4476 0.0114828 10.5111 74.2433
1348639 5.32128 5.52592 31.9427 31.4865 -0.0846535 10.6189 74.2764
1348649 5.29494 5.41577 32.0903 31.545 -0.14275 10.678 74.346
1348662 5.29494 5.41577 32.0903 31.545 -0.14275 10.678 74.346
1348669 5.24225 5.38823 32.2577 31.5547 -0.187045 10.716 74.4429
1348680 5.18957 5.3148 32.4053 31.7203 -0.187509 10.7774 74.63
1348691 5.18957 5.3148 32.4053 31.7203 -0.187509 10.7774 74.63
1348700 5.23347 5.28726 32.5136 31.7009 -0.253884 10.7768 74.7352
1348711 5.23347 5.28726 32.5136 31.7009 -0.253884 10.7768 74.7352
1348721 5.13688 5.223 32.5727 31.7301 -0.253293 10.8373 74.6626
1348736 5.14566 5.18629 32.6219 31.6229 -0.32126 10.8438 74.5768
1348740 5.14566 5.18629 32.6219 31.6229 -0.32126 10.8438 74.5768
1348750 5.07541 5.11285 32.5333 31.6034 -0.300175 10.8877 74.325
1348760 5.07541 5.11285 32.5333 31.6034 -0.300175 10.8877 74.325
1348770 4.97004 5.02106 32.6022 31.584 -0.325987 10.9592 74.1773
1348783 4.9876 5.07613 32.6514 31.5645 -0.336035 10.9355 74.2796
1348790 4.9876 5.07613 32.6514 31.5645 -0.336035 10.9355 74.2796
1348800 4.97004 5.0486 32.7006 31.584 -0.349289 10.955 74.3032
1348810 4.91736 5.12203 32.6514 31.506 -0.316973 10.9408 74.1968
1348820 4.91736 5.12203 32.6514 31.506 -0.316973 10.9408 74.1968
1348832 4.95248 5.24136 32.3758 31.4476 -0.215946 10.8683 74.0172
1348840 4.95248 5.24136 32.3758 31.4476 -0.215946 10.8683 74.0172
1348856 5.10176 5.3148 32.0706 31.2527 -0.205073 10.7622 73.7399
1348861 5.37397 5.56263 31.6769 31.0092 -0.162673 10.5435 73.6227
1348880 5.8218 5.92981 31.106 30.5415 -0.155453 10.1968 73.3991
1348892 6.33988 6.58153 30.3382 29.7817 -0.107759 9.69283 73.0412
1348912 7.14773 7.50864 29.1963 28.8562 0.0071466 8.95271 72.7088
1348921 7.14773 7.50864 29.1963 28.8562 0.0071466 8.95271 72.7088
1348931 8.10486 8.7203 28.1332 27.6676 0.0515968 8.04994 72.626
1348942 9.13223 10.0513 26.8141 26.4401 0.188106 7.05517 72.4378
1348954 9.13223 10.0513 26.8141 26.4401 0.188106 7.05517 72.4378
1348963 10.1772 11.4924 25.3376 25.1444 0.388801 5.98997 72.1516
1348977 11.547 13.264 23.5362 23.5564 0.604033 4.64822 71.9037
1348982 11.547 13.264 23.5362 23.5564 0.604033 4.64822 71.9037
1348994 13.0222 15.311 21.5084 21.6178 0.838998 3.10518 71.4594
1349002 14.4711 15.311 19.5692 19.8447 0.403002 2.08794 69.196
1349011 14.4711 17.4376 19.5692 19.8447 1.13641 1.57843 71.3226
1349026 15.9024 19.4897 17.6398 18.0132 1.39372 0.0550926 71.0451
1349032 15.9024 19.4897 17.6398 18.0132 1.39372 0.0550926 71.0451
1349042 17.3787 21.5612 15.8454 16.2988 1.63045 -1.43402 71.084
1349054 18.7638 23.3215 14.299 14.8016 1.77715 -2.7361 71.1858
1349074 19.8798 24.9262 12.8866 13.5602 2.00692 -3.86495 71.2528
1349083 19.8798 24.9262 12.8866 13.5602 2.00692 -3.86495 71.2528
1349099 20.7966 26.3558 11.6907 12.4515 2.21616 -4.84122 71.2947
1349103 21.7233 27.7466 10.701 11.5797 2.40483 -5.68409 71.7506
1349113 21.7233 27.7466 10.701 11.5797 2.40483 -5.68409 71.7506
1349123 22.5205 28.9136 9.74227 10.6984 2.55627 -6.46821 71.8748
1349133 23.2978 30.2071 8.92784 9.87402 2.71604 -7.19912 72.3067
1349146 23.2978 30.2071 8.92784 9.87402 2.71604 -7.19912 72.3067
1349153 24.2743 31.345 8.18557 9.01171 2.71119 -7.91482 72.8166
1349173 25.0018 32.3661 7.47423 8.31996 2.80545 -8.52362 73.1621
1349183 25.6196 33.2609 6.90722 7.70401 2.87043 -9.03556 73.4917
1349196 25.6196 33.2609 6.90722 7.70401 2.87043 -9.03556 73.4917
1349204 26.0481 33.8541 6.63918 7.20178 2.8371 -9.36926 73.7431
1349213 26.3171 34 6.19588 6.80379 2.82705 -9.68075 73.3168
1349235 26.4666 34 5.90722 6.42475 2.7648 -9.91805 72.7986
1349244 26.4666 34 5.90722 6.42475 2.7648 -9.91805 72.7986
1349255 26.4267 34 5.69072 6.23523 2.80493 -10.0551 72.3527
1349267 26.3869 34 5.51546 6.05518 2.83252 -10.1761 71.9575
1349274 26.3869 34 5.51546 6.05518 2.83252 -10.1761 71.9575
1349284 26.2075 34 5.35052 5.85619 2.90494 -10.2922 71.4142
1349294 25.9584 34 5.25773 5.72352 2.99812 -10.3561 70.9396
1349307 25.9584 34 5.25773 5.72352 2.99812 -10.3561 70.9396
1349314 25.6794 34 5.10309 5.63824 3.14388 -10.4241 70.4207
1349324 25.6794 34 5.10309 5.63824 3.14388 -10.4241 70.4207
1349339 25.4004 34 4.98969 5.51505 3.26335 -10.4919 69.9051
1349345 25.1911 34 5.04124 5.51505 3.32726 -10.4595 69.7474
1349366 24.9619 34 4.84536 5.43924 3.47743 -10.5444 69.2465
1349376 24.7726 34 4.83505 5.44872 3.56271 -10.5324 69.0563
1349396 24.643 34 4.75258 5.52453 3.67415 -10.5265 68.9201
1349416 24.5533 34 4.75258 5.47715 3.69685 -10.5383 68.7831
1349426 24.5932 34 4.81443 5.47715 3.65448 -10.5179 68.8848
1349437 24.5932 34 4.81443 5.47715 3.65448 -10.5179 68.8848
1349446 24.6829 34 4.7732 5.54348 3.65488 -10.5145 68.9996
1349461 24.6928 34 4.82474 5.50557 3.61762 -10.5101 69.0232
1349466 24.6928 34 4.82474 5.50557 3.61762 -10.5101 69.0232
1349475 24.7825 34 4.89691 5.64771 3.59465 -10.437 69.3272
1349486 24.7825 34 4.89691 5.64771 3.59465 -10.437 69.3272
1349496 24.8025 34 4.89691 5.69509 3.60105 -10.421 69.3945
1349510 24.9021 34 4.83505 5.7709 3.60884 -10.4224 69.5081
1349517 24.9021 34 4.83505 5.7709 3.60884 -10.4224 69.5081
1349526 24.9619 34 4.80412 5.82776 3.61445 -10.4169 69.5938
1349536 24.942 34 4.8866 5.83724 3.59167 -10.382 69.6658
1349547 24.942 34 4.8866 5.83724 3.59167 -10.382 69.6658
1349560 24.8921 34 4.90722 5.91304 3.62693 -10.3436 69.7124
1349567 24.8921 34 4.90722 5.91304 3.62693 -10.3436 69.7124
1349577 24.7227 34 4.92783 5.94147 3.69686 -10.3144 69.592
1349591 24.5832 34 4.80412 5.932 3.80292 -10.3536 69.3194
1349608 24.5832 34 4.80412 5.932 3.80292 -10.3536 69.3194
1349613 24.3242 34 4.84536 5.98885 3.91108 -10.3003 69.1584
1349622 24.2046 34 4.79381 5.97938 3.9799 -10.3145 68.9778
1349633 24.2046 34 4.79381 5.97938 3.9799 -10.3145 68.9778
1349636 24.1049 34 4.89691 6.12152 4.02168 -10.2179 69.1233
1349659 23.9654 34 4.90722 6.09309 4.0674 -10.2149 68.9657
1349668 23.8259 34 5.01031 6.29208 4.14297 -10.095 69.1283
1349684 23.8259 34 5.01031 6.29208 4.14297 -10.095 69.1283
1349689 23.6665 34 5.1134 6.33946 4.18103 -10.0291 69.1193
1349698 23.5868 34 5.23711 6.41527 4.18528 -9.95124 69.2391
1349708 23.5868 34 5.23711 6.41527 4.18528 -9.95124 69.2391
1349719 23.5768 34 5.40206 6.55741 4.16278 -9.84033 69.5363
1349733 23.5768 34 5.40206 6.55741 4.16278 -9.84033 69.5363
1349738 23.4273 34 5.54639 6.80379 4.2385 -9.69019 69.7775
1349748 23.2978 34 5.85567 7.0786 4.24491 -9.47506 70.232
1349768 22.9789 34 6.17526 7.47659 4.36157 -9.20146 70.6307
1349780 22.6501 34 6.71134 8.13043 4.46521 -8.77197 71.4918
1349789 22.6501 34 6.71134 8.13043 4.46521 -8.77197 71.4918
1349804 22.1618 34 7.58763 9.10647 4.58339 -8.12584 72.8559
1349809 22.1618 34 7.58763 9.10647 4.58339 -8.12584 72.8559
1349822 21.6336 33.9514 8.73196 10.2815 4.6473 -7.35368 74.5985
1349829 21.1454 33.4359 10.2474 11.7313 4.49793 -6.38764 76.56
1349839 21.1454 33.4359 10.2474 11.7313 4.49793 -6.38764 76.56
1349853 20.2984 32.7065 11.7526 12.8495 4.35048 -5.48974 77.6069
1349859 19.2022 31.5297 12.9897 13.7497 4.22335 -4.64544 77.4714
1349880 17.9467 29.9737 13.7526 14.2235 4.11678 -3.94174 75.8964
1349889 17.9467 29.9737 13.7526 14.2235 4.11678 -3.94174 75.8964
1349903 16.517 28.1064 14.567 14.8205 4.00037 -3.0879 74.011
1349909 15.3755 25.9085 15.5155 15.7207 3.70181 -2.07827 72.5202
1349920 15.3755 25.9085 15.5155 15.7207 3.70181 -2.07827 72.5202
1349931 14.0935 23.5646 16.8454 17.3507 3.47109 -0.722727 71.8542
1349940 13.0046 21.5223 18.3683 19.2602 3.26017 0.644749 72.1554
1349953 13.0046 21.5223 18.3683 19.2602 3.26017 0.644749 72.1554
1349961 12.1617 19.7426 19.9728 21.0819 2.97772 1.8813 72.959
1349971 12.1617 19.7426 19.9728 21.0819 2.97772 1.8813 72.959
1349981 11.3802 17.9628 21.41 22.6504 2.66443 3.00751 73.4034
1349990 10.8182 16.486 22.7487 23.9851 2.3313 3.93642 74.0379
1350011 10.2386 15.0907 24.0579 25.1444 1.99197 4.8046 74.5317
1350020 9.58884 13.6771 25.1604 26.255 1.735 5.65391 74.6814
1350033 9.58884 13.6771 25.1604 26.255 1.735 5.65391 74.6814
1350041 9.07955 12.3553 26.2334 27.0831 1.37974 6.39754 74.7513
1350053 9.07955 12.3553 26.2334 27.0831 1.37974 6.39754 74.7513
1350061 8.70196 11.2905 27.1587 27.4728 0.972429 6.96271 74.6239
1350070 8.28926 10.4827 27.7887 27.502 0.64365 7.39617 74.0626
1350081 8.28926 10.4827 27.7887 27.502 0.64365 7.39617 74.0626
1350091 7.9907 9.6933 28.2513 27.4436 0.304875 7.77012 73.3789
1350103 7.65702 9.07829 28.7336 27.4143 0.03497 8.11146 72.8833
1350112 7.65702 9.07829 28.7336 27.4143 0.03497 8.11146 72.8833
1350127 7.46384 8.68359 29.1471 27.5605 -0.125892 8.35086 72.855
1350134 7.46384 8.68359 29.1471 27.5605 -0.125892 8.35086 72.855
1350141 7.26188 8.21544 29.5999 27.7163 -0.319394 8.62142 72.7935
1350151 7.08626 8.02268 30.033 28.0865 -0.344831 8.81022 73.2285
1350175 6.96333 7.85745 30.3677 28.3106 -0.395571 8.95063 73.4991
1350182 6.87552 7.71976 30.7713 28.6126 -0.444189 9.08133 73.9792
1350192 6.87552 7.71976 30.7713 28.6126 -0.444189 9.08133 73.9792
1350203 6.82283 7.527 31.0075 28.9244 -0.464113 9.20457 74.2817
1350212 6.82283 7.527 31.0075 28.9244 -0.464113 9.20457 74.2817
1350222 6.62087 7.38013 31.1847 29.2166 -0.40618 9.35461 74.4023
1350232 6.48915 7.25162 31.293 29.5089 -0.342637 9.46997 74.5426
1350252 6.48915 7.25162 31.293 29.5089 -0.342637 9.46997 74.5426
1350273 6.1906 6.95788 31.3914 29.9473 -0.227177 9.7044 74.4872
1350285 6.12035 6.81102 31.3028 30.035 -0.194299 9.77655 74.2692
1350310 6.02376 6.67333 31.293 30.0934 -0.18561 9.85833 74.0835
1350314 5.89205 6.63661 31.5391 30.3759 -0.140575 9.95109 74.4437
1350335 5.76033 6.63661 31.5588 30.6487 -0.0113204 10.0149 74.6044
1350344 5.64618 6.51728 31.7163 30.9117 0.0222534 10.1211 74.7915
1350361 5.64618 6.51728 31.7163 30.9117 0.0222534 10.1211 74.7915
1350364 5.4969 6.37041 31.8246 31.0968 0.0487387 10.2397 74.7887
1350374 5.4969 6.37041 31.8246 31.0968 0.0487387 10.2397 74.7887
1350386 5.38275 6.32451 32.0411 31.3209 0.0737906 10.3214 75.0693
1350394 5.38275 6.196 32.1199 31.3794 0.0242293 10.3733 75.078
1350412 5.38275 6.196 32.1199 31.3794 0.0242293 10.3733 75.078
1350415 5.2686 6.12257 32.2183 31.467 0.0342071 10.4482 75.0765
1350424 5.14566 5.99406 32.238 31.5255 0.0453651 10.5384 74.9032
1350437 5.14566 5.99406 32.238 31.5255 0.0453651 10.5384 74.9032
1350444 5.15444 5.91145 32.2183 31.4865 0.00843704 10.5601 74.7707
1350462 5.15444 5.91145 32.2183 31.4865 0.00843704 10.5601 74.7707
1350464 5.10176 5.8013 32.2183 31.4963 -0.00753552 10.6164 74.6176
1350475 5.03151 5.8013 32.3069 31.506 -0.01041 10.6463 74.6457
1350486 5.03151 5.8013 32.3069 31.506 -0.01041 10.6463 74.6457
1350495 4.97882 5.7554 32.2577 31.5158 0.0116289 10.6779 74.5077
1350509 4.9876 5.77376 32.3167 31.467 -0.0213057 10.6692 74.5451
1350516 4.9876 5.77376 32.3167 31.467 -0.0213057 10.6692 74.5451
1350525 4.9876 5.81048 32.3364 31.4963 -0.00578612 10.6594 74.6308
1350536 4.9876 5.81048 32.3364 31.4963 -0.00578612 10.6594 74.6308
1350545 5.05785 5.78294 32.4349 31.5255 -0.061588 10.6522 74.8011
1350558 5.01395 5.77376 32.4841 31.4281 -0.099124 10.6676 74.6999
1350582 5.04907 5.88391 32.366 31.5158 -0.00513196 10.616 74.8147
1350585 5.15444 5.86555 32.3167 31.4281 -0.0593677 10.5781 74.7648
1350595 5.15444 5.86555 32.3167 31.4281 -0.0593677 10.5781 74.7648
1350608 5.16322 5.9757 32.2085 31.4573 0.0204951 10.5328 74.8047
1350617 5.16322 5.9757 32.2085 31.4573 0.0204951 10.5328 74.8047
1350631 5.09298 5.93898 32.0116 31.3404 0.0587583 10.5507 74.3839
1350637 5.2686 6.09503 31.7556 31.1943 0.0891685 10.4126 74.3135
1350647 5.2686 6.09503 31.7556 31.1943 0.0891685 10.4126 74.3135
1350658 5.52324 6.27862 31.3914 30.6877 0.0174701 10.2078 73.881
1350666 5.95351 6.86609 30.7221 29.9278 0.040257 9.76534 73.4695
1350681 5.95351 6.86609 30.7221 29.9278 0.040257 9.76534 73.4695
1350688 6.76136 7.82073 29.7475 28.8464 0.0540644 9.02177 73.1761
1350698 6.76136 7.82073 29.7475 28.8464 0.0540644 9.02177 73.1761
1350708 7.64824 8.88553 28.7435 27.7553 0.0852704 8.20833 73.0326
1350718 8.56147 10.0972 27.7493 26.7519 0.183949 7.34881 73.1598
1350731 8.56147 10.0972 27.7493 26.7519 0.183949 7.34881 73.1598
1350738 9.48347 11.3915 26.4893 25.4269 0.290436 6.39664 72.7912
1350755 10.7567 13.0713 24.8454 23.7318 0.414672 5.12723 72.4052
1350759 10.7567 13.0713 24.8454 23.7318 0.414672 5.12723 72.4052
1350768 12.1529 14.8796 22.9062 21.8321 0.57565 3.70049 71.7708
1350781 12.1529 14.8796 22.9062 21.8321 0.57565 3.70049 71.7708
1350788 13.4964 16.6053 21.0654 19.9908 0.714716 2.30921 71.1579
1350798 14.7169 18.1476 19.5101 18.4029 0.820667 1.06993 70.7775
1350808 14.7169 18.1476 19.5101 18.4029 0.820667 1.06993 70.7775
1350818 15.8673 19.655 18.0041 16.9431 0.967395 -0.122412 70.4695
1350834 16.8244 20.9874 16.7732 15.7302 1.10931 -1.13241 70.3152
1350838 16.8244 20.9874 16.7732 15.7302 1.10931 -1.13241 70.3152
1350848 18.0662 22.524 15.5567 14.5552 1.22212 -2.22307 70.7021
1350869 19.3318 24.1093 14.2474 13.3233 1.3566 -3.35233 71.0118
1350886 20.7169 25.6848 12.9381 12.1104 1.4486 -4.48281 71.4502
1350897 20.7169 25.6848 12.9381 12.1104 1.4486 -4.48281 71.4502
1350898 22.0422 27.0852 11.6186 10.9448 1.52366 -5.55805 71.6908
1350911 23.1483 28.4176 10.3918 9.94983 1.67834 -6.51344 71.9075
1350918 23.1483 28.4176 10.3918 9.94983 1.67834 -6.51344 71.9075
1350936 24.1448 29.4388 9.48454 9.06856 1.69055 -7.28419 72.1367
1350938 24.1448 29.4388 9.48454 9.06856 1.69055 -7.28419 72.1367
1350948 24.942 30.4113 8.65979 8.36734 1.78809 -7.94265 72.3804
1350960 25.7989 31.2283 7.97938 7.65663 1.75693 -8.54446 72.6632
1350968 25.7989 31.2283 7.97938 7.65663 1.75693 -8.54446 72.6632
1350985 26.5961 31.9868 7.29897 6.96488 1.73536 -9.12582 72.8468
1350989 27.1442 32.6093 6.75258 6.57637 1.80921 -9.52853 73.0824
1351009 27.5129 32.9691 6.40206 6.17837 1.79043 -9.83438 73.0624
1351019 27.5129 32.9691 6.40206 6.17837 1.79043 -9.83438 73.0624
1351033 27.762 33.3289 6.1134 5.96042 1.84992 -10.0493 73.1648
1351039 27.6923 33.3581 5.97938 5.76143 1.87107 -10.1612 72.7912
1351057 27.6923 33.3581 5.97938 5.76143 1.87107 -10.1612 72.7912
1351059 27.493 33.3192 5.7835 5.70457 1.98731 -10.2332 72.3003
1351071 27.2538 33.1539 5.64948 5.62876 2.05039 -10.2801 71.686
1351082 27.2538 33.1539 5.64948 5.62876 2.05039 -10.2801 71.686
1351091 27.0147 33.0761 5.68041 5.64771 2.11034 -10.2415 71.4189
1351107 27.0147 33.0761 5.68041 5.64771 2.11034 -10.2415 71.4189
1351111 26.7556 32.9497 5.64948 5.69509 2.19554 -10.2099 71.0498
1351121 26.5164 32.9983 5.60825 5.80881 2.35523 -10.1713 70.9317
1351132 26.5164 32.9983 5.60825 5.80881 2.35523 -10.1713 70.9317
1351140 26.2972 32.9497 5.60825 5.87514 2.44569 -10.1294 70.7302
1351157 25.9683 32.9497 5.6701 5.86566 2.54666 -10.0879 70.4538
1351161 25.9683 32.8913 5.6701 5.86566 2.52805 -10.0839 70.3954
1351170 25.8089 32.8524 5.71134 6.0078 2.60724 -10.0047 70.3805
1351181 25.8089 32.8524 5.71134 6.0078 2.60724 -10.0047 70.3805
1351189 25.6893 32.9983 5.75258 6.10256 2.71429 -9.95832 70.5428
1351205 25.5897 33.0761 5.72165 6.1689 2.8111 -9.94423 70.5563
1351220 25.5897 33.3679 5.75258 6.2068 2.90213 -9.94082 70.9169
1351230 25.5897 33.3679 5.75258 6.2068 2.90213 -9.94082 70.9169
1351241 25.4203 33.5235 5.72165 6.26366 3.04712 -9.93072 70.929
1351255 25.2907 33.6207 5.69072 6.29208 3.14953 -9.92929 70.8942
1351260 25.2907 33.6207 5.69072 6.29208 3.14953 -9.92929 70.8942
1351271 25.1313 33.7471 5.62887 6.35842 3.29687 -9.92535 70.8657
1351282 25.0416 34 5.70103 6.47213 3.41554 -9.87192 71.2148
1351304 24.9918 34 5.69072 6.51003 3.45103 -9.85869 71.1926
1351311 24.9918 34 5.69072 6.51003 3.45103 -9.85869 71.1926
1351321 24.932 34 5.6701 6.6427 3.52327 -9.81528 71.2448
1351330 24.8822 34 5.63918 6.6427 3.55563 -9.82244 71.1641
1351354 24.7526 34 5.57732 6.53846 3.60122 -9.87115 70.8684
1351362 24.5234 34 5.56701 6.57637 3.70963 -9.8448 70.6668
1351378 24.5234 34 5.56701 6.57637 3.70963 -9.8448 70.6668
1351383 24.3341 33.7666 5.57732 6.62375 3.7264 -9.79342 70.3018
1351393 24.2444 33.6402 5.57732 6.66165 3.73628 -9.76397 70.1236
1351404 24.2444 33.6402 5.57732 6.66165 3.73628 -9.76397 70.1236
1351413 24.2843 33.7082 5.61856 6.70903 3.73805 -9.7408 70.3201
1351433 24.2644 33.8249 5.63918 6.75641 3.78727 -9.72415 70.4849
1351443 24.2843 34 5.72165 6.82274 3.81794 -9.68673 70.8287
1351456 24.2843 34 5.72165 6.82274 3.81794 -9.68673 70.8287
1351463 24.2544 34 5.81443 6.99331 3.84329 -9.59301 71.0621
1351473 24.2544 34 5.81443 6.99331 3.84329 -9.59301 71.0621
1351483 24.2843 33.9708 5.84536 7.08807 3.83813 -9.54964 71.1886
1351493 24.1049 33.7666 5.96907 7.25864 3.85069 -9.41862 71.0992
1351504 24.1049 33.7666 5.96907 7.25864 3.85069 -9.41862 71.0992
1351513 23.8359 33.5332 6.14433 7.52397 3.89828 -9.2277 71.0374
1351527 23.3576 33.115 6.47423 7.89353 3.94434 -8.91543 70.8403
1351539 23.3576 33.115 6.47423 7.89353 3.94434 -8.91543 70.8403
1351551 22.9291 32.726 6.94845 8.39576 3.95927 -8.51646 70.9993
1351554 22.2714 31.9382 7.87629 9.28651 3.88001 -7.78595 71.3724
1351576 21.255 30.8198 9.49485 10.7363 3.73631 -6.60601 72.306
1351602 19.9795 29.1081 12.1959 13.1243 3.37903 -4.79132 74.4078
1351606 18.8535 27.4256 15.4845 16.2419 2.99003 -2.79839 78.0055
1351629 18.2157 26.2002 17.2461 18.5198 2.88663 -1.61821 80.1818
1351636 17.3886 24.7414 17.7186 19.3186 2.82719 -0.964951 79.1673
1351657 16.4117 23.0395 17.9253 19.6109 2.69959 -0.373104 76.9873
1351666 16.4117 23.0395 17.9253 19.6109 2.69959 -0.373104 76.9873
1351680 15.2789 21.1041 18.4864 20.2052 2.51215 0.461242 75.0746
1351688 14.0847 18.984 19.4904 21.4619 2.32053 1.59758 74.021
1351708 12.7412 16.6971 20.9079 23.2155 2.12862 2.99445 73.5617
1351718 11.3626 14.4849 22.542 25.2321 1.97374 4.46742 73.6216
1351738 10.1772 12.4654 24.1071 27.1318 1.7978 5.80585 73.8815
1351755 9.04442 10.7122 25.6427 28.7587 1.6127 7.00763 74.1581
1351768 8.06973 9.2068 26.9027 30.0252 1.43508 8.0153 74.2045
1351788 7.31457 8.05939 27.9658 31.1066 1.30483 8.80468 74.4464
1351799 6.66477 7.20572 28.7533 31.7885 1.20147 9.40799 74.4124
1351808 6.66477 7.20572 28.7533 31.7885 1.20147 9.40799 74.4124
1351818 6.16426 6.45302 29.3341 32.2562 1.0817 9.89919 74.2076
1351833 5.78667 5.92063 29.7672 32.6556 1.01926 10.2621 74.1301
1351838 5.78667 5.92063 29.7672 32.6556 1.01926 10.2621 74.1301
1351848 5.59349 5.56263 30.0232 32.9284 0.969651 10.4838 74.1077
1351869 5.47934 5.46166 30.1807 33.0745 0.969106 10.5762 74.1962
1351881 5.2686 5.37905 30.5547 33.3862 0.986069 10.7175 74.5886
1351889 5.2686 5.37905 30.5547 33.3862 0.986069 10.7175 74.5886
1351907 5.02273 5.05778 30.7811 33.6493 0.974089 10.9413 74.5109
1351909 4.8032 4.76404 31.0272 33.9123 0.954929 11.1478 74.5068
1351919 4.8032 4.76404 31.0272 33.9123 0.954929 11.1478 74.5068
1351934 4.6188 4.60799 31.2438 34 0.921643 11.283 74.4706
1351949 4.53099 4.53456 31.3914 34 0.877061 11.3473 74.457
1351961 4.50465 4.47948 31.5981 34 0.796667 11.3862 74.5823
1351971 4.50465 4.47948 31.5981 34 0.796667 11.3862 74.5823
1351985 4.40806 4.36015 31.6671 34 0.76746 11.4661 74.4353
1351990 4.17975 4.2041 31.8639 34 0.727436 11.6125 74.2478
1352001 4.17975 4.2041 31.8639 34 0.727436 11.6125 74.2478
1352012 3.99535 4.13985 31.982 34 0.7294 11.7072 74.1172
1352020 3.99535 4.13985 31.982 34 0.7294 11.7072 74.1172
1352035 3.89876 3.99298 32.1986 34 0.639629 11.8045 74.0903
1352041 3.77583 3.92873 32.3561 34 0.606528 11.8791 74.0607
1352050 3.77583 3.92873 32.3561 34 0.606528 11.8791 74.0607
1352061 3.6968 3.91037 32.4841 34 0.583565 11.9198 74.0912
1352070 3.5124 3.78186 32.4545 34 0.615236 12.0328 73.7488
1352086 3.5124 3.78186 32.4545 34 0.615236 12.0328 73.7488
1352092 3.52118 3.84611 32.4939 34 0.619748 12.0076 73.8612
1352100 3.52118 3.84611 32.4939 34 0.619748 12.0076 73.8612
1352113 3.49483 3.77268 32.5727 34 0.577322 12.0473 73.8402
1352121 3.43337 3.74514 32.6317 34 0.56904 12.0823 73.8102
1352137 3.43337 3.74514 32.6317 34 0.56904 12.0823 73.8102
1352141 3.39824 3.74514 32.8089 34 0.519922 12.1022 73.9523
1352150 3.34556 3.74514 32.927 34 0.497362 12.1261 74.0177
1352168 3.34556 3.64417 32.927 34 0.463891 12.1631 73.9168
1352179 3.25775 3.64417 33.0156 34 0.46362 12.1988 73.9175
1352192 3.31043 3.64417 33.0058 34 0.448871 12.1791 73.9604
1352203 3.26653 3.57991 33.1633 34 0.388494 12.2248 74.0097
1352214 3.26653 3.57991 33.1633 34 0.388494 12.2248 74.0097
1352224 3.30165 3.57073 33.2322 34 0.349805 12.2178 74.1046
1352237 3.29287 3.57991 33.2913 34 0.33567 12.2199 74.164
1352243 3.29287 3.57991 33.2913 34 0.33567 12.2199 74.164
1352253 3.29287 3.5432 33.37 34 0.296581 12.2363 74.2061
1352273 3.26653 3.58909 33.3897 34 0.314116 12.2299 74.2453
1352289 3.35434 3.65335 33.3602 34 0.31561 12.1731 74.3678
1352294 3.35434 3.65335 33.3602 34 0.31561 12.1731 74.3678
1352304 3.45971 3.74514 33.4488 34 0.280187 12.1047 74.6536
1352315 3.5124 3.82775 33.4389 34 0.293013 12.0553 74.7791
1352327 3.5124 3.82775 33.4389 34 0.293013 12.0553 74.7791
1352340 3.48605 3.88283 33.4488 34 0.316778 12.0453 74.8176
1352344 3.48605 3.88283 33.4488 34 0.316778 12.0453 74.8176
1352354 3.58264 3.80022 33.3503 34 0.290114 12.0363 74.7332
1352365 3.5563 3.93791 33.3306 34 0.351143 11.9953 74.8248
1352374 3.5563 3.93791 33.3306 34 0.351143 11.9953 74.8248
1352391 3.64411 4.0297 33.2125 33.8928 0.356352 11.9214 74.7792
1352395 3.73192 4.07559 32.9566 33.6688 0.354636 11.8532 74.4329
1352404 3.73192 4.07559 32.9566 33.6688 0.354636 11.8532 74.4329
1352418 3.95145 4.26836 32.8286 33.4934 0.32925 11.6919 74.5418
1352425 3.95145 4.26836 32.8286 33.4934 0.32925 11.6919 74.5418
1352443 4.12707 4.50702 32.6022 33.3765 0.386748 11.5284 74.6128
1352445 4.25878 4.75486 32.3758 33.1524 0.426847 11.3724 74.5419
1352455 4.25878 4.75486 32.3758 33.1524 0.426847 11.3724 74.5419
1352469 4.46074 5.03942 32.1199 32.9381 0.4684 11.1774 74.5581
1352475 4.70661 5.43413 31.6375 32.6361 0.579891 10.9118 74.4144
1352485 4.70661 5.43413 31.6375 32.6361 0.579891 10.9118 74.4144
1352497 4.96126 5.86555 31.0371 32.1977 0.697035 10.6144 74.0616
1352505 4.96126 5.86555 31.0371 32.1977 0.697035 10.6144 74.0616
1352523 5.36519 6.51728 30.2693 31.6229 0.849128 10.1681 73.7746
1352528 6.08523 7.35259 29.3439 30.941 0.971338 9.53175 73.7227
1352548 6.89308 8.31641 28.271 29.9375 1.05215 8.78511 73.418
1352557 7.74483 9.30778 27.0208 28.8756 1.17128 7.98719 72.9491
1352575 7.74483 9.30778 27.0208 28.8756 1.17128 7.98719 72.9491
1352577 8.77221 10.7214 25.7116 27.463 1.2731 6.95236 72.6683
1352600 9.84349 12.3369 24.3237 25.8946 1.40345 5.80905 72.3987
1352607 10.8533 13.7138 23.0735 24.365 1.44156 4.76451 72.0057
1352625 10.8533 13.7138 23.0735 24.365 1.44156 4.76451 72.0057
1352629 11.8719 15.2468 21.7151 22.7089 1.52659 3.62833 71.5426
1352637 13.1803 16.9816 20.0515 20.8287 1.61119 2.26308 71.0421
1352657 14.8223 19.0521 18.1911 18.8023 1.70774 0.660172 70.8678
1352677 14.8223 19.0521 18.1911 18.8023 1.70774 0.660172 70.8678
1352678 16.4644 20.9971 16.2577 16.9052 1.83375 -0.912968 70.6245
1352688 18.146 22.7672 14.6289 15.3038 1.86889 -2.32487 70.8458
1352702 18.146 22.7672 14.6289 15.3038 1.86889 -2.32487 70.8458
1352708 19.5809 24.2941 13.0825 13.9582 1.97026 -3.56077 70.9156
1352718 20.8066 25.4319 11.9588 13.0106 1.99317 -4.48036 71.2078
1352731 20.8066 25.4319 11.9588 13.0106 1.99317 -4.48036 71.2078
1352738 21.7233 26.3753 11.1753 12.1957 1.98418 -5.18984 71.4695
1352752 21.7233 26.3753 11.1753 12.1957 1.98418 -5.18984 71.4695
1352758 22.3312 27.0755 10.4845 11.5987 2.0487 -5.73301 71.4899
1352768 23.0088 27.6299 10.0515 11.1249 1.98231 -6.15378 71.8151
1352788 23.517 28.1745 9.74227 10.7079 1.94865 -6.49582 72.1417
1352805 23.9953 28.6802 9.34021 10.3478 1.96664 -6.83787 72.3635
1352811 23.9953 28.6802 9.34021 10.3478 1.96664 -6.83787 72.3635
1352821 24.3042 29.04 8.98969 9.98774 1.98207 -7.12791 72.3217
1352830 24.3042 29.04 8.98969 9.98774 1.98207 -7.12791 72.3217
1352838 24.5334 29.1957 8.72165 9.66555 1.94344 -7.35102 72.1163
1352855 24.7327 29.4291 8.41237 9.50446 2.00768 -7.54279 72.0786
1352858 24.7327 29.4291 8.41237 9.50446 2.00768 -7.54279 72.0786
1352868 25.1114 29.9153 8.13402 9.19175 2.02539 -7.8161 72.3525
1352881 25.6794 30.4502 7.73196 8.88852 2.03691 -8.1462 72.7501
1352888 25.6794 30.4502 7.73196 8.88852 2.03691 -8.1462 72.7501
1352898 26.4367 31.2477 7.2268 8.38629 2.03639 -8.6097 73.2975
1352908 26.4367 31.2477 7.2268 8.38629 2.03639 -8.6097 73.2975
1352918 27.0944 31.9479 6.6701 7.69454 2.00185 -9.12945 73.407
1352931 27.6723 32.5315 6.20619 7.18283 1.98245 -9.54199 73.5928
1352938 27.6723 32.5315 6.20619 7.18283 1.98245 -9.54199 73.5928
1352949 28.1208 33.0275 5.63918 6.6427 2.01219 -9.98222 73.4301
1352959 28.4496 33.4457 5.10309 5.83724 1.96683 -10.4938 72.8356
1352985 28.7685 33.8638 4.65979 5.23077 1.9533 -10.9086 72.5229
1352999 28.8482 34 4.27835 4.68116 1.93385 -11.2569 71.8077
1353011 28.9977 34 4.04124 4.33055 1.85362 -11.4809 71.3694
1353020 28.9977 34 4.04124 4.33055 1.85362 -11.4809 71.3694
1353037 29.0176 34 3.72165 3.98941 1.85575 -11.7293 70.7286
1353041 28.9179 34 3.6701 3.84727 1.86669 -11.7982 70.4353
1353050 28.9179 34 3.6701 3.84727 1.86669 -11.7982 70.4353
1353066 28.6489 34 3.57732 3.7146 1.9618 -11.8722 69.9408
1353070 28.6489 34 3.57732 3.7146 1.9618 -11.8722 69.9408
1353081 28.4097 34 3.54639 3.57246 2.01944 -11.9284 69.5286
1353092 28.2603 34 3.56701 3.58194 2.07273 -11.9101 69.4092
1353100 28.2603 34 3.56701 3.58194 2.07273 -11.9101 69.4092
1353116 28.1008 34 3.5567 3.59142 2.14223 -11.9033 69.2489
1353120 28.1208 34 3.57732 3.62932 2.13886 -11.8815 69.3274
1353131 28.1208 34 3.57732 3.62932 2.13886 -11.8815 69.3274
1353140 28.3101 34 3.69072 3.70513 2.04585 -11.817 69.7059
1353167 28.5193 34 3.78351 3.70513 1.92916 -11.791 70.008
1353172 28.7186 34 3.96907 3.84727 1.82872 -11.6755 70.535
1353181 28.7186 34 3.96907 3.84727 1.82872 -11.6755 70.535
1353193 28.908 34 4.06186 3.96098 1.75916 -11.6068 70.9308
1353202 29.1073 34 4.14433 4.07469 1.6905 -11.5431 71.3263
1353220 29.1073 34 4.14433 4.07469 1.6905 -11.5431 71.3263
1353222 29.1471 34 4.29897 4.26421 1.67972 -11.4176 71.7103
1353231 29.1471 34 4.29897 4.26421 1.67972 -11.4176 71.7103
1353247 29.1372 34 4.30928 4.40635 1.72572 -11.361 71.8528
1353254 29.197 34 4.42268 4.41583 1.66453 -11.3191 72.0355
1353261 29.197 34 4.42268 4.41583 1.66453 -11.3191 72.0355
1353274 29.0774 34 4.36082 4.44426 1.74106 -11.3252 71.8825
1353283 28.9777 34 4.38144 4.43478 1.76742 -11.316 71.794
1353302 28.9777 34 4.38144 4.43478 1.76742 -11.316 71.794
1353303 28.8482 34 4.29897 4.36845 1.82523 -11.3641 71.5156
1353312 28.8482 34 4.29897 4.36845 1.82523 -11.3641 71.5156
1353328 28.7087 34 4.20619 4.25474 1.87576 -11.4335 71.1696
1353333 28.6589 34 4.17526 4.17893 1.88163 -11.4707 71.013
1353343 28.6589 34 4.17526 4.17893 1.88163 -11.4707 71.013
1353353 28.5791 34 4.09278 4.10312 1.91848 -11.5259 70.775
1353363 28.5393 34 4.03093 3.94203 1.90457 -11.6078 70.5122
1353383 28.6489 34 4.02062 3.90412 1.85431 -11.6313 70.5736
1353407 28.7485 34 4.02062 3.88517 1.81023 -11.6432 70.6543
1353414 28.8781 34 4.02062 3.82832 1.74248 -11.6707 70.727
1353434 28.8781 34 4.02062 3.82832 1.74248 -11.6707 70.727
1353437 29.0973 34 4 3.80936 1.66136 -11.6959 70.9067
1353448 29.2268 34 4.02062 3.76198 1.58941 -11.712 71.0095
1353460 29.2268 34 4.02062 3.76198 1.58941 -11.712 71.0095
1353466 29.3564 34 4.06186 3.80936 1.54123 -11.6848 71.2276
1353475 29.3564 34 4.06186 3.80936 1.54123 -11.6848 71.2276
1353487 29.4859 34 4.17526 3.74303 1.42913 -11.6732 71.4042
1353494 29.5756 34 4.15464 3.86622 1.44419 -11.6391 71.5965
1353515 29.5358 34 4.14433 3.82832 1.45026 -11.6552 71.5084
1353526 29.4361 33.9319 4.18557 3.80936 1.44319 -11.639 71.363
1353537 29.4361 33.9319 4.18557 3.80936 1.44319 -11.639 71.363
1353545 29.187 33.7471 4.16495 3.83779 1.49182 -11.6156 70.9369
1353566 28.9379 33.611 4.15464 3.84727 1.54702 -11.5974 70.5508
1353577 28.7087 33.4748 4.2268 3.9136 1.58301 -11.5273 70.3239
1353596 28.5492 33.3873 4.23711 3.92308 1.61349 -11.5076 70.0967
1353615 28.609 33.3581 4.36082 3.98941 1.5564 -11.4375 70.3174
1353616 28.609 33.3581 4.36082 3.98941 1.5564 -11.4375 70.3174
1353627 28.6589 33.2122 4.50515 4.1126 1.47571 -11.3323 70.4888
1353640 28.6589 33.2122 4.50515 4.1126 1.47571 -11.3323 70.4888
1353647 28.5592 33.0372 4.65979 4.23579 1.43774 -11.2142 70.492
1353656 28.5094 32.8816 4.94845 4.49164 1.38195 -11.0017 70.8311
1353677 28.2802 32.7162 5.18557 4.59588 1.3586 -10.854 70.7779
1353692 28.1208 32.512 5.56701 4.8612 1.29658 -10.5975 71.061
1353697 28.1208 32.512 5.56701 4.8612 1.29658 -10.5975 71.061
1353707 27.9314 32.2689 6.09278 5.22129 1.21163 -10.2538 71.5144
1353727 27.6225 32.016 6.56701 5.40134 1.12693 -9.98581 71.6069
1353745 27.3734 31.7632 7.19588 5.7709 1.02797 -9.60492 72.1033
1353758 27.1143 31.5006 7.83505 6.12152 0.920725 -9.23055 72.5714
1353770 26.6161 31.2088 8.90722 6.80379 0.846297 -8.59047 73.5359
1353778 26.6161 31.2088 8.90722 6.80379 0.846297 -8.59047 73.5359
1353797 25.8488 30.849 10.2165 7.52397 0.77503 -7.85026 74.4382
1353799 24.8324 30.3335 11.7423 8.51895 0.754985 -6.9414 75.4271
1353823 23.527 29.8181 13.4639 9.6845 0.820887 -5.92141 76.4935
1353830 23.527 29.8181 13.4639 9.6845 0.820887 -5.92141 76.4935
1353840 22.112 28.8942 14.9588 10.7553 0.840306 -4.945 76.7202
1353850 20.5176 27.6201 16.2268 11.864 0.898528 -3.94477 76.2285
1353860 20.5176 27.6201 16.2268 11.864 0.898528 -3.94477 76.2285
1353873 18.704 25.9765 17.3445 13.0106 0.979075 -2.86372 75.0356
1353880 16.8244 23.8467 18.6144 14.5457 1.00014 -1.52598 73.8311
1353890 16.8244 23.8467 18.6144 14.5457 1.00014 -1.52598 73.8311
1353901 15.2965 21.6098 20.0811 16.5546 0.947386 -0.0552008 73.542
1353923 13.6896 19.3049 21.6856 19.0946 1.02485 1.58299 73.7746
1353930 12.3373 16.9174 23.4181 21.9003 1.02662 3.23113 74.573
1353950 11.0026 14.7878 25.0127 24.2092 0.99372 4.68554 75.0123
1353962 9.90496 12.851 26.3318 25.9433 0.852144 5.90139 75.031
1353972 9.90496 12.851 26.3318 25.9433 0.852144 5.90139 75.031
1353983 8.93027 11.1895 27.4146 27.2585 0.70298 6.92979 74.7928
1353998 8.93027 11.1895 27.4146 27.2585 0.70298 6.92979 74.7928
1354002 8.13998 9.85853 28.4777 28.3983 0.547293 7.78853 74.8745
1354012 7.46384 8.75702 29.2554 29.4115 0.483817 8.50192 74.8877
1354023 7.46384 8.75702 29.2554 29.4115 0.483817 8.50192 74.8877
1354031 6.87552 7.82991 30.0035 29.996 0.316882 9.09459 74.7049
1354047 6.42769 7.12311 30.6335 30.5415 0.201905 9.55979 74.7258
1354052 6.42769 7.12311 30.6335 30.5415 0.201905 9.55979 74.7258
1354074 6.12035 6.67333 31.1355 30.9507 0.122929 9.87432 74.8799
1354098 5.94473 6.40713 31.4997 31.2527 0.0717044 10.0661 75.1043
1354099 5.94473 6.40713 31.4997 31.2527 0.0717044 10.0661 75.1043
1354104 5.79545 6.14093 31.736 31.5158 0.0416577 10.2374 75.1881
1354123 5.57593 5.83801 31.982 31.7885 0.0228018 10.4456 75.1845
1354124 5.38275 5.60853 32.2675 32.1393 0.0323355 10.6267 75.3981
1354134 5.38275 5.60853 32.2675 32.1393 0.0323355 10.6267 75.3981
1354148 5.1281 5.3148 32.366 32.4315 0.083819 10.8362 75.2404
1354154 4.87345 4.99352 32.5431 32.7335 0.103286 11.0608 75.1436
1354176 4.5749 4.70896 32.6219 32.9089 0.1407 11.2773 74.8146
1354202 4.39928 4.44276 32.6514 33.0745 0.156423 11.4427 74.568
1354204 4.21488 4.35097 32.681 33.3181 0.259238 11.5537 74.5648
1354227 4.12707 4.2959 32.6514 33.4934 0.338891 11.6113 74.5678
1354234 3.89876 4.25 32.553 33.8052 0.538009 11.7189 74.5069
1354253 3.89876 4.25 32.553 33.8052 0.538009 11.7189 74.5069
1354254 3.86364 4.21328 32.6022 34 0.584984 11.7554 74.6791
1354280 3.74948 4.17657 32.5235 34 0.639236 11.8061 74.4495
1354286 3.62655 4.03888 32.5235 34 0.636506 11.9003 74.1889
1354294 3.62655 4.03888 32.5235 34 0.636506 11.9003 74.1889
1354306 3.5124 4.00216 32.4349 34 0.694698 11.9515 73.9494
1354315 3.3719 3.89201 32.3463 34 0.738299 12.0396 73.6102
1354332 3.3719 3.89201 32.3463 34 0.738299 12.0396 73.6102
1354335 3.31043 3.78186 32.2085 34 0.771809 12.0973 73.3008
1354357 3.19628 3.69924 32.1297 34 0.81248 12.1672 73.0252
1354365 3.15238 3.69924 32.0608 34 0.852418 12.1809 72.9124
1354385 3.09091 3.68089 31.982 34 0.896147 12.2077 72.7538
1354396 3.0031 3.58909 32.0017 34 0.889969 12.2757 72.5939
1354411 3.0031 3.58909 32.0017 34 0.889969 12.2757 72.5939
1354417 3.02944 3.53402 31.9328 34 0.886852 12.2839 72.4963
1354427 3.02944 3.53402 31.9328 34 0.886852 12.2839 72.4963
1354438 2.96798 3.46976 31.9624 34 0.876871 12.3324 72.4001
1354447 2.99432 3.46976 32.0017 34 0.853401 12.3239 72.4658
1354464 2.99432 3.46976 32.0017 34 0.853401 12.3239 72.4658
1354467 3.13481 3.59827 31.8246 34 0.909245 12.2161 72.5576
1354477 3.17872 3.77268 31.608 34 1.0288 12.1259 72.5594
1354490 3.17872 3.77268 31.608 34 1.0288 12.1259 72.5594
1354496 3.21384 3.90119 31.3914 34 1.13642 12.0561 72.5065
1354517 3.27531 4.18575 31.2142 34 1.27147 11.9201 72.6753
1354526 3.34556 4.34179 31.0174 34 1.36816 11.828 72.7047
1354547 3.35434 4.54374 30.7516 34 1.52712 11.7386 72.6497
1354556 3.35434 4.54374 30.7516 34 1.52712 11.7386 72.6497
1354568 3.52118 4.77322 30.3874 34 1.67328 11.5764 72.6818
1354577 3.61777 5.06695 30.0724 34 1.84752 11.419 72.7571
1354594 3.61777 5.06695 30.0724 34 1.84752 11.419 72.7571
1354597 3.78461 5.58099 29.5408 34 2.14507 11.1462 72.9064
1354606 4.08316 6.15929 29.1372 34 2.36404 10.8126 73.3797
1354620 4.08316 6.15929 29.1372 34 2.36404 10.8126 73.3797
1354628 4.32025 6.68251 28.6549 34 2.61594 10.5187 73.6576
1354644 4.32025 6.68251 28.6549 34 2.61594 10.5187 73.6576
1354648 4.5749 7.18737 28.1922 33.9708 2.83766 10.2267 73.9253
1354658 5.05785 8.05939 27.6115 33.4447 2.97774 9.69463 74.1734
1354669 5.05785 8.05939 27.6115 33.4447 2.97774 9.69463 74.1734
1354678 5.53202 8.75702 26.883 32.5874 3.02651 9.18825 73.7595
1354694 6.16426 9.68412 26.0463 31.7593 3.13386 8.5448 73.654
1354708 6.93698 10.8224 25.121 30.6292 3.19468 7.75223 73.5096
1354719 6.93698 10.8224 25.121 30.6292 3.19468 7.75223 73.5096
1354728 7.84143 12.0432 24.1268 29.3822 3.22139 6.87207 73.3937
1354744 8.69318 13.3375 23.2212 28.2034 3.27632 6.00242 73.4553
1354750 8.69318 13.3375 23.2212 28.2034 3.27632 6.00242 73.4553
1354759 9.53616 14.5216 22.2171 26.9662 3.32276 5.14579 73.2411
1354769 10.4757 15.8985 21.2918 25.6802 3.34412 4.21245 73.3463
1354779 10.4757 15.8985 21.2918 25.6802 3.34412 4.21245 73.3463
1354795 11.2397 17.0778 20.1992 24.3066 3.41427 3.33444 72.8233
1354809 12.0914 18.3324 19.205 22.9817 3.4491 2.42999 72.6104
1354821 13.0925 19.6745 18.073 21.6178 3.49405 1.43334 72.4577
1354830 13.0925 19.6745 18.073 21.6178 3.49405 1.43334 72.4577
1354845 14.3042 21.4153 16.5567 19.7278 3.57001 0.117688 72.0041
1354850 15.6741 23.2923 14.8969 17.7307 3.64976 -1.32808 71.594
1354861 15.6741 23.2923 14.8969 17.7307 3.64976 -1.32808 71.594
1354870 17.1694 25.1499 13.2577 15.8818 3.71003 -2.76657 71.4588
1354880 18.7339 26.7838 11.7526 14.1572 3.65913 -4.11772 71.4274
1354895 18.7339 26.7838 11.7526 14.1572 3.65913 -4.11772 71.4274
1354900 20.2984 28.4176 10.4227 12.641 3.60046 -5.36063 71.7797
1354910 20.2984 28.4176 10.4227 12.641 3.60046 -5.36063 71.7797
1354920 21.3646 29.4096 9.3299 11.2954 3.50511 -6.33384 71.3995
1354931 22.1917 30.1487 8.49485 10.3478 3.44536 -7.05879 71.1831
1354950 22.7696 30.6934 7.94845 9.63712 3.38233 -7.57455 71.0486
1354960 23.2978 28.5732 7.5567 9.04961 2.47102 -7.72475 68.4773
1354971 23.2978 31.0629 7.5567 9.04961 3.2614 -7.97999 70.967
1354980 23.8857 31.3936 7.3299 8.59476 3.08015 -8.29054 71.2039
1354996 23.8857 31.3936 7.3299 8.59476 3.08015 -8.29054 71.2039
1355001 24.4736 31.6173 7.06186 8.16834 2.8919 -8.59368 71.3211
1355010 25.0117 31.7632 6.92783 7.76087 2.65326 -8.83377 71.4636
1355021 25.0117 31.7632 6.92783 7.76087 2.65326 -8.83377 71.4636
1355030 25.4302 31.7826 6.72165 7.46711 2.48518 -9.03847 71.4016
1355050 25.7691 31.841 6.63918 7.18283 2.31534 -9.19504 71.432
1355060 26.2673 31.9382 6.49485 6.90803 2.12409 -9.38493 71.6084
1355071 26.2673 31.9382 6.49485 6.90803 2.12409 -9.38493 71.6084
1355080 26.6858 32.0744 6.26804 6.61427 2.00118 -9.60559 71.6425
1355095 27.0944 32.2397 6.07217 6.30156 1.87383 -9.82327 71.7078
1355111 27.5428 32.4634 5.8866 5.9699 1.74078 -10.0504 71.8627
1355132 27.8318 32.6676 5.70103 5.67614 1.67334 -10.2514 71.8766
1355145 28.0909 33.0177 5.39175 5.39186 1.71332 -10.5001 71.8922
1355152 28.0909 33.0177 5.39175 5.39186 1.71332 -10.5001 71.8922
1355170 28.3798 33.3387 5.15464 5.16444 1.72432 -10.7026 72.0376
1355171 28.5791 33.611 5.03093 4.88016 1.69244 -10.8762 72.1012
1355196 28.5692 33.8055 4.7835 4.72854 1.80192 -11.0304 71.8867
1355203 28.5692 33.8055 4.7835 4.72854 1.80192 -11.0304 71.8867
1355220 28.4894 34 4.58763 4.5864 1.92194 -11.1595 71.6635
1355223 28.4596 34 4.39175 4.34002 1.92745 -11.3204 71.1913
1355245 28.4795 34 4.24742 4.23579 1.94077 -11.4137 70.9627
1355263 28.3798 34 4.07217 4.10312 2.00238 -11.5239 70.5551
1355278 28.3001 34 4.05155 3.97993 2.00062 -11.5742 70.3316
