4161290 7.17391 9.0511 4.97969 4.09796 0.983551 -4.23712 25.3027
4161300 7.11304 8.92033 5.04246 4.21024 0.964031 -4.02238 25.2861
4161310 7.11304 8.92033 5.04246 4.21024 0.964031 -4.02238 25.2861
4161322 6.88696 8.69615 5.32492 4.388 0.862068 -3.48089 25.296
4161330 6.71304 8.39725 5.712 4.70611 0.664279 -2.75704 25.5284
4161342 6.71304 8.39725 5.712 4.70611 0.664279 -2.75704 25.5284
4161350 6.37391 8.03297 6.37108 5.27683 0.54194 -1.58837 26.0548
4161370 5.93043 7.56593 7.344 6.04403 0.312009 -0.0604472 26.8844
4161381 5.36522 7.12692 8.64123 6.86736 -0.010854 1.61592 28.0007
4161390 5.36522 7.12692 8.64123 6.86736 -0.010854 1.61592 28.0007
4161402 5.11304 6.72527 8.91323 7.37259 0.0636369 2.37208 28.1241
4161410 4.73913 6.25824 8.96554 7.3071 -0.127728 2.90169 27.27
4161421 4.73913 6.25824 8.96554 7.3071 -0.127728 2.90169 27.27
4161430 4.50435 5.94066 8.87138 7.27903 -0.146681 3.21789 26.5954
4161450 4.33043 5.66044 8.80862 7.19483 -0.272928 3.46955 25.9943
4161463 4.14783 5.3522 9.08062 7.40066 -0.457622 4.03054 25.9813
4161472 4.14783 5.3522 9.08062 7.40066 -0.457622 4.03054 25.9813
4161483 3.92174 4.99725 9.39446 7.9246 -0.375739 4.80223 26.2381
4161491 3.62609 4.60495 9.87569 8.50468 -0.368409 5.72086 26.6114
4161502 3.62609 4.60495 9.87569 8.50468 -0.368409 5.72086 26.6114
4161511 3.33913 4.16593 10.4825 9.21574 -0.404288 6.72335 27.2033
4161521 3.33913 4.16593 10.4825 9.21574 -0.404288 6.72335 27.2033
4161531 3.05217 3.7456 10.7649 9.66483 -0.373392 7.51003 27.2275
4161541 2.7913 3.39066 10.9428 10.0017 -0.314975 8.16315 27.1264
4161551 2.7913 3.39066 10.9428 10.0017 -0.314975 8.16315 27.1264
4161561 2.52174 3.0544 11.2775 10.3665 -0.347485 8.85442 27.2202
4161571 2.17391 2.71813 11.5495 10.5537 -0.418277 9.56344 26.9952
4161582 2.17391 2.71813 11.5495 10.5537 -0.418277 9.56344 26.9952
4161593 1.91304 2.42857 11.7483 10.8063 -0.396435 10.1574 26.8962
4161603 1.91304 2.42857 11.7483 10.8063 -0.396435 10.1574 26.8962
4161613 1.70435 2.21374 11.8529 10.8437 -0.469512 10.5835 26.6147
4161623 1.6 2.08297 11.8843 10.8343 -0.536898 10.8151 26.4016
4161632 1.6 2.08297 11.8843 10.8343 -0.536898 10.8151 26.4016
4161643 1.46087 2.01758 12.0203 10.956 -0.479709 11.0554 26.4547
4161652 1.46087 2.01758 12.0203 10.956 -0.479709 11.0554 26.4547
4161662 1.46957 1.9522 12.1772 11.115 -0.542386 11.1573 26.714
4161675 1.28696 1.86813 12.5015 11.3676 -0.511323 11.4975 27.0243
4161682 1.28696 1.86813 12.5015 11.3676 -0.511323 11.4975 27.0243
4161692 1.17391 1.7467 12.7631 11.4986 -0.636132 11.7766 27.1823
4161702 1.09565 1.67198 12.8991 11.4893 -0.76731 11.9425 27.156
4161712 1.09565 1.67198 12.8991 11.4893 -0.76731 11.9425 27.156
4161722 0.973913 1.55989 12.7422 11.3864 -0.721829 12.149 26.6623
4161743 0.878261 1.55055 12.7108 11.3583 -0.641748 12.2502 26.4979
4161753 0.886957 1.45714 12.6794 11.377 -0.693361 12.3363 26.4005
4161763 0.886957 1.45714 12.6794 11.377 -0.693361 12.3363 26.4005
4161773 0.886957 1.39176 12.6062 11.4238 -0.643872 12.4016 26.3086
4161782 0.782609 1.42912 12.5852 11.4799 -0.436512 12.4749 26.2769
4161792 0.782609 1.42912 12.5852 11.4799 -0.436512 12.4749 26.2769
4161811 0.86087 1.37308 12.4178 11.4612 -0.425497 12.4335 26.113
4161815 0.86087 1.37308 12.4178 11.4612 -0.425497 12.4335 26.113
4161824 0.791304 1.39176 12.1458 11.3957 -0.145471 12.4541 25.7246
4161835 0.791304 1.42912 12.104 11.3957 -0.0685021 12.4101 25.7201
4161844 0.791304 1.42912 12.104 11.3957 -0.0685021 12.4101 25.7201
4161854 0.869565 1.56923 12.2714 11.4612 -0.10557 12.2044 26.1714
4161864 1.06957 1.72802 12.4492 11.5548 -0.220148 11.8686 26.8016
4161884 1.31304 1.90549 12.3865 11.4986 -0.272459 11.4375 27.1036
4161895 1.50435 1.90549 12.0098 11.1992 -0.384566 11.157 26.6189
4161905 1.50435 1.9989 12.0098 11.1992 -0.295803 11.0656 26.7123
4161915 1.78261 2.15769 11.7692 10.9747 -0.392988 10.5701 26.6842
4161925 1.78261 2.15769 11.7692 10.9747 -0.392988 10.5701 26.6842
4161935 1.94783 2.31648 11.424 10.7408 -0.297551 10.1595 26.4291
4161945 2.14783 2.40989 11.2671 10.563 -0.418751 9.81838 26.3878
4161955 2.14783 2.40989 11.2671 10.563 -0.418751 9.81838 26.3878
4161965 2.32174 2.55934 11.1206 10.404 -0.453548 9.45451 26.4057
4161975 2.32174 2.55934 11.1206 10.404 -0.453548 9.45451 26.4057
4161985 2.38261 2.67143 10.9637 10.2449 -0.409293 9.22674 26.2626
4161995 2.49565 2.72747 10.8905 10.0859 -0.546564 9.0192 26.1994
4162005 2.49565 2.72747 10.8905 10.0859 -0.546564 9.0192 26.1994
4162015 2.6087 2.83022 10.7754 9.94551 -0.581375 8.76267 26.1598
4162025 2.63478 3.00769 10.8172 9.90809 -0.508414 8.58027 26.3678
4162035 2.63478 3.00769 10.8172 9.90809 -0.508414 8.58027 26.3678
4162048 2.70435 3.01703 10.8486 9.96423 -0.538647 8.53132 26.5342
4162055 2.70435 3.01703 10.8486 9.96423 -0.538647 8.53132 26.5342
4162067 2.66957 2.97033 10.8591 9.90809 -0.615576 8.59274 26.4071
4162075 2.73043 3.01703 10.7858 9.89873 -0.56798 8.4767 26.432
4162095 2.69565 3.04505 10.6812 9.73032 -0.575003 8.41467 26.1523
4162105 2.76522 3.07308 10.608 9.74904 -0.525954 8.31374 26.1953
4162115 2.76522 3.07308 10.608 9.74904 -0.525954 8.31374 26.1953
4162125 2.8087 3.16648 10.5138 9.72097 -0.415005 8.1608 26.21
4162135 2.8087 3.16648 10.5138 9.72097 -0.415005 8.1608 26.21
4162145 2.83478 3.18516 10.4197 9.67419 -0.378267 8.08418 26.1138
4162155 2.88696 3.30659 10.3465 9.56192 -0.349505 7.8815 26.1019
4162165 2.88696 3.30659 10.3465 9.56192 -0.349505 7.8815 26.1019
4162175 2.9913 3.37198 10.3151 9.42157 -0.491218 7.68586 26.0999
4162185 3.08696 3.39066 10.2314 9.35608 -0.548244 7.54449 26.0651
4162195 3.08696 3.39066 10.2314 9.35608 -0.548244 7.54449 26.0651
4162205 3.13913 3.49341 10.1477 9.29994 -0.473033 7.3706 26.0802
4162216 3.13913 3.49341 10.1477 9.29994 -0.473033 7.3706 26.0802
4162226 3.13043 3.56813 10.0535 9.2251 -0.376049 7.2641 25.9772
4162236 3.30435 3.68956 9.95938 9.05669 -0.497392 6.9332 26.01
4162256 3.38261 3.81099 9.84431 8.81343 -0.582658 6.65196 25.8513
4162266 3.48696 4.05385 9.66646 8.57953 -0.504176 6.22713 25.7868
4162276 3.48696 4.05385 9.66646 8.57953 -0.504176 6.22713 25.7868
4162286 3.74783 4.32473 9.41538 8.38305 -0.440104 5.63907 25.871
4162306 3.90435 4.62363 9.14338 8.11172 -0.302896 5.07724 25.7831
4162316 4.21739 4.92253 8.704 7.83104 -0.163414 4.32043 25.675
4162326 4.21739 4.92253 8.704 7.83104 -0.163414 4.32043 25.675
4162336 4.56522 5.29615 8.27508 7.53165 -0.0121698 3.47436 25.6681
4162346 4.83478 5.63242 7.96123 7.22289 0.0577927 2.75829 25.6513
4162356 4.83478 5.63242 7.96123 7.22289 0.0577927 2.75829 25.6513
4162366 5.2087 6.14615 7.49046 6.79252 0.233555 1.71317 25.6378
4162376 5.2087 6.14615 7.49046 6.79252 0.233555 1.71317 25.6378
4162386 5.57391 6.53846 7.05108 6.32471 0.23362 0.74353 25.4882
4162396 5.91304 7.08022 6.60123 5.91304 0.469458 -0.281675 25.5075
4162418 6.33043 7.58462 6.21415 5.4546 0.483337 -1.31703 25.5838
4162427 6.33043 7.58462 6.21415 5.4546 0.483337 -1.31703 25.5838
4162437 6.56522 7.9489 5.81662 5.02422 0.583005 -2.17312 25.3549
4162452 6.86957 8.2478 5.50277 4.73418 0.601128 -2.88733 25.3543
4162458 6.86957 8.2478 5.50277 4.73418 0.601128 -2.88733 25.3543
4162467 7.06957 8.50934 5.27262 4.46285 0.622186 -3.46252 25.3144
4162477 7.30435 8.78022 5.00062 4.35993 0.82058 -3.96384 25.4451
4162487 7.30435 8.78022 5.00062 4.35993 0.82058 -3.96384 25.4451
4162497 7.43478 8.96703 4.85415 4.03247 0.702462 -4.45768 25.2884
4162508 7.43478 8.96703 4.85415 4.03247 0.702462 -4.45768 25.2884
4162518 7.61739 9.20989 4.70769 3.89213 0.763887 -4.85356 25.4271
4162527 7.77391 9.41538 4.624 3.76114 0.761127 -5.16384 25.5744
4162548 7.93043 9.57418 4.46708 3.59274 0.752413 -5.54176 25.5644
4162559 8.09565 9.79835 4.32062 3.57402 0.926867 -5.81615 25.7886
4162569 8.09565 9.79835 4.32062 3.57402 0.926867 -5.81615 25.7886
4162579 8.24348 9.96648 4.24738 3.48982 0.930196 -6.05428 25.9472
4162589 8.24348 9.96648 4.24738 3.48982 0.930196 -6.05428 25.9472
4162599 8.32174 10.0038 4.20554 3.36819 0.815427 -6.22711 25.8993
4162609 8.38261 10.0599 4.10092 3.34012 0.885198 -6.37555 25.8835
4162620 8.38261 10.0599 4.10092 3.34012 0.885198 -6.37555 25.8835
4162629 8.35652 10.0973 4.01723 3.26527 0.960487 -6.51101 25.7363
4162639 8.33913 10.144 3.93354 3.22785 1.07151 -6.6223 25.6445
4162659 8.34783 10.1907 3.83938 3.17171 1.14988 -6.76766 25.5496
4162670 8.22609 10.0412 3.76615 3.14364 1.18422 -6.76657 25.1771
4162680 8.22609 10.0412 3.76615 3.14364 1.18422 -6.76657 25.1771
4162690 8.2087 10.0319 3.808 3.10622 1.11449 -6.75399 25.1548
4162710 8.15652 9.9478 3.69292 3.05008 1.1555 -6.85868 24.8473
4162720 8.17391 9.97582 3.64062 2.99395 1.16529 -6.96924 24.7843
4162730 8.17391 9.97582 3.64062 2.99395 1.16529 -6.96924 24.7843
4162740 8.13913 9.9478 3.63015 2.9191 1.11382 -7.02484 24.6362
4162750 8.08696 9.95714 3.64062 2.99395 1.23945 -6.93486 24.6787
4162760 8.08696 9.95714 3.64062 2.99395 1.23945 -6.93486 24.6787
4162770 8.09565 9.92912 3.66154 2.94717 1.13575 -6.95156 24.6335
4162780 8.09565 9.92912 3.66154 2.94717 1.13575 -6.95156 24.6335
4162790 8.13043 9.88242 3.65108 2.93781 1.05553 -6.96534 24.6017
4162800 8.09565 9.92912 3.672 2.92845 1.10651 -6.95891 24.6252
4162810 8.09565 9.92912 3.672 2.92845 1.10651 -6.95891 24.6252
4162820 8.06956 9.92912 3.69292 3.04073 1.22043 -6.83217 24.7323
4162831 8.06956 9.92912 3.69292 3.04073 1.22043 -6.83217 24.7323
4162840 8.05217 9.81703 3.72431 2.99395 1.05186 -6.80283 24.5875
4162851 8.08696 9.74231 3.76615 2.94717 0.85195 -6.79387 24.5426
4162862 8.08696 9.74231 3.76615 2.94717 0.85195 -6.79387 24.5426
4162871 8.14783 9.80769 3.74523 2.99395 0.919816 -6.81301 24.6947
4162882 8.13913 9.82637 3.81846 2.98459 0.861347 -6.76005 24.7686
4162891 8.13913 9.82637 3.81846 2.98459 0.861347 -6.76005 24.7686
4162902 8.09565 9.86374 3.808 2.95652 0.92684 -6.79193 24.7239
4162911 8.09565 9.86374 3.808 2.95652 0.92684 -6.79193 24.7239
4162922 8.10435 9.78901 3.88123 3.02201 0.832215 -6.64816 24.7966
4162933 8.16522 9.81703 3.92308 3.09686 0.82553 -6.57681 25.0022
4162941 8.16522 9.81703 3.92308 3.09686 0.82553 -6.57681 25.0022
4162951 8.26087 9.81703 4.00677 3.05008 0.596261 -6.57718 25.1348
4162963 8.33913 9.81703 3.98585 3.13429 0.619501 -6.54924 25.2763
4162971 8.33913 9.81703 3.98585 3.13429 0.619501 -6.54924 25.2763
4162984 8.35652 9.89176 4.12185 3.13429 0.536847 -6.46485 25.5044
4162991 8.35652 9.89176 4.12185 3.13429 0.536847 -6.46485 25.5044
4163003 8.29565 9.76099 4.11138 3.14364 0.49147 -6.40117 25.3117
4163011 8.35652 9.8544 4.13231 3.18107 0.535405 -6.40422 25.5243
4163022 8.35652 9.8544 4.13231 3.18107 0.535405 -6.40422 25.5243
4163032 8.36522 9.86374 4.15323 3.14364 0.478858 -6.42413 25.5258
4163041 8.44348 9.8544 4.12185 3.18107 0.459105 -6.44216 25.6008
4163052 8.44348 9.8544 4.12185 3.18107 0.459105 -6.44216 25.6008
4163063 8.42609 9.82637 4.09046 3.19042 0.489801 -6.44544 25.5333
4163072 8.42609 9.82637 4.09046 3.19042 0.489801 -6.44544 25.5333
4163091 8.32174 9.77033 4.13231 3.13429 0.444201 -6.40342 25.3587
4163093 8.33913 9.73297 4.13231 3.02201 0.281 -6.49187 25.2264
4163104 8.33913 9.73297 4.13231 3.02201 0.281 -6.49187 25.2264
4163114 8.32174 9.73297 4.01723 3.11558 0.505778 -6.50435 25.1875
4163124 8.15652 9.65824 4.06954 3.08751 0.520274 -6.40185 24.9718
4163136 8.15652 9.65824 4.06954 3.08751 0.520274 -6.40185 24.9718
4163144 8.2 9.6489 4.01723 3.06879 0.501773 -6.47458 24.9349
4163154 8.2 9.6489 4.01723 3.06879 0.501773 -6.47458 24.9349
4163164 8.15652 9.58352 4.06954 3.09686 0.456026 -6.36801 24.9064
4163174 8.24348 9.62088 4.12185 3.14364 0.397137 -6.32646 25.1298
4163184 8.24348 9.62088 4.12185 3.14364 0.397137 -6.32646 25.1298
4163194 8.26957 9.65824 4.12185 3.14364 0.407326 -6.34831 25.1933
4163204 8.25217 9.66758 4.18462 3.18107 0.407207 -6.26096 25.2854
4163214 8.25217 9.66758 4.18462 3.18107 0.407207 -6.26096 25.2854
4163224 8.35652 9.75165 4.32062 3.2372 0.303626 -6.16595 25.666
4163234 8.35652 9.75165 4.32062 3.2372 0.303626 -6.16595 25.666
4163245 8.41739 9.77033 4.33108 3.24656 0.260445 -6.17695 25.7654
4163254 8.36522 9.79835 4.36246 3.3027 0.361389 -6.09694 25.8287
4163264 8.36522 9.79835 4.36246 3.3027 0.361389 -6.09694 25.8287
4163274 8.4 9.73297 4.41477 3.3027 0.213626 -6.04371 25.8504
4163284 8.28696 9.6956 4.41477 3.31205 0.297487 -5.98366 25.7094
4163294 8.28696 9.6956 4.41477 3.31205 0.297487 -5.98366 25.7094
4163304 8.22609 9.59286 4.41477 3.33077 0.276524 -5.91059 25.5645
4163314 8.22609 9.59286 4.41477 3.33077 0.276524 -5.91059 25.5645
4163324 8.16522 9.41538 4.44615 3.28398 0.0869185 -5.83772 25.3107
4163334 8.05217 9.44341 4.41477 3.35883 0.331724 -5.77105 25.2692
4163345 8.05217 9.44341 4.41477 3.35883 0.331724 -5.77105 25.2692
4163356 7.96522 9.35 4.37292 3.40561 0.415915 -5.70063 25.0938
4163365 7.73913 9.20055 4.47754 3.43368 0.420067 -5.44958 24.8509
4163375 7.73913 9.20055 4.47754 3.43368 0.420067 -5.44958 24.8509
4163385 7.69565 9.03242 4.63446 3.58338 0.286305 -5.11721 24.9459
4163405 7.52174 8.90165 4.94831 3.80793 0.23782 -4.56748 25.1796
4163415 7.50435 8.74286 5.45046 4.11668 -0.092271 -3.8816 25.8143
4163435 7.29565 8.61209 6.00492 4.63126 -0.053896 -2.97896 26.5439
4163446 7.0087 8.39725 6.8 5.27683 -0.12245 -1.81702 27.4828
4163456 7.0087 8.39725 6.8 5.27683 -0.12245 -1.81702 27.4828
4163466 6.49565 7.96758 7.65785 5.94111 -0.21809 -0.461979 28.0622
4163486 5.85217 7.16429 8.568 6.58668 -0.593875 1.13852 28.1711
4163496 5.04348 6.27692 9.32123 7.43808 -0.578442 2.90543 28.0797
4163516 4.25217 5.30549 10.1268 8.51403 -0.495961 4.83172 28.1985
4163526 3.56522 4.39011 10.7545 9.39351 -0.476868 6.50776 28.1033
4163536 3.56522 4.39011 10.7545 9.39351 -0.476868 6.50776 28.1033
4163546 2.97391 3.62418 11.0997 10.011 -0.395562 7.85632 27.7088
4163566 2.43478 2.95165 11.4449 10.4882 -0.402543 9.08507 27.3195
4163576 1.96522 2.41923 11.7483 10.9747 -0.294763 10.1477 27.1074
4163588 1.96522 2.41923 11.7483 10.9747 -0.294763 10.1477 27.1074
4163597 1.69565 2.19506 12.0203 11.2179 -0.279188 10.6975 27.129
4163608 1.43478 1.84011 12.0622 11.2273 -0.404234 11.3016 26.5643
4163628 1.28696 1.7 12.0831 11.3209 -0.330772 11.6046 26.3909
4163637 1.28696 1.7 12.0831 11.3209 -0.330772 11.6046 26.3909
4163648 1.15652 1.59725 12.2191 11.3396 -0.416891 11.8603 26.3124
4163659 1.08696 1.50385 12.3446 11.4331 -0.468925 12.0524 26.3685
4163668 1.08696 1.50385 12.3446 11.4331 -0.468925 12.0524 26.3685
4163677 1.01739 1.48516 12.5643 11.5454 -0.517741 12.1789 26.6123
4163687 0.947826 1.4478 12.7526 11.5548 -0.653368 12.3086 26.703
4163697 0.947826 1.4478 12.7526 11.5548 -0.653368 12.3086 26.703
4163712 0.878261 1.42912 12.8258 11.6203 -0.611819 12.4126 26.7535
4163731 0.817391 1.34505 12.7735 11.5454 -0.661285 12.5502 26.4814
4163739 0.852174 1.27033 12.7422 11.4893 -0.791848 12.5838 26.3539
4163750 0.852174 1.27033 12.7422 11.4893 -0.791848 12.5838 26.3539
4163760 0.843478 1.28901 12.8154 11.4144 -0.906061 12.5733 26.3623
4163770 0.86087 1.24231 12.7735 11.377 -0.966631 12.5967 26.2537
4163779 0.86087 1.24231 12.7735 11.377 -0.966631 12.5967 26.2537
4163789 0.817391 1.26099 12.6375 11.2834 -0.875509 12.6018 25.9994
4163799 0.817391 1.26099 12.6375 11.2834 -0.875509 12.6018 25.9994
4163810 0.808696 1.27033 12.5329 11.3115 -0.732721 12.594 25.9235
4163819 0.817391 1.30769 12.5329 11.2834 -0.731637 12.5424 25.9414
4163830 0.817391 1.30769 12.5329 11.2834 -0.731637 12.5424 25.9414
4163839 0.817391 1.4011 12.4283 11.4144 -0.412662 12.4462 26.0612
4163849 0.913043 1.46648 12.5538 11.5173 -0.456578 12.3012 26.4507
4163859 0.913043 1.46648 12.5538 11.5173 -0.456578 12.3012 26.4507
4163870 1.05217 1.62527 12.7108 11.4986 -0.594197 12.0125 26.8868
4163879 1.05217 1.62527 12.7108 11.4986 -0.594197 12.0125 26.8868
4163891 1.14783 1.71868 12.5748 11.5267 -0.442396 11.8112 26.968
4163900 1.33043 1.86813 12.3132 11.3864 -0.361717 11.4326 26.8981
4163920 1.32174 1.91484 12.0622 11.246 -0.210069 11.3421 26.5447
4163930 1.48696 1.9522 11.8738 11.1057 -0.286667 11.0946 26.4187
4163940 1.48696 1.9522 11.8738 11.1057 -0.286667 11.0946 26.4187
4163950 1.63478 2.12967 11.6855 11.087 -0.097689 10.7443 26.5369
4163960 1.63478 2.12967 11.6855 11.087 -0.097689 10.7443 26.5369
4163971 1.64348 2.19506 11.5286 11.0589 0.0774324 10.6423 26.426
4163980 1.73913 2.26978 11.3403 11.087 0.262234 10.4507 26.4362
4163993 1.73913 2.26978 11.3403 11.087 0.262234 10.4507 26.4362
4164000 1.84348 2.26978 11.2985 11.087 0.20265 10.3432 26.4987
4164011 1.88696 2.36319 11.0578 11.0121 0.4089 10.1556 26.3201
4164030 1.96522 2.5967 10.9009 10.8343 0.537041 9.79573 26.2972
4164041 1.96522 2.5967 10.9009 10.8343 0.537041 9.79573 26.2972
4164051 2.06087 2.71813 10.7545 10.7501 0.621051 9.54527 26.2836
4164061 2.25217 2.97033 10.5243 10.5349 0.693256 9.03864 26.2818
4164081 2.36522 3.12912 10.2105 10.3478 0.864854 8.67319 26.0526
4164091 2.37391 3.25989 10.1477 10.273 0.970334 8.51305 26.0545
4164101 2.37391 3.25989 10.1477 10.273 0.970334 8.51305 26.0545
4164112 2.49565 3.40934 9.94892 10.1139 1.03849 8.17811 25.9678
4164121 2.49565 3.40934 9.94892 10.1139 1.03849 8.17811 25.9678
4164132 2.61739 3.52143 9.81292 9.95487 1.00938 7.89121 25.9066
4164141 2.73043 3.6989 9.72923 9.86131 1.05741 7.5872 26.0199
4164152 2.73043 3.6989 9.72923 9.86131 1.05741 7.5872 26.0199
4164161 2.95652 3.87637 9.49908 9.59934 0.983477 7.095 25.9313
4164172 3.05217 4.09121 9.35262 9.41222 1.06013 6.72844 25.9082
4164181 3.05217 4.09121 9.35262 9.41222 1.06013 6.72844 25.9082
4164192 3.38261 4.36209 9.04923 8.97248 0.875881 5.9828 25.7664
4164203 3.38261 4.36209 9.04923 8.97248 0.875881 5.9828 25.7664
4164212 3.66087 4.70769 8.68308 8.56081 0.902453 5.19786 25.6125
4164222 4 5.07198 8.33785 8.11172 0.828567 4.3361 25.5215
4164242 4.42609 5.52033 7.85662 7.541 0.768057 3.22632 25.344
4164253 4.87826 6.04341 7.38585 7.05449 0.821882 2.08106 25.362
4164273 5.42609 6.61319 6.88369 6.54926 0.836855 0.820702 25.4722
4164282 5.42609 6.61319 6.88369 6.54926 0.836855 0.820702 25.4722
4164294 5.86957 7.12692 6.29785 6.0066 0.954628 -0.410282 25.3009
4164303 6.22609 7.59396 5.92123 5.55751 0.992292 -1.38819 25.2988
4164314 6.22609 7.59396 5.92123 5.55751 0.992292 -1.38819 25.2988
4164324 6.68696 8.04231 5.47138 5.13649 1.00688 -2.43993 25.3371
4164334 7.04348 8.38791 5.13662 4.7716 0.966293 -3.26949 25.3396
4164344 7.04348 8.38791 5.13662 4.7716 0.966293 -3.26949 25.3396
4164354 7.33913 8.59341 4.896 4.47221 0.820613 -3.89178 25.3007
4164373 7.33913 8.59341 4.896 4.47221 0.820613 -3.89178 25.3007
4164375 7.44348 8.80824 4.64492 4.23831 0.953001 -4.39736 25.1349
4164384 7.68696 8.93901 4.55077 4.03247 0.727665 -4.78559 25.2092
4164404 7.82609 9.04176 4.46708 3.88277 0.625917 -5.06668 25.2177
4164414 7.91304 9.16319 4.352 3.71436 0.609034 -5.37526 25.1426
4164425 7.91304 9.16319 4.352 3.71436 0.609034 -5.37526 25.1426
4164435 8.08696 9.25659 4.41477 3.70501 0.451508 -5.43356 25.4633
4164445 8.08696 9.25659 4.41477 3.70501 0.451508 -5.43356 25.4633
4164455 8.13043 9.38736 4.41477 3.63016 0.461918 -5.5586 25.5627
4164465 8.18261 9.45275 4.37292 3.65823 0.541019 -5.61288 25.6665
4164475 8.18261 9.45275 4.37292 3.65823 0.541019 -5.61288 25.6665
4164485 8.26087 9.6022 4.24738 3.52724 0.605735 -5.9025 25.6377
4164498 8.25217 9.72363 4.24738 3.40561 0.614235 -6.04172 25.6288
4164505 8.25217 9.72363 4.24738 3.40561 0.614235 -6.04172 25.6288
4164517 8.32174 9.82637 4.23692 3.39626 0.643846 -6.11777 25.7813
4164525 8.32174 9.82637 4.23692 3.39626 0.643846 -6.11777 25.7813
4164537 8.30435 9.9011 4.13231 3.32141 0.765663 -6.28532 25.6592
4164545 8.33913 9.91978 4.13231 3.25592 0.686488 -6.35784 25.6471
4164555 8.33913 9.91978 4.13231 3.25592 0.686488 -6.35784 25.6471
4164565 8.34783 9.95714 4.03815 3.17171 0.727886 -6.52274 25.5148
4164577 8.28696 9.91044 3.92308 3.05008 0.745404 -6.68891 25.1706
4164595 8.22609 9.91044 3.97538 3.06879 0.772181 -6.60765 25.1807
4164605 8.22609 9.91044 3.97538 3.06879 0.772181 -6.60765 25.1807
4164615 8.1913 9.77967 3.944 3.04073 0.686312 -6.60345 24.9557
4164625 8.14783 9.61154 4.00677 2.96588 0.427404 -6.54216 24.732
4164635 8.14783 9.61154 4.00677 2.96588 0.427404 -6.54216 24.732
4164645 8.13913 9.56484 3.95446 3.05944 0.53674 -6.48725 24.7179
4164655 8.08696 9.51813 3.944 3.0033 0.499421 -6.51125 24.5524
4164665 8.08696 9.51813 3.944 3.0033 0.499421 -6.51125 24.5524
4164675 8.13043 9.55549 4.06954 3.03137 0.39022 -6.40563 24.7868
4164695 8.15652 9.57418 4.06954 3.02201 0.372782 -6.4292 24.8223
4164705 8.22609 9.62088 4.18462 3.11558 0.323844 -6.29103 25.1472
4164720 8.22609 9.62088 4.18462 3.11558 0.323844 -6.29103 25.1472
4164725 8.28696 9.62088 4.10092 3.08751 0.319275 -6.40697 25.0963
4164735 8.25217 9.61154 4.22646 3.11558 0.24645 -6.26147 25.2057
4164746 8.25217 9.61154 4.22646 3.11558 0.24645 -6.26147 25.2057
4164757 8.25217 9.63022 4.32062 3.17171 0.225759 -6.14198 25.3747
4164766 8.25217 9.63022 4.32062 3.17171 0.225759 -6.14198 25.3747
4164776 8.30435 9.63022 4.24738 3.14364 0.219274 -6.24479 25.3256
4164786 8.33043 9.61154 4.32062 3.13429 0.0932962 -6.19391 25.3969
4164796 8.33043 9.61154 4.32062 3.13429 0.0932962 -6.19391 25.3969
4164806 8.32174 9.62088 4.25785 3.10622 0.145724 -6.27021 25.3067
4164821 8.32174 9.62088 4.25785 3.10622 0.145724 -6.27021 25.3067
4164826 8.26087 9.49011 4.29969 3.12493 0.0540972 -6.1526 25.1756
4164836 8.26957 9.49011 4.31015 3.153 0.0628293 -6.12333 25.2228
4164846 8.26957 9.49011 4.31015 3.153 0.0628293 -6.12333 25.2228
4164856 8.2087 9.44341 4.352 3.19042 0.0725687 -6.01897 25.1945
4164866 8.1913 9.45275 4.43569 3.19042 0.0160038 -5.9465 25.2702
4164876 8.1913 9.45275 4.43569 3.19042 0.0160038 -5.9465 25.2702
4164886 8.25217 9.3967 4.41477 3.22785 -0.0419036 -5.93456 25.2915
4164896 8.25217 9.3967 4.41477 3.22785 -0.0419036 -5.93456 25.2915
4164906 8.2087 9.46209 4.45662 3.27463 0.0702739 -5.86934 25.402
4164916 8.18261 9.44341 4.52985 3.32141 0.0513822 -5.75499 25.4773
4164928 8.18261 9.44341 4.52985 3.32141 0.0513822 -5.75499 25.4773
4164936 8.23478 9.40604 4.59262 3.3027 -0.116166 -5.72454 25.5361
4164946 8.2087 9.40604 4.57169 3.3027 -0.0702724 -5.73206 25.4891
4164956 8.2087 9.40604 4.57169 3.3027 -0.0702724 -5.73206 25.4891
4164966 8.1913 9.35934 4.65538 3.36819 -0.116482 -5.5879 25.5742
4164976 8.1913 9.35934 4.65538 3.36819 -0.116482 -5.5879 25.5742
4164986 8.14783 9.20055 4.61354 3.41497 -0.143681 -5.50887 25.3769
4164996 8.14783 9.19121 4.71815 3.42433 -0.245714 -5.41366 25.4815
4165018 8.06087 9.17253 4.70769 3.46175 -0.132155 -5.35213 25.4028
4165029 8.02609 9.06978 4.79138 3.48982 -0.254042 -5.21021 25.3771
4165047 7.91304 8.89231 4.73908 3.51789 -0.241324 -5.11628 25.0623
4165058 7.91304 8.89231 4.73908 3.51789 -0.241324 -5.11628 25.0623
4165068 7.75652 8.67747 4.74954 3.58338 -0.247519 -4.90639 24.7669
4165079 7.46087 8.43462 4.94831 3.76114 -0.216843 -4.38085 24.6049
4165089 7.46087 8.43462 4.94831 3.76114 -0.216843 -4.38085 24.6049
4165105 7.30435 8.32253 5.19938 4.04183 -0.140117 -3.85172 24.8681
4165121 7.10435 8.14505 5.80615 4.64997 -0.112307 -2.79703 25.7055
4165130 6.89565 7.83681 6.64308 5.42653 -0.256872 -1.49029 26.8021
4165140 6.89565 7.83681 6.64308 5.42653 -0.256872 -1.49029 26.8021
4165151 6.4087 7.3978 7.49046 6.31535 -0.168402 -0.000370145 27.6123
4165159 5.72174 6.82802 8.50523 7.3071 -0.080961 1.72549 28.3621
4165170 5.72174 6.82802 8.50523 7.3071 -0.080961 1.72549 28.3621
4165179 5.0087 6.21154 9.14338 7.73748 -0.180653 3.02157 28.1011
4165189 4.34783 5.66044 9.52 7.99945 -0.188845 4.09288 27.5277
4165199 4.34783 5.66044 9.52 7.99945 -0.188845 4.09288 27.5277
4165209 3.74783 4.96923 9.95938 8.37369 -0.336677 5.33233 27.0501
4165229 3.1913 4.32473 10.4511 8.8415 -0.444035 6.58923 26.8086
4165240 2.61739 3.76429 11.152 9.6929 -0.286673 7.96826 27.2266
4165260 2.0087 3.09176 11.9052 10.7408 -0.0733286 9.48529 27.7465
4165273 1.54783 2.48462 12.5225 11.7512 0.146228 10.7263 28.3061
4165280 1.54783 2.48462 12.5225 11.7512 0.146228 10.7263 28.3061
4165293 1.2087 1.87747 12.7631 12.3126 0.193793 11.7124 28.1618
4165300 1.2087 1.87747 12.6375 12.3126 0.306603 11.6977 28.0363
4165312 0.895652 1.58791 12.6375 12.4436 0.451943 12.297 27.5647
4165320 0.808696 1.38242 12.4178 12.5278 0.629836 12.5777 27.1368
4165340 0.747826 1.31703 12.0412 12.2003 0.692138 12.6452 26.3064
4165351 0.66087 1.28901 11.8529 12.0226 0.772285 12.7349 25.8254
4165361 0.66087 1.28901 11.8529 12.0226 0.772285 12.7349 25.8254
4165371 0.66087 1.29835 11.9052 11.9851 0.693813 12.7262 25.8496
4165381 0.66087 1.29835 11.9052 11.9851 0.693813 12.7262 25.8496
4165391 0.617391 1.22363 11.968 12.0693 0.683561 12.8658 25.8784
4165401 0.6 1.15824 11.9785 12.0506 0.611165 12.9545 25.7873
4165411 0.6 1.15824 11.9785 12.0506 0.611165 12.9545 25.7873
4165421 0.617391 1.13022 12.1772 12.0787 0.398308 12.9838 26.0035
4165431 0.626087 1.13022 12.3865 12.0693 0.17837 12.9899 26.2121
4165451 0.66087 1.1489 12.5015 12.0226 0.00859797 12.9383 26.3339
4165461 0.66087 1.1489 12.5015 12.0226 0.00859797 12.9383 26.3339
4165471 0.626087 1.15824 12.5852 11.9571 -0.0911653 12.9667 26.3266
4165481 0.678261 1.13956 12.7317 11.9477 -0.304444 12.9419 26.4972
4165502 0.66087 1.13022 12.7003 11.7232 -0.484261 12.9503 26.2146
4165512 0.686957 1.1489 12.7317 11.5828 -0.656702 12.8939 26.1504
4165524 0.686957 1.1489 12.7317 11.5828 -0.656702 12.8939 26.1504
4165532 0.721739 1.12088 13.0351 11.6857 -0.894266 12.919 26.5634
4165545 0.721739 1.12088 13.0351 11.6857 -0.894266 12.919 26.5634
4165552 0.73913 1.16758 13.2652 11.6764 -1.0805 12.8695 26.8483
4165566 0.8 1.20495 13.4535 11.639 -1.30052 12.7803 27.0975
4165572 0.8 1.20495 13.4535 11.639 -1.30052 12.7803 27.0975
4165582 0.756522 1.13956 13.5477 11.4518 -1.59209 12.8851 26.8956
4165593 0.826087 1.12088 13.4849 11.4238 -1.6443 12.8251 26.8557
4165612 0.826087 1.1956 13.5372 11.3957 -1.64351 12.7499 26.9546
4165623 0.808696 1.1956 13.4849 11.3957 -1.58296 12.7635 26.8849
4165633 0.808696 1.11154 13.4849 11.4425 -1.61988 12.8543 26.8476
4165651 0.965217 1.24231 13.4222 11.4331 -1.58144 12.5529 27.0628
4165664 1.04348 1.29835 13.2025 11.2741 -1.56004 12.3803 26.8184
4165674 1.13913 1.31703 13.0142 11.1524 -1.58117 12.2323 26.6228
4165694 1.28696 1.37308 12.9095 11.0495 -1.66599 12.0021 26.6191
4165705 1.32174 1.3544 12.7631 11.0589 -1.57703 11.9702 26.4981
4165715 1.32174 1.3544 12.7631 11.0589 -1.57703 11.9702 26.4981
4165725 1.33913 1.3544 12.7631 11.1899 -1.46167 11.9675 26.6465
4165735 1.33913 1.3544 12.7631 11.1899 -1.46167 11.9675 26.6465
4165745 1.47826 1.4478 12.7212 11.0963 -1.54745 11.7176 26.7436
4165755 1.48696 1.47582 12.6375 11.1524 -1.39819 11.6776 26.7528
4165767 1.48696 1.47582 12.6375 11.1524 -1.39819 11.6776 26.7528
4165779 1.61739 1.55055 12.4597 11.1057 -1.32874 11.4449 26.7333
4165785 1.66087 1.58791 12.3028 11.0495 -1.24637 11.3361 26.6011
4165795 1.66087 1.58791 12.3028 11.0495 -1.24637 11.3361 26.6011
4165805 1.75652 1.6533 12.0935 11.0308 -1.09853 11.1448 26.5342
4165816 1.75652 1.6533 12.0935 11.0308 -1.09853 11.1448 26.5342
4165825 1.90435 1.64396 11.8529 10.9934 -1.06075 10.967 26.3946
4165835 2.07826 1.7467 11.5809 10.7782 -1.08298 10.6176 26.1841
4165846 2.07826 1.7467 11.5809 10.7782 -1.08298 10.6176 26.1841
4165855 2.32174 1.91484 11.2462 10.5911 -1.01824 10.1255 26.0738
4165865 2.32174 1.91484 11.0683 10.5911 -0.853537 10.092 25.896
4165877 2.54783 2.12033 11.0683 10.4788 -0.969848 9.6579 26.2153
4165885 2.7913 2.26044 11.0369 10.4601 -1.04307 9.29155 26.5488
4165906 2.91304 2.43791 10.8695 10.3478 -0.938 8.95789 26.5683
4165916 2.95652 2.58736 10.6917 10.3385 -0.679593 8.74139 26.574
4165926 2.95652 2.58736 10.6917 10.3385 -0.679593 8.74139 26.574
4165936 3.08696 2.62473 10.5034 10.1701 -0.753793 8.50579 26.3851
4165947 3.08696 2.62473 10.5034 10.1701 -0.753793 8.50579 26.3851
4165956 3.15652 2.68077 10.2 10.0297 -0.619589 8.28198 26.067
4165968 3.24348 2.83022 9.98031 9.88002 -0.495048 7.97406 25.934
4165979 3.24348 2.83022 9.98031 9.88002 -0.495048 7.97406 25.934
4165989 3.31304 3.01703 9.67692 9.73032 -0.235659 7.62152 25.7373
4165996 3.44348 3.25055 9.47815 9.71161 0.0391454 7.24144 25.8838
4166016 3.5913 3.42802 9.28985 9.66483 0.203761 6.89267 25.974
4166028 3.71304 3.64286 8.99692 9.35608 0.281 6.41632 25.7089
4166037 3.71304 3.64286 8.99692 9.35608 0.281 6.41632 25.7089
4166048 3.92174 4.00714 8.704 9.08475 0.45315 5.75084 25.7176
4166057 3.92174 4.00714 8.704 9.08475 0.45315 5.75084 25.7176
4166067 4.23478 4.48352 8.20185 8.70116 0.729901 4.79174 25.6213
4166077 4.51304 5.06264 7.84615 8.25206 0.930423 3.8108 25.6739
4166099 4.84348 5.66044 7.39631 7.80297 1.19015 2.74014 25.7032
4166130 5.12174 6.03407 6.97785 7.42873 1.33322 1.90755 25.5624
4166138 5.12174 6.03407 6.97785 7.42873 1.33322 1.90755 25.5624
4166141 5.4 6.48242 6.69538 7.10127 1.44894 1.11817 25.6791
4166142 5.4 6.48242 6.69538 7.10127 1.44894 1.11817 25.6791
4166149 5.6 6.87473 6.36062 6.70831 1.58789 0.348932 25.5437
4166162 5.87826 7.27637 5.86892 6.32471 1.82843 -0.568678 25.3483
4166169 5.87826 7.27637 5.86892 6.32471 1.82843 -0.568678 25.3483
4166179 6.13043 7.79945 5.52369 5.82884 1.95211 -1.52914 25.2824
4166189 6.33043 8.08901 5.08431 5.4546 2.13242 -2.33221 24.9583
4166199 6.33043 8.08901 5.08431 5.4546 2.13242 -2.33221 24.9583
4166209 6.45217 8.44396 4.96923 5.1552 2.17596 -2.86067 25.0206
4166230 6.5913 8.77088 4.80185 4.84645 2.22325 -3.4269 25.0105
4166239 6.73043 9.06978 4.70769 4.72482 2.33474 -3.78538 25.2327
4166251 6.73043 9.06978 4.70769 4.72482 2.33474 -3.78538 25.2327
4166258 6.90435 9.21923 4.61354 4.57512 2.24839 -4.10962 25.3122
4166274 6.91304 9.24725 4.488 4.42543 2.26496 -4.33534 25.0737
4166283 6.91304 9.24725 4.488 4.42543 2.26496 -4.33534 25.0737
4166293 7.02609 9.34066 4.41477 4.46285 2.33979 -4.44998 25.2444
4166312 6.98261 9.27527 4.39385 4.388 2.28319 -4.4785 25.0397
4166320 7.01739 9.35934 4.36246 4.42543 2.38918 -4.52352 25.1646
4166330 7.01739 9.35934 4.36246 4.42543 2.38918 -4.52352 25.1646
4166340 7.06957 9.34066 4.50892 4.43478 2.16629 -4.41737 25.3539
4166350 7.13043 9.34066 4.44615 4.50963 2.23553 -4.43348 25.4269
4166360 7.13043 9.41538 4.44615 4.50963 2.30224 -4.46444 25.5016
4166370 7.12174 9.48077 4.488 4.55641 2.36621 -4.42047 25.6469
4166380 7.12174 9.48077 4.488 4.55641 2.36621 -4.42047 25.6469
4166390 7.22609 9.51813 4.49846 4.50963 2.23593 -4.50608 25.7523
4166401 7.29565 9.63022 4.41477 4.40671 2.25898 -4.72149 25.7474
4166410 7.29565 9.63022 4.41477 4.40671 2.25898 -4.72149 25.7474
4166420 7.33043 9.72363 4.40431 4.35993 2.27437 -4.81625 25.8183
4166430 7.33043 9.72363 4.40431 4.35993 2.27437 -4.81625 25.8183
4166440 7.38261 9.82637 4.26831 4.20088 2.31358 -5.10538 25.6782
4166450 7.46957 9.89176 4.24738 4.0699 2.18538 -5.28302 25.6786
4166460 7.46957 9.89176 4.24738 4.0699 2.18538 -5.28302 25.6786
4166470 7.46957 9.99451 4.15323 3.95762 2.27697 -5.48577 25.5749
4166480 7.53913 10.0319 4.09046 3.83599 2.1946 -5.67383 25.4975
4166490 7.53913 10.0319 4.09046 3.83599 2.1946 -5.67383 25.4975
4166501 7.64348 10.144 3.95446 3.70501 2.21149 -5.97006 25.4469
4166510 7.64348 10.144 3.95446 3.70501 2.21149 -5.97006 25.4469
4166522 7.61739 10.1533 3.91262 3.65823 2.25077 -6.03743 25.3415
4166531 7.66087 10.1813 3.82892 3.54595 2.21822 -6.22633 25.2171
4166551 7.72174 10.1346 3.66154 3.39626 2.15499 -6.50146 24.9142
4166565 7.68696 10.1813 3.73477 3.40561 2.16446 -6.43451 25.0087
4166581 7.71304 10.2374 3.65108 3.32141 2.20144 -6.60713 24.9229
4166591 7.71304 10.2374 3.65108 3.32141 2.20144 -6.60713 24.9229
4166603 7.66957 10.3121 3.63015 3.33077 2.34853 -6.62767 24.9426
4166612 7.6 10.2841 3.65108 3.3027 2.35094 -6.60099 24.8378
4166622 7.6 10.2841 3.65108 3.3027 2.35094 -6.60099 24.8378
4166633 7.53913 10.256 3.56738 3.34012 2.51962 -6.61123 24.7027
4166642 7.44348 10.2841 3.64062 3.37755 2.604 -6.49166 24.7457
4166652 7.44348 10.2841 3.64062 3.37755 2.604 -6.49166 24.7457
4166662 7.4087 10.4148 3.71385 3.48982 2.77909 -6.365 25.0272
4166682 7.41739 10.4709 3.73477 3.55531 2.85367 -6.31387 25.1784
4166694 7.4 10.5363 3.78708 3.66758 2.97032 -6.19214 25.3909
4166705 7.4 10.5363 3.78708 3.66758 2.97032 -6.19214 25.3909
4166715 7.4087 10.6203 3.82892 3.74243 3.05185 -6.12745 25.6004
4166723 7.33913 10.6857 3.89169 3.79857 3.16299 -6.02831 25.7151
4166742 7.29565 10.7791 3.98585 3.87342 3.24963 -5.90855 25.934
4166754 7.21739 10.6577 4.01723 3.9202 3.23803 -5.77491 25.8125
4166764 7.21739 10.6577 4.01723 3.9202 3.23803 -5.77491 25.8125
4166774 7.1913 10.7604 4.05908 3.93891 3.32274 -5.75368 25.9497
4166784 7.1913 10.7604 4.05908 3.93891 3.32274 -5.75368 25.9497
4166794 7.15652 10.7137 3.96492 3.94827 3.43297 -5.79271 25.7834
4166804 7.13913 10.7698 3.92308 3.9202 3.52181 -5.86298 25.7522
4166814 7.13913 10.7698 3.92308 3.9202 3.52181 -5.86298 25.7522
4166824 7.07826 10.6951 3.84985 3.88277 3.57733 -5.90492 25.5059
4166834 7.07826 10.6951 3.84985 3.88277 3.57733 -5.90492 25.5059
4166844 7.05217 10.639 3.86031 3.84535 3.51607 -5.8977 25.3968
4166854 7.05217 10.583 3.79754 3.81728 3.51538 -5.95268 25.25
4166874 7.03478 10.5643 3.72431 3.81728 3.60221 -6.00073 25.1407
4166885 7 10.5082 3.74523 3.81728 3.57019 -5.9506 25.0708
4166894 7 10.5082 3.74523 3.81728 3.57019 -5.9506 25.0708
4166905 6.95652 10.4429 3.75569 3.85471 3.58395 -5.87109 25.0098
4166932 6.91304 10.3121 3.82892 3.9202 3.49392 -5.69147 24.9743
4166934 6.90435 10.3121 3.86031 3.96698 3.50828 -5.62365 25.0437
4166946 6.90435 10.3121 3.86031 3.96698 3.50828 -5.62365 25.0437
4166955 6.93913 10.3121 3.944 4.06054 3.45416 -5.49182 25.2558
4166968 6.86957 10.2093 4.02769 4.04183 3.33412 -5.37373 25.1484
4166975 6.86957 10.2093 4.02769 4.04183 3.33412 -5.37373 25.1484
4166985 6.93913 10.2747 4.08 4.16346 3.35763 -5.28555 25.4573
4166995 6.93913 10.2747 4.08 4.16346 3.35763 -5.28555 25.4573
4167005 6.93913 10.144 4.14277 4.23831 3.2402 -5.12603 25.4642
4167015 6.90435 10.1533 4.216 4.32251 3.27731 -4.99243 25.5962
4167026 6.90435 10.1533 4.216 4.32251 3.27731 -4.99243 25.5962
4167035 6.91304 10.0505 4.28923 4.43478 3.19518 -4.81141 25.6876
4167045 6.78261 9.93846 4.42523 4.43478 3.0935 -4.60949 25.5811
4167055 6.78261 9.93846 4.42523 4.43478 3.0935 -4.60949 25.5811
4167065 6.73043 9.86374 4.51938 4.54706 3.07959 -4.40036 25.6606
4167085 6.6087 9.73297 4.66585 4.63126 3.01271 -4.12143 25.6388
4167097 6.44348 9.6022 4.84369 4.76225 2.9991 -3.76569 25.6516
4167106 6.44348 9.6022 4.84369 4.76225 2.9991 -3.76569 25.6516
4167118 6.33043 9.49011 4.99015 4.82774 2.92262 -3.51191 25.6384
4167126 6.11304 9.25659 5.35631 5.03357 2.73764 -2.89976 25.7595
4167136 6.11304 9.25659 5.35631 5.03357 2.73764 -2.89976 25.7595
4167146 5.84348 8.95769 5.72246 5.25812 2.56952 -2.22285 25.7817
4167156 5.84348 8.95769 5.72246 5.25812 2.56952 -2.22285 25.7817
4167166 5.53913 8.47198 6.19323 5.66043 2.31981 -1.25119 25.8648
4167176 5.13913 7.96758 6.86277 6.22179 2.08798 -0.012686 26.1913
4167196 4.68696 7.33242 7.74154 7.01706 1.79344 1.53441 26.778
4167206 4.13913 6.51044 8.86092 8.09301 1.45217 3.42585 27.6035
4167216 4.13913 6.51044 8.86092 8.09301 1.45217 3.42585 27.6035
4167227 3.69565 5.93132 9.73969 8.79472 1.1458 4.7445 28.1614
4167237 3.69565 5.93132 9.73969 8.79472 1.1458 4.7445 28.1614
4167248 3.33913 5.55769 9.85477 8.64502 0.920564 5.25775 27.3966
4167257 3.10435 5.21209 9.80246 8.33627 0.60626 5.56921 26.4552
4167269 3.10435 5.21209 9.80246 8.33627 0.60626 5.56921 26.4552
4167276 2.93913 4.97857 9.86523 8.14915 0.311735 5.84026 25.9321
4167289 2.75652 4.72637 10.2105 8.23335 -0.00699759 6.34148 25.9267
4167309 2.63478 4.45549 10.6603 8.44854 -0.373156 6.88109 26.1991
4167317 2.63478 4.45549 10.6603 8.44854 -0.373156 6.88109 26.1991
4167330 2.41739 4.11923 11.1311 8.73858 -0.653873 7.57379 26.4063
4167339 2.26087 3.81099 11.5914 9.03797 -0.939369 8.178 26.7012
4167347 2.26087 3.81099 11.5914 9.03797 -0.939369 8.178 26.7012
4167358 2.05217 3.49341 12.0831 9.44029 -1.10972 8.85394 27.0689
4167367 1.86957 3.07308 12.4806 9.85195 -1.30627 9.56359 27.2752
4167379 1.86957 3.07308 12.4806 9.85195 -1.30627 9.56359 27.2752
4167388 1.62609 2.71813 12.9305 10.3478 -1.34907 10.2819 27.6225
4167407 1.38261 2.23242 13.192 10.7595 -1.43535 11.0659 27.5665
4167419 1.21739 1.87747 13.2338 10.9185 -1.5187 11.5925 27.2473
4167429 1.21739 1.87747 13.2338 10.9185 -1.5187 11.5925 27.2473
4167441 0.991304 1.62527 13.4431 11.0121 -1.65948 12.1004 27.0718
4167449 0.956522 1.3544 13.5163 11.115 -1.85898 12.4268 26.9422
4167459 0.956522 1.3544 13.5163 11.115 -1.85898 12.4268 26.9422
4167469 0.808696 1.37308 13.4535 11.1431 -1.6301 12.5557 26.7784
4167489 0.8 1.24231 13.5372 11.1712 -1.79786 12.7096 26.7507
4167500 0.730435 1.21429 13.6314 11.246 -1.77235 12.8249 26.8221
4167509 0.730435 1.21429 13.6314 11.246 -1.77235 12.8249 26.8221
4167521 0.765217 1.1022 13.7046 11.2647 -1.95899 12.9125 26.8368
4167529 0.721739 1.13022 13.736 11.1805 -2.00516 12.9245 26.7685
4167556 0.721739 1.13956 13.7883 11.1337 -2.08782 12.9152 26.7833
4167575 0.678261 1.05549 13.7778 11.1712 -2.08885 13.0507 26.6828
4167580 0.652174 1.04615 13.7988 11.1337 -2.13198 13.0868 26.6308
4167590 0.652174 1.04615 13.7988 11.1337 -2.13198 13.0868 26.6308
4167600 0.634783 1.06484 13.8406 11.1337 -2.13394 13.0885 26.674
4167610 0.617391 1.09286 13.7465 11.1337 -2.00942 13.0705 26.5904
4167620 0.617391 1.09286 13.7465 11.1337 -2.00942 13.0705 26.5904
4167631 0.695652 1.03681 13.7988 11.0589 -2.25527 13.0454 26.5901
4167640 0.695652 1.03681 13.7988 11.0589 -2.25527 13.0454 26.5901
4167653 0.634783 1.02747 13.7674 11.0402 -2.20489 13.1161 26.4698
4167660 0.686957 1.03681 13.8511 11.0495 -2.30211 13.0577 26.6244
4167680 0.66087 1.02747 13.9452 11.2273 -2.18843 13.1143 26.8609
4167690 0.704348 1.13956 13.9766 11.2834 -2.08269 12.9591 27.104
4167700 0.704348 1.13956 13.9766 11.2834 -2.08269 12.9591 27.104
4167710 0.730435 1.1022 13.9452 11.246 -2.15315 12.9655 27.0239
4167720 0.730435 1.1022 13.9452 11.246 -2.15315 12.9655 27.0239
4167730 0.704348 1.02747 13.8511 11.1992 -2.17377 13.0601 26.7821
4167740 0.686957 1.1022 13.8302 11.2273 -2.03714 13.0007 26.8466
4167750 0.686957 1.1022 13.8302 11.2273 -2.03714 13.0007 26.8466
4167760 0.695652 1.13022 13.6942 11.1992 -1.92778 12.9499 26.7193
4167770 0.713043 1.12088 13.6837 11.3396 -1.80239 12.9515 26.8572
4167781 0.713043 1.12088 13.6837 11.3396 -1.80239 12.9515 26.8572
4167790 0.73913 1.11154 13.6523 11.4238 -1.72331 12.9381 26.9268
4167802 0.73913 1.11154 13.6523 11.4238 -1.72331 12.9381 26.9268
4167810 0.721739 1.15824 13.5268 11.4706 -1.50658 12.9016 26.8773
4167823 0.721739 1.13956 13.3594 11.4706 -1.3778 12.908 26.6912
4167830 0.721739 1.13956 13.3594 11.4706 -1.3778 12.908 26.6912
4167840 0.721739 1.23297 13.2443 11.5267 -1.12849 12.8058 26.7257
4167853 0.721739 1.23297 13.2443 11.5267 -1.12849 12.8058 26.7257
4167860 0.730435 1.17692 13.1397 11.5641 -1.06073 12.8497 26.6112
4167870 0.756522 1.24231 13.0978 11.7045 -0.846608 12.7626 26.8011
4167890 0.791304 1.24231 12.9828 11.77 -0.71101 12.7224 26.7863
4167901 0.713043 1.28901 12.9932 11.8354 -0.542121 12.7615 26.8307
4167911 0.713043 1.28901 12.9932 11.8354 -0.542121 12.7615 26.8307
4167921 0.782609 1.3544 12.8572 11.9103 -0.348596 12.6171 26.9045
4167941 0.73913 1.4011 12.7945 11.9664 -0.15433 12.6132 26.9011
4167952 0.721739 1.41044 12.5643 11.8542 -0.0202015 12.5908 26.5506
4167964 0.721739 1.41044 12.5643 11.8542 -0.0202015 12.5908 26.5506
4167971 0.8 1.52253 12.2818 11.7419 0.173235 12.3554 26.3463
4167981 0.808696 1.43846 12.3237 11.77 0.0721544 12.4407 26.3408
4167992 0.808696 1.43846 12.3237 11.77 0.0721544 12.4407 26.3408
4168001 0.982609 1.53187 12.2505 11.6577 -0.0411808 12.1451 26.4226
4168014 0.982609 1.53187 12.2505 11.6577 -0.0411808 12.1451 26.4226
4168021 1.06957 1.59725 12.1145 11.4893 -0.0927895 11.9546 26.2705
4168032 1.2087 1.77473 11.9889 11.2554 -0.159687 11.5875 26.2277
4168041 1.2087 1.77473 11.9889 11.2554 -0.159687 11.5875 26.2277
4168051 1.45217 1.9989 11.8529 11.0589 -0.234523 11.0728 26.3629
4168061 1.63478 2.2044 11.8529 10.9934 -0.271603 10.684 26.6855
4168071 1.63478 2.2044 11.8529 10.9934 -0.271603 10.684 26.6855
4168082 1.89565 2.56868 11.6646 10.7595 -0.215793 10.0191 26.8884
4168102 2.05217 2.76484 11.2985 10.404 -0.171418 9.55078 26.5194
4168112 2.30435 3.06374 10.8486 9.89873 -0.182356 8.83344 26.1154
4168123 2.30435 3.06374 10.8486 9.89873 -0.182356 8.83344 26.1154
4168133 2.55652 3.46538 10.5034 9.39351 -0.193889 8.02988 25.9188
4168145 2.97391 3.89506 10.1582 9.03797 -0.190906 7.09406 26.0651
4168152 2.97391 3.89506 10.1582 9.03797 -0.190906 7.09406 26.0651
4168166 3.4 4.5022 9.69785 8.60759 0.0113964 5.95432 26.2076
4168175 3.4 4.5022 9.69785 8.60759 0.0113964 5.95432 26.2076
4168188 3.7913 4.94121 9.112 8.14915 0.179902 4.92157 25.9937
4168194 4.15652 5.45495 8.65169 7.73748 0.369424 3.91012 26.0006
4168214 4.43478 5.86593 8.14954 7.32581 0.589138 3.0113 25.7761
4168224 4.66087 6.25824 7.84615 7.03577 0.762561 2.30387 25.801
4168234 4.66087 6.25824 7.84615 7.03577 0.762561 2.30387 25.801
4168244 4.92174 6.53846 7.51138 6.74573 0.827333 1.63134 25.7173
4168254 4.92174 6.53846 7.51138 6.74573 0.827333 1.63134 25.7173
4168264 5.10435 6.92143 7.072 6.36214 1.08722 0.829752 25.4599
4168277 5.38261 7.23901 6.8 6.0721 1.10664 0.147375 25.4937
4168285 5.38261 7.23901 6.8 6.0721 1.10664 0.147375 25.4937
4168298 5.62609 7.54725 6.51754 5.7727 1.15491 -0.520213 25.4636
4168304 5.90435 7.85549 6.24554 5.50138 1.18301 -1.18376 25.5068
4168314 5.90435 7.85549 6.24554 5.50138 1.18301 -1.18376 25.5068
4168324 6.26957 8.11703 5.91077 5.27683 1.18628 -1.8763 25.5742
4168334 6.26957 8.11703 5.91077 5.27683 1.18628 -1.8763 25.5742
4168344 6.45217 8.38791 5.58646 5.03357 1.35786 -2.48627 25.4601
4168354 6.78261 8.7522 5.37723 4.79967 1.3535 -3.12576 25.7117
4168374 6.93913 8.90165 5.07385 4.60319 1.46159 -3.6232 25.5178
4168387 7.06957 9.07912 4.83323 4.388 1.54152 -4.09587 25.3699
4168395 7.06957 9.07912 4.83323 4.388 1.54152 -4.09587 25.3699
4168409 7.23478 9.20055 4.84369 4.18217 1.28062 -4.36516 25.4612
4168415 7.23478 9.20055 4.84369 4.18217 1.28062 -4.36516 25.4612
4168425 7.24348 9.27527 4.71815 4.12603 1.41907 -4.53885 25.3629
4168435 7.31304 9.34066 4.68677 3.96698 1.29194 -4.74166 25.3074
4168445 7.31304 9.34066 4.68677 3.96698 1.29194 -4.74166 25.3074
4168457 7.36522 9.47143 4.58215 3.91084 1.41622 -4.94104 25.3296
4168465 7.4087 9.51813 4.51938 3.84535 1.41885 -5.07803 25.2916
4168477 7.4087 9.51813 4.51938 3.84535 1.41885 -5.07803 25.2916
4168485 7.46957 9.58352 4.46708 3.85471 1.4794 -5.16139 25.3749
4168499 7.46957 9.58352 4.46708 3.85471 1.4794 -5.16139 25.3749
4168505 7.37391 9.59286 4.46708 3.78921 1.52745 -5.18007 25.2231
4168519 7.43478 9.68626 4.52985 3.75179 1.45007 -5.21957 25.4027
4168525 7.43478 9.68626 4.52985 3.75179 1.45007 -5.21957 25.4027
4168535 7.4087 9.71429 4.49846 3.79857 1.57917 -5.20807 25.42
4168545 7.4087 9.71429 4.49846 3.79857 1.57917 -5.20807 25.42
4168555 7.37391 9.73297 4.47754 3.67694 1.54233 -5.31587 25.2614
4168566 7.53043 9.83571 4.56123 3.71436 1.42191 -5.31783 25.6417
4168575 7.53043 9.83571 4.56123 3.71436 1.42191 -5.31783 25.6417
4168585 7.46957 9.91044 4.43569 3.76114 1.72649 -5.38564 25.5768
4168597 7.49565 10.0038 4.47754 3.72372 1.70654 -5.42683 25.7008
4168608 7.49565 10.0038 4.47754 3.72372 1.70654 -5.42683 25.7008
4168615 7.53043 10.0132 4.44615 3.67694 1.66903 -5.50549 25.6667
4168625 7.53043 10.0132 4.44615 3.67694 1.66903 -5.50549 25.6667
4168635 7.49565 9.98516 4.37292 3.6208 1.70503 -5.58622 25.4745
4168645 7.3913 9.9478 4.41477 3.61145 1.72793 -5.50726 25.3653
4168665 7.47826 9.91044 4.32062 3.5366 1.63211 -5.66319 25.2459
4168677 7.46087 9.88242 4.25785 3.56467 1.71698 -5.67483 25.1658
4168697 7.51304 9.84505 4.28923 3.56467 1.59393 -5.65457 25.212
4168707 7.42609 9.76099 4.24738 3.46175 1.55573 -5.71047 24.8962
4168721 7.42609 9.76099 4.24738 3.46175 1.55573 -5.71047 24.8962
4168726 7.46087 9.73297 4.26831 3.52724 1.53168 -5.64137 24.9894
4168746 7.48696 9.76099 4.24738 3.5366 1.56125 -5.67113 25.0319
4168758 7.55652 9.75165 4.32062 3.49917 1.36669 -5.66404 25.128
4168768 7.55652 9.75165 4.32062 3.49917 1.36669 -5.66404 25.128
4168777 7.55652 9.75165 4.33108 3.48046 1.3381 -5.67082 25.1197
4168787 7.56522 9.74231 4.38338 3.48046 1.26549 -5.62763 25.1714
4168797 7.56522 9.74231 4.38338 3.48046 1.26549 -5.62763 25.1714
4168809 7.58261 9.74231 4.352 3.5366 1.33291 -5.61385 25.2135
4168818 7.58261 9.74231 4.352 3.5366 1.33291 -5.61385 25.2135
4168829 7.61739 9.70494 4.33108 3.46175 1.21264 -5.69149 25.1152
4168837 7.56522 9.75165 4.33108 3.47111 1.32017 -5.68175 25.119
4168853 7.56522 9.75165 4.33108 3.47111 1.32017 -5.68175 25.119
4168858 7.5913 9.73297 4.36246 3.44304 1.21593 -5.68177 25.1298
4168873 7.53043 9.66758 4.38338 3.48046 1.23118 -5.58668 25.0619
4168879 7.53043 9.66758 4.38338 3.48046 1.23118 -5.58668 25.0619
4168889 7.53913 9.63022 4.33108 3.5366 1.29469 -5.57275 25.037
4168899 7.53913 9.63022 4.33108 3.5366 1.29469 -5.57275 25.037
4168910 7.49565 9.65824 4.39385 3.56467 1.32744 -5.49253 25.1124
4168919 7.51304 9.68626 4.45662 3.56467 1.27007 -5.45865 25.2206
4168939 7.51304 9.75165 4.45662 3.64887 1.40998 -5.41534 25.3702
4168950 7.48696 9.78901 4.42523 3.63016 1.48727 -5.45998 25.3314
4168960 7.48696 9.78901 4.42523 3.63016 1.48727 -5.45998 25.3314
4168970 7.51304 9.88242 4.47754 3.69565 1.55218 -5.4103 25.5687
4168980 7.51304 9.88242 4.47754 3.69565 1.55218 -5.4103 25.5687
4168990 7.48696 9.80769 4.41477 3.64887 1.53287 -5.46035 25.3583
4169001 7.46957 9.76099 4.46708 3.76114 1.55692 -5.30406 25.4588
4169010 7.46957 9.76099 4.46708 3.76114 1.55692 -5.30406 25.4588
4169025 7.43478 9.82637 4.488 3.6863 1.56267 -5.35878 25.4355
4169030 7.47826 9.81703 4.49846 3.71436 1.52371 -5.34093 25.5081
4169040 7.47826 9.81703 4.49846 3.71436 1.52371 -5.34093 25.5081
4169050 7.47826 9.76099 4.50892 3.75179 1.49568 -5.2815 25.5
4169070 7.3913 9.74231 4.49846 3.70501 1.53683 -5.2868 25.3371
4169080 7.36522 9.66758 4.51938 3.78921 1.55101 -5.164 25.3414
4169091 7.36522 9.66758 4.51938 3.78921 1.55101 -5.164 25.3414
4169100 7.36522 9.68626 4.55077 3.76114 1.50948 -5.16861 25.3634
4169114 7.32174 9.56484 4.63446 3.7705 1.36324 -5.0303 25.2915
4169130 7.3913 9.48077 4.60308 3.81728 1.28859 -5.0124 25.2924
4169141 7.3913 9.48077 4.60308 3.81728 1.28859 -5.0124 25.2924
4169151 7.23478 9.46209 4.624 3.83599 1.43032 -4.91131 25.1569
4169161 7.2087 9.36868 4.70769 3.88277 1.32616 -4.76019 25.1678
4169171 7.2087 9.36868 4.70769 3.88277 1.32616 -4.76019 25.1678
4169185 7.22609 9.35 4.74954 3.97633 1.33459 -4.65392 25.302
4169191 7.14783 9.24725 4.85415 4.01376 1.24592 -4.46929 25.263
4169201 7.14783 9.24725 4.85415 4.01376 1.24592 -4.46929 25.263
4169211 7.11304 9.20989 5.01108 4.07925 1.14608 -4.26899 25.4133
4169221 7.11304 9.20989 5.01108 4.07925 1.14608 -4.26899 25.4133
4169231 7.0087 9.10714 5.08431 4.25702 1.24833 -3.99171 25.4572
4169241 6.93913 8.93901 5.34585 4.39736 1.02589 -3.5917 25.6213
4169261 6.85217 8.80824 5.72246 4.65933 0.857198 -3.04043 26.0422
4169272 6.85217 8.80824 5.72246 4.65933 0.857198 -3.04043 26.0422
4169281 6.71304 8.5 6.04677 5.0055 0.709769 -2.3762 26.2653
4169296 6.53913 8.16374 6.42338 5.36103 0.530684 -1.65274 26.4873
4169311 6.36522 7.79945 6.76862 5.73528 0.375816 -0.93412 26.6686
4169324 6.06957 7.18297 7.09292 6.306 0.306246 0.0823903 26.6515
4169343 5.70435 6.5011 7.54277 7.10127 0.330779 1.36237 26.8495
4169352 5.38261 5.78187 7.83569 7.82168 0.359085 2.51263 26.8219
4169363 5.38261 5.78187 7.83569 7.82168 0.359085 2.51263 26.8219
4169373 4.96522 5.1467 8.19138 8.57017 0.52121 3.71163 26.8735
4169392 4.44348 4.41813 8.71446 9.1596 0.392544 5.05642 26.7357
4169402 3.84348 3.81099 9.57231 9.9268 0.296468 6.54314 27.1536
4169412 3.84348 3.81099 9.57231 9.9268 0.296468 6.54314 27.1536
4169422 3.13913 3.19451 10.8068 10.825 0.0657886 8.20556 27.9654
4169434 3.13913 3.19451 10.8068 10.825 0.0657886 8.20556 27.9654
4169442 2.3913 2.51264 11.968 11.4425 -0.356868 9.80412 28.3144
4169457 1.76522 2.0456 12.512 11.667 -0.504273 10.9155 27.9899
4169462 1.76522 2.0456 12.512 11.667 -0.504273 10.9155 27.9899
4169472 1.25217 1.64396 12.8468 11.798 -0.596355 11.8453 27.5409
4169493 1.02609 1.51319 13.0665 11.7138 -0.792061 12.2116 27.3195
4169494 1.02609 1.51319 13.0665 11.7138 -0.792061 12.2116 27.3195
4169504 0.869565 1.41044 12.9618 11.6203 -0.745212 12.4537 26.8621
4169514 0.747826 1.26099 12.8363 11.3676 -0.911298 12.7009 26.2128
4169524 0.747826 1.26099 12.8363 11.3676 -0.911298 12.7009 26.2128
4169536 0.721739 1.21429 12.8049 11.3957 -0.876804 12.7778 26.1367
4169547 0.721739 1.21429 12.8049 11.3957 -0.876804 12.7778 26.1367
4169554 0.713043 1.16758 12.6062 11.2179 -0.908074 12.8051 25.7047
4169564 0.678261 1.13956 12.4388 11.0495 -0.916712 12.845 25.3061
4169584 0.643478 1.17692 12.5015 11.0963 -0.857435 12.8515 25.4183
4169594 0.695652 1.17692 13.0246 11.4051 -1.08192 12.8642 26.3023
4169604 0.695652 1.17692 13.0246 11.4051 -1.08192 12.8642 26.3023
4169614 0.756522 1.21429 13.4012 11.6483 -1.19831 12.8119 27.0204
4169624 0.756522 1.21429 13.4012 11.6483 -1.19831 12.8119 27.0204
4169634 0.713043 1.17692 13.4954 11.6109 -1.31556 12.8997 26.9962
4169646 0.808696 1.18626 13.5477 11.536 -1.50864 12.7898 27.0787
4169657 0.808696 1.18626 13.5477 11.536 -1.50864 12.7898 27.0787
4169664 0.773913 1.18626 13.5163 11.5173 -1.46943 12.8215 26.9938
4169674 0.773913 1.18626 13.5163 11.5173 -1.46943 12.8215 26.9938
4169684 0.791304 1.15824 13.464 11.4893 -1.49407 12.826 26.9028
4169694 0.730435 1.1956 13.4326 11.4518 -1.41325 12.8448 26.8105
4169704 0.730435 1.1956 13.4326 11.4518 -1.41325 12.8448 26.8105
4169714 0.765217 1.17692 13.3698 11.4144 -1.444 12.82 26.7264
4169727 0.678261 1.13022 13.3385 11.4051 -1.39485 12.9567 26.552
4169734 0.678261 1.13022 13.3385 11.4051 -1.39485 12.9567 26.552
4169744 0.713043 1.13956 13.3698 11.4893 -1.36088 12.9193 26.7117
4169754 0.713043 1.13956 13.3698 11.4893 -1.36088 12.9193 26.7117
4169765 0.686957 1.05549 13.3385 11.4799 -1.40245 13.0319 26.5608
4169775 0.704348 1.08352 13.2443 11.5641 -1.22294 12.9833 26.5963
4169785 0.704348 1.08352 13.2443 11.5641 -1.22294 12.9833 26.5963
4169796 0.686957 1.18626 13.2862 11.6015 -1.10731 12.9001 26.7609
4169805 0.686957 1.18626 13.2862 11.7419 -0.97111 12.911 26.9013
4169819 0.686957 1.18626 13.2862 11.7419 -0.97111 12.911 26.9013
4169825 0.791304 1.16758 13.4222 11.77 -1.17484 12.8356 27.151
4169835 0.791304 1.16758 13.4222 11.77 -1.17484 12.8356 27.151
4169847 0.773913 1.20495 13.4117 11.798 -1.08744 12.8165 27.1886
4169855 0.756522 1.21429 13.2966 11.6764 -1.0786 12.8056 26.9438
4169867 0.756522 1.21429 13.2966 11.6764 -1.0786 12.8056 26.9438
4169875 0.765217 1.20495 13.1711 11.639 -1.01977 12.793 26.7802
4169889 0.747826 1.18626 13.1292 11.5922 -1.03038 12.8232 26.6555
4169895 0.747826 1.18626 13.1292 11.5922 -1.03038 12.8232 26.6555
4169905 0.704348 1.17692 13.1502 11.6483 -0.964457 12.8846 26.6797
4169915 0.704348 1.17692 13.1502 11.6483 -0.964457 12.8846 26.6797
4169925 0.695652 1.16758 13.2757 11.7045 -1.02381 12.9177 26.8434
4169936 0.721739 1.22363 13.192 11.798 -0.827995 12.8333 26.9354
4169958 0.756522 1.23297 13.2757 11.7793 -0.942835 12.7931 27.0445
4169966 0.713043 1.20495 13.3071 11.6764 -1.05829 12.8611 26.9015
4169981 0.713043 1.20495 13.3071 11.6764 -1.05829 12.8611 26.9015
4169986 0.721739 1.22363 13.3175 11.7419 -0.994053 12.8389 27.0048
4169996 0.721739 1.22363 13.3175 11.7419 -0.994053 12.8389 27.0048
4170006 0.704348 1.13956 13.2966 11.7325 -1.0502 12.9415 26.8731
4170016 0.73913 1.21429 13.2443 11.7232 -0.971349 12.8232 26.9209
4170028 0.73913 1.21429 13.2443 11.7232 -0.971349 12.8232 26.9209
4170036 0.747826 1.18626 13.2129 11.7325 -0.969101 12.8414 26.8795
4170050 0.747826 1.18626 13.1502 11.7325 -0.912851 12.8363 26.8168
4170056 0.721739 1.16758 13.1502 11.7887 -0.853252 12.8873 26.8281
4170073 0.73913 1.26099 13.2025 11.8167 -0.799309 12.7792 27.0193
4170086 0.713043 1.21429 13.1188 11.7887 -0.772193 12.8453 26.8348
4170116 0.713043 1.15824 13.0037 11.7045 -0.803289 12.8879 26.5794
4170122 0.713043 1.15824 13.0037 11.7045 -0.803289 12.8879 26.5794
4170140 0.695652 1.17692 13.0037 11.8074 -0.669931 12.8947 26.6836
4170149 0.643478 1.27033 12.9409 11.8635 -0.421587 12.8511 26.7182
4170159 0.643478 1.27033 12.9409 11.8635 -0.421587 12.8511 26.7182
4170171 0.652174 1.26099 12.8782 11.9103 -0.336166 12.8505 26.7016
4170179 0.756522 1.26099 12.8363 11.8354 -0.464979 12.7322 26.6893
4170193 0.756522 1.26099 12.8363 11.8354 -0.464979 12.7322 26.6893
4170199 0.730435 1.20495 12.8154 11.929 -0.385937 12.8238 26.6798
4170214 0.721739 1.29835 12.7422 12.0132 -0.142233 12.7366 26.7755
4170219 0.721739 1.29835 12.7422 12.0132 -0.142233 12.7366 26.7755
4170229 0.73913 1.25165 12.648 11.9851 -0.141172 12.7568 26.6239
4170249 0.686957 1.26099 12.648 12.0413 -0.0306815 12.8061 26.6372
4170261 0.721739 1.25165 12.6166 12.0413 -0.0426471 12.777 26.6313
4170270 0.721739 1.25165 12.6166 12.0413 -0.0426471 12.777 26.6313
4170283 0.695652 1.29835 12.5643 11.9384 -0.021936 12.7424 26.4967
4170290 0.721739 1.26099 12.512 11.9758 0.00286698 12.7529 26.4705
4170305 0.721739 1.26099 12.512 11.9758 0.00286698 12.7529 26.4705
4170310 0.713043 1.27967 12.3237 11.8635 0.10165 12.7165 26.1799
4170320 0.713043 1.27967 12.2923 11.8635 0.131777 12.7138 26.1485
4170330 0.765217 1.31703 12.2923 11.8074 0.0638634 12.6141 26.1819
4170340 0.791304 1.31703 12.1772 11.6577 0.00595152 12.562 25.9432
4170353 0.791304 1.31703 12.1772 11.6577 0.00595152 12.562 25.9432
4170360 0.965217 1.37308 11.7692 11.3302 -0.0306219 12.2423 25.4377
4170375 1.23478 1.7467 11.6855 11.1805 0.00667274 11.5395 25.8475
4170381 1.23478 1.7467 11.6855 11.1805 0.00667274 11.5395 25.8475
4170390 1.86957 2.40989 11.5391 10.9653 -0.0311986 10.2067 26.7839
4170401 1.86957 2.40989 11.5391 10.9653 -0.0311986 10.2067 26.7839
4170411 2.38261 3.17582 11.1311 10.3759 0.035131 8.83889 27.0654
4170421 2.95652 3.91374 10.472 9.55256 0.0351131 7.33652 26.8948
4170444 3.48696 4.67033 9.66646 8.66373 0.170496 5.76097 26.4875
4170451 4.01739 5.34286 8.90277 7.83104 0.243098 4.23864 26.0941
4170461 4.01739 5.34286 8.90277 7.83104 0.243098 4.23864 26.0941
4170471 4.54783 6.18352 8.19138 7.0732 0.497681 2.61574 25.9959
4170482 4.54783 6.18352 8.19138 7.0732 0.497681 2.61574 25.9959
4170491 4.97391 6.79066 7.56369 6.40892 0.643009 1.28688 25.7372
4170501 5.58261 7.47253 6.94646 5.83819 0.756246 -0.157014 25.8398
4170511 5.58261 7.47253 6.94646 5.83819 0.756246 -0.157014 25.8398
4170521 6.16522 8.16374 6.29785 5.08971 0.76836 -1.71567 25.7165
4170532 6.67826 8.74286 5.49231 4.56577 1.11665 -3.15731 25.4792
4170541 6.67826 8.74286 5.49231 4.56577 1.11665 -3.15731 25.4792
4170555 7.08696 9.28462 5.032 4.11668 1.25619 -4.24539 25.5202
4170561 7.08696 9.28462 5.032 4.11668 1.25619 -4.24539 25.5202
4170577 7.36522 9.66758 4.70769 3.83599 1.39842 -4.97866 25.5765
4170581 7.5913 9.99451 4.488 3.61145 1.48592 -5.53997 25.6853
4170591 7.5913 9.99451 4.488 3.61145 1.48592 -5.53997 25.6853
4170601 7.74783 10.172 4.29969 3.47111 1.55268 -5.92571 25.6906
4170611 7.93913 10.3681 4.12185 3.37755 1.63204 -6.28202 25.8067
4170624 7.93913 10.3681 4.12185 3.37755 1.63204 -6.28202 25.8067
4170631 8.0087 10.3962 4.09046 3.32141 1.56721 -6.38713 25.8167
4170641 8.0087 10.3962 4.09046 3.32141 1.56721 -6.38713 25.8167
4170651 7.94783 10.2841 3.96492 3.26527 1.60689 -6.48122 25.4621
4170661 7.95652 10.3214 3.91262 3.16236 1.59217 -6.62822 25.3529
4170671 7.95652 10.3214 3.91262 3.16236 1.59217 -6.62822 25.3529
4170681 7.93043 10.2374 3.93354 3.19042 1.54577 -6.54986 25.2918
4170695 7.88696 10.228 3.91262 3.19978 1.61355 -6.54205 25.2274
4170703 7.88696 10.228 3.91262 3.19978 1.61355 -6.54205 25.2274
4170718 7.86957 10.1907 3.90215 3.19042 1.59959 -6.54061 25.1528
4170733 7.84348 10.1159 3.92308 3.18107 1.52657 -6.49664 25.0636
4170743 7.84348 10.1813 3.89169 3.153 1.59472 -6.5698 25.0695
4170752 7.84348 10.1813 3.89169 3.153 1.59472 -6.5698 25.0695
4170771 7.84348 10.0879 3.90215 3.11558 1.46083 -6.56155 24.9491
4170773 7.83478 10.0038 3.91262 3.04073 1.30806 -6.58598 24.792
4170787 7.83478 10.0038 3.91262 3.04073 1.30806 -6.58598 24.792
4170794 7.78261 9.97582 3.91262 3.05944 1.35464 -6.54236 24.7305
4170804 7.78261 9.97582 3.91262 3.05944 1.35464 -6.54236 24.7305
4170814 7.72174 9.89176 3.92308 3.08751 1.35482 -6.45887 24.6241
4170824 7.75652 9.87308 3.84985 3.08751 1.37809 -6.52843 24.567
4170834 7.75652 9.87308 3.84985 3.08751 1.37809 -6.52843 24.567
4170844 7.68696 9.81703 3.88123 3.05944 1.33801 -6.48198 24.4447
4170857 7.69565 9.75165 3.944 3.06879 1.20685 -6.3989 24.4601
4170864 7.69565 9.75165 3.944 3.06879 1.20685 -6.3989 24.4601
4170874 7.65217 9.73297 3.98585 3.11558 1.23591 -6.29961 24.4866
4170884 7.65217 9.73297 3.98585 3.11558 1.23591 -6.29961 24.4866
4170895 7.6087 9.66758 3.91262 3.14364 1.3253 -6.30022 24.3325
4170905 7.6 9.66758 3.97538 3.13429 1.25782 -6.25044 24.3773
4170915 7.6 9.66758 3.97538 3.13429 1.25782 -6.25044 24.3773
4170926 7.5913 9.61154 3.99631 3.16236 1.21737 -6.18446 24.3615
4170935 7.6 9.62088 3.99631 3.20914 1.26268 -6.1504 24.4263
4170949 7.6 9.62088 3.99631 3.20914 1.26268 -6.1504 24.4263
4170955 7.58261 9.61154 4.14277 3.3027 1.20625 -5.93476 24.6396
4170965 7.58261 9.61154 4.14277 3.3027 1.20625 -5.93476 24.6396
4170975 7.63478 9.6956 4.24738 3.36819 1.18419 -5.84152 24.946
4170985 7.57391 9.78901 4.32062 3.46175 1.34839 -5.71512 25.1453
4171005 7.69565 9.84505 4.34154 3.46175 1.25238 -5.76315 25.344
4171019 7.58261 9.91044 4.40431 3.52724 1.42654 -5.64109 25.4246
4171025 7.58261 9.91044 4.40431 3.52724 1.42654 -5.64109 25.4246
4171035 7.65217 9.8544 4.54031 3.58338 1.21467 -5.49129 25.6303
4171055 7.61739 9.80769 4.60308 3.63016 1.18615 -5.37361 25.6583
4171066 7.61739 9.79835 4.65538 3.64887 1.14157 -5.31385 25.72
4171076 7.61739 9.79835 4.65538 3.64887 1.14157 -5.31385 25.72
4171087 7.5913 9.82637 4.59262 3.69565 1.30136 -5.32722 25.7059
4171096 7.52174 9.76099 4.64492 3.71436 1.27592 -5.22001 25.642
4171110 7.52174 9.76099 4.64492 3.71436 1.27592 -5.22001 25.642
4171116 7.46087 9.77967 4.67631 3.77986 1.38379 -5.12773 25.6967
4171126 7.46087 9.77967 4.67631 3.77986 1.38379 -5.12773 25.6967
4171137 7.3913 9.62088 4.73908 3.76114 1.2265 -5.0046 25.5124
4171146 7.32174 9.52747 4.72862 3.87342 1.32659 -4.86057 25.4512
4171166 7.1913 9.36868 4.72862 3.87342 1.31367 -4.74403 25.162
4171181 7.06087 9.12582 4.79138 3.86406 1.14486 -4.54746 24.8421
4171186 7.06087 9.12582 4.79138 3.86406 1.14486 -4.54746 24.8421
4171196 6.87826 9.04176 4.91692 4.06054 1.3125 -4.18269 24.8975
4171206 6.87826 9.04176 4.91692 4.06054 1.3125 -4.18269 24.8975
4171216 6.73913 8.88297 5.168 4.23831 1.21277 -3.72524 25.0284
4171230 6.53043 8.63077 5.58646 4.48156 0.986388 -3.02814 25.2292
4171236 6.53043 8.63077 5.58646 4.48156 0.986388 -3.02814 25.2292
4171246 6.37391 8.35989 6.23508 5.04293 0.762951 -1.99282 26.0118
4171256 6.37391 8.35989 6.23508 5.04293 0.762951 -1.99282 26.0118
4171266 5.93913 7.89286 7.53231 6.09081 0.466421 -0.114116 27.4551
4171277 5.36522 7.24835 9.19569 7.60649 0.249812 2.13591 29.4158
4171286 5.36522 7.24835 9.19569 7.60649 0.249812 2.13591 29.4158
4171300 4.63478 6.39835 10.2942 8.68244 0.126508 3.97044 30.0097
4171306 4.06957 5.55769 10.336 8.86021 0.010699 4.97977 28.8235
4171316 4.06957 5.55769 10.336 8.86021 0.010699 4.97977 28.8235
4171328 3.55652 4.92253 10.1895 8.83214 0.00782609 5.75037 27.5007
4171337 3.55652 4.92253 10.1895 8.83214 0.00782609 5.75037 27.5007
4171347 3.10435 4.22198 10.2105 8.85085 -0.229254 6.67073 26.3876
4171357 2.84348 3.75495 10.3883 9.05669 -0.403321 7.39913 26.0434
4171370 2.84348 3.75495 10.3883 9.05669 -0.403321 7.39913 26.0434
4171377 2.48696 3.40934 10.8486 9.39351 -0.509524 8.23261 26.1384
4171393 2.23478 3.03571 11.3194 9.83324 -0.648306 9.01604 26.4231
4171416 1.97391 2.78352 11.832 10.1981 -0.769264 9.67204 26.7876
4171418 1.97391 2.78352 11.832 10.1981 -0.769264 9.67204 26.7876
4171429 1.74783 2.45659 12.1982 10.6098 -0.814061 10.3306 27.0124
4171439 1.6 2.2511 12.4911 10.7688 -0.987722 10.7385 27.111
4171448 1.6 2.2511 12.4911 10.7688 -0.987722 10.7385 27.111
4171462 1.52174 2.00824 12.6689 10.8624 -1.21946 11.0867 27.0613
4171467 1.4087 1.89615 12.6898 10.8531 -1.25647 11.3071 26.8477
4171478 1.4087 1.89615 12.6898 10.8531 -1.25647 11.3071 26.8477
4171487 1.34783 1.80275 12.7108 10.8156 -1.34968 11.457 26.677
4171497 1.34783 1.80275 12.7108 10.8156 -1.34968 11.457 26.677
4171509 1.26957 1.68132 12.7108 10.7782 -1.43799 11.6518 26.4399
4171518 1.21739 1.66264 12.8572 10.9466 -1.3729 11.7621 26.6839
4171532 1.21739 1.66264 12.8572 10.9466 -1.3729 11.7621 26.6839
4171537 1.2 1.60659 12.92 11.0121 -1.40368 11.8511 26.7387
4171548 1.05217 1.55989 13.0037 11.1524 -1.25478 12.0726 26.7682
4171558 1.05217 1.55989 13.0037 11.1524 -1.25478 12.0726 26.7682
4171567 1.05217 1.48516 13.1292 11.2834 -1.31058 12.1755 26.95
4171580 1.05217 1.48516 13.1292 11.2834 -1.31058 12.1755 26.95
4171588 0.982609 1.43846 13.1711 11.2928 -1.3227 12.2984 26.8849
4171597 0.930435 1.39176 13.1502 11.3676 -1.23062 12.4044 26.84
4171618 0.965217 1.42912 13.1188 11.3489 -1.21541 12.326 26.862
4171629 0.904348 1.36374 13.0978 11.2928 -1.26194 12.4476 26.6587
4171640 0.904348 1.36374 13.0978 11.2928 -1.26194 12.4476 26.6587
4171655 0.843478 1.32637 13.0142 11.3864 -1.07724 12.5501 26.5704
4171659 0.843478 1.32637 13.0142 11.3864 -1.07724 12.5501 26.5704
4171669 0.826087 1.31703 12.9723 11.4518 -0.968786 12.58 26.5673
4171680 0.852174 1.34505 13.0246 11.508 -0.957502 12.534 26.7298
4171689 0.852174 1.34505 13.0246 11.508 -0.957502 12.534 26.7298
4171705 0.834783 1.33571 13.0142 11.5641 -0.887056 12.5657 26.7488
4171709 0.808696 1.34505 12.8886 11.6296 -0.677347 12.5775 26.672
4171719 0.808696 1.34505 12.8886 11.6296 -0.677347 12.5775 26.672
4171729 0.843478 1.32637 12.8154 11.6109 -0.678286 12.5524 26.5961
4171739 0.843478 1.32637 12.8154 11.6109 -0.678286 12.5524 26.5961
4171752 0.826087 1.4011 12.6794 11.5641 -0.51024 12.4759 26.4707
4171759 0.921739 1.41044 12.5329 11.4799 -0.5355 12.3443 26.345
4171769 0.921739 1.41044 12.5329 11.4799 -0.5355 12.3443 26.345
4171779 1.02609 1.50385 12.4702 11.5641 -0.40306 12.1428 26.5642
4171789 1.02609 1.50385 12.4702 11.5641 -0.40306 12.1428 26.5642
4171799 1.11304 1.54121 12.3132 11.6296 -0.240116 12.0062 26.5971
4171809 1.17391 1.67198 12.1772 11.6296 -0.0464842 11.7967 26.6527
4171824 1.17391 1.67198 12.1772 11.6296 -0.0464842 11.7967 26.6527
4171829 1.22609 1.70934 12.1145 11.5922 -0.0366166 11.6946 26.6421
4171839 1.33913 1.82143 11.9785 11.5548 0.054878 11.448 26.6938
4171850 1.33913 1.82143 11.9785 11.5548 0.054878 11.448 26.6938
4171859 1.41739 1.84945 11.7483 11.4799 0.15443 11.301 26.4951
4171870 1.41739 1.84945 11.7483 11.4799 0.15443 11.301 26.4951
4171880 1.48696 1.96154 11.56 11.4706 0.363624 11.093 26.4791
4171892 1.53913 2.03626 11.4658 11.4425 0.447232 10.9499 26.4837
4171900 1.53913 2.03626 11.4658 11.4425 0.447232 10.9499 26.4837
4171915 1.58261 2.10165 11.3717 11.3957 0.513253 10.8215 26.4517
4171920 1.66087 2.2044 11.1938 11.377 0.6872 10.6137 26.4361
4171930 1.66087 2.2044 11.1938 11.377 0.6872 10.6137 26.4361
4171940 1.77391 2.27912 11.1311 11.3957 0.72408 10.4254 26.5798
4171951 1.77391 2.27912 11.1311 11.3957 0.72408 10.4254 26.5798
4171965 1.75652 2.26978 11.0265 11.3209 0.765589 10.4201 26.3736
4171970 1.81739 2.43791 11.0055 11.2928 0.854662 10.1924 26.5536
4171980 1.81739 2.43791 11.0055 11.2928 0.854662 10.1924 26.5536
4171990 1.85217 2.51264 10.9218 11.1431 0.834012 10.0456 26.4298
4172000 1.90435 2.60604 10.8172 11.1057 0.936446 9.88101 26.4333
4172012 1.90435 2.60604 10.8172 11.1057 0.936446 9.88101 26.4333
4172020 1.97391 2.67143 10.6603 11.0682 1.04786 9.71598 26.3739
4172037 1.97391 2.67143 10.6603 11.0682 1.04786 9.71598 26.3739
4172044 1.9913 2.70879 10.5557 10.7688 0.894001 9.58195 26.0246
4172054 2.08696 2.83022 10.2837 10.6285 1.05314 9.28886 25.8294
4172061 2.08696 2.83022 10.2837 10.6285 1.05314 9.28886 25.8294
4172070 2.1913 2.98901 10.1477 10.5256 1.13679 8.98887 25.8536
4172087 2.4087 3.16648 9.88615 10.3946 1.22432 8.53126 25.8559
4172091 2.4087 3.16648 9.88615 10.3946 1.22432 8.53126 25.8559
4172101 2.58261 3.33462 9.71877 10.3198 1.30318 8.16079 25.9557
4172111 2.58261 3.33462 9.71877 10.3198 1.30318 8.16079 25.9557
4172121 2.71304 3.4467 9.59323 10.2168 1.30658 7.88434 25.9698
4172138 2.85217 3.60549 9.53046 10.0859 1.25481 7.56999 26.074
4172141 2.85217 3.60549 9.53046 10.0859 1.25481 7.56999 26.074
4172151 3.01739 3.70824 9.35262 9.85195 1.14749 7.21877 25.9302
4172162 3.21739 3.87637 9.15385 9.52449 0.99878 6.74251 25.7721
4172172 3.21739 3.87637 9.15385 9.52449 0.99878 6.74251 25.7721
4172184 3.4087 4.07253 8.92369 9.18767 0.906327 6.2304 25.5926
4172192 3.4087 4.07253 8.92369 9.18767 0.906327 6.2304 25.5926
4172208 3.64348 4.26868 8.71446 8.88828 0.782895 5.69701 25.5149
4172213 3.92174 4.58626 8.54708 8.68244 0.77697 5.08296 25.7375
4172222 3.92174 4.58626 8.54708 8.68244 0.77697 5.08296 25.7375
4172232 4.22609 4.89451 8.30646 8.43919 0.774315 4.42182 25.8662
4172243 4.50435 5.15604 8.12862 8.21464 0.709248 3.85496 26.0036
4172256 4.50435 5.15604 8.12862 8.21464 0.709248 3.85496 26.0036
4172264 4.66087 5.36154 7.82523 7.94331 0.793642 3.34195 25.791
4172272 4.66087 5.36154 7.82523 7.94331 0.793642 3.34195 25.791
4172283 4.89565 5.67912 7.58462 7.64392 0.816533 2.70533 25.8033
4172293 5.13043 6.07143 7.29169 7.29774 0.917989 1.97018 25.7913
4172312 5.4087 6.49176 6.88369 6.87672 1.04838 1.08724 25.6609
4172327 5.65217 6.8467 6.68492 6.4557 0.941226 0.375441 25.6395
4172344 5.86957 7.28571 6.32923 6.05338 1.11628 -0.453833 25.5379
4172354 5.86957 7.28571 6.32923 6.05338 1.11628 -0.453833 25.5379
4172365 6.10435 7.71538 6.02585 5.64172 1.20345 -1.26661 25.4873
4172375 6.35652 8.12637 5.73292 5.24876 1.26223 -2.0624 25.4646
4172384 6.35652 8.12637 5.73292 5.24876 1.26223 -2.0624 25.4646
4172399 6.62609 8.44396 5.45046 4.90259 1.24886 -2.7831 25.4231
4172404 6.83478 8.83626 5.23077 4.63126 1.3727 -3.41264 25.5331
4172425 7.14783 9.17253 4.85415 4.35058 1.48983 -4.18155 25.5251
4172435 7.14783 9.17253 4.85415 4.35058 1.48983 -4.18155 25.5251
4172448 7.37391 9.49011 4.64492 4.1541 1.58338 -4.71398 25.663
4172455 7.58261 9.82637 4.42523 3.85471 1.62837 -5.33053 25.6889
4172471 7.58261 9.82637 4.42523 3.85471 1.62837 -5.33053 25.6889
4172475 7.76522 10.0132 4.26831 3.71436 1.64398 -5.7038 25.7611
4172485 7.85217 10.1907 4.14277 3.57402 1.71755 -6.01292 25.7596
4172495 7.85217 10.1907 4.14277 3.57402 1.71755 -6.01292 25.7596
4172505 7.89565 10.256 4.03815 3.55531 1.82321 -6.15158 25.7452
4172519 7.89565 10.256 4.03815 3.55531 1.82321 -6.15158 25.7452
4172525 7.84348 10.2654 3.93354 3.46175 1.91157 -6.30108 25.5042
4172535 7.86087 10.2187 3.95446 3.36819 1.74349 -6.35195 25.4022
4172545 7.86087 10.2187 3.95446 3.36819 1.74349 -6.35195 25.4022
4172555 7.8087 10.228 3.92308 3.28398 1.76304 -6.43504 25.2438
4172569 7.83478 10.2467 3.86031 3.29334 1.82776 -6.49561 25.2351
4172575 7.83478 10.2467 3.86031 3.29334 1.82776 -6.49561 25.2351
4172585 7.85217 10.2841 3.74523 3.24656 1.92337 -6.6526 25.128
4172595 7.85217 10.2841 3.74523 3.24656 1.92337 -6.6526 25.128
4172605 7.8087 10.256 3.73477 3.20914 1.92105 -6.67019 25.0086
4172619 7.86957 10.2934 3.69292 3.17171 1.90053 -6.77152 25.0276
4172625 7.86957 10.2934 3.69292 3.17171 1.90053 -6.77152 25.0276
4172635 7.88696 10.2374 3.63015 3.09686 1.82799 -6.87929 24.8513
4172646 7.88696 10.1907 3.61969 3.03137 1.7342 -6.93115 24.7287
4172655 7.88696 10.1907 3.61969 3.03137 1.7342 -6.93115 24.7287
4172668 7.90435 10.144 3.57785 3.04073 1.72548 -6.95045 24.6669
4172695 7.77391 9.93846 3.56738 3.02201 1.6657 -6.86553 24.3018
4172697 7.72174 9.81703 3.65108 3.04073 1.5321 -6.71484 24.2306
4172720 7.71304 9.84505 3.672 3.03137 1.53678 -6.71109 24.2615
4172726 7.66087 9.83571 3.672 3.16236 1.71099 -6.57325 24.3309
4172736 7.66087 9.83571 3.672 3.16236 1.71099 -6.57325 24.3309
4172746 7.66087 9.84505 3.77662 3.19978 1.64134 -6.45131 24.4823
4172756 7.66087 9.84505 3.77662 3.19978 1.64134 -6.45131 24.4823
4172766 7.70435 9.9011 3.82892 3.26527 1.65296 -6.38344 24.6996
4172776 7.8087 9.96648 3.93354 3.3027 1.52625 -6.32048 25.0114
4172790 7.8087 9.96648 3.93354 3.3027 1.52625 -6.32048 25.0114
4172796 7.88696 10.1159 3.92308 3.41497 1.69772 -6.31282 25.3409
4172814 7.95652 10.2187 4.04862 3.39626 1.57084 -6.28238 25.6201
4172818 7.95652 10.2187 4.04862 3.39626 1.57084 -6.28238 25.6201
4172828 7.95652 10.2187 4.06954 3.48982 1.63442 -6.1877 25.7346
4172838 7.95652 10.2187 4.06954 3.48982 1.63442 -6.1877 25.7346
4172847 7.95652 10.1346 4.13231 3.49917 1.50156 -6.09949 25.7226
4172862 7.87826 10.2187 4.16369 3.49917 1.62647 -6.07579 25.7598
4172877 7.91304 10.2 4.17415 3.49917 1.56282 -6.07281 25.7864
4172890 7.85217 10.144 4.17415 3.54595 1.61725 -5.99389 25.7162
4172898 7.85217 10.144 4.17415 3.54595 1.61725 -5.99389 25.7162
4172909 7.84348 10.1066 4.16369 3.56467 1.62012 -5.97099 25.6784
4172927 7.78261 9.98516 4.20554 3.49917 1.46844 -5.92584 25.4725
4172939 7.85217 9.99451 4.27877 3.55531 1.38126 -5.84831 25.6808
4172949 7.85217 9.99451 4.27877 3.55531 1.38126 -5.84831 25.6808
4172961 7.85217 9.87308 4.17415 3.46175 1.28987 -5.9674 25.3612
4172969 7.75652 9.77967 4.216 3.50853 1.3021 -5.82624 25.2607
4172985 7.75652 9.77967 4.216 3.50853 1.3021 -5.82624 25.2607
4172991 7.64348 9.77967 4.25785 3.59274 1.45515 -5.68133 25.2737
4172999 7.64348 9.77967 4.25785 3.59274 1.45515 -5.68133 25.2737
4173009 7.61739 9.63022 4.28923 3.52724 1.24764 -5.64421 25.0641
4173019 7.61739 9.63956 4.33108 3.57402 1.25697 -5.57497 25.1621
4173031 7.61739 9.63956 4.33108 3.57402 1.25697 -5.57497 25.1621
4173039 7.57391 9.51813 4.39385 3.60209 1.14842 -5.43852 25.088
4173056 7.52174 9.47143 4.52985 3.60209 1.01685 -5.29026 25.1251
4173059 7.52174 9.47143 4.52985 3.60209 1.01685 -5.29026 25.1251
4173069 7.53913 9.40604 4.58215 3.74243 1.01623 -5.11714 25.2698
4173081 7.53913 9.40604 4.58215 3.74243 1.01623 -5.11714 25.2698
4173089 7.44348 9.37802 4.624 3.75179 1.05401 -5.02775 25.1973
4173105 7.41739 9.35934 4.82277 3.95762 1.05333 -4.69322 25.5571
4173109 7.41739 9.35934 4.82277 3.95762 1.05333 -4.69322 25.5571
4173119 7.3913 9.27527 5.08431 4.11668 0.885606 -4.32913 25.8676
4173129 7.3913 9.27527 5.31446 4.11668 0.657323 -4.15866 26.0977
4173139 7.23478 9.10714 5.31446 4.27573 0.803661 -3.90543 25.9321
4173154 7.03478 8.94835 5.58646 4.47221 0.767341 -3.41247 26.0418
4173159 7.03478 8.94835 5.58646 4.47221 0.767341 -3.41247 26.0418
4173169 6.77391 8.57473 6.03631 4.79967 0.53865 -2.5851 26.1846
4173179 6.34783 8.18242 6.69538 5.27683 0.392452 -1.44781 26.5025
4173189 6.34783 8.18242 6.69538 5.27683 0.392452 -1.44781 26.5025
4173203 5.72174 7.55659 7.68923 6.06274 0.192714 0.262839 27.0303
4173209 5.72174 7.55659 7.68923 6.06274 0.192714 0.262839 27.0303
4173219 5.02609 6.87473 8.79815 6.97964 0.0272065 2.10107 27.6786
4173229 4.46087 6.38901 9.76062 7.55036 -0.25045 3.44153 28.1609
4173239 4.46087 6.38901 9.76062 7.55036 -0.25045 3.44153 28.1609
4173251 3.88696 5.74451 10.0849 7.80297 -0.385547 4.50034 27.5194
4173259 3.44348 5.17473 10.4092 8.08365 -0.548053 5.46346 27.1111
4173273 3.44348 5.17473 10.4092 8.08365 -0.548053 5.46346 27.1111
4173279 3.01739 4.66099 10.6812 8.59824 -0.407484 6.45512 26.9579
4173289 3.01739 4.66099 10.6812 8.59824 -0.407484 6.45512 26.9579
4173298 2.6 4.01648 11.0578 9.13154 -0.475483 7.59511 26.8059
4173321 2.26087 3.63352 11.424 9.80517 -0.226906 8.48052 27.1236
4173334 2.26087 3.63352 11.424 9.80517 -0.226906 8.48052 27.1236
4173335 1.93913 3.19451 11.7169 10.2262 -0.217299 9.31213 27.0768
4173346 1.65217 2.75549 11.9785 10.7127 -0.149846 10.1205 27.0988
4173350 1.65217 2.75549 11.9785 10.7127 -0.149846 10.1205 27.0988
4173360 1.3913 2.33516 12.3865 11.1337 -0.283395 10.897 27.2467
4173380 1.16522 1.9522 12.4492 11.3864 -0.255908 11.5302 26.953
4173394 1.06087 1.80275 12.5015 11.5454 -0.199045 11.8076 26.9106
4173400 1.06087 1.80275 12.5015 11.5454 -0.199045 11.8076 26.9106
4173410 0.886957 1.60659 12.5434 11.6483 -0.164348 12.1967 26.6853
4173421 0.808696 1.55055 12.512 11.6109 -0.150338 12.3274 26.4821
4173431 0.808696 1.55055 12.512 11.6109 -0.150338 12.3274 26.4821
4173443 0.834783 1.42912 12.5225 11.6015 -0.309405 12.4262 26.3879
4173451 0.834783 1.42912 12.5225 11.6015 -0.309405 12.4262 26.3879
4173467 0.73913 1.33571 12.5538 11.6203 -0.320973 12.6287 26.2489
4173471 0.747826 1.33571 12.6585 11.7606 -0.292405 12.6415 26.5026
4173481 0.747826 1.33571 12.6585 11.7606 -0.292405 12.6415 26.5026
4173491 0.73913 1.29835 12.5852 11.7793 -0.233604 12.6849 26.402
4173501 0.713043 1.26099 12.6898 11.8635 -0.26236 12.7676 26.5274
4173514 0.713043 1.26099 12.6898 11.8635 -0.26236 12.7676 26.5274
4173521 0.686957 1.24231 12.7735 11.9571 -0.244857 12.829 26.6599
4173539 0.686957 1.24231 12.7735 11.9571 -0.244857 12.829 26.6599
4173541 0.695652 1.22363 12.7212 12.0413 -0.1424 12.842 26.6818
4173551 0.695652 1.27967 12.8154 12.0881 -0.133292 12.7953 26.8788
4173564 0.695652 1.27967 12.8154 12.0881 -0.133292 12.7953 26.8788
4173571 0.721739 1.27033 12.784 11.9664 -0.251456 12.7653 26.7425
4173587 0.721739 1.27967 12.8363 11.9196 -0.335167 12.756 26.7574
4173591 0.721739 1.27967 12.8363 11.9196 -0.335167 12.756 26.7574
4173601 0.721739 1.22363 12.784 11.8729 -0.384597 12.8062 26.6022
4173612 0.721739 1.22363 12.784 11.8729 -0.384597 12.8062 26.6022
4173621 0.66087 1.20495 12.784 11.77 -0.444719 12.8813 26.4198
4173636 0.713043 1.13956 12.8677 11.8916 -0.516306 12.9115 26.6119
4173641 0.713043 1.13956 12.8677 11.8916 -0.516306 12.9115 26.6119
4173652 0.678261 1.18626 12.8886 11.9103 -0.44098 12.9022 26.6634
4173662 0.634783 1.15824 12.9514 11.9477 -0.449766 12.9848 26.6921
4173672 0.634783 1.15824 12.9514 11.9477 -0.449766 12.9848 26.6921
4173688 0.643478 1.27967 13.0142 11.9758 -0.373587 12.8563 26.9131
4173702 0.686957 1.15824 12.9409 11.9664 -0.470243 12.9308 26.7525
4173713 0.704348 1.17692 12.9828 11.929 -0.542298 12.8936 26.793
4173722 0.704348 1.17692 12.9828 11.929 -0.542298 12.8936 26.793
4173734 0.695652 1.21429 13.0351 11.9196 -0.555371 12.8672 26.8647
4173742 0.704348 1.20495 13.0665 11.8916 -0.627419 12.8681 26.8673
4173756 0.704348 1.20495 13.0665 11.8916 -0.627419 12.8681 26.8673
4173762 0.73913 1.20495 12.9828 11.8542 -0.61872 12.8223 26.781
4173773 0.73913 1.20495 12.9828 11.8542 -0.61872 12.8223 26.781
4173782 0.678261 1.20495 12.9828 11.8448 -0.572135 12.8849 26.7108
4173792 0.695652 1.21429 12.9618 11.8916 -0.515287 12.8591 26.7634
4173806 0.695652 1.21429 12.9618 11.8916 -0.515287 12.8591 26.7634
4173812 0.713043 1.20495 12.9095 11.8635 -0.519018 12.8442 26.691
4173829 0.713043 1.20495 12.9095 11.8635 -0.519018 12.8442 26.691
4173834 0.669565 1.21429 12.9409 11.8635 -0.498994 12.8824 26.6883
4173842 0.704348 1.25165 12.9618 11.9103 -0.469895 12.8127 26.8281
4173854 0.704348 1.25165 12.9618 11.9103 -0.469895 12.8127 26.8281
4173864 0.634783 1.17692 12.9932 12.0132 -0.408196 12.9733 26.8181
4173879 0.713043 1.28901 12.8677 12.0226 -0.25022 12.7666 26.8923
4173894 0.695652 1.30769 12.8049 12.0413 -0.141162 12.7616 26.8495
4173905 0.695652 1.30769 12.8049 12.0413 -0.141162 12.7616 26.8495
4173914 0.678261 1.24231 12.8782 12.1255 -0.175145 12.86 26.9242
4173930 0.669565 1.27033 12.784 12.1161 -0.0625089 12.8317 26.84
4173935 0.669565 1.27033 12.784 12.1161 -0.0625089 12.8317 26.84
4173945 0.66087 1.31703 12.7003 12.0506 0.00606775 12.78 26.7288
4173956 0.669565 1.27033 12.7003 12.0787 -0.0195011 12.8219 26.7189
4173971 0.669565 1.27033 12.7003 12.0787 -0.0195011 12.8219 26.7189
4173979 0.678261 1.29835 12.6271 12.1536 0.136939 12.7838 26.7572
4173985 0.669565 1.32637 12.5538 12.1068 0.196698 12.7537 26.6566
4174002 0.669565 1.32637 12.5538 12.1068 0.196698 12.7537 26.6566
4174006 0.695652 1.24231 12.3969 12.0974 0.233752 12.8005 26.4323
4174015 0.695652 1.24231 12.3969 12.0974 0.233752 12.8005 26.4323
4174026 0.652174 1.29835 12.3655 12.0881 0.34909 12.7838 26.4041
4174036 0.686957 1.32637 12.3028 12.0319 0.349712 12.7076 26.348
4174050 0.686957 1.32637 12.3028 12.0319 0.349712 12.7076 26.348
4174056 0.773913 1.32637 12.1877 12.0039 0.350511 12.6035 26.2918
4174066 0.843478 1.4011 11.9785 11.8167 0.380084 12.4141 26.0398
4174087 0.956522 1.55055 11.9994 11.639 0.223374 12.1233 26.1454
4174099 0.956522 1.55055 11.9994 11.639 0.223374 12.1233 26.1454
4174106 1.15652 1.76538 11.7797 11.4425 0.259769 11.6471 26.1441
4174116 1.42609 2.07363 11.5391 11.2647 0.354689 11.0085 26.3035
4174127 1.42609 2.07363 11.5391 11.2647 0.354689 11.0085 26.3035
4174137 1.86087 2.48462 11.1415 10.8437 0.309435 10.049 26.3307
4174149 2.27826 2.95165 10.7335 10.404 0.325981 9.04958 26.3674
4174171 2.63478 3.34396 10.2942 9.94551 0.343779 8.15892 26.2184
4174177 2.63478 3.34396 10.2942 9.94551 0.343779 8.15892 26.2184
4174187 3.04348 3.82033 9.82338 9.52449 0.455865 7.14418 26.2117
4174198 3.42609 4.24066 9.27938 9.05669 0.569049 6.15471 26.0028
4174208 3.42609 4.24066 9.27938 9.05669 0.569049 6.15471 26.0028
4174221 3.82609 4.76374 8.704 8.32691 0.54698 4.94195 25.6207
4174227 4.26087 5.30549 8.14954 7.87782 0.754976 3.78667 25.5937
4174237 4.26087 5.30549 8.14954 7.87782 0.754976 3.78667 25.5937
4174250 4.64348 5.84725 7.64738 7.29774 0.839499 2.62684 25.4359
4174257 4.64348 5.84725 7.64738 7.29774 0.839499 2.62684 25.4359
4174272 5.04348 6.26758 7.16615 6.84865 0.894937 1.60137 25.3259
4174278 5.46957 6.91209 6.88369 6.41827 0.951096 0.53749 25.6836
4174287 5.46957 6.91209 6.88369 6.41827 0.951096 0.53749 25.6836
4174298 5.81739 7.46319 6.392 5.96918 1.19237 -0.537832 25.6418
4174307 6.21739 7.9022 6.01538 5.54816 1.18519 -1.49284 25.6831
4174323 6.21739 7.9022 6.01538 5.54816 1.18519 -1.49284 25.6831
4174327 6.46087 8.33187 5.64923 5.071 1.26677 -2.39438 25.513
4174347 6.73043 8.62143 5.33538 4.73418 1.2684 -3.11684 25.4214
4174359 6.93043 8.8456 5.17846 4.51899 1.23236 -3.57936 25.4735
4174371 6.93043 8.8456 5.17846 4.51899 1.23236 -3.57936 25.4735
4174379 7.06957 9.0044 5.00062 4.28509 1.20201 -4.01519 25.3597
4174389 7.15652 9.07912 4.97969 4.10732 1.03684 -4.23453 25.3227
4174400 7.15652 9.07912 4.97969 4.10732 1.03684 -4.23453 25.3227
4174409 7.24348 9.17253 4.896 4.06054 1.07753 -4.40996 25.3725
4174423 7.24348 9.17253 4.896 4.06054 1.07753 -4.40996 25.3725
4174429 7.34783 9.3033 4.82277 3.85471 0.974599 -4.72212 25.3286
4174439 7.48696 9.45275 4.82277 3.88277 0.999984 -4.81619 25.6452
4174449 7.48696 9.45275 4.82277 3.88277 0.999984 -4.81619 25.6452
4174460 7.5913 9.6956 4.65538 3.79857 1.21158 -5.14724 25.7409
4174472 7.5913 9.6956 4.65538 3.79857 1.21158 -5.14724 25.7409
4174479 7.68696 9.81703 4.57169 3.65823 1.18191 -5.40575 25.7339
4174489 7.76522 9.91978 4.55077 3.63952 1.20125 -5.50412 25.8753
4174499 7.76522 9.91978 4.55077 3.63952 1.20125 -5.50412 25.8753
4174509 7.74783 10.0319 4.352 3.50853 1.4046 -5.80289 25.6402
4174523 7.76522 10.0319 4.26831 3.46175 1.42994 -5.91548 25.5271
4174529 7.76522 10.0319 4.26831 3.46175 1.42994 -5.91548 25.5271
4174539 7.66957 10.0225 4.13231 3.34012 1.55057 -6.09171 25.1645
4174549 7.66957 10.0225 4.13231 3.34012 1.55057 -6.09171 25.1645
4174559 7.63478 9.91044 4.14277 3.39626 1.52401 -5.98355 25.0842
4174570 7.55652 9.87308 4.04862 3.34948 1.62864 -6.06068 24.8277
4174580 7.55652 9.87308 4.04862 3.34948 1.62864 -6.06068 24.8277
4174596 7.50435 9.8544 3.99631 3.31205 1.68827 -6.11161 24.6671
4174604 7.4087 9.78901 3.97538 3.32141 1.76197 -6.06314 24.4945
4174612 7.4087 9.78901 3.97538 3.32141 1.76197 -6.06314 24.4945
4174620 7.43478 9.80769 3.98585 3.34948 1.76637 -6.0464 24.5778
4174630 7.43478 9.80769 3.98585 3.34948 1.76637 -6.0464 24.5778
4174647 7.48696 9.80769 3.99631 3.3027 1.65401 -6.09648 24.5937
4174650 7.52174 9.87308 4.01723 3.42433 1.77002 -6.0113 24.8364
4174660 7.52174 9.87308 4.01723 3.42433 1.77002 -6.0113 24.8364
4174672 7.62609 10.0412 4.05908 3.41497 1.76106 -6.08157 25.1413
4174680 7.61739 10.1253 4.14277 3.52724 1.86163 -5.94545 25.4127
4174690 7.61739 10.1253 4.14277 3.52724 1.86163 -5.94545 25.4127
4174700 7.74783 10.1907 4.11138 3.57402 1.85908 -6.00206 25.6239
4174723 7.67826 10.256 4.17415 3.58338 1.9335 -5.94164 25.6918
4174730 7.72174 10.256 4.16369 3.57402 1.89053 -5.97309 25.7155
4174747 7.72174 10.256 4.16369 3.57402 1.89053 -5.97309 25.7155
4174750 7.73043 10.2467 4.14277 3.64887 1.96204 -5.92898 25.7688
4174763 7.67826 10.2 4.12185 3.63016 1.98013 -5.92635 25.6303
4174771 7.67826 10.2 4.12185 3.63016 1.98013 -5.92635 25.6303
4174780 7.57391 10.1066 4.08 3.5366 1.96592 -5.96743 25.2971
4174796 7.57391 10.1066 4.08 3.5366 1.96592 -5.96743 25.2971
4174800 7.51304 10.0132 4.08 3.58338 1.98844 -5.87317 25.1896
4174810 7.49565 10.0225 4.04862 3.55531 2.02369 -5.91964 25.1221
4174820 7.49565 10.0225 4.04862 3.55531 2.02369 -5.91964 25.1221
4174830 7.47826 10.0412 4.05908 3.55531 2.04822 -5.9114 25.1339
4174845 7.45217 9.93846 4.02769 3.57402 2.03324 -5.87515 24.9923
4174850 7.45217 9.93846 4.02769 3.57402 2.03324 -5.87515 24.9923
4174860 7.3913 9.98516 4.11138 3.51789 1.9999 -5.84698 25.0057
4174881 7.33913 9.88242 3.99631 3.54595 2.1129 -5.86296 24.7638
4174896 7.33913 9.92912 4.13231 3.63016 2.08528 -5.69647 25.0307
4174901 7.33913 9.92912 4.13231 3.63016 2.08528 -5.69647 25.0307
4174911 7.4087 9.93846 4.15323 3.64887 2.01339 -5.69304 25.1493
4174921 7.45217 9.87308 4.20554 3.70501 1.90243 -5.59604 25.2358
4174931 7.45217 9.87308 4.20554 3.70501 1.90243 -5.59604 25.2358
4174946 7.45217 9.9011 4.33108 3.75179 1.83758 -5.46687 25.4361
4174951 7.45217 9.9011 4.33108 3.75179 1.83758 -5.46687 25.4361
4174961 7.37391 9.80769 4.25785 3.72372 1.88733 -5.48423 25.1632
4174972 7.44348 9.76099 4.44615 3.82664 1.66619 -5.25862 25.4773
4174981 7.44348 9.76099 4.44615 3.82664 1.66619 -5.25862 25.4773
4174998 7.3913 9.68626 4.488 3.85471 1.6342 -5.15427 25.4203
4175001 7.31304 9.6489 4.54031 3.93891 1.70439 -5.00138 25.4412
4175011 7.31304 9.6489 4.54031 3.93891 1.70439 -5.00138 25.4412
4175023 7.25217 9.51813 4.78092 3.92955 1.3879 -4.74465 25.4808
4175048 7.24348 9.3967 4.91692 4.05118 1.2569 -4.4939 25.6083
4175052 7.23478 9.24725 5.17846 4.13539 0.939488 -4.16821 25.7959
4175063 7.23478 9.24725 5.17846 4.13539 0.939488 -4.16821 25.7959
4175074 7.07826 9.11648 5.31446 4.25702 0.951615 -3.85578 25.7662
4175082 6.95652 8.91099 5.74338 4.44414 0.628689 -3.26999 26.055
4175105 6.95652 8.91099 5.74338 4.44414 0.628689 -3.26999 26.055
4175106 6.90435 8.66813 6.07815 4.6219 0.292638 -2.78185 26.2725
4175126 6.75652 8.44396 6.392 4.78096 0.0724137 -2.29067 26.3734
4175132 6.46087 8.10769 6.76862 4.96808 -0.146087 -1.61481 26.3053
4175154 6.21739 7.79011 7.072 5.23005 -0.255831 -0.972338 26.3096
4175164 5.86087 7.43516 7.60554 5.41717 -0.583303 -0.155779 26.3187
4175176 5.86087 7.43516 7.60554 5.41717 -0.583303 -0.155779 26.3187
4175185 5.3913 6.8467 8.26462 5.86626 -0.894001 1.07676 26.3689
4175201 5.3913 6.8467 8.26462 5.86626 -0.894001 1.07676 26.3689
4175204 4.82609 6.28626 9.23754 6.53054 -1.15959 2.59803 26.8804
4175214 4.18261 5.57637 10.1791 7.59714 -1.07878 4.36745 27.5352
4175224 4.18261 5.57637 10.1791 7.59714 -1.07878 4.36745 27.5352
4175252 3.72174 4.81978 11.0265 8.70116 -1.08534 5.9355 28.2691
4175253 3.12174 4.16593 11.4763 9.35608 -0.956641 7.22512 28.1201
4175255 3.12174 4.16593 11.4763 9.35608 -0.956641 7.22512 28.1201
4175265 2.71304 3.66154 11.6123 9.68354 -0.885664 8.08875 27.6704
4175275 2.71304 3.66154 11.6123 9.68354 -0.885664 8.08875 27.6704
4175286 2.2 3.07308 11.6123 9.94551 -0.739552 9.1041 26.8309
4175298 1.96522 2.81154 11.5391 9.95487 -0.702193 9.54515 26.2707
4175306 1.96522 2.81154 11.5391 9.95487 -0.702193 9.54515 26.2707
4175323 1.78261 2.5967 11.6018 10.0204 -0.73783 9.94724 26.0015
4175326 1.64348 2.46593 11.7065 10.0578 -0.798319 10.2352 25.8737
4175336 1.64348 2.46593 11.7065 10.0578 -0.798319 10.2352 25.8737
4175348 1.61739 2.40055 11.8215 10.1888 -0.816041 10.3689 26.0283
4175372 1.5913 2.32582 11.9889 10.4227 -0.789756 10.5367 26.3287
4175376 1.56522 2.21374 12.0935 10.5911 -0.806709 10.7161 26.4636
4175388 1.56522 2.21374 12.0935 10.5911 -0.806709 10.7161 26.4636
4175397 1.50435 2.18571 12.3237 10.8343 -0.752366 10.8767 26.8481
4175406 1.45217 2.13901 12.3655 10.956 -0.671366 10.9969 26.9127
4175423 1.45217 2.13901 12.3655 10.956 -0.671366 10.9969 26.9127
4175426 1.44348 2.07363 12.3655 11.0308 -0.654478 11.0795 26.9135
4175447 1.28696 2.00824 12.3446 11.1337 -0.457162 11.3077 26.7736
4175458 1.21739 1.85879 12.3342 11.1712 -0.490558 11.5282 26.5815
4175471 1.21739 1.85879 12.3342 11.1712 -0.490558 11.5282 26.5815
4175478 1.2 1.7467 12.1563 11.2273 -0.362989 11.6426 26.3303
4175488 1.1913 1.69066 12.1563 11.2741 -0.363778 11.7141 26.3123
4175499 1.1913 1.69066 12.1563 11.2741 -0.363778 11.7141 26.3123
4175507 1.16522 1.68132 12.104 11.3396 -0.236143 11.7518 26.2901
4175521 1.16522 1.68132 12.104 11.3396 -0.236143 11.7518 26.2901
4175528 1.17391 1.68132 12.2923 11.5922 -0.180179 11.7966 26.7397
4175537 1.17391 1.59725 12.2818 11.6951 -0.152725 11.8919 26.7481
4175547 1.17391 1.59725 12.2818 11.6951 -0.152725 11.8919 26.7481
4175558 1.11304 1.61593 12.376 11.8167 -0.0523537 11.959 26.9217
4175571 1.07826 1.60659 12.3342 11.8542 0.0449628 12.0027 26.8732
4175587 1.03478 1.55055 12.3342 11.8822 0.059545 12.1062 26.8017
4175599 1.03478 1.55055 12.3342 11.8822 0.059545 12.1062 26.8017
4175609 0.973913 1.49451 12.3969 12.0039 0.118652 12.244 26.8692
4175624 0.930435 1.4478 12.3446 12.0132 0.173885 12.3314 26.7361
4175629 0.930435 1.4478 12.3446 12.0132 0.173885 12.3314 26.7361
4175639 0.826087 1.37308 12.4492 12.1255 0.208449 12.5358 26.7739
4175649 0.834783 1.4011 12.4911 12.2565 0.307325 12.5142 26.9834
4175659 0.834783 1.4011 12.4911 12.2565 0.307325 12.5142 26.9834
4175672 0.773913 1.4011 12.5225 12.2752 0.35212 12.5809 26.9727
4175679 0.773913 1.4011 12.5225 12.2752 0.35212 12.5809 26.9727
4175689 0.66087 1.28901 12.5225 12.2565 0.338724 12.8115 26.7288
4175702 0.704348 1.22363 12.5015 12.2658 0.265554 12.8334 26.6953
4175709 0.704348 1.22363 12.5015 12.2658 0.265554 12.8334 26.6953
4175719 0.634783 1.26099 12.4597 12.2565 0.39736 12.8629 26.6119
4175730 0.608696 1.20495 12.4806 12.2939 0.385064 12.9536 26.5881
4175739 0.608696 1.20495 12.4806 12.2939 0.385064 12.9536 26.5881
4175752 0.669565 1.29835 12.4178 12.3781 0.550216 12.7941 26.7639
4175759 0.669565 1.29835 12.4178 12.3781 0.550216 12.7941 26.7639
4175769 0.582609 1.1956 12.3551 12.322 0.547981 12.9835 26.4552
4175779 0.582609 1.24231 12.4283 12.4342 0.623536 12.9486 26.6875
4175789 0.582609 1.24231 12.4283 12.4342 0.623536 12.9486 26.6875
4175803 0.617391 1.24231 12.4074 12.4249 0.601688 12.9098 26.692
4175809 0.617391 1.24231 12.4074 12.4249 0.601688 12.9098 26.692
4175819 0.582609 1.26099 12.4702 12.5465 0.702462 12.9409 26.8603
4175829 0.608696 1.24231 12.4492 12.5746 0.706008 12.9337 26.8748
4175839 0.608696 1.24231 12.4492 12.5746 0.706008 12.9337 26.8748
4175852 0.591304 1.21429 12.376 12.5746 0.76763 12.9755 26.7562
4175858 0.617391 1.27967 12.3865 12.5559 0.774682 12.8795 26.8394
4175883 0.608696 1.23297 12.2609 12.5465 0.85355 12.9268 26.6491
4175903 0.573913 1.21429 12.3342 12.4997 0.756836 12.9849 26.6221
4175910 0.608696 1.29835 12.2714 12.5839 0.936204 12.8622 26.7624
4175930 0.565217 1.22363 12.2714 12.6214 0.944826 12.9887 26.6816
4175940 0.556522 1.24231 12.3446 12.6681 0.94111 12.9873 26.8116
4175954 0.556522 1.24231 12.3446 12.6681 0.94111 12.9873 26.8116
4175960 0.608696 1.27967 12.3446 12.6401 0.899068 12.8919 26.873
4175971 0.582609 1.25165 12.3028 12.6868 0.98151 12.9486 26.8239
4175981 0.582609 1.25165 12.3028 12.6868 0.98151 12.9486 26.8239
4175992 0.608696 1.23297 12.3028 12.6588 0.914329 12.9387 26.8032
4176005 0.608696 1.23297 12.3028 12.6588 0.914329 12.9387 26.8032
4176011 0.530435 1.17692 12.3342 12.612 0.866988 13.0783 26.6535
4176022 0.565217 1.27033 12.376 12.6026 0.868714 12.9464 26.8142
4176031 0.565217 1.27033 12.376 12.6026 0.868714 12.9464 26.8142
4176041 0.6 1.30769 12.3655 12.6026 0.87885 12.8706 26.8759
4176055 0.608696 1.26099 12.3028 12.5839 0.872177 12.9037 26.7564
4176061 0.608696 1.26099 12.3028 12.5839 0.872177 12.9037 26.7564
4176071 0.608696 1.1956 12.2818 12.6026 0.850266 12.9718 26.6888
4176082 0.608696 1.1956 12.2818 12.6026 0.850266 12.9718 26.6888
4176091 0.521739 1.22363 12.2923 12.5652 0.916064 13.0318 26.6029
4176105 0.591304 1.28901 12.24 12.6214 1.00878 12.8906 26.7417
4176111 0.591304 1.28901 12.24 12.6214 1.00878 12.8906 26.7417
4176130 0.547826 1.29835 12.1668 12.6401 1.14792 12.922 26.653
4176132 0.547826 1.29835 12.1877 12.6401 1.12741 12.9236 26.6739
4176141 0.582609 1.24231 12.1877 12.6962 1.09347 12.9502 26.7088
4176156 0.652174 1.28901 12.1982 12.6588 1.02382 12.8269 26.7981
4176161 0.652174 1.28901 12.1982 12.6588 1.02382 12.8269 26.7981
4176171 0.6 1.27967 12.2295 12.6494 1.02729 12.8926 26.7586
4176182 0.686957 1.30769 12.2609 12.6307 0.921029 12.7743 26.8863
4176204 0.747826 1.37308 12.1982 12.6588 1.00627 12.6415 26.9778
4176213 0.721739 1.32637 12.0622 12.4249 0.911391 12.6845 26.5351
4176229 0.721739 1.32637 12.0622 12.4249 0.911391 12.6845 26.5351
4176232 0.86087 1.33571 11.7378 12.2845 0.974041 12.4866 26.219
4176254 0.973913 1.37308 11.5077 11.9103 0.77796 12.2672 25.765
4176262 1.18261 1.52253 11.2043 11.508 0.633022 11.8071 25.4174
4176281 1.18261 1.52253 11.2043 11.508 0.633022 11.8071 25.4174
4176284 1.5913 1.93352 10.9637 11.2179 0.580069 10.8865 25.7065
4176293 2.06087 2.46593 10.7858 10.9747 0.56482 9.83386 26.2873
4176306 2.06087 2.46593 10.7858 10.9747 0.56482 9.83386 26.2873
4176313 2.6 3.11044 10.336 10.5069 0.641462 8.54833 26.5533
4176323 2.6 3.11044 10.336 10.5069 0.641462 8.54833 26.5533
4176334 3.06087 3.57747 9.67692 9.82389 0.634646 7.38115 26.1392
4176344 3.6087 4.19396 9.02831 9.13154 0.662965 5.98393 25.9625
4176357 3.6087 4.19396 9.02831 9.13154 0.662965 5.98393 25.9625
4176364 4.17391 4.82912 8.59938 8.39241 0.431076 4.60982 25.9948
4176374 4.17391 4.82912 8.03446 8.39241 0.996026 4.379 25.4299
4176384 4.64348 5.43626 8.03446 7.81233 0.550258 3.33657 25.9265
4176394 5.14783 5.96868 7.63692 7.12933 0.30258 2.11516 25.8828
4176414 5.57391 6.47308 7.13477 6.42763 0.187454 0.887609 25.6094
4176424 5.9913 7.08022 6.59077 5.69785 0.193217 -0.463069 25.3601
4176435 5.9913 7.08022 6.59077 5.69785 0.193217 -0.463069 25.3601
4176444 6.4 7.62198 6.24554 5.1552 0.129449 -1.54659 25.4227
4176460 6.4 7.62198 6.24554 5.1552 0.129449 -1.54659 25.4227
4176464 6.69565 7.95824 5.92123 4.72482 0.0653952 -2.3762 25.2999
4176474 7.06957 8.49066 5.68062 4.32251 0.0616014 -3.26078 25.5634
4176487 7.06957 8.49066 5.68062 4.32251 0.0616014 -3.26078 25.5634
4176494 7.31304 8.8456 5.45046 3.96698 0.0479728 -3.95362 25.5761
4176504 7.48696 9.0511 5.31446 3.80793 0.0561237 -4.33488 25.6604
4176538 7.48696 9.0511 5.31446 3.80793 0.0561237 -4.33488 25.6604
4176539 7.61739 9.3033 5.13662 3.66758 0.210762 -4.73267 25.7249
4176545 7.66957 9.37802 5.08431 3.48982 0.111201 -4.96071 25.6217
4176563 7.72174 9.46209 4.94831 3.40561 0.193495 -5.18638 25.5377
4176575 7.70435 9.52747 4.84369 3.35883 0.33249 -5.32506 25.4343
4176589 7.71304 9.6022 4.73908 3.34948 0.491613 -5.44802 25.4038
4176596 7.71304 9.6022 4.73908 3.34948 0.491613 -5.44802 25.4038
4176614 7.73043 9.65824 4.69723 3.3869 0.606015 -5.4791 25.4728
4176616 7.66087 9.66758 4.624 3.29334 0.66947 -5.59169 25.2458
4176629 7.66087 9.66758 4.624 3.29334 0.66947 -5.59169 25.2458
4176638 7.63478 9.75165 4.51938 3.26527 0.856888 -5.72191 25.1711
4176646 7.63478 9.75165 4.51938 3.26527 0.856888 -5.72191 25.1711
4176656 7.57391 9.70494 4.43569 3.20914 0.907242 -5.79812 24.9237
4176667 7.55652 9.77967 4.41477 3.27463 1.0819 -5.78216 25.0256
4176693 7.66087 9.83571 4.37292 3.27463 1.07038 -5.87554 25.1441
4176696 7.66087 9.83571 4.37292 3.27463 1.07038 -5.87554 25.1441
4176706 7.61739 9.88242 4.33108 3.25592 1.18575 -5.92711 25.0868
4176718 7.5913 9.91978 4.27877 3.29334 1.33859 -5.94361 25.0832
4176726 7.5913 9.91978 4.27877 3.29334 1.33859 -5.94361 25.0832
4176744 7.48696 9.81703 4.20554 3.21849 1.3578 -5.99318 24.728
4176746 7.3913 9.66758 4.216 3.25592 1.34137 -5.8622 24.5308
4176757 7.3913 9.66758 4.216 3.25592 1.34137 -5.8622 24.5308
4176770 7.32174 9.53681 4.18462 3.2372 1.30523 -5.82985 24.2804
4176777 7.27826 9.50879 4.28923 3.29334 1.26658 -5.66554 24.3696
4176787 7.27826 9.50879 4.28923 3.29334 1.26658 -5.66554 24.3696
4176798 7.31304 9.6956 4.28923 3.37755 1.49022 -5.67885 24.6754
4176822 7.35652 9.74231 4.44615 3.42433 1.36563 -5.54382 24.9693
4176827 7.47826 9.77033 4.54031 3.51789 1.25425 -5.44739 25.3068
4176837 7.47826 9.77033 4.54031 3.51789 1.25425 -5.44739 25.3068
4176849 7.51304 9.88242 4.54031 3.54595 1.34903 -5.47993 25.4817
4176858 7.51304 9.88242 4.55077 3.66758 1.45057 -5.37431 25.6138
4176875 7.51304 9.96648 4.55077 3.66758 1.52761 -5.4058 25.6979
4176877 7.5913 10.0412 4.69723 3.73308 1.42516 -5.29617 26.0628
4176888 7.5913 10.0412 4.69723 3.73308 1.42516 -5.29617 26.0628
4176900 7.57391 9.91978 4.66585 3.65823 1.29586 -5.32751 25.8178
4176908 7.52174 9.79835 4.66585 3.64887 1.22844 -5.26942 25.6348
4176925 7.52174 9.79835 4.66585 3.64887 1.22844 -5.26942 25.6348
4176927 7.45217 9.76099 4.67631 3.63016 1.23696 -5.2352 25.5196
4176950 7.43478 9.66758 4.65538 3.66758 1.22417 -5.17952 25.4253
4176958 7.41739 9.61154 4.63446 3.63016 1.17604 -5.19756 25.2936
4176978 7.43478 9.56484 4.70769 3.64887 1.05619 -5.11299 25.3562
4176989 7.4 9.51813 4.73908 3.64887 1.01549 -5.05621 25.3061
4177003 7.4 9.51813 4.73908 3.64887 1.01549 -5.05621 25.3061
4177009 7.4 9.49011 4.79138 3.63016 0.917447 -5.01858 25.3117
4177019 7.4 9.49011 4.79138 3.63016 0.917447 -5.01858 25.3117
4177029 7.37391 9.3967 4.77046 3.69565 0.939089 -4.93596 25.2367
4177039 7.35652 9.46209 4.82277 3.67694 0.947672 -4.92859 25.3183
4177056 7.35652 9.46209 4.82277 3.67694 0.947672 -4.92859 25.3183
4177059 7.3913 9.3033 4.82277 3.6863 0.769255 -4.87163 25.2037
4177069 7.35652 9.3033 4.86462 3.73308 0.806925 -4.78796 25.2575
4177082 7.35652 9.3033 4.86462 3.73308 0.806925 -4.78796 25.2575
4177089 7.33913 9.27527 4.96923 3.84535 0.798559 -4.60095 25.429
4177100 7.33913 9.27527 4.96923 3.84535 0.798559 -4.60095 25.429
4177110 7.24348 9.11648 5.032 3.84535 0.679898 -4.44735 25.2373
4177120 7.18261 9.01374 5.06338 3.97633 0.737119 -4.25381 25.2361
4177134 7.18261 9.01374 5.06338 3.97633 0.737119 -4.25381 25.2361
4177140 7.14783 8.98571 5.25169 4.06054 0.635403 -4.02109 25.4458
4177150 6.98261 8.80824 5.44 4.21959 0.594512 -3.61365 25.4504
4177163 6.98261 8.80824 5.44 4.21959 0.594512 -3.61365 25.4504
4177171 6.88696 8.60275 5.75385 4.51899 0.466698 -3.03748 25.7625
4177189 6.88696 8.60275 5.75385 4.51899 0.466698 -3.03748 25.7625
4177191 6.54783 8.31319 6.29785 4.94937 0.399187 -2.07624 26.1082
4177200 6.26957 7.98626 6.99877 5.5388 0.239545 -0.96195 26.7934
4177216 6.26957 7.98626 6.99877 5.5388 0.239545 -0.96195 26.7934
4177220 5.93913 7.57527 7.77292 6.22179 0.0772625 0.2619 27.5091
4177230 5.57391 6.95879 8.37969 6.88608 -0.0977889 1.47476 27.7985
4177250 5.17391 6.43571 8.78769 7.36324 -0.14648 2.45382 27.7606
4177267 5.17391 6.43571 8.78769 7.36324 -0.14648 2.45382 27.7606
4177270 4.81739 5.86593 8.79815 7.68134 -0.0628322 3.20079 27.1628
4177280 4.48696 5.38022 8.95508 7.96203 -0.0931412 3.94817 26.7843
4177300 4.25217 5.02527 8.98646 8.12108 -0.0874385 4.45145 26.385
4177311 4.02609 4.5489 9.19569 8.46725 -0.195922 5.19551 26.2379
4177321 4.02609 4.5489 9.19569 8.46725 -0.195922 5.19551 26.2379
4177331 3.8 4.10989 9.43631 8.96313 -0.155167 5.98051 26.3093
4177346 3.8 4.10989 9.43631 8.96313 -0.155167 5.98051 26.3093
4177351 3.44348 3.68956 9.71877 9.50578 0.0313878 6.88123 26.3576
4177361 3.25217 3.37198 10.1372 9.83324 -0.173141 7.52764 26.5946
4177371 3.25217 3.37198 10.1372 9.83324 -0.173141 7.52764 26.5946
4177381 2.97391 3.1011 10.4825 10.1981 -0.146838 8.18833 26.7556
4177398 2.62609 2.8489 11.0265 10.5349 -0.24846 8.92487 27.0364
4177401 2.62609 2.8489 11.0265 10.5349 -0.24846 8.92487 27.0364
4177411 2.26087 2.52198 11.6855 10.8905 -0.487912 9.75543 27.3589
4177431 1.85217 2.23242 12.104 11.0776 -0.592451 10.5059 27.2662
4177449 1.52174 1.87747 12.3655 11.2179 -0.733678 11.2207 26.9827
4177451 1.52174 1.87747 12.3655 11.2179 -0.733678 11.2207 26.9827
4177462 1.32174 1.73736 12.5957 11.2179 -0.895078 11.5849 26.8727
4177475 1.10435 1.55055 12.7317 11.2647 -0.95752 12.0115 26.6513
4177481 1.10435 1.55055 12.7317 11.2647 -0.95752 12.0115 26.6513
4177491 0.947826 1.51319 12.8886 11.3396 -0.921425 12.2337 26.6892
4177512 0.817391 1.34505 13.0142 11.4612 -0.96225 12.5646 26.6378
4177527 0.782609 1.38242 13.1188 11.5454 -0.90718 12.5791 26.8292
4177533 0.782609 1.38242 13.1188 11.5454 -0.90718 12.5791 26.8292
4177542 0.695652 1.33571 13.1397 11.6203 -0.82058 12.7253 26.7913
4177552 0.626087 1.27033 13.1188 11.5828 -0.838125 12.861 26.598
4177564 0.626087 1.27033 13.1188 11.5828 -0.838125 12.861 26.598
4177578 0.678261 1.26099 13.0874 11.7232 -0.730367 12.8251 26.7498
4177582 0.678261 1.26099 13.0874 11.7232 -0.730367 12.8251 26.7498
4177592 0.591304 1.1956 13.1188 11.8261 -0.643788 12.9946 26.7318
4177605 0.652174 1.21429 13.0769 11.8354 -0.634241 12.909 26.7788
4177613 0.652174 1.21429 13.0769 11.8354 -0.634241 12.909 26.7788
4177622 0.678261 1.22363 13.0142 11.8822 -0.547205 12.8709 26.7983
4177633 0.573913 1.17692 13.0874 11.8448 -0.599235 13.0315 26.683
4177657 0.617391 1.17692 12.92 11.8635 -0.467455 12.9746 26.5778
4177664 0.617391 1.17692 12.92 11.8635 -0.467455 12.9746 26.5778
4177674 0.530435 1.06484 12.6375 11.7606 -0.329453 13.1588 25.9934
4177686 0.591304 1.15824 12.8154 11.9571 -0.274654 13.021 26.522
4177694 0.591304 1.15824 12.8154 11.9571 -0.274654 13.021 26.522
4177712 0.573913 1.1956 12.8154 12.0226 -0.160791 13.0049 26.6075
4177714 0.6 1.25165 12.6375 12.0319 0.0433892 12.9055 26.5211
4177724 0.6 1.25165 12.6375 12.0319 0.0433892 12.9055 26.5211
4177738 0.686957 1.26099 12.8782 12.2845 -0.0180602 12.8444 27.1106
4177744 0.686957 1.26099 12.8782 12.2845 -0.0180602 12.8444 27.1106
4177754 0.704348 1.30769 12.8363 12.3407 0.0990391 12.7799 27.189
4177765 0.73913 1.27967 12.8049 12.2939 0.0272036 12.7666 27.1176
4177774 0.73913 1.27967 12.8049 12.2939 0.0272036 12.7666 27.1176
4177784 0.669565 1.28901 12.7317 12.2565 0.133801 12.8195 26.9467
4177794 0.713043 1.28901 12.6166 12.191 0.140181 12.7597 26.8096
4177820 0.713043 1.27967 12.6166 12.191 0.131515 12.7694 26.8003
4177821 0.652174 1.24231 12.648 12.1816 0.11577 12.8733 26.7241
4177825 0.652174 1.24231 12.648 12.1816 0.11577 12.8733 26.7241
4177836 0.626087 1.23297 12.6689 12.1816 0.111923 12.9119 26.7096
4177846 0.617391 1.17692 12.6794 12.3313 0.197223 12.9918 26.805
4177873 0.643478 1.27033 12.7631 12.3875 0.232065 12.8786 27.0643
4177876 0.608696 1.15824 12.8154 12.3032 0.0347823 13.0284 26.8856
4177899 0.565217 1.13956 12.8886 12.2658 -0.0450954 13.0959 26.8592
4177924 0.513043 1.13956 12.8886 12.2658 0.00347495 13.1506 26.807
4177926 0.573913 1.1022 12.92 12.219 -0.160986 13.1248 26.8152
4177950 0.556522 1.1022 12.7003 12.1161 -0.0363618 13.1204 26.4752
4177956 0.478261 1.08352 12.7735 12.191 0.0213832 13.2337 26.5263
4177966 0.478261 1.08352 12.7735 12.191 0.0213832 13.2337 26.5263
4177978 0.547826 1.1489 12.8363 12.2939 0.0546634 13.1026 26.8269
4177987 0.547826 1.1489 12.8363 12.2939 0.0546634 13.1026 26.8269
4178002 0.565217 1.1489 12.9305 12.3781 0.0289738 13.097 27.0227
4178008 0.573913 1.13956 13.0037 12.2939 -0.133421 13.0969 27.0111
4178018 0.573913 1.13956 13.0037 12.2939 -0.133421 13.0969 27.0111
4178031 0.495652 1.13956 12.9095 12.3126 0.043726 13.1734 26.8574
4178037 0.573913 1.13956 12.8782 12.322 0.00878274 13.09 26.9136
4178048 0.573913 1.13956 12.8782 12.322 0.00878274 13.09 26.9136
4178059 0.582609 1.13956 12.8049 12.2939 0.0428021 13.0737 26.821
4178067 0.582609 1.13956 12.8049 12.2939 0.0428021 13.0737 26.821
4178085 0.504348 1.1489 12.784 12.2378 0.0921369 13.1407 26.675
4178088 0.6 1.1022 12.8049 12.2845 -0.0169739 13.094 26.7917
4178097 0.6 1.1022 12.8049 12.2845 -0.0169739 13.094 26.7917
4178112 0.573913 1.13956 12.7631 12.2565 0.0552118 13.0771 26.733
4178118 0.565217 1.16758 12.8049 12.2565 0.0503004 13.0599 26.7942
4178137 0.565217 1.16758 12.8049 12.2565 0.0503004 13.0599 26.7942
4178139 0.556522 1.15824 12.784 12.3126 0.121516 13.0813 26.8114
4178149 0.556522 1.15824 12.784 12.3126 0.121516 13.0813 26.8114
4178164 0.530435 1.13022 12.7945 12.3594 0.153562 13.1421 26.8145
4178169 0.565217 1.1956 12.8363 12.3687 0.150949 13.0411 26.9659
4178191 0.556522 1.15824 12.8363 12.322 0.0812829 13.0857 26.873
4178200 0.556522 1.13022 12.7735 12.191 -0.00831783 13.1013 26.6513
4178220 0.6 1.23297 12.8049 12.1629 -0.008443 12.9482 26.8008
4178230 0.582609 1.12088 12.8049 12.1816 -0.0796512 13.0853 26.69
4178244 0.582609 1.12088 12.8049 12.1816 -0.0796512 13.0853 26.69
4178250 0.556522 1.13956 12.7735 12.1723 -0.017114 13.0901 26.6419
4178271 0.53913 1.21429 12.7631 12.1068 0.0176996 13.0242 26.6233
4178283 0.608696 1.22363 12.8886 12.191 -0.0768349 12.9574 26.9119
4178297 0.608696 1.22363 12.8886 12.191 -0.0768349 12.9574 26.9119
4178301 0.626087 1.16758 12.8782 12.1629 -0.161873 12.9948 26.8347
4178311 0.617391 1.1022 12.8258 12.06 -0.26409 13.061 26.6054
4178322 0.617391 1.1022 12.8258 12.06 -0.26409 13.061 26.6054
4178331 0.591304 1.17692 12.7735 11.9664 -0.20889 12.9989 26.5082
4178349 0.591304 1.17692 12.7735 11.9664 -0.20889 12.9989 26.5082
4178351 0.608696 1.1489 12.6062 11.7138 -0.337584 12.978 26.0776
4178361 0.617391 1.11154 12.4806 11.3302 -0.642385 12.9691 25.5398
4178375 0.617391 1.11154 12.4806 11.3302 -0.642385 12.9691 25.5398
4178384 0.713043 1.23297 12.2191 11.0402 -0.653611 12.6838 25.2053
4178391 0.973913 1.62527 12.2505 11.0776 -0.502849 11.9925 25.9272
4178401 0.973913 1.62527 12.2505 11.0776 -0.502849 11.9925 25.9272
4178411 1.44348 2.22308 12.4388 11.2086 -0.412413 10.9729 27.3139
4178426 1.44348 2.22308 12.4388 11.2086 -0.412413 10.9729 27.3139
4178431 1.84348 2.47527 11.9575 10.7782 -0.505956 10.2111 27.0545
4178453 2.2 2.86758 11.4554 10.2262 -0.524881 9.31655 26.7492
4178454 2.2 2.86758 11.4554 10.2262 -0.524881 9.31655 26.7492
4178462 2.68696 3.40934 10.744 9.58063 -0.417273 8.07788 26.4209
4178479 3.23478 3.9511 9.96985 8.90699 -0.332412 6.72855 26.0627
4178485 3.23478 3.9511 9.96985 8.90699 -0.332412 6.72855 26.0627
4178492 3.93043 4.63297 9.18523 8.224 -0.249018 5.10874 25.9726
4178506 3.93043 4.63297 9.18523 8.224 -0.249018 5.10874 25.9726
4178512 4.48696 5.31484 8.41108 7.36324 -0.215006 3.5028 25.5761
4178523 5.04348 6.03407 7.63692 6.70831 0.0609428 1.92801 25.4228
4178534 5.04348 6.03407 7.63692 6.70831 0.0609428 1.92801 25.4228
4178542 5.55652 6.61319 6.94646 6.08145 0.190154 0.510886 25.1976
4178561 5.97391 7.13626 6.37108 5.55751 0.348246 -0.707856 25.0388
4178562 5.97391 7.13626 6.37108 5.55751 0.348246 -0.707856 25.0388
4178573 6.4087 7.73407 6.07815 5.20198 0.441727 -1.689 25.4229
4178586 6.4087 7.73407 6.07815 5.20198 0.441727 -1.689 25.4229
4178592 6.72174 8.19176 5.712 4.78096 0.530353 -2.60989 25.4065
4178602 6.97391 8.58407 5.41908 4.48156 0.660524 -3.33326 25.4586
4178612 6.97391 8.58407 5.41908 4.48156 0.660524 -3.33326 25.4586
4178622 7.2 8.95769 5.17846 4.21959 0.78145 -3.96758 25.5557
4178638 7.2 8.95769 5.17846 4.21959 0.78145 -3.96758 25.5557
4178643 7.26957 9.15385 4.95877 4.0699 0.977728 -4.35804 25.4521
4178652 7.38261 9.38736 4.78092 3.91084 1.11409 -4.75903 25.4617
4178664 7.38261 9.38736 4.78092 3.91084 1.11409 -4.75903 25.4617
4178672 7.55652 9.55549 4.64492 3.7705 1.10132 -5.11014 25.5274
4178693 7.57391 9.66758 4.56123 3.73308 1.23896 -5.25567 25.5358
4178695 7.57391 9.66758 4.56123 3.73308 1.23896 -5.25567 25.5358
4178703 7.51304 9.6956 4.51938 3.72372 1.36228 -5.28385 25.4518
4178723 7.49565 9.80769 4.42523 3.66758 1.53015 -5.44011 25.3962
4178734 7.55652 9.86374 4.38338 3.61145 1.5102 -5.56289 25.4151
4178754 7.52174 9.95714 4.33108 3.66758 1.7387 -5.58152 25.4775
4178773 7.46957 9.91978 4.31015 3.6208 1.73859 -5.60324 25.3203
4178774 7.46957 9.91978 4.31015 3.6208 1.73859 -5.60324 25.3203
4178784 7.48696 10.0505 4.26831 3.6208 1.88394 -5.69191 25.4266
4178800 7.48696 10.0505 4.26831 3.6208 1.88394 -5.69191 25.4266
4178805 7.4 10.0132 4.216 3.54595 1.92962 -5.75045 25.1751
4178814 7.41739 9.98516 4.26831 3.59274 1.87246 -5.66517 25.2636
4178827 7.41739 9.98516 4.26831 3.59274 1.87246 -5.66517 25.2636
4178835 7.45217 10.0505 4.23692 3.58338 1.92002 -5.73535 25.323
4178845 7.46957 10.0786 4.22646 3.66758 2.0145 -5.69178 25.4422
4178855 7.46957 10.0786 4.22646 3.66758 2.0145 -5.69178 25.4422
4178865 7.4087 10.0412 4.216 3.57402 1.97162 -5.74083 25.2399
4178880 7.4087 10.0412 4.216 3.57402 1.97162 -5.74083 25.2399
4178885 7.34783 10.0412 4.216 3.60209 2.06239 -5.69538 25.2071
4178895 7.35652 9.99451 4.22646 3.59274 1.9907 -5.68042 25.1702
4178907 7.35652 9.99451 4.22646 3.59274 1.9907 -5.68042 25.1702
4178915 7.33913 9.9478 4.25785 3.63016 1.96722 -5.60017 25.1749
4178935 7.33913 9.92912 4.15323 3.64887 2.07978 -5.66375 25.0704
4178945 7.31304 9.99451 4.216 3.6863 2.13385 -5.59618 25.2098
4178961 7.31304 9.99451 4.216 3.6863 2.13385 -5.59618 25.2098
4178965 7.27826 9.93846 4.26831 3.72372 2.09809 -5.48898 25.2088
4178975 7.29565 9.91044 4.33108 3.83599 2.08853 -5.34365 25.3732
4178995 7.27826 10.0132 4.23692 3.77986 2.25012 -5.49703 25.3082
4179016 7.23478 9.92912 4.31015 3.87342 2.22665 -5.31433 25.3475
4179026 7.17391 9.96648 4.25785 3.97633 2.47399 -5.26485 25.3746
4179043 7.17391 9.96648 4.25785 3.97633 2.47399 -5.26485 25.3746
4179046 7.16522 9.91044 4.32062 3.94827 2.34061 -5.21223 25.3445
4179056 7.14783 9.93846 4.352 3.94827 2.35055 -5.19134 25.3866
4179070 7.14783 9.93846 4.352 3.94827 2.35055 -5.19134 25.3866
4179076 7.02609 9.84505 4.28923 3.95762 2.47568 -5.15027 25.118
4179095 6.87826 9.71429 4.41477 4.05118 2.46666 -4.86457 25.0585
4179106 6.78261 9.62088 4.44615 4.12603 2.5206 -4.70336 24.9757
4179123 6.78261 9.62088 4.44615 4.12603 2.5206 -4.70336 24.9757
4179127 6.6087 9.49011 4.55077 4.23831 2.58052 -4.4056 24.8879
4179136 6.53913 9.47143 4.73908 4.43478 2.60876 -4.07198 25.1844
4179151 6.53913 9.47143 4.73908 4.43478 2.60876 -4.07198 25.1844
4179156 6.41739 9.36868 5.04246 4.78096 2.62577 -3.49245 25.6095
4179166 6.33913 9.26593 5.49231 5.12713 2.44202 -2.8517 26.2245
4179178 6.33913 9.26593 5.49231 5.12713 2.44202 -2.8517 26.2245
4179187 6.14783 9.11648 5.96308 5.55751 2.39229 -2.09655 26.7849
4179204 6.14783 9.11648 5.96308 5.55751 2.39229 -2.09655 26.7849
4179208 5.85217 8.82692 6.48615 5.89433 2.20155 -1.27419 27.0596
4179217 5.49565 8.47198 6.87323 6.29664 2.21072 -0.440952 27.1375
4179237 5.08696 7.98626 7.37538 6.62411 1.98357 0.513214 27.0727
4179248 4.43478 7.27637 8.23323 7.17611 1.64495 2.04542 27.1205
4179267 3.76522 6.49176 9.21662 7.95267 1.33321 3.78049 27.4263
4179284 3.76522 6.49176 9.21662 7.95267 1.33321 3.78049 27.4263
4179289 3.12174 5.64176 10.2 8.94441 1.13268 5.57955 27.9079
4179299 2.55652 4.78242 10.9323 9.87067 1.03427 7.1765 28.1419
4179313 2.55652 4.78242 10.9323 9.87067 1.03427 7.1765 28.1419
4179319 2.06087 3.9978 11.3403 10.563 1.0368 8.49975 27.962
4179340 1.58261 3.32527 11.6123 11.0402 1.06179 9.65767 27.5604
4179341 1.58261 3.32527 11.6123 11.0402 1.06179 9.65767 27.5604
4179349 1.27826 2.76484 11.8111 11.4238 1.00747 10.5534 27.278
4179369 0.965217 2.32582 11.9785 11.6015 0.915191 11.3257 26.871
4179380 0.791304 2.00824 12.1249 11.7045 0.747752 11.846 26.6289
4179394 0.791304 2.00824 12.1249 11.7045 0.747752 11.846 26.6289
4179400 0.756522 1.75604 12.0517 11.7887 0.698683 12.1397 26.3529
4179410 0.678261 1.62527 11.8738 11.77 0.812337 12.3367 25.9473
4179420 0.678261 1.62527 11.8738 11.77 0.812337 12.3367 25.9473
4179432 0.678261 1.54121 11.9052 11.9009 0.824815 12.4416 26.0256
4179448 0.678261 1.54121 11.9052 11.9009 0.824815 12.4416 26.0256
4179450 0.565217 1.41978 12.0517 12.0693 0.835264 12.7189 26.106
4179460 0.530435 1.4011 12.1772 12.2097 0.857878 12.7983 26.3185
4179480 0.6 1.39176 12.2191 12.322 0.842956 12.748 26.5328
4179490 0.573913 1.34505 12.2086 12.3594 0.870153 12.8265 26.487
4179502 0.573913 1.34505 12.2086 12.3594 0.870153 12.8265 26.487
4179510 0.66087 1.38242 12.4492 12.3968 0.622109 12.7203 26.8893
4179529 0.66087 1.38242 12.4492 12.3968 0.622109 12.7203 26.8893
4179530 0.678261 1.34505 12.5225 12.4623 0.561526 12.7525 27.0081
4179541 0.704348 1.27967 12.3865 12.4529 0.598177 12.781 26.8234
4179556 0.704348 1.27967 12.3865 12.4529 0.598177 12.781 26.8234
4179561 0.704348 1.30769 12.3237 12.2471 0.495398 12.7293 26.5828
4179571 0.756522 1.28901 12.3446 12.2752 0.434133 12.6987 26.6653
4179583 0.756522 1.28901 12.3446 12.2752 0.434133 12.6987 26.6653
4179592 0.782609 1.30769 12.3132 12.2565 0.439158 12.6478 26.66
4179610 0.782609 1.30769 12.3132 12.2565 0.439158 12.6478 26.66
4179611 0.782609 1.29835 12.2714 12.2565 0.470546 12.6538 26.6088
4179621 0.721739 1.27967 12.3655 12.2658 0.430125 12.7455 26.6328
4179637 0.721739 1.27967 12.3655 12.2658 0.430125 12.7455 26.6328
4179642 0.669565 1.25165 12.3237 12.3032 0.528887 12.829 26.5482
4179651 0.686957 1.23297 12.4178 12.2097 0.318158 12.8304 26.5475
4179663 0.686957 1.23297 12.4178 12.2097 0.318158 12.8304 26.5475
4179671 0.695652 1.25165 12.4597 12.3126 0.38259 12.8136 26.7196
4179693 0.695652 1.25165 12.4597 12.3126 0.38259 12.8136 26.7196
4179694 0.730435 1.21429 12.4911 12.3313 0.302693 12.8204 26.7671
4179701 0.721739 1.23297 12.512 12.3968 0.368562 12.8171 26.8635
4179730 0.721739 1.23297 12.512 12.3968 0.368562 12.8171 26.8635
4179731 0.747826 1.27967 12.4911 12.3968 0.406438 12.7401 26.9154
4179732 0.713043 1.25165 12.5015 12.3407 0.352275 12.8013 26.8069
4179749 0.713043 1.25165 12.5015 12.3407 0.352275 12.8013 26.8069
4179753 0.747826 1.23297 12.5329 12.2752 0.212213 12.7818 26.7889
4179762 0.747826 1.23297 12.5329 12.2752 0.212213 12.7818 26.7889
4179776 0.730435 1.21429 12.512 12.3032 0.257006 12.8198 26.76
4179783 0.704348 1.23297 12.5434 12.3126 0.277904 12.8308 26.7933
4179804 0.695652 1.23297 12.5748 12.2097 0.161189 12.8341 26.7131
4179814 0.652174 1.20495 12.4911 12.2658 0.307655 12.9066 26.614
4179830 0.652174 1.20495 12.4911 12.2658 0.307655 12.9066 26.614
4179834 0.713043 1.26099 12.5852 12.2752 0.221631 12.7931 26.8344
4179844 0.713043 1.26099 12.5852 12.2752 0.221631 12.7931 26.8344
4179859 0.66087 1.21429 12.6585 12.2939 0.175983 12.9031 26.8275
4179864 0.686957 1.29835 12.7317 12.3032 0.169271 12.7958 27.0202
4179885 0.652174 1.26099 12.6166 12.2752 0.249374 12.8588 26.805
4179894 0.695652 1.22363 12.7108 12.191 0.00762343 12.8532 26.821
4179912 0.695652 1.22363 12.7108 12.191 0.00762343 12.8532 26.821
4179914 0.695652 1.27033 12.6585 12.1536 0.065136 12.7975 26.778
4179924 0.695652 1.27033 12.6585 12.1536 0.065136 12.7975 26.778
4179940 0.678261 1.20495 12.5434 12.1442 0.119957 12.8737 26.5708
4179946 0.678261 1.25165 12.5538 12.2003 0.205994 12.8303 26.6841
4179954 0.678261 1.25165 12.5538 12.2003 0.205994 12.8303 26.6841
4179968 0.678261 1.21429 12.6062 12.2378 0.156739 12.8764 26.7365
4179974 0.678261 1.24231 12.5434 12.1442 0.154892 12.8346 26.6081
4179996 0.669565 1.24231 12.5643 12.1816 0.178233 12.8484 26.6578
4180005 0.669565 1.24231 12.5643 12.1816 0.178233 12.8484 26.6578
4180023 0.704348 1.24231 12.5225 12.1536 0.158745 12.8064 26.6227
4180025 0.843478 1.29835 12.5434 12.1629 0.0692725 12.6067 26.8481
4180035 0.843478 1.29835 12.5434 12.1629 0.0692725 12.6067 26.8481
4180050 0.878261 1.36374 12.2923 12.0693 0.246689 12.4718 26.6037
4180056 0.947826 1.29835 12.1145 11.8354 0.0682414 12.4277 26.1961
4180065 0.947826 1.29835 12.1145 11.8354 0.0682414 12.4277 26.1961
4180078 1.06957 1.39176 11.9366 11.6203 0.00560284 12.162 26.0182
4180085 1.06957 1.39176 11.9366 11.6203 0.00560284 12.162 26.0182
4180095 1.2087 1.47582 11.9052 11.4799 -0.1517 11.9108 26.0697
4180118 1.41739 1.69066 11.8425 11.3302 -0.227334 11.4521 26.2807
4180125 1.65217 1.85879 11.6646 10.9934 -0.443847 10.975 26.169
4180139 1.83478 2.09231 11.6646 10.8718 -0.50572 10.5481 26.4635
4180145 1.83478 2.09231 11.6646 10.8718 -0.50572 10.5481 26.4635
4180155 2.01739 2.36319 11.5705 10.6566 -0.533766 10.0609 26.6076
4180167 2.01739 2.36319 11.5705 10.6566 -0.533766 10.0609 26.6076
4180176 2.16522 2.56868 11.4345 10.3759 -0.61699 9.64981 26.5443
4180194 2.30435 2.85824 11.2252 10.0578 -0.580011 9.14354 26.4456
4180196 2.30435 2.85824 11.2252 10.0578 -0.580011 9.14354 26.4456
4180206 2.49565 3.22253 10.9532 9.57127 -0.624062 8.46312 26.2427
4180222 2.7913 3.76429 10.6708 9.06604 -0.600693 7.51998 26.2924
4180226 2.7913 3.76429 10.6708 9.06604 -0.600693 7.51998 26.2924
4180236 3.10435 4.34341 10.1372 8.48597 -0.395274 6.42982 26.071
4180257 3.43478 4.92253 9.69785 8.00881 -0.193079 5.38062 26.064
4180275 3.78261 5.55769 9.10154 7.47551 0.143775 4.18836 25.9174
4180276 3.78261 5.55769 9.10154 7.47551 0.143775 4.18836 25.9174
4180286 4.26957 6.07143 8.45292 6.87672 0.219765 2.91499 25.6706
4180302 4.66957 6.62253 7.92985 6.50248 0.510791 1.83108 25.7244
4180306 4.66957 6.62253 7.92985 6.50248 0.510791 1.83108 25.7244
4180316 5.08696 7.13626 7.39631 6.06274 0.696728 0.721799 25.6823
4180332 5.08696 7.13626 7.39631 6.06274 0.696728 0.721799 25.6823
4180336 5.45217 7.50055 6.81046 5.623 0.847822 -0.306814 25.3862
4180346 5.77391 7.93022 6.41292 5.3049 1.03089 -1.172 25.422
4180364 5.77391 7.93022 6.41292 5.3049 1.03089 -1.172 25.422
4180374 6.17391 8.34121 5.94215 4.94001 1.14693 -2.14568 25.3973
4180386 6.37391 8.73352 5.67015 4.66868 1.33432 -2.81098 25.4463
4180388 6.37391 8.73352 5.67015 4.66868 1.33432 -2.81098 25.4463
4180397 6.64348 9.06978 5.32492 4.37865 1.45575 -3.54668 25.4168
4180414 6.64348 9.06978 5.32492 4.37865 1.45575 -3.54668 25.4168
4180417 6.89565 9.34066 5.05292 4.20088 1.56234 -4.10895 25.4901
4180427 7.03478 9.56484 4.86462 4.04183 1.67339 -4.52432 25.5061
4180447 7.23478 9.73297 4.70769 3.87342 1.62817 -4.92388 25.5489
4180458 7.36522 9.73297 4.57169 3.87342 1.63397 -5.08142 25.5433
4180470 7.36522 9.84505 4.57169 3.74243 1.61667 -5.22802 25.5244
4180477 7.53913 10.0505 4.47754 3.76114 1.73745 -5.43066 25.8284
4180487 7.53913 10.0505 4.47754 3.76114 1.73745 -5.43066 25.8284
4180498 7.62609 10.1626 4.352 3.59274 1.72663 -5.73805 25.7335
4180507 7.78261 10.2467 4.17415 3.48982 1.73174 -6.05139 25.6933
4180529 7.8087 10.3027 4.11138 3.3869 1.72744 -6.21628 25.6097
4180539 7.88696 10.2467 4.01723 3.27463 1.59008 -6.39621 25.4255
4180552 7.88696 10.2467 4.01723 3.27463 1.59008 -6.39621 25.4255
4180559 7.91304 10.3121 3.96492 3.16236 1.57428 -6.56615 25.3524
4180579 7.86957 10.1626 3.84985 3.10622 1.55017 -6.6488 24.9883
4180590 7.83478 10.0973 3.808 3.10622 1.57035 -6.6516 24.8463
4180608 7.83478 10.0973 3.808 3.10622 1.57035 -6.6516 24.8463
4180609 7.88696 10.0412 3.73477 3.05944 1.49553 -6.75539 24.7224
4180619 7.81739 10.0412 3.82892 3.01266 1.42464 -6.69045 24.7002
4180634 7.81739 10.0412 3.82892 3.01266 1.42464 -6.69045 24.7002
4180639 7.87826 10.0225 3.76615 2.99395 1.39093 -6.77633 24.6609
4180662 7.87826 10.0225 3.808 2.99395 1.34622 -6.73944 24.7027
4180670 7.90435 10.0412 3.808 3.0033 1.34525 -6.74616 24.7569
4180691 7.90435 10.0412 3.808 3.0033 1.34525 -6.74616 24.7569
4180693 7.93043 10.0319 3.808 3.07815 1.37995 -6.68622 24.8485
4180700 7.84348 9.9478 3.92308 3.10622 1.29677 -6.50387 24.8206
4180719 7.84348 9.9478 3.92308 3.10622 1.29677 -6.50387 24.8206
4180720 7.86087 9.95714 3.92308 3.14364 1.32294 -6.48066 24.8847
4180731 7.86087 9.95714 3.92308 3.14364 1.32294 -6.48066 24.8847
4180747 7.73913 10.0038 3.944 3.2372 1.56266 -6.35634 24.9242
4180751 7.75652 10.0599 3.96492 3.2372 1.57448 -6.36385 25.0185
4180761 7.75652 10.0599 3.96492 3.2372 1.57448 -6.36385 25.0185
4180774 7.8 10.2 4.14277 3.39626 1.61859 -6.14411 25.539
4180781 7.84348 10.1907 4.14277 3.41497 1.58193 -6.14046 25.5919
4180802 7.92174 10.228 4.26831 3.54595 1.52512 -5.97105 25.964
4180811 7.92174 10.228 4.26831 3.54595 1.52512 -5.97105 25.964
4180831 7.81739 10.256 4.31015 3.56467 1.63129 -5.89555 25.9483
4180832 7.8087 10.2187 4.32062 3.71436 1.73021 -5.75105 26.0624
4180858 7.76522 10.1813 4.39385 3.78921 1.73316 -5.60484 26.1296
4180863 7.71304 10.1626 4.43569 3.74243 1.68529 -5.58319 26.0538
4180873 7.71304 10.1626 4.43569 3.74243 1.68529 -5.58319 26.0538
4180886 7.67826 10.0879 4.41477 3.72372 1.65859 -5.57487 25.9047
4180892 7.67826 10.0879 4.41477 3.72372 1.65859 -5.57487 25.9047
4180902 7.53913 9.97582 4.31015 3.76114 1.84443 -5.53636 25.5863
4180914 7.50435 9.93846 4.34154 3.7705 1.82263 -5.47691 25.5548
4180923 7.50435 9.93846 4.34154 3.7705 1.82263 -5.47691 25.5548
4180940 7.4087 9.84505 4.26831 3.70501 1.8562 -5.51814 25.2271
4180944 7.26087 9.82637 4.28923 3.72372 1.99201 -5.42284 25.1002
4180954 7.26087 9.82637 4.28923 3.72372 1.99201 -5.42284 25.1002
4180969 7.2087 9.71429 4.24738 3.72372 1.99036 -5.39398 24.8941
4180974 7.2087 9.71429 4.24738 3.72372 1.99036 -5.39398 24.8941
4180984 7.12174 9.59286 4.31015 3.76114 1.93871 -5.23078 24.7859
4180996 7.09565 9.57418 4.39385 3.79857 1.89368 -5.11463 24.8622
4181011 7.09565 9.57418 4.39385 3.79857 1.89368 -5.11463 24.8622
4181025 7.02609 9.50879 4.42523 3.87342 1.94384 -4.97486 24.8335
4181026 7.02609 9.56484 4.47754 3.91084 1.97368 -4.9256 24.9793
4181035 7.02609 9.56484 4.47754 3.91084 1.97368 -4.9256 24.9793
4181055 7 9.53681 4.45662 4.0044 2.08478 -4.8459 24.9978
4181056 6.93913 9.49945 4.64492 4.14474 2.0415 -4.54783 25.2282
4181065 6.93913 9.49945 4.64492 4.14474 2.0415 -4.54783 25.2282
4181082 6.94783 9.43407 4.82277 4.25702 1.88566 -4.30182 25.4617
4181085 6.94783 9.43407 4.82277 4.25702 1.88566 -4.30182 25.4617
4181095 6.90435 9.43407 4.97969 4.43478 1.92678 -4.03291 25.7529
4181109 6.8 9.33132 5.25169 4.61255 1.81971 -3.61624 25.9956
4181116 6.8 9.33132 5.25169 4.61255 1.81971 -3.61624 25.9956
4181125 6.68696 9.19121 5.47138 4.7716 1.72702 -3.23599 26.1212
4181136 6.46957 8.99506 5.712 4.99615 1.72855 -2.72601 26.1728
4181146 6.46957 8.99506 5.712 4.99615 1.72855 -2.72601 26.1728
4181164 6.38261 8.72418 5.97354 5.16456 1.45989 -2.26826 26.2449
4181166 6.38261 8.72418 5.97354 5.16456 1.45989 -2.26826 26.2449
4181176 6.15652 8.36923 6.17231 5.44524 1.42067 -1.66861 26.1433
4181193 5.96522 7.98626 6.36062 5.81948 1.41583 -1.01681 26.1316
4181208 5.63478 7.36978 6.78954 6.49312 1.36814 0.158688 26.2872
4181220 5.28696 6.53846 7.40677 7.64392 1.38474 1.80008 26.8761
4181247 4.89565 5.85659 8.04492 8.80407 1.55798 3.3133 27.6012
4181249 4.89565 5.85659 8.04492 8.80407 1.55798 3.3133 27.6012
4181257 4.4087 5.13736 8.432 9.3093 1.47135 4.50497 27.2874
4181276 3.96522 4.61429 8.84 9.40286 1.12959 5.40409 26.8224
4181289 3.56522 4.22198 9.21662 9.46835 0.857976 6.17504 26.4722
4181302 3.4087 3.96978 9.35262 9.37479 0.558555 6.52091 26.1059
4181309 3.4087 3.96978 9.35262 9.37479 0.558555 6.52091 26.1059
4181328 3.26087 3.78297 9.34215 9.3093 0.476006 6.77612 25.6953
4181330 3.26087 3.78297 9.34215 9.3093 0.476006 6.77612 25.6953
4181339 3.25217 3.56813 9.54092 9.43093 0.199637 7.067 25.7922
4181357 3.11304 3.41868 9.85477 9.58998 0.0393152 7.45657 25.9765
4181359 3.11304 3.41868 9.85477 9.58998 0.0393152 7.45657 25.9765
4181369 3.09565 3.23187 10.1791 9.78646 -0.243792 7.78039 26.2931
4181384 2.93043 3.09176 10.4092 9.96423 -0.268681 8.15547 26.3956
4181389 2.93043 3.09176 10.4092 9.96423 -0.268681 8.15547 26.3956
4181399 2.7913 2.86758 10.7649 10.2636 -0.39815 8.63871 26.6874
4181412 2.7913 2.86758 10.7649 10.2636 -0.39815 8.63871 26.6874
4181419 2.6 2.70879 11.0788 10.4133 -0.519255 9.05752 26.8009
4181429 2.46957 2.52198 11.3926 10.6004 -0.685357 9.45067 26.9846
4181441 2.46957 2.52198 11.3926 10.6004 -0.685357 9.45067 26.9846
4181449 2.26957 2.35385 11.6123 10.8156 -0.658375 9.87263 27.0513
4181459 1.94783 2.0456 11.8948 10.9466 -0.792232 10.5355 26.8348
4181470 1.94783 2.0456 11.8948 10.9466 -0.792232 10.5355 26.8348
