1250794 8 7.62198 13.9348 10.2636 -2.54215 3.23066 39.8204
1250805 8.84348 8.56538 12.8572 9.18767 -2.50144 1.76259 39.4538
1250824 9.69565 9.49011 11.6646 8.38305 -2.22203 0.329529 39.2334
1250834 10.9913 10.8071 10.1477 7.46615 -1.81777 -1.59263 39.4123
1250845 10.9913 10.8071 10.1477 7.46615 -1.81777 -1.59263 39.4123
1250855 12.5217 12.5538 8.36923 6.25922 -1.30837 -3.94688 39.704
1250865 13.887 14.0016 6.73723 5.08035 -0.970998 -6.07123 39.7062
1250875 13.887 14.0016 6.73723 5.08035 -0.970998 -6.07123 39.7062
1250887 14.8957 15.1786 5.54462 4.1541 -0.696199 -7.68444 39.7729
1250896 14.8957 15.1786 4.78092 4.1541 -0.220396 -8.12853 39.0092
1250905 15.6174 15.9632 4.78092 3.47111 -0.605044 -8.78497 39.8326
1250915 16.2783 16.6451 4.216 2.99395 -0.532761 -9.6105 40.1333
1250925 16.2783 16.6451 4.216 2.99395 -0.532761 -9.6105 40.1333
1250935 16.6783 17.1945 3.81846 2.70391 -0.370285 -10.1561 40.3951
1250945 16.9652 17.603 3.45231 2.48872 -0.201085 -10.6002 40.5092
1250967 17.0698 17.9336 3.23262 2.2361 -0.0819266 -10.9463 40.4721
1250977 17.0698 17.9336 3.23262 2.2361 -0.0819266 -10.9463 40.4721
1250987 17.1096 18.1865 2.86646 2.08641 0.184372 -11.3083 40.249
1250997 16.9217 18.3616 2.62585 1.89928 0.447932 -11.5898 39.8084
1251007 16.9217 18.3616 2.62585 1.89928 0.447932 -11.5898 39.8084
1251018 16.8261 18.3616 2.45846 1.79637 0.553575 -11.7638 39.4425
1251028 16.713 18.4394 2.27015 1.6186 0.688225 -12.0118 39.0412
1251048 16.313 18.3518 2.18646 1.62796 0.961742 -12.0261 38.4793
1251058 16.0087 18.1768 2.29108 1.67474 1.01683 -11.8815 38.1513
1251075 16.0087 18.1768 2.29108 1.67474 1.01683 -11.8815 38.1513
1251082 15.7217 17.9142 2.312 1.77766 1.09879 -11.7478 37.7256
1251090 15.7217 17.9142 2.312 1.77766 1.09879 -11.7478 37.7256
1251098 15.3478 17.5446 2.46892 1.87122 1.07372 -11.503 37.2326
1251108 15.1652 17.3209 2.48985 1.98349 1.11566 -11.369 36.9595
1251118 15.1652 17.3209 2.48985 1.98349 1.11566 -11.369 36.9595
1251129 15.1565 17.2334 2.45846 1.98349 1.08732 -11.382 36.8319
1251139 15.1913 17.4085 2.45846 2.04898 1.21788 -11.3559 37.1072
1251149 15.1913 17.4085 2.45846 2.04898 1.21788 -11.3559 37.1072
1251159 15.1043 17.5154 2.448 2.04898 1.35524 -11.3653 37.1168
1251169 15.1043 17.5154 2.448 2.04898 1.35524 -11.3653 37.1168
1251179 14.887 17.4474 2.50031 2.13319 1.48324 -11.2398 36.9678
1251189 14.6609 17.4376 2.52123 2.17061 1.64863 -11.1741 36.7904
1251199 14.6609 17.4376 2.52123 2.17061 1.64863 -11.1741 36.7904
1251209 14.7739 17.5738 2.55262 2.17061 1.63057 -11.1777 37.0709
1251219 14.9043 17.7489 2.46892 2.14254 1.68935 -11.2875 37.2647
1251229 14.9043 17.7489 2.46892 2.14254 1.68935 -11.2875 37.2647
1251239 15.113 17.8267 2.46892 2.18932 1.61845 -11.2831 37.5979
1251249 15.113 17.8267 2.46892 2.18932 1.61845 -11.2831 37.5979
1251259 15.3391 18.1573 2.48985 2.24546 1.68303 -11.2843 38.2318
1251269 15.6783 18.8089 2.53169 2.17061 1.76679 -11.4003 39.1895
1251279 15.6783 18.8089 2.53169 2.17061 1.76679 -11.4003 39.1895
1251290 15.9478 19.3535 2.43754 2.19868 1.98238 -11.5174 39.9376
1251299 15.9478 19.3535 2.43754 2.19868 1.98238 -11.5174 39.9376
1251309 16.1391 19.7426 2.45846 2.19868 2.062 -11.5536 40.5388
1251319 16.3391 19.9857 2.43754 2.1519 2.05364 -11.6348 40.9143
1251329 16.3391 19.9857 2.43754 2.1519 2.05364 -11.6348 40.9143
1251339 16.2 19.7426 2.37477 1.98349 1.95485 -11.7557 40.3008
1251349 15.8261 19.2952 2.312 1.92735 1.9591 -11.7688 39.3606
1251359 15.8261 19.2952 2.312 1.92735 1.9591 -11.7688 39.3606
1251369 15.6174 18.9548 2.27015 1.89928 1.91431 -11.7714 38.7416
1251389 15.313 18.5172 2.10277 1.81508 1.93151 -11.8863 37.7481
1251399 14.9913 18.1573 2.11323 1.88993 1.9802 -11.7675 37.1518
1251410 14.9913 18.1573 2.11323 1.88993 1.9802 -11.7675 37.1518
1251420 14.913 17.8558 2.16554 1.81508 1.76352 -11.7505 36.7495
1251430 15.0957 18.0212 2.37477 1.88993 1.63227 -11.5774 37.3815
1251440 15.0957 18.0212 2.37477 1.88993 1.63227 -11.5774 37.3815
1251452 15.5304 18.2838 2.54215 2.03963 1.46551 -11.4201 38.396
1251460 15.5304 18.2838 2.54215 2.03963 1.46551 -11.4201 38.396
1251470 15.9826 18.6144 2.69908 2.1519 1.32113 -11.3109 39.448
1251480 16.2783 19.0618 2.96062 2.39516 1.36259 -11.0519 40.6958
1251500 16.5391 19.2077 3.20123 2.52614 1.20162 -10.8572 41.4742
1251512 16.3043 18.984 3.35815 2.72262 1.23528 -10.5904 41.3691
1251522 16.3043 18.984 3.35815 2.72262 1.23528 -10.5904 41.3691
1251531 16.0435 18.4685 3.56738 2.88167 1.06159 -10.2767 40.9611
1251552 15.6435 17.9336 3.72431 3.04073 0.995594 -9.96926 40.3422
1251562 15.4 17.389 4.03815 3.19042 0.712991 -9.58095 40.0176
1251572 15.4 17.389 4.03815 3.19042 0.712991 -9.58095 40.0176
1251582 14.9478 16.7385 4.352 3.43368 0.552493 -9.08262 39.472
1251592 14.487 15.9632 4.68677 3.6863 0.306362 -8.52985 38.8232
1251601 14.487 15.9632 4.68677 3.6863 0.306362 -8.52985 38.8232
1251611 13.9826 15.2907 5.08431 4.02312 0.160795 -7.88125 38.3807
1251632 13.5652 14.6555 5.65969 4.6219 0.0340849 -6.98885 38.5023
1251642 13.2609 14.2538 6.65354 5.51073 -0.0944018 -5.80299 39.679
1251652 13.2609 14.2538 6.65354 5.51073 -0.0944018 -5.80299 39.679
1251663 13.3391 14.1791 7.752 6.50248 -0.245094 -4.76284 41.7727
1251673 13.2696 14.1044 8.63077 7.33517 -0.265789 -3.94833 43.3399
1251693 12.9478 13.6467 9.03877 7.8404 -0.287241 -3.35215 43.4737
1251704 12.9478 13.6467 9.03877 7.8404 -0.287241 -3.35215 43.4737
1251712 12.2261 12.8621 9.28985 8.14915 -0.296693 -2.69799 42.5272
1251722 11.4174 12.0121 9.49908 8.25206 -0.39601 -2.06833 41.1806
1251739 11.4174 12.0121 9.49908 8.25206 -0.39601 -2.06833 41.1806
1251743 10.4 10.9005 9.82338 8.63566 -0.432077 -1.072 39.7596
1251753 9.41739 9.9011 10.6708 9.38415 -0.509809 0.280555 39.3734
1251773 8.67826 9.21923 11.8006 10.3572 -0.563262 1.59541 40.0553
1251785 8.67826 9.21923 11.8006 10.3572 -0.563262 1.59541 40.0553
1251793 7.9913 8.61209 12.9305 11.4612 -0.517428 2.84971 40.9951
1251805 7.66087 8.43462 13.8825 12.2752 -0.493184 3.5721 42.2531
1251814 7.66087 8.43462 13.8825 12.2752 -0.493184 3.5721 42.2531
1251825 7.26957 8.12637 14.2905 12.6588 -0.457476 4.09254 42.3452
1251833 6.8087 7.6967 14.552 13.0143 -0.386058 4.65666 42.0717
1251847 6.8087 7.6967 14.552 13.0143 -0.386058 4.65666 42.0717
1251854 6.36522 7.27637 14.9705 13.3605 -0.416237 5.24963 41.9725
1251866 6.36522 7.27637 14.9705 13.3605 -0.416237 5.24963 41.9725
1251874 5.95652 6.7533 15.4517 13.8376 -0.48648 5.92138 41.9992
1251887 5.47826 6.17418 15.9538 14.3709 -0.528258 6.67231 41.9772
1251894 5.47826 6.17418 15.9538 14.3709 -0.528258 6.67231 41.9772
1251906 4.88696 5.56703 16.592 14.9042 -0.600523 7.52401 41.9502
1251914 4.4087 4.97857 16.8849 15.3159 -0.600618 8.2284 41.5881
1251924 4.4087 4.97857 16.8849 15.3159 -0.600618 8.2284 41.5881
1251935 4.06957 4.61429 17.1083 15.6247 -0.566742 8.70991 41.4168
1251946 4.06957 4.61429 17.1083 15.6247 -0.566742 8.70991 41.4168
1251954 3.73043 4.32473 17.1969 15.7931 -0.493066 9.11246 41.0451
1251966 3.6087 4.11923 17.5414 15.9895 -0.630967 9.3809 41.2589
1251975 3.6087 4.11923 17.5414 15.9895 -0.630967 9.3809 41.2589
1251987 3.52174 4.02582 17.7087 16.0831 -0.678261 9.52274 41.3394
1251995 3.44348 3.93242 17.6891 16.2609 -0.568196 9.64556 41.3258
1252006 3.44348 3.93242 17.6891 16.2609 -0.568196 9.64556 41.3258
1252015 3.47826 3.89506 17.8466 16.4386 -0.59479 9.69017 41.6585
1252035 3.4 3.84835 17.9056 16.6164 -0.503267 9.79414 41.7704
1252047 3.26957 3.79231 17.945 16.6538 -0.461121 9.91472 41.6607
1252055 3.26957 3.79231 17.945 16.6538 -0.461121 9.91472 41.6607
1252066 3.28696 3.82967 17.9155 16.6912 -0.408342 9.88299 41.7233
1252075 3.34783 3.73626 17.8761 16.7193 -0.460856 9.90103 41.6795
1252095 3.31304 3.70824 17.8761 16.6632 -0.491874 9.93177 41.5606
1252105 3.31304 3.70824 17.8761 16.6632 -0.491874 9.93177 41.5606
1252115 3.25217 3.64286 18.132 16.7006 -0.623527 10.0428 41.7277
1252126 3.31304 3.67088 18.3584 16.7848 -0.721493 10.0265 42.1272
1252137 3.31304 3.67088 18.3584 16.7848 -0.721493 10.0265 42.1272
1252146 3.28696 3.67088 18.447 16.7567 -0.774612 10.0492 42.1616
1252156 3.23478 3.60549 18.3683 16.6445 -0.808239 10.0969 41.853
1252167 3.23478 3.60549 18.3683 16.6445 -0.808239 10.0969 41.853
1252176 3.24348 3.59615 18.4569 16.6632 -0.858566 10.1099 41.9597
1252186 3.24348 3.59615 18.4569 16.6632 -0.858566 10.1099 41.9597
1252197 3.15652 3.51209 18.319 16.5603 -0.844337 10.1849 41.5479
1252207 3.10435 3.4467 18.3092 16.4199 -0.936846 10.2391 41.2802
1252217 3.10435 3.4467 18.3092 16.4199 -0.936846 10.2391 41.2802
1252227 3.17391 3.4467 18.3092 16.4106 -0.983207 10.1955 41.3404
1252239 3.13913 3.48407 18.5553 16.4386 -1.0643 10.2256 41.6171
1252246 3.13913 3.48407 18.5553 16.4386 -1.0643 10.2256 41.6171
1252257 3.21739 3.48407 18.575 16.4573 -1.10879 10.1827 41.7338
1252268 3.21739 3.48407 18.575 16.4573 -1.10879 10.1827 41.7338
1252278 3.21739 3.53077 18.634 16.4199 -1.13675 10.1571 41.8021
1252288 3.29565 3.57747 18.7522 16.4948 -1.17259 10.1046 42.1201
1252308 3.22609 3.61484 18.7128 16.4012 -1.14578 10.1084 41.9549
1252318 3.22609 3.60549 18.5258 16.2141 -1.16201 10.07 41.5714
1252328 3.22609 3.60549 18.5258 16.2141 -1.16201 10.07 41.5714
1252338 3.27826 3.68956 18.3978 16.055 -1.16576 9.95337 41.4207
1252355 3.27826 3.68956 18.3978 16.055 -1.16576 9.95337 41.4207
1252374 3.31304 3.71758 18.3781 15.9428 -1.22777 9.89937 41.3515
1252375 3.4087 3.83901 18.3092 15.7744 -1.27297 9.7393 41.3313
1252380 3.4087 3.83901 18.3092 15.7744 -1.27297 9.7393 41.3313
1252389 3.48696 3.96978 18.3092 15.7369 -1.25862 9.60996 41.5029
1252402 3.62609 4.17527 18.3092 15.7837 -1.17934 9.41353 41.8943
1252409 3.62609 4.17527 18.3092 15.7837 -1.17934 9.41353 41.8943
1252419 3.8087 4.30604 18.2403 15.6527 -1.24395 9.20483 42.0078
1252429 3.8087 4.30604 18.2403 15.6527 -1.24395 9.20483 42.0078
1252441 3.86087 4.34341 17.945 15.4001 -1.2409 9.07624 41.5494
1252449 3.96522 4.52088 18.0336 15.3065 -1.29785 8.91332 41.8262
1252461 3.96522 4.52088 18.0336 15.3065 -1.29785 8.91332 41.8262
1252469 4.10435 4.60495 17.7678 15.0726 -1.32044 8.71166 41.5497
1252481 4.27826 4.91319 17.443 14.661 -1.29982 8.32266 41.2954
1252490 4.27826 4.91319 17.443 14.661 -1.29982 8.32266 41.2954
1252502 4.57391 5.33352 16.9582 14.2025 -1.21506 7.76268 41.0681
1252510 4.57391 5.33352 16.9582 14.2025 -1.21506 7.76268 41.0681
1252521 4.90435 5.75385 16.456 13.6692 -1.18753 7.15991 40.7834
1252529 5.38261 6.35165 16.048 13.1827 -1.15723 6.40662 40.965
1252550 5.93913 6.8467 15.5249 12.5933 -1.23708 5.62257 40.904
1252562 6.4087 7.43516 15.0751 12.0226 -1.23716 4.85587 40.9415
1252571 6.4087 7.43516 15.0751 12.0226 -1.23716 4.85587 40.9415
1252581 7.13913 8.08901 14.4788 11.3489 -1.32744 3.87261 41.0558
1252590 7.13913 8.08901 14.4788 11.3489 -1.32744 3.87261 41.0558
1252602 7.90435 8.92967 13.6942 10.4601 -1.34717 2.6789 40.9883
1252610 8.63478 9.63022 12.7422 9.64612 -1.29177 1.52138 40.6533
1252622 8.63478 9.63022 12.7422 9.64612 -1.29177 1.52138 40.6533
1252631 9.15652 10.1253 11.8215 8.86957 -1.24035 0.528849 39.9729
1252642 9.68696 10.6577 11.152 8.33627 -1.15796 -0.322488 39.8329
1252652 9.68696 10.6577 11.152 8.33627 -1.15796 -0.322488 39.8329
1252662 10.1478 11.1527 10.336 7.79362 -0.974801 -1.20629 39.4302
1252672 10.1478 11.1527 10.336 7.79362 -0.974801 -1.20629 39.4302
1252682 10.687 11.7879 9.57231 7.41002 -0.672458 -2.08804 39.4572
1252691 11.7913 13.1236 8.62031 6.69895 -0.366004 -3.57743 40.2342
1252702 11.7913 13.1236 8.62031 6.69895 -0.366004 -3.57743 40.2342
1252712 12.7826 14.2071 7.44862 5.81013 -0.132896 -5.11734 40.2485
1252722 13.4609 15.0758 6.36062 4.99615 0.156972 -6.45968 39.8935
1252742 14.1304 15.9445 5.52369 4.29444 0.366491 -7.61666 39.8931
1252752 14.1304 15.9445 5.52369 4.29444 0.366491 -7.61666 39.8931
1252765 14.687 16.6264 4.77046 3.64887 0.514582 -8.64301 39.7327
1252773 15.0696 17.1945 4.23692 3.22785 0.702178 -9.36321 39.7288
1252783 15.0696 17.1945 4.23692 3.22785 0.702178 -9.36321 39.7288
1252793 15.3565 17.6419 3.73477 2.8536 0.886783 -10.0071 39.5868
1252803 15.4522 17.8169 3.44185 2.6197 0.980544 -10.3765 39.3307
1252823 15.4435 17.7683 3.15938 2.46065 1.04688 -10.6582 38.8318
1252833 15.2435 17.7294 2.97108 2.39516 1.24547 -10.801 38.3391
1252844 15.2435 17.7294 2.97108 2.39516 1.24547 -10.801 38.3391
1252854 15.1826 17.8364 2.84554 2.27353 1.36462 -10.9733 38.1381
1252864 15.1826 17.8364 2.84554 2.27353 1.36462 -10.9733 38.1381
1252875 15.0696 17.7391 2.76185 2.21739 1.40595 -11.047 37.7879
1252884 15.0087 17.7489 2.74092 2.22675 1.47513 -11.0496 37.7252
1252905 15.0696 17.9628 2.80369 2.1519 1.47511 -11.0865 37.988
1252915 15.1565 18.1573 2.81415 2.16125 1.533 -11.1017 38.2893
1252925 15.1565 18.1573 2.81415 2.16125 1.533 -11.1017 38.2893
1252935 15.4348 18.4783 2.78277 2.17061 1.56389 -11.1766 38.8664
1252945 15.4348 18.4783 2.78277 2.17061 1.56389 -11.1766 38.8664
1252955 15.7304 18.9256 2.57354 2.16125 1.76622 -11.394 39.3909
1252965 15.9043 19.3049 2.48985 2.08641 1.88331 -11.5493 39.7855
1252983 15.9043 19.3049 2.48985 2.08641 1.88331 -11.5493 39.7855
1252992 15.9043 19.4605 2.29108 1.88993 1.99454 -11.8282 39.5459
1253009 15.8087 19.3535 2.22831 1.87122 2.02981 -11.8675 39.2618
1253015 15.7043 19.2368 2.14462 1.81508 2.05841 -11.9463 38.9009
1253027 15.7043 19.2368 2.14462 1.81508 2.05841 -11.9463 38.9009
1253037 15.5913 19.1882 2.12369 1.74959 2.08446 -11.9938 38.6528
1253046 15.5043 19.1396 2.10277 1.82444 2.17579 -11.9455 38.5711
1253057 15.5043 19.1396 2.10277 1.82444 2.17579 -11.9455 38.5711
1253067 15.6 19.3535 2.11323 1.79637 2.21076 -11.982 38.8631
1253076 15.8261 19.6356 2.07138 1.69345 2.18702 -12.1207 39.2265
1253097 16.0522 19.976 1.92492 1.64667 2.3015 -12.2942 39.5997
1253117 16.1043 19.976 1.91446 1.54375 2.21361 -12.3761 39.5385
1253127 16.1739 20.0635 1.77846 1.51569 2.29362 -12.5001 39.5316
1253139 16.1739 20.0635 1.77846 1.51569 2.29362 -12.5001 39.5316
1253146 16.2957 20.0343 1.71569 1.52504 2.24157 -12.5431 39.5707
1253159 16.1217 19.7426 1.71569 1.45955 2.15466 -12.56 39.0395
1253168 16.1217 19.7426 1.71569 1.45955 2.15466 -12.56 39.0395
1253179 15.8522 19.373 1.73662 1.35663 2.04917 -12.5783 38.3184
1253189 15.8522 19.373 1.73662 1.35663 2.04917 -12.5783 38.3184
1253200 15.7304 19.1396 1.70523 1.40341 2.04545 -12.5444 37.9787
1253208 15.8087 19.1201 1.61108 1.3847 2.03368 -12.6302 37.9246
1253219 15.8087 19.1201 1.61108 1.3847 2.03368 -12.6302 37.9246
1253228 15.8783 19.1007 1.68431 1.39406 1.92616 -12.5734 38.0573
1253239 15.913 19.091 1.64246 1.31921 1.87977 -12.6597 37.9657
1253248 15.913 19.091 1.64246 1.31921 1.87977 -12.6597 37.9657
1253260 16 19.0618 1.66338 1.31921 1.78582 -12.6481 38.0444
1253268 16 19.0618 1.66338 1.31921 1.78582 -12.6481 38.0444
1253280 16.0087 19.0423 1.66338 1.3005 1.75638 -12.661 38.0149
1253288 16.1391 18.9937 1.75754 1.35663 1.60383 -12.5573 38.247
1253308 16.3652 19.1104 1.768 1.37534 1.52291 -12.5582 38.619
1253319 16.4522 19.2077 1.86215 1.45019 1.50334 -12.4502 38.9722
1253328 16.4522 19.2077 1.86215 1.45019 1.50334 -12.4502 38.9722
1253339 16.5913 19.1688 2.05046 1.56247 1.32671 -12.2472 39.373
1253359 16.5739 19.0034 2.08185 1.62796 1.25718 -12.1672 39.2872
1253369 16.6 18.9354 2.08185 1.56247 1.15875 -12.2095 39.1797
1253379 16.6 18.9354 2.08185 1.56247 1.15875 -12.2095 39.1797
1253389 16.713 18.984 2.10277 1.62796 1.13887 -12.1613 39.4277
1253399 16.9565 19.0812 2.15508 1.55311 0.957802 -12.2011 39.7459
1253419 17.1096 19.1007 2.20738 1.56247 0.841764 -12.1712 39.9802
1253439 17.0897 18.9354 2.25969 1.60925 0.748998 -12.0906 39.894
1253449 16.9652 18.7603 2.22831 1.64667 0.766048 -12.0644 39.6005
1253459 16.9652 18.7603 2.22831 1.64667 0.766048 -12.0644 39.6005
1253469 16.9217 18.6533 2.25969 1.6186 0.691 -12.051 39.4534
1253480 16.7652 18.5561 2.29108 1.71216 0.77047 -11.946 39.3245
1253490 16.7652 18.5561 2.29108 1.71216 0.77047 -11.946 39.3245
1253500 16.8087 18.5366 2.28062 1.68409 0.719538 -11.9743 39.31
1253512 16.8087 18.5366 2.28062 1.68409 0.719538 -11.9743 39.31
1253520 16.8957 18.4394 2.30154 1.6186 0.54819 -12.0041 39.2552
1253530 16.7652 18.1573 2.37477 1.67474 0.443953 -11.8828 38.972
1253541 16.7652 18.1573 2.37477 1.67474 0.443953 -11.8828 38.972
1253550 16.513 17.8072 2.37477 1.59053 0.332978 -11.8928 38.2856
1253560 16.2609 17.6127 2.43754 1.72152 0.417939 -11.7193 38.0326
1253570 16.2609 17.6127 2.43754 1.72152 0.417939 -11.7193 38.0326
1253580 16.0522 17.4668 2.60492 1.81508 0.411716 -11.5049 37.939
1253591 16.0522 17.4668 2.60492 1.81508 0.411716 -11.5049 37.939
1253600 15.9826 17.4279 2.72 1.90864 0.416639 -11.3496 38.0392
1253610 15.9217 17.4863 2.97108 2.10512 0.453803 -11.0429 38.4842
1253620 15.9217 17.4863 2.97108 2.10512 0.453803 -11.0429 38.4842
1253630 16.0522 17.4474 3.21169 2.3016 0.310856 -10.7604 39.0128
1253649 15.8435 17.1264 3.65108 2.76004 0.248799 -10.1161 39.381
1253651 15.8435 17.1264 3.65108 2.76004 0.248799 -10.1161 39.381
1253660 15.5565 16.6731 4.26831 3.31205 0.100666 -9.28759 39.81
1253670 15.5565 16.6731 4.26831 3.31205 0.100666 -9.28759 39.81
1253682 15.1739 16.1967 4.76 3.79857 0.0384182 -8.56969 39.9292
1253690 14.8087 15.8231 5.45046 4.52834 0.0568002 -7.62842 40.6106
1253702 14.8087 15.8231 5.45046 4.52834 0.0568002 -7.62842 40.6106
1253710 14.5565 15.5615 6.18277 5.19263 0.00896156 -6.77553 41.4935
1253722 14.2696 15.3 6.86277 6.01596 0.108147 -5.89806 42.4483
1253732 14.2696 15.3 6.86277 6.01596 0.108147 -5.89806 42.4483
1253743 13.7739 14.8984 7.30215 6.57733 0.23478 -5.21463 42.5517
1253752 13.7739 14.8984 7.30215 6.57733 0.23478 -5.21463 42.5517
1253765 12.9826 14.067 7.53231 6.84865 0.241831 -4.58671 41.4306
1253772 11.7913 12.7407 7.888 7.49422 0.347981 -3.43853 39.9142
1253781 11.7913 12.7407 7.888 7.49422 0.347981 -3.43853 39.9142
1253792 10.5565 11.2742 8.89231 8.61695 0.281075 -1.64773 39.34
1253812 9.33913 9.89176 10.4929 9.98294 0.0268489 0.470313 39.7067
1253826 8.24348 8.66813 12.5643 11.8074 -0.201221 2.71057 41.2833
1253832 8.24348 8.66813 12.5643 11.8074 -0.201221 2.71057 41.2833
1253843 7.28696 7.73407 14.5625 13.4353 -0.395188 4.5248 43.0188
1253853 6.44348 6.89341 15.8806 14.5487 -0.503801 5.85809 43.7662
1253873 5.76522 6.15549 16.4142 14.9791 -0.603032 6.74351 43.314
1253883 5.2087 5.48297 16.864 15.3065 -0.748433 7.51672 42.8622
1253894 5.2087 5.48297 16.864 15.3065 -0.748433 7.51672 42.8622
1253904 4.84348 5.06264 17.0984 15.344 -0.906351 7.98244 42.3485
1253924 4.53043 4.66099 17.1673 15.2878 -1.04988 8.37899 41.6466
1253934 4.22609 4.41813 17.0295 15.1288 -1.04693 8.64435 40.8025
1253944 4.22609 4.41813 17.0295 15.1288 -1.04693 8.64435 40.8025
1253955 3.9913 4.31538 16.7071 14.9136 -0.920047 8.75865 39.9274
1253964 3.97391 4.30604 16.5502 14.8949 -0.832687 8.74704 39.725
1253974 3.97391 4.30604 16.5502 14.8949 -0.832687 8.74704 39.725
1253984 4.26087 4.5489 16.6757 14.951 -0.888209 8.46399 40.4365
1253994 4.26087 4.5489 16.6757 14.951 -0.888209 8.46399 40.4365
1254004 4.6 4.90385 16.6757 14.9791 -0.845972 8.07277 41.1586
1254014 5.09565 5.32418 16.4351 14.8294 -0.825951 7.5009 41.6843
1254024 5.09565 5.32418 16.4351 14.8294 -0.825951 7.5009 41.6843
1254034 5.26957 5.51099 16.3828 14.7452 -0.832865 7.28279 41.9085
1254054 5.18261 5.42692 16.4874 14.8387 -0.837189 7.41014 41.9357
1254064 5.03478 5.24945 16.6338 15.0352 -0.824699 7.64594 41.9533
1254075 5.03478 5.24945 16.6338 15.0352 -0.824699 7.64594 41.9533
1254085 4.86087 4.96923 16.6757 15.0539 -0.910373 7.90412 41.5597
1254095 4.63478 4.83846 16.8117 15.0072 -0.96923 8.11739 41.2921
1254115 4.44348 4.61429 17.0787 15.1475 -1.06606 8.41796 41.284
1254125 4.16522 4.34341 17.5119 15.4562 -1.13162 8.84574 41.4767
1254136 4.16522 4.34341 17.5119 15.4562 -1.13162 8.84574 41.4767
1254145 4.01739 4.24066 17.8072 15.7744 -1.08125 9.07878 41.8396
1254157 4.01739 4.24066 17.8072 15.7744 -1.08125 9.07878 41.8396
1254165 3.86087 4.14725 17.9155 15.8679 -1.05354 9.25138 41.7915
1254177 3.82609 4.15659 18.0828 16.0644 -1.00161 9.31566 42.1299
1254185 3.82609 4.15659 18.0828 16.0644 -1.00161 9.31566 42.1299
1254197 3.7913 4.08187 18.1812 16.1112 -1.05507 9.39839 42.1656
1254205 3.70435 4.00714 18.1714 16.055 -1.0811 9.48364 41.9379
1254218 3.70435 4.00714 18.1714 16.055 -1.0811 9.48364 41.9379
1254225 3.64348 3.9044 18.2206 16.0737 -1.12682 9.58834 41.8422
1254239 3.64348 3.9044 18.2206 16.0737 -1.12682 9.58834 41.8422
1254247 3.54783 3.89506 18.1812 15.9802 -1.11396 9.63309 41.6043
1254258 3.51304 3.80165 18.2206 15.9147 -1.21672 9.70589 41.45
1254272 3.51304 3.80165 18.2206 15.9147 -1.21672 9.70589 41.45
1254280 3.42609 3.77363 18.3781 16.0176 -1.20985 9.80733 41.5954
1254289 3.41739 3.6989 18.5061 16.1112 -1.26601 9.88448 41.7335
1254307 3.3913 3.67088 18.6144 15.9708 -1.41903 9.91287 41.6474
1254317 3.3913 3.67088 18.6144 15.9708 -1.41903 9.91287 41.6474
1254326 3.35652 3.64286 18.6636 15.9334 -1.46878 9.95193 41.5964
1254340 3.3913 3.58681 18.6045 15.6527 -1.67107 9.9232 41.2354
1254348 3.3913 3.58681 18.6045 15.6527 -1.67107 9.9232 41.2354
1254360 3.36522 3.54945 18.6242 15.4001 -1.85634 9.93295 40.939
1254368 3.37391 3.54945 18.6931 15.2785 -1.98013 9.92111 40.895
1254388 3.46087 3.54945 18.9195 15.344 -2.11209 9.90453 41.2738
1254401 3.46087 3.54945 18.9195 15.344 -2.11209 9.90453 41.2738
1254408 3.46087 3.55879 19.2936 15.4469 -2.24422 9.95716 41.7601
1254418 3.56522 3.62418 19.5003 15.6901 -2.21283 9.91074 42.3798
1254438 3.58261 3.66154 19.4708 15.4937 -2.30887 9.85118 42.2086
1254448 3.5913 3.66154 19.3723 15.2411 -2.425 9.80285 41.8662
1254458 3.5913 3.64286 19.3723 15.2411 -2.43725 9.81392 41.8475
1254468 3.5913 3.58681 19.1853 15.0165 -2.52131 9.79594 41.3799
1254478 3.5913 3.58681 19.1853 15.0165 -2.52131 9.79594 41.3799
1254488 3.54783 3.58681 19.0475 14.8387 -2.54124 9.78219 41.0209
1254498 3.6 3.59615 19.2148 14.9791 -2.56075 9.78414 41.3901
1254508 3.6 3.59615 19.2148 14.9791 -2.56075 9.78414 41.3901
1254518 3.64348 3.63352 19.3034 15.1943 -2.46507 9.77411 41.7747
1254528 3.64348 3.63352 19.3034 15.1943 -2.46507 9.77411 41.7747
1254540 3.67826 3.6989 19.5003 15.3159 -2.46706 9.75475 42.1934
1254548 3.73913 3.76429 19.392 15.2598 -2.43569 9.66015 42.1552
1254558 3.73913 3.76429 19.392 15.2598 -2.43569 9.66015 42.1552
1254569 3.69565 3.73626 19.3231 15.1101 -2.49159 9.67438 41.8651
1254579 3.73043 3.68022 19.2148 14.9884 -2.56921 9.65757 41.6139
1254599 3.75652 3.71758 19.1754 15.0259 -2.51259 9.61978 41.6754
1254609 3.8087 3.79231 19.3428 15.1569 -2.49541 9.58369 42.1006
1254620 3.8087 3.79231 19.3428 15.1569 -2.49541 9.58369 42.1006
1254630 3.82609 3.84835 19.1459 15.1662 -2.35637 9.5165 41.9866
1254646 3.82609 3.84835 19.1459 15.1662 -2.35637 9.5165 41.9866
1254650 3.78261 3.84835 18.9687 15.1943 -2.21845 9.52244 41.794
1254661 3.87826 3.9044 18.8506 15.2036 -2.16367 9.41929 41.8369
1254670 3.87826 3.9044 18.8506 15.2036 -2.16367 9.41929 41.8369
1254682 3.93913 4.06319 18.575 15.1007 -2.00958 9.2399 41.678
1254691 4.11304 4.39945 18.2403 14.9323 -1.81215 8.87371 41.6851
1254702 4.11304 4.39945 18.2403 14.9323 -1.81215 8.87371 41.6851
1254712 4.33913 4.63297 17.7875 14.6048 -1.74595 8.49289 41.3644
1254721 4.72174 4.63297 17.3248 16.6632 -0.432847 8.52507 43.3427
1254733 4.72174 5.06264 17.3248 14.268 -1.64095 7.90597 41.3772
1254743 5.26957 5.76319 16.5397 13.8189 -1.34517 7.00359 41.3914
1254763 5.94783 6.57582 15.4831 13.0985 -1.06833 5.85981 41.1052
1254773 6.7913 7.61264 14.2382 12.1442 -0.780056 4.40531 40.7863
1254783 6.7913 7.61264 14.2382 12.1442 -0.780056 4.40531 40.7863
1254793 7.78261 8.87363 12.8363 11.1431 -0.370485 2.70323 40.6356
1254803 8.83478 10.2187 11.2043 9.88002 0.0371307 0.75896 40.1378
1254815 8.83478 10.2187 11.2043 9.88002 0.0371307 0.75896 40.1378
1254824 9.75652 11.4236 9.86523 8.85085 0.409013 -0.926428 39.8962
1254834 9.75652 11.4236 9.86523 8.85085 0.409013 -0.926428 39.8962
1254845 10.3826 12.339 8.74585 7.8404 0.668412 -2.34128 39.3079
1254856 11.0696 13.2077 8.03446 7.12933 0.781548 -3.46598 39.4411
1254864 11.0696 13.2077 8.03446 7.12933 0.781548 -3.46598 39.4411
1254875 11.5913 14.0203 7.30215 6.46505 1.01065 -4.51172 39.3788
1254884 12.1565 14.7396 6.73723 5.94111 1.12883 -5.38899 39.5744
1254895 12.1565 14.7396 6.73723 5.94111 1.12883 -5.38899 39.5744
1254910 12.5391 15.2907 6.14092 5.52009 1.34886 -6.14147 39.4908
1254919 12.5391 15.2907 6.14092 5.52009 1.34886 -6.14147 39.4908
1254928 12.8522 15.7016 5.76431 5.13649 1.40773 -6.71139 39.4546
1254937 12.9739 15.8604 5.60738 4.88387 1.37507 -6.99662 39.3256
1254947 12.9739 15.8604 5.60738 4.88387 1.37507 -6.99662 39.3256
1254959 13.2783 16.1313 5.27262 4.6219 1.40084 -7.44772 39.3041
1254967 13.687 16.4956 4.90646 4.31315 1.4056 -7.98037 39.4022
1254976 13.687 16.4956 4.90646 4.31315 1.4056 -7.98037 39.4022
1254987 14.0522 16.9066 4.58215 4.0044 1.43928 -8.48604 39.5453
1255000 14.2783 17.2042 4.19508 3.69565 1.54074 -8.98774 39.3732
1255008 14.2783 17.2042 4.19508 3.69565 1.54074 -8.98774 39.3732
1255021 14.4348 17.3501 4.11138 3.46175 1.43916 -9.22751 39.358
1255038 14.4696 17.4571 3.86031 3.32141 1.56529 -9.49091 39.1084
1255048 14.4609 17.4765 3.82892 3.32141 1.60419 -9.51209 39.0877
1255063 14.4609 17.4765 3.82892 3.32141 1.60419 -9.51209 39.0877
1255069 14.3652 17.3209 3.74523 3.19978 1.5598 -9.60668 38.6312
1255079 14.4174 17.4182 3.69292 3.13429 1.57914 -9.7025 38.6628
1255090 14.4174 17.4182 3.69292 3.13429 1.57914 -9.7025 38.6628
1255101 14.5304 17.6127 3.50462 3.01266 1.67504 -9.94268 38.6604
1255120 14.6261 17.7683 3.4 2.97523 1.75231 -10.0668 38.7696
1255130 14.6696 17.8753 3.34769 2.89103 1.77205 -10.1742 38.7836
1255141 14.6696 17.8753 3.34769 2.89103 1.77205 -10.1742 38.7836
1255152 14.5826 17.7683 3.18031 2.90974 1.89585 -10.2472 38.441
1255161 14.4957 17.778 3.15938 2.7694 1.89281 -10.3442 38.2025
1255172 14.4957 17.778 3.15938 2.7694 1.89281 -10.3442 38.2025
1255182 14.5652 17.8947 3.13846 2.79747 1.94586 -10.3621 38.3959
1255194 14.8 18.3227 3.11754 2.87232 2.09487 -10.4057 39.1125
1255202 14.8 18.3227 3.11754 2.87232 2.09487 -10.4057 39.1125
1255212 15.0696 18.5852 3.128 2.8536 2.04439 -10.4726 39.6364
1255221 15.0696 18.5852 3.128 2.8536 2.04439 -10.4726 39.6364
1255235 15.313 18.9451 3.07569 2.77876 2.07859 -10.6215 40.1126
1255241 15.4261 19.1299 2.91877 2.64777 2.13894 -10.8378 40.1225
1255262 15.3913 19.1007 2.65723 2.41387 2.19019 -11.1547 39.5631
1255272 15.3043 18.9937 2.52123 2.24546 2.18457 -11.3394 39.0648
1255292 15.1826 18.9354 2.38523 2.03963 2.20997 -11.5559 38.5428
1255302 15.1826 18.9354 2.38523 2.03963 2.20997 -11.5559 38.5428
1255316 15.1565 18.9062 2.24923 1.95542 2.2577 -11.7037 38.2673
1255323 15.4 19.1104 2.15508 1.8525 2.21185 -11.8787 38.518
1255333 15.4 19.1104 2.15508 1.8525 2.21185 -11.8787 38.518
1255343 15.513 19.1493 2.06092 1.71216 2.13833 -12.055 38.4354
1255353 15.6348 19.3341 1.94585 1.69345 2.23199 -12.1721 38.6082
1255363 15.6348 19.3341 1.94585 1.69345 2.23199 -12.1721 38.6082
1255373 15.5826 19.1785 1.85169 1.59053 2.18222 -12.2969 38.2033
1255393 15.5652 19.1007 1.78892 1.45955 2.11404 -12.4296 37.9144
1255403 15.6783 19.1396 1.67385 1.37534 2.08811 -12.5843 37.867
1255423 15.9217 19.4508 1.73662 1.41277 2.08012 -12.5473 38.5219
1255433 16.0783 19.587 1.71569 1.3847 2.04931 -12.6007 38.7656
1255444 16.0783 19.587 1.71569 1.3847 2.04931 -12.6007 38.7656
1255454 16.1826 19.5967 1.70523 1.37534 1.98417 -12.6218 38.8599
1255464 16.1826 19.5967 1.70523 1.37534 1.98417 -12.6218 38.8599
1255474 16.2435 19.5189 1.71569 1.36599 1.88297 -12.62 38.844
1255484 16.3391 19.373 1.72615 1.43148 1.76178 -12.5629 38.8698
1255505 16.3652 19.266 1.632 1.41277 1.73335 -12.6382 38.676
1255514 16.5652 19.373 1.69477 1.42212 1.62279 -12.6058 39.0551
1255525 16.5652 19.373 1.69477 1.42212 1.62279 -12.6058 39.0551
1255535 16.7304 19.5481 1.73662 1.45019 1.60344 -12.5775 39.4653
1255550 16.7304 19.5481 1.73662 1.45019 1.60344 -12.5775 39.4653
1255559 16.8261 19.7037 1.73662 1.44084 1.62552 -12.5993 39.7072
1255568 17 19.8787 1.768 1.45955 1.60216 -12.5858 40.1063
1255575 17 19.8787 1.768 1.45955 1.60216 -12.5858 40.1063
1255586 17.0897 19.8398 1.79938 1.42212 1.47747 -12.593 40.151
1255596 17.0498 19.7231 1.74708 1.35663 1.43119 -12.665 39.8766
1255608 17.0498 19.7231 1.74708 1.35663 1.43119 -12.665 39.8766
1255615 17.0598 19.6356 1.74708 1.31921 1.3505 -12.6865 39.7617
1255629 17.0598 19.6356 1.74708 1.31921 1.3505 -12.6865 39.7617
1255635 16.9739 19.3633 1.78892 1.31921 1.21665 -12.6361 39.4453
1255649 16.7565 18.9451 1.86215 1.37534 1.09257 -12.5057 38.9391
1255657 16.7565 18.9451 1.86215 1.37534 1.09257 -12.5057 38.9391
1255670 16.4609 18.4394 1.87262 1.36599 0.964803 -12.4525 38.1388
1255677 16.1826 17.8947 1.97723 1.37534 0.741547 -12.3129 37.4299
1255686 16.1826 17.8947 1.97723 1.37534 0.741547 -12.3129 37.4299
1255698 16.1478 17.7002 2.08185 1.43148 0.603589 -12.1789 37.3614
1255707 16.2609 17.8753 2.25969 1.60925 0.634107 -11.946 38.0051
1255719 16.2609 17.8753 2.25969 1.60925 0.634107 -11.946 38.0051
1255728 16.4174 18.0406 2.53169 1.81508 0.584087 -11.6395 38.8048
1255738 16.4174 18.0406 2.53169 1.81508 0.584087 -11.6395 38.8048
1255748 16.4174 18.0892 2.76185 1.94606 0.545761 -11.3983 39.2145
1255758 16.3826 18.0698 3.04431 2.27353 0.576061 -10.9886 39.7702
1255768 16.3826 18.0698 3.04431 2.27353 0.576061 -10.9886 39.7702
1255778 16.3478 17.8364 3.4 2.55421 0.400344 -10.5497 40.1384
1255788 16.3478 17.8364 3.4 2.55421 0.400344 -10.5497 40.1384
1255800 16.1652 17.4376 3.86031 2.82554 0.147474 -10.0215 40.2887
1255808 15.913 16.8132 4.38338 3.3027 -0.11169 -9.29425 40.4123
1255818 15.913 16.8132 4.38338 3.3027 -0.11169 -9.29425 40.4123
1255828 15.6957 16.2341 4.90646 3.6863 -0.4206 -8.63852 40.5225
1255838 15.3478 15.6923 5.51323 4.24766 -0.564378 -7.82305 40.801
1255848 15.3478 15.6923 5.51323 4.24766 -0.564378 -7.82305 40.801
1255859 14.7739 15.0385 6.07815 4.82774 -0.605296 -6.96486 40.7183
1255868 14.7739 15.0385 6.07815 4.82774 -0.605296 -6.96486 40.7183
1255880 14.0435 14.2445 6.50708 5.39846 -0.564513 -6.11384 40.1935
1255888 13.0696 13.2264 7.17662 6.05338 -0.611259 -4.95849 39.5259
1255901 13.0696 13.2264 7.17662 6.05338 -0.611259 -4.95849 39.5259
1255910 12.0435 12.1802 8.23323 7.01706 -0.683634 -3.40987 39.474
1255918 11.4609 11.4703 9.48862 8.32691 -0.706956 -1.88322 40.7467
1255928 11.4609 11.4703 9.48862 8.32691 -0.706956 -1.88322 40.7467
1255938 10.7478 10.639 10.8905 9.65548 -0.801162 -0.300803 41.9328
1255959 9.92174 9.84505 11.9157 10.6753 -0.777359 1.00012 42.3578
1255969 9.04348 9.20989 12.7003 11.2554 -0.757261 2.02645 42.209
1255979 9.04348 9.20989 12.7003 11.2554 -0.757261 2.02645 42.209
1255989 8.17391 8.5467 13.3803 11.7232 -0.767706 3.00647 41.8241
1255999 7.63478 8.10769 13.9766 12.1255 -0.823419 3.71361 41.8446
1256019 7.49565 7.84615 13.9034 12.0413 -0.915317 3.85218 41.2865
1256030 7.49565 7.84615 13.9034 12.0413 -0.915317 3.85218 41.2865
1256039 7.33913 7.6033 13.7569 11.8354 -1.02215 3.94104 40.5348
1256049 7.26957 7.33242 13.6942 11.7793 -1.15532 4.06913 40.0754
1256059 7.26957 7.33242 13.6942 11.7793 -1.15532 4.06913 40.0754
1256070 7.2 7.26703 13.7883 11.8635 -1.15766 4.18187 40.1189
1256079 7.07826 7.07088 14.1022 12.2097 -1.17388 4.50905 40.461
1256089 7.07826 7.07088 14.1022 12.2097 -1.17388 4.50905 40.461
1256099 6.8087 6.78132 14.5206 12.6588 -1.15847 4.99984 40.7694
1256110 6.8087 6.78132 14.5206 12.6588 -1.15847 4.99984 40.7694
1256122 6.47826 6.65055 14.9391 13.005 -1.07239 5.41059 41.0728
1256131 6.21739 6.26758 15.3889 13.426 -1.15785 5.93098 41.2999
1256139 6.21739 6.26758 15.3889 13.426 -1.15785 5.93098 41.2999
1256152 5.8 5.89396 16.0062 13.9593 -1.17196 6.57888 41.6594
1256161 5.35652 5.40824 16.7594 14.5206 -1.30041 7.31907 42.0448
1256173 5.35652 5.40824 16.7594 14.5206 -1.30041 7.31907 42.0448
1256180 4.93913 5.08132 17.1477 14.82 -1.30122 7.84052 41.9881
1256213 4.93913 5.08132 17.1477 14.82 -1.30122 7.84052 41.9881
1256214 4.56522 4.70769 17.3839 15.1101 -1.27575 8.33952 41.7669
1256220 4.36522 4.51154 17.5414 15.2972 -1.25726 8.61619 41.7153
1256234 4.14783 4.38077 17.7186 15.475 -1.20481 8.86758 41.7221
1256242 3.95652 4.14725 17.9548 15.5966 -1.30087 9.16368 41.6552
1256254 3.95652 4.14725 17.9548 15.5966 -1.30087 9.16368 41.6552
1256262 3.87826 4.14725 18.0631 15.8679 -1.14774 9.26155 41.9565
1256272 3.87826 4.14725 18.0631 15.8679 -1.14774 9.26155 41.9565
1256281 3.76522 4.09121 18.0041 15.8211 -1.11376 9.3454 41.6816
1256292 3.71304 3.9511 17.9155 15.7931 -1.13864 9.4426 41.3727
1256301 3.71304 3.9511 17.9155 15.7931 -1.13864 9.4426 41.3727
1256312 3.58261 3.92308 18.132 15.9334 -1.11745 9.58349 41.5711
1256323 3.63478 3.92308 18.3978 16.0363 -1.23427 9.6005 41.992
1256332 3.63478 3.92308 18.3978 16.0363 -1.23427 9.6005 41.992
1256342 3.63478 3.88571 18.4765 15.9708 -1.34316 9.62411 41.9679
1256353 3.50435 3.84835 18.4962 15.7744 -1.42822 9.70054 41.6233
1256373 3.53913 3.76429 18.4175 15.5779 -1.58265 9.6947 41.2988
1256383 3.53913 3.76429 18.4175 15.5779 -1.58265 9.6947 41.2988
1256394 3.49565 3.75495 18.5061 15.5592 -1.62627 9.73524 41.3158
1256404 3.54783 3.7456 18.7128 15.6247 -1.73571 9.74422 41.6309
1256414 3.54783 3.7456 18.7128 15.6247 -1.73571 9.74422 41.6309
1256424 3.58261 3.76429 18.7325 15.5592 -1.7962 9.70666 41.6385
1256434 3.54783 3.75495 18.7522 15.5311 -1.81188 9.73181 41.586
1256444 3.54783 3.75495 18.7522 15.5311 -1.81188 9.73181 41.586
1256454 3.6087 3.80165 18.7719 15.5592 -1.8086 9.6741 41.7414
1256474 3.6087 3.76429 18.8014 15.4656 -1.90934 9.68805 41.64
1256484 3.66087 3.81099 18.8703 15.5779 -1.87398 9.65278 41.92
1256495 3.66087 3.81099 18.8703 15.5779 -1.87398 9.65278 41.92
1256504 3.68696 3.78297 18.8014 15.5592 -1.88034 9.64272 41.8305
1256514 3.62609 3.82033 18.7423 15.4469 -1.8621 9.63459 41.6356
1256525 3.62609 3.82033 18.7423 15.4469 -1.8621 9.63459 41.6356
1256534 3.61739 3.82033 18.7226 15.4188 -1.86445 9.63357 41.5792
1256555 3.63478 3.83901 18.5848 15.2972 -1.86395 9.57842 41.3558
1256568 3.72174 3.89506 18.4962 15.213 -1.88134 9.4707 41.326
1256575 3.72174 3.89506 18.4962 15.213 -1.88134 9.4707 41.326
1256591 3.84348 4.01648 18.4765 15.1943 -1.87166 9.32231 41.5308
1256595 3.93043 4.12857 18.5356 15.2036 -1.87439 9.21578 41.7982
1256605 3.93043 4.12857 18.5356 15.2036 -1.87439 9.21578 41.7982
1256615 4.04348 4.32473 18.2501 14.9978 -1.78482 8.96758 41.6161
1256626 4.04348 4.32473 18.2501 14.9978 -1.78482 8.96758 41.6161
1256635 4.26957 4.64231 17.9056 14.7078 -1.70084 8.5616 41.5252
1256647 4.70435 5.20275 17.3741 14.3335 -1.52719 7.85798 41.6147
1256655 4.70435 5.20275 17.3741 14.3335 -1.52719 7.85798 41.6147
1256665 5.46087 5.94066 16.7071 13.8189 -1.43602 6.84198 41.9275
1256676 6.71304 7.07088 15.2634 12.6681 -1.34088 5.08718 41.7154
1256685 6.71304 7.07088 15.2634 12.6681 -1.34088 5.08718 41.7154
1256695 7.69565 8.21044 13.6523 11.4144 -1.05137 3.35368 40.9728
1256717 8.58261 9.26593 12.0935 10.0671 -0.839226 1.61668 40.0092
1256727 9.75652 10.4522 10.744 8.90699 -0.715844 -0.209886 39.8597
1256738 9.75652 10.4522 10.744 8.90699 -0.715844 -0.209886 39.8597
1256749 10.8087 11.7412 9.32123 7.75619 -0.399047 -2.07148 39.6273
1256758 11.4957 12.5445 8.17046 6.78316 -0.216988 -3.49538 38.9938
1256767 11.4957 12.5445 8.17046 6.78316 -0.216988 -3.49538 38.9938
1256780 12.0435 13.189 7.30215 6.22179 0.0420421 -4.53158 38.7564
1256786 12.0435 13.189 7.30215 6.22179 0.0420421 -4.53158 38.7564
1256800 12.4522 13.7775 6.71631 5.87562 0.312075 -5.26938 38.8216
1256807 12.7826 14.3566 6.35015 5.52944 0.482634 -5.86625 39.0188
1256816 12.7826 14.3566 6.35015 5.52944 0.482634 -5.86625 39.0188
1256832 12.9391 14.6368 6.01538 5.36103 0.669622 -6.23821 38.9524
1256842 13.0522 15.0104 5.81662 5.21134 0.86529 -6.53661 39.0906
1256851 13.0522 15.0104 5.81662 5.21134 0.86529 -6.53661 39.0906
1256858 13.313 15.356 5.54462 5.01486 0.964376 -6.92465 39.2286
1256868 13.313 15.356 5.54462 5.01486 0.964376 -6.92465 39.2286
1256878 13.5217 15.6643 5.304 4.79967 1.04239 -7.28525 39.2897
1256888 13.7652 16.0846 5.00062 4.54706 1.18398 -7.72974 39.3975
1256908 13.9826 16.5143 4.66585 4.26637 1.35192 -8.20384 39.4291
1256918 14.0522 16.7011 4.46708 3.96698 1.37087 -8.54328 39.1873
1256929 14.0522 16.7011 4.46708 3.96698 1.37087 -8.54328 39.1873
1256939 14.0174 16.8973 4.18462 3.84535 1.63091 -8.81432 38.9446
1256959 14.0522 16.944 4.09046 3.72372 1.62653 -8.95971 38.8103
1256969 14.0087 16.9346 4.08 3.66758 1.62409 -8.99271 38.6909
1256990 14.0696 17 3.87077 3.63016 1.74344 -9.1658 38.5705
1256999 14.0261 17 3.95446 3.59274 1.693 -9.13024 38.5733
1257011 14.0261 17 3.95446 3.59274 1.693 -9.13024 38.5733
1257020 14.0609 17.107 3.90215 3.56467 1.75271 -9.20198 38.6347
1257032 14.0609 17.107 3.90215 3.56467 1.75271 -9.20198 38.6347
1257040 14.2348 17.3696 3.78708 3.5366 1.85233 -9.35599 38.928
1257054 14.5304 17.7197 3.75569 3.41497 1.80649 -9.54298 39.4208
1257060 14.5304 17.7197 3.75569 3.41497 1.80649 -9.54298 39.4208
1257073 14.687 18.0309 3.59877 3.3869 1.97216 -9.72162 39.7035
1257080 14.8087 18.274 3.65108 3.35883 1.9786 -9.75471 40.0926
1257094 14.8087 18.274 3.65108 3.35883 1.9786 -9.75471 40.0926
1257102 14.8957 18.2838 3.59877 3.36819 1.96625 -9.79383 40.1464
1257114 14.6957 18.2838 3.60923 3.33077 2.0727 -9.78449 39.9194
1257122 14.6957 18.1087 3.60923 3.33077 1.97171 -9.76152 39.7443
1257135 14.6957 17.992 3.68246 3.37755 1.88151 -9.67138 39.7477
1257151 15.0087 18.2157 3.54646 3.22785 1.80529 -9.9191 39.9987
1257163 15.3304 18.5852 3.43138 3.09686 1.80514 -10.1576 40.4439
1257172 15.3304 18.5852 3.43138 3.09686 1.80514 -10.1576 40.4439
1257182 15.4609 18.7408 3.25354 2.94717 1.83999 -10.3958 40.4024
1257192 15.4609 18.7408 3.25354 2.94717 1.83999 -10.3958 40.4024
1257202 15.5913 18.7603 3.13846 2.76004 1.73327 -10.6036 40.2501
1257212 15.5739 18.6339 3.04431 2.65713 1.67429 -10.7142 39.9092
1257224 15.5739 18.6339 3.04431 2.65713 1.67429 -10.7142 39.9092
1257232 15.4609 18.4296 2.95015 2.45129 1.57151 -10.8759 39.292
1257245 15.4261 18.1573 2.856 2.40451 1.46725 -10.9372 38.8439
1257251 15.4261 18.1573 2.856 2.40451 1.46725 -10.9372 38.8439
1257266 15.4261 18.0114 2.76185 2.3016 1.3799 -11.0546 38.501
1257283 15.3913 17.9628 2.62585 2.18932 1.39837 -11.2154 38.1693
1257293 15.5652 18.0601 2.45846 2.03027 1.35558 -11.4669 38.114
1257313 15.5913 17.9531 2.24923 1.7683 1.25183 -11.7913 37.5619
1257323 15.6783 17.9531 2.07138 1.62796 1.22648 -12.0271 37.3307
1257333 15.6783 17.9531 2.07138 1.62796 1.22648 -12.0271 37.3307
1257344 15.8174 17.8656 1.97723 1.45955 1.03078 -12.2224 37.1197
1257354 16.1304 18.0892 1.79938 1.42212 1.05602 -12.4187 37.4412
1257365 16.1304 18.0892 1.79938 1.42212 1.05602 -12.4187 37.4412
1257376 16.4957 18.4491 1.74708 1.33792 1.01517 -12.5664 38.0297
1257397 16.7478 18.7311 1.65292 1.35663 1.09578 -12.6542 38.4885
1257407 16.9043 18.9548 1.72615 1.34728 1.07338 -12.6317 38.9326
1257425 16.9913 19.0132 1.73662 1.26307 0.992399 -12.6928 39.0041
1257438 17.0199 18.9062 1.768 1.29114 0.903794 -12.6459 38.9852
1257445 17.0199 18.9062 1.768 1.29114 0.903794 -12.6459 38.9852
1257455 17.0199 18.7895 1.70523 1.26307 0.855768 -12.7036 38.7777
1257470 17.0199 18.7895 1.70523 1.26307 0.855768 -12.7036 38.7777
1257480 17.1196 18.6728 1.83077 1.34728 0.686228 -12.5535 38.9704
1257488 17.3388 18.7311 1.93538 1.33792 0.505075 -12.504 39.3432
1257495 17.3388 18.7311 1.93538 1.33792 0.505075 -12.504 39.3432
1257505 17.4683 18.5658 1.98769 1.36599 0.301954 -12.4456 39.3878
1257515 17.4584 18.5366 2.07138 1.44084 0.283292 -12.333 39.5072
1257527 17.4584 18.5366 2.07138 1.44084 0.283292 -12.333 39.5072
1257535 17.5281 18.4783 2.176 1.47826 0.159091 -12.2359 39.6607
1257557 17.3587 18.274 2.24923 1.55311 0.138947 -12.1074 39.4351
1257571 17.1794 18.0406 2.37477 1.56247 0.0312477 -11.9835 39.1572
1257578 17.1794 18.0406 2.37477 1.56247 0.0312477 -11.9835 39.1572
1257587 17.2591 17.9628 2.45846 1.72152 -0.0210747 -11.8174 39.4019
1257598 17.279 17.9045 2.584 1.84315 -0.0728384 -11.647 39.6106
1257607 17.279 17.9045 2.584 1.84315 -0.0728384 -11.647 39.6106
1257616 17.1594 17.7489 2.86646 2.07705 -0.125463 -11.2786 39.8518
1257627 17.1594 17.7489 2.86646 2.07705 -0.125463 -11.2786 39.8518
1257638 16.8696 17.496 3.21169 2.3016 -0.177833 -10.8525 39.8789
1257647 16.513 16.944 3.64062 2.64777 -0.353457 -10.2535 39.7454
1257659 16.513 16.944 3.64062 2.64777 -0.353457 -10.2535 39.7454
1257666 16.0435 16.3648 3.95446 2.89103 -0.472613 -9.76828 39.2538
1257681 15.487 15.8044 4.29969 3.21849 -0.49199 -9.1884 38.8095
1257688 15.487 15.8044 4.29969 3.21849 -0.49199 -9.1884 38.8095
1257698 15.1478 15.4588 4.68677 3.60209 -0.497302 -8.60682 38.8955
1257708 15.1478 15.4588 4.68677 3.60209 -0.497302 -8.60682 38.8955
1257718 14.6261 14.9451 5.14708 4.12603 -0.451855 -7.83824 38.8443
1257728 13.9565 14.2445 5.81662 4.84645 -0.438826 -6.76896 38.8641
1257738 13.9565 14.2445 5.81662 4.84645 -0.438826 -6.76896 38.8641
1257748 13.0261 13.133 6.78954 5.9224 -0.488965 -5.18913 38.871
1257758 12.0957 11.9374 8.40062 7.47551 -0.678664 -3.0658 39.9091
1257768 12.0957 11.9374 8.40062 7.47551 -0.678664 -3.0658 39.9091
1257778 11.1652 11.0033 10.6812 9.44964 -0.823601 -0.722579 42.2994
1257791 11.1652 11.0033 10.6812 9.44964 -0.823601 -0.722579 42.2994
1257798 10.2261 9.97582 12.8886 11.377 -0.990544 1.37079 44.4675
1257808 9.31304 9.01374 14.3218 12.5184 -1.16386 2.82734 45.1671
1257818 9.31304 9.01374 14.3218 12.5184 -1.16386 2.82734 45.1671
1257828 8.50435 8.21978 14.4788 12.5839 -1.24433 3.54167 43.7868
1257838 7.85217 7.47253 14.2905 12.3594 -1.37626 4.04715 41.9745
1257848 7.85217 7.47253 14.2905 12.3594 -1.37626 4.04715 41.9745
1257858 7.42609 6.96813 14.1126 12.1536 -1.4861 4.37967 40.6604
1257868 7.42609 6.96813 14.1126 12.1536 -1.4861 4.37967 40.6604
1257880 7.11304 6.70659 14.0289 12.2097 -1.38903 4.65034 40.0582
1257888 6.74783 6.33297 14.4474 12.6307 -1.38919 5.22822 40.1589
1257909 6.33913 6.11813 14.8449 13.164 -1.175 5.76469 40.4662
1257922 6.33913 6.11813 15.3575 13.164 -1.47303 5.88022 40.9788
1257929 5.90435 5.82857 15.3575 13.8751 -0.95095 6.40771 40.9655
1257939 5.6 5.62308 16.1212 14.6236 -0.878409 6.97738 41.9679
1257959 5.1913 5.33352 16.7594 15.2411 -0.808997 7.57513 42.5253
1257969 4.73913 5.03462 17.0098 15.5685 -0.676379 8.07679 42.3521
1257989 4.46957 4.8011 17.0787 15.6247 -0.668603 8.37401 41.9741
1257999 4.46957 4.8011 17.0787 15.6247 -0.668603 8.37401 41.9741
1258011 4.14783 4.55824 17.128 15.7837 -0.560963 8.72426 41.6177
1258019 3.98261 4.43681 17.3445 15.9895 -0.539345 8.95062 41.7535
1258032 3.98261 4.43681 17.3445 15.9895 -0.539345 8.95062 41.7535
1258039 3.87826 4.34341 17.3347 16.0363 -0.500818 9.06987 41.5927
1258049 3.73043 4.28736 17.3052 16.0176 -0.441827 9.18165 41.3406
1258059 3.73043 4.28736 17.3052 16.0176 -0.441827 9.18165 41.3406
1258069 3.66087 4.21264 17.2264 15.9708 -0.42841 9.24882 41.0707
1258079 3.66087 4.21264 17.2264 15.9708 -0.42841 9.24882 41.0707
1258092 3.61739 4.24066 17.3544 16.0831 -0.392294 9.29136 41.2955
1258102 3.63478 4.15659 17.6398 16.2796 -0.502534 9.39614 41.7108
1258110 3.63478 4.15659 17.6398 16.2796 -0.502534 9.39614 41.7108
1258129 3.6 4.12857 17.7383 16.2796 -0.557005 9.44606 41.7464
1258130 3.6087 4.05385 17.8072 16.0925 -0.763656 9.4691 41.5622
1258141 3.6087 4.05385 17.8072 16.0925 -0.763656 9.4691 41.5622
1258150 3.6 4.01648 18.0434 16.1018 -0.912994 9.52862 41.7617
1258161 3.6 4.01648 18.0434 16.1018 -0.912994 9.52862 41.7617
1258170 3.6 3.91374 18.1517 16.0083 -1.09764 9.59103 41.6737
1258183 3.56522 3.89506 18.3092 16.0176 -1.17366 9.64408 41.7871
1258190 3.56522 3.89506 18.3092 16.0176 -1.17366 9.64408 41.7871
1258201 3.61739 3.9044 18.4864 16.0457 -1.28033 9.63418 42.0539
1258210 3.57391 3.87637 18.5356 16.027 -1.3128 9.68 42.0129
1258232 3.48696 3.79231 18.3978 15.8118 -1.37427 9.73647 41.4888
1258242 3.48696 3.79231 18.3978 15.8118 -1.37427 9.73647 41.4888
1258252 3.44348 3.75495 18.2108 15.7182 -1.32581 9.74918 41.1274
1258262 3.47826 3.72692 18.2994 15.8118 -1.35475 9.76828 41.3163
1258272 3.47826 3.72692 18.2994 15.8118 -1.35475 9.76828 41.3163
1258282 3.48696 3.73626 18.3486 15.8211 -1.37592 9.76489 41.3929
1258292 3.46087 3.76429 18.2305 15.8773 -1.23979 9.75588 41.3329
1258303 3.46087 3.76429 18.2305 15.8773 -1.23979 9.75588 41.3329
1258314 3.46087 3.81099 18.1616 15.9428 -1.12907 9.7275 41.3762
1258322 3.46087 3.81099 18.1616 15.9428 -1.12907 9.7275 41.3762
1258336 3.42609 3.79231 17.9745 15.9895 -0.982675 9.74165 41.1825
1258343 3.4 3.7456 18.0139 16.1112 -0.943238 9.8058 41.2707
1258353 3.4 3.7456 18.0139 16.1112 -0.943238 9.8058 41.2707
1258363 3.44348 3.70824 18.073 16.2796 -0.920758 9.83061 41.5043
1258373 3.42609 3.83901 18.1714 16.3451 -0.845706 9.78352 41.7816
1258383 3.42609 3.83901 18.1714 16.3451 -0.845706 9.78352 41.7816
1258393 3.49565 3.91374 18.1714 16.2796 -0.880148 9.68993 41.8604
1258403 3.49565 3.91374 18.1714 16.2796 -0.880148 9.68993 41.8604
1258414 3.49565 3.92308 18.1812 16.2515 -0.8974 9.6821 41.8515
1258424 3.53043 3.9511 18.26 16.2702 -0.933726 9.65754 42.0117
1258433 3.53043 3.9511 18.26 16.2702 -0.933726 9.65754 42.0117
1258445 3.58261 3.9511 18.2206 16.0457 -1.08041 9.59303 41.8
1258453 3.53913 3.87637 18.0533 15.9241 -1.0823 9.62551 41.3928
1258467 3.53913 3.87637 18.0533 15.9241 -1.0823 9.62551 41.3928
1258473 3.5913 3.9511 18.0237 15.6901 -1.19606 9.51546 41.2563
1258494 3.6087 3.94176 18.0533 15.6901 -1.22903 9.5146 41.2939
1258504 3.62609 3.92308 17.9548 15.503 -1.31369 9.47717 41.007
1258514 3.62609 3.92308 17.9548 15.503 -1.31369 9.47717 41.007
1258523 3.62609 3.92308 18.1812 15.6995 -1.31834 9.53354 41.4299
1258535 3.73043 4.06319 18.3387 15.8118 -1.30782 9.42571 41.9441
1258544 3.73043 4.06319 18.3387 15.8118 -1.30782 9.42571 41.9441
1258557 3.86087 4.15659 18.3289 15.7837 -1.33483 9.29092 42.1301
1258574 3.88696 4.19396 18.3289 15.6714 -1.39638 9.23906 42.0812
1258584 3.97391 4.17527 18.3486 15.5966 -1.51483 9.1922 42.0944
1258605 3.93913 4.22198 18.073 15.4282 -1.41731 9.12338 41.6622
1258615 3.9913 4.26868 18.0041 15.2878 -1.46735 9.03638 41.5519
1258635 4.02609 4.25934 17.6398 14.9604 -1.49576 8.92054 40.8856
1258647 4.26957 4.36209 17.1969 14.6048 -1.54545 8.59565 40.4334
1258667 5.14783 5.0533 16.7698 14.1932 -1.62228 7.56553 41.1641
1258677 5.14783 5.0533 16.7698 14.1932 -1.62228 7.56553 41.1641
1258691 6.11304 6.02473 16.0062 13.6037 -1.49154 6.27776 41.7477
1258698 7.01739 7.0989 15.2738 12.743 -1.45334 4.94879 42.1331
1258711 7.01739 7.0989 15.2738 12.743 -1.45334 4.94879 42.1331
1258718 7.90435 8.26648 13.9662 11.639 -1.17595 3.38746 41.776
1258729 8.65217 9.17253 12.5329 10.3946 -0.99256 1.87824 40.7522
1258748 9.63478 10.3027 11.1834 9.25316 -0.781599 0.1854 40.3741
1258768 10.6696 11.5918 9.48862 7.88718 -0.428414 -1.84885 39.6371
1258770 10.6696 11.5918 9.48862 7.88718 -0.428414 -1.84885 39.6371
1258780 11.4957 12.8901 7.89846 6.5399 0.0231177 -3.84325 38.8241
1258801 12.4522 14.067 6.62215 5.50138 0.319645 -5.58799 38.6427
1258810 13.5913 15.3747 5.48185 4.47221 0.497031 -7.32731 38.9201
1258824 13.5913 15.3747 5.48185 4.47221 0.497031 -7.32731 38.9201
1258832 14.5652 16.4396 4.43569 3.55531 0.637227 -8.85241 38.9958
1258840 15.4522 17.4376 3.73477 2.96588 0.768226 -9.92253 39.5905
1258850 15.4522 17.4376 3.73477 2.96588 0.768226 -9.92253 39.5905
1258862 16.5826 18.6728 3.07569 2.33902 0.831991 -11.0059 40.6701
1258872 17.3488 19.4605 2.59446 1.93671 0.879285 -11.7118 41.3405
1258892 17.7474 19.8301 2.23877 1.65603 0.904211 -12.1826 41.4722
1258902 17.7474 19.8301 2.23877 1.65603 0.904211 -12.1826 41.4722
1258914 17.8271 19.8593 1.92492 1.41277 0.926304 -12.5592 41.024
1258923 17.7573 19.8204 1.71569 1.235 0.976074 -12.8158 40.5284
1258943 17.4086 19.5578 1.496 1.02917 1.06504 -13.0817 39.4915
1258953 16.9913 19.2077 1.41231 0.982389 1.15722 -13.1385 38.5937
1258963 16.9913 19.2077 1.41231 0.982389 1.15722 -13.1385 38.5937
1258973 16.6783 18.9256 1.43323 0.95432 1.16372 -13.1147 37.9914
1258984 16.6609 18.9256 1.32862 0.888828 1.20687 -13.2403 37.8039
1258994 16.6609 18.8381 1.32862 0.888828 1.15165 -13.2362 37.7164
1259004 16.8348 19.1299 1.27631 0.879472 1.2449 -13.3034 38.1204
1259014 16.8348 19.1299 1.27631 0.879472 1.2449 -13.3034 38.1204
1259027 17.0399 19.2368 1.18215 0.804623 1.18876 -13.4423 38.2635
1259034 17.1295 19.4022 1.19262 0.785911 1.21132 -13.4587 38.5102
1259050 17.1295 19.4022 1.19262 0.785911 1.21132 -13.4587 38.5102
1259054 17.3189 19.655 1.07754 0.682994 1.25316 -13.6365 38.7344
1259064 17.3189 19.655 0.983385 0.682994 1.31713 -13.7062 38.6403
1259074 17.3388 19.6453 0.983385 0.682994 1.2976 -13.7066 38.6505
1259084 17.0399 19.3633 1.06708 0.73913 1.30561 -13.5819 38.2093
1259095 17.0399 19.3633 1.06708 0.73913 1.30561 -13.5819 38.2093
1259104 16.687 18.7797 0.962462 0.720418 1.24547 -13.641 37.1496
1259118 16.3304 18.3518 1.06708 0.711062 1.14191 -13.5369 36.4604
1259140 16.2087 18.1573 1.10892 0.767199 1.10844 -13.447 36.2421
1259147 16.2087 18.1573 1.10892 0.767199 1.10844 -13.447 36.2421
1259155 16.4783 18.3324 1.06708 0.720418 1.02974 -13.5348 36.5981
1259165 16.8957 18.7311 1.00431 0.636214 0.984356 -13.6794 37.2673
1259187 17.0598 18.8867 0.962462 0.626857 0.993273 -13.7298 37.5358
1259197 17.1096 18.8867 1.03569 0.589433 0.884372 -13.7041 37.6215
1259208 17.1096 18.8867 1.03569 0.589433 0.884372 -13.7041 37.6215
1259216 17.01 18.8089 1.04615 0.617501 0.913966 -13.6685 37.4825
1259228 17.01 18.8089 1.09846 0.617501 0.877854 -13.6285 37.5348
1259237 17.0498 18.6241 1.09846 0.580077 0.706735 -13.6519 37.3525
1259252 17.1495 18.877 1.088 0.673638 0.86877 -13.6014 37.7881
1259259 17.1495 18.877 1.088 0.673638 0.86877 -13.6014 37.7881
1259266 17.1395 18.8965 1.05662 0.626857 0.879645 -13.6611 37.7194
1259277 17.1794 18.8867 1.04615 0.626857 0.85327 -13.6701 37.7391
1259298 17.2392 18.8089 1.02523 0.598789 0.758734 -13.7067 37.6721
1259308 17.1295 18.7603 1.00431 0.654926 0.853133 -13.6743 37.5491
1259318 17.1295 18.7603 1.00431 0.654926 0.853133 -13.6743 37.5491
1259328 17.1295 18.77 1.07754 0.589433 0.766891 -13.6688 37.5665
1259348 16.9217 18.6436 1.088 0.64557 0.857547 -13.6057 37.2989
1259362 16.7739 18.5172 1.15077 0.729774 0.889289 -13.4823 37.1716
1259384 16.8087 18.5366 1.25538 0.767199 0.829411 -13.3762 37.3679
1259389 17.289 18.77 1.31815 0.860759 0.669262 -13.2905 38.2379
1259415 17.6676 19.1201 1.41231 0.860759 0.576627 -13.2542 39.0608
1259431 17.7872 19.2271 1.50646 0.935608 0.550634 -13.1432 39.4564
1259439 17.9367 19.4605 1.60062 0.982389 0.566286 -13.0618 39.9802
1259460 18.2257 19.6356 1.632 1.06659 0.520527 -13.004 40.5599
1259471 18.5047 19.7717 1.87262 1.14144 0.324455 -12.8101 41.2905
1259490 18.6442 19.5481 2.04 1.34728 0.126946 -12.5561 41.5795
1259501 18.3154 19.0521 2.19692 1.54375 0.0507981 -12.2701 41.1081
1259522 17.9666 18.381 2.36431 1.67474 -0.170325 -11.9997 40.3866
1259532 17.9666 18.381 2.36431 1.67474 -0.170325 -11.9997 40.3866
1259545 17.1794 17.5835 2.59446 1.88057 -0.197344 -11.5785 39.2379
1259552 16.5826 16.8225 2.992 2.10512 -0.420083 -11.0285 38.5023
1259564 16.5826 16.8225 2.992 2.10512 -0.420083 -11.0285 38.5023
1259572 16.2 16.4769 3.23262 2.41387 -0.353456 -10.5799 38.3234
1259581 16.2348 16.5143 3.63015 2.82554 -0.334853 -10.06 39.2048
1259602 16.4087 16.6357 4.23692 3.24656 -0.470875 -9.46049 40.5279
1259616 16.4087 16.6357 4.23692 3.24656 -0.470875 -9.46049 40.5279
1259623 16.6522 16.7665 4.83323 3.72372 -0.592723 -8.88434 41.9756
1259638 16.7478 16.7104 5.27262 4.0699 -0.72435 -8.45163 42.8008
1259643 16.7478 16.7104 5.27262 4.0699 -0.72435 -8.45163 42.8008
1259653 16.3913 16.3462 5.38769 4.16346 -0.75043 -8.22431 42.2886
1259663 15.7565 15.6736 5.39815 4.32251 -0.70384 -7.91339 41.1508
1259674 15.7565 15.6736 5.39815 4.32251 -0.70384 -7.91339 41.1508
1259683 15.0522 14.9918 5.45046 4.34122 -0.734049 -7.62593 39.8356
1259693 15.0522 14.9918 5.45046 4.34122 -0.734049 -7.62593 39.8356
1259706 14.2696 14.2352 5.46092 4.41607 -0.702971 -7.27992 38.3817
1259713 13.7217 13.5907 5.63877 4.72482 -0.693431 -6.74786 37.676
1259733 12.9826 12.9742 6.02585 5.19263 -0.566003 -5.94682 37.1753
1259743 12.1217 12.1242 6.78954 6.11888 -0.449628 -4.57719 37.1543
1259753 12.1217 12.1242 6.78954 6.11888 -0.449628 -4.57719 37.1543
1259763 11.2348 11.2742 8.46338 7.63456 -0.511196 -2.49088 38.6069
1259774 11.2348 11.2742 8.46338 7.63456 -0.511196 -2.49088 38.6069
1259784 10.2609 10.3962 10.9742 9.9268 -0.548671 0.0880444 41.558
1259796 9.42609 9.49945 14.0185 12.4904 -0.800458 2.5036 45.4344
1259804 9.42609 9.49945 14.0185 12.4904 -0.800458 2.5036 45.4344
1259814 8.49565 8.64011 15.7446 14.0061 -0.849982 4.03579 46.8864
1259824 7.38261 7.6033 16.1526 14.1838 -0.964262 5.08045 45.3223
1259834 7.38261 7.6033 16.1526 14.1838 -0.964262 5.08045 45.3223
1259844 6.36522 6.71593 16.1317 14.0435 -1.00419 5.92769 43.2563
1259854 6.36522 6.71593 16.1317 14.0435 -1.00419 5.92769 43.2563
1259866 5.6 6.03407 16.1212 13.978 -1.02387 6.63684 41.7333
1259876 5.15652 5.51099 16.0794 13.8938 -1.12642 7.12549 40.6407
1259890 5.15652 5.51099 16.0794 13.8938 -1.12642 7.12549 40.6407
1259894 4.94783 5.24011 15.9225 13.7347 -1.18926 7.32935 39.8451
1259914 4.86087 5.1 15.7028 13.6412 -1.15919 7.39721 39.3048
1259924 5.02609 5.17473 15.7237 13.6599 -1.20955 7.26907 39.5844
1259936 5.02609 5.17473 15.7237 13.6599 -1.20955 7.26907 39.5844
1259945 5.21739 5.38022 15.8806 13.8938 -1.1295 7.12503 40.372
1259959 5.4 5.61374 16.3305 14.1932 -1.15772 7.04543 41.5374
1259965 5.4 5.61374 16.3305 14.1932 -1.15772 7.04543 41.5374
1259981 5.4087 5.63242 16.6862 14.6236 -1.0855 7.17882 42.3508
1259985 5.26957 5.37088 16.8745 14.7358 -1.20549 7.44479 42.2507
1259997 5.26957 5.37088 16.8745 14.7358 -1.20549 7.44479 42.2507
1260006 5.2 5.25879 16.6129 14.5861 -1.18105 7.46808 41.6578
1260016 5.2 5.25879 16.6129 14.5861 -1.18105 7.46808 41.6578
1260032 5.12174 5.1467 16.4246 14.3522 -1.24705 7.49479 41.0453
1260040 5.12174 5.06264 16.2049 14.1558 -1.29996 7.4644 40.5451
1260051 5.12174 5.06264 16.2049 14.1558 -1.29996 7.4644 40.5451
1260058 5.26957 5.15604 16.1108 13.9967 -1.37394 7.28363 40.5331
1260068 5.58261 5.36154 16.2363 13.9499 -1.52409 7.01747 41.1304
1260078 5.58261 5.36154 16.2363 13.9499 -1.52409 7.01747 41.1304
1260089 6.03478 5.54835 16.1212 13.7815 -1.70308 6.6238 41.4859
1260098 6.45217 5.6511 15.9434 13.585 -1.89725 6.27832 41.6317
1260121 6.65217 5.6978 15.7028 13.4728 -1.91713 6.07779 41.5255
1260128 6.65217 5.6978 15.7028 13.4728 -1.91713 6.07779 41.5255
1260138 6.64348 5.67912 15.7132 13.3231 -2.02769 6.0617 41.3589
1260148 6.4 5.45495 16.1526 13.4447 -2.20313 6.42029 41.4522
1260158 6.4 5.45495 16.1526 13.4447 -2.20313 6.42029 41.4522
1260168 6.13043 5.28681 16.6652 13.6879 -2.28685 6.8 41.7704
1260178 6.13043 5.28681 16.6652 13.6879 -2.28685 6.8 41.7704
1260189 5.89565 5.17473 17.1575 13.9499 -2.32854 7.12592 42.1778
1260198 5.67826 4.97857 17.5119 14.0622 -2.45636 7.42959 42.2309
1260212 5.67826 4.97857 17.5119 14.0622 -2.45636 7.42959 42.2309
1260218 5.30435 4.74505 17.817 14.1651 -2.50479 7.82724 42.0315
1260234 5.04348 4.63297 18.2403 14.3803 -2.52412 8.13679 42.297
1260238 5.04348 4.63297 18.2403 14.3803 -2.52412 8.13679 42.297
1260248 4.83478 4.53956 18.3781 14.399 -2.5351 8.3281 42.1515
1260258 4.83478 4.53956 18.3781 14.399 -2.5351 8.3281 42.1515
1260268 4.5913 4.30604 18.3387 14.4458 -2.50601 8.59625 41.6819
1260280 4.47826 4.21264 18.2994 14.4645 -2.47287 8.71056 41.4548
1260303 4.33913 4.18462 18.3092 14.5113 -2.38996 8.81504 41.3442
1260308 4.24348 4.08187 18.2305 14.4364 -2.41243 8.90713 40.9922
1260318 4.24348 4.08187 18.2305 14.4364 -2.41243 8.90713 40.9922
1260328 4.18261 4.10055 18.2797 14.4271 -2.39977 8.93766 40.9899
1260338 4.18261 4.10055 18.2797 14.4271 -2.39977 8.93766 40.9899
1260348 4.11304 4.03516 18.4864 14.5674 -2.42515 9.06713 41.202
1260358 4.15652 4.09121 18.6833 14.7452 -2.40149 9.06299 41.6762
1260372 4.15652 4.09121 18.6833 14.7452 -2.40149 9.06299 41.6762
1260378 4.14783 4.14725 18.8801 14.8481 -2.39903 9.07823 42.0233
1260388 4.18261 4.14725 18.89 14.8481 -2.42301 9.05971 42.0679
1260399 4.18261 4.15659 18.89 14.8668 -2.40473 9.05701 42.096
1260409 4.14783 4.16593 18.8211 14.8387 -2.36114 9.05786 41.9736
1260419 4.14783 4.16593 18.8211 14.8387 -2.36114 9.05786 41.9736
1260429 4.08696 4.08187 18.5651 14.689 -2.34241 9.08385 41.423
1260439 4.12174 4.12857 18.4076 14.7265 -2.21964 9.01926 41.3844
1260449 4.12174 4.12857 18.4076 14.7265 -2.21964 9.01926 41.3844
1260463 4.07826 4.11923 18.4175 14.8013 -2.15808 9.06213 41.4163
1260469 4.07826 4.11923 18.4175 14.8013 -2.15808 9.06213 41.4163
1260479 4.06087 4.12857 18.4864 14.8575 -2.1436 9.08467 41.5333
1260489 4.10435 4.17527 18.5651 14.8762 -2.168 9.04643 41.7209
1260502 4.10435 4.17527 18.5651 14.8762 -2.168 9.04643 41.7209
1260510 4.14783 4.21264 18.4962 14.8013 -2.17851 8.97922 41.658
1260519 4.24348 4.23132 18.4962 14.8387 -2.19425 8.91903 41.8098
1260533 4.24348 4.23132 18.4962 14.8387 -2.19425 8.91903 41.8098
1260539 4.29565 4.32473 18.388 14.7358 -2.1698 8.80485 41.7442
1260549 4.29565 4.32473 18.388 14.7358 -2.1698 8.80485 41.7442
1260559 4.36522 4.32473 18.2698 14.6423 -2.20425 8.73352 41.602
1260569 4.42609 4.36209 18.1025 14.6236 -2.13356 8.64928 41.5142
1260581 4.42609 4.36209 18.1025 14.6236 -2.13356 8.64928 41.5142
1260589 4.51304 4.47418 18.0139 14.5113 -2.13279 8.50515 41.5124
1260604 4.65217 4.64231 17.6694 14.3616 -2.00703 8.25272 41.3254
1260619 4.86087 4.94121 17.3839 14.0715 -1.95844 7.87252 41.2575
1260639 5.2 5.32418 16.8535 13.6412 -1.88218 7.30293 41.0189
1260650 5.75652 5.97802 16.1003 12.9675 -1.78377 6.37216 40.8024
1260659 5.75652 5.97802 16.1003 12.9675 -1.78377 6.37216 40.8024
1260673 6.64348 6.89341 15.096 12.0319 -1.73009 5.01332 40.6648
1260688 7.48696 7.83681 13.9034 11.1337 -1.49885 3.60994 40.3609
1260690 7.48696 7.83681 13.9034 11.1337 -1.49885 3.60994 40.3609
1260700 8.5913 9.14451 12.6585 9.94551 -1.33847 1.81019 40.3398
1260712 8.5913 9.14451 12.6585 9.94551 -1.33847 1.81019 40.3398
1260720 9.66087 10.4522 11.016 8.73858 -0.93189 -0.134878 39.8676
1260730 10.8348 11.8159 9.28985 7.47551 -0.528456 -2.23971 39.4161
1260743 10.8348 11.8159 9.28985 7.47551 -0.528456 -2.23971 39.4161
1260750 11.8087 12.9742 8.05538 6.47441 -0.264226 -3.91213 39.3127
1260760 12.5826 13.7681 7.072 5.623 -0.168696 -5.24605 39.0457
1260770 12.5826 13.7681 7.072 5.623 -0.168696 -5.24605 39.0457
1260780 13.3739 14.5434 6.392 5.08035 -0.0902236 -6.26242 39.3897
1260790 13.3739 14.5434 6.392 5.08035 -0.0902236 -6.26242 39.3897
1260801 13.9739 15.1599 5.81662 4.54706 -0.0529051 -7.12835 39.4975
1260813 14.5913 15.6643 5.304 4.09796 -0.0838786 -7.88764 39.6576
1260822 14.5913 15.6643 5.304 4.09796 -0.0838786 -7.88764 39.6576
1260837 14.9391 16.1033 4.95877 3.75179 -0.0269264 -8.42649 39.753
1260842 15.1739 16.4396 4.57169 3.47111 0.104055 -8.91562 39.6563
1260852 15.1739 16.4396 4.57169 3.47111 0.104055 -8.91562 39.6563
1260862 15.513 16.9066 4.32062 3.27463 0.217149 -9.30569 40.0149
1260872 15.513 16.9066 4.32062 3.27463 0.217149 -9.30569 40.0149
1260883 15.887 17.389 4.03815 3.05008 0.318345 -9.73179 40.3642
1260892 16.4261 18.0503 3.87077 2.81618 0.345981 -10.1265 41.1634
1260911 16.8261 18.4685 3.44185 2.5355 0.445884 -10.6552 41.272
1260930 17.0498 18.7311 3.06523 2.17997 0.485078 -11.1645 41.0261
1260931 17.0498 18.7311 3.06523 2.17997 0.485078 -11.1645 41.0261
1260942 17.0698 18.7992 2.63631 1.81508 0.56313 -11.688 40.3203
1260962 16.9652 18.8186 2.30154 1.57182 0.708392 -12.0699 39.6572
1260978 16.8783 18.7895 1.88308 1.26307 0.831667 -12.5683 38.8139
1260982 16.8783 18.7895 1.88308 1.26307 0.831667 -12.5683 38.8139
1260993 16.7826 18.6922 1.55877 0.944964 0.852984 -13.0223 37.9786
1261004 16.6 18.4588 1.23446 0.757843 0.932625 -13.3868 37.0511
1261013 16.6 18.4588 1.23446 0.757843 0.932625 -13.3868 37.0511
1261024 16.4435 18.3032 1.05662 0.682994 1.01826 -13.5696 36.4863
1261046 16.4609 18.2643 0.920615 0.542653 0.984755 -13.787 36.1884
1261053 16.5652 18.5172 0.910154 0.449092 1.02279 -13.881 36.4416
1261074 16.687 18.8478 0.753231 0.421024 1.24538 -14.0404 36.709
1261084 16.8957 19.1201 0.826462 0.533297 1.29183 -13.9086 37.3755
1261104 17.1196 19.3535 0.899692 0.552009 1.24344 -13.8516 37.9248
1261119 17.1196 19.3535 0.899692 0.552009 1.24344 -13.8516 37.9248
1261124 17.1295 19.4119 0.816 0.533297 1.31935 -13.9317 37.8907
1261135 17.0698 19.4703 0.920615 0.561365 1.34215 -13.8307 38.022
1261145 17.0698 19.4703 0.920615 0.561365 1.34215 -13.8307 38.022
1261154 16.8957 19.5189 0.878769 0.580077 1.53441 -13.8444 37.8734
1261167 16.6609 19.2757 0.931077 0.561365 1.49961 -13.8038 37.4291
1261174 16.6609 19.2757 0.931077 0.561365 1.49961 -13.8038 37.4291
1261184 16.487 19.1785 0.910154 0.570721 1.583 -13.804 37.1463
1261194 16.487 19.1785 0.910154 0.570721 1.583 -13.804 37.1463
1261204 16.713 19.4022 0.931077 0.598789 1.56517 -13.7808 37.6451
1261215 17.1893 19.7426 0.931077 0.626857 1.46078 -13.7857 38.4898
1261224 17.1893 19.7426 0.931077 0.626857 1.46078 -13.7857 38.4898
1261240 17.5082 19.8884 0.889231 0.542653 1.30938 -13.8937 38.8285
1261245 17.4285 19.6648 0.952 0.598789 1.21821 -13.7961 38.644
1261265 17.1694 19.5189 0.878769 0.552009 1.32658 -13.874 38.1191
1261275 17.1694 19.5189 0.878769 0.552009 1.32658 -13.874 38.1191
1261289 16.7826 19.2952 0.826462 0.580077 1.51143 -13.8743 37.4843
1261295 16.5391 19.2855 0.889231 0.608145 1.65134 -13.7964 37.322
1261313 16.5391 19.2855 0.889231 0.608145 1.65134 -13.7964 37.322
1261319 16.6087 19.5383 0.920615 0.580077 1.71929 -13.8042 37.6477
1261328 16.7043 19.8106 0.910154 0.626857 1.8547 -13.7882 38.052
1261337 16.7043 19.8106 0.910154 0.626857 1.8547 -13.7882 38.052
1261345 16.8609 19.9468 1.03569 0.701706 1.78488 -13.6478 38.5451
1261361 16.8609 19.9468 1.03569 0.701706 1.78488 -13.6478 38.5451
1261365 16.8348 20.0343 1.09846 0.757843 1.84564 -13.5619 38.7254
1261375 17 20.1802 1.06708 0.860759 1.90107 -13.5211 39.108
1261386 17 20.1802 1.06708 0.860759 1.90107 -13.5211 39.108
1261395 17.1196 20.4136 1.06708 0.795267 1.91787 -13.5818 39.3955
1261411 17.1993 20.9388 1.00431 0.720418 2.16719 -13.702 39.8628
1261415 17.1993 20.9388 1.00431 0.720418 2.16719 -13.702 39.8628
1261425 17.7773 21.5515 1.04615 0.813979 2.14989 -13.6452 41.1889
1261435 17.7773 21.5515 1.04615 0.813979 2.14989 -13.6452 41.1889
1261445 18.1758 21.8141 1.03569 0.776555 2.02088 -13.6994 41.8022
1261458 18.136 21.639 1.00431 0.776555 1.9704 -13.7144 41.5559
1261465 18.136 21.639 1.00431 0.776555 1.9704 -13.7144 41.5559
1261475 17.7374 21.3278 0.962462 0.720418 2.05431 -13.761 40.7481
1261485 17.7374 21.3278 0.962462 0.720418 2.05431 -13.761 40.7481
1261495 16.8174 20.9096 0.889231 0.673638 2.46668 -13.8067 39.2899
1261505 16.4696 20.6567 0.847385 0.673638 2.59619 -13.8193 38.6473
1261515 16.4696 20.6567 0.847385 0.673638 2.59619 -13.8193 38.6473
1261528 16.6261 20.9388 0.836923 0.617501 2.6226 -13.8818 39.0193
1261538 16.9478 21.2695 0.931077 0.748487 2.59359 -13.7371 39.8968
1261551 16.9478 21.2695 0.931077 0.748487 2.59359 -13.7371 39.8968
1261555 17.279 21.532 0.920615 0.757843 2.5255 -13.7564 40.4895
1261565 17.279 21.532 0.920615 0.757843 2.5255 -13.7564 40.4895
1261575 17.3787 21.5904 0.878769 0.757843 2.51861 -13.7908 40.6057
1261585 17.1993 21.464 0.868308 0.767199 2.58293 -13.7825 40.2988
1261600 17.1993 21.464 0.868308 0.767199 2.58293 -13.7825 40.2988
1261605 16.7391 21.143 0.805538 0.748487 2.75562 -13.8178 39.4362
1261615 16.2783 20.7151 0.816 0.73913 2.82759 -13.7897 38.5485
1261625 16.2783 20.7151 0.816 0.73913 2.82759 -13.7897 38.5485
1261638 16.0783 20.6276 0.878769 0.701706 2.85497 -13.7616 38.2863
1261647 16.0783 20.6276 0.878769 0.701706 2.85497 -13.7616 38.2863
1261655 16.2783 20.7054 0.816 0.69235 2.79504 -13.8244 38.492
1261671 16.3478 20.8415 0.899692 0.767199 2.80599 -13.713 38.8563
1261675 16.3478 20.8415 0.899692 0.767199 2.80599 -13.713 38.8563
1261685 16.313 20.7832 0.962462 0.795267 2.76867 -13.6428 38.854
1261698 16.313 20.7832 1.01477 0.795267 2.73133 -13.6043 38.9063
1261705 15.9478 20.3455 1.01477 0.879472 2.79044 -13.5119 38.1876
1261720 15.5217 20.0927 1.26585 1.03852 2.86376 -13.1769 37.9188
1261725 15.5217 20.0927 1.26585 1.03852 2.86376 -13.1769 37.9188
1261735 15.2 19.8593 1.59015 1.27243 2.86216 -12.7354 37.9218
1261745 15.1739 19.7523 2.04 1.71216 2.74736 -12.0897 38.6784
1261755 15.1739 19.7523 2.04 1.71216 2.74736 -12.0897 38.6784
1261767 14.9913 19.4508 2.67815 2.40451 2.64761 -11.1422 39.5248
1261775 14.9913 19.4508 2.67815 2.40451 2.64761 -11.1422 39.5248
1261791 14.713 18.9354 3.536 3.10622 2.35323 -10.0543 40.2906
1261795 14.5217 18.9256 4.36246 3.86406 2.34289 -9.07793 41.6739
1261805 14.5217 18.9256 4.36246 3.86406 2.34289 -9.07793 41.6739
1261815 14.287 18.488 5.14708 4.51899 2.10465 -8.16741 42.441
1261825 13.7826 17.5154 5.93169 5.12713 1.72834 -7.16739 42.3569
1261839 13.7826 17.5154 5.93169 5.12713 1.72834 -7.16739 42.3569
1261845 13 16.2714 6.63262 5.76335 1.44127 -6.07506 41.6674
1261857 13 16.2714 6.63262 5.76335 1.44127 -6.07506 41.6674
1261868 12.1217 15.244 7.03015 6.306 1.47294 -5.17036 40.7019
1261877 11.4696 14.8049 7.26031 6.52119 1.62039 -4.67833 40.056
1261888 11.4696 14.8049 7.26031 6.52119 1.62039 -4.67833 40.056
1261897 10.7304 14.2165 7.39631 6.55861 1.70195 -4.23836 38.9018
1261912 10.3652 13.8615 7.752 6.81123 1.64704 -3.73687 38.79
1261927 10.2522 13.6374 8.12862 7.18547 1.55728 -3.28112 39.2036
1261953 9.97391 13.0489 8.89231 7.73748 1.21061 -2.41839 39.6526
1261963 9.67826 12.4418 9.94892 8.58888 0.862968 -1.32159 40.6578
1261972 9.67826 12.4418 9.94892 8.58888 0.862968 -1.32159 40.6578
1261983 8.89565 11.2742 11.4763 9.86131 0.459877 0.422019 41.5074
1261987 10.1652 11.2742 13.1083 9.86131 -1.2036 0.516863 44.409
1261997 7.93913 9.88242 13.1083 11.4238 0.152737 2.37661 42.3536
1262007 7.06087 8.49066 14.6462 12.8085 -0.237109 4.15165 43.0062
1262032 6.23478 7.3511 15.7655 13.6973 -0.552817 5.5322 43.0487
1262037 5.46087 6.35165 16.3514 14.2212 -0.731014 6.63916 42.3851
1262048 5.46087 6.35165 16.3514 14.2212 -0.731014 6.63916 42.3851
1262058 4.93043 5.63242 16.7908 14.5674 -0.907283 7.44089 41.921
1262069 4.49565 5.1467 17.1575 14.7545 -1.05398 8.03875 41.5544
1262079 4.49565 5.1467 17.1575 14.7545 -1.05398 8.03875 41.5544
1262088 4.34783 4.78242 17.4922 14.9604 -1.26087 8.41296 41.5828
1262104 4.34783 4.78242 17.4922 14.9604 -1.26087 8.41296 41.5828
1262108 4.14783 4.53022 17.443 14.7639 -1.40435 8.63234 40.8849
1262118 4.07826 4.39945 17.4627 14.6703 -1.52123 8.73733 40.6107
1262129 4.07826 4.39945 17.4627 14.6703 -1.52123 8.73733 40.6107
1262138 4.06087 4.38077 17.5217 14.689 -1.54528 8.77038 40.6524
1262154 3.9913 4.32473 17.8072 14.9042 -1.56574 8.91917 41.0275
1262158 3.9913 4.32473 17.8072 14.9042 -1.56574 8.91917 41.0275
1262168 4.05217 4.39945 18.2994 15.0633 -1.72716 8.93631 41.8143
1262179 4.05217 4.39945 18.2994 15.0633 -1.72716 8.93631 41.8143
1262189 4.11304 4.32473 18.634 15.2223 -1.89153 9.01494 42.2942
1262205 4.18261 4.2967 18.7522 15.0352 -2.13102 8.98156 42.2667
1262210 4.18261 4.2967 18.7522 15.0352 -2.13102 8.98156 42.2667
1262220 4.18261 4.26868 18.8112 14.8855 -2.27747 8.98457 42.148
1262230 4.17391 4.26868 18.8211 14.8855 -2.27809 8.99092 42.1492
1262239 4.17391 4.19396 18.8211 14.6329 -2.49159 8.99749 41.8219
1262254 4.14783 4.11923 18.9884 14.3616 -2.79659 9.04062 41.6171
1262269 4.2087 4.14725 19.1558 14.6048 -2.73786 9.04798 42.1166
1262282 4.29565 4.13791 19.3329 14.5206 -2.93828 9.01693 42.2872
1262289 4.29565 4.13791 19.3329 14.5206 -2.93828 9.01693 42.2872
1262303 4.27826 4.11923 19.4511 14.4551 -3.04639 9.04485 42.3037
1262309 4.26957 4.05385 19.3625 14.2774 -3.15801 9.0495 41.9633
1262328 4.26957 4.05385 19.3625 14.2774 -3.15801 9.0495 41.9633
1262330 4.29565 4.08187 19.3034 14.1277 -3.22273 8.98867 41.8086
1262352 4.2 4.00714 19.2345 14.1183 -3.1936 9.07569 41.56
1262362 4.22609 3.96978 19.2837 14.0435 -3.30934 9.07857 41.5231
1262376 4.22609 3.96978 19.2837 14.0435 -3.30934 9.07857 41.5231
1262382 4.2 3.96978 19.1459 14.0996 -3.18513 9.08206 41.4153
1262393 4.17391 3.97912 19.1951 14.2119 -3.1148 9.11476 41.5601
1262402 4.17391 3.97912 19.1951 14.2119 -3.1148 9.11476 41.5601
1262412 4.18261 4.00714 19.0967 14.3429 -2.96023 9.09809 41.6293
1262425 4.18261 4.00714 19.0967 14.3429 -2.96023 9.09809 41.6293
1262432 4.13043 3.97912 18.9786 14.3709 -2.86967 9.13188 41.4591
1262442 4.12174 4.05385 18.9195 14.5019 -2.69579 9.10373 41.597
1262451 4.12174 4.05385 18.9195 14.5019 -2.69579 9.10373 41.597
1262462 4.05217 4.03516 18.6537 14.399 -2.59585 9.10258 41.1401
1262475 4.06087 4.13791 18.447 14.53 -2.33145 9.0265 41.1758
1262482 4.06087 4.13791 18.447 14.53 -2.33145 9.0265 41.1758
1262491 4.15652 4.13791 18.4667 14.7545 -2.2466 9.00629 41.5157
1262503 4.15652 4.13791 18.4667 14.7545 -2.2466 9.00629 41.5157
1262513 4.08696 4.25 18.4175 14.7265 -2.12626 8.97051 41.4809
1262524 4.16522 4.30604 18.2501 14.8575 -1.95524 8.88781 41.5789
1262550 4.21739 4.39011 18.132 14.8575 -1.86423 8.79222 41.597
1262553 4.17391 4.5022 17.8662 14.9042 -1.58862 8.72003 41.4466
1262573 4.22609 4.58626 17.5119 14.5955 -1.56172 8.53929 40.9197
1262583 4.22609 4.58626 17.5119 14.5955 -1.56172 8.53929 40.9197
1262610 4.28696 4.95055 16.8431 14.3054 -1.16008 8.13809 40.386
1262612 4.75652 5.85659 16.3305 13.9312 -0.794612 7.21052 40.8748
1262621 4.75652 5.85659 16.3305 13.9312 -0.794612 7.21052 40.8748
1262624 5.53043 6.99615 15.3785 13.1266 -0.478996 5.84127 41.0316
1262634 6.45217 8.04231 14.3637 12.4904 -0.17122 4.48368 41.3485
1262654 7.26087 9.08846 13.1606 11.6577 0.197157 3.08578 41.1676
1262670 7.94783 10.144 11.9262 10.5911 0.530091 1.63466 40.609
1262675 7.94783 10.144 11.9262 10.5911 0.530091 1.63466 40.609
1262685 8.48696 11.05 10.9846 9.83324 0.874537 0.476114 40.3548
1262696 8.48696 11.05 10.9846 9.83324 0.874537 0.476114 40.3548
1262707 8.90435 11.6852 10.4092 9.23445 0.997955 -0.352629 40.2332
1262715 9.36522 12.2643 9.83385 8.68244 1.08833 -1.16322 40.1458
1262725 9.36522 12.2643 9.83385 8.68244 1.08833 -1.16322 40.1458
1262735 9.76522 12.6473 9.14338 8.16786 1.19986 -1.92627 39.7237
1262747 10.0783 12.9275 8.78769 7.74684 1.14336 -2.45492 39.5403
1262756 10.0783 12.9275 8.78769 7.74684 1.14336 -2.45492 39.5403
1262774 10.487 13.2824 8.28554 7.36324 1.188 -3.09017 39.4181
1262777 10.487 13.2824 8.28554 7.36324 1.188 -3.09017 39.4181
1262787 10.913 13.9363 7.83569 6.94221 1.34361 -3.81231 39.6272
1262798 11.5391 14.8984 7.14523 6.42763 1.65059 -4.82299 40.0103
1262823 12.4087 16.0473 6.33969 5.67914 1.83942 -6.09161 40.4748
1262827 13.1913 17.0973 5.53415 4.99615 2.06274 -7.26071 40.8189
1262849 14.0261 18.1087 4.72862 4.29444 2.21612 -8.42308 41.1578
1262857 14.0261 18.1087 4.72862 4.29444 2.21612 -8.42308 41.1578
1262866 14.8087 19.0521 3.99631 3.6208 2.33128 -9.49072 41.4779
1262878 15.4261 19.7815 3.536 3.11558 2.35012 -10.2329 41.8591
1262900 15.5652 20.1802 3.32677 2.88167 2.48481 -10.5605 41.9539
1262907 15.6 20.472 3.128 2.81618 2.71333 -10.7558 42.0161
1262918 15.6 20.472 3.128 2.81618 2.71333 -10.7558 42.0161
1262928 15.487 20.4525 2.91877 2.62906 2.81764 -10.9883 41.4873
1262951 15.4435 20.4817 2.67815 2.40451 2.90467 -11.2817 41.0078
1262957 15.1913 20.1997 2.45846 2.12383 2.92303 -11.561 39.9733
1262966 15.1913 20.1997 2.45846 2.12383 2.92303 -11.561 39.9733
1262978 14.7913 19.7815 2.27015 1.94606 3.00734 -11.7391 38.789
1262988 14.3739 19.1396 2.00862 1.68409 2.98415 -12.0225 37.2062
1263001 14.3739 19.1396 2.00862 1.68409 2.98415 -12.0225 37.2062
1263008 14.0348 18.6728 1.904 1.58118 2.98069 -12.1112 36.1927
1263026 14.0348 18.6728 1.904 1.58118 2.98069 -12.1112 36.1927
1263028 13.7652 18.1768 1.71569 1.45019 2.95237 -12.2947 35.1079
1263038 13.6087 17.8364 1.75754 1.48762 2.85222 -12.1936 34.6902
1263052 13.6087 17.8364 1.75754 1.48762 2.85222 -12.1936 34.6902
1263058 13.7304 17.8169 1.71569 1.45019 2.75183 -12.264 34.7132
1263068 13.9652 17.9725 1.75754 1.39406 2.59612 -12.3055 35.0894
1263078 13.9652 17.9725 1.75754 1.39406 2.59612 -12.3055 35.0894
1263088 14.2522 18.1768 1.87262 1.47826 2.46664 -12.1904 35.7798
1263102 14.2522 18.1768 1.87262 1.47826 2.46664 -12.1904 35.7798
1263108 14.6609 18.595 1.89354 1.58118 2.46507 -12.162 36.7306
1263118 15.0174 18.8381 2.04 1.58118 2.24265 -12.1013 37.4767
1263128 15.0174 18.8381 2.04 1.58118 2.24265 -12.1013 37.4767
1263138 15.1826 18.9645 2.00862 1.59989 2.23357 -12.1327 37.7556
1263150 15.1826 18.9645 2.00862 1.59989 2.23357 -12.1327 37.7556
1263158 15.1217 18.8284 1.98769 1.59053 2.20465 -12.1396 37.5283
1263175 15.2609 18.9451 2.18646 1.68409 2.08911 -11.9504 38.0765
1263178 15.2609 18.9451 2.18646 1.68409 2.08911 -11.9504 38.0765
1263188 15.687 19.4508 2.30154 1.73088 2.03802 -11.9116 39.1702
1263201 16.2522 20.0441 2.41662 1.81508 1.96799 -11.8676 40.5279
1263208 16.2522 20.0441 2.41662 1.81508 1.96799 -11.8676 40.5279
1263226 16.5565 20.3553 2.43754 1.75894 1.89752 -11.9375 41.1083
1263252 16.5043 20.1997 2.448 1.77766 1.84766 -11.9027 40.9297
1263253 16.1739 19.8106 2.28062 1.65603 1.8863 -12.0417 39.9212
1263275 15.487 19.0812 2.14462 1.63731 2.01237 -12.0415 38.3501
1263279 15.2261 18.488 2.13415 1.57182 1.80355 -12.0289 37.4201
1263289 15.2261 18.488 2.13415 1.57182 1.80355 -12.0289 37.4201
1263300 15.2783 18.5755 2.20738 1.58118 1.77397 -11.9806 37.6423
1263309 15.2783 18.5755 2.20738 1.58118 1.77397 -11.9806 37.6423
1263325 15.4261 18.7506 2.38523 1.65603 1.69769 -11.8277 38.2179
1263330 15.6087 18.8478 2.55262 1.88993 1.65585 -11.5738 38.8991
1263340 15.6087 18.8478 2.55262 1.88993 1.65585 -11.5738 38.8991
1263350 15.5739 18.7895 2.68862 1.99285 1.6134 -11.403 39.0448
1263360 15.3043 18.5074 2.93969 2.11447 1.52953 -11.0988 38.866
1263375 15.3043 18.5074 2.93969 2.11447 1.52953 -11.0988 38.866
1263380 15.113 17.9823 3.03385 2.29224 1.38439 -10.8413 38.4214
1263390 15.113 17.9823 3.03385 2.29224 1.38439 -10.8413 38.4214
1263400 15.0696 17.4376 3.24308 2.42323 1.01394 -10.5469 38.1735
1263410 15.3217 17.496 3.56738 2.58228 0.762916 -10.2655 38.9674
1263430 15.3826 17.5641 3.79754 2.87232 0.792751 -9.94919 39.6165
1263448 15.3217 17.3112 4.09046 3.06879 0.608039 -9.60252 39.7922
1263450 15.3217 17.3112 4.09046 3.06879 0.608039 -9.60252 39.7922
1263460 14.9913 17.0195 4.38338 3.34948 0.625408 -9.16294 39.7436
1263473 14.9913 17.0195 4.38338 3.34948 0.625408 -9.16294 39.7436
1263480 14.8174 16.6637 4.95877 3.85471 0.460532 -8.43822 40.2946
1263497 14.7217 16.3929 5.62831 4.55641 0.36273 -7.60178 41.2993
1263500 14.7217 16.3929 5.62831 4.55641 0.36273 -7.60178 41.2993
1263510 14.5043 15.8978 6.73723 5.58558 0.14149 -6.34734 42.725
1263536 14.2 15.6736 7.752 6.57733 0.16908 -5.27486 44.2029
1263547 14.0522 15.5242 8.13908 6.8393 0.096634 -4.91462 44.5547
1263549 14.0522 15.5242 8.13908 6.8393 0.096634 -4.91462 44.5547
1263560 13.5652 15.0665 7.91938 6.39956 -0.0108019 -4.99856 42.9506
1263572 13.0174 14.5527 7.344 6.0066 0.120944 -5.21234 40.9207
1263580 13.0174 14.5527 7.344 6.0066 0.120944 -5.21234 40.9207
1263596 12.7304 14.1698 6.96738 5.66043 0.0837326 -5.41606 39.528
1263610 12.3478 13.5907 6.76862 5.51073 -0.00984371 -5.36103 38.2178
1263623 11.8957 13.1703 6.91508 5.58558 -0.0364825 -5.01721 37.5666
1263633 11.8957 13.1703 6.91508 5.58558 -0.0364825 -5.01721 37.5666
1263649 11.5043 12.5819 7.48 6.04403 -0.238268 -4.21249 37.6102
1263652 11.0435 11.9093 8.63077 6.91414 -0.552475 -2.88637 38.4977
1263662 11.0435 11.9093 8.63077 6.91414 -0.552475 -2.88637 38.4977
1263675 10.3391 10.9286 10.2732 8.42047 -0.790334 -0.966182 39.9614
1263681 9.6 9.97582 12.4388 10.301 -1.04093 1.12157 42.3156
1263691 9.6 9.97582 12.4388 10.301 -1.04093 1.12157 42.3156
1263702 8.89565 9.14451 14.28 11.8354 -1.24316 2.74324 44.1556
1263726 8.1913 8.27582 15.0123 12.4997 -1.38023 3.76709 43.9792
1263732 7.4 7.49121 15.3052 12.7056 -1.46174 4.58705 42.902
1263743 7.4 7.49121 15.3052 12.7056 -1.46174 4.58705 42.902
1263753 6.82609 6.98681 15.5249 12.8646 -1.48071 5.18097 42.2024
1263763 6.34783 6.48242 15.6086 12.902 -1.55535 5.68943 41.3409
1263783 6.04348 6.17418 15.6609 12.8178 -1.66624 5.99356 40.6964
1263804 5.97391 6.04341 15.5354 12.3875 -1.92691 5.97351 39.9402
1263814 6.30435 6.09011 15.3366 12.191 -2.10402 5.68601 39.922
1263834 6.65217 6.36099 15.2738 11.9009 -2.27935 5.28577 40.1879
1263847 7.13913 6.70659 15.2006 11.7793 -2.35994 4.82572 40.8256
1263864 7.42609 6.97747 15.2634 11.6577 -2.45273 4.5436 41.3246
1263882 7.42609 6.97747 15.2634 11.6577 -2.45273 4.5436 41.3246
1263890 7.67826 7.13626 15.2948 11.4893 -2.61277 4.31608 41.5986
1263895 8.32174 7.54725 14.7822 10.9279 -2.7831 3.55025 41.579
1263909 8.32174 7.54725 14.7822 10.9279 -2.7831 3.55025 41.579
1263915 8.95652 7.76209 13.9662 10.2262 -3.01532 2.74025 40.911
1263925 9.44348 7.9956 13.2129 9.63676 -3.11751 2.01443 40.2888
1263936 9.44348 7.9956 13.2129 9.63676 -3.11751 2.01443 40.2888
1263945 9.86957 8.17308 12.8154 9.31866 -3.23149 1.52753 40.1767
1263959 9.86957 8.17308 12.8154 9.31866 -3.23149 1.52753 40.1767
1263965 10.1739 8.38791 12.4492 9.19703 -3.13258 1.15068 40.2081
1263975 10.4087 8.47198 12.376 9.21574 -3.14843 1.00478 40.4724
1263986 10.4087 8.47198 12.376 9.21574 -3.14843 1.00478 40.4724
1263995 10.3304 8.31319 12.4597 9.57127 -3.01519 1.24919 40.6746
1264010 9.75652 7.71538 13.3803 10.5162 -2.96434 2.32954 41.3685
1264015 9.75652 7.71538 13.3803 10.5162 -2.96434 2.32954 41.3685
1264025 8.75652 6.90275 15.0123 11.9384 -2.89118 3.97492 42.6099
1264047 7.77391 6.13681 16.2782 13.1734 -2.73388 5.37592 43.3622
1264062 6.97391 5.6511 16.8326 13.6412 -2.61856 6.21204 43.0988
1264066 6.97391 5.6511 16.8326 13.6412 -2.61856 6.21204 43.0988
1264076 6.13043 5.19341 16.9058 13.7347 -2.4474 6.90468 41.9644
1264088 5.48696 4.88516 17.0492 13.9873 -2.2119 7.48554 41.4087
1264098 5.48696 4.88516 17.0492 13.9873 -2.2119 7.48554 41.4087
1264112 5.04348 4.71703 17.4233 14.3616 -2.03882 7.95192 41.5454
1264118 4.56522 4.5022 17.4627 14.4739 -1.86068 8.36594 41.0039
1264129 4.56522 4.5022 17.4627 14.4739 -1.86068 8.36594 41.0039
1264138 4.35652 4.40879 17.3544 14.5581 -1.68645 8.53555 40.6777
1264148 4.35652 4.40879 17.3544 14.5581 -1.68645 8.53555 40.6777
1264162 4.11304 4.22198 17.5512 14.8107 -1.61661 8.85579 40.6969
1264168 3.94783 4.21264 17.7678 15.1662 -1.42159 9.04266 41.0945
1264178 3.94783 4.21264 17.7678 15.1662 -1.42159 9.04266 41.0945
1264189 3.96522 4.18462 17.9056 15.4562 -1.34298 9.11021 41.5117
1264199 3.8 4.14725 17.817 15.4843 -1.20335 9.21998 41.2486
1264215 3.8 4.14725 17.817 15.4843 -1.20335 9.21998 41.2486
1264219 3.8087 4.13791 17.8466 15.6527 -1.12473 9.24796 41.4459
1264229 3.8087 4.13791 17.8466 15.6527 -1.12473 9.24796 41.4459
1264240 3.77391 4.11923 17.817 15.5779 -1.14672 9.26482 41.288
1264249 3.75652 4.15659 17.9056 15.5592 -1.17598 9.26279 41.3779
1264266 3.75652 4.15659 17.9056 15.5592 -1.17598 9.26279 41.3779
1264269 3.83478 4.16593 17.8662 15.6247 -1.1511 9.21518 41.4916
1264279 3.81739 4.21264 17.9155 15.5872 -1.16353 9.19973 41.5327
1264292 3.81739 4.21264 17.9155 15.5872 -1.16353 9.19973 41.5327
1264300 3.89565 4.30604 17.9844 15.7463 -1.08966 9.1322 41.9323
1264319 3.89565 4.30604 17.9844 15.7463 -1.08966 9.1322 41.9323
1264321 3.86957 4.38077 17.945 15.7369 -1.01167 9.09738 41.9323
1264330 3.87826 4.30604 17.7973 15.7837 -0.949258 9.12123 41.7654
1264345 3.87826 4.30604 17.7973 15.7837 -0.949258 9.12123 41.7654
1264350 3.82609 4.34341 17.6398 15.8398 -0.769927 9.11549 41.6492
1264360 3.8 4.37143 17.6202 15.9334 -0.668253 9.12479 41.725
1264380 3.84348 4.43681 17.6005 16.1112 -0.533411 9.08437 41.9919
1264397 3.84348 4.43681 17.6005 16.1112 -0.533411 9.08437 41.9919
1264400 3.8087 4.43681 17.4725 16.1205 -0.432526 9.08762 41.8385
1264411 3.88696 4.46484 17.3741 16.158 -0.380953 9.01789 41.8838
1264422 3.88696 4.46484 17.3741 16.158 -0.380953 9.01789 41.8838
1264432 3.86087 4.58626 17.1673 15.9708 -0.283222 8.90617 41.5853
1264449 3.89565 4.63297 17.0689 16.186 -0.0870973 8.87657 41.7835
1264451 3.89565 4.63297 17.0689 16.186 -0.0870973 8.87657 41.7835
1264462 3.9913 4.74505 16.9268 16.1954 0.0133544 8.73865 41.8585
1264473 3.9913 4.74505 16.9268 16.1954 0.0133544 8.73865 41.8585
1264482 3.95652 4.78242 16.6025 16.1673 0.235337 8.68402 41.5087
1264492 3.93043 4.89451 16.3409 16.0831 0.428042 8.5817 41.249
1264501 3.93043 4.89451 16.3409 16.0831 0.428042 8.5817 41.249
1264511 4.12174 5.15604 15.9748 15.8305 0.541601 8.2251 41.083
1264529 4.28696 5.6511 15.4726 15.213 0.679725 7.66089 40.6237
1264531 4.28696 5.6511 15.4726 15.213 0.679725 7.66089 40.6237
1264543 4.69565 6.35165 15.0646 14.6329 0.751194 6.86598 40.7448
1264554 4.69565 6.35165 15.0646 14.6329 0.751194 6.86598 40.7448
1264563 5.27826 7.16429 14.4997 13.8283 0.74479 5.84445 40.7705
1264578 5.94783 8.13571 13.6942 13.0985 0.973824 4.66376 40.8762
1264593 6.96522 9.20989 12.7108 12.0413 0.962186 3.14349 40.9272
1264604 8.18261 10.3121 11.7797 10.9279 0.775254 1.53374 41.2023
1264613 8.18261 10.3121 11.7797 10.9279 0.775254 1.53374 41.2023
1264631 9.43478 11.4703 10.4092 9.58063 0.737828 -0.33571 40.895
1264633 9.43478 11.4703 10.4092 9.58063 0.737828 -0.33571 40.895
1264643 10.2435 12.2176 9.18523 8.3082 0.686455 -1.86498 39.9545
1264658 10.9652 12.8621 8.28554 7.26968 0.559264 -3.15067 39.3825
1264683 11.5826 13.3291 7.56369 6.56797 0.480744 -4.14157 39.0434
1264685 12.113 13.7681 7.08246 6.20308 0.495133 -4.82385 39.1667
1264694 12.113 13.7681 7.08246 6.20308 0.495133 -4.82385 39.1667
1264709 12.7565 14.478 6.51754 5.78206 0.623524 -5.6666 39.5341
1264715 13.1391 15.0011 5.984 5.23941 0.70965 -6.44636 39.3636
1264735 13.1391 15.0011 5.984 5.23941 0.70965 -6.44636 39.3636
1264737 13.4522 15.3187 5.47138 4.84645 0.794074 -7.08121 39.0887
1264745 13.4522 15.3187 5.47138 4.84645 0.794074 -7.08121 39.0887
1264761 13.6174 15.5429 5.36677 4.58448 0.730717 -7.36701 39.1115
1264765 13.8957 15.8511 5.25169 4.48156 0.75058 -7.60391 39.48
1264775 13.8957 15.8511 5.25169 4.48156 0.75058 -7.60391 39.48
1264787 14.3913 16.1593 5.13662 4.22895 0.538862 -7.96108 39.9162
1264795 14.7391 16.3462 4.93785 4.14474 0.506577 -8.21653 40.1679
1264813 14.7391 16.3462 4.93785 4.14474 0.506577 -8.21653 40.1679
1264815 14.7913 16.4489 4.77046 3.84535 0.459459 -8.5148 39.856
1264838 14.8435 16.4769 4.78092 3.59274 0.280431 -8.67135 39.6941
1264847 15.2174 16.7291 4.49846 3.36819 0.239527 -9.07232 39.8132
1264867 15.513 16.972 4.24738 3.05008 0.164416 -9.49697 39.7825
1264877 15.6435 17.0778 3.97538 2.90039 0.226861 -9.7907 39.5971
1264897 15.7478 17.2529 3.82892 2.73198 0.257882 -10.0248 39.5616
1264913 15.7478 17.2529 3.82892 2.73198 0.257882 -10.0248 39.5616
1264917 15.7304 17.214 3.74523 2.64777 0.245357 -10.1245 39.3374
1264927 15.8696 17.1459 3.82892 2.69455 0.0897527 -10.0503 39.5389
1264938 15.8696 17.1459 3.82892 2.69455 0.0897527 -10.0503 39.5389
1264947 16.0348 17.1653 3.95446 2.77876 -0.028266 -9.94166 39.9333
1264963 16.0348 17.1653 3.95446 2.77876 -0.028266 -9.94166 39.9333
1264967 16.113 17.1167 4.05908 2.77876 -0.17262 -9.88028 40.0676
1264976 16.1391 17.1264 4.10092 2.82554 -0.179191 -9.82997 40.192
1264997 16.2087 17.282 4.08 2.77876 -0.141206 -9.90049 40.3495
1265015 16.2783 17.2042 3.92308 2.70391 -0.182748 -10.0433 40.1095
1265017 16.2783 17.2042 3.92308 2.70391 -0.182748 -10.0433 40.1095
1265026 16.2348 17.1945 3.58831 2.55421 -0.0469849 -10.3433 39.5718
1265043 16.2348 17.1945 3.58831 2.55421 -0.0469849 -10.3433 39.5718
1265047 16.2348 17.1945 3.33723 2.25482 -0.0786036 -10.7008 39.0213
1265057 16.2435 17.2237 2.98154 1.99285 -0.0055179 -11.118 38.4415
1265077 16.2522 17.0292 2.70954 1.80572 -0.0838771 -11.4161 37.7966
1265094 16.1478 16.8879 2.57354 1.62796 -0.137959 -11.6151 37.2372
1265122 16.2087 16.9346 2.40615 1.52504 -0.104646 -11.819 37.0745
1265128 16.1217 16.8225 2.30154 1.42212 -0.121784 -11.9535 36.6679
1265138 16.2 16.9626 2.10277 1.27243 -0.0463247 -12.2287 36.5378
1265153 16.2 16.9626 2.10277 1.27243 -0.0463247 -12.2287 36.5378
1265162 16.4174 17.107 1.88308 1.16015 -0.0227854 -12.5033 36.5676
1265174 16.5217 17.1653 1.80985 1.01046 -0.106691 -12.6824 36.5074
1265178 16.5217 17.1653 1.80985 1.01046 -0.106691 -12.6824 36.5074
1265190 16.5739 17.0681 1.71569 0.935608 -0.19695 -12.8084 36.2933
1265201 16.5391 17.0681 1.68431 0.916896 -0.164647 -12.8448 36.2084
1265210 16.5391 17.0681 1.68431 0.916896 -0.164647 -12.8448 36.2084
1265225 16.5391 17.0875 1.56923 0.982389 -0.0265628 -12.8841 36.1783
1265229 16.5391 17.0875 1.56923 0.982389 -0.0265628 -12.8841 36.1783
1265240 16.687 17.2626 1.69477 1.01981 -0.0677273 -12.7788 36.6641
1265252 17.0498 17.4474 1.83077 1.16951 -0.175822 -12.5996 37.4975
1265260 17.0498 17.4474 1.83077 1.16951 -0.175822 -12.5996 37.4975
1265277 17.2292 17.5154 1.91446 1.24436 -0.253177 -12.4998 37.9035
1265280 17.2691 17.6808 1.98769 1.235 -0.223306 -12.4673 38.1725
1265290 17.2691 17.6808 1.98769 1.235 -0.223306 -12.4673 38.1725
1265303 17.289 17.8267 2.08185 1.26307 -0.182718 -12.3909 38.4606
1265313 17.289 17.8267 2.08185 1.26307 -0.182718 -12.3909 38.4606
1265328 17.2093 17.8947 2.06092 1.26307 -0.0731066 -12.405 38.428
1265330 17.3687 18.099 2.19692 1.41277 -0.0344723 -12.2288 39.0774
1265340 17.3687 18.099 2.19692 1.41277 -0.0344723 -12.2288 39.0774
1265354 17.9168 18.4394 2.312 1.45019 -0.211382 -12.1867 40.1183
1265362 18.0762 18.5463 2.48985 1.6186 -0.246193 -11.974 40.731
1265380 18.0762 18.5463 2.48985 1.6186 -0.246193 -11.974 40.731
1265384 18.1061 18.5658 2.57354 1.68409 -0.262493 -11.8793 40.9295
1265392 18.1061 18.5658 2.57354 1.68409 -0.262493 -11.8793 40.9295
1265408 17.8271 18.274 2.60492 1.69345 -0.287458 -11.8081 40.3995
1265412 17.4982 17.9239 2.67815 1.81508 -0.273955 -11.6229 39.9154
1265423 17.4982 17.9239 2.67815 1.81508 -0.273955 -11.6229 39.9154
1265432 17.0996 17.5252 2.69908 1.82444 -0.286804 -11.5336 39.1483
1265442 16.8783 17.2431 2.88738 2.02091 -0.321293 -11.2273 39.0297
1265463 16.8087 17.0584 3.07569 2.17997 -0.412846 -10.9699 39.1227
1265483 16.6 16.7385 3.25354 2.3016 -0.522891 -10.7151 38.8936
1265493 16.3739 16.3929 3.43138 2.51679 -0.578363 -10.3908 38.7149
1265509 16.3739 16.3929 3.43138 2.51679 -0.578363 -10.3908 38.7149
1265513 16.0435 15.9632 3.60923 2.59163 -0.71837 -10.1312 38.2075
1265523 15.713 15.5615 3.88123 2.86296 -0.769207 -9.67827 38.0188
1265536 15.713 15.5615 3.88123 2.86296 -0.769207 -9.67827 38.0188
1265543 15.8435 15.4588 4.33108 3.17171 -0.994749 -9.19963 38.8051
1265553 15.8435 15.4588 4.33108 3.17171 -0.994749 -9.19963 38.8051
1265563 16.2783 15.8044 4.896 3.59274 -1.09506 -8.72311 40.5714
1265573 16.8174 16.2154 5.44 4.05118 -1.17041 -8.30412 42.524
1265594 16.9739 16.4115 5.73292 4.25702 -1.17479 -8.09059 43.3754
1265612 16.6522 16.0286 5.79569 4.20088 -1.29953 -7.97291 42.6773
1265614 16.6522 16.0286 5.79569 4.20088 -1.29953 -7.97291 42.6773
1265624 16.0261 15.4868 5.68062 4.21959 -1.20753 -7.82821 41.4131
1265644 15.1478 14.6462 5.56554 4.29444 -1.11765 -7.54048 39.654
1265654 14.5739 14.0951 5.712 4.37865 -1.16888 -7.18983 38.7596
1265666 14.5739 14.0951 5.712 4.37865 -1.16888 -7.18983 38.7596
1265674 13.8696 13.5346 5.87938 4.71547 -0.986125 -6.63543 37.999
1265692 13.2435 12.8434 6.45477 5.39846 -0.959659 -5.62742 37.9401
1265694 13.2435 12.8434 6.45477 5.39846 -0.959659 -5.62742 37.9401
1265704 12.6261 12.2549 7.32308 6.36214 -0.863504 -4.35452 38.5662
1265718 12.6261 12.2549 7.32308 6.36214 -0.863504 -4.35452 38.5662
1265724 11.8696 11.4797 8.75631 7.66263 -0.932638 -2.61401 39.7682
1265744 10.8348 10.639 10.7126 9.28123 -0.980979 -0.535339 41.4676
1265745 10.8348 10.639 10.7126 9.28123 -0.980979 -0.535339 41.4676
1265754 10.3652 10.2187 12.4492 10.8718 -0.981669 0.935124 43.9049
1265771 9.75652 9.71429 13.3175 11.6109 -0.984743 1.84383 44.3992
1265775 9.75652 9.71429 13.3175 11.6109 -0.984743 1.84383 44.3992
1265796 8.86957 8.8456 13.7674 11.9103 -1.08373 2.75247 43.3928
1265799 8.86957 8.8456 13.7674 11.9103 -1.08373 2.75247 43.3928
1265808 7.95652 7.79011 14.2382 12.2658 -1.26551 3.81912 42.2506
1265822 7.2 7.08956 14.7717 12.6494 -1.33821 4.72237 41.7107
1265825 7.2 7.08956 14.7717 12.6494 -1.33821 4.72237 41.7107
1265835 6.46957 6.51978 15.3262 13.0985 -1.31443 5.59062 41.414
1265849 5.86087 5.91264 15.9538 13.5382 -1.43208 6.44069 41.2656
1265855 5.86087 5.91264 15.9538 13.5382 -1.43208 6.44069 41.2656
1265865 5.32174 5.40824 16.5711 14.0341 -1.48206 7.21246 41.3352
1265876 5.32174 5.40824 16.5711 14.0341 -1.48206 7.21246 41.3352
1265887 4.85217 5.07198 17.0984 14.4832 -1.44282 7.82692 41.5058
1265900 4.55652 4.85714 17.3347 14.8013 -1.34342 8.20308 41.5497
1265905 4.55652 4.85714 17.3347 14.8013 -1.34342 8.20308 41.5497
1265916 4.33913 4.65165 17.5119 14.8481 -1.42153 8.47718 41.3507
1265927 4.26087 4.53956 17.758 14.9978 -1.49284 8.64684 41.5562
1265955 4.2087 4.51154 17.7481 15.0352 -1.45171 8.69676 41.5036
1265957 4.2087 4.51154 17.7481 15.0352 -1.45171 8.69676 41.5036
1265967 4.04348 4.42747 17.5119 14.792 -1.4322 8.76751 40.7748
1265982 3.96522 4.37143 17.3839 14.7545 -1.37316 8.82091 40.4751
1265987 3.96522 4.37143 17.3839 14.7545 -1.37316 8.82091 40.4751
1265996 3.92174 4.32473 17.2658 14.6142 -1.40094 8.83464 40.1264
1266008 4.0087 4.36209 17.5414 14.6236 -1.5816 8.80489 40.5357
1266034 4.13913 4.38077 17.8269 14.6797 -1.77053 8.76995 41.0265
1266037 4.13913 4.38077 17.8269 14.6797 -1.77053 8.76995 41.0265
1266047 4.21739 4.45549 17.945 14.5581 -1.91181 8.6811 41.1759
1266059 4.42609 4.5489 18.2009 14.5955 -2.08434 8.55421 41.7714
1266087 4.46087 4.64231 18.5947 14.6703 -2.20856 8.55424 42.3682
1266088 4.55652 4.62363 18.7915 14.6236 -2.40689 8.53438 42.5952
1266098 4.55652 4.62363 18.7915 14.6236 -2.40689 8.53438 42.5952
1266114 4.50435 4.55824 18.762 14.4551 -2.51478 8.56955 42.2798
1266128 4.45217 4.40879 18.949 14.3335 -2.76372 8.6923 42.1435
1266141 4.3913 4.40879 18.949 14.1745 -2.83677 8.70276 41.9236
1266149 4.3913 4.40879 18.949 14.1745 -2.83677 8.70276 41.9236
1266169 4.36522 4.31538 18.9589 14.0061 -3.00312 8.7468 41.6455
1266170 4.27826 4.23132 19.0869 13.9406 -3.12567 8.85398 41.537
1266179 4.27826 4.23132 19.0869 13.9406 -3.12567 8.85398 41.537
1266197 4.26957 4.21264 19.205 13.9125 -3.21482 8.88298 41.5997
1266199 4.26957 4.21264 19.205 13.9125 -3.21482 8.88298 41.5997
1266209 4.32174 4.17527 19.4215 14.0341 -3.29769 8.92386 41.9527
1266224 4.43478 4.21264 19.52 14.0154 -3.39398 8.85004 42.1828
1266229 4.43478 4.21264 19.52 14.0154 -3.39398 8.85004 42.1828
1266239 4.38261 4.27802 19.4412 13.8564 -3.38995 8.80768 41.9582
1266251 4.41739 4.28736 19.1262 13.5944 -3.41691 8.69607 41.4254
1266262 4.41739 4.28736 19.1262 13.5944 -3.41691 8.69607 41.4254
1266277 4.49565 4.38077 19.1361 13.5757 -3.4116 8.59691 41.5882
1266279 4.49565 4.38077 19.1361 13.5757 -3.4116 8.59691 41.5882
1266289 4.6087 4.43681 19.1361 13.4634 -3.50856 8.48384 41.645
1266304 4.75652 4.64231 19.0869 13.3137 -3.52121 8.25433 41.7994
1266309 4.75652 4.64231 19.0869 13.3137 -3.52121 8.25433 41.7994
1266319 4.84348 4.7544 18.9589 13.0798 -3.58349 8.08453 41.6366
1266331 4.9913 4.81044 18.7817 12.8553 -3.68455 7.90392 41.4387
1266339 4.9913 4.81044 18.7817 12.8553 -3.68455 7.90392 41.4387
1266357 5.10435 4.94121 18.7915 12.6588 -3.79309 7.73743 41.4959
1266369 5.2 4.94121 18.703 12.5371 -3.88134 7.64798 41.3813
1266382 5.35652 5.03462 18.5651 12.3781 -3.93677 7.45824 41.3344
1266389 5.35652 5.03462 18.5651 12.3781 -3.93677 7.45824 41.3344
1266407 5.3913 5.1 18.3978 12.2939 -3.88219 7.35755 41.183
1266409 5.51304 5.18407 18.1714 12.1348 -3.88111 7.17349 41.0033
1266419 5.51304 5.18407 18.1714 12.1348 -3.88111 7.17349 41.0033
1266448 5.76522 5.30549 18.0139 12.1068 -3.86419 6.93712 41.1914
1266450 5.76522 5.30549 18.0139 12.1068 -3.86419 6.93712 41.1914
1266460 6 5.45495 17.817 12.0132 -3.84452 6.67623 41.2852
1266461 6.21739 5.61374 17.5217 11.8354 -3.81779 6.38265 41.1883
1266473 6.21739 5.61374 17.5217 11.8354 -3.81779 6.38265 41.1883
1266487 6.44348 5.94066 17.2166 11.6483 -3.67952 5.99314 41.249
1266491 6.67826 6.19286 16.8222 11.4799 -3.5385 5.62172 41.1732
1266513 7.0087 6.51978 16.3828 11.1618 -3.47544 5.11872 41.073
1266539 7.48696 7.22033 15.6505 10.7688 -3.12951 4.2717 41.1266
1266542 8.1913 7.95824 14.8449 10.2168 -2.94891 3.24385 41.2113
1266552 8.1913 7.95824 14.8449 10.2168 -2.94891 3.24385 41.2113
1266566 9.17391 9.15385 13.7046 9.29059 -2.68258 1.69426 41.323
1266572 10.1478 10.3308 12.2818 8.12108 -2.43253 -0.0277653 40.8815
1266592 10.1478 10.3308 12.2818 8.12108 -2.43253 -0.0277653 40.8815
1266594 11.1217 11.5077 10.6185 6.99835 -2.00898 -1.86823 40.2462
1266601 11.1217 11.5077 10.6185 6.99835 -2.00898 -1.86823 40.2462
1266619 11.9565 12.4604 8.976 5.88498 -1.64667 -3.64937 39.2779
1266623 12.8 13.3852 7.67877 5.06164 -1.30503 -5.18095 38.9256
1266633 12.8 13.3852 7.67877 5.06164 -1.30503 -5.18095 38.9256
1266644 13.4174 14.2912 6.77908 4.41607 -0.95697 -6.36704 38.9037
1266653 13.8174 14.8143 6.22462 4.11668 -0.712703 -7.03964 38.973
1266671 13.8174 14.8143 6.22462 4.11668 -0.712703 -7.03964 38.973
1266673 14.2435 15.4027 5.85846 3.79857 -0.572866 -7.62883 39.3033
1266683 14.2435 15.4027 5.85846 3.79857 -0.572866 -7.62883 39.3033
1266698 14.4522 15.6643 5.59692 3.6208 -0.485587 -7.96968 39.3342
1266703 14.4435 15.9445 5.35631 3.44304 -0.262998 -8.26363 39.1873
1266713 14.4435 15.9445 5.35631 3.44304 -0.262998 -8.26363 39.1873
1266725 14.4 16.0753 5.304 3.40561 -0.142345 -8.33191 39.1849
1266733 14.3565 16.3088 5.24123 3.48982 0.127462 -8.35138 39.3964
1266751 14.3565 16.3088 5.24123 3.48982 0.127462 -8.35138 39.3964
1266753 14.5043 16.5703 5.168 3.48982 0.244009 -8.46292 39.7325
1266763 14.5043 16.5703 5.168 3.48982 0.244009 -8.46292 39.7325
1266777 14.4261 16.7478 5.032 3.40561 0.438842 -8.60972 39.6115
1266783 14.4957 17.0292 5.10523 3.59274 0.634608 -8.51266 40.2228
1266804 14.4957 17.0292 5.10523 3.59274 0.634608 -8.51266 40.2228
1266806 14.5826 17.5252 4.80185 3.45239 0.986764 -8.86485 40.362
1266814 14.7217 17.9434 4.72862 3.44304 1.18524 -8.99684 40.8368
1266832 14.7217 17.9434 4.72862 3.44304 1.18524 -8.99684 40.8368
1266834 14.687 18.1865 4.64492 3.44304 1.40233 -9.07641 40.9614
1266846 14.687 18.1865 4.64492 3.44304 1.40233 -9.07641 40.9614
1266859 14.6522 18.4005 4.36246 3.33077 1.66679 -9.3357 40.7459
1266865 14.4957 18.5074 4.12185 3.16236 1.89408 -9.57581 40.2873
1266886 14.2435 18.3616 3.96492 3.04073 2.0158 -9.69412 39.6107
1266895 14.0609 18.3518 3.95446 3.04073 2.14248 -9.67478 39.4079
1266915 13.8522 18.3032 3.93354 3.09686 2.30591 -9.61764 39.1858
1266927 13.7304 18.3907 3.73477 3.05944 2.56002 -9.76232 38.9154
1266940 13.7304 18.3907 3.73477 3.05944 2.56002 -9.76232 38.9154
1266947 13.6609 18.488 3.59877 3.05944 2.76224 -9.85284 38.8071
1266957 13.6609 18.488 3.59877 3.05944 2.76224 -9.85284 38.8071
1266967 13.5826 18.595 3.4 2.9191 2.94276 -10.0756 38.4967
1266977 13.5043 18.7895 3.15938 2.79747 3.21772 -10.328 38.2507
1266993 13.5043 18.7895 3.15938 2.79747 3.21772 -10.328 38.2507
1266997 13.4261 18.877 3.06523 2.6197 3.29406 -10.5105 37.988
1267008 13.1826 18.877 2.79323 2.6197 3.68327 -10.6665 37.4725
1267020 13.1826 18.7895 2.79323 2.50743 3.569 -10.7336 37.2727
1267026 13.2174 18.9937 2.66769 2.45129 3.72348 -10.8862 37.3301
1267046 13.2174 18.9937 2.66769 2.45129 3.72348 -10.8862 37.3301
1267048 13.2174 19.3146 2.55262 2.3858 3.95675 -11.0462 37.4705
1267056 13.2609 19.5675 2.38523 2.24546 4.11573 -11.2914 37.4591
1267072 13.2609 19.5675 2.38523 2.24546 4.11573 -11.2914 37.4591
1267080 13.3304 19.8398 2.23877 2.10512 4.24889 -11.5262 37.5141
1267098 13.3304 19.8398 2.23877 2.10512 4.24889 -11.5262 37.5141
1267100 13.4435 19.9079 2.23877 2.10512 4.19865 -11.5429 37.6953
1267109 13.6696 20.1413 2.12369 1.96478 4.1642 -11.7637 37.8993
1267126 13.6696 20.1413 2.12369 1.96478 4.1642 -11.7637 37.8993
1267128 13.9826 20.5206 1.96677 1.88057 4.2058 -11.9904 38.3505
1267138 14.4609 21.0069 2.05046 1.86186 4.03592 -12.0196 39.3801
1267154 14.4609 21.0069 2.05046 1.86186 4.03592 -12.0196 39.3801
1267159 14.7478 21.3473 2.04 1.73088 3.94466 -12.1623 39.866
1267169 14.9217 21.3862 1.904 1.6186 3.87832 -12.3468 39.8305
1267189 14.713 21.143 1.83077 1.59053 3.93977 -12.3868 39.2774
1267199 14.713 21.143 1.83077 1.59053 3.93977 -12.3868 39.2774
1267210 14.5478 20.6957 1.85169 1.52504 3.76822 -12.377 38.6202
1267220 14.5913 20.647 1.92492 1.58118 3.68567 -12.2852 38.7444
1267240 14.6957 20.8804 2.02954 1.6186 3.68003 -12.2098 39.2242
1267249 14.7739 20.8318 2.11323 1.71216 3.58652 -12.0896 39.4311
1267265 14.7739 20.8318 2.11323 1.71216 3.58652 -12.0896 39.4311
1267270 14.6696 20.7637 2.28062 1.83379 3.56995 -11.8789 39.5477
1267280 14.6696 20.7637 2.28062 1.83379 3.56995 -11.8789 39.5477
1267296 14.4957 20.5206 2.30154 1.74959 3.50228 -11.8891 39.0674
1267300 14.2 20.1899 2.42708 1.83379 3.49064 -11.6928 38.6508
1267310 14.2 20.1899 2.42708 1.83379 3.49064 -11.6928 38.6508
1267322 14.0783 20.0246 2.51077 1.918 3.47349 -11.5518 38.5316
1267330 14.2261 20.0441 2.61538 1.93671 3.3095 -11.4824 38.8222
1267351 14.3304 20.083 2.87692 2.02091 3.11394 -11.2623 39.3112
1267362 14.3304 20.083 2.87692 2.02091 3.11394 -11.2623 39.3112
1267378 14.3391 20.0149 3.08615 2.10512 2.96793 -11.0618 39.5453
1267381 14.3043 19.7912 3.25354 2.22675 2.81741 -10.8457 39.5758
1267391 14.3043 19.7912 3.25354 2.22675 2.81741 -10.8457 39.5758
1267405 14.2174 19.5481 3.42092 2.32966 2.68208 -10.6342 39.516
1267411 14.2783 19.6161 3.70338 2.44194 2.54524 -10.3956 40.0397
1267431 14.4 19.6259 3.84985 2.67584 2.49797 -10.1723 40.5515
1267442 14.4 19.6259 3.84985 2.67584 2.49797 -10.1723 40.5515
1267458 14.4435 19.6453 4.03815 2.78811 2.41463 -9.9948 40.9151
1267462 14.3565 19.4119 4.25785 3.02201 2.32625 -9.67954 41.0483
1267472 14.3565 19.4119 4.25785 3.02201 2.32625 -9.67954 41.0483
1267486 14.0783 18.877 4.488 3.16236 2.13831 -9.34781 40.6056
1267491 13.6348 18.1184 4.60308 3.37755 2.04996 -8.97444 39.7338
1267502 13.6348 18.1184 4.60308 3.37755 2.04996 -8.97444 39.7338
1267513 13.0348 17.2237 4.83323 3.57402 1.89424 -8.47697 38.6657
1267523 13.0348 17.2237 4.83323 3.57402 1.89424 -8.47697 38.6657
1267540 12.8174 16.5797 5.40862 3.97633 1.50198 -7.74023 38.782
1267543 12.8 16.0753 6.09908 4.59384 1.11835 -6.89279 39.5682
1267553 12.8 16.0753 6.09908 4.59384 1.11835 -6.89279 39.5682
1267568 12.9913 15.8791 7.13477 5.24876 0.607097 -5.99466 41.254
1267573 12.9217 15.356 7.92985 6.01596 0.308132 -5.09146 42.2236
1267583 12.9217 15.356 7.92985 6.01596 0.308132 -5.09146 42.2236
1267596 12.5913 14.4407 8.568 6.75509 0.0215113 -4.14669 42.3551
1267603 12.5913 14.4407 8.568 6.75509 0.0215113 -4.14669 42.3551
1267613 11.8348 13.3478 9.32123 7.541 -0.158884 -2.96839 42.0448
1267623 10.913 12.1802 10.1268 8.38305 -0.286363 -1.65256 41.6031
1267633 10.913 12.1802 10.1268 8.38305 -0.286363 -1.65256 41.6031
1267649 9.90435 11.2181 10.8591 9.24381 -0.182827 -0.370983 41.2254
1267653 8.90435 10.2093 11.6437 10.0859 -0.154766 0.960694 40.8432
1267663 8.90435 10.2093 11.6437 10.0859 -0.154766 0.960694 40.8432
1267679 7.98261 9.48077 12.4702 10.8718 -0.0614062 2.16095 40.8053
1267683 7.98261 9.48077 12.4702 10.8718 -0.0614062 2.16095 40.8053
1267693 7.29565 8.88297 13.0351 11.5922 0.0884801 3.10567 40.8059
1267707 7.01739 8.5 13.3385 11.9009 0.0276536 3.57806 40.7568
1267713 7.01739 8.5 13.3385 11.9009 0.0276536 3.57806 40.7568
1267734 6.83478 8.38791 13.4431 12.0506 0.0986606 3.78386 40.7164
1267735 6.81739 8.41593 13.5582 12.1629 0.124097 3.84125 40.9544
1267744 6.81739 8.41593 13.5582 12.1629 0.124097 3.84125 40.9544
1267762 6.75652 8.36923 13.9557 12.2845 -0.0353247 4.03029 41.366
1267764 6.75652 8.36923 13.9557 12.2845 -0.0353247 4.03029 41.366
1267774 6.49565 8.08901 14.5834 12.6962 -0.175461 4.5486 41.8643
1267791 6.08696 7.50055 15.2215 13.2669 -0.321454 5.31216 42.076
1267804 5.68696 7.02418 15.6191 13.6037 -0.404276 5.90632 41.934
1267820 5.32174 6.57582 15.8702 13.7254 -0.536653 6.39792 41.4931
1267825 5.32174 6.57582 15.8702 13.7254 -0.536653 6.39792 41.4931
1267837 5.0087 6.12747 16.184 13.9686 -0.663976 6.90858 41.2888
1267847 5.0087 6.12747 16.184 13.9686 -0.663976 6.90858 41.2888
1267855 4.70435 5.79121 16.5502 14.2119 -0.758289 7.36827 41.2576
1267874 4.50435 5.52033 16.9791 14.661 -0.781307 7.7819 41.6647
1267876 4.50435 5.52033 16.9791 14.661 -0.781307 7.7819 41.6647
1267885 4.37391 5.22143 17.3248 14.82 -0.992623 8.10353 41.7402
1267901 4.26087 5.01593 17.5119 14.8294 -1.1578 8.3129 41.6181
1267906 4.26087 5.01593 17.5119 14.8294 -1.1578 8.3129 41.6181
1267915 4.16522 4.83846 17.5512 14.8855 -1.20201 8.48196 41.4404
1267928 4.16522 4.83846 17.5512 14.8855 -1.20201 8.48196 41.4404
1267937 4.01739 4.65165 17.6497 14.8481 -1.31618 8.68251 41.1668
1267955 3.96522 4.55824 17.7875 14.8575 -1.41918 8.78884 41.1684
1267957 3.96522 4.55824 17.7875 14.8575 -1.41918 8.78884 41.1684
1267967 3.93913 4.5956 17.8662 14.82 -1.44934 8.78856 41.221
1267983 4.0087 4.60495 18.0434 14.9884 -1.47599 8.79503 41.6455
1267988 4.0087 4.60495 18.0434 14.9884 -1.47599 8.79503 41.6455
1267997 4.08696 4.57692 18.2305 15.0539 -1.60111 8.80388 41.9483
1268016 4.14783 4.58626 18.2797 15.082 -1.63867 8.77556 42.0958
1268027 4.07826 4.55824 18.2206 14.9417 -1.67407 8.80137 41.7988
1268047 4.12174 4.52088 18.0828 14.8575 -1.69914 8.76477 41.5829
1268065 4.13043 4.45549 18.1025 14.9323 -1.70896 8.81131 41.6207
1268067 4.13043 4.45549 18.1025 14.9323 -1.70896 8.81131 41.6207
1268076 4.05217 4.52088 18.0631 14.9978 -1.55919 8.82255 41.634
1268097 4.03478 4.42747 17.9056 15.0259 -1.50208 8.867 41.3937
1268107 4.02609 4.47418 18.0041 15.0633 -1.49917 8.86522 41.5676
1268120 4.02609 4.47418 18.0041 15.0633 -1.49917 8.86522 41.5676
1268128 4.05217 4.53022 17.9844 15.1007 -1.44333 8.8208 41.6675
1268148 4.02609 4.53022 18.0926 15.3814 -1.31281 8.89277 42.0303
1268149 4.02609 4.53022 18.0926 15.3814 -1.31281 8.89277 42.0303
1268158 4.08696 4.5489 18.1222 15.4469 -1.31107 8.86148 42.2049
1268176 4.08696 4.5489 18.1222 15.4469 -1.31107 8.86148 42.2049
1268178 4 4.55824 17.9942 15.475 -1.16651 8.89096 42.0274
1268188 4.0087 4.5489 17.9056 15.3814 -1.18535 8.86473 41.8446
1268208 3.97391 4.51154 17.7678 15.3533 -1.12774 8.88165 41.6066
1268218 3.95652 4.53022 17.7481 15.3814 -1.07712 8.88215 41.6163
1268231 3.95652 4.53022 17.7481 15.3814 -1.07712 8.88215 41.6163
1268239 3.97391 4.51154 17.8269 15.4469 -1.10296 8.90401 41.7592
1268258 3.97391 4.51154 17.8269 15.4469 -1.10296 8.90401 41.7592
1268261 3.95652 4.53956 17.7383 15.3908 -1.05975 8.87671 41.6251
1268269 3.91304 4.49286 17.758 15.3346 -1.1106 8.92322 41.4985
1268285 3.91304 4.49286 17.758 15.3346 -1.1106 8.92322 41.4985
1268289 3.97391 4.57692 17.8072 15.4656 -1.03923 8.8665 41.8236
1268299 3.98261 4.52088 17.8466 15.4375 -1.1192 8.8952 41.7876
1268313 3.98261 4.52088 17.8466 15.4375 -1.1192 8.8952 41.7876
1268319 3.98261 4.5022 17.8072 15.4001 -1.1318 8.89467 41.6921
1268329 3.98261 4.5022 17.8072 15.4001 -1.1318 8.89467 41.6921
1268340 3.93913 4.49286 17.8269 15.3814 -1.13577 8.92512 41.6403
1268358 3.93043 4.48352 17.6497 15.2972 -1.08763 8.89716 41.3608
1268369 3.93043 4.48352 17.6497 15.2972 -1.08763 8.89716 41.3608
1268376 3.93043 4.47418 17.6891 15.2223 -1.16357 8.89732 41.316
1268380 3.95652 4.48352 17.6792 15.2411 -1.15519 8.87816 41.3603
1268396 3.95652 4.48352 17.6792 15.2411 -1.15519 8.87816 41.3603
1268400 3.93913 4.52088 17.6792 15.2411 -1.12155 8.86664 41.3803
1268424 3.97391 4.53956 17.7383 15.1943 -1.19333 8.83767 41.446
1268430 4.06087 4.57692 17.6103 15.0352 -1.24689 8.72304 41.2833
1268440 4.06087 4.57692 17.6103 15.0352 -1.24689 8.72304 41.2833
1268451 4.09565 4.69835 17.4134 14.7733 -1.24295 8.56233 40.9807
1268463 4.2087 4.93187 17.2559 14.399 -1.30759 8.27826 40.7955
1268479 4.2087 4.93187 17.2559 14.399 -1.30759 8.27826 40.7955
1268481 4.55652 5.41758 16.9791 14.1183 -1.2172 7.71458 41.0715
1268508 4.92174 5.95 16.6234 13.7441 -1.12213 7.09121 41.2392
1268512 5.63478 6.61319 16.1317 13.2576 -1.13824 6.17523 41.6372
1268522 5.63478 6.61319 16.1317 13.2576 -1.13824 6.17523 41.6372
1268535 6.52174 7.40714 15.1902 12.3968 -1.14892 4.93477 41.5158
1268542 7.41739 8.50934 13.9871 11.3957 -0.907429 3.43361 41.3095
1268552 7.41739 8.50934 13.9871 11.3957 -0.907429 3.43361 41.3095
1268563 8.47826 9.77967 12.6689 10.0765 -0.787137 1.64163 41.0034
1268573 8.47826 9.77967 12.6689 10.0765 -0.787137 1.64163 41.0034
1268591 9.27826 10.7511 11.2985 8.80407 -0.63637 0.0273514 40.1319
1268593 9.93913 11.6104 10.1477 7.84975 -0.396129 -1.3473 39.547
1268602 9.93913 11.6104 10.1477 7.84975 -0.396129 -1.3473 39.547
1268618 10.7391 12.5445 9.02831 6.94221 -0.178784 -2.79452 39.2542
1268622 11.4 13.3945 8.024 6.19373 0.105244 -4.06672 39.0122
1268632 11.4 13.3945 8.024 6.19373 0.105244 -4.06672 39.0122
1268647 12.0783 14.1885 7.16615 5.61365 0.357074 -5.1811 39.0465
1268663 12.8174 15.4681 6.37108 4.9213 0.758606 -6.44039 39.5779
1268675 13.4435 16.5516 5.56554 4.3038 1.15794 -7.57283 39.8645
1268683 13.4435 16.5516 5.56554 4.3038 1.15794 -7.57283 39.8645
1268704 14.1478 17.5835 4.82277 3.60209 1.379 -8.70594 40.1562
1268705 14.8348 18.6533 4.11138 3.03137 1.685 -9.72611 40.6309
1268713 14.8348 18.6533 4.11138 3.03137 1.685 -9.72611 40.6309
1268732 15.4174 19.4216 3.4 2.58228 1.9515 -10.6036 40.8213
1268743 15.6522 19.9662 2.76185 2.1519 2.28468 -11.3631 40.5322
1268758 15.7826 20.3844 2.41662 1.92735 2.53793 -11.7831 40.511
1268763 15.7826 20.3844 2.41662 1.92735 2.53793 -11.7831 40.511
1268774 15.7565 20.5789 2.16554 1.67474 2.69542 -12.1324 40.1757
1268785 15.8348 20.861 1.77846 1.41277 2.92107 -12.5998 39.887
1268794 15.8348 20.861 1.77846 1.41277 2.92107 -12.5998 39.887
1268814 15.9304 20.9971 1.42277 1.05724 2.9824 -13.112 39.4076
1268816 15.9304 20.9971 1.42277 1.05724 2.9824 -13.112 39.4076
1268824 15.8783 21.0555 1.18215 0.823335 3.09355 -13.4549 38.9392
1268844 15.8087 21.0652 0.910154 0.598789 3.22094 -13.8206 38.3829
1268846 15.8087 21.0652 0.910154 0.598789 3.22094 -13.8206 38.3829
1268854 15.6696 20.9388 0.805538 0.533297 3.29206 -13.9416 37.9472
1268873 15.4696 20.8707 0.732308 0.561365 3.47439 -13.9687 37.6339
1268885 15.3913 20.7637 0.742769 0.533297 3.4483 -13.9773 37.4311
1268901 15.3913 20.7637 0.742769 0.533297 3.4483 -13.9773 37.4311
1268905 15.2957 20.6762 0.700923 0.542653 3.50814 -13.9975 37.2154
1268915 15.4522 20.8999 0.795077 0.514584 3.43002 -13.9568 37.6617
1268929 15.4522 20.8999 0.795077 0.514584 3.43002 -13.9568 37.6617
1268935 15.5739 21.0555 0.774154 0.495872 3.4323 -13.9947 37.8994
1268945 15.8783 21.2889 0.774154 0.449092 3.31175 -14.0441 38.3904
1268958 15.8783 21.2889 0.774154 0.449092 3.31175 -14.0441 38.3904
1268965 16.1826 21.464 0.763692 0.439736 3.19009 -14.0707 38.85
1268985 16.1826 21.464 0.763692 0.439736 3.19009 -14.0707 38.85
1268993 16.3304 21.5515 0.721846 0.364887 3.12052 -14.1634 38.9687
1269014 16.3478 21.4348 0.700923 0.439736 3.09954 -14.1208 38.9233
1269015 16.3478 21.4348 0.700923 0.439736 3.09954 -14.1208 38.9233
1269017 16.3043 21.2014 0.763692 0.505228 2.99072 -14.0182 38.7746
1269027 16.1739 21.143 0.732308 0.439736 3.03758 -14.0865 38.489
1269042 16.1739 21.143 0.732308 0.439736 3.03758 -14.0865 38.489
1269047 16.3826 21.1819 0.763692 0.467804 2.90199 -14.0477 38.796
1269056 16.4348 21.1625 0.763692 0.449092 2.84275 -14.0625 38.81
1269069 16.4348 21.1625 0.763692 0.449092 2.84275 -14.0625 38.81
1269076 16.3652 20.9971 0.763692 0.43038 2.78722 -14.0709 38.5564
1269087 16.3652 20.9971 0.763692 0.43038 2.78722 -14.0709 38.5564
1269098 16.2522 20.6081 0.617231 0.355531 2.70547 -14.2286 37.8331
1269108 16.2435 20.365 0.596308 0.318107 2.56065 -14.2689 37.5229
1269127 16.2435 20.365 0.596308 0.318107 2.56065 -14.2689 37.5229
1269129 16.3739 20.2677 0.68 0.383599 2.38523 -14.1538 37.7052
1269138 16.3739 20.2677 0.68 0.383599 2.38523 -14.1538 37.7052
1269156 16.3391 20.1121 0.753231 0.411668 2.28056 -14.071 37.6162
1269158 16.4435 20.0343 0.889231 0.552009 2.14511 -13.8597 37.919
1269185 16.6348 20.0149 0.899692 0.514584 1.96707 -13.8853 38.0639
1269188 16.8261 19.976 1.03569 0.617501 1.77589 -13.7103 38.4553
1269198 16.8261 19.976 1.03569 0.617501 1.77589 -13.7103 38.4553
1269214 16.887 19.6648 0.983385 0.552009 1.54017 -13.7906 38.0871
1269218 16.887 19.6648 0.983385 0.552009 1.54017 -13.7906 38.0871
1269228 16.8087 19.373 1.00431 0.486516 1.35809 -13.8128 37.6725
1269243 16.7826 19.3341 1.01477 0.533297 1.37397 -13.767 37.6648
1269259 16.8087 19.2368 1.12985 0.570721 1.23789 -13.6484 37.7461
1269271 16.887 19.266 1.18215 0.654926 1.21863 -13.5493 37.9901
1269279 16.887 19.266 1.18215 0.654926 1.21863 -13.5493 37.9901
1269298 17.0498 19.2077 1.28677 0.757843 1.0632 -13.3986 38.3021
1269300 17.0498 19.2077 1.28677 0.757843 1.0632 -13.3986 38.3021
1269309 17.2093 19.1299 1.41231 0.729774 0.804332 -13.33 38.4812
1269325 17.2989 19.0618 1.45415 0.870116 0.761792 -13.1975 38.685
1269329 17.2989 19.0618 1.45415 0.870116 0.761792 -13.1975 38.685
1269339 17.1694 18.8186 1.59015 0.90754 0.627917 -13.053 38.4857
1269355 17.1893 18.5172 1.64246 1.03852 0.47144 -12.9048 38.3875
1269359 17.1893 18.5172 1.64246 1.03852 0.47144 -12.9048 38.3875
1269369 17.568 18.8186 1.82031 1.14144 0.363287 -12.7419 39.3484
1269383 17.568 18.8186 1.82031 1.14144 0.363287 -12.7419 39.3484
1269389 17.9467 19.0034 2.05046 1.29114 0.184563 -12.5119 40.2917
1269399 18.1161 19.0132 2.23877 1.45955 0.0721782 -12.2825 40.8275
1269411 18.1161 19.0132 2.23877 1.45955 0.0721782 -12.2825 40.8275
1269419 17.9168 18.7992 2.34338 1.59053 0.0796944 -12.0967 40.6499
1269439 17.5281 18.3324 2.55262 1.67474 -0.0459209 -11.8364 40.0879
1269440 17.5281 18.3324 2.55262 1.67474 -0.0459209 -11.8364 40.0879
1269449 17.1495 17.9823 2.61538 1.88057 0.061816 -11.5964 39.6277
1269467 17.1495 17.9823 2.61538 1.88057 0.061816 -11.5964 39.6277
1269469 16.9391 17.7975 2.80369 2.02091 0.0477582 -11.3414 39.5612
1269479 16.713 17.5835 3.02338 2.2361 0.0525832 -11.0111 39.5561
1269495 16.713 17.5835 3.02338 2.2361 0.0525832 -11.0111 39.5561
1269499 16.2435 17.1167 3.23262 2.3858 0.0169396 -10.6758 38.9786
1269510 15.7739 16.8038 3.55692 2.69455 0.107884 -10.17 38.8292
1269523 15.7739 16.8038 3.55692 2.69455 0.107884 -10.17 38.8292
1269530 15.6087 16.6357 3.90215 3.02201 0.0937492 -9.69664 39.1686
1269551 15.6087 16.6357 3.90215 3.02201 0.0937492 -9.69664 39.1686
1269552 15.5739 16.533 4.25785 3.32141 0.0142485 -9.2706 39.6861
1269560 15.3652 16.2994 4.77046 3.78921 -0.0292182 -8.61605 40.2243
1269579 15.3652 16.2994 4.77046 3.78921 -0.0292182 -8.61605 40.2243
1269580 15 15.7764 5.27262 4.40671 -0.0553235 -7.82228 40.4557
1269590 14.5478 15.3467 5.87938 5.21134 0.0798017 -6.88192 40.9853
1269610 14.113 15.0571 6.55938 5.99725 0.228846 -5.97226 41.7268
1269620 14.113 15.0571 6.55938 5.99725 0.228846 -5.97226 41.7268
1269638 13.713 14.7209 6.96738 6.57733 0.367913 -5.32028 41.9786
1269649 13.1565 14.2632 7.37538 7.04513 0.463912 -4.6603 41.8402
1269651 13.1565 14.2632 7.37538 7.04513 0.463912 -4.6603 41.8402
1269667 12.2522 13.2264 7.72062 7.541 0.487593 -3.76174 40.7402
1269670 12.2522 13.2264 7.72062 7.541 0.487593 -3.76174 40.7402
1269680 11.0696 12.1522 8.36923 8.28013 0.622967 -2.47262 39.8711
1269697 9.89565 10.9473 9.64554 9.52449 0.581411 -0.627126 40.0129
1269700 9.89565 10.9473 9.64554 9.52449 0.581411 -0.627126 40.0129
1269710 8.72174 9.72363 11.5495 11.3583 0.490066 1.61866 41.3532
1269726 7.8 8.77088 13.4431 13.1827 0.411212 3.49156 43.1967
1269730 7.8 8.77088 13.4431 13.1827 0.411212 3.49156 43.1967
1269740 6.91304 7.84615 14.7822 14.3616 0.29186 4.91466 43.9029
1269755 6.91304 7.84615 14.7822 14.3616 0.29186 4.91466 43.9029
1269760 5.90435 6.94011 15.3366 14.8387 0.312585 6.04288 43.0198
1269770 5.22609 6.27692 15.5877 15.1194 0.345042 6.82447 42.2101
1269784 5.22609 6.27692 15.5877 15.1194 0.345042 6.82447 42.2101
1269792 4.86087 5.80989 15.5982 15.0259 0.228074 7.24786 41.2948
1269812 4.73913 5.52033 15.5982 15.0726 0.156176 7.48029 40.9303
1269813 4.73913 5.52033 15.5982 15.0726 0.156176 7.48029 40.9303
1269823 4.68696 5.40824 15.4935 14.8949 0.0757277 7.51905 40.4836
1269840 4.77391 5.40824 15.4203 14.8013 0.00949204 7.4397 40.4038
1269842 4.77391 5.28681 15.4203 14.8013 -0.0658393 7.50735 40.2824
1269852 5.03478 5.30549 15.3052 14.53 -0.31395 7.27867 40.1755
1269872 5.33043 5.46429 15.3262 14.3429 -0.524807 6.99675 40.4637
1269883 5.45217 5.55769 15.8911 14.8013 -0.590038 7.07966 41.7023
1269896 5.45217 5.55769 15.8911 14.8013 -0.590038 7.07966 41.7023
1269903 5.47826 5.53901 16.2677 14.8762 -0.789098 7.1606 42.1611
1269913 5.33043 5.3522 16.4769 14.9136 -0.916003 7.38281 42.0732
1269925 5.33043 5.3522 16.4769 14.9136 -0.916003 7.38281 42.0732
1269933 5.10435 5.23077 16.7908 15.0726 -0.942981 7.65251 42.1985
1269955 4.86957 5.02527 17.2067 15.1662 -1.1148 7.97703 42.2678
1269964 4.64348 4.89451 17.3642 15.2878 -1.08162 8.21784 42.19
1269983 4.64348 4.89451 17.3642 15.2878 -1.08162 8.21784 42.19
1269985 4.38261 4.66099 17.3937 15.2317 -1.13014 8.48898 41.669
1269994 4.1913 4.5022 17.4627 15.0259 -1.29055 8.66702 41.182
1270013 4.1913 4.5022 17.4627 15.0259 -1.29055 8.66702 41.182
1270014 4.11304 4.40879 17.6005 14.9884 -1.40856 8.78131 41.1107
1270024 4.11304 4.40879 17.6005 14.9884 -1.40856 8.78131 41.1107
1270043 4 4.28736 17.817 15.1381 -1.44967 8.97173 41.2425
1270044 4.01739 4.36209 18.2501 15.3065 -1.54932 9.00555 41.9362
1270072 3.94783 4.25934 18.1123 15.2036 -1.5637 9.07041 41.5231
1270075 3.87826 4.16593 18.26 15.2036 -1.66757 9.18602 41.5078
1270085 3.87826 4.16593 18.26 15.2036 -1.66757 9.18602 41.5078
1270100 3.87826 4.24066 18.3289 15.1756 -1.6763 9.1483 41.6234
1270107 3.87826 4.24066 18.3289 15.1756 -1.6763 9.1483 41.6234
1270133 3.82609 4.07253 18.575 14.9791 -2.02005 9.28364 41.4527
1270147 3.8 4.02582 18.8506 15.0352 -2.15141 9.37149 41.7117
1270162 3.82609 4.04451 18.9786 14.951 -2.27818 9.35127 41.8002
1270177 3.89565 4.09121 19.0376 14.82 -2.40297 9.2739 41.8445
1270191 3.89565 4.09121 19.0376 14.82 -2.40297 9.2739 41.8445
1270197 3.82609 3.94176 19.1361 14.7078 -2.59101 9.39976 41.6117
1270207 3.93043 3.96978 19.264 14.6423 -2.74026 9.33087 41.8065
1270219 3.93043 3.96978 19.264 14.6423 -2.74026 9.33087 41.8065
1270227 3.94783 4.00714 19.2739 14.5113 -2.817 9.28251 41.7401
1270247 3.93043 3.96044 19.3329 14.5768 -2.82661 9.33677 41.8006
1270249 3.93043 3.96044 19.3329 14.5768 -2.82661 9.33677 41.8006
1270256 3.90435 3.89506 19.2936 14.6142 -2.81047 9.38988 41.7072
1270275 3.90435 3.89506 19.2936 14.6142 -2.81047 9.38988 41.7072
1270280 3.88696 3.88571 19.3329 14.5768 -2.85337 9.40579 41.6824
1270289 3.89565 3.87637 19.2936 14.6329 -2.80582 9.40841 41.6985
1270303 3.89565 3.87637 19.2936 14.6329 -2.80582 9.40841 41.6985
1270308 3.86957 3.94176 19.205 14.4926 -2.79471 9.35447 41.5089
1270318 3.86087 3.87637 19.0278 14.4832 -2.74501 9.37267 41.2483
1270332 3.86087 3.87637 19.0278 14.4832 -2.74501 9.37267 41.2483
1270338 3.93043 3.96978 18.8998 14.4926 -2.64449 9.26032 41.2926
1270349 3.93043 3.96978 18.8998 14.4926 -2.64449 9.26032 41.2926
1270361 3.92174 4.03516 18.9589 14.661 -2.51612 9.25864 41.5768
1270368 3.95652 4.05385 18.9392 14.6797 -2.49955 9.22735 41.6293
1270388 3.95652 4.05385 18.9392 14.6797 -2.49955 9.22735 41.6293
1270390 3.92174 4.13791 18.6931 14.6142 -2.33444 9.15501 41.367
1270398 3.92174 4.06319 18.5061 14.6984 -2.22523 9.18424 41.1894
1270417 3.92174 4.06319 18.5061 14.6984 -2.22523 9.18424 41.1894
1270420 3.91304 4.17527 18.5159 14.8668 -2.04171 9.14894 41.4711
1270428 3.91304 4.17527 18.5159 14.8668 -2.04171 9.14894 41.4711
1270445 3.94783 4.32473 18.4372 15.0165 -1.82365 9.05227 41.7262
1270450 4.04348 4.52088 18.3486 15.0446 -1.68421 8.87641 41.9575
1270458 4.04348 4.52088 18.3486 15.0446 -1.68421 8.87641 41.9575
1270474 4.11304 4.55824 17.8761 14.9417 -1.49993 8.72995 41.489
1270478 4.13913 4.5956 17.7186 14.7265 -1.53937 8.63664 41.1798
1270504 4.24348 4.81978 17.3052 14.4364 -1.4045 8.33663 40.8048
1270509 4.24348 4.81978 17.3052 14.4364 -1.4045 8.33663 40.8048
1270519 4.53913 5.27747 16.8431 14.0248 -1.27811 7.76141 40.6844
1270535 5.18261 6.23956 15.8806 13.033 -1.10983 6.50469 40.3358
1270539 5.18261 6.23956 15.8806 13.033 -1.10983 6.50469 40.3358
1270562 6.49565 7.9489 15.096 12.2845 -0.811842 4.63932 41.8251
1270563 7.90435 9.56484 13.5582 10.9373 -0.572154 2.51149 41.9646
1270569 7.90435 9.56484 13.5582 10.9373 -0.572154 2.51149 41.9646
1270590 8.8087 10.6764 11.9889 9.47771 -0.392863 0.725816 40.9517
1270591 8.8087 10.6764 11.9889 9.47771 -0.392863 0.725816 40.9517
1270600 9.61739 11.7786 10.3778 8.1585 -0.0364155 -1.07417 39.9323
1270619 10.5739 12.9648 9.03877 6.96092 0.197959 -2.86015 39.5384
1270630 11.3739 13.983 7.888 5.95047 0.428319 -4.40808 39.1953
1270648 12.6261 15.2253 6.73723 4.98679 0.536159 -6.11264 39.5754
1270662 13.913 16.7571 5.45046 3.97633 0.854164 -7.947 40.097
1270676 15.087 18.0892 4.19508 3.03137 1.13766 -9.63418 40.4026
1270682 15.087 18.0892 4.19508 3.03137 1.13766 -9.63418 40.4026
1270691 15.9043 19.1396 3.41046 2.41387 1.36943 -10.7246 40.8683
1270711 16.5043 19.7523 2.87692 1.86186 1.36167 -11.5322 40.9954
1270723 17.0996 20.4039 2.54215 1.59989 1.4179 -12.0162 41.6456
1270739 17.0996 20.4039 2.54215 1.59989 1.4179 -12.0162 41.6456
1270743 17.4683 20.8415 2.13415 1.32856 1.53665 -12.5132 41.7726
1270753 17.5381 20.861 1.87262 1.18822 1.59099 -12.7852 41.4599
1270770 17.5381 20.861 1.87262 1.18822 1.59099 -12.7852 41.4599
1270773 17.2989 20.647 1.73662 1.01046 1.61079 -12.9748 40.693
1270799 16.887 20.3844 1.43323 0.776555 1.79884 -13.3209 39.4812
1270804 16.6522 20.1413 1.17169 0.69235 1.94644 -13.5534 38.6575
1270813 16.6522 20.1413 1.17169 0.69235 1.94644 -13.5534 38.6575
1270830 16.4435 19.8106 1.00431 0.542653 1.92158 -13.7723 37.8011
1270833 16.2261 19.7328 0.805538 0.486516 2.13936 -13.9594 37.251
1270843 16.2261 19.7328 0.805538 0.486516 2.13936 -13.9594 37.251
1270859 16.1391 19.48 0.732308 0.411668 2.05383 -14.0665 36.7631
1270864 16.1391 19.48 0.732308 0.411668 2.05383 -14.0665 36.7631
1270874 15.9391 19.266 0.847385 0.439736 1.9999 -13.9419 36.4923
1270887 15.8957 19.1201 0.983385 0.505228 1.88082 -13.7766 36.5044
1270894 15.8957 19.1201 0.983385 0.505228 1.88082 -13.7766 36.5044
1270904 16 19.1688 1.01477 0.580077 1.85922 -13.6986 36.7636
1270917 16.2174 19.1688 1.18215 0.795267 1.7159 -13.4123 37.3636
1270929 16.2174 19.2174 1.18215 0.795267 1.74616 -13.4144 37.4122
1270946 16.5565 19.4703 1.34954 0.823335 1.56254 -13.2935 38.1996
1270947 16.5565 19.4703 1.34954 0.823335 1.56254 -13.2935 38.1996
1270954 16.7565 19.5772 1.48554 0.935608 1.46483 -13.1258 38.7549
1270974 16.8609 19.6453 1.52738 1.01981 1.45754 -13.0433 39.0534
1270975 16.8609 19.6453 1.52738 1.01981 1.45754 -13.0433 39.0534
1270984 16.8348 19.8009 1.496 1.05724 1.6123 -13.0454 39.1889
1271003 16.7652 19.869 1.53785 1.01046 1.64384 -13.0489 39.1825
1271005 16.7652 19.869 1.53785 1.01046 1.64384 -13.0489 39.1825
1271015 16.6348 19.8593 1.52738 1.09466 1.78428 -12.989 39.1161
1271035 16.6348 19.8593 1.52738 1.09466 1.78428 -12.989 39.1161
1271037 16.3304 19.7231 1.54831 1.04788 1.87081 -12.9848 38.6497
1271045 15.9478 19.3341 1.66338 1.11337 1.86309 -12.8112 38.0587
1271064 15.9478 19.3341 1.66338 1.11337 1.86309 -12.8112 38.0587
1271065 15.5652 18.9062 1.61108 1.19758 1.96316 -12.7398 37.28
1271078 15.2957 18.5561 1.65292 1.21629 1.92246 -12.6559 36.7209
1271096 15.2957 18.5561 1.65292 1.21629 1.92246 -12.6559 36.7209
1271098 15.113 18.3129 1.60062 1.26307 1.97187 -12.6326 36.2897
1271105 15.113 18.3129 1.60062 1.26307 1.97187 -12.6326 36.2897
1271125 15.1739 18.6144 1.62154 1.21629 2.07178 -12.6756 36.6262
1271126 15.2957 18.7895 1.66338 1.28178 2.10113 -12.614 37.0303
1271153 15.3739 18.9159 1.61108 1.235 2.1313 -12.7008 37.1359
1271157 15.3826 19.0618 1.65292 1.28178 2.21249 -12.6446 37.3791
1271167 15.3826 19.0618 1.65292 1.28178 2.21249 -12.6446 37.3791
1271183 15.5739 19.3341 1.632 1.30985 2.27084 -12.6683 37.8499
1271197 15.7217 19.6842 1.65292 1.29114 2.34725 -12.697 38.35
1271212 15.913 20.0927 1.77846 1.40341 2.42716 -12.5641 39.1876
