4929024 4.86087 4.95055 8.59938 7.14805 -1.33189 3.48373 25.5588
4929034 4.84348 4.89451 8.54708 7.12933 -1.34443 3.50496 25.4144
4929045 4.85217 4.89451 8.55754 7.14805 -1.34287 3.51181 25.4523
4929053 4.85217 4.89451 8.55754 7.14805 -1.34287 3.51181 25.4523
4929063 4.82609 4.81978 8.65169 7.20418 -1.42521 3.65269 25.5017
4929074 4.82609 4.81978 8.65169 7.20418 -1.42521 3.65269 25.5017
4929084 4.67826 4.70769 8.78769 7.29774 -1.43349 3.9453 25.4714
4929093 4.6087 4.56758 8.976 7.42873 -1.55231 4.23856 25.581
4929114 4.53043 4.52088 9.18523 7.52229 -1.62323 4.45839 25.7588
4929124 4.34783 4.33407 9.28985 7.64392 -1.6198 4.83213 25.6157
4929134 4.34783 4.33407 9.28985 7.64392 -1.6198 4.83213 25.6157
4929144 4.26087 4.28736 9.43631 7.72812 -1.63508 5.02643 25.7127
4929172 4.14783 4.15659 9.45723 7.73748 -1.67749 5.22976 25.4991
4929174 4.15652 4.12857 9.49908 7.7749 -1.7138 5.27536 25.5591
4929184 4.15652 4.12857 9.49908 7.7749 -1.7138 5.27536 25.5591
4929195 4.04348 4.04451 9.61415 7.75619 -1.8235 5.46915 25.4583
4929205 4.05217 4.05385 9.59323 7.82168 -1.73375 5.47133 25.5209
4929216 4.05217 4.05385 9.59323 7.82168 -1.73375 5.47133 25.5209
4929227 4.04348 3.98846 9.792 7.85911 -1.93504 5.618 25.683
4929235 4.04348 3.98846 9.792 7.85911 -1.93504 5.618 25.683
4929247 3.93913 3.9044 9.80246 7.86846 -1.92904 5.77755 25.5145
4929256 4.0087 3.9511 9.78154 7.8404 -1.95329 5.66545 25.5817
4929266 4.0087 3.9511 9.78154 7.8404 -1.95329 5.66545 25.5817
4929276 4.04348 3.9511 9.72923 7.76555 -2.01659 5.59069 25.4894
4929285 3.9913 3.96044 9.80246 7.81233 -1.97622 5.66935 25.5665
4929305 4.03478 3.97912 9.85477 7.86846 -1.98348 5.65875 25.7371
4929316 4.03478 3.97912 9.85477 7.86846 -1.98348 5.65875 25.7371
4929327 3.92174 3.9044 9.80246 7.7749 -2.01242 5.75781 25.4035
4929336 3.95652 3.92308 9.81292 7.75619 -2.05332 5.7112 25.4487
4929347 3.95652 3.92308 9.81292 7.75619 -2.05332 5.7112 25.4487
4929356 4.02609 3.9978 9.88615 7.82168 -2.03324 5.64514 25.7317
4929366 4.02609 3.9978 9.88615 7.82168 -2.03324 5.64514 25.7317
4929375 4.03478 3.89506 9.89662 7.76555 -2.21827 5.70432 25.592
4929385 3.97391 3.89506 10.064 7.84975 -2.22349 5.84391 25.7827
4929395 3.97391 3.89506 10.064 7.84975 -2.22349 5.84391 25.7827
4929408 3.95652 3.84835 9.96985 7.85911 -2.16404 5.86574 25.6338
4929415 3.90435 3.80165 10.1058 7.86846 -2.27809 5.99778 25.6803
4929425 3.90435 3.80165 10.1058 7.86846 -2.27809 5.99778 25.6803
4929435 3.86957 3.77363 10.2105 7.94331 -2.29008 6.11152 25.797
4929446 3.86957 3.77363 10.2105 7.94331 -2.29008 6.11152 25.797
4929455 3.82609 3.64286 10.2 7.97138 -2.35161 6.2611 25.6403
4929466 3.74783 3.6522 10.1895 7.91525 -2.32301 6.29573 25.5048
4929475 3.74783 3.6522 10.1895 7.91525 -2.32301 6.29573 25.5048
4929486 3.78261 3.6989 9.90708 7.76555 -2.2116 6.0772 25.1541
4929495 3.98261 3.84835 9.61415 7.53165 -2.21883 5.5941 24.9768
4929517 4.36522 4.02582 9.23754 7.26032 -2.32695 4.8858 24.8889
4929527 4.36522 4.02582 9.23754 7.26032 -2.32695 4.8858 24.8889
4929537 4.93043 4.42747 8.72492 6.9235 -2.3038 3.77336 25.0063
4929547 5.6 4.97857 8.08677 6.47441 -2.22137 2.37628 25.1397
4929567 6.33043 5.63242 7.28123 5.78206 -2.19489 0.659573 25.0261
4929577 7.15652 6.23956 6.42338 5.14584 -2.19755 -1.09764 24.9653
4929587 7.15652 6.23956 6.42338 5.14584 -2.19755 -1.09764 24.9653
4929598 7.7913 6.8467 5.61785 4.50963 -2.07225 -2.73194 24.7655
4929609 8.26087 7.25769 5.032 3.9202 -2.16072 -4.02503 24.4708
4929628 8.67826 7.62198 4.59262 3.5366 -2.16163 -5.01711 24.4295
4929649 8.9913 7.9489 4.16369 3.14364 -2.12645 -5.95908 24.2475
4929659 9.29565 8.21044 3.84985 2.87232 -2.12844 -6.67646 24.2283
4929669 9.29565 8.21044 3.84985 2.87232 -2.12844 -6.67646 24.2283
4929679 9.41739 8.51868 3.55692 2.6197 -1.90349 -7.3153 24.1127
4929689 9.47826 8.59341 3.41046 2.50743 -1.86319 -7.59942 23.9896
4929699 9.47826 8.59341 3.41046 2.50743 -1.86319 -7.59942 23.9896
4929711 9.67826 8.77088 3.29538 2.37644 -1.89288 -7.94577 24.121
4929720 9.67826 8.77088 3.29538 2.37644 -1.89288 -7.94577 24.121
4929729 9.74783 8.90165 3.22215 2.26417 -1.86876 -8.18068 24.1358
4929740 9.87826 9.01374 3.21169 2.24546 -1.8797 -8.27637 24.3492
4929750 9.87826 9.01374 3.21169 2.24546 -1.8797 -8.27637 24.3492
4929761 9.94783 9.13517 3.10708 2.20804 -1.75393 -8.46452 24.3981
4929770 10.0174 9.13517 3.04431 2.18932 -1.78094 -8.56156 24.3862
4929780 10.0174 9.13517 3.04431 2.18932 -1.78094 -8.56156 24.3862
4929800 10.0261 9.24725 3.03385 2.1519 -1.69751 -8.63949 24.4591
4929805 10.0261 9.24725 3.03385 2.1519 -1.69751 -8.63949 24.4591
4929813 9.96522 9.17253 2.98154 2.09576 -1.73288 -8.70974 24.215
4929821 9.94783 9.16319 3.05477 2.07705 -1.8174 -8.64948 24.2428
4929830 9.94783 9.16319 3.05477 2.07705 -1.8174 -8.64948 24.2428
4929841 9.94783 9.16319 2.98154 2.03963 -1.78864 -8.75792 24.1322
4929850 9.93913 9.11648 3.02338 2.08641 -1.8204 -8.65648 24.1654
4929860 9.93913 9.11648 3.02338 2.08641 -1.8204 -8.65648 24.1654
4929871 9.94783 9.20055 3.10708 2.11447 -1.78486 -8.57214 24.3699
4929881 9.94783 9.20055 3.10708 2.11447 -1.78486 -8.57214 24.3699
4929893 9.90435 9.17253 3.18031 2.17997 -1.77206 -8.41952 24.4371
4929901 9.96522 9.24725 3.21169 2.20804 -1.74733 -8.39922 24.6322
4929911 9.96522 9.24725 3.21169 2.20804 -1.74733 -8.39922 24.6322
4929920 10.0261 9.25659 3.22215 2.2361 -1.77393 -8.38151 24.7409
4929930 10.0261 9.20989 3.22215 2.17061 -1.8959 -8.43113 24.6287
4929941 10.0261 9.20989 3.22215 2.17061 -1.8959 -8.43113 24.6287
4929953 10.1217 9.26593 3.19077 2.11447 -1.95613 -8.55454 24.6929
4929960 10.1217 9.26593 3.19077 2.11447 -1.95613 -8.55454 24.6929
4929972 10.0957 9.27527 3.14892 2.05834 -1.94376 -8.64405 24.5782
4929981 10.0783 9.18187 3.06523 2.02091 -1.99282 -8.73274 24.3463
4930002 10.0957 9.25659 3.04431 2.01156 -1.9172 -8.78584 24.4081
4930011 10.0957 9.25659 3.04431 2.01156 -1.9172 -8.78584 24.4081
4930022 10.1304 9.20055 2.91877 1.918 -1.99714 -8.99601 24.1678
4930033 10.1478 9.20989 2.97108 1.97413 -1.99037 -8.89554 24.3029
4930042 10.1478 9.20989 2.97108 1.97413 -1.99037 -8.89554 24.3029
4930052 10.1739 9.28462 2.89785 1.92735 -1.91465 -9.03897 24.2837
4930062 10.2348 9.28462 2.98154 1.92735 -2.05126 -8.97147 24.4283
4930072 10.2348 9.28462 2.98154 1.92735 -2.05126 -8.97147 24.4283
4930082 10.287 9.33132 2.95015 1.89928 -2.05016 -9.05408 24.4677
4930092 10.287 9.33132 2.95015 1.89928 -2.05016 -9.05408 24.4677
4930103 10.2348 9.27527 2.87692 1.89928 -1.99407 -9.10011 24.2863
4930123 10.2522 9.22857 2.89785 1.87122 -2.11366 -9.10008 24.2498
4930132 10.2696 9.32198 2.90831 1.87122 -2.0359 -9.11656 24.3711
4930142 10.3217 9.28462 2.92923 1.918 -2.09413 -9.05335 24.4536
4930152 10.3217 9.28462 2.92923 1.918 -2.09413 -9.05335 24.4536
4930162 10.313 9.31264 2.91877 1.88057 -2.08659 -9.10522 24.425
4930172 10.313 9.31264 2.91877 1.88057 -2.08659 -9.10522 24.425
4930182 10.2261 9.28462 2.96062 1.8525 -2.10656 -9.0637 24.3238
4930192 10.2435 9.24725 2.92923 1.88993 -2.09331 -9.05284 24.3099
4930202 10.2435 9.24725 2.92923 1.88993 -2.09331 -9.05284 24.3099
4930212 10.2435 9.25659 2.92923 1.89928 -2.07249 -9.04588 24.3286
4930224 10.2609 9.22857 2.89785 1.84315 -2.15328 -9.13012 24.2304
4930242 10.2087 9.14451 2.92923 1.90864 -2.15449 -9.00043 24.1911
4930253 10.2087 9.14451 2.92923 1.90864 -2.15449 -9.00043 24.1911
4930263 10.1391 9.11648 2.91877 1.92735 -2.08913 -8.96792 24.1017
4930273 10.0522 9.06978 2.95015 1.98349 -2.02558 -8.8472 24.0556
4930283 10.0522 9.06978 2.95015 1.98349 -2.02558 -8.8472 24.0556
4930293 10 9.06978 3.03385 2.02091 -2.01367 -8.71417 24.1245
4930303 9.89565 8.98571 3.18031 2.09576 -2.06405 -8.44789 24.1574
4930314 9.89565 8.98571 3.18031 2.09576 -2.06405 -8.44789 24.1574
4930323 9.86957 8.95769 3.28492 2.32966 -1.90977 -8.10864 24.4418
4930334 9.86957 8.95769 3.28492 2.32966 -1.90977 -8.10864 24.4418
4930344 9.71304 8.93901 3.50462 2.45129 -1.85647 -7.73905 24.608
4930353 9.5913 8.92033 3.73477 2.66648 -1.74534 -7.29164 24.9129
4930364 9.5913 8.92033 3.73477 2.66648 -1.74534 -7.29164 24.9129
4930373 9.47826 8.81758 3.88123 2.77876 -1.76627 -6.99387 24.9558
4930385 9.33043 8.80824 4.08 2.90039 -1.69374 -6.66324 25.1191
4930393 9.33043 8.80824 4.08 2.90039 -1.69374 -6.66324 25.1191
4930404 9.2087 8.65879 4.216 3.04073 -1.71665 -6.33498 25.1242
4930413 9.2087 8.65879 4.216 3.04073 -1.71665 -6.33498 25.1242
4930424 8.96522 8.44396 4.28923 3.09686 -1.72778 -6.0635 24.7953
4930440 8.75652 8.30385 4.52985 3.26527 -1.72723 -5.59147 24.8555
4930449 8.75652 8.30385 4.52985 3.26527 -1.72723 -5.59147 24.8555
4930458 8.55652 8.05165 4.73908 3.40561 -1.85669 -5.12879 24.7529
4930464 8.21739 7.73407 5.09477 3.65823 -1.94283 -4.37075 24.7045
4930484 8.02609 7.54725 5.41908 4.02312 -1.87363 -3.6764 25.0155
4930505 7.8087 7.3511 5.77477 4.3038 -1.91036 -3.01994 25.2384
4930516 7.54783 7.03352 6.04677 4.52834 -2.0201 -2.38879 25.1565
4930526 7.54783 7.03352 6.04677 4.52834 -2.0201 -2.38879 25.1565
4930538 7.32174 6.78132 6.48615 4.88387 -2.10291 -1.60936 25.4731
4930545 6.93043 6.48242 6.82092 5.22069 -2.01168 -0.808053 25.4545
4930556 6.93043 6.48242 6.82092 5.22069 -2.01168 -0.808053 25.4545
4930565 6.5913 6.2022 7.30215 5.52944 -2.10908 0.0222999 25.6251
4930576 6.5913 6.2022 7.30215 5.52944 -2.10908 0.0222999 25.6251
4930585 6.09565 5.79121 7.73108 5.80077 -2.19794 0.970734 25.4187
4930597 5.7913 5.48297 8.14954 6.12823 -2.27931 1.76317 25.552
4930617 5.53043 5.11868 8.42154 6.42763 -2.35865 2.47078 25.4983
4930625 5.25217 4.91319 8.69354 6.71767 -2.26268 3.07655 25.5766
4930638 5.25217 4.91319 8.69354 6.71767 -2.26268 3.07655 25.5766
4930647 5.07826 4.69835 8.89231 6.8393 -2.38445 3.50181 25.5082
4930658 5.07826 4.69835 8.89231 6.8393 -2.38445 3.50181 25.5082
4930667 4.92174 4.5489 8.94462 6.93286 -2.35185 3.79131 25.3481
4930678 4.90435 4.47418 8.976 6.93286 -2.44521 3.87367 25.2874
4930687 4.90435 4.47418 8.976 6.93286 -2.44521 3.87367 25.2874
4930699 4.90435 4.5022 8.82954 6.9235 -2.29355 3.78374 25.1596
4930707 5.01739 4.63297 8.89231 6.8393 -2.40076 3.59384 25.382
4930727 5.1913 4.74505 8.84 6.72702 -2.50871 3.31172 25.5034
4930740 5.1913 4.74505 8.84 6.72702 -2.50871 3.31172 25.5034
4930748 5.1913 4.81978 8.73538 6.64282 -2.42631 3.1709 25.3893
4930758 5.28696 4.86648 8.72492 6.66153 -2.43136 3.07343 25.5399
4930778 5.22609 4.92253 8.75631 6.66153 -2.3452 3.09149 25.5665
4930788 5.18261 4.90385 8.72492 6.71767 -2.23864 3.14708 25.529
4930809 5.12174 4.89451 8.79815 6.7738 -2.19983 3.2568 25.5882
4930819 5.0087 4.7544 8.93415 6.87672 -2.25985 3.54723 25.574
4930840 4.89565 4.65165 9.01785 6.99835 -2.21361 3.79578 25.5635
4930852 4.78261 4.55824 9.08062 7.06384 -2.19846 4.00443 25.4853
4930860 4.78261 4.55824 9.08062 7.06384 -2.19846 4.00443 25.4853
4930872 4.62609 4.45549 9.30031 7.22289 -2.19491 4.35951 25.6048
4930882 4.62609 4.45549 9.30031 7.22289 -2.19491 4.35951 25.6048
4930892 4.44348 4.28736 9.41538 7.32581 -2.20407 4.71715 25.472
4930902 4.35652 4.21264 9.54092 7.43808 -2.19851 4.93764 25.5482
4930912 4.35652 4.21264 9.54092 7.43808 -2.19851 4.93764 25.5482
4930922 4.24348 4.16593 9.56185 7.52229 -2.07611 5.10407 25.4935
4930932 4.22609 4.06319 9.64554 7.66263 -2.09573 5.28504 25.5974
4930942 4.22609 4.06319 9.64554 7.66263 -2.09573 5.28504 25.5974
4930952 4.08696 4.10055 9.73969 7.80297 -1.86855 5.45381 25.7302
4930962 4.08696 4.10055 9.73969 7.80297 -1.86855 5.45381 25.7302
4930972 4.04348 3.96044 9.77108 7.82168 -1.98505 5.61919 25.5967
4930982 4.06087 3.98846 9.75015 7.89653 -1.87386 5.60244 25.696
4930992 4.06087 3.98846 9.75015 7.89653 -1.87386 5.60244 25.696
4931002 4.02609 4.02582 9.70831 7.84975 -1.81455 5.56784 25.61
4931012 3.96522 4.02582 9.73969 7.90589 -1.72916 5.64888 25.6366
4931033 3.93913 4.01648 9.792 7.96203 -1.70425 5.71677 25.7096
4931043 3.93913 4.01648 9.792 7.96203 -1.70425 5.71677 25.7096
4931055 3.89565 3.9978 9.76062 7.94331 -1.67512 5.74891 25.5974
4931065 3.86957 3.96978 9.73969 7.96203 -1.64192 5.79207 25.5411
4931092 3.85217 3.94176 9.67692 8.0743 -1.48075 5.84687 25.5452
4931093 3.83478 3.98846 9.72923 8.10237 -1.43558 5.85173 25.6548
4931103 3.83478 3.98846 9.72923 8.10237 -1.43558 5.85173 25.6548
4931113 3.83478 3.9978 9.75015 8.14915 -1.39709 5.86823 25.7319
4931133 3.78261 3.92308 9.69785 8.13979 -1.38744 5.94986 25.5433
4931143 3.8 3.94176 9.75015 8.09301 -1.48074 5.92228 25.5849
4931156 3.8 3.94176 9.75015 8.09301 -1.48074 5.92228 25.5849
4931164 3.8 3.91374 9.78154 8.12108 -1.50951 5.96624 25.6164
4931175 3.8 3.94176 9.84431 8.17722 -1.48014 5.98512 25.7633
4931194 3.77391 3.97912 9.95938 8.16786 -1.53236 6.01281 25.8803
4931204 3.77391 3.97912 9.95938 8.16786 -1.53236 6.01281 25.8803
4931215 3.73913 3.86703 9.93846 8.0743 -1.69432 6.09311 25.6189
4931225 3.69565 3.96978 9.85477 8.10237 -1.44236 6.02498 25.6226
4931236 3.69565 3.96978 9.85477 8.10237 -1.44236 6.02498 25.6226
4931246 3.72174 3.92308 9.75015 8.02752 -1.49602 5.97868 25.4225
4931256 3.76522 3.87637 9.71877 7.95267 -1.63448 5.94349 25.313
4931268 3.76522 3.87637 9.71877 7.95267 -1.63448 5.94349 25.313
4931277 3.81739 3.9511 9.61415 7.93396 -1.52715 5.79439 25.3166
4931285 3.81739 3.9511 9.61415 7.93396 -1.52715 5.79439 25.3166
4931297 3.93043 4.02582 9.44677 7.78426 -1.55547 5.52349 25.1873
4931307 4.12174 4.25 9.20615 7.70941 -1.35293 5.06805 25.2873
4931317 4.12174 4.25 9.20615 7.70941 -1.35293 5.06805 25.2873
4931327 4.23478 4.39011 8.95508 7.49422 -1.30167 4.68075 25.0742
4931337 4.57391 4.67967 8.65169 7.37259 -1.16045 4.01776 25.2779
4931347 4.57391 4.67967 8.65169 7.37259 -1.16045 4.01776 25.2779
4931357 4.93043 4.93187 8.37969 7.04513 -1.31799 3.29962 25.2871
4931377 5.16522 5.27747 7.97169 6.74573 -1.10662 2.54852 25.1601
4931387 5.5913 5.58571 7.54277 6.43698 -1.10445 1.67116 25.1568
4931397 5.5913 5.58571 7.54277 6.43698 -1.10445 1.67116 25.1568
4931407 5.95652 5.82857 7.09292 6.0066 -1.2199 0.792317 24.8846
4931417 6.23478 6.15549 6.71631 5.67914 -1.12611 0.00312746 24.7857
4931427 6.23478 6.15549 6.71631 5.67914 -1.12611 0.00312746 24.7857
4931437 6.6087 6.43571 6.35015 5.35168 -1.18347 -0.813808 24.7462
4931447 6.6087 6.43571 6.35015 5.35168 -1.18347 -0.813808 24.7462
4931457 6.86087 6.74396 5.97354 4.99615 -1.11325 -1.60846 24.5745
4931467 7.21739 6.98681 5.63877 4.76225 -1.12486 -2.31853 24.6052
4931487 7.53913 7.34176 5.304 4.40671 -1.11284 -3.15362 24.5916
4931497 7.8087 7.6967 4.94831 4.20088 -0.87146 -3.86716 24.6546
4931507 7.8087 7.6967 4.94831 4.20088 -0.87146 -3.86716 24.6546
4931517 8.01739 7.93022 4.70769 3.90149 -0.909503 -4.48253 24.5568
4931537 8.15652 8.2011 4.41477 3.66758 -0.718705 -5.07893 24.44
4931547 8.38261 8.42527 4.24738 3.47111 -0.747779 -5.55895 24.5264
4931557 8.38261 8.42527 4.24738 3.47111 -0.747779 -5.55895 24.5264
4931567 8.49565 8.64011 4.00677 3.28398 -0.591902 -6.04569 24.4265
4931578 8.62609 8.78956 3.89169 3.05944 -0.686161 -6.44188 24.3668
4931599 8.85217 9.08846 3.672 2.90974 -0.536215 -6.94808 24.5224
4931608 8.85217 9.08846 3.672 2.90974 -0.536215 -6.94808 24.5224
4931618 9.01739 9.14451 3.48369 2.69455 -0.679973 -7.38512 24.3401
4931628 9.26957 9.36868 3.36862 2.58228 -0.698707 -7.73961 24.5891
4931638 9.26957 9.36868 3.36862 2.58228 -0.698707 -7.73961 24.5891
4931648 9.46087 9.68626 3.16985 2.37644 -0.575057 -8.26182 24.6934
4931659 9.66957 9.84505 2.97108 2.17997 -0.623967 -8.73496 24.6657
4931668 9.66957 9.84505 2.97108 2.17997 -0.623967 -8.73496 24.6657
4931679 9.8 9.99451 2.82462 2.04898 -0.588948 -9.073 24.6681
4931700 9.86957 10.0225 2.74092 1.88057 -0.721425 -9.34416 24.5136
4931709 9.95652 10.1253 2.584 1.77766 -0.652108 -9.64684 24.4435
4931735 10.1217 10.2093 2.448 1.65603 -0.720656 -9.96132 24.4351
4931739 10.2087 10.3495 2.37477 1.50633 -0.74438 -10.2358 24.4392
4931749 10.2087 10.3495 2.37477 1.50633 -0.74438 -10.2358 24.4392
4931759 10.3913 10.5082 2.27015 1.34728 -0.821818 -10.5736 24.517
4931779 10.4522 10.4242 2.20738 1.31921 -0.938591 -10.6645 24.4029
4931789 10.5043 10.4335 2.12369 1.21629 -1.00733 -10.8728 24.2778
4931799 10.5043 10.4335 2.12369 1.21629 -1.00733 -10.8728 24.2778
4931809 10.6609 10.4429 2.01908 1.18822 -1.07859 -11.0422 24.311
4931819 10.6435 10.4802 1.97723 1.13209 -1.04032 -11.1507 24.233
4931829 10.6435 10.4802 1.97723 1.13209 -1.04032 -11.1507 24.233
4931839 10.687 10.4709 1.97723 1.17887 -1.04306 -11.1058 24.3139
4931849 10.687 10.4709 1.97723 1.17887 -1.04306 -11.1058 24.3139
4931860 10.6 10.4148 1.92492 1.10402 -1.04608 -11.2207 24.0438
4931869 10.5652 10.2934 1.98769 1.05724 -1.25741 -11.1785 23.9036
4931879 10.5652 10.2934 1.98769 1.05724 -1.25741 -11.1785 23.9036
4931889 10.5652 10.3775 1.92492 1.11337 -1.04176 -11.1991 23.981
4931900 10.5826 10.2467 1.89354 1.09466 -1.19112 -11.2361 23.8175
4931910 10.5826 10.2467 1.89354 1.09466 -1.19112 -11.2361 23.8175
4931920 10.5826 10.3027 1.96677 1.11337 -1.18217 -11.1443 23.9655
4931930 10.5826 10.3027 1.96677 1.11337 -1.18217 -11.1443 23.9655
4931941 10.6 10.3121 1.87262 1.09466 -1.11589 -11.2722 23.8794
4931950 10.5565 10.3681 1.84123 1.11337 -0.959247 -11.2881 23.8793
4931961 10.5565 10.3681 1.84123 1.11337 -0.959247 -11.2881 23.8793
4931970 10.5652 10.3962 1.91446 1.10402 -1.02118 -11.2237 23.9798
4931980 10.5652 10.3962 1.91446 1.10402 -1.02118 -11.2237 23.9798
4931991 10.6261 10.4148 1.87262 1.08531 -1.04022 -11.3024 23.9988
4932002 10.6783 10.5176 1.91446 1.09466 -1.01268 -11.2704 24.205
4932010 10.6783 10.5176 1.91446 1.09466 -1.01268 -11.2704 24.205
4932020 10.7304 10.5643 1.89354 1.06659 -1.02361 -11.3387 24.2549
4932031 10.6957 10.583 1.93538 1.02917 -1.05071 -11.3315 24.2432
4932040 10.6957 10.583 1.93538 1.02917 -1.05071 -11.3315 24.2432
4932052 10.7739 10.6577 1.85169 1.10402 -0.885601 -11.364 24.3873
4932062 10.8087 10.611 1.904 1.07595 -1.051 -11.3361 24.3996
4932082 10.8696 10.6484 1.87262 1.06659 -1.05004 -11.3947 24.4571
4932103 10.9391 10.6764 1.80985 1.04788 -1.04678 -11.4969 24.4732
4932112 10.9826 10.6857 1.83077 1.07595 -1.0699 -11.4516 24.575
4932122 10.9826 10.6857 1.83077 1.07595 -1.0699 -11.4516 24.575
4932133 11.0174 10.6951 1.84123 0.982389 -1.20351 -11.5476 24.5361
4932143 11.0522 10.7231 1.88308 1.09466 -1.12866 -11.3911 24.753
4932153 11.0522 10.7231 1.88308 1.09466 -1.12866 -11.3911 24.753
4932163 11.1478 10.7044 1.82031 0.991745 -1.28931 -11.5796 24.6643
4932183 11.1217 10.6951 1.74708 0.982389 -1.2134 -11.6641 24.5463
4932193 11.2174 10.7511 1.768 0.973032 -1.27609 -11.6721 24.7095
4932203 11.2174 10.7511 1.768 0.973032 -1.27609 -11.6721 24.7095
4932214 11.2087 10.6951 1.62154 0.95432 -1.20596 -11.8433 24.4796
4932224 11.1652 10.6764 1.62154 0.982389 -1.15358 -11.8044 24.4455
4932234 11.1652 10.6764 1.62154 0.982389 -1.15358 -11.8044 24.4455
4932244 11.1478 10.6951 1.57969 0.916896 -1.14584 -11.9228 24.3395
4932264 11.0435 10.6484 1.59015 0.888828 -1.13407 -11.9232 24.1708
4932274 10.9913 10.6203 1.57969 0.898184 -1.09226 -11.9142 24.0895
4932284 10.9913 10.6203 1.57969 0.898184 -1.09226 -11.9142 24.0895
4932298 10.9391 10.5923 1.57969 0.860759 -1.11146 -11.9459 23.9719
4932306 10.8609 10.639 1.51692 0.851403 -0.929458 -12.0232 23.8682
4932317 10.8609 10.639 1.51692 0.851403 -0.929458 -12.0232 23.8682
4932326 10.8 10.6297 1.52738 0.832691 -0.909029 -12.0238 23.7897
4932336 10.6087 10.583 1.50646 0.804623 -0.773917 -12.05 23.5027
4932345 10.6087 10.583 1.50646 0.804623 -0.773917 -12.05 23.5027
4932356 10.4435 10.5082 1.45415 0.888828 -0.537209 -11.9826 23.2947
4932425 10.4435 10.5082 1.45415 0.888828 -0.537209 -11.9826 23.2947
4932430 10.2783 10.4615 1.45415 0.813979 -0.496455 -12.0426 23.0079
4932433 10.113 10.4429 1.43323 0.879472 -0.244817 -11.9661 22.8686
4932435 10.113 10.4429 1.43323 0.879472 -0.244817 -11.9661 22.8686
4932437 9.9913 10.4615 1.42277 0.879472 -0.0802711 -11.9648 22.7551
4932438 9.74783 10.4615 1.45415 0.879472 0.154185 -11.8944 22.543
4932440 9.74783 10.3775 1.45415 0.888828 0.0715703 -11.8716 22.4683
4932440 9.30435 10.1626 1.44369 0.842047 0.294957 -11.8477 21.7527
4932447 9.30435 10.1626 1.44369 0.842047 0.294957 -11.8477 21.7527
4932457 9.25217 10.3775 1.48554 0.90754 0.621292 -11.7401 22.0227
4932467 9.6 10.667 1.53785 1.02917 0.61132 -11.6274 22.834
4932487 9.66957 10.9192 1.70523 1.06659 0.653908 -11.4404 23.3606
4932498 9.64348 10.9005 1.79938 1.16951 0.666863 -11.212 23.5129
4932508 9.64348 10.9005 1.79938 1.16951 0.666863 -11.212 23.5129
4932519 9.66087 11.0687 1.83077 1.31921 0.938302 -11.0427 23.8795
4932538 10.0348 11.461 2.09231 1.3847 0.71938 -10.823 24.9728
4932548 10.5304 11.8346 2.37477 1.59989 0.502378 -10.473 26.3397
4932558 10.5304 11.8346 2.37477 1.59989 0.502378 -10.473 26.3397
4932568 10.7304 11.8253 2.62585 1.77766 0.228724 -10.0998 26.9592
4932578 10.6261 11.5824 2.89785 1.918 -0.0217572 -9.65388 27.0243
4932588 10.6261 11.5824 2.89785 1.918 -0.0217572 -9.65388 27.0243
4932598 10.4087 11.3396 2.93969 2.01156 0.00255704 -9.43669 26.6995
4932608 10.4087 11.3396 2.93969 2.01156 0.00255704 -9.43669 26.6995
4932620 10.2957 11.106 3.20123 2.16125 -0.21445 -8.98918 26.7642
4932630 10.0696 10.7511 3.18031 2.19868 -0.286354 -8.84077 26.1996
4932639 10.0696 10.7511 3.18031 2.19868 -0.286354 -8.84077 26.1996
4932649 9.67826 10.256 3.20123 2.1519 -0.46619 -8.64926 25.2874
4932659 9.31304 9.84505 3.18031 2.16125 -0.496988 -8.45922 24.4997
4932669 9.31304 9.84505 3.18031 2.16125 -0.496988 -8.45922 24.4997
4932680 9.09565 9.53681 3.10708 2.19868 -0.487962 -8.35069 23.9382
4932699 8.90435 9.29396 3.34769 2.28288 -0.708386 -7.91124 23.8289
4932709 8.81739 9.23791 3.61969 2.47001 -0.754985 -7.43359 24.145
4932729 8.76522 9.17253 3.89169 2.65713 -0.844601 -6.97664 24.4866
4932741 8.67826 9.07912 4.11138 2.89103 -0.827447 -6.51558 24.7598
4932760 8.69565 9.02308 4.42523 3.12493 -0.962521 -6.03622 25.2689
4932771 8.69565 9.02308 4.42523 3.12493 -0.962521 -6.03622 25.2689
4932781 8.56522 8.98571 4.65538 3.153 -1.06656 -5.7627 25.3593
4932790 8.48696 8.86429 4.66585 3.18107 -1.09874 -5.65775 25.1982
4932810 8.32174 8.71484 4.74954 3.12493 -1.23591 -5.51689 24.911
4932820 8.2087 8.52802 4.73908 3.19042 -1.24596 -5.35584 24.6662
4932833 8.2087 8.52802 4.73908 3.19042 -1.24596 -5.35584 24.6662
4932842 8.13913 8.39725 4.77046 3.18107 -1.35911 -5.25863 24.4879
4932852 8.13913 8.39725 4.77046 3.18107 -1.35911 -5.25863 24.4879
4932862 7.9913 8.33187 4.93785 3.28398 -1.33765 -4.95091 24.545
4932872 8.01739 8.23846 5.14708 3.39626 -1.54214 -4.66498 24.7992
4932882 8.01739 8.23846 5.14708 3.39626 -1.54214 -4.66498 24.7992
4932892 7.89565 8.14505 5.34585 3.50853 -1.59461 -4.32997 24.8951
4932902 7.8087 7.96758 5.576 3.70501 -1.70819 -3.88825 25.0573
4932922 7.69565 7.85549 5.80615 3.85471 -1.77654 -3.50445 25.212
4932932 7.69565 7.85549 5.80615 3.85471 -1.77654 -3.50445 25.212
4932942 7.6 7.65934 6.01538 4.0044 -1.93009 -3.10902 25.2791
4932952 7.46087 7.42582 6.256 4.14474 -2.1219 -2.66098 25.2874
4932962 7.46087 7.42582 6.256 4.14474 -2.1219 -2.66098 25.2874
4932972 7.2087 7.18297 6.47569 4.22895 -2.26375 -2.20372 25.0963
4932981 7.03478 6.82802 6.74769 4.45349 -2.49457 -1.59289 25.064
4932992 7.03478 6.82802 6.74769 4.45349 -2.49457 -1.59289 25.064
4933010 6.88696 6.47308 7.12431 4.70611 -2.81067 -0.910831 25.1904
4933013 6.88696 6.47308 7.12431 4.70611 -2.81067 -0.910831 25.1904
4933023 6.5913 6.13681 7.48 5.02422 -2.88348 -0.133104 25.2323
4933033 6.33913 5.82857 7.91938 5.28619 -3.09751 0.613561 25.3733
4933045 6.33913 5.82857 7.91938 5.28619 -3.09751 0.613561 25.3733
4933053 6.11304 5.54835 8.32738 5.49202 -3.3359 1.27037 25.4808
4933063 5.92174 5.30549 8.67262 5.73528 -3.46554 1.86111 25.6351
4933074 5.92174 5.30549 8.67262 5.73528 -3.46554 1.86111 25.6351
4933084 5.74783 5.15604 8.87138 5.88498 -3.48612 2.25202 25.6602
4933094 5.74783 5.15604 8.99692 5.88498 -3.59087 2.31408 25.7858
4933105 5.53913 4.90385 8.99692 6.0066 -3.56199 2.68832 25.4465
4933114 5.46087 4.83846 9.112 6.09081 -3.57186 2.88416 25.5021
4933124 5.46087 4.83846 9.112 6.09081 -3.57186 2.88416 25.5021
4933134 5.2 4.70769 9.22708 6.13759 -3.54319 3.2389 25.2724
4933147 5.07826 4.63297 9.30031 6.32471 -3.37549 3.50118 25.3362
4933154 5.07826 4.63297 9.30031 6.32471 -3.37549 3.50118 25.3362
4933164 5 4.65165 9.36308 6.37149 -3.28912 3.59423 25.3862
4933175 4.96522 4.69835 9.40492 6.34342 -3.27442 3.59169 25.4119
4933195 5 4.74505 9.31077 6.28729 -3.23404 3.46426 25.3431
4933205 5 4.74505 9.31077 6.28729 -3.23404 3.46426 25.3431
4933217 5.03478 4.81978 9.05969 6.1563 -3.10962 3.20781 25.0706
4933227 5.17391 5.06264 8.95508 6.10016 -2.93197 2.85786 25.2918
4933247 5.3913 5.30549 8.66215 5.88498 -2.83532 2.28788 25.2439
4933258 5.50435 5.54835 8.22277 5.71657 -2.46298 1.73253 24.992
4933278 5.75652 5.80989 7.888 5.55751 -2.27603 1.12692 25.0119
4933298 6.01739 5.98736 7.45908 5.32361 -2.18406 0.470762 24.7874
4933308 6.29565 6.30494 7.10338 5.12713 -1.98034 -0.223559 24.8311
4933318 6.29565 6.30494 7.10338 5.12713 -1.98034 -0.223559 24.8311
4933328 6.50435 6.57582 6.73723 4.90259 -1.78314 -0.874001 24.72
4933338 6.69565 6.8 6.41292 4.80903 -1.51668 -1.37981 24.7176
4933350 6.69565 6.8 6.41292 4.80903 -1.51668 -1.37981 24.7176
4933358 6.88696 6.98681 6.23508 4.65933 -1.48971 -1.80435 24.7682
4933368 7.02609 6.98681 6.03631 4.55641 -1.54352 -2.085 24.6056
4933378 7.02609 7.08022 6.03631 4.55641 -1.44314 -2.13384 24.699
4933389 7.13043 7.25769 5.86892 4.44414 -1.31322 -2.47462 24.7012
4933409 7.28696 7.47253 5.76431 4.41607 -1.16547 -2.75409 24.9399
4933419 7.41739 7.65 5.55508 4.21024 -1.11973 -3.20268 24.8327
4933430 7.41739 7.65 5.55508 4.21024 -1.11973 -3.20268 24.8327
4933440 7.52174 7.85549 5.29354 4.11668 -0.850339 -3.61091 24.7874
4933453 7.71304 7.98626 5.07385 3.87342 -0.940505 -4.10932 24.6466
4933460 7.71304 7.98626 5.07385 3.87342 -0.940505 -4.10932 24.6466
4933471 7.86087 8.18242 4.71815 3.69565 -0.716512 -4.67931 24.4571
4933481 7.86087 8.18242 4.71815 3.69565 -0.716512 -4.67931 24.4571
4933491 8.07826 8.41593 4.49846 3.37755 -0.803484 -5.30454 24.3702
4933500 8.29565 8.65879 4.28923 3.22785 -0.713323 -5.7847 24.4715
4933512 8.29565 8.65879 4.28923 3.22785 -0.713323 -5.7847 24.4715
4933522 8.45217 8.81758 3.944 3.01266 -0.584005 -6.38545 24.2264
4933532 8.65217 9.08846 3.75569 2.89103 -0.439134 -6.82356 24.3874
4933543 8.65217 9.08846 3.75569 2.89103 -0.439134 -6.82356 24.3874
4933552 8.86087 9.38736 3.46277 2.6852 -0.257295 -7.43985 24.3962
4933562 8.86087 9.38736 3.46277 2.6852 -0.257295 -7.43985 24.3962
4933572 9.09565 9.57418 3.25354 2.54485 -0.235163 -7.89071 24.4682
4933584 9.26087 9.77967 3.05477 2.55421 0.0185013 -8.17352 24.6495
4933592 9.26087 9.77967 3.05477 2.55421 0.0185013 -8.17352 24.6495
4933604 9.29565 10.0038 2.86646 2.34838 0.193873 -8.61822 24.5143
4933612 9.3913 10.1626 2.79323 2.25482 0.236687 -8.84434 24.602
4933625 9.3913 10.1626 2.79323 2.25482 0.236687 -8.84434 24.602
4933631 9.41739 10.3027 2.68862 2.1519 0.354874 -9.08748 24.5607
4933651 9.41739 10.3027 2.68862 2.1519 0.354874 -9.08748 24.5607
4933652 9.34783 10.2654 2.50031 2.05834 0.491884 -9.34221 24.1719
4933662 9.33043 10.3495 2.45846 2.02091 0.6017 -9.43769 24.1593
4933683 9.26957 10.3868 2.37477 1.92735 0.698948 -9.61303 23.9585
4933693 9.31304 10.3681 2.37477 1.90864 0.614408 -9.63782 23.9646
4933703 9.31304 10.3681 2.37477 1.90864 0.614408 -9.63782 23.9646
4933713 9.31304 10.4055 2.41662 1.918 0.617206 -9.59371 24.0532
4933723 9.31304 10.4055 2.41662 1.918 0.617206 -9.59371 24.0532
4933733 9.36522 10.4896 2.36431 1.92735 0.711685 -9.66796 24.1464
4933743 9.44348 10.6297 2.448 2.02091 0.773269 -9.53724 24.5421
4933753 9.44348 10.6297 2.448 2.02091 0.773269 -9.53724 24.5421
4933766 9.53913 10.7698 2.39569 1.98349 0.828785 -9.67859 24.6881
4933773 9.55652 10.8912 2.40615 1.93671 0.872549 -9.74454 24.7906
4933783 9.55652 10.8912 2.40615 1.93671 0.872549 -9.74454 24.7906
4933793 9.66087 10.9659 2.37477 1.90864 0.84196 -9.84138 24.9102
4933803 9.66087 10.9659 2.37477 1.90864 0.84196 -9.84138 24.9102
4933814 9.64348 10.9473 2.30154 1.86186 0.872678 -9.9543 24.7541
4933823 9.58261 11.0033 2.30154 1.86186 0.990948 -9.95331 24.7493
4933843 9.54783 10.9846 2.18646 1.8525 1.12207 -10.0687 24.5714
4933855 9.50435 10.9846 2.11323 1.71216 1.10963 -10.2801 24.3144
4933866 9.50435 11.0033 2.11323 1.71216 1.12797 -10.2837 24.333
4933875 9.52174 11.0593 2.14462 1.74023 1.15796 -10.2364 24.4659
4933883 9.52174 11.0593 2.14462 1.74023 1.15796 -10.2364 24.4659
4933895 9.51304 11.0126 2.08185 1.70281 1.15234 -10.3296 24.3103
4933904 9.50435 11.0874 2.10277 1.71216 1.2214 -10.3108 24.4066
4933924 9.46957 11.1341 2.05046 1.67474 1.32433 -10.4064 24.3288
4933934 9.47826 11.1808 2.02954 1.65603 1.36477 -10.4583 24.3446
4933945 9.47826 11.1808 2.02954 1.65603 1.36477 -10.4583 24.3446
4933956 9.44348 11.1808 2.04 1.71216 1.44551 -10.3822 24.3764
4933975 9.43478 11.05 2.06092 1.70281 1.29606 -10.3436 24.2485
4933985 9.48696 11.1434 2.02954 1.73088 1.3917 -10.3748 24.3908
4933996 9.48696 11.1434 2.02954 1.73088 1.3917 -10.3748 24.3908
4934005 9.44348 11.0967 2.01908 1.59989 1.27699 -10.5061 24.1591
4934015 9.46087 11.1154 2.10277 1.71216 1.29546 -10.3078 24.3912
4934026 9.46087 11.1154 2.10277 1.71216 1.29546 -10.3078 24.3912
4934035 9.48696 11.0874 2.14462 1.68409 1.16777 -10.2932 24.403
4934056 9.41739 11.05 2.07138 1.72152 1.32185 -10.3097 24.2603
4934065 9.46087 10.9473 2.10277 1.67474 1.09399 -10.3144 24.1856
4934078 9.46087 10.9473 2.10277 1.67474 1.09399 -10.3144 24.1856
4934087 9.47826 10.994 2.13415 1.64667 1.05988 -10.3233 24.253
4934097 9.50435 10.9753 2.19692 1.65603 0.955543 -10.2496 24.3326
4934107 9.50435 10.9753 2.19692 1.65603 0.955543 -10.2496 24.3326
4934117 9.53043 10.9005 2.18646 1.72152 0.929755 -10.1831 24.339
4934127 9.53043 10.9005 2.18646 1.72152 0.929755 -10.1831 24.339
4934137 9.49565 10.7978 2.24923 1.68409 0.760534 -10.1294 24.2268
4934148 9.61739 10.7885 2.29108 1.70281 0.597137 -10.0894 24.3997
4934157 9.61739 10.7885 2.29108 1.70281 0.597137 -10.0894 24.3997
4934169 9.61739 10.7604 2.27015 1.64667 0.534651 -10.1634 24.2947
4934177 9.55652 10.6764 2.25969 1.59989 0.477377 -10.194 24.0925
4934189 9.55652 10.6764 2.25969 1.59989 0.477377 -10.194 24.0925
4934197 9.5913 10.6297 2.33292 1.67474 0.392285 -10.0377 24.2286
4934210 9.5913 10.6297 2.33292 1.67474 0.392285 -10.0377 24.2286
4934217 9.56522 10.4802 2.28062 1.66538 0.312373 -10.0657 23.9914
4934227 9.6087 10.5082 2.34338 1.73088 0.296634 -9.94743 24.1912
4934247 9.71304 10.4802 2.40615 1.73088 0.0944257 -9.89892 24.3303
4934257 9.6087 10.3868 2.50031 1.77766 0.0571251 -9.71279 24.2735
4934276 9.6087 10.3868 2.50031 1.77766 0.0571251 -9.71279 24.2735
4934284 9.66957 10.3121 2.55262 1.73088 -0.184646 -9.70414 24.2651
4934294 9.66957 10.3121 2.55262 1.73088 -0.184646 -9.70414 24.2651
4934300 9.65217 10.2654 2.60492 1.75894 -0.239657 -9.60839 24.2814
4934308 9.64348 10.1066 2.63631 1.82444 -0.360125 -9.47262 24.2108
4934330 9.53913 10.0132 2.65723 1.82444 -0.373156 -9.40584 24.034
4934339 9.46957 9.88242 2.84554 1.95542 -0.494002 -9.0368 24.1529
4934354 9.46957 9.88242 2.84554 1.95542 -0.494002 -9.0368 24.1529
4934359 9.4087 9.77967 3.09662 2.03963 -0.705062 -8.66538 24.3246
4934379 9.32174 9.59286 3.32677 2.19868 -0.876606 -8.21755 24.44
4934389 9.29565 9.53681 3.76615 2.46065 -1.06183 -7.54551 25.0593
4934401 9.29565 9.53681 3.76615 2.46065 -1.06183 -7.54551 25.0593
4934409 9.28696 9.47143 4.16369 2.74133 -1.20589 -6.92817 25.6634
4934419 9.2 9.37802 4.54031 2.97523 -1.32892 -6.35932 26.0936
4934429 9.2 9.37802 4.54031 2.97523 -1.32892 -6.35932 26.0936
4934439 8.88696 9.18187 4.73908 3.05944 -1.3383 -5.95557 25.8673
4934449 8.88696 9.18187 4.73908 3.05944 -1.3383 -5.95557 25.8673
4934459 8.45217 8.70549 4.93785 3.19042 -1.47721 -5.35638 25.2859
4934469 8.17391 8.43462 5.17846 3.32141 -1.58946 -4.84419 25.1084
4934479 8.17391 8.43462 5.17846 3.32141 -1.58946 -4.84419 25.1084
4934489 7.74783 8.03297 5.53415 3.48982 -1.77304 -4.086 24.8048
4934500 7.33913 7.51923 5.97354 3.83599 -1.9838 -3.07008 24.6679
4934510 7.33913 7.51923 5.97354 3.83599 -1.9838 -3.07008 24.6679
4934521 6.97391 7.1456 6.65354 4.28509 -2.19166 -1.90411 25.0581
4934543 6.6087 6.86538 7.30215 4.78096 -2.21514 -0.816386 25.5572
4934550 6.26957 6.56648 7.74154 5.11778 -2.26388 0.0135809 25.6954
4934563 6.26957 6.56648 7.74154 5.11778 -2.26388 0.0135809 25.6954
4934570 5.97391 6.35165 7.91938 5.33297 -2.15878 0.54351 25.5779
4934580 5.78261 6.07143 8.16 5.60429 -2.21217 1.11849 25.6183
4934590 5.78261 6.07143 8.16 5.60429 -2.21217 1.11849 25.6183
4934600 5.56522 5.93132 8.35877 5.86626 -2.06675 1.59117 25.7216
4934620 5.37391 5.57637 8.53662 6.10016 -2.18273 2.16115 25.5871
4934630 5.18261 5.40824 8.85046 6.47441 -2.07444 2.74005 25.9157
4934640 5.18261 5.40824 8.85046 6.47441 -2.07444 2.74005 25.9157
4934650 4.85217 5.07198 9.02831 6.71767 -2.03626 3.4019 25.6701
4934660 4.68696 4.87582 9.26892 6.9235 -2.09332 3.86115 25.7552
4934670 4.68696 4.87582 9.26892 6.9235 -2.09332 3.86115 25.7552
4934680 4.48696 4.57692 9.53046 7.05449 -2.32565 4.39848 25.6488
4934700 4.38261 4.25934 9.63508 7.10127 -2.61747 4.78424 25.3783
4934714 4.34783 4.09121 9.90708 7.1574 -2.94694 5.07309 25.5035
4934722 4.34783 4.09121 9.90708 7.1574 -2.94694 5.07309 25.5035
4934732 4.1913 3.9978 10.1058 7.20418 -3.03458 5.36543 25.4991
4934742 4.07826 3.76429 10.3465 7.3071 -3.28809 5.77207 25.4961
4934762 4.07826 3.77363 10.5662 7.27903 -3.49433 5.83333 25.6971
4934782 4.03478 3.6522 10.6185 7.34452 -3.56387 6.00937 25.65
4934792 3.98261 3.62418 10.6394 7.26968 -3.65277 6.0564 25.5158
4934802 3.98261 3.62418 10.6394 7.26968 -3.65277 6.0564 25.5158
4934812 4.02609 3.63352 10.7649 7.24161 -3.81425 6.04703 25.6661
4934822 4.02609 3.63352 10.7649 7.24161 -3.81425 6.04703 25.6661
4934830 4.01739 3.67088 10.744 7.19483 -3.80036 5.99984 25.6271
4934842 4.04348 3.68956 10.7963 7.11062 -3.93878 5.95197 25.64
4934850 4.04348 3.68956 10.7963 7.11062 -3.93878 5.95197 25.64
4934863 4.12174 3.67088 10.8591 7.11998 -4.0645 5.92885 25.7717
4934872 4.15652 3.66154 10.8591 7.11062 -4.11381 5.90492 25.7878
4934884 4.15652 3.66154 10.8591 7.11062 -4.11381 5.90492 25.7878
4934892 4.1913 3.6522 10.8905 7.0732 -4.22012 5.88218 25.8072
4934904 4.1913 3.6522 10.8905 7.0732 -4.22012 5.88218 25.8072
4934911 4.24348 3.68956 10.7963 6.97964 -4.25006 5.74288 25.709
4934930 4.24348 3.6989 10.9009 6.91414 -4.3981 5.74942 25.7574
4934934 4.24348 3.6989 10.9009 6.91414 -4.3981 5.74942 25.7574
4934942 4.29565 3.76429 10.8486 6.88608 -4.35547 5.62603 25.7946
4934952 4.32174 3.81099 10.7858 6.7738 -4.40091 5.50373 25.6924
4934962 4.32174 3.81099 10.7858 6.7738 -4.40091 5.50373 25.6924
4934972 4.35652 3.82033 10.6498 6.7738 -4.30874 5.41794 25.6005
4934982 4.35652 3.82033 10.6498 6.7738 -4.30874 5.41794 25.6005
4934993 4.35652 3.80165 10.6812 6.72702 -4.40918 5.42709 25.5664
4935003 4.38261 3.9044 10.6812 6.75509 -4.2805 5.33523 25.7233
4935023 4.38261 3.91374 10.4825 6.73638 -4.12985 5.2454 25.5152
4935035 4.4 3.96978 10.472 6.85801 -3.93409 5.22975 25.6998
4935043 4.4 3.96978 10.472 6.85801 -3.93409 5.22975 25.6998
4935056 4.41739 3.9511 10.3883 6.81123 -3.95354 5.18091 25.568
4935063 4.4087 3.9511 10.3465 6.81123 -3.91186 5.17168 25.5175
4935073 4.4087 4.04451 10.3465 6.87672 -3.73294 5.12337 25.6764
4935083 4.4 4.00714 10.336 6.97028 -3.6543 5.19134 25.7134
4935093 4.4 4.00714 10.336 6.97028 -3.6543 5.19134 25.7134
4935106 4.4 3.93242 10.2523 6.94221 -3.6997 5.2075 25.5269
4935123 4.36522 4.04451 10.2 6.97964 -3.45952 5.14076 25.5894
4935133 4.38261 4.04451 10.1895 6.97028 -3.47576 5.11943 25.5869
4935143 4.38261 4.04451 10.1895 6.97028 -3.47576 5.11943 25.5869
4935153 4.35652 4.08187 10.1372 6.97028 -3.36806 5.09032 25.5459
4935165 4.36522 4.14725 10.064 7.04513 -3.15831 5.03286 25.6216
4935174 4.36522 4.14725 10.064 7.04513 -3.15831 5.03286 25.6216
4935185 4.28696 4.10055 9.98031 7.04513 -3.07086 5.09854 25.4129
4935194 4.33043 4.17527 9.98031 7.09191 -2.97479 5.02377 25.5779
4935214 4.32174 4.2967 9.89662 7.00771 -2.85426 4.8697 25.5228
4935226 4.32174 4.2967 9.76062 7.00771 -2.73563 4.81543 25.3868
4935234 4.33913 4.27802 9.76062 6.98899 -2.79177 4.80892 25.3668
4935247 4.51304 4.46484 9.56185 6.85801 -2.70895 4.39526 25.3977
4935255 4.51304 4.46484 9.56185 6.85801 -2.70895 4.39526 25.3977
4935269 4.74783 4.77308 9.04923 6.60539 -2.40172 3.65457 25.1755
4935275 5.08696 5.1 8.69354 6.3902 -2.26576 2.9066 25.2707
4935295 5.38261 5.3989 8.19138 6.03467 -2.13977 2.0661 25.0076
4935306 5.38261 5.3989 8.19138 6.03467 -2.13977 2.0661 25.0076
4935315 5.77391 5.66978 7.68923 5.81948 -1.97764 1.24138 24.9524
4935326 6.13043 6.09945 7.23938 5.57622 -1.69107 0.350795 25.0455
4935335 6.13043 6.09945 7.23938 5.57622 -1.69107 0.350795 25.0455
4935346 6.52174 6.49176 6.78954 5.16456 -1.65711 -0.636465 24.9676
4935355 6.85217 6.83736 6.29785 4.94937 -1.36675 -1.46911 24.9368
4935365 6.85217 6.83736 6.29785 4.94937 -1.36675 -1.46911 24.9368
4935377 7.17391 7.20165 5.81662 4.56577 -1.23507 -2.41933 24.7579
4935386 7.17391 7.20165 5.81662 4.56577 -1.23507 -2.41933 24.7579
4935395 7.4 7.55659 5.34585 4.26637 -0.939077 -3.2629 24.5688
4935406 7.78261 8.03297 4.90646 3.89213 -0.775948 -4.27619 24.6142
4935416 7.78261 8.03297 4.90646 3.89213 -0.775948 -4.27619 24.6142
4935426 8.17391 8.53736 4.41477 3.48982 -0.570263 -5.36647 24.6159
4935438 8.46957 8.92967 3.93354 3.10622 -0.375642 -6.35837 24.439
4935448 8.46957 8.92967 3.93354 3.10622 -0.375642 -6.35837 24.439
4935459 8.77391 9.36868 3.46277 2.74133 -0.130066 -7.35531 24.3467
4935466 8.77391 9.36868 3.46277 2.74133 -0.130066 -7.35531 24.3467
4935480 8.96522 9.74231 3.04431 2.47936 0.218877 -8.16129 24.2312
4935487 9.13043 10.0319 2.86646 2.29224 0.336346 -8.63673 24.321
4935500 9.13043 10.0319 2.86646 2.29224 0.336346 -8.63673 24.321
4935507 9.26087 10.2093 2.67815 2.07705 0.358474 -9.1113 24.2254
4935521 9.33913 10.4055 2.584 1.93671 0.431761 -9.4109 24.2653
4935537 9.48696 10.583 2.40615 1.89928 0.604236 -9.70108 24.3754
4935546 9.48696 10.583 2.40615 1.89928 0.604236 -9.70108 24.3754
4935556 9.49565 10.667 2.33292 1.83379 0.690779 -9.86212 24.3294
4935574 9.47826 10.6764 2.23877 1.71216 0.696424 -10.083 24.1056
4935578 9.47826 10.6764 2.23877 1.71216 0.696424 -10.083 24.1056
4935588 9.51304 10.7885 2.20738 1.69345 0.786582 -10.1647 24.2023
4935598 9.50435 10.8819 2.11323 1.59989 0.896478 -10.3777 24.0993
4935619 9.53043 10.9473 2.09231 1.59989 0.956148 -10.4172 24.1699
4935629 9.45217 10.9005 2.00862 1.60925 1.09406 -10.4721 23.9706
4935639 9.45217 10.9005 2.00862 1.60925 1.09406 -10.4721 23.9706
4935649 9.50435 10.9286 2.09231 1.6186 0.984225 -10.389 24.1438
4935669 9.53913 10.9846 2.11323 1.67474 1.0355 -10.3257 24.3117
4935679 9.64348 11.0874 2.13415 1.60925 0.93872 -10.4114 24.4742
4935698 9.73043 11.1808 2.09231 1.62796 1.00074 -10.4689 24.6315
4935719 9.76522 11.1341 2.08185 1.58118 0.883648 -10.526 24.5623
4935733 9.82609 11.078 2.08185 1.6186 0.801364 -10.4881 24.6046
4935739 9.82609 11.078 2.08185 1.6186 0.801364 -10.4881 24.6046
4935749 9.83478 11.1527 2.10277 1.59989 0.825313 -10.5011 24.6902
4935761 9.84348 11.0313 2.10277 1.58118 0.678217 -10.4998 24.5587
4935779 9.76522 10.9473 2.11323 1.56247 0.647104 -10.4785 24.3882
4935789 9.73043 10.9473 1.99815 1.48762 0.730732 -10.6723 24.1635
4935800 9.73043 10.9192 1.99815 1.48762 0.702554 -10.6672 24.1354
4935811 9.73043 10.8165 2.12369 1.56247 0.541434 -10.4366 24.2331
4935821 9.73043 10.8165 2.12369 1.56247 0.541434 -10.4366 24.2331
4935831 9.68696 10.7604 2.14462 1.5344 0.480041 -10.4253 24.1264
4935840 9.71304 10.7418 2.11323 1.59053 0.523645 -10.4007 24.1586
4935861 9.69565 10.7324 2.06092 1.6186 0.616446 -10.4211 24.1076
4935872 9.74783 10.7137 2.09231 1.58118 0.471079 -10.4338 24.135
4935881 9.74783 10.7137 2.09231 1.58118 0.471079 -10.4338 24.135
4935891 9.87826 10.7511 2.15508 1.57182 0.297236 -10.4095 24.3563
4935900 9.87826 10.7511 2.15508 1.57182 0.297236 -10.4095 24.3563
4935910 9.82609 10.7604 2.176 1.60925 0.377074 -10.3406 24.3718
4935922 9.86087 10.6951 2.21785 1.56247 0.183684 -10.3399 24.3362
4935931 9.86087 10.6951 2.21785 1.56247 0.183684 -10.3399 24.3362
4935941 9.89565 10.8165 2.16554 1.62796 0.390983 -10.356 24.5056
4935950 9.89565 10.8165 2.16554 1.62796 0.390983 -10.356 24.5056
4935964 9.86087 10.8071 2.15508 1.58118 0.381467 -10.407 24.4043
4935973 9.91304 10.8258 2.25969 1.63731 0.294694 -10.2545 24.6359
4935980 9.91304 10.8258 2.25969 1.63731 0.294694 -10.2545 24.6359
4935992 9.93044 10.8445 2.15508 1.54375 0.309259 -10.466 24.4738
4936002 9.91304 10.7231 2.15508 1.60925 0.270694 -10.3718 24.4004
4936022 9.89565 10.8725 2.15508 1.59053 0.420511 -10.4161 24.5138
4936032 9.76522 10.8538 2.11323 1.56247 0.553477 -10.4611 24.2948
4936043 9.76522 10.8538 2.11323 1.56247 0.553477 -10.4611 24.2948
4936053 9.81739 10.8258 2.176 1.54375 0.386024 -10.4196 24.363
4936063 9.81739 10.8258 2.176 1.54375 0.386024 -10.4196 24.363
4936076 9.8087 10.6951 2.13415 1.54375 0.305977 -10.4372 24.1817
4936083 9.71304 10.6764 2.13415 1.57182 0.416055 -10.3859 24.0954
4936103 9.72174 10.6857 2.06092 1.55311 0.474742 -10.4865 24.0215
4936113 9.68696 10.5736 2.13415 1.54375 0.309411 -10.3908 23.9385
4936123 9.68696 10.5736 2.13415 1.54375 0.309411 -10.3908 23.9385
4936134 9.71304 10.6577 2.15508 1.58118 0.384483 -10.3504 24.107
4936144 9.71304 10.6577 2.15508 1.58118 0.384483 -10.3504 24.107
4936154 9.67826 10.7044 2.18646 1.6186 0.473663 -10.2806 24.1877
4936164 9.7913 10.6857 2.20738 1.59989 0.295371 -10.2966 24.2843
4936178 9.7913 10.6857 2.20738 1.59989 0.295371 -10.2966 24.2843
4936185 9.83478 10.7511 2.23877 1.62796 0.312346 -10.2561 24.4526
4936194 9.81739 10.7791 2.25969 1.60925 0.318083 -10.2558 24.4655
4936214 9.84348 10.7791 2.30154 1.66538 0.304484 -10.1602 24.5895
4936234 9.93913 10.8165 2.27015 1.65603 0.266618 -10.2278 24.6818
4936244 9.9913 10.8165 2.30154 1.68409 0.209463 -10.1774 24.7934
4936254 9.9913 10.8165 2.30154 1.68409 0.209463 -10.1774 24.7934
4936264 9.91304 10.7791 2.24923 1.68409 0.305516 -10.2082 24.6255
4936274 9.85217 10.6577 2.19692 1.6186 0.233498 -10.2944 24.3254
4936286 9.85217 10.6577 2.19692 1.6186 0.233498 -10.2944 24.3254
4936295 9.86957 10.5363 2.27015 1.58118 -0.0229597 -10.2369 24.2572
4936305 9.86957 10.5363 2.27015 1.58118 -0.0229597 -10.2369 24.2572
4936315 9.86087 10.5082 2.28062 1.62796 -0.00544041 -10.1702 24.2777
4936326 9.82609 10.4335 2.28062 1.60925 -0.0661895 -10.1678 24.1495
4936336 9.82609 10.4335 2.28062 1.60925 -0.0661895 -10.1678 24.1495
4936345 9.7913 10.3588 2.23877 1.57182 -0.103776 -10.2289 23.9607
4936356 9.68696 10.1626 2.33292 1.56247 -0.310357 -10.0785 23.745
4936365 9.68696 10.1626 2.33292 1.56247 -0.310357 -10.0785 23.745
4936376 9.63478 10.0786 2.312 1.58118 -0.303978 -10.0524 23.6065
4936385 9.63478 10.0786 2.312 1.58118 -0.303978 -10.0524 23.6065
4936397 9.63478 10.0319 2.29108 1.6186 -0.29202 -10.0251 23.5763
4936405 9.69565 10.0319 2.37477 1.67474 -0.382526 -9.89065 23.777
4936427 9.62609 9.87308 2.43754 1.75894 -0.455363 -9.68702 23.6956
4936437 9.49565 9.83571 2.67815 1.84315 -0.518751 -9.31347 23.8527
4936457 9.52174 9.84505 2.98154 2.09576 -0.575253 -8.76868 24.4441
4936467 9.52174 9.84505 2.98154 2.09576 -0.575253 -8.76868 24.4441
4936478 9.37391 9.77967 3.37908 2.35773 -0.618298 -8.08551 24.8904
4936487 9.26087 9.74231 4.11138 2.79747 -0.803179 -7.00118 25.912
4936499 9.26087 9.74231 4.11138 2.79747 -0.803179 -7.00118 25.912
4936507 9.03478 9.65824 4.77046 3.26527 -0.8247 -5.9808 26.7288
4936517 8.5913 9.24725 5.34585 3.6208 -0.997096 -4.96466 26.8052
4936528 8.5913 9.24725 5.34585 3.6208 -0.997096 -4.96466 26.8052
4936538 8.01739 8.85495 5.77477 3.7705 -1.10411 -4.16033 26.4176
4936548 8.01739 8.85495 5.77477 3.7705 -1.10411 -4.16033 26.4176
4936558 7.42609 8.22912 6.13046 3.95762 -1.33026 -3.24383 25.7433
4936568 6.7913 7.63132 6.62215 4.21959 -1.5462 -2.12604 25.2644
4936578 6.7913 7.63132 6.62215 4.21959 -1.5462 -2.12604 25.2644
4936588 6.22609 7.01484 7.21846 4.60319 -1.82196 -0.849436 25.0626
4936598 5.78261 6.51044 7.98215 5.09906 -2.12347 0.465928 25.3743
4936609 5.78261 6.51044 7.98215 5.09906 -2.12347 0.465928 25.3743
4936618 5.33913 6.03407 8.59938 5.60429 -2.24828 1.65998 25.5769
4936629 5.33913 6.03407 8.59938 5.60429 -2.24828 1.65998 25.5769
4936638 5.09565 5.56703 9.14338 6.03467 -2.55153 2.62108 25.8407
4936651 4.77391 5.21209 9.45723 6.34342 -2.59401 3.38236 25.7867
4936658 4.77391 5.21209 9.45723 6.34342 -2.59401 3.38236 25.7867
4936668 4.63478 5.01593 9.76062 6.53054 -2.74548 3.83961 25.9419
4936678 4.53043 4.76374 9.86523 6.70831 -2.82555 4.22111 25.8677
4936688 4.53043 4.76374 9.86523 6.70831 -2.82555 4.22111 25.8677
4936698 4.38261 4.57692 10.0431 6.84865 -2.90132 4.6026 25.8513
4936709 4.38261 4.57692 10.0431 6.84865 -2.90132 4.6026 25.8513
4936722 4.28696 4.38077 10.0431 6.81123 -3.07385 4.81148 25.522
4936729 4.1913 4.26868 10.1791 6.95157 -3.07743 5.08232 25.5906
4936740 4.1913 4.26868 10.1791 6.95157 -3.07743 5.08232 25.5906
4936749 4.16522 4.18462 10.1582 6.9235 -3.1607 5.1502 25.4315
4936763 4.14783 4.10055 10.2732 7.01706 -3.23377 5.31072 25.5387
4936779 4.09565 3.98846 10.3151 7.09191 -3.2662 5.48596 25.4911
4936789 4.09565 3.98846 10.3151 7.09191 -3.2662 5.48596 25.4911
4936799 4.06087 3.94176 10.3465 7.19483 -3.2011 5.60133 25.5439
4936810 4.08696 3.96044 10.4302 7.24161 -3.22237 5.61315 25.7192
4936819 4.08696 3.96044 10.4302 7.24161 -3.22237 5.61315 25.7192
4936830 4.04348 3.9044 10.4615 7.31646 -3.1915 5.73166 25.7259
4936839 4.11304 3.85769 10.5034 7.31646 -3.33676 5.72832 25.7906
4936855 4.11304 3.85769 10.5034 7.31646 -3.33676 5.72832 25.7906
4936859 4.08696 3.87637 10.4511 7.35388 -3.20916 5.72892 25.7683
4936875 4.08696 3.87637 10.4511 7.35388 -3.20916 5.72892 25.7683
4936881 4.06957 3.78297 10.4511 7.33517 -3.31773 5.81173 25.6388
4936890 4.01739 3.82967 10.5348 7.36324 -3.26204 5.85604 25.7451
4936901 4.01739 3.82967 10.5348 7.36324 -3.26204 5.85604 25.7451
4936913 4 3.84835 10.4197 7.41002 -3.07785 5.83067 25.6781
4936921 4.02609 3.9044 10.5034 7.41002 -3.11008 5.79417 25.8439
4936930 4.02609 3.9044 10.5034 7.41002 -3.11008 5.79417 25.8439
4936942 4.03478 3.87637 10.5138 7.4568 -3.10591 5.83005 25.8818
4936952 4.03478 3.87637 10.5138 7.4568 -3.10591 5.83005 25.8818
4936963 3.97391 3.77363 10.5452 7.4568 -3.19299 5.97359 25.7496
4936972 3.97391 3.77363 10.5034 7.4568 -3.15749 5.9589 25.7077
4936992 3.90435 3.77363 10.4511 7.44744 -3.06371 5.9941 25.5765
4937002 3.86087 3.78297 10.4511 7.541 -2.91386 6.05493 25.6359
4937023 3.87826 3.82967 10.4302 7.55971 -2.83977 6.00165 25.6978
4937033 3.88696 3.73626 10.4615 7.60649 -2.92486 6.09827 25.6913
4937043 3.88696 3.73626 10.4615 7.60649 -2.92486 6.09827 25.6913
4937053 3.84348 3.82967 10.4825 7.68134 -2.72374 6.0905 25.837
4937075 3.83478 3.76429 10.472 7.70941 -2.74732 6.15718 25.7805
4937083 3.76522 3.75495 10.4825 7.6907 -2.72642 6.21932 25.6933
4937104 3.7913 3.77363 10.3883 7.73748 -2.59676 6.16615 25.6907
4937114 3.8087 3.77363 10.3778 7.73748 -2.6028 6.14823 25.6976
4937125 3.8087 3.77363 10.3778 7.73748 -2.6028 6.14823 25.6976
4937136 3.88696 3.85769 10.2628 7.78426 -2.4308 5.99169 25.7917
4937156 3.85217 3.87637 10.0954 7.79362 -2.22266 5.94931 25.6175
4937166 3.87826 3.83901 10.0745 7.82168 -2.23714 5.96106 25.6134
4937175 3.87826 3.83901 10.0745 7.82168 -2.23714 5.96106 25.6134
4937187 3.94783 3.84835 9.86523 7.76555 -2.16223 5.80168 25.427
4937196 4.02609 3.97912 9.71877 7.84975 -1.873 5.60926 25.5737
4937215 4.13043 3.96978 9.85477 7.83104 -2.1178 5.57604 25.786
4937236 4.11304 3.98846 9.77108 7.8404 -1.99827 5.54776 25.713
4937245 4.08696 4.01648 9.76062 7.93396 -1.83845 5.57667 25.798
4937255 4.08696 4.01648 9.76062 7.93396 -1.83845 5.57667 25.798
4937265 4.05217 4.04451 9.71877 7.88718 -1.78898 5.54959 25.7026
4937276 4.0087 3.96044 9.62462 7.9246 -1.71276 5.63129 25.5184
4937285 4.0087 3.96044 9.62462 7.9246 -1.71276 5.63129 25.5184
4937295 4.07826 3.98846 9.58277 7.95267 -1.67945 5.54761 25.6022
4937305 4.07826 3.98846 9.58277 7.95267 -1.67945 5.54761 25.6022
4937316 4.06957 3.96978 9.45723 7.9246 -1.60537 5.51262 25.4212
4937326 4.08696 4.02582 9.50954 7.98074 -1.55248 5.49397 25.6031
4937338 4.08696 4.02582 9.50954 7.98074 -1.55248 5.49397 25.6031
4937347 4.08696 4.03516 9.37354 7.85911 -1.5443 5.38983 25.3548
4937361 4.13913 4.06319 9.21662 7.89653 -1.37863 5.27987 25.3155
4937367 4.13913 4.06319 9.21662 7.89653 -1.37863 5.27987 25.3155
4937377 4.30435 4.24066 9.02831 7.75619 -1.31843 4.87938 25.3295
4937387 4.30435 4.24066 9.02831 7.75619 -1.31843 4.87938 25.3295
4937397 4.34783 4.31538 8.93415 7.58778 -1.36868 4.68057 25.1851
4937409 4.53913 4.57692 8.63077 7.44744 -1.1367 4.14508 25.1943
4937427 4.82609 4.96923 8.31692 7.16676 -0.995907 3.37535 25.279
4937436 5.04348 5.24945 7.94031 6.99835 -0.729232 2.76185 25.2316
4937448 5.04348 5.24945 7.94031 6.99835 -0.729232 2.76185 25.2316
4937457 5.33913 5.55769 7.65785 6.71767 -0.71384 2.06472 25.2723
4937486 5.57391 5.75385 7.23938 6.4557 -0.603203 1.4191 25.0228
4937493 5.88696 6.23022 6.8 6.17501 -0.280689 0.512812 25.0922
4937508 6.12174 6.49176 6.48615 5.86626 -0.250213 -0.156862 24.9659
4937518 6.37391 6.76264 6.10954 5.57622 -0.145623 -0.876703 24.8223
4937528 6.37391 6.76264 6.10954 5.57622 -0.145623 -0.876703 24.8223
4937538 6.54783 7.0522 5.76431 5.28619 0.0266224 -1.55141 24.6505
4937549 6.54783 7.0522 5.76431 5.28619 0.0266224 -1.55141 24.6505
4937558 6.72174 7.18297 5.51323 5.09906 0.0479877 -2.01436 24.517
4937568 6.91304 7.3978 5.34585 4.84645 -0.0149339 -2.52124 24.5031
4937580 6.91304 7.3978 5.34585 4.84645 -0.0149339 -2.52124 24.5031
4937588 7.17391 7.6967 5.08431 4.6874 0.127706 -3.10375 24.6423
4937601 7.33913 7.9022 4.84369 4.52834 0.251609 -3.57689 24.6134
4937608 7.33913 7.9022 4.84369 4.52834 0.251609 -3.57689 24.6134
4937618 7.50435 8.04231 4.69723 4.34122 0.185019 -3.97082 24.5851
4937628 7.50435 8.04231 4.69723 4.34122 0.185019 -3.97082 24.5851
4937638 7.66957 8.13571 4.56123 4.25702 0.16441 -4.25631 24.6235
4937649 7.83478 8.33187 4.51938 4.08861 0.0669122 -4.57645 24.7746
4937659 7.83478 8.33187 4.51938 4.08861 0.0669122 -4.57645 24.7746
4937671 8.13043 8.46264 4.32062 3.85471 -0.134957 -5.09788 24.7684
4937679 8.32174 8.65879 4.09046 3.65823 -0.0962228 -5.59976 24.7292
4937699 8.50435 8.8456 3.944 3.39626 -0.209078 -6.08117 24.6902
4937709 8.50435 8.8456 3.944 3.39626 -0.209078 -6.08117 24.6902
4937719 8.64348 8.92967 3.81846 3.153 -0.386307 -6.47903 24.5446
4937729 8.78261 8.98571 3.60923 2.96588 -0.452121 -6.89706 24.3434
4937739 8.78261 8.98571 3.60923 2.96588 -0.452121 -6.89706 24.3434
4937749 9.01739 9.18187 3.49415 2.78811 -0.553036 -7.30163 24.4815
4937760 9.27826 9.32198 3.30585 2.63841 -0.635292 -7.73451 24.5445
4937769 9.27826 9.32198 3.30585 2.63841 -0.635292 -7.73451 24.5445
4937784 9.46087 9.51813 3.13846 2.47001 -0.621447 -8.15692 24.5875
4937789 9.46087 9.51813 3.13846 2.47001 -0.621447 -8.15692 24.5875
4937804 9.63478 9.65824 3.02338 2.22675 -0.78757 -8.58257 24.5432
4937810 9.81739 9.8544 2.79323 2.13319 -0.633216 -8.99174 24.5982
4937820 9.81739 9.8544 2.79323 2.13319 -0.633216 -8.99174 24.5982
4937831 9.93913 10.0038 2.74092 1.96478 -0.721572 -9.27267 24.6487
4937840 10.0261 10.0879 2.52123 1.74959 -0.727725 -9.74572 24.3848
4937850 10.0261 10.0879 2.52123 1.74959 -0.727725 -9.74572 24.3848
4937863 10.1217 10.228 2.39569 1.69345 -0.609644 -9.98037 24.4389
4937870 10.1217 10.228 2.39569 1.69345 -0.609644 -9.98037 24.4389
4937880 10.1478 10.2467 2.27015 1.55311 -0.638133 -10.2639 24.2178
4937892 10.2 10.3588 2.19692 1.4689 -0.587447 -10.4602 24.2246
4937900 10.2 10.3588 2.19692 1.4689 -0.587447 -10.4602 24.2246
4937915 10.2435 10.4429 2.07138 1.41277 -0.474997 -10.6755 24.1705
4937931 10.3217 10.5363 1.94585 1.30985 -0.43696 -10.9496 24.1137
4937940 10.3478 10.611 1.94585 1.235 -0.463636 -11.0469 24.1397
4937952 10.3478 10.611 1.94585 1.235 -0.463636 -11.0469 24.1397
4937962 10.3217 10.6577 1.86215 1.26307 -0.272904 -11.1104 24.1047
4937973 10.3391 10.7044 1.89354 1.24436 -0.293526 -11.1071 24.1814
4937983 10.3391 10.7044 1.89354 1.24436 -0.293526 -11.1071 24.1814
4937992 10.2957 10.6577 1.86215 1.19758 -0.31497 -11.1774 24.0131
4938004 10.2174 10.6577 1.80985 1.14144 -0.239339 -11.284 23.8264
4938012 10.2174 10.6577 1.80985 1.14144 -0.239339 -11.284 23.8264
4938026 10.2087 10.6577 1.83077 1.21629 -0.173001 -11.1774 23.9134
4938043 10.1652 10.6297 1.86215 1.22565 -0.180103 -11.1213 23.8827
4938053 10.1565 10.7231 1.904 1.19758 -0.145808 -11.12 23.9812
4938063 10.1565 10.7231 1.904 1.19758 -0.145808 -11.12 23.9812
4938073 10.1043 10.7604 1.91446 1.25371 -0.00484288 -11.0452 24.033
4938082 10.0522 10.7604 1.85169 1.24436 0.105539 -11.1152 23.9087
4938092 10.0522 10.7604 1.85169 1.24436 0.105539 -11.1152 23.9087
4938114 10.0957 10.8538 2.00862 1.30985 0.0612229 -10.8977 24.268
4938130 10.0957 10.8538 2.00862 1.30985 0.0612229 -10.8977 24.268
4938138 10.1478 10.8445 1.99815 1.34728 0.0470459 -10.8762 24.3378
4938139 10.113 10.9286 2.02954 1.36599 0.155479 -10.8315 24.4371
4938144 10.113 10.9286 2.02954 1.36599 0.155479 -10.8315 24.4371
4938154 10.2261 10.9753 2.04 1.36599 0.0763744 -10.8476 24.6074
4938164 10.1391 10.9379 2.11323 1.30985 -0.00469089 -10.8085 24.5001
4938185 10.1652 10.9566 2.08185 1.40341 0.114745 -10.7509 24.6071
4938207 10.1478 10.9753 2.11323 1.36599 0.0815034 -10.7575 24.6023
4938214 10.1565 10.8819 2.10277 1.45019 0.0739753 -10.6656 24.5914
4938236 10.0783 10.8725 2.04 1.42212 0.180632 -10.7455 24.4129
4938250 10.1478 10.8725 2.09231 1.40341 0.0365108 -10.7223 24.5161
4938257 10.1478 10.8725 2.09231 1.40341 0.0365108 -10.7223 24.5161
4938267 10.113 10.7978 2.12369 1.40341 -0.0363395 -10.6701 24.438
4938276 10.113 10.8258 2.10277 1.41277 0.0232875 -10.6872 24.4544
4938297 10.1217 10.7324 2.16554 1.43148 -0.12615 -10.5867 24.4512
4938307 10.1217 10.7324 2.16554 1.43148 -0.12615 -10.5867 24.4512
4938319 10 10.6577 2.13415 1.4689 -0.00778735 -10.5446 24.2607
4938327 10 10.5923 2.18646 1.44084 -0.158256 -10.507 24.2196
4938337 10 10.5923 2.18646 1.44084 -0.158256 -10.507 24.2196
4938347 10.0435 10.5923 2.12369 1.43148 -0.148176 -10.5911 24.191
4938357 10.1217 10.5923 2.14462 1.44084 -0.239931 -10.5734 24.2995
4938378 10.1304 10.5643 2.25969 1.49697 -0.336249 -10.3909 24.4514
4938389 10.1304 10.5643 2.25969 1.49697 -0.336249 -10.3909 24.4514
4938398 10.0783 10.5082 2.23877 1.45019 -0.3693 -10.4411 24.2755
4938413 10.113 10.3308 2.34338 1.50633 -0.637338 -10.246 24.2935
4938428 9.98261 10.1533 2.29108 1.42212 -0.731963 -10.3291 23.8491
4938439 9.85217 10.0038 2.38523 1.41277 -0.867495 -10.1831 23.654
4938448 9.85217 10.0038 2.38523 1.41277 -0.867495 -10.1831 23.654
4938458 9.86087 9.81703 2.584 1.48762 -1.20026 -9.8568 23.7495
4938468 9.86087 9.81703 2.584 1.48762 -1.20026 -9.8568 23.7495
4938479 9.84348 9.6022 2.81415 1.5344 -1.59812 -9.5173 23.7942
4938490 9.73913 9.37802 3.01292 1.59053 -1.87969 -9.1779 23.7206
4938502 9.73913 9.37802 3.01292 1.59053 -1.87969 -9.1779 23.7206
4938508 9.52174 9.0978 3.23262 1.75894 -2.00924 -8.65778 23.6111
4938518 9.46957 8.96703 3.56738 2.06769 -2.07944 -7.97713 24.0717
4938539 9.54783 8.89231 4.15323 2.45129 -2.35325 -7.0887 25.0447
4938559 9.41739 8.77088 4.87508 3.03137 -2.38575 -5.91029 26.0947
4938569 9.08696 8.41593 5.576 3.64887 -2.4302 -4.64574 26.7278
4938591 8.53913 7.81813 6.10954 4.13539 -2.53283 -3.44652 26.6022
4938600 7.90435 7.26703 6.68492 4.47221 -2.70622 -2.28702 26.3285
4938621 7.37391 6.79066 7.14523 4.78096 -2.8243 -1.28688 26.0908
4938641 6.75652 6.25824 7.344 4.99615 -2.80629 -0.399104 25.3549
4938650 6.26957 5.80989 7.84615 5.27683 -3.00467 0.621089 25.2024
4938662 6.26957 5.80989 7.84615 5.27683 -3.00467 0.621089 25.2024
4938671 5.85217 5.29615 8.30646 5.72592 -3.11405 1.71802 25.1807
4938682 5.46087 4.98791 8.84 6.19373 -3.06017 2.69888 25.4825
4938691 5.46087 4.98791 8.84 6.19373 -3.06017 2.69888 25.4825
4938704 5.2087 4.78242 9.248 6.56797 -3.00916 3.38561 25.8071
4938711 5.2087 4.78242 9.248 6.56797 -3.00916 3.38561 25.8071
4938720 4.93913 4.58626 9.43631 6.78316 -2.91904 3.90024 25.7449
4938730 4.89565 4.5489 9.39446 6.82994 -2.8354 3.9619 25.669
4938757 4.83478 4.48352 9.40492 6.86736 -2.82216 4.0761 25.5906
4938765 4.81739 4.38077 9.28985 6.88608 -2.79852 4.12494 25.3741
4938774 4.81739 4.38077 9.28985 6.88608 -2.79852 4.12494 25.3741
4938780 4.7913 4.46484 9.18523 6.88608 -2.59168 4.03623 25.3274
4938795 4.7913 4.46484 9.18523 6.88608 -2.59168 4.03623 25.3274
4938800 4.84348 4.47418 9.03877 6.79252 -2.60006 3.88503 25.1489
4938817 4.93913 4.57692 9.00738 6.71767 -2.62659 3.68981 25.2411
4938822 4.93913 4.57692 9.00738 6.71767 -2.62659 3.68981 25.2411
4938832 5.03478 4.72637 8.77723 6.68024 -2.38454 3.38816 25.2186
4938842 5.15652 4.8478 8.78769 6.59604 -2.46215 3.17831 25.3881
4938852 5.15652 4.8478 8.78769 6.59604 -2.46215 3.17831 25.3881
4938863 5.27826 4.95989 8.68308 6.61475 -2.3366 2.97209 25.536
4938872 5.27826 4.95989 8.68308 6.61475 -2.3366 2.97209 25.536
4938885 5.30435 5.04396 8.62031 6.48376 -2.35433 2.80274 25.4524
4938892 5.35652 5.0533 8.49477 6.49312 -2.26878 2.70383 25.3977
4938902 5.35652 5.0533 8.49477 6.49312 -2.26878 2.70383 25.3977
4938914 5.33913 5.1467 8.46338 6.46505 -2.15505 2.62211 25.4143
4938922 5.32174 5.11868 8.37969 6.41827 -2.14403 2.58983 25.2384
4938932 5.32174 5.11868 8.37969 6.41827 -2.14403 2.58983 25.2384
4938942 5.27826 5.17473 8.42154 6.52119 -1.97266 2.65187 25.3957
4938955 5.27826 5.17473 8.42154 6.52119 -1.97266 2.65187 25.3957
4938962 5.25217 5.11868 8.432 6.52119 -2.01815 2.71422 25.324
4938972 5.23478 5.1467 8.432 6.55861 -1.9327 2.72492 25.3721
4938982 5.23478 5.1467 8.432 6.55861 -1.9327 2.72492 25.3721
4938992 5.26087 5.12802 8.49477 6.58668 -2.00325 2.76354 25.4703
4939012 5.17391 5.09066 8.52615 6.5399 -2.04249 2.84329 25.3306
4939024 5.13043 5.1 8.49477 6.62411 -1.8749 2.89265 25.3493
4939043 5.09565 5.09066 8.47385 6.54926 -1.91355 2.87797 25.2094
4939053 5.15652 5.10934 8.51569 6.57733 -1.95745 2.8553 25.3589
4939073 5.2 5.15604 8.54708 6.64282 -1.90658 2.83833 25.5459
4939083 5.09565 5.09066 8.57846 6.65217 -1.8996 2.97694 25.4169
4939095 5.09565 5.09066 8.57846 6.65217 -1.8996 2.97694 25.4169
4939103 5.05217 4.99725 8.72492 6.79252 -1.94326 3.20807 25.5669
4939123 4.92174 4.92253 8.86092 6.86736 -1.94815 3.45137 25.5726
4939134 4.86957 4.81978 9.03877 7.11998 -1.90399 3.75428 25.8481
4939143 4.86957 4.81978 9.03877 7.11998 -1.90399 3.75428 25.8481
4939153 4.6087 4.58626 9.34215 7.35388 -1.94151 4.34576 25.891
4939164 4.41739 4.58626 9.46769 7.35388 -1.88279 4.54086 25.8252
4939173 4.41739 4.35275 9.46769 7.51293 -1.96053 4.78266 25.7508
4939189 4.26087 4.10055 9.52 7.56907 -2.07388 5.1439 25.4505
4939193 4.26087 4.10055 9.52 7.56907 -2.07388 5.1439 25.4505
4939203 4.13913 3.87637 9.57231 7.55971 -2.262 5.43782 25.1475
4939213 4.08696 3.83901 9.656 7.62521 -2.26001 5.56701 25.2072
4939235 4.07826 3.75495 9.64554 7.60649 -2.35433 5.63209 25.0852
4939243 4.07826 3.75495 9.64554 7.60649 -2.35433 5.63209 25.0852
4939257 4.14783 3.77363 9.66646 7.60649 -2.41538 5.56761 25.1944
4939263 4.32174 3.84835 9.52 7.50358 -2.47067 5.27126 25.1937
4939273 4.32174 3.84835 9.52 7.50358 -2.47067 5.27126 25.1937
4939285 4.5913 4.02582 9.21662 7.27903 -2.49182 4.70588 25.1128
4939293 4.93913 4.30604 8.88185 6.93286 -2.57591 3.9323 25.0599
4939314 5.36522 4.73571 8.44246 6.66153 -2.39084 2.97743 25.2049
4939334 5.81739 5.29615 7.81477 6.18437 -2.14198 1.72359 25.1127
4939350 6.46087 6.03407 7.06154 5.58558 -1.89201 0.0907946 25.1421
4939364 7.0087 6.64121 6.31877 4.90259 -1.7929 -1.46467 24.8713
4939374 7.6087 7.25769 5.61785 4.27573 -1.70953 -3.01261 24.76
4939384 7.6087 7.25769 5.61785 4.27573 -1.70953 -3.01261 24.76
4939412 8.22609 8.01429 4.82277 3.60209 -1.45192 -4.75295 24.6652
4939418 8.75652 8.01429 4.216 3.03137 -2.00563 -5.94764 24.0182
4939419 8.75652 8.67747 4.216 3.03137 -1.27999 -6.19088 24.6814
4939425 9.21739 9.16319 3.70338 2.62906 -1.14163 -7.31283 24.713
4939445 9.66087 9.57418 3.25354 2.27353 -1.07695 -8.3038 24.7621
4939456 9.88696 9.82637 2.84554 2.0022 -0.920074 -9.07875 24.5611
4939466 9.88696 9.82637 2.84554 2.0022 -0.920074 -9.07875 24.5611
4939475 10.087 10.0786 2.70954 1.75894 -0.973226 -9.55816 24.634
4939489 10.087 10.0786 2.70954 1.75894 -0.973226 -9.55816 24.634
4939496 10.1391 10.0505 2.584 1.67474 -1.02035 -9.77422 24.4484
4939511 10.1043 10.0692 2.54215 1.58118 -1.02492 -9.90882 24.2969
4939527 9.97391 10.0319 2.34338 1.48762 -0.836746 -10.1785 23.8368
4939537 9.77391 9.86374 2.28062 1.56247 -0.66898 -10.0899 23.4807
4939557 9.50435 9.67692 2.27015 1.48762 -0.664765 -10.0855 22.939
4939582 9.2 9.49945 2.18646 1.62796 -0.287661 -9.91724 22.5139
4939587 9.14783 9.45275 2.35385 1.69345 -0.392392 -9.63884 22.6479
4939607 9.12174 9.61154 2.51077 1.80572 -0.233456 -9.38195 23.0498
4939617 9.22609 9.80769 2.80369 2.03963 -0.19104 -8.91469 23.8771
4939629 9.22609 9.80769 2.80369 2.03963 -0.19104 -8.91469 23.8771
4939637 9.35652 10.1626 3.16985 2.3016 -0.0621572 -8.4318 24.9906
4939652 9.35652 10.1626 3.16985 2.3016 -0.0621572 -8.4318 24.9906
4939657 9.55652 10.3401 3.48369 2.55421 -0.140637 -8.0156 25.9345
4939667 9.74783 10.6203 3.71385 2.72262 -0.110731 -7.79624 26.8046
4939677 9.74783 10.6203 3.71385 2.72262 -0.110731 -7.79624 26.8046
4939687 9.73913 10.611 3.64062 2.65713 -0.104727 -7.91004 26.6479
4939699 9.66957 10.6203 3.32677 2.39516 0.0184089 -8.40078 26.0118
4939707 9.66957 10.6203 3.32677 2.39516 0.0184089 -8.40078 26.0118
4939723 9.56522 10.4615 3.08615 2.22675 0.0364214 -8.70998 25.3397
4939738 9.3913 10.2934 2.78277 2.02091 0.143176 -9.11515 24.4884
4939748 9.3913 10.2093 2.61538 1.84315 0.0475913 -9.44054 24.0592
4939758 9.3913 10.2093 2.61538 1.84315 0.0475913 -9.44054 24.0592
4939773 9.32174 10.0692 2.42708 1.73088 0.0544518 -9.703 23.5489
4939778 9.30435 10.0692 2.35385 1.63731 0.0517339 -9.87541 23.3647
4939788 9.30435 10.0692 2.35385 1.63731 0.0517339 -9.87541 23.3647
4939798 9.37391 10.1346 2.33292 1.6186 0.0494242 -9.94691 23.4601
4939809 9.37391 10.1346 2.33292 1.6186 0.0494242 -9.94691 23.4601
4939820 9.41739 10.2654 2.35385 1.67474 0.178066 -9.90297 23.7114
4939829 9.64348 10.3868 2.51077 1.71216 -0.0569731 -9.77645 24.2532
4939845 9.64348 10.3868 2.51077 1.71216 -0.0569731 -9.77645 24.2532
4939849 9.73913 10.5176 2.46892 1.73088 0.0413001 -9.84825 24.4565
4939859 9.89565 10.611 2.448 1.77766 0.0454783 -9.87433 24.7323
4939869 9.89565 10.611 2.448 1.77766 0.0454783 -9.87433 24.7323
4939879 9.93913 10.7604 2.48985 1.71216 0.0438005 -9.93766 24.9016
4939892 9.93913 10.7604 2.48985 1.71216 0.0438005 -9.93766 24.9016
4939899 9.98261 10.6577 2.43754 1.71216 -0.0507176 -9.97818 24.79
4939915 9.98261 10.6951 2.38523 1.69345 0.0208706 -10.0574 24.7563
4939919 9.98261 10.6951 2.38523 1.69345 0.0208706 -10.0574 24.7563
4939929 9.97391 10.6577 2.312 1.67474 0.0472397 -10.1417 24.6183
4939940 9.93044 10.5549 2.32246 1.62796 -0.0716105 -10.15 24.4358
4939949 9.93044 10.5549 2.32246 1.62796 -0.0716105 -10.15 24.4358
4939962 9.97391 10.5082 2.20738 1.57182 -0.104317 -10.3269 24.2614
4939979 9.90435 10.4335 2.25969 1.51569 -0.222741 -10.3029 24.1132
4939989 9.87826 10.2934 2.21785 1.4689 -0.349768 -10.3642 23.8584
4939999 9.87826 10.2934 2.21785 1.4689 -0.349768 -10.3642 23.8584
4940009 9.91304 10.2841 2.24923 1.52504 -0.368321 -10.2765 23.9714
4940019 9.97391 10.3121 2.312 1.45019 -0.544359 -10.3067 24.0482
4940034 9.97391 10.3121 2.312 1.45019 -0.544359 -10.3067 24.0482
4940043 10.0522 10.3868 2.33292 1.56247 -0.447741 -10.1977 24.3344
4940052 10.0522 10.3868 2.33292 1.56247 -0.447741 -10.1977 24.3344
4940059 10.113 10.4148 2.34338 1.56247 -0.49023 -10.2044 24.4337
4940069 10.1217 10.4148 2.37477 1.54375 -0.549906 -10.193 24.4551
4940089 10.1304 10.3962 2.41662 1.59989 -0.561264 -10.0905 24.5431
4940103 10.1304 10.3962 2.41662 1.59989 -0.561264 -10.0905 24.5431
4940119 10.1913 10.3121 2.47938 1.55311 -0.820729 -10.0695 24.5359
4940133 10.1913 10.3121 2.47938 1.55311 -0.820729 -10.0695 24.5359
4940140 10.2087 10.2374 2.40615 1.49697 -0.904049 -10.1911 24.3492
4940158 10.2087 10.2187 2.47938 1.54375 -0.946446 -10.0637 24.4505
4940160 10.2087 10.2187 2.47938 1.54375 -0.946446 -10.0637 24.4505
4940171 10.113 10.0786 2.448 1.56247 -0.950339 -10.0288 24.2021
4940183 10.0696 10.0786 2.42708 1.56247 -0.886171 -10.0415 24.1377
4940190 10.0696 10.0319 2.42708 1.56247 -0.936355 -10.0319 24.091
4940205 10.0522 10.0225 2.46892 1.48762 -1.05171 -10.0608 24.0312
4940212 10.0522 10.0225 2.46892 1.48762 -1.05171 -10.0608 24.0312
4940222 9.9913 10.0132 2.47938 1.47826 -1.02165 -10.0451 23.9621
4940232 9.9913 9.96648 2.55262 1.64667 -0.963245 -9.78502 24.1571
4940252 10.0261 10.0319 2.51077 1.58118 -0.95633 -9.91682 24.1499
4940262 9.94783 10.0505 2.448 1.72152 -0.645235 -9.82431 24.1679
4940275 9.94783 10.0505 2.448 1.72152 -0.645235 -9.82431 24.1679
4940285 9.93913 10.0879 2.57354 1.69345 -0.752555 -9.73082 24.294
4940297 9.93913 10.0879 2.57354 1.69345 -0.752555 -9.73082 24.294
4940303 9.92174 10.0132 2.60492 1.73088 -0.806116 -9.64071 24.2707
4940314 9.8 10.0132 2.62585 1.81508 -0.615959 -9.507 24.2541
4940324 9.8 10.0132 2.62585 1.81508 -0.615959 -9.507 24.2541
4940334 9.66957 9.86374 2.63631 1.84315 -0.623614 -9.40366 24.0128
4940345 9.56522 9.83571 2.72 1.84315 -0.632565 -9.28752 23.9641
4940354 9.56522 9.83571 2.72 1.84315 -0.632565 -9.28752 23.9641
4940368 9.52174 9.82637 2.76185 1.88057 -0.600903 -9.19469 23.9905
4940375 9.31304 9.62088 2.87692 2.03027 -0.565007 -8.82513 23.8411
4940384 9.31304 9.62088 2.87692 2.03027 -0.565007 -8.82513 23.8411
4940395 9.22609 9.46209 3.13846 2.09576 -0.843038 -8.436 23.9224
4940404 9.22609 9.46209 3.13846 2.09576 -0.843038 -8.436 23.9224
4940415 9.04348 9.26593 3.50462 2.28288 -1.03673 -7.79472 24.0969
4940424 8.81739 9.08846 4.216 2.72262 -1.22996 -6.62153 24.8445
4940434 8.81739 9.08846 4.216 2.72262 -1.22996 -6.62153 24.8445
4940444 8.62609 8.92967 5.10523 3.39626 -1.34837 -5.21214 26.0572
4940454 8.62609 8.92967 6.19323 3.39626 -2.29634 -4.40203 27.1452
4940467 8.2 8.52802 6.19323 4.1541 -1.57995 -3.53496 27.0754
4940474 7.66087 7.97692 7.00923 4.79967 -1.72471 -2.09254 27.4467
4940484 7.66087 7.97692 7.00923 4.79967 -1.72471 -2.09254 27.4467
4940497 7.09565 7.36044 7.43815 5.01486 -2.00537 -1.11658 26.9091
4940504 6.54783 6.63187 7.77292 5.23005 -2.34777 -0.101244 26.1827
4940515 6.54783 6.63187 7.77292 5.23005 -2.34777 -0.101244 26.1827
4940524 6.18261 6.11813 7.888 5.27683 -2.62673 0.508976 25.4656
4940544 5.84348 5.74451 8.07631 5.32361 -2.85305 1.08769 24.9879
4940555 5.52174 5.38022 8.40062 5.59494 -2.95933 1.8638 24.8975
4940565 5.52174 5.38022 8.40062 5.59494 -2.95933 1.8638 24.8975
4940575 5.34783 5.11868 8.81908 5.90369 -3.1209 2.53457 25.1893
4940587 5.07826 4.89451 9.33169 6.29664 -3.14323 3.31367 25.6011
4940595 5.07826 4.89451 9.33169 6.29664 -3.14323 3.31367 25.6011
4940610 4.93913 4.70769 9.75015 6.63346 -3.21559 3.88207 26.0304
4940616 4.93913 4.70769 9.75015 6.63346 -3.21559 3.88207 26.0304
4940626 4.75652 4.46484 10.0431 6.89543 -3.28684 4.42499 26.1599
4940636 4.58261 4.23132 10.2942 7.00771 -3.48232 4.87517 26.1158
4940645 4.58261 4.23132 10.2942 7.00771 -3.48232 4.87517 26.1158
4940660 4.38261 4.03516 10.4092 7.11998 -3.50397 5.26734 25.947
4940665 4.26957 3.89506 10.5348 7.27903 -3.49352 5.57146 25.9784
4940681 4.26957 3.89506 10.5348 7.27903 -3.49352 5.57146 25.9784
4940692 4.06957 3.71758 10.6708 7.27903 -3.63652 5.92299 25.7369
4940697 4.06957 3.71758 10.6708 7.27903 -3.63652 5.92299 25.7369
4940705 3.93043 3.54945 10.6708 7.29774 -3.68786 6.18229 25.4484
4940717 3.88696 3.50275 10.8695 7.41937 -3.73304 6.3667 25.6786
4940728 3.88696 3.50275 10.8695 7.41937 -3.73304 6.3667 25.6786
4940737 3.74783 3.47473 10.9114 7.49422 -3.59981 6.54537 25.6282
4940752 3.72174 3.41868 10.9846 7.65327 -3.52467 6.6902 25.7783
4940757 3.72174 3.41868 10.9846 7.65327 -3.52467 6.6902 25.7783
4940767 3.66957 3.40934 11.1625 7.76555 -3.51554 6.8342 26.0069
4940777 3.66957 3.40934 11.1625 7.76555 -3.51554 6.8342 26.0069
4940787 3.61739 3.29725 11.1834 7.7749 -3.60282 6.98238 25.8729
4940800 3.55652 3.31593 11.1938 7.8404 -3.46825 7.04169 25.9067
4940807 3.55652 3.31593 11.1938 7.8404 -3.46825 7.04169 25.9067
4940825 3.53913 3.27857 11.0892 7.83104 -3.41786 7.05334 25.738
4940827 3.48696 3.24121 11.152 7.82168 -3.47841 7.14668 25.7018
4940837 3.48696 3.24121 11.152 7.82168 -3.47841 7.14668 25.7018
4940849 3.51304 3.26923 11.152 7.86846 -3.41761 7.11447 25.8027
4940858 3.51304 3.26923 11.152 7.86846 -3.41761 7.11447 25.8027
4940873 3.44348 3.22253 11.1102 7.90589 -3.33425 7.21323 25.6821
4940878 3.46957 3.23187 11.152 7.91525 -3.37081 7.19816 25.7687
4940888 3.46957 3.23187 11.152 7.91525 -3.37081 7.19816 25.7687
4940898 3.43478 3.22253 11.1311 8.00881 -3.23148 7.2581 25.7972
4940908 3.44348 3.23187 11.152 7.96203 -3.29747 7.23477 25.7894
4940923 3.44348 3.23187 11.152 7.96203 -3.29747 7.23477 25.7894
4940928 3.4087 3.29725 11.1102 8.05559 -3.05934 7.22399 25.8717
4940938 3.4087 3.29725 11.1102 8.05559 -3.05934 7.22399 25.8717
4940948 3.46087 3.24121 11.1206 8.08365 -3.14269 7.23888 25.9063
4940958 3.46957 3.30659 11.0369 8.10237 -2.98811 7.15585 25.9154
4940978 3.44348 3.28791 10.9846 8.0743 -2.97193 7.16986 25.7903
4940988 3.4 3.21319 10.9532 8.04623 -3.01981 7.254 25.6126
4940998 3.4 3.21319 10.9532 8.04623 -3.01981 7.254 25.6126
4941008 3.4 3.30659 10.9846 8.11172 -2.87399 7.20252 25.8029
4941022 3.4 3.30659 10.9846 8.11172 -2.87399 7.20252 25.8029
4941029 3.4 3.25989 10.9428 8.14915 -2.84808 7.24145 25.7518
4941046 3.3913 3.32527 11.0578 8.18657 -2.82858 7.23846 25.961
4941049 3.3913 3.32527 11.0578 8.18657 -2.82858 7.23846 25.961
4941060 3.37391 3.25055 10.9951 8.27078 -2.74974 7.32401 25.8903
4941069 3.32174 3.18516 11.0474 8.29884 -2.78991 7.44938 25.8531
4941079 3.32174 3.18516 11.0474 8.29884 -2.78991 7.44938 25.8531
4941096 3.30435 3.24121 11.016 8.3082 -2.67778 7.40941 25.8698
4941109 3.28696 3.15714 11.0055 8.32691 -2.72383 7.50004 25.7766
4941120 3.30435 3.17582 11.0265 8.35498 -2.70672 7.48287 25.8616
4941132 3.30435 3.17582 11.0265 8.35498 -2.70672 7.48287 25.8616
4941147 3.26087 3.13846 10.9951 8.28949 -2.75269 7.52528 25.6839
4941149 3.1913 3.11978 10.9532 8.34562 -2.61532 7.60707 25.6099
4941160 3.1913 3.11978 10.9532 8.34562 -2.61532 7.60707 25.6099
4941171 3.2087 3.11978 10.9742 8.41112 -2.57834 7.61662 25.7137
4941195 3.24348 3.15714 10.9114 8.3082 -2.62441 7.50519 25.6202
4941201 3.1913 3.13846 10.9218 8.38305 -2.52748 7.59233 25.6347
4941217 3.1913 3.13846 10.9218 8.38305 -2.52748 7.59233 25.6347
4941222 3.25217 3.21319 10.7963 8.3082 -2.47077 7.41447 25.5699
4941240 3.33913 3.25989 10.6917 8.27078 -2.44524 7.25512 25.5615
4941242 3.33913 3.25989 10.6917 8.27078 -2.44524 7.25512 25.5615
4941252 3.38261 3.38132 10.5662 8.11172 -2.41308 7.02423 25.4418
4941264 3.44348 3.4 10.4406 7.99009 -2.46694 6.87692 25.2742
4941273 3.44348 3.4 10.4406 7.99009 -2.46694 6.87692 25.2742
4941289 3.54783 3.64286 10.2732 7.89653 -2.24924 6.49382 25.3604
4941315 3.65217 3.85769 10.0326 7.75619 -2.04646 6.09455 25.2987
4941329 3.85217 4.15659 9.73969 7.51293 -1.90245 5.48893 25.2614
4941330 3.85217 4.15659 9.73969 7.51293 -1.90245 5.48893 25.2614
4941339 4.14783 4.53956 9.37354 7.21354 -1.74906 4.68834 25.2745
4941343 4.5913 5.02527 8.84 6.91414 -1.47009 3.62873 25.3707
4941353 4.5913 5.02527 8.84 6.91414 -1.47009 3.62873 25.3707
4941363 5.02609 5.52967 8.18092 6.48376 -1.18314 2.44381 25.2204
4941387 5.48696 6.00604 7.45908 6.04403 -0.896099 1.20625 24.9961
4941394 5.86087 6.51978 6.90462 5.55751 -0.692548 0.0491971 24.8428
4941404 5.86087 6.51978 6.90462 5.55751 -0.692548 0.0491971 24.8428
4941415 6.34783 7.0989 6.26646 5.08035 -0.438656 -1.27044 24.7935
4941424 6.83478 7.63132 5.61785 4.67804 -0.144646 -2.52618 24.762
4941436 6.83478 7.63132 5.61785 4.67804 -0.144646 -2.52618 24.762
4941445 7.29565 8.14505 5.15754 4.18217 -0.127085 -3.69304 24.7804
4941461 7.29565 8.14505 5.15754 4.18217 -0.127085 -3.69304 24.7804
4941464 7.6087 8.52802 4.71815 3.86406 0.0659764 -4.58424 24.7189
4941476 8.01739 8.94835 4.28923 3.46175 0.104666 -5.59222 24.7167
4941486 8.01739 8.94835 4.28923 3.46175 0.104666 -5.59222 24.7167
4941496 8.3913 9.31264 3.944 3.21849 0.196877 -6.35884 24.8664
4941510 8.66087 9.6489 3.54646 2.83489 0.279921 -7.24658 24.6911
4941525 8.85217 9.88242 3.27446 2.60099 0.362426 -7.83774 24.61
4941547 8.98261 9.98516 3.02338 2.32031 0.307962 -8.40596 24.3115
4941561 9.09565 10.1813 2.86646 2.3016 0.532624 -8.65753 24.445
4941567 9.09565 10.1813 2.86646 2.3016 0.532624 -8.65753 24.445
4941577 9.18261 10.3308 2.61538 2.18932 0.742346 -9.07267 24.3181
4941588 9.36522 10.5736 2.584 2.01156 0.648037 -9.38068 24.5344
4941611 9.50435 10.7791 2.32246 1.89928 0.868788 -9.83162 24.5052
4941617 9.57391 10.8725 2.19692 1.73088 0.853941 -10.1656 24.3742
4941628 9.57391 10.8725 2.19692 1.73088 0.853941 -10.1656 24.3742
4941638 9.67826 10.994 2.16554 1.67474 0.841302 -10.3 24.5125
4941659 9.72174 11.0407 2.05046 1.50633 0.796479 -10.6124 24.3192
4941668 9.86087 11.1154 1.97723 1.51569 0.810173 -10.7176 24.4692
4941686 9.86087 11.1154 1.97723 1.51569 0.810173 -10.7176 24.4692
4941690 9.84348 11.0967 1.88308 1.42212 0.816929 -10.9103 24.2454
4941698 9.89565 11.1247 1.82031 1.26307 0.696817 -11.1624 24.1038
4941709 9.89565 11.1247 1.82031 1.26307 0.696817 -11.1624 24.1038
4941719 9.94783 11.1808 1.84123 1.24436 0.656715 -11.1771 24.2142
4941734 9.94783 11.1808 1.84123 1.24436 0.656715 -11.1771 24.2142
4941738 9.86957 11.1341 1.78892 1.26307 0.767645 -11.1938 24.0556
4941748 9.89565 11.1341 1.78892 1.20693 0.683048 -11.2592 24.0256
4941760 9.89565 11.1341 1.78892 1.20693 0.683048 -11.2592 24.0256
4941769 9.88696 11.0874 1.80985 1.27243 0.688985 -11.1562 24.0566
4941781 9.83478 11.05 1.82031 1.32856 0.752565 -11.0694 24.0337
4941806 9.88696 11.1714 1.82031 1.33792 0.828031 -11.0875 24.2166
4941819 9.94783 11.2275 1.88308 1.30985 0.724736 -11.0691 24.3682
4941829 9.93044 11.2742 1.86215 1.40341 0.904161 -10.9965 24.4702
4941854 9.92174 11.2368 1.87262 1.45019 0.911561 -10.9282 24.4814
4941862 9.86957 11.3022 1.95631 1.3847 0.878137 -10.9111 24.5128
4941881 9.87826 11.4049 1.91446 1.39406 1.02299 -10.9639 24.5917
4941891 9.87826 11.4049 1.91446 1.39406 1.02299 -10.9639 24.5917
4941902 9.91304 11.3302 1.80985 1.45019 1.07896 -11.0087 24.5033
4941910 9.84348 11.3115 1.91446 1.4689 1.04174 -10.8636 24.5384
4941927 9.84348 11.3115 1.91446 1.4689 1.04174 -10.8636 24.5384
4941931 9.73913 11.3115 1.91446 1.44084 1.12553 -10.8756 24.406
4941940 9.66957 11.2462 1.87262 1.4689 1.20879 -10.8674 24.2572
4941955 9.66957 11.2462 1.87262 1.4689 1.20879 -10.8674 24.2572
4941966 9.66087 11.1995 1.88308 1.4689 1.16099 -10.8468 24.2123
4941978 9.66087 11.1995 1.88308 1.4689 1.16099 -10.8468 24.2123
4941982 9.5913 11.2181 1.88308 1.45019 1.23634 -10.858 24.1427
4941992 9.6087 11.2275 1.79938 1.47826 1.34534 -10.9223 24.1138
4942003 9.6087 11.2275 1.79938 1.47826 1.34534 -10.9223 24.1138
4942012 9.52174 11.1714 1.87262 1.50633 1.33287 -10.789 24.0721
4942029 9.53043 11.1527 1.91446 1.59053 1.34196 -10.6528 24.1882
4942032 9.53043 11.1527 1.91446 1.59053 1.34196 -10.6528 24.1882
4942042 9.55652 11.1995 1.89354 1.57182 1.36369 -10.7079 24.2213
4942054 9.55652 11.1995 1.89354 1.57182 1.36369 -10.7079 24.2213
4942064 9.55652 11.2275 1.92492 1.58118 1.366 -10.6697 24.2901
4942078 9.57391 11.1901 2.02954 1.6186 1.23428 -10.5168 24.4122
4942082 9.57391 11.1901 2.02954 1.6186 1.23428 -10.5168 24.4122
4942093 9.57391 11.0967 1.95631 1.6186 1.22196 -10.5766 24.2455
4942105 9.47826 11.0874 2.04 1.68409 1.28984 -10.4004 24.2897
4942113 9.47826 11.0874 2.04 1.68409 1.28984 -10.4004 24.2897
4942130 9.43478 11.05 2.06092 1.65603 1.25024 -10.3925 24.2017
4942133 9.43478 11.05 2.06092 1.65603 1.25024 -10.3925 24.2017
4942143 9.38261 10.9005 2.06092 1.67474 1.17799 -10.3341 24.0188
4942155 9.30435 10.8445 2.13415 1.74023 1.19284 -10.1617 24.0232
4942163 9.30435 10.8445 2.13415 1.74023 1.19284 -10.1617 24.0232
4942180 9.2 10.6951 2.12369 1.82444 1.25382 -10.0324 23.8432
4942183 9.05217 10.611 2.25969 1.93671 1.2949 -9.72362 23.8596
4942205 9.01739 10.4242 2.45846 2.12383 1.11572 -9.27782 24.0239
4942230 8.82609 10.1907 2.84554 2.51679 1.0622 -8.40132 24.3791
4942234 8.5913 10.0599 3.49415 3.04073 1.00766 -7.21608 25.1861
4942244 8.5913 10.0599 3.49415 3.04073 1.00766 -7.21608 25.1861
4942256 8.47826 9.91978 4.26831 3.6208 0.755137 -5.99661 26.2872
4942264 8.26957 9.63956 5.04246 4.06054 0.359166 -4.8901 27.0121
4942284 7.95652 9.24725 5.28308 4.29444 0.282001 -4.27141 26.7813
4942294 7.95652 9.24725 5.28308 4.29444 0.282001 -4.27141 26.7813
4942305 7.53913 8.76154 5.39815 4.33187 0.149941 -3.78629 26.0307
4942314 7.17391 8.23846 5.52369 4.35993 -0.0980482 -3.27843 25.296
4942329 7.17391 8.23846 5.52369 4.35993 -0.0980482 -3.27843 25.296
4942334 6.90435 7.78077 5.68062 4.37865 -0.429946 -2.80419 24.7444
4942344 6.62609 7.3978 5.97354 4.51899 -0.696306 -2.16061 24.5164
4942356 6.62609 7.3978 5.97354 4.51899 -0.696306 -2.16061 24.5164
4942364 6.46087 7.12692 6.32923 4.72482 -0.951996 -1.54234 24.6418
4942381 6.46087 7.12692 6.32923 4.72482 -0.951996 -1.54234 24.6418
4942385 6.09565 6.79066 6.936 5.14584 -1.09655 -0.483297 24.9682
4942396 5.86957 6.48242 7.66831 5.623 -1.39651 0.549459 25.6433
4942408 5.86957 6.48242 7.66831 5.623 -1.39651 0.549459 25.6433
4942415 5.6087 6.17418 8.22277 5.99725 -1.59602 1.40589 26.0029
4942427 5.24348 5.82857 8.74585 6.3902 -1.68893 2.326 26.2081
4942452 4.93913 5.38956 9.15385 6.68024 -1.93326 3.15643 26.1628
4942466 4.64348 4.92253 9.43631 6.98899 -2.08557 3.95861 25.9913
4942478 4.34783 4.56758 9.81292 7.26968 -2.2343 4.7122 25.998
4942487 4.34783 4.56758 9.81292 7.26968 -2.2343 4.7122 25.998
4942504 4.10435 4.16593 10.0954 7.50358 -2.4452 5.40913 25.8692
4942507 3.87826 3.85769 10.1582 7.62521 -2.50155 5.90576 25.5193
4942517 3.87826 3.85769 10.1582 7.62521 -2.50155 5.90576 25.5193
4942529 3.8087 3.6522 10.3151 7.6907 -2.72992 6.21099 25.4667
4942537 3.8087 3.6522 10.3151 7.6907 -2.72992 6.21099 25.4667
4942553 3.68696 3.54011 10.472 7.81233 -2.75026 6.50137 25.5114
4942557 3.68696 3.46538 10.5243 7.87782 -2.80583 6.60342 25.5545
4942567 3.68696 3.46538 10.5243 7.87782 -2.80583 6.60342 25.5545
4942578 3.70435 3.4467 10.6498 7.80297 -3.0313 6.62113 25.6039
4942587 3.66087 3.4467 10.7126 7.82168 -3.02737 6.68441 25.6419
4942603 3.66087 3.4467 10.7126 7.82168 -3.02737 6.68441 25.6419
4942614 3.71304 3.45604 10.7335 7.88718 -3.00832 6.66056 25.7898
4942628 3.71304 3.45604 10.7963 7.83104 -3.12278 6.6627 25.7964
4942637 3.73043 3.49341 10.7545 7.81233 -3.0817 6.59713 25.7906
4942653 3.73043 3.49341 10.7545 7.81233 -3.0817 6.59713 25.7906
4942658 3.73913 3.51209 10.6917 7.76555 -3.06629 6.53833 25.7085
4942668 3.77391 3.54945 10.7126 7.74684 -3.09338 6.47878 25.7828
4942679 3.77391 3.54945 10.7126 7.74684 -3.09338 6.47878 25.7828
4942688 3.75652 3.59615 10.608 7.75619 -2.92821 6.42274 25.7169
4942708 3.72174 3.56813 10.6394 7.73748 -2.97614 6.47939 25.6667
4942718 3.77391 3.64286 10.6812 7.73748 -2.97537 6.38769 25.8355
4942729 3.77391 3.64286 10.6812 7.73748 -2.97537 6.38769 25.8355
4942738 3.8087 3.61484 10.6917 7.6907 -3.09508 6.36997 25.8059
4942755 3.81739 3.60549 10.6289 7.70941 -3.03888 6.35574 25.7612
4942758 3.81739 3.60549 10.6289 7.70941 -3.03888 6.35574 25.7612
4942768 3.76522 3.62418 10.6394 7.65327 -3.0441 6.36822 25.6821
4942781 3.76522 3.62418 10.6394 7.65327 -3.0441 6.36822 25.6821
4942788 3.75652 3.59615 10.608 7.6907 -2.99952 6.40084 25.6514
4942806 3.76522 3.68022 10.608 7.64392 -2.96633 6.30794 25.6974
4942809 3.76522 3.68022 10.608 7.64392 -2.96633 6.30794 25.6974
4942819 3.81739 3.68956 10.5243 7.65327 -2.91894 6.23174 25.6845
4942831 3.86957 3.7456 10.4406 7.56907 -2.92246 6.08463 25.6249
4942839 3.86957 3.7456 10.4406 7.56907 -2.92246 6.08463 25.6249
4942855 3.90435 3.82033 10.336 7.46615 -2.8929 5.9217 25.5268
4942859 3.90435 3.82033 10.336 7.46615 -2.8929 5.9217 25.5268
4942869 4.0087 3.82967 10.3465 7.28839 -3.17696 5.7687 25.4732
4942880 4.06087 3.88571 10.3255 7.32581 -3.10072 5.68685 25.5979
4942889 4.06087 3.88571 10.3255 7.32581 -3.10072 5.68685 25.5979
4942904 4.14783 3.97912 10.2523 7.31646 -3.0205 5.51171 25.6957
4942910 4.22609 3.97912 10.336 7.27903 -3.19898 5.46654 25.8202
4942930 4.21739 3.98846 10.2837 7.33517 -3.07598 5.46744 25.8247
4942940 4.2 4.02582 10.2732 7.26032 -3.09313 5.42 25.7594
4942954 4.2 4.02582 10.2732 7.26032 -3.09313 5.42 25.7594
4942962 4.16522 4.05385 10.2418 7.28839 -2.97565 5.42413 25.7493
4942978 4.16522 4.05385 10.2418 7.28839 -2.97565 5.42413 25.7493
4942982 4.16522 4.05385 10.2523 7.26032 -3.01511 5.41758 25.7317
4942992 4.13913 3.98846 10.2105 7.29774 -2.98741 5.48878 25.6358
4943003 4.13913 3.98846 10.2105 7.29774 -2.98741 5.48878 25.6358
4943012 4.13043 4.01648 10.2628 7.33517 -2.95355 5.50655 25.7449
4943022 4.09565 3.92308 10.2523 7.41002 -2.93491 5.63271 25.6811
4943032 4.09565 3.92308 10.2523 7.41002 -2.93491 5.63271 25.6811
4943042 4.13043 3.93242 10.2314 7.35388 -2.9978 5.56907 25.6481
4943056 4.13043 3.93242 10.2314 7.35388 -2.9978 5.56907 25.6481
4943062 4.04348 3.94176 10.1686 7.38195 -2.82778 5.61877 25.5358
4943072 4.11304 3.89506 10.1372 7.4568 -2.83025 5.61629 25.6021
4943082 4.11304 3.89506 10.1372 7.4568 -2.83025 5.61629 25.6021
4943092 4.07826 3.94176 10.1163 7.41937 -2.77182 5.58525 25.5557
4943112 4.01739 3.97912 10.0117 7.50358 -2.4953 5.59668 25.5118
4943122 4.05217 4.00714 9.99077 7.43808 -2.54796 5.51405 25.4882
4943142 4.08696 3.98846 9.90708 7.47551 -2.48455 5.48384 25.458
4943155 4.15652 4.09121 9.77108 7.37259 -2.42582 5.25529 25.3914
4943163 4.15652 4.09121 9.77108 7.37259 -2.42582 5.25529 25.3914
4943181 4.25217 4.27802 9.66646 7.28839 -2.30746 4.95859 25.485
4943184 4.34783 4.39945 9.49908 7.20418 -2.20356 4.68909 25.4505
4943193 4.34783 4.39945 9.49908 7.20418 -2.20356 4.68909 25.4505
4943206 4.50435 4.62363 9.27938 7.08255 -2.03762 4.25696 25.4899
4943215 4.50435 4.62363 9.27938 7.08255 -2.03762 4.25696 25.4899
4943231 4.65217 4.74505 9.00738 6.98899 -1.89567 3.89812 25.3936
4943236 4.85217 5.1 8.68308 6.69895 -1.71339 3.21494 25.3342
4943256 4.85217 5.1 8.68308 6.69895 -1.71339 3.21494 25.3342
4943258 5.17391 5.33352 8.23323 6.3902 -1.67466 2.45674 25.1309
4943263 5.42609 5.58571 7.81477 6.09081 -1.56952 1.74202 24.9174
4943280 5.42609 5.58571 7.81477 6.09081 -1.56952 1.74202 24.9174
4943283 5.76522 5.95934 7.35446 5.83819 -1.32654 0.883786 24.9172
4943293 5.76522 5.95934 7.35446 5.83819 -1.32654 0.883786 24.9172
4943306 6.03478 6.2956 6.84185 5.43588 -1.16338 -0.032098 24.6081
4943315 6.3913 6.82802 6.32923 5.071 -0.834212 -1.10833 24.6196
4943323 6.3913 6.82802 6.32923 5.071 -0.834212 -1.10833 24.6196
4943333 6.76522 7.29505 5.88985 4.65933 -0.7118 -2.14009 24.6094
4943343 6.76522 7.29505 5.88985 4.65933 -0.7118 -2.14009 24.6094
4943357 7.11304 7.78077 5.33538 4.29444 -0.380467 -3.21974 24.5236
4943363 7.51304 8.34121 4.87508 3.9202 -0.128515 -4.29561 24.6495
4943385 7.90435 8.87363 4.49846 3.49917 -0.0302806 -5.31592 24.7756
4943394 8.22609 9.33132 3.99631 3.16236 0.274396 -6.31092 24.7161
4943405 8.22609 9.33132 3.99631 3.16236 0.274396 -6.31092 24.7161
4943414 8.58261 9.67692 3.70338 2.81618 0.208956 -7.10678 24.7791
4943433 8.58261 9.67692 3.70338 2.81618 0.208956 -7.10678 24.7791
4943434 8.66957 9.87308 3.4 2.61035 0.421393 -7.65627 24.553
4943444 8.84348 10.0412 3.11754 2.3858 0.477687 -8.23028 24.388
4943459 8.84348 10.0412 3.11754 2.3858 0.477687 -8.23028 24.388
4943464 8.93913 10.144 2.96062 2.2361 0.494561 -8.57896 24.2798
4943474 9.05217 10.2841 2.83508 2.13319 0.545168 -8.86748 24.3045
4943484 9.05217 10.2841 2.83508 2.13319 0.545168 -8.86748 24.3045
4943494 9.13913 10.2374 2.73046 2.08641 0.469318 -9.02704 24.1934
4943509 9.13913 10.2374 2.73046 2.08641 0.469318 -9.02704 24.1934
4943514 9.08696 10.3214 2.64677 1.98349 0.594032 -9.22148 24.0386
4943524 9.33043 10.4055 2.61538 1.99285 0.464711 -9.32115 24.3442
4943536 9.33043 10.4055 2.61538 1.99285 0.464711 -9.32115 24.3442
4943546 9.49565 10.5269 2.53169 1.92735 0.435972 -9.53585 24.4816
4943561 9.61739 10.5082 2.46892 1.92735 0.35609 -9.62161 24.5219
4943576 9.70435 10.583 2.448 1.84315 0.278464 -9.76231 24.5785
4943586 9.70435 10.583 2.448 1.84315 0.278464 -9.76231 24.5785
4943596 9.77391 10.4896 2.36431 1.7683 0.122601 -9.91811 24.3961
4943612 9.89565 10.4989 2.37477 1.80572 0.0347942 -9.89666 24.575
4943616 9.89565 10.4989 2.37477 1.80572 0.0347942 -9.89666 24.575
4943626 9.97391 10.5736 2.36431 1.67474 -0.0913635 -10.0716 24.5866
4943637 10.0087 10.5456 2.29108 1.70281 -0.0523061 -10.1191 24.5482
4943645 10.0087 10.5456 2.29108 1.70281 -0.0523061 -10.1191 24.5482
4943663 10.1217 10.4802 2.23877 1.59989 -0.286818 -10.2882 24.4406
4943666 10.1217 10.4802 2.23877 1.59989 -0.286818 -10.2882 24.4406
4943676 10.0957 10.4055 2.14462 1.55311 -0.29099 -10.4158 24.1989
4943691 10.1913 10.4896 2.13415 1.54375 -0.299834 -10.4703 24.3588
4943695 10.1913 10.4896 2.13415 1.54375 -0.299834 -10.4703 24.3588
4943706 10.2087 10.5176 2.07138 1.5344 -0.234361 -10.5543 24.3321
4943716 10.2783 10.4615 2.09231 1.41277 -0.511718 -10.6629 24.2449
4943743 10.2609 10.3775 2.12369 1.48762 -0.535548 -10.5323 24.2497
4943746 10.2609 10.3775 2.12369 1.48762 -0.535548 -10.5323 24.2497
4943756 10.2435 10.3775 1.99815 1.39406 -0.489421 -10.7621 24.0132
4943769 10.2609 10.3868 2.07138 1.43148 -0.532037 -10.6487 24.1505
4943776 10.2609 10.3868 2.07138 1.43148 -0.532037 -10.6487 24.1505
4943785 10.2435 10.3495 2.06092 1.40341 -0.573152 -10.6799 24.0573
4943796 10.2435 10.3495 2.09231 1.3847 -0.624885 -10.6664 24.0699
4943805 10.2435 10.3214 2.09231 1.3847 -0.654753 -10.6613 24.0419
4943819 10.2261 10.3214 2.15508 1.44084 -0.640856 -10.5318 24.1434
4943827 10.2261 10.3214 2.15508 1.44084 -0.640856 -10.5318 24.1434
4943836 10.2783 10.3401 2.01908 1.40341 -0.575911 -10.7292 24.0409
4943847 10.3478 10.3868 2.15508 1.45955 -0.674085 -10.5465 24.3493
4943857 10.3478 10.3868 2.15508 1.45955 -0.674085 -10.5465 24.3493
4943872 10.3913 10.4335 2.13415 1.50633 -0.59841 -10.5359 24.4653
4943877 10.4609 10.4429 2.12369 1.41277 -0.745632 -10.659 24.4402
4943899 10.4609 10.4429 2.12369 1.41277 -0.745632 -10.659 24.4402
4943900 10.4957 10.5176 2.15508 1.45955 -0.683776 -10.5969 24.6279
4943907 10.4957 10.5176 2.15508 1.45955 -0.683776 -10.5969 24.6279
4943924 10.4 10.4148 2.13415 1.40341 -0.734945 -10.642 24.3524
4943927 10.3913 10.2747 2.13415 1.41277 -0.865202 -10.6053 24.2129
4943950 10.2957 10.2 2.07138 1.42212 -0.776301 -10.6311 23.9892
4943959 10.1391 10.1346 2.15508 1.41277 -0.783111 -10.5106 23.8416
4943976 10.1391 10.1346 2.15508 1.41277 -0.783111 -10.5106 23.8416
4943978 10.0609 10.0038 2.20738 1.42212 -0.888702 -10.4046 23.6942
4943989 10.0609 10.0038 2.20738 1.42212 -0.888702 -10.4046 23.6942
4944001 9.93913 9.95714 2.25969 1.50633 -0.776923 -10.2253 23.6623
4944009 9.98261 9.97582 2.30154 1.5344 -0.81314 -10.1636 23.7944
4944026 9.98261 9.97582 2.30154 1.5344 -0.81314 -10.1636 23.7944
4944029 9.96522 10.0038 2.35385 1.54375 -0.808096 -10.1008 23.8667
4944039 10.1391 10.1907 2.40615 1.60925 -0.765426 -10.0519 24.3452
4944051 10.1391 10.1907 2.40615 1.60925 -0.765426 -10.0519 24.3452
4944059 10.3043 10.3588 2.51077 1.71216 -0.747569 -9.90928 24.8861
4944077 10.3043 10.3588 2.51077 1.71216 -0.747569 -9.90928 24.8861
4944079 10.3565 10.3775 2.48985 1.74023 -0.72971 -9.9166 24.9641
4944089 10.3739 10.3868 2.64677 1.8525 -0.773324 -9.65645 25.26
4944101 10.3739 10.3868 2.64677 1.8525 -0.773324 -9.65645 25.26
4944109 10.3565 10.3775 2.57354 1.75894 -0.791538 -9.81481 25.0665
4944127 10.2609 10.2654 2.64677 1.79637 -0.846924 -9.6617 24.9694
4944129 10.2609 10.2654 2.64677 1.79637 -0.846924 -9.6617 24.9694
4944139 10.2174 10.1813 2.65723 1.74023 -0.960904 -9.67967 24.7962
4944152 10.2174 10.1813 2.65723 1.74023 -0.960904 -9.67967 24.7962
4944160 10 10.0786 2.48985 1.75894 -0.670367 -9.76048 24.3274
4944169 9.89565 9.92912 2.51077 1.75894 -0.745352 -9.68379 24.0945
4944179 9.89565 9.92912 2.51077 1.75894 -0.745352 -9.68379 24.0945
4944189 9.89565 9.89176 2.48985 1.74023 -0.784332 -9.71625 24.0175
4944202 9.89565 9.89176 2.48985 1.74023 -0.784332 -9.71625 24.0175
4944209 9.84348 9.84505 2.47938 1.77766 -0.730984 -9.6666 23.9456
4944219 9.89565 9.88242 2.59446 1.79637 -0.839226 -9.54982 24.1689
4944239 9.88696 9.96648 2.64677 1.82444 -0.763428 -9.48559 24.3246
4944253 10.0087 10.0786 2.66769 1.918 -0.688832 -9.42423 24.673
4944262 10.0087 10.0786 2.66769 1.918 -0.688832 -9.42423 24.673
4944271 10.0435 10.2187 2.78277 1.86186 -0.748497 -9.40559 24.9068
4944281 10.0522 10.2374 2.69908 1.93671 -0.578909 -9.42039 24.9253
4944291 10.0522 10.2374 2.69908 1.93671 -0.578909 -9.42039 24.9253
4944306 9.9913 10.2747 2.75138 1.93671 -0.532232 -9.36395 24.9541
4944310 9.9913 10.2747 2.75138 1.93671 -0.532232 -9.36395 24.9541
4944321 9.86957 10.1253 2.61538 1.90864 -0.459883 -9.46464 24.5189
4944332 9.6 9.93846 2.67815 1.8525 -0.506033 -9.35294 24.0691
4944350 9.35652 9.67692 2.64677 1.90864 -0.442713 -9.20649 23.5889
4944361 8.98261 9.38736 2.69908 2.01156 -0.306283 -8.87715 23.0806
4944372 8.98261 9.38736 2.69908 2.01156 -0.306283 -8.87715 23.0806
4944385 8.75652 9.13517 3.02338 2.17061 -0.513445 -8.25037 23.0857
4944392 8.75652 9.13517 3.02338 2.17061 -0.513445 -8.25037 23.0857
4944410 8.5913 8.92967 3.57785 2.58228 -0.693806 -7.19615 23.6811
4944412 8.33913 8.77088 4.61354 3.34012 -0.839528 -5.47985 25.0637
4944422 8.33913 8.77088 4.61354 3.34012 -0.839528 -5.47985 25.0637
4944436 8.2087 8.63077 5.76431 4.25702 -1.01004 -3.80749 26.8608
4944442 7.77391 8.18242 6.64308 4.91194 -1.20189 -2.39972 27.5114
4944452 7.77391 8.18242 6.64308 4.91194 -1.20189 -2.39972 27.5114
4944462 7.23478 7.64066 6.99877 5.24876 -1.23892 -1.45333 27.123
4944486 6.66957 6.97747 7.32308 5.42653 -1.50459 -0.509971 26.3966
4944492 6.18261 6.47308 7.56369 5.61365 -1.60606 0.3029 25.833
4944502 6.18261 6.47308 7.56369 5.61365 -1.60606 0.3029 25.833
4944538 5.87826 5.9967 7.752 5.73528 -1.87117 0.95357 25.3622
4944539 5.44348 5.52033 8.00308 5.84755 -2.09422 1.74505 24.8144
4944540 5.44348 5.52033 8.00308 5.84755 -2.09422 1.74505 24.8144
4944543 5.16522 5.24011 8.30646 6.25922 -1.97464 2.49911 24.971
4944564 4.89565 4.95989 8.79815 6.57733 -2.13684 3.28164 25.231
4944573 4.78261 4.72637 9.20615 6.88608 -2.32051 3.85719 25.6012
4944591 4.78261 4.72637 9.20615 6.88608 -2.32051 3.85719 25.6012
4944595 4.66957 4.67967 9.44677 7.05449 -2.3038 4.15003 25.8505
4944605 4.54783 4.53956 9.48862 7.16676 -2.26289 4.40978 25.7428
4944617 4.54783 4.53956 9.48862 7.16676 -2.26289 4.40978 25.7428
4944624 4.57391 4.55824 9.47815 7.0732 -2.35621 4.33305 25.6835
4944644 4.51304 4.48352 9.35262 7.01706 -2.33093 4.36 25.3662
4944654 4.54783 4.55824 9.27938 6.97964 -2.25638 4.23 25.3651
4944669 4.54783 4.55824 9.27938 6.97964 -2.25638 4.23 25.3651
4944674 4.5913 4.60495 9.16431 6.8393 -2.29304 4.05202 25.1999
4944684 4.71304 4.67033 9.04923 6.84865 -2.21834 3.86522 25.2813
4944697 4.71304 4.67033 9.04923 6.84865 -2.21834 3.86522 25.2813
4944704 4.8 4.77308 9.08062 6.74573 -2.32466 3.69296 25.3994
4944724 4.8 4.8011 9.08062 6.72702 -2.31465 3.66402 25.4087
4944734 4.8 4.81044 9.10154 6.69895 -2.35346 3.65397 25.4109
4944750 4.8 4.81044 9.10154 6.69895 -2.35346 3.65397 25.4109
4944756 4.88696 4.86648 9.12246 6.68024 -2.4091 3.55057 25.5561
4944765 4.85217 4.8011 9.19569 6.73638 -2.45295 3.68109 25.5853
4944776 4.85217 4.8011 9.19569 6.73638 -2.45295 3.68109 25.5853
4944785 4.78261 4.74505 9.34215 6.81123 -2.50037 3.87001 25.681
4944802 4.78261 4.74505 9.34215 6.81123 -2.50037 3.87001 25.681
4944806 4.6087 4.56758 9.62462 6.88608 -2.70531 4.28296 25.687
4944816 4.50435 4.37143 9.86523 7.1574 -2.7422 4.71855 25.8984
4944827 4.50435 4.37143 9.86523 7.1574 -2.7422 4.71855 25.8984
4944837 4.32174 4.22198 9.99077 7.20418 -2.80351 5.04177 25.7387
4944853 4.22609 4.11923 10.1372 7.32581 -2.82687 5.29929 25.8084
4944857 4.22609 4.11923 10.1372 7.32581 -2.82687 5.29929 25.8084
4944867 4.17391 3.9511 10.2209 7.36324 -2.99553 5.51893 25.7092
4944887 4.08696 3.78297 10.3465 7.51293 -3.04858 5.82379 25.7293
4944903 3.98261 3.7456 10.3883 7.55036 -2.99506 5.9671 25.6669
4944907 3.98261 3.7456 10.3883 7.55036 -2.99506 5.9671 25.6669
4944917 3.93043 3.66154 10.3569 7.50358 -3.06674 6.05159 25.4525
4944929 3.93043 3.6522 10.3569 7.48487 -3.09771 6.05274 25.4244
4944937 3.93043 3.6522 10.3569 7.48487 -3.09771 6.05274 25.4244
4944947 3.93913 3.66154 10.4406 7.55971 -3.08435 6.09331 25.601
4944957 3.93913 3.66154 10.4406 7.55971 -3.08435 6.09331 25.601
4944967 3.98261 3.76429 10.472 7.541 -3.05642 5.97796 25.7599
4944982 3.90435 3.7456 10.4511 7.55971 -2.97157 6.05643 25.6607
4944987 3.90435 3.7456 10.4511 7.55971 -2.97157 6.05643 25.6607
4944999 3.92174 3.76429 10.4929 7.56907 -2.99179 6.04472 25.748
4945008 3.88696 3.73626 10.5557 7.64392 -2.96488 6.14363 25.8228
4945017 3.88696 3.73626 10.5557 7.64392 -2.96488 6.14363 25.8228
4945035 3.84348 3.79231 10.6603 7.71877 -2.87596 6.19451 26.0149
4945038 3.84348 3.79231 10.6603 7.71877 -2.87596 6.19451 26.0149
4945048 3.69565 3.62418 10.6289 7.67199 -2.95504 6.42902 25.6207
4945059 3.66957 3.60549 10.6498 7.75619 -2.87928 6.50146 25.6811
4945068 3.66957 3.60549 10.6498 7.75619 -2.87928 6.50146 25.6811
4945086 3.62609 3.66154 10.6603 7.67199 -2.88142 6.46646 25.6199
4945088 3.64348 3.67088 10.6289 7.89653 -2.61708 6.50804 25.8398
4945103 3.64348 3.67088 10.6289 7.89653 -2.61708 6.50804 25.8398
4945121 3.63478 3.6522 10.6498 7.88718 -2.65766 6.53464 25.824
4945137 3.57391 3.6989 10.7022 7.87782 -2.6103 6.56051 25.8528
4945139 3.5913 3.6522 10.6289 7.9246 -2.56176 6.57635 25.797
4945148 3.5913 3.6522 10.6289 7.9246 -2.56176 6.57635 25.797
4945166 3.56522 3.61484 10.6498 7.91525 -2.60727 6.63331 25.7451
4945174 3.53043 3.63352 10.5871 7.96203 -2.45203 6.64166 25.7131
4945179 3.53043 3.63352 10.5871 7.96203 -2.45203 6.64166 25.7131
4945190 3.50435 3.6522 10.5557 8.06494 -2.27226 6.67107 25.7772
4945217 3.47826 3.60549 10.5243 8.04623 -2.29089 6.71629 25.6543
4945219 3.49565 3.6989 10.5662 8.14915 -2.13602 6.66971 25.9099
4945242 3.51304 3.68956 10.4825 8.13043 -2.10679 6.62991 25.8155
4945249 3.42609 3.62418 10.4511 8.1585 -2.04062 6.75724 25.6598
4945259 3.42609 3.62418 10.4511 8.1585 -2.04062 6.75724 25.6598
4945270 3.50435 3.6989 10.4825 8.224 -1.99145 6.65959 25.9097
4945279 3.50435 3.6989 10.4825 8.224 -1.99145 6.65959 25.9097
4945294 3.46087 3.62418 10.4092 8.17722 -2.0146 6.72034 25.6715
4945299 3.4087 3.64286 10.4511 8.28013 -1.87798 6.79504 25.7828
4945320 3.4087 3.64286 10.4511 8.28013 -1.87798 6.79504 25.7828
4945322 3.38261 3.6522 10.3465 8.17722 -1.85815 6.7427 25.5585
4945329 3.3913 3.59615 10.2523 8.12108 -1.89897 6.73436 25.3608
4945348 3.3913 3.59615 10.2523 8.12108 -1.89897 6.73436 25.3608
4945350 3.45217 3.67088 10.1791 8.03687 -1.89776 6.56669 25.339
4945373 3.53913 3.72692 10.0117 7.96203 -1.84419 6.36357 25.2398
4945381 3.75652 3.9044 9.792 7.78426 -1.84239 5.8933 25.2372
4945401 3.94783 4.10989 9.56185 7.56907 -1.817 5.40315 25.1886
4945410 4.24348 4.45549 9.26892 7.44744 -1.58316 4.73182 25.4153
4945425 4.24348 4.45549 9.26892 7.44744 -1.58316 4.73182 25.4153
4945430 4.50435 4.73571 8.91323 7.12933 -1.53518 4.03588 25.2826
4945441 4.50435 4.73571 8.91323 7.12933 -1.53518 4.03588 25.2826
4945451 4.85217 5.13736 8.33785 6.7738 -1.2737 3.06088 25.1012
4945460 5.26957 5.73516 7.66831 6.33407 -0.868396 1.79807 25.0071
4945482 5.75652 6.16483 7.19754 5.85691 -0.933221 0.680512 24.9758
4945492 6.08696 6.64121 6.59077 5.39846 -0.645353 -0.44843 24.7174
4945504 6.08696 6.64121 6.59077 5.39846 -0.645353 -0.44843 24.7174
4945512 6.56522 7.0989 6.03631 4.96808 -0.541727 -1.61728 24.6685
4945530 6.56522 7.0989 6.03631 4.96808 -0.541727 -1.61728 24.6685
4945532 6.95652 7.45385 5.42954 4.6219 -0.317137 -2.6729 24.4618
4945542 7.35652 7.93022 5.02154 4.23831 -0.213405 -3.68293 24.5466
4945556 7.35652 7.93022 5.02154 4.23831 -0.213405 -3.68293 24.5466
4945563 7.75652 8.23846 4.68677 3.95762 -0.250825 -4.47491 24.6394
4945573 8.10435 8.55604 4.34154 3.6863 -0.206117 -5.24494 24.6882
4945583 8.10435 8.55604 4.34154 3.6863 -0.206117 -5.24494 24.6882
4945593 8.3913 8.89231 4.02769 3.35883 -0.170101 -6.01765 24.6701
4945608 8.3913 8.89231 4.02769 3.35883 -0.170101 -6.01765 24.6701
4945613 8.71304 9.13517 3.74523 3.0033 -0.325051 -6.76899 24.5967
4945624 9.06956 9.35 3.48369 2.81618 -0.39147 -7.35435 24.7194
4945635 9.06956 9.35 3.48369 2.81618 -0.39147 -7.35435 24.7194
4945643 9.31304 9.6022 3.23262 2.52614 -0.422834 -7.99819 24.674
4945660 9.6 9.79835 3.02338 2.25482 -0.577691 -8.58314 24.6766
4945663 9.6 9.79835 3.02338 2.25482 -0.577691 -8.58314 24.6766
4945673 9.82609 9.98516 2.82462 2.03963 -0.634146 -9.08615 24.6755
4945687 9.82609 9.98516 2.82462 2.03963 -0.634146 -9.08615 24.6755
4945693 10.0174 10.1159 2.75138 1.90864 -0.750403 -9.36136 24.7934
4945703 10.1304 10.1533 2.584 1.75894 -0.814356 -9.70946 24.6267
4945713 10.1304 10.1533 2.584 1.75894 -0.814356 -9.70946 24.6267
4945723 10.287 10.3027 2.46892 1.57182 -0.894535 -10.0784 24.6304
4945738 10.4 10.3027 2.38523 1.57182 -0.923225 -10.186 24.6598
4945743 10.4 10.3588 2.38523 1.47826 -0.962722 -10.2927 24.6223
4945754 10.5391 10.4335 2.22831 1.41277 -0.935608 -10.5621 24.6137
4945773 10.713 10.4429 2.11323 1.26307 -1.14171 -10.8712 24.5322
4945783 10.7652 10.4522 2.06092 1.22565 -1.17154 -10.9763 24.504
4945793 10.7652 10.4522 2.06092 1.22565 -1.17154 -10.9763 24.504
4945819 10.7652 10.4896 1.96677 1.12273 -1.14986 -11.1927 24.3443
4945820 10.7739 10.3962 1.82031 1.03852 -1.20641 -11.4308 24.0289
4945835 10.8348 10.4802 1.75754 1.02917 -1.12329 -11.5313 24.1017
4945854 10.8261 10.3868 1.68431 0.935608 -1.24615 -11.7021 23.8328
4945870 10.8435 10.4522 1.60062 0.916896 -1.12858 -11.8284 23.8132
4945874 10.8435 10.4522 1.60062 0.916896 -1.12858 -11.8284 23.8132
4945884 10.8609 10.4522 1.56923 0.944964 -1.08378 -11.8345 23.8273
4945904 10.8348 10.4055 1.43323 0.842047 -1.08489 -12.0973 23.5156
4945921 10.8696 10.4522 1.45415 0.860759 -1.06906 -12.0619 23.6367
4945925 10.8696 10.4522 1.45415 0.860759 -1.06906 -12.0619 23.6367
4945936 10.8435 10.4242 1.45415 0.776555 -1.16699 -12.1521 23.4984
4945949 10.9217 10.3775 1.496 0.785911 -1.32983 -12.0969 23.5811
4945974 10.8348 10.3962 1.42277 0.795267 -1.13665 -12.1623 23.449
4945976 10.8 10.3962 1.44369 0.785911 -1.13297 -12.1447 23.4258
4945985 10.8 10.4335 1.44369 0.785911 -1.09136 -12.1492 23.4631
4946001 10.7652 10.4242 1.44369 0.823335 -1.02467 -12.1005 23.4564
4946005 10.7652 10.4242 1.44369 0.823335 -1.02467 -12.1005 23.4564
4946015 10.7043 10.4896 1.47508 0.804623 -0.942805 -12.0865 23.4736
4946026 10.7391 10.6016 1.51692 0.90754 -0.785668 -11.9395 23.7652
4946036 10.7391 10.6016 1.51692 0.90754 -0.785668 -11.9395 23.7652
4946052 10.8957 10.8071 1.52738 0.898184 -0.743636 -11.9842 24.1284
4946055 10.8957 10.8071 1.52738 0.898184 -0.743636 -11.9842 24.1284
4946065 10.9391 10.8725 1.51692 0.898184 -0.707217 -12.0094 24.2268
4946076 10.9826 11.0033 1.59015 0.888828 -0.695527 -11.9602 24.4649
4946085 10.9826 11.0033 1.59015 0.888828 -0.695527 -11.9602 24.4649
4946101 11.0609 11.1434 1.62154 0.95432 -0.58987 -11.8815 24.7801
4946106 11.1304 11.1808 1.62154 0.973032 -0.600435 -11.8747 24.9058
4946128 11.1478 11.2742 1.64246 0.90754 -0.609252 -11.9366 24.972
4946154 11.1043 11.2555 1.52738 0.888828 -0.491817 -12.0743 24.7761
4946157 11 11.2275 1.54831 0.944964 -0.380115 -11.9743 24.7207
4946178 10.9304 11.0967 1.52738 0.870116 -0.502566 -12.0552 24.4246
4946187 10.9043 11.0593 1.50646 0.860759 -0.504203 -12.0812 24.3309
4946204 10.9043 11.0593 1.50646 0.860759 -0.504203 -12.0812 24.3309
4946207 10.8261 10.994 1.50646 0.842047 -0.513627 -12.0848 24.1686
4946217 10.8261 10.994 1.50646 0.842047 -0.513627 -12.0848 24.1686
4946231 10.7391 10.9566 1.46462 0.851403 -0.412038 -12.1064 24.0117
4946237 10.7304 10.9379 1.44369 0.851403 -0.401458 -12.1268 23.9634
4946258 10.7652 10.8632 1.43323 0.842047 -0.515835 -12.1444 23.9037
4946269 10.6522 10.8258 1.41231 0.823335 -0.437853 -12.1717 23.7136
4946281 10.6522 10.8258 1.41231 0.823335 -0.437853 -12.1717 23.7136
4946289 10.6174 10.8538 1.34954 0.879472 -0.246422 -12.1785 23.7002
4946299 10.5565 10.7978 1.42277 0.842047 -0.359286 -12.1233 23.6191
4946319 10.5043 10.7604 1.42277 0.813979 -0.375186 -12.1448 23.5015
4946335 10.5043 10.7604 1.42277 0.813979 -0.375186 -12.1448 23.5015
4946340 10.3565 10.7231 1.44369 0.879472 -0.211155 -12.0219 23.4028
4946350 10.3478 10.7044 1.43323 0.926252 -0.160614 -11.9765 23.4117
4946371 10.4 10.8632 1.55877 0.870116 -0.237915 -11.9244 23.6921
4946385 10.6 11.0593 1.54831 0.935608 -0.1588 -11.9135 24.1433
4946401 10.6957 11.2462 1.60062 1.0011 -0.0499249 -11.8199 24.5435
4946413 10.8609 11.3489 1.65292 1.01046 -0.155222 -11.7876 24.8731
4946428 10.8609 11.3489 1.65292 1.01046 -0.155222 -11.7876 24.8731
4946439 10.9478 11.433 1.69477 1.04788 -0.160952 -11.725 25.1234
4946454 10.9478 11.433 1.69477 1.04788 -0.160952 -11.725 25.1234
4946456 10.9739 11.4423 1.78892 1.13209 -0.185937 -11.5414 25.3372
4946466 10.9652 11.3676 1.72615 1.07595 -0.246508 -11.6555 25.1349
4946491 10.9652 11.1995 1.71569 1.04788 -0.434826 -11.6742 24.9282
4946493 10.8261 11.0126 1.67385 1.06659 -0.427905 -11.6552 24.5792
4946503 10.8261 11.0126 1.67385 1.06659 -0.427905 -11.6552 24.5792
4946516 10.7391 10.8352 1.75754 1.02917 -0.64892 -11.5682 24.361
4946523 10.7391 10.8352 1.75754 1.02917 -0.64892 -11.5682 24.361
4946533 10.7217 10.7418 1.69477 1.04788 -0.647426 -11.6009 24.2061
4946543 10.5739 10.6297 1.67385 1.09466 -0.54587 -11.5353 23.9721
4946568 10.5478 10.6203 1.65292 1.05724 -0.547761 -11.595 23.8783
4946575 10.513 10.4709 1.77846 1.06659 -0.791088 -11.4182 23.829
4946594 10.487 10.4429 1.74708 1.08531 -0.742641 -11.4241 23.7622
4946620 10.487 10.3868 1.79938 1.16951 -0.765455 -11.2644 23.8427
4946624 10.4957 10.4148 1.86215 1.24436 -0.727206 -11.1196 24.017
4946645 10.5043 10.3775 1.92492 1.26307 -0.819208 -11.0266 24.0698
4946654 10.513 10.4148 2.02954 1.28178 -0.872517 -10.9017 24.2392
4946671 10.513 10.4148 2.02954 1.28178 -0.872517 -10.9017 24.2392
4946674 10.4261 10.1626 2.09231 1.34728 -1.04926 -10.7056 24.0283
4946700 10.2261 9.76099 2.25969 1.37534 -1.42816 -10.3835 23.6221
4946705 9.9913 9.43407 2.40615 1.56247 -1.4971 -9.91072 23.394
4946716 9.9913 9.43407 2.40615 1.56247 -1.4971 -9.91072 23.394
4946726 9.89565 9.33132 2.87692 1.90864 -1.59564 -9.02117 24.0125
4946736 9.52174 9.0978 3.536 2.56357 -1.41224 -7.59735 24.7191
4946755 9.37391 8.99506 4.69723 3.45239 -1.53072 -5.78048 26.5186
4946765 9.33043 8.81758 5.576 4.06054 -1.82504 -4.59508 27.7846
4946779 9.33043 8.81758 5.576 4.06054 -1.82504 -4.59508 27.7846
4946788 8.86087 8.35989 5.69108 4.16346 -1.87311 -4.08097 27.0753
4946807 8.86087 8.35989 5.69108 4.16346 -1.87311 -4.08097 27.0753
4946808 8.27826 7.65 5.712 4.3038 -1.96236 -3.41839 25.9441
4946817 7.78261 7.00549 6.04677 4.37865 -2.42453 -2.59545 25.2135
4946834 7.78261 7.00549 6.04677 4.37865 -2.42453 -2.59545 25.2135
4946837 7.4 6.49176 6.33969 4.57512 -2.69365 -1.80009 24.8066
4946847 7.4 6.49176 6.33969 4.57512 -2.69365 -1.80009 24.8066
4946860 6.94783 6.19286 6.69538 4.79031 -2.70039 -1.00806 24.6264
4946867 6.46087 5.82857 7.29169 5.04293 -2.92505 0.0275195 24.6241
4946887 6.22609 5.74451 7.72062 5.40781 -2.78336 0.691962 25.099
4946897 6.2087 5.6511 8.024 5.61365 -2.91004 1.0459 25.4974
4946913 6.2087 5.6511 8.024 5.61365 -2.91004 1.0459 25.4974
4946917 6.2 5.71648 8.09723 5.72592 -2.77279 1.11113 25.7396
4946927 6.2 5.71648 8.09723 5.72592 -2.77279 1.11113 25.7396
4946940 6.14783 5.6511 8.09723 5.64172 -2.89006 1.1395 25.5379
4946947 6.10435 5.73516 7.92985 5.58558 -2.67546 0.991473 25.3549
4946957 6.10435 5.73516 7.92985 5.58558 -2.67546 0.991473 25.3549
4946967 6.11304 5.71648 7.76246 5.39846 -2.76162 0.799143 24.9904
4946977 6.09565 5.66978 7.72062 5.28619 -2.8866 0.751669 24.7722
4946993 6.09565 5.66978 7.72062 5.28619 -2.8866 0.751669 24.7722
4946997 6.17391 5.72582 7.58462 5.27683 -2.78245 0.58259 24.7612
4947007 6.17391 5.72582 7.58462 5.27683 -2.78245 0.58259 24.7612
4947020 6.23478 5.71648 7.55323 5.17391 -2.93538 0.471593 24.6784
4947027 6.33913 5.77253 7.60554 5.23941 -2.93784 0.440735 24.9566
4947037 6.33913 5.77253 7.60554 5.23941 -2.93784 0.440735 24.9566
4947047 6.4087 5.94066 7.63692 5.20198 -2.88128 0.291535 25.1883
4947057 6.61739 6.01538 7.49046 5.17391 -2.88427 0.0187361 25.2971
4947073 6.61739 6.01538 7.49046 5.17391 -2.88427 0.0187361 25.2971
4947085 6.72174 6.25824 7.33354 5.10842 -2.64399 -0.317455 25.4219
4947099 6.72174 6.25824 7.33354 5.10842 -2.64399 -0.317455 25.4219
4947100 6.7913 6.27692 7.15569 4.99615 -2.65059 -0.545034 25.2201
4947108 6.7913 6.31429 6.97785 4.90259 -2.5537 -0.735506 24.986
4947126 6.7913 6.31429 6.97785 4.90259 -2.5537 -0.735506 24.986
4947129 6.89565 6.38901 6.77908 4.83709 -2.45838 -1.00508 24.9008
4947138 6.94783 6.43571 6.69538 4.75289 -2.47123 -1.16902 24.8318
4947159 7.08696 6.57582 6.47569 4.70611 -2.29498 -1.4979 24.8446
4947180 7.09565 6.60385 6.28738 4.80903 -1.98638 -1.57471 24.7959
4947192 7.13043 6.57582 6.38154 4.78096 -2.16656 -1.53431 24.8688
4947207 7.13043 6.57582 6.38154 4.78096 -2.16656 -1.53431 24.8688
4947210 7.06957 6.57582 6.44431 4.82774 -2.1173 -1.42873 24.9174
4947220 7.04348 6.62253 6.49662 4.85581 -2.06024 -1.38713 25.0184
4947234 7.04348 6.62253 6.49662 4.85581 -2.06024 -1.38713 25.0184
4947241 7.04348 6.59451 6.40246 4.93066 -1.923 -1.38452 24.9711
4947251 7.01739 6.56648 6.40246 4.84645 -2.02043 -1.41041 24.8328
4947261 7.01739 6.56648 6.40246 4.84645 -2.02043 -1.41041 24.8328
4947270 7.0087 6.58517 6.42338 4.87452 -1.98098 -1.38357 24.8918
4947289 7.0087 6.58517 6.42338 4.87452 -1.98098 -1.38357 24.8918
4947291 6.95652 6.57582 6.40246 4.91194 -1.88276 -1.33897 24.8468
4947301 7.04348 6.65055 6.30831 4.89323 -1.81559 -1.50177 24.8956
4947316 7.04348 6.65055 6.30831 4.89323 -1.81559 -1.50177 24.8956
4947320 7.04348 6.66923 6.30831 4.81838 -1.87623 -1.56164 24.8394
4947330 7.04348 6.66923 6.30831 4.81838 -1.87623 -1.56164 24.8394
4947343 7.06957 6.66923 6.23508 4.81838 -1.83226 -1.6247 24.7923
4947350 7.14783 6.78132 6.21415 4.79031 -1.79511 -1.75948 24.9336
4947361 7.14783 6.78132 6.21415 4.79031 -1.79511 -1.75948 24.9336
4947370 7.22609 6.86538 6.03631 4.60319 -1.81333 -2.09371 24.731
4947381 7.32174 7.07088 5.82708 4.50028 -1.59554 -2.46679 24.72
4947397 7.32174 7.07088 5.82708 4.50028 -1.59554 -2.46679 24.72
4947401 7.51304 7.11758 5.61785 4.36929 -1.66955 -2.82935 24.6178
4947412 7.51304 7.11758 5.61785 4.36929 -1.66955 -2.82935 24.6178
4947423 7.64348 7.23901 5.41908 4.27573 -1.57444 -3.16614 24.5773
4947431 7.87826 7.53791 5.17846 4.0699 -1.46862 -3.75102 24.6645
4947441 7.87826 7.53791 5.17846 4.0699 -1.46862 -3.75102 24.6645
4947450 8.15652 7.92088 4.79138 3.75179 -1.29489 -4.5902 24.6206
4947460 8.43478 8.25714 4.45662 3.45239 -1.20103 -5.35523 24.6009
4947477 8.43478 8.25714 4.45662 3.45239 -1.20103 -5.35523 24.6009
4947480 8.82609 8.58407 4.03815 3.14364 -1.15539 -6.23884 24.5919
4947491 8.82609 8.58407 4.03815 3.14364 -1.15539 -6.23884 24.5919
4947505 9.11304 9.11648 3.58831 2.80682 -0.789902 -7.20887 24.6247
4947513 9.54783 9.59286 3.24308 2.44194 -0.761414 -8.13008 24.8257
4947520 9.54783 9.59286 3.24308 2.44194 -0.761414 -8.13008 24.8257
4947533 9.84348 10.0038 2.90831 2.10512 -0.646421 -8.95019 24.8608
4947541 10.1304 10.3495 2.56308 1.87122 -0.474472 -9.66052 24.9142
4947551 10.1304 10.3495 2.56308 1.87122 -0.474472 -9.66052 24.9142
4947560 10.3913 10.6297 2.25969 1.60925 -0.413902 -10.3367 24.8899
4947570 10.3913 10.6297 2.25969 1.60925 -0.413902 -10.3367 24.8899
4947589 10.513 10.8445 1.96677 1.36599 -0.272697 -10.9505 24.6903
4947590 10.5652 10.9473 1.86215 1.22565 -0.258608 -11.2344 24.6003
4947600 10.5652 10.9473 1.86215 1.22565 -0.258608 -11.2344 24.6003
4947614 10.5652 11.0313 1.70523 1.17887 -0.0615388 -11.4657 24.4806
4947622 10.3826 11.0313 1.62154 1.06659 0.0972599 -11.6541 24.1021
4947642 10.1826 11.0033 1.56923 1.01046 0.275519 -11.7436 23.7656
4947652 10.1826 11.0033 1.56923 1.01046 0.275519 -11.7436 23.7656
4947669 10.0783 11.05 1.50646 0.95432 0.444692 -11.8704 23.589
4947672 9.98261 11.1247 1.54831 1.0011 0.628689 -11.767 23.6567
4947682 9.98261 11.1247 1.54831 1.0011 0.628689 -11.767 23.6567
4947698 9.93913 11.1527 1.52738 0.973032 0.698605 -11.8205 23.5923
4947702 9.93913 11.1527 1.52738 0.973032 0.698605 -11.8205 23.5923
4947712 9.8 11.1154 1.50646 1.0011 0.864559 -11.7883 23.4229
4947730 9.75652 11.1995 1.56923 1.08531 1.01544 -11.6271 23.6105
4947736 9.75652 11.1995 1.56923 1.08531 1.01544 -11.6271 23.6105
4947742 9.64348 11.1901 1.53785 1.16015 1.24189 -11.5604 23.5316
4947754 9.62609 11.3115 1.59015 1.16015 1.32499 -11.5168 23.6879
4947763 9.62609 11.3115 1.59015 1.16015 1.32499 -11.5168 23.6879
4947781 9.62609 11.4049 1.68431 1.16951 1.32308 -11.4155 23.8848
4947783 9.66957 11.5637 1.75754 1.28178 1.46092 -11.2435 24.2726
4947793 9.66957 11.5637 1.75754 1.28178 1.46092 -11.2435 24.2726
4947808 9.71304 11.7319 1.82031 1.37534 1.59682 -11.1093 24.6406
4947813 9.71304 11.7319 1.82031 1.37534 1.59682 -11.1093 24.6406
4947823 9.73043 11.7599 1.85169 1.35663 1.55312 -11.103 24.6987
4947835 9.71304 11.9 1.87262 1.40341 1.72541 -11.0512 24.8891
4947843 9.71304 11.9 1.87262 1.40341 1.72541 -11.0512 24.8891
4947861 9.71304 12.0121 1.87262 1.45955 1.88166 -11.0105 25.0573
4947863 9.71304 12.0121 1.87262 1.45955 1.88166 -11.0105 25.0573
4947873 9.71304 11.9654 1.88308 1.47826 1.84459 -10.9728 25.0398
4947889 9.62609 11.872 1.88308 1.50633 1.87759 -10.9143 24.8875
4947893 9.62609 11.872 1.88308 1.50633 1.87759 -10.9143 24.8875
4947903 9.54783 11.7692 1.87262 1.39406 1.77236 -11.0136 24.5837
4947918 9.50435 11.7225 1.84123 1.47826 1.8895 -10.943 24.5464
4947933 9.47826 11.7132 1.87262 1.45955 1.85725 -10.9237 24.5236
4947954 9.51304 11.6945 1.93538 1.41277 1.68886 -10.9095 24.5557
4947971 9.57391 11.6852 1.86215 1.49697 1.77315 -10.9065 24.6182
4947984 9.6 11.5544 1.91446 1.47826 1.54621 -10.8536 24.5471
4947999 9.57391 11.4143 2.07138 1.44084 1.2345 -10.6994 24.5004
4948005 9.57391 11.4143 2.07138 1.44084 1.2345 -10.6994 24.5004
4948016 9.46957 11.3022 2.07138 1.4689 1.26496 -10.6314 24.3121
4948028 9.50435 11.1434 2.08185 1.45019 1.04158 -10.6178 24.1798
4948035 9.50435 11.1434 2.08185 1.45019 1.04158 -10.6178 24.1798
4948045 9.45217 11.0033 2.05046 1.4689 1.01103 -10.5962 23.9748
4948065 9.53913 10.9566 2.12369 1.45019 0.772721 -10.5456 24.0696
4948082 9.57391 10.9473 2.07138 1.40341 0.734884 -10.6558 23.996
4948097 9.6 10.9099 1.98769 1.4689 0.825217 -10.6732 23.9665
4948108 9.57391 10.8071 2.04 1.41277 0.635651 -10.6539 23.8338
4948135 9.5913 10.7698 2.02954 1.42212 0.599533 -10.6515 23.8127
4948147 9.65217 10.667 2.02954 1.43148 0.438181 -10.6337 23.7802
4948162 9.67826 10.6577 2.14462 1.51569 0.365162 -10.4239 23.9963
4948167 9.67826 10.6577 2.14462 1.51569 0.365162 -10.4239 23.9963
4948177 9.72174 10.7324 2.09231 1.50633 0.441426 -10.5116 24.0528
4948190 9.76522 10.7044 2.16554 1.4689 0.251558 -10.4766 24.1041
4948197 9.76522 10.7044 2.16554 1.4689 0.251558 -10.4766 24.1041
4948207 9.71304 10.6577 2.21785 1.57182 0.309002 -10.2944 24.1604
4948217 9.71304 10.6577 2.21785 1.57182 0.309002 -10.2944 24.1604
4948227 9.73913 10.5363 2.312 1.57182 0.0589371 -10.1772 24.1592
4948244 9.77391 10.5549 2.33292 1.58118 0.0302017 -10.1564 24.243
4948247 9.77391 10.5549 2.33292 1.58118 0.0302017 -10.1564 24.243
4948258 9.78261 10.5363 2.38523 1.63731 0.00589192 -10.0423 24.3414
4948270 9.63478 10.3401 2.45846 1.70281 -0.0521287 -9.82776 24.1362
4948288 9.58261 10.1533 2.48985 1.75894 -0.166996 -9.68562 23.9847
4948308 9.53913 10.0505 2.60492 1.75894 -0.349176 -9.53459 23.9535
4948325 9.44348 9.97582 2.76185 1.88993 -0.352678 -9.20245 24.0711
4948328 9.44348 9.97582 2.76185 1.88993 -0.352678 -9.20245 24.0711
4948338 9.38261 9.8544 2.98154 2.10512 -0.415882 -8.72628 24.3237
4948353 9.23478 9.76099 3.32677 2.3858 -0.419658 -8.064 24.7083
4948362 9.23478 9.76099 3.32677 2.3858 -0.419658 -8.064 24.7083
4948380 9.13913 9.72363 3.88123 2.87232 -0.414206 -7.09072 25.6163
4948389 9.06956 9.55549 4.50892 3.43368 -0.554538 -6.03127 26.5677
4948406 8.93913 9.33132 4.96923 3.79857 -0.71979 -5.27178 27.0382
4948419 8.54783 8.91099 5.09477 3.99505 -0.693594 -4.72849 26.5486
4948432 8.06956 8.40659 5.168 4.05118 -0.758685 -4.23636 25.6953
4948440 8.06956 8.40659 5.168 4.05118 -0.758685 -4.23636 25.6953
4948459 7.5913 7.89286 5.40862 4.1541 -0.95118 -3.54622 25.0469
4948462 7.04348 7.29505 5.712 4.35058 -1.13709 -2.62854 24.4011
4948486 6.43478 6.80934 6.51754 4.87452 -1.2872 -1.12765 24.6362
4948502 6.11304 6.36099 7.40677 5.40781 -1.73102 0.202001 25.2886
4948512 6 6.11813 7.84615 5.89433 -1.7728 0.941091 25.8586
4948522 6 6.11813 7.84615 5.89433 -1.7728 0.941091 25.8586
4948539 5.8 5.79121 8.00308 6.19373 -1.76258 1.51558 25.788
4948542 5.55652 5.47363 8.36923 6.54926 -1.83331 2.24771 25.9486
4948552 5.55652 5.47363 8.36923 6.54926 -1.83331 2.24771 25.9486
4948566 5.43478 5.27747 8.55754 6.6896 -1.9504 2.62037 25.9594
4948572 5.43478 5.27747 8.55754 6.6896 -1.9504 2.62037 25.9594
4948582 5.2 5.07198 8.73538 6.65217 -2.1544 2.99046 25.6595
4948593 5.07826 4.86648 8.73538 6.70831 -2.2046 3.24889 25.3884
4948602 5.07826 4.86648 8.73538 6.70831 -2.2046 3.24889 25.3884
4948619 4.86087 4.70769 8.88185 6.78316 -2.23102 3.62401 25.2336
4948622 4.72174 4.52088 9.07015 6.8393 -2.41702 3.97591 25.1521
4948632 4.72174 4.52088 9.07015 6.8393 -2.41702 3.97591 25.1521
4948645 4.63478 4.5022 9.23754 7.0732 -2.25651 4.22853 25.4477
4948652 4.63478 4.5022 9.23754 7.0732 -2.25651 4.22853 25.4477
4948661 4.53913 4.39945 9.37354 7.14805 -2.32242 4.46757 25.4602
4948673 4.44348 4.32473 9.44677 7.3071 -2.21223 4.69339 25.5221
4948683 4.44348 4.32473 9.44677 7.3071 -2.21223 4.69339 25.5221
4948701 4.4 4.25 9.66646 7.40066 -2.34843 4.90945 25.7171
4948703 4.4 4.25 9.66646 7.40066 -2.34843 4.90945 25.7171
4948713 4.44348 4.23132 9.62462 7.44744 -2.32003 4.8922 25.7469
4948728 4.34783 4.2033 9.56185 7.42873 -2.22934 4.95628 25.5417
4948743 4.29565 4.24066 9.58277 7.40066 -2.19154 4.96505 25.5197
4948754 4.27826 4.13791 9.54092 7.37259 -2.27863 5.03204 25.3297
4948763 4.27826 4.13791 9.54092 7.37259 -2.27863 5.03204 25.3297
4948780 4.25217 4.12857 9.67692 7.48487 -2.26647 5.15672 25.5425
4948793 4.15652 4.07253 9.75015 7.541 -2.2464 5.32643 25.5202
4948808 4.08696 3.97912 9.83385 7.541 -2.35907 5.48846 25.4409
4948813 4.08696 3.97912 9.83385 7.541 -2.35907 5.48846 25.4409
4948823 4.10435 4.10055 9.96985 7.66263 -2.23612 5.47322 25.8374
4948835 4.06957 4.03516 10.064 7.68134 -2.33757 5.59415 25.8501
4948853 4.06087 4.01648 10.0849 7.64392 -2.40775 5.60998 25.8062
4948874 4.02609 3.91374 10.2209 7.73748 -2.50577 5.80266 25.8982
4948888 3.93913 3.86703 10.2418 7.7749 -2.45813 5.93112 25.8229
4948894 3.93913 3.86703 10.2418 7.7749 -2.45813 5.93112 25.8229
4948904 3.89565 3.82033 10.2837 7.6907 -2.59661 5.98964 25.6904
4948914 3.86957 3.7456 10.3883 7.76555 -2.66475 6.13451 25.769
4948924 3.86957 3.7456 10.3883 7.76555 -2.66475 6.13451 25.769
4948942 3.84348 3.83901 10.3465 7.75619 -2.51573 6.06173 25.7851
4948954 3.8087 3.75495 10.4406 7.7749 -2.63727 6.19796 25.7792
4948968 3.8 3.71758 10.472 7.84975 -2.61681 6.27193 25.8393
4948974 3.8 3.71758 10.472 7.84975 -2.61681 6.27193 25.8393
4948984 3.74783 3.72692 10.5348 7.86846 -2.59604 6.33462 25.878
4948995 3.75652 3.63352 10.5034 7.8404 -2.70655 6.38483 25.7338
4949022 3.75652 3.63352 10.5034 7.8404 -2.70655 6.38483 25.7338
4949023 3.8087 3.6989 10.4825 7.85911 -2.64336 6.28684 25.8492
4949035 3.77391 3.66154 10.4406 7.76555 -2.7177 6.30072 25.6416
4949051 3.77391 3.63352 10.4825 7.7749 -2.77418 6.34133 25.6648
4949055 3.77391 3.63352 10.4825 7.7749 -2.77418 6.34133 25.6648
4949065 3.8087 3.66154 10.4825 7.80297 -2.74372 6.29873 25.7557
4949080 3.76522 3.63352 10.472 7.87782 -2.64664 6.37963 25.7486
4949085 3.76522 3.63352 10.472 7.87782 -2.64664 6.37963 25.7486
4949097 3.75652 3.71758 10.3988 7.85911 -2.50525 6.28621 25.732
4949107 3.75652 3.71758 10.3988 7.85911 -2.50525 6.28621 25.732
4949115 3.73913 3.68022 10.3778 7.76555 -2.6124 6.29278 25.5627
4949126 3.77391 3.6989 10.4092 7.74684 -2.67024 6.25266 25.6289
4949136 3.77391 3.6989 10.4092 7.74684 -2.67024 6.25266 25.6289
4949145 3.7913 3.68956 10.2732 7.70006 -2.62719 6.18313 25.4542
4949165 3.89565 3.78297 10.1477 7.65327 -2.55803 5.95909 25.4796
4949168 3.89565 3.78297 10.1477 7.65327 -2.55803 5.95909 25.4796
4949175 3.88696 3.80165 10.1686 7.62521 -2.57895 5.94835 25.4824
4949195 3.93913 3.82033 10.0326 7.55036 -2.56591 5.81447 25.3424
4949205 4.06957 3.96044 9.91754 7.51293 -2.46827 5.53827 25.4605
4949217 4.06957 3.96044 9.91754 7.51293 -2.46827 5.53827 25.4605
4949226 4.1913 4.10055 9.77108 7.37259 -2.44662 5.22015 25.4355
4949244 4.27826 4.2033 9.64554 7.28839 -2.39236 4.98852 25.4155
4949245 4.27826 4.2033 9.64554 7.28839 -2.39236 4.98852 25.4155
4949256 4.46087 4.30604 9.39446 7.20418 -2.31131 4.63132 25.3656
4949270 4.46087 4.30604 9.39446 7.20418 -2.31131 4.63132 25.3656
4949275 4.56522 4.42747 9.30031 7.00771 -2.40146 4.33703 25.3007
4949285 4.77391 4.55824 9.07015 6.80187 -2.46383 3.89213 25.2042
4949298 4.77391 4.55824 9.07015 6.80187 -2.46383 3.89213 25.2042
4949305 4.98261 4.73571 8.81908 6.68024 -2.36514 3.43866 25.2176
4949327 5.25217 4.95989 8.49477 6.41827 -2.35699 2.80654 25.1251
4949337 5.57391 5.21209 8.11815 6.22179 -2.24687 2.12168 25.1259
4949357 5.86087 5.6044 7.77292 5.85691 -2.16426 1.29382 25.0951
4949368 6.24348 6.01538 7.24985 5.48266 -1.99596 0.284286 24.9914
4949378 6.24348 6.01538 7.24985 5.48266 -1.99596 0.284286 24.9914
4949388 6.68696 6.53846 6.56985 5.10842 -1.61615 -0.931883 24.9037
4949406 7.09565 7.01484 5.96308 4.63126 -1.42951 -2.1349 24.7048
4949408 7.09565 7.01484 5.96308 4.63126 -1.42951 -2.1349 24.7048
4949419 7.4087 7.37912 5.50277 4.18217 -1.37927 -3.12769 24.4728
4949434 7.65217 7.65934 5.07385 3.90149 -1.19941 -3.91334 24.2868
4949439 7.65217 7.65934 5.07385 3.90149 -1.19941 -3.91334 24.2868
4949449 7.84348 7.79945 4.90646 3.70501 -1.28377 -4.34857 24.2544
4949462 7.84348 7.79945 4.90646 3.70501 -1.28377 -4.34857 24.2544
4949469 7.9913 8.02363 4.70769 3.50853 -1.20386 -4.82769 24.2312
4949489 8.16522 8.10769 4.49846 3.40561 -1.18953 -5.19223 24.177
4949499 8.23478 8.19176 4.55077 3.39626 -1.22831 -5.21847 24.3736
4949517 8.23478 8.19176 4.55077 3.39626 -1.22831 -5.21847 24.3736
4949519 8.4087 8.28516 4.47754 3.31205 -1.31621 -5.45528 24.4835
4949529 8.65217 8.41593 4.41477 3.24656 -1.41982 -5.70582 24.7294
4949550 8.88696 8.62143 4.28923 3.11558 -1.4442 -6.08327 24.9132
4949561 9.02609 8.78022 4.08 3.03137 -1.29877 -6.43816 24.9177
4949571 9.02609 8.78022 4.08 3.03137 -1.29877 -6.43816 24.9177
4949581 9.17391 8.87363 3.82892 2.84425 -1.29948 -6.90172 24.7207
4949600 9.33043 8.87363 3.66154 2.73198 -1.40905 -7.20226 24.5976
4949601 9.33043 9.02308 3.66154 2.73198 -1.24957 -7.24935 24.747
4949613 9.4087 9.13517 3.60923 2.74133 -1.14627 -7.34701 24.8944
4949626 9.4087 9.13517 3.60923 2.74133 -1.14627 -7.34701 24.8944
4949632 9.51304 9.22857 3.34769 2.50743 -1.14317 -7.85866 24.5967
4949654 9.46957 9.31264 3.25354 2.43258 -0.999135 -8.02839 24.4683
4949655 9.46957 9.31264 3.25354 2.43258 -0.999135 -8.02839 24.4683
4949662 9.46957 9.35934 3.11754 2.34838 -0.904913 -8.25052 24.2948
4949681 9.41739 9.35 3.11754 2.37644 -0.833097 -8.20651 24.2614
4949683 9.41739 9.35 3.11754 2.37644 -0.833097 -8.20651 24.2614
4949692 9.46087 9.37802 3.11754 2.32966 -0.896317 -8.27121 24.2861
4949712 9.48696 9.40604 3.14892 2.29224 -0.963251 -8.29195 24.3342
4949722 9.52174 9.49011 3.11754 2.31095 -0.85741 -8.33664 24.4403
4949737 9.52174 9.49011 3.11754 2.31095 -0.85741 -8.33664 24.4403
4949742 9.5913 9.63956 2.97108 2.34838 -0.584967 -8.49973 24.5503
