11153175 20.1489 27.0074 14.2966 15.4485 2.60412 -3.39614 76.9014
11153196 20.1887 26.8518 14.4838 15.5627 2.5108 -3.30679 77.0871
11153208 20.1887 26.8518 14.4838 15.5627 2.5108 -3.30679 77.0871
11153216 20.1389 26.774 14.4734 15.5627 2.50959 -3.28987 76.9491
11153228 20.2485 26.7449 14.463 15.439 2.42937 -3.33403 76.8954
11153246 20.2984 26.7546 14.3278 15.2867 2.41793 -3.41183 76.6674
11153256 20.3681 26.6962 14.307 15.201 2.35793 -3.43916 76.5724
11153272 20.3681 26.6962 14.307 15.201 2.35793 -3.43916 76.5724
11153276 20.4977 26.7351 14.307 15.1629 2.31197 -3.4737 76.7028
11153286 20.4977 26.7351 14.307 15.1629 2.31197 -3.4737 76.7028
11153296 20.6272 26.774 14.2966 15.0487 2.2473 -3.52899 76.7466
11153306 20.8066 26.7449 14.1719 14.8679 2.16548 -3.62542 76.5911
11153317 20.8066 26.7449 14.1719 14.8679 2.16548 -3.62542 76.5911
11153326 20.8863 26.7838 14.1615 14.8393 2.14401 -3.65248 76.6708
11153337 20.9959 26.7157 14.0887 14.8774 2.12203 -3.66707 76.6776
11153348 20.9959 26.7157 14.0887 14.8774 2.12203 -3.66707 76.6776
11153357 20.9959 26.7351 14.0679 14.8298 2.12098 -3.68661 76.6287
11153368 20.9959 26.7351 14.0679 14.8298 2.12098 -3.68661 76.6287
11153378 20.9062 26.667 14.1927 14.8774 2.10245 -3.6213 76.6433
11153388 20.8265 26.5601 14.2343 14.944 2.10388 -3.56723 76.5648
11153408 20.697 26.4434 14.4422 15.0963 2.08679 -3.44329 76.6788
11153418 20.5873 26.2683 14.6709 15.2486 2.03797 -3.3089 76.7752
11153430 20.5873 26.2683 14.6709 15.2486 2.03797 -3.3089 76.7752
11153440 20.4279 26.1711 14.8685 15.4009 2.04101 -3.18653 76.8683
11153455 20.4279 26.1711 14.8685 15.4009 2.04101 -3.18653 76.8683
11153461 20.3083 25.9085 15.0972 15.6484 1.99814 -3.01534 76.9624
11153470 20.0991 25.7723 15.2844 15.8102 2.01356 -2.87987 76.966
11153480 20.0991 25.7723 15.2844 15.8102 2.01356 -2.87987 76.966
11153490 19.8699 25.5584 15.4508 15.9625 2.01721 -2.73582 76.8415
11153500 19.8101 25.3541 15.6587 16.1529 1.96106 -2.60198 76.9758
11153521 19.6905 25.1304 15.8771 16.3527 1.91939 -2.4512 77.0507
11153531 19.4812 24.9554 16.0746 16.5146 1.91951 -2.30717 77.0258
11153541 19.4812 24.9554 16.0746 16.5146 1.91951 -2.30717 77.0258
11153552 19.1923 24.6928 16.3761 16.7335 1.90203 -2.09925 76.9947
11153561 19.1923 24.6928 16.3761 16.7335 1.90203 -2.09925 76.9947
11153571 18.8933 24.3913 16.6153 17.0292 1.92122 -1.87967 76.9291
11153581 18.694 24.0995 16.9584 17.263 1.85358 -1.66957 77.015
11153602 18.3552 23.7883 17.315 17.5553 1.84169 -1.41661 77.0138
11153614 18.0563 23.4479 17.6792 17.9352 1.83085 -1.14559 77.1187
11153622 18.0563 23.4479 17.6792 17.9352 1.83085 -1.14559 77.1187
11153633 17.6876 23.0395 18.1616 18.3054 1.77986 -0.827795 77.194
11153642 17.6876 23.0395 18.1616 18.3054 1.77986 -0.827795 77.194
11153653 17.2192 22.6213 18.6931 18.7536 1.76696 -0.464594 77.2872
11153662 16.8062 22.1739 19.2345 19.2504 1.73743 -0.0958854 77.4651
11153674 16.8062 22.1739 19.2345 19.2504 1.73743 -0.0958854 77.4651
11153682 16.4098 21.6779 19.7169 19.6986 1.69341 0.256956 77.5032
11153693 15.8813 21.1722 20.3075 20.1272 1.64883 0.654516 77.4882
11153702 15.8813 21.1722 20.3075 20.1272 1.64883 0.654516 77.4882
11153712 15.4409 20.8124 20.8686 20.5559 1.62812 0.998576 77.6777
11153732 14.9565 20.2288 21.4296 21.0235 1.56694 1.40417 77.6385
11153743 14.472 19.8009 22.0498 21.4619 1.52375 1.7816 77.7846
11153756 14.472 19.8009 22.0498 21.4619 1.52375 1.7816 77.7846
11153763 13.9347 19.2368 22.5026 21.91 1.51756 2.17333 77.5842
11153773 13.4591 18.77 23.1424 22.4361 1.47949 2.57355 77.8076
11153795 13.0275 18.2254 23.7134 22.9135 1.4118 2.9611 77.8797
11153805 13.0275 18.2254 23.7134 22.9135 1.4118 2.9611 77.8797
11153815 12.6311 17.71 24.2351 23.3421 1.34304 3.31812 77.9183
11153825 12.129 17.1945 24.8159 23.6734 1.26039 3.69458 77.8127
11153835 12.129 17.1945 24.8159 23.6734 1.26039 3.69458 77.8127
11153846 11.7679 16.7514 25.2982 24.0728 1.2062 4.01561 77.8902
11153855 11.3803 16.2725 25.7215 24.5014 1.17884 4.34733 77.8757
11153865 11.3803 16.2725 25.7215 24.5014 1.17884 4.34733 77.8757
11153874 11.0896 15.8397 26.1054 24.7547 1.09249 4.61454 77.7894
11153893 11.0896 15.8397 26.1054 24.7547 1.09249 4.61454 77.7894
11153895 10.7197 15.4437 26.5385 25.1542 1.07237 4.91856 77.856
11153905 10.5347 15.1766 26.9027 25.5146 1.04116 5.12732 78.1286
11153915 10.5347 15.1766 26.9027 25.5146 1.04116 5.12732 78.1286
11153925 10.2705 14.7806 27.2965 25.8458 0.97819 5.3888 78.1934
11153935 10.0415 14.4215 27.5524 26.0797 0.930679 5.60263 78.095
11153955 9.80363 14.0715 27.9068 26.4206 0.889274 5.84104 78.2025
11153965 9.80363 14.0715 27.9068 26.4206 0.889274 5.84104 78.2025
11153976 9.60104 13.7124 28.1627 26.7226 0.853994 6.0561 78.1987
11153985 9.3544 13.39 28.4383 27.0539 0.847164 6.2786 78.2366
11153995 9.3544 13.39 28.4383 27.0539 0.847164 6.2786 78.2366
11154005 9.1342 13.0769 28.8124 27.2974 0.774935 6.49226 78.3209
11154015 8.87876 12.6809 29.0782 27.6774 0.766572 6.74119 78.3152
11154025 8.87876 12.6809 29.0782 27.6774 0.766572 6.74119 78.3152
11154035 8.70259 12.2941 29.4621 28.067 0.699303 6.97841 78.5259
11154045 8.70259 12.2941 29.4621 28.067 0.699303 6.97841 78.5259
11154058 8.42073 11.8705 29.7672 28.408 0.666082 7.24207 78.4665
11154066 8.13886 11.5666 30.1708 28.8269 0.661945 7.48869 78.7032
11154077 8.13886 11.5666 30.1708 28.8269 0.661945 7.48869 78.7032
11154086 7.87461 11.1983 30.4858 29.1484 0.630903 7.73018 78.7071
11154096 7.67202 10.8759 30.8205 29.4407 0.578648 7.93941 78.8092
11154106 7.67202 10.8759 30.8205 29.4407 0.578648 7.93941 78.8092
11154116 7.4342 10.6273 30.978 29.6258 0.58504 8.11202 78.6653
11154126 7.4342 10.6273 30.978 29.6258 0.58504 8.11202 78.6653
11154136 7.30207 10.3602 31.0764 29.7427 0.54931 8.24848 78.4814
11154146 7.24041 10.2681 31.2241 29.7524 0.495663 8.30756 78.4851
11154156 7.24041 10.2681 31.2241 29.7524 0.495663 8.30756 78.4851
11154166 7.09067 10.1116 31.3225 29.8499 0.49386 8.41537 78.3746
11154177 7.02021 9.93662 31.5096 29.9473 0.431728 8.51255 78.4137
11154186 7.02021 9.93662 31.5096 29.9473 0.431728 8.51255 78.4137
11154196 6.94974 9.89057 31.6474 30.0544 0.42904 8.56766 78.5421
11154206 6.94974 9.89057 31.6474 30.0544 0.42904 8.56766 78.5421
11154216 6.82643 9.78927 31.7163 30.1226 0.436309 8.64638 78.4546
11154226 6.81762 9.74323 31.8639 30.2395 0.41354 8.68423 78.6643
11154247 6.73834 9.72481 31.9722 30.2688 0.40755 8.72467 78.7041
11154266 6.73834 9.72481 31.9722 30.2688 0.40755 8.72467 78.7041
11154269 6.63264 9.50379 32.1002 30.3857 0.367785 8.8428 78.6223
11154277 6.56218 9.44854 32.3167 30.6097 0.373515 8.91514 78.9372
11154287 6.56218 9.44854 32.3167 30.6097 0.373515 8.91514 78.9372
11154297 6.34197 9.34724 32.4152 30.639 0.390214 9.02265 78.7433
11154307 6.29793 9.26436 32.4349 30.7266 0.399566 9.06954 78.7238
11154317 6.29793 9.26436 32.4349 30.7266 0.399566 9.06954 78.7238
11154327 6.12176 9.24594 32.5825 30.7656 0.415191 9.1431 78.7158
11154348 6.07772 9.16306 32.5825 30.7461 0.397405 9.18064 78.5694
11154358 6.07772 9.19068 32.6317 30.902 0.438833 9.18731 78.8021
11154378 5.98083 9.09859 32.612 30.9312 0.456914 9.24616 78.6227
11154390 6.02487 9.17226 32.6022 31.0676 0.511247 9.2192 78.867
11154398 6.02487 9.17226 32.6022 31.0676 0.511247 9.2192 78.867
11154411 6.03368 9.15385 32.5038 31.1748 0.567794 9.22279 78.8661
11154419 6.00725 9.15385 32.5825 31.2625 0.577974 9.24306 79.0061
11154428 6.00725 9.15385 32.5825 31.2625 0.577974 9.24306 79.0061
11154438 5.98083 9.2091 32.5136 31.3794 0.661975 9.23772 79.0829
11154448 5.98083 9.2091 32.5136 31.3794 0.661975 9.23772 79.0829
11154472 5.89275 9.11701 32.3955 31.4378 0.718707 9.28875 78.8431
11154474 5.91917 9.15385 32.366 31.467 0.740048 9.26925 78.906
11154490 5.96321 9.11701 32.3266 31.4865 0.733191 9.26559 78.8933
11154500 5.82228 9.09859 32.2774 31.5255 0.801679 9.31396 78.7237
11154510 5.82228 9.09859 32.2774 31.5255 0.801679 9.31396 78.7237
11154526 5.72539 9.07096 32.3463 31.6034 0.826311 9.36301 78.7461
11154540 5.77824 9.07096 32.3266 31.5937 0.81245 9.34456 78.7695
11154550 5.78705 9.02492 32.3561 31.6424 0.800705 9.36168 78.8105
11154560 5.78705 9.02492 32.3561 31.6424 0.800705 9.36168 78.8105
11154570 5.80466 9.11701 32.425 31.5547 0.77377 9.32646 78.9014
11154580 5.83109 9.1078 32.4152 31.6521 0.795409 9.32745 79.0062
11154590 5.83109 9.1078 32.4152 31.6521 0.795409 9.32745 79.0062
11154601 5.78705 9.03413 32.425 31.7009 0.798929 9.36793 78.9471
11154621 5.77824 9.06176 32.4742 31.7301 0.803149 9.36772 79.0443
11154631 5.74301 9.01571 32.5431 31.6229 0.745168 9.39008 78.9248
11154651 5.82228 9.07096 32.5136 31.5937 0.736949 9.34437 79.0005
11154661 5.83109 9.07096 32.4742 31.4476 0.701949 9.32835 78.8238
11154671 5.83109 9.06176 32.4742 31.4476 0.699109 9.33119 78.8146
11154681 5.79586 9.02492 32.4939 31.4281 0.6868 9.35347 78.7428
11154691 5.79586 9.02492 32.4939 31.4281 0.6868 9.35347 78.7428
11154703 5.89275 8.99729 32.4545 31.3404 0.632396 9.32292 78.685
11154711 5.93679 9.08017 32.4644 31.2625 0.616384 9.2788 78.7438
11154722 5.93679 9.08017 32.4644 31.2625 0.616384 9.2788 78.7438
11154732 6.04249 9.04334 32.4644 31.204 0.552502 9.25333 78.7542
11154742 6.01606 9.09859 32.5333 31.165 0.543782 9.24664 78.813
11154752 6.01606 9.09859 32.5333 31.165 0.543782 9.24664 78.813
11154762 6.12176 9.02492 32.5727 31.1163 0.458807 9.23611 78.8357
11154782 6.09534 9.04334 32.5628 31.0384 0.451985 9.23215 78.7399
11154792 6.21865 9.09859 32.4939 30.941 0.421256 9.16502 78.7521
11154802 6.21865 9.09859 32.4939 30.941 0.421256 9.16502 78.7521
11154814 6.34197 9.2091 32.4841 30.7656 0.36442 9.0796 78.8008
11154823 6.38601 9.19068 32.4742 30.6779 0.320202 9.06443 78.7289
11154833 6.38601 9.19068 32.4742 30.6779 0.320202 9.06443 78.7289
11154844 6.45648 9.17226 32.425 30.639 0.295371 9.04186 78.6927
11154853 6.45648 9.17226 32.425 30.639 0.295371 9.04186 78.6927
11154863 6.41244 9.12622 32.4742 30.5903 0.263923 9.06946 78.6031
11154873 6.42124 9.15385 32.4742 30.5318 0.251389 9.05388 78.5811
11154885 6.42124 9.15385 32.4742 30.5318 0.251389 9.05388 78.5811
11154895 6.46528 9.19989 32.4152 30.4734 0.252309 9.0174 78.5537
11154905 6.46528 9.21831 32.4349 30.5026 0.260979 9.0155 78.621
11154916 6.46528 9.21831 32.4349 30.5026 0.260979 9.0155 78.621
11154926 6.54456 9.2091 32.4644 30.4539 0.207832 8.99265 78.6719
11154938 6.50052 9.18147 32.3955 30.4539 0.235364 9.00928 78.5313
11154945 6.50052 9.18147 32.3955 30.4539 0.235364 9.00928 78.5313
11154955 6.54456 9.25515 32.366 30.4149 0.24164 8.96809 78.5806
11154965 6.54456 9.25515 32.366 30.4149 0.24164 8.96809 78.5806
11154975 6.5886 9.29198 32.3856 30.3954 0.226656 8.94346 78.6616
11154985 6.62383 9.3104 32.3463 30.3759 0.227645 8.92259 78.6564
11154995 6.62383 9.3104 32.3463 30.3759 0.227645 8.92259 78.6564
11155005 6.65907 9.38407 32.2675 30.3954 0.270915 8.88492 78.7061
11155015 6.65907 9.38407 32.2675 30.3954 0.270915 8.88492 78.7061
11155026 6.74715 9.34724 32.1888 30.2785 0.219521 8.85411 78.5617
11155036 6.72953 9.38407 32.1789 30.3857 0.273672 8.85588 78.6782
11155056 6.73834 9.49458 32.2281 30.2006 0.231585 8.80908 78.6616
11155066 6.78238 9.47616 32.1395 30.2298 0.249285 8.79665 78.6279
11155090 6.78238 9.47616 32.1395 30.2298 0.249285 8.79665 78.6279
11155092 6.80881 9.49458 32.1494 30.1519 0.218895 8.7777 78.6046
11155098 6.82643 9.49458 32.1199 30.1129 0.210425 8.76694 78.5538
11155119 6.88808 9.69718 32.0608 30.0544 0.254998 8.67783 78.7005
11155127 6.88808 9.69718 32.0608 30.0544 0.254998 8.67783 78.7005
11155138 6.96736 9.64193 31.9624 29.9668 0.216129 8.65561 78.5384
11155147 7.00259 9.72481 31.8935 29.8791 0.225431 8.60736 78.4999
11155166 7.00259 9.72481 31.8935 29.8791 0.225431 8.60736 78.4999
11155168 7.06425 9.80769 31.8935 29.7427 0.188732 8.55279 78.5081
11155178 7.06425 9.77086 31.8147 29.7524 0.20546 8.55818 78.4022
11155187 7.06425 9.77086 31.8147 29.7524 0.20546 8.55818 78.4022
11155199 7.15233 9.86295 31.8344 29.7037 0.184572 8.50177 78.5534
11155207 7.15233 9.86295 31.8344 29.7037 0.184572 8.50177 78.5534
11155219 7.15233 9.84453 31.7163 29.5966 0.182763 8.4886 78.3097
11155230 7.16114 9.87216 31.6966 29.6258 0.204268 8.47847 78.3557
11155247 7.31969 9.90899 31.6572 29.4797 0.131357 8.40449 78.3655
11155258 7.31969 9.90899 31.6572 29.4797 0.131357 8.40449 78.3655
11155267 7.33731 10.0655 31.5194 29.4309 0.204137 8.33677 78.3532
11155278 7.44301 10.1392 31.4308 29.3725 0.203449 8.27086 78.3855
11155295 7.44301 10.1392 31.4308 29.3725 0.203449 8.27086 78.3855
11155299 7.56632 10.1853 31.2635 29.2751 0.20135 8.19777 78.2901
11155307 7.66321 10.2866 31.1847 29.1484 0.187483 8.12119 78.2829
11155317 7.66321 10.2866 31.1847 29.1484 0.187483 8.12119 78.2829
11155327 7.7513 10.4155 31.1355 29.1289 0.209624 8.05119 78.4312
11155338 7.7513 10.4155 31.1355 29.1289 0.209624 8.05119 78.4312
11155348 7.84819 10.5168 31.0174 28.9146 0.180671 7.96334 78.297
11155358 8.0772 10.6089 30.8107 28.7685 0.156364 7.8374 78.2652
11155368 8.0772 10.6089 30.8107 28.7685 0.156364 7.8374 78.2652
11155378 8.25337 10.8299 30.476 28.5931 0.221902 7.67459 78.1524
11155389 8.47358 11.0325 30.2397 28.3398 0.210994 7.50589 78.0856
11155408 8.66736 11.2443 30.0232 28.106 0.211367 7.34567 78.0408
11155430 8.85233 11.4101 29.6885 27.8332 0.225788 7.18514 77.7841
11155440 9.19586 11.7048 29.4325 27.6287 0.226077 6.95736 77.9618
11155460 9.48653 11.9626 29.0979 27.239 0.198364 6.72763 77.786
11155471 9.70674 12.3034 28.714 26.9564 0.270054 6.49976 77.6805
11155481 9.70674 12.3034 28.714 26.9564 0.270054 6.49976 77.6805
11155500 10.0855 12.5796 28.399 26.5765 0.216281 6.24229 77.6406
11155502 10.3321 12.9204 28.1332 26.294 0.241068 6.01985 77.6797
11155522 10.6228 13.1414 27.8379 26.0212 0.226068 5.81557 77.6233
11155532 10.6228 13.1414 27.8379 26.0212 0.226068 5.81557 77.6233
11155544 10.8078 13.3256 27.5721 25.69 0.205335 5.64544 77.3954
11155552 11.0544 13.6111 27.4343 25.5341 0.211397 5.46854 77.6338
11155562 11.0544 13.6111 27.4343 25.5341 0.211397 5.46854 77.6338
11155572 11.2834 13.8229 27.0307 25.2905 0.258079 5.27234 77.4275
11155582 11.5124 14.1176 26.883 25.0178 0.238565 5.08265 77.5308
11155602 11.7767 14.2833 26.6271 24.7645 0.207871 4.90595 77.4516
11155612 11.7767 14.2833 26.6271 24.7645 0.207871 4.90595 77.4516
11155622 11.9881 14.5412 26.2235 24.5501 0.284508 4.70443 77.3029
11155632 12.2964 14.8082 25.9085 24.2384 0.272405 4.47415 77.2515
11155642 12.2964 14.8082 25.9085 24.2384 0.272405 4.47415 77.2515
11155653 12.5606 15.0477 25.6427 23.9559 0.259107 4.27235 77.2069
11155662 12.7808 15.3055 25.3868 23.7513 0.287861 4.08907 77.2244
11155672 12.7808 15.3055 25.3868 23.7513 0.287861 4.08907 77.2244
11155682 13.142 15.6002 25.0127 23.3908 0.271025 3.8229 77.1458
11155692 13.142 15.6002 25.0127 23.3908 0.271025 3.8229 77.1458
11155703 13.4415 15.8489 24.6682 23.0791 0.265545 3.59376 77.0376
11155713 13.7585 16.1896 24.2449 22.7576 0.306594 3.32441 76.9507
11155733 14.1637 16.5948 23.6937 22.4264 0.378436 2.99723 76.8786
11155745 14.5513 16.8711 23.3196 22.0367 0.337604 2.72223 76.7787
11155765 15.0005 17.4085 22.6995 21.5983 0.425893 2.32485 76.7067
11155777 15.4233 17.8558 22.1778 21.1307 0.452232 1.96428 76.5876
11155799 15.8197 18.4102 21.6068 20.6436 0.531903 1.57305 76.4803
11155807 15.8197 18.4102 21.6068 20.6436 0.531903 1.57305 76.4803
11155815 16.2601 18.8576 21.095 20.0883 0.521204 1.19243 76.3009
11155825 16.7358 19.4022 20.5831 19.6791 0.576705 0.809734 76.4001
11155835 16.7358 19.4022 20.5831 19.6791 0.576705 0.809734 76.4001
11155845 17.2691 19.8884 20.0318 19.2309 0.594896 0.413235 76.4203
11155855 17.2691 19.8884 20.0318 19.2309 0.594896 0.413235 76.4203
11155866 17.8072 20.2872 19.6086 18.8413 0.559393 0.0696641 76.5442
11155875 18.2556 20.8026 19.0573 18.3736 0.609031 -0.319112 76.4892
11155885 18.2556 20.8026 19.0573 18.3736 0.609031 -0.319112 76.4892
11155895 18.7638 21.2792 18.6242 17.8378 0.564998 -0.702097 76.505
11155905 19.1424 21.6876 18.2403 17.5358 0.600708 -0.989601 76.6062
11155915 19.1424 21.6876 18.2403 17.5358 0.600708 -0.989601 76.6062
11155925 19.5012 22.0864 17.8466 17.1169 0.605991 -1.29798 76.551
11155935 19.5012 22.0864 17.8466 17.1169 0.605991 -1.29798 76.551
11155945 19.9197 22.5046 17.3642 16.7049 0.629333 -1.6384 76.4934
11155955 20.4279 23.02 16.9272 16.2385 0.621113 -2.01312 76.6137
11155965 20.4279 23.02 16.9272 16.2385 0.621113 -2.01312 76.6137
11155976 20.8066 23.3701 16.4905 15.8102 0.615624 -2.32931 76.4774
11155986 21.1354 23.7397 16.0746 15.4675 0.653389 -2.61714 76.4173
11155997 21.1354 23.7397 16.0746 15.4675 0.653389 -2.61714 76.4173
11156006 21.5041 24.0995 15.6795 15.201 0.691956 -2.88748 76.4842
11156016 21.5041 24.0995 15.6795 15.201 0.691956 -2.88748 76.4842
11156026 21.7632 24.4108 15.3676 14.8869 0.708795 -3.12439 76.4284
11156036 22.0322 24.7414 15.0557 14.5633 0.72546 -3.3684 76.3926
11156046 22.0322 24.7414 15.0557 14.5633 0.72546 -3.3684 76.3926
11156056 22.4009 25.0915 14.7541 14.2492 0.714299 -3.62553 76.4958
11156066 22.7796 25.393 14.4734 13.9636 0.686476 -3.86419 76.6096
11156086 23.0885 25.7042 14.0263 13.64 0.728953 -4.14466 76.459
11156100 23.0885 25.7042 14.0263 13.64 0.728953 -4.14466 76.459
11156113 23.3177 25.8793 13.8287 13.3925 0.6953 -4.31358 76.4182
11156118 23.5768 26.1224 13.6 13.2307 0.710937 -4.48227 76.5299
11156127 23.5768 26.1224 13.6 13.2307 0.710937 -4.48227 76.5299
11156137 23.806 26.2975 13.3505 12.9737 0.691742 -4.66703 76.4276
11156148 24.0451 26.5212 13.0697 12.7452 0.704214 -4.86075 76.3813
11156168 24.2444 26.7546 12.9969 12.5454 0.672367 -4.98882 76.5413
11156190 24.3839 26.8713 12.8306 12.3645 0.660974 -5.11315 76.4503
11156198 24.4637 27.0463 12.737 12.2503 0.68498 -5.20072 76.4973
11156212 24.4637 27.0463 12.737 12.2503 0.68498 -5.20072 76.4973
11156220 24.6231 27.1241 12.6018 12.1837 0.680381 -5.28436 76.5327
11156234 24.8025 27.2506 12.5083 11.9838 0.628266 -5.40094 76.5451
11156240 24.8025 27.2506 12.5083 11.9838 0.628266 -5.40094 76.5451
11156250 25.1114 27.5812 12.2899 11.7172 0.618386 -5.60995 76.6998
11156260 25.3206 27.8244 12.1028 11.5174 0.624743 -5.7692 76.7651
11156280 25.6594 28.0967 11.8116 11.2413 0.607657 -5.99601 76.8091
11156301 25.9683 28.2912 11.5517 10.9748 0.568452 -6.19899 76.786
11156311 26.2374 28.5051 11.2502 10.6226 0.535214 -6.43535 76.6153
11156331 26.5662 28.7969 10.9486 10.3751 0.540248 -6.65812 76.6869
11156345 26.7755 28.9428 10.7095 10.1277 0.517753 -6.83449 76.5554
11156351 26.7755 28.9428 10.7095 10.1277 0.517753 -6.83449 76.5554
11156365 26.9449 29.1276 10.3768 9.89922 0.558338 -7.03285 76.3484
11156371 26.9449 29.1276 10.3768 9.89922 0.558338 -7.03285 76.3484
11156381 27.0445 29.2443 10.2416 9.76596 0.564933 -7.13296 76.2964
11156392 27.1741 29.4193 10.148 9.68981 0.584525 -7.21346 76.4313
11156401 27.1741 29.4193 10.148 9.68981 0.584525 -7.21346 76.4313
11156411 27.2837 29.5166 10.0752 9.59462 0.572863 -7.28332 76.4701
11156421 27.3535 29.643 9.96086 9.55655 0.615984 -7.3475 76.5139
11156431 27.3535 29.643 9.96086 9.55655 0.615984 -7.3475 76.5139
11156452 27.3634 29.6333 9.92966 9.56607 0.623026 -7.35386 76.4925
11156454 27.3634 29.6333 9.92966 9.56607 0.623026 -7.35386 76.4925
11156463 27.2737 29.7208 9.96086 9.70885 0.715807 -7.30292 76.6643
11156474 27.2638 29.7695 10.0856 9.68029 0.683713 -7.27885 76.7991
11156482 27.2638 29.7695 10.0856 9.68029 0.683713 -7.27885 76.7991
11156498 27.1043 29.7695 10.044 9.75644 0.7752 -7.25275 76.6743
11156502 27.0246 29.7403 10.1688 9.8897 0.792909 -7.16703 76.8234
11156522 26.9349 29.7305 10.1688 10.042 0.867888 -7.11299 76.8763
11156532 26.9349 29.7305 10.1688 10.042 0.867888 -7.11299 76.8763
11156543 26.7556 29.5944 10.2104 10.1277 0.898471 -7.04385 76.688
11156552 26.5662 29.5944 10.3456 10.3371 0.98241 -6.9254 76.8433
11156565 26.5662 29.5944 10.3456 10.3371 0.98241 -6.9254 76.8433
11156572 26.3769 29.4971 10.4911 10.5179 1.02331 -6.80221 76.8831
11156586 26.1278 29.4193 10.5743 10.6988 1.11169 -6.69239 76.8202
11156592 26.1278 29.4193 10.5743 10.6988 1.11169 -6.69239 76.8202
11156604 25.8986 29.361 10.7927 10.8891 1.15636 -6.54611 76.9414
11156613 25.8986 29.361 10.7927 10.8891 1.15636 -6.54611 76.9414
11156624 25.5498 29.1665 11.0214 11.089 1.19889 -6.36612 76.8267
11156634 25.2409 29.0498 11.2709 11.2699 1.23901 -6.1986 76.8315
11156643 25.2409 29.0498 11.2709 11.2699 1.23901 -6.1986 76.8315
11156656 25.1114 28.8942 11.3333 11.4317 1.26388 -6.104 76.7706
11156663 24.942 28.8066 11.4581 11.5935 1.3021 -5.99549 76.8002
11156678 24.942 28.8066 11.4581 11.5935 1.3021 -5.99549 76.8002
11156683 24.8224 28.7094 11.5517 11.6411 1.29568 -5.93141 76.7245
11156693 24.8224 28.7094 11.5517 11.6411 1.29568 -5.93141 76.7245
11156703 24.6928 28.5635 11.6141 11.7934 1.3207 -5.84022 76.6638
11156713 24.5932 28.6413 11.6557 11.8505 1.38224 -5.81081 76.7407
11156723 24.5932 28.6413 11.6557 11.8505 1.38224 -5.81081 76.7407
11156733 24.7227 28.5732 11.6765 11.9267 1.33314 -5.79192 76.8991
11156744 24.663 28.583 11.6141 11.9933 1.39852 -5.78477 76.8532
11156753 24.663 28.583 11.6141 11.9933 1.39852 -5.78477 76.8532
11156765 24.6829 28.6024 11.6141 11.9933 1.39764 -5.78949 76.8926
11156787 24.5832 28.5343 11.4685 11.8695 1.42309 -5.84251 76.4556
11156795 24.5533 28.5538 11.4893 11.9552 1.45861 -5.81228 76.5516
11156810 24.5533 28.5538 11.4893 11.9552 1.45861 -5.81228 76.5516
11156816 24.643 28.6024 11.4477 11.9647 1.45986 -5.83756 76.6579
11156825 24.6032 28.5538 11.4477 12.0409 1.48208 -5.80628 76.6455
11156835 24.6032 28.5538 11.4477 12.0409 1.48208 -5.80628 76.6455
11156846 24.5334 28.5927 11.4581 12.0314 1.51161 -5.80234 76.6156
11156856 24.5334 28.5927 11.4581 12.0314 1.51161 -5.80234 76.6156
11156866 24.4437 28.5538 11.4269 12.098 1.562 -5.77725 76.5224
11156877 24.5234 28.583 11.4373 12.098 1.53969 -5.78754 76.6417
11156886 24.5234 28.583 11.4373 12.098 1.53969 -5.78754 76.6417
11156898 24.5434 28.6705 11.4477 12.1361 1.56758 -5.78731 76.7976
11156908 24.5035 28.6899 11.4685 12.1551 1.58591 -5.77408 76.817
11156920 24.5035 28.6899 11.4685 12.1551 1.58591 -5.77408 76.817
11156926 24.5633 28.6608 11.3957 12.117 1.5699 -5.80777 76.7368
11156936 24.5633 28.6608 11.3957 12.117 1.5699 -5.80777 76.7368
11156946 24.5932 28.7872 11.2917 12.1361 1.6399 -5.84949 76.8082
11156956 24.5733 28.7872 11.219 12.0885 1.65761 -5.87985 76.6679
11156967 24.5733 28.7872 11.219 12.0885 1.65761 -5.87985 76.6679
11156976 24.6928 28.8164 11.2086 11.9933 1.59959 -5.92627 76.7111
11156986 24.6928 28.8066 11.1254 11.9362 1.60805 -5.96346 76.561
11156996 24.6928 28.8066 11.1254 11.9362 1.60805 -5.96346 76.561
11157008 24.7925 28.8164 11.0942 11.8981 1.57562 -5.99532 76.6011
11157018 24.7925 28.8164 11.0942 11.8981 1.57562 -5.99532 76.6011
11157029 24.8224 28.9039 10.9798 11.86 1.62007 -6.05094 76.5661
11157041 24.8423 28.9817 10.959 11.8981 1.6557 -6.0576 76.6811
11157048 24.8423 28.9817 10.959 11.8981 1.6557 -6.0576 76.6811
11157057 24.8025 28.9622 10.9902 11.8505 1.63829 -6.05518 76.6054
11157078 24.8124 28.9331 10.9174 11.8981 1.66577 -6.05987 76.561
11157080 24.8124 28.9331 10.9174 11.8981 1.66577 -6.05987 76.561
11157092 24.7626 29.0011 10.9902 11.8505 1.66401 -6.05507 76.6045
11157103 24.7128 29.0011 11.167 11.9171 1.64019 -5.98254 76.798
11157111 24.7128 28.9136 11.167 11.9171 1.61354 -5.97225 76.7105
11157119 24.7028 28.8358 11.0838 11.9742 1.63958 -5.96904 76.5967
11157141 24.643 28.8747 11.1878 12.0028 1.64478 -5.93036 76.7083
11157152 24.5733 28.6899 11.2294 12.098 1.62725 -5.86284 76.5905
11157160 24.5733 28.6899 11.2294 12.098 1.62725 -5.86284 76.5905
11157176 24.4537 28.5927 11.3229 12.1837 1.63276 -5.78811 76.553
11157180 24.2644 28.3982 11.5725 12.374 1.61056 -5.62258 76.609
11157190 24.2644 28.3982 11.5725 12.374 1.61056 -5.62258 76.609
11157200 24.1348 28.2037 11.7596 12.5834 1.59511 -5.4763 76.6815
11157210 24.1348 28.2037 11.7596 12.5834 1.59511 -5.4763 76.6815
11157226 23.9355 28.0675 11.9884 12.7548 1.59564 -5.32793 76.7462
11157230 23.8458 27.9216 12.2275 12.9927 1.572 -5.17236 76.9877
11157241 23.8458 27.9216 12.2275 12.9927 1.572 -5.17236 76.9877
11157251 23.6964 27.7757 12.3835 13.1355 1.56882 -5.05639 76.9911
11157261 23.507 27.6396 12.5394 13.2592 1.57655 -4.94142 76.9453
11157274 23.507 27.6396 12.5394 13.2592 1.57655 -4.94142 76.9453
11157281 23.3277 27.3965 12.789 13.4591 1.53916 -4.76977 76.9722
11157291 23.3277 27.3965 12.789 13.4591 1.53916 -4.76977 76.9722
11157301 23.1383 27.1922 12.9865 13.5543 1.50304 -4.64211 76.8714
11157311 23.0686 27.0658 13.1841 13.7542 1.4815 -4.51445 77.0727
11157322 23.0686 27.0658 13.1841 13.7542 1.4815 -4.51445 77.0727
11157331 22.9291 26.9685 13.2985 13.8684 1.49531 -4.42436 77.0645
11157345 22.8195 26.7935 13.4024 13.897 1.45248 -4.35174 76.9124
11157362 22.7198 26.6865 13.496 14.0302 1.46261 -4.26608 76.9326
11157382 22.5703 26.5601 13.548 14.0588 1.46621 -4.20727 76.7372
11157393 22.4906 26.4142 13.6832 14.154 1.43154 -4.11789 76.742
11157402 22.4906 26.4142 13.6832 14.154 1.43154 -4.11789 76.742
11157415 22.381 26.3461 13.8391 14.2301 1.41806 -4.03493 76.7964
11157422 22.2913 26.278 13.9223 14.3063 1.42277 -3.97291 76.798
11157442 22.3013 26.2391 14.0055 14.3063 1.37882 -3.94822 76.8522
11157463 22.2913 26.1322 13.9743 14.2872 1.35416 -3.94378 76.685
11157473 22.2315 26.1224 14.0991 14.2587 1.32003 -3.91 76.7117
11157493 22.2116 26.1711 14.0575 14.2587 1.35616 -3.92441 76.6988
11157505 22.2315 26.1322 14.0367 14.2587 1.34446 -3.9268 76.6591
11157513 22.2315 26.1322 14.0367 14.2587 1.34446 -3.9268 76.6591
11157527 22.2415 26.103 14.0991 14.3539 1.33997 -3.8852 76.7974
11157544 22.2216 26.0543 14.0887 14.3158 1.32364 -3.8872 76.6804
11157555 22.2614 26.103 14.1719 14.3158 1.29647 -3.87955 76.8521
11157564 22.2614 26.103 14.1719 14.3158 1.29647 -3.87955 76.8521
11157573 22.1917 26.0446 14.1719 14.3063 1.29941 -3.86332 76.7144
11157584 22.2016 26.0446 14.2031 14.2968 1.28237 -3.85944 76.7461
11157594 22.2016 26.0446 14.2031 14.2968 1.28237 -3.85944 76.7461
11157604 22.2116 26.0641 14.2446 14.3348 1.28249 -3.84415 76.8552
11157613 22.2116 26.0641 14.2446 14.3348 1.28249 -3.84415 76.8552
11157623 22.1419 25.9085 14.2654 14.3348 1.25113 -3.80624 76.6506
11157635 22.0721 25.8307 14.411 14.4776 1.2453 -3.71412 76.7914
11157644 22.0721 25.8307 14.411 14.4776 1.2453 -3.71412 76.7914
11157655 22.0223 25.7237 14.5774 14.449 1.16353 -3.65748 76.7724
11157663 21.9426 25.6556 14.6502 14.6013 1.19202 -3.58102 76.8497
11157673 21.9426 25.6556 14.6502 14.6013 1.19202 -3.58102 76.8497
11157683 21.8429 25.5681 14.8581 14.687 1.15458 -3.48235 76.9561
11157696 21.8429 25.5681 14.8581 14.687 1.15458 -3.48235 76.9561
11157708 21.6436 25.4027 14.9621 14.8012 1.17117 -3.37517 76.8097
11157719 21.5639 25.2082 15.1596 14.8679 1.09134 -3.27045 76.7996
11157726 21.5639 25.2082 15.1596 14.8679 1.09134 -3.27045 76.7996
11157735 21.3746 25.0332 15.4196 15.1058 1.08694 -3.09665 76.9331
11157745 21.1553 24.8873 15.6275 15.2772 1.09867 -2.95097 76.9473
11157756 21.1553 24.8873 15.6275 15.2772 1.09867 -2.95097 76.9473
11157765 21.0358 24.6733 15.8251 15.4009 1.04419 -2.82377 76.9351
11157775 21.0358 24.6733 15.8251 15.4009 1.04419 -2.82377 76.9351
11157785 20.8564 24.4788 16.085 15.6008 1.01862 -2.65825 77.021
11157795 20.7268 24.2649 16.3761 15.7626 0.947902 -2.49959 77.1305
11157806 20.7268 24.2649 16.3761 15.7626 0.947902 -2.49959 77.1305
11157815 20.4578 24.0606 16.5633 15.9339 0.965217 -2.34132 77.0157
11157825 20.1987 23.7883 16.8232 16.1338 0.942308 -2.15026 76.9441
11157835 20.1987 23.7883 16.8232 16.1338 0.942308 -2.15026 76.9441
11157847 19.9894 23.5841 17.2264 16.3718 0.887638 -1.93893 77.1717
11157856 19.9894 23.5841 17.2264 16.3718 0.887638 -1.93893 77.1717
11157868 19.6606 23.2145 17.5217 16.6097 0.857702 -1.70317 77.0066
11157876 19.4215 22.9714 17.7776 16.7811 0.829539 -1.52709 76.9516
11157886 19.4215 22.9714 17.7776 16.7811 0.829539 -1.52709 76.9516
11157896 19.2022 22.6602 18.1616 17.0877 0.772932 -1.28642 77.1116
11157906 18.7538 22.2809 18.5455 17.4189 0.779405 -0.987741 76.9991
11157916 18.7538 22.2809 18.5455 17.4189 0.779405 -0.987741 76.9991
11157926 18.3851 21.9211 18.9983 17.8183 0.763723 -0.678703 77.1228
11157936 18.3851 21.9211 18.9983 17.8183 0.763723 -0.678703 77.1228
11157946 17.9168 21.4348 19.5003 18.1788 0.712875 -0.325675 77.0306
11157956 17.4783 21.0069 20.0614 18.5977 0.669163 0.0338155 77.1443
11157976 16.8855 20.6567 20.7406 19.0848 0.683576 0.442657 77.3677
11157987 16.357 20.6567 21.3706 19.6401 0.82323 0.768403 78.0244
11157997 16.357 20.1121 21.3706 19.6401 0.653288 0.879242 77.4798
11158007 15.9166 19.587 21.912 20.0298 0.577244 1.24699 77.4453
11158027 15.3528 19.0521 22.4632 20.4877 0.557053 1.65715 77.3558
11158038 14.9036 18.5366 22.9653 20.9748 0.530663 2.03536 77.3803
11158048 14.9036 18.5366 22.9653 20.9748 0.530663 2.03536 77.3803
11158059 14.5161 18.0406 23.5362 21.4911 0.476736 2.41106 77.584
11158070 14.1637 17.6419 23.9496 21.8029 0.429156 2.69737 77.5581
11158081 14.1637 17.6419 23.9496 21.8029 0.429156 2.69737 77.5581
11158088 13.8114 17.3209 24.3729 22.1146 0.403005 2.96738 77.6199
11158098 13.8114 17.3209 24.3729 22.1146 0.403005 2.96738 77.6199
11158108 13.5031 16.9447 24.7666 22.4556 0.363904 3.23955 77.6701
11158122 13.0891 16.5488 25.2884 22.7868 0.308216 3.55873 77.7131
11158129 13.0891 16.5488 25.2884 22.7868 0.308216 3.55873 77.7131
11158143 12.7896 16.1896 25.8101 23.1375 0.233364 3.84368 77.9268
11158151 12.4197 15.7384 26.3318 23.5954 0.186428 4.18181 78.0852
11158170 12.0762 15.3976 26.696 23.9559 0.18602 4.45016 78.1257
11158181 12.0762 15.3976 26.696 23.9559 0.18602 4.45016 78.1257
11158190 11.7855 14.9924 27.0996 24.2287 0.107542 4.7148 78.1062
11158200 11.3979 14.6517 27.5229 24.5989 0.105453 5.00288 78.1713
11158211 11.3979 14.6517 27.5229 24.5989 0.105453 5.00288 78.1713
11158220 11.0192 14.2373 27.9954 24.9593 0.058189 5.31221 78.2111
11158230 10.6933 13.7584 28.4974 25.388 -0.0141367 5.63598 78.337
11158240 10.6933 13.7584 28.4974 25.388 -0.0141367 5.63598 78.337
11158252 10.2793 13.2979 29.0388 25.8751 -0.046204 5.98857 78.4911
11158273 9.84767 12.7546 29.5014 26.2745 -0.102074 6.34877 78.3782
11158281 9.53057 12.2849 30.0133 26.8103 -0.142626 6.67761 78.6391
11158290 9.53057 12.2849 30.0133 26.8103 -0.142626 6.67761 78.6391
11158300 9.16062 11.7416 30.5055 27.2 -0.230423 7.02283 78.6077
11158310 8.79067 11.3088 30.9288 27.5215 -0.283003 7.32354 78.5497
11158331 8.43834 10.9128 31.3914 27.9501 -0.307161 7.62277 78.6927
11158342 8.43834 10.9128 31.3914 27.9501 -0.307161 7.62277 78.6927
11158352 8.08601 10.4339 31.7655 28.2521 -0.370981 7.92571 78.5376
11158364 7.72487 9.98267 32.2085 28.6711 -0.407065 8.24029 78.5871
11158371 7.72487 9.98267 32.2085 28.6711 -0.407065 8.24029 78.5871
11158385 7.39896 9.53142 32.681 29.1192 -0.453855 8.54874 78.7305
11158392 7.05544 9.17226 33.0747 29.5381 -0.4502 8.82512 78.8405
11158401 7.05544 9.17226 33.0747 29.5381 -0.4502 8.82512 78.8405
11158411 6.84404 8.88678 33.4389 29.8986 -0.473514 9.03143 79.0683
11158421 6.84404 8.88678 33.4389 29.8986 -0.473514 9.03143 79.0683
11158431 6.59741 8.52763 33.8327 30.1713 -0.546922 9.26568 79.129
11158441 6.28912 8.11322 34 30.5513 -0.514422 9.52754 78.9536
11158451 6.28912 8.11322 34 30.5513 -0.514422 9.52754 78.9536
11158461 6.02487 7.7909 34 30.8046 -0.454523 9.72817 78.6204
11158472 5.80466 7.45937 34 31.0287 -0.420423 9.91752 78.2927
11158482 5.80466 7.45937 34 31.0287 -0.420423 9.91752 78.2927
11158494 5.61088 7.21993 34 31.3501 -0.332819 10.0765 78.181
11158504 5.61088 7.21993 34 31.3501 -0.332819 10.0765 78.181
11158516 5.43471 6.98971 34 31.4865 -0.307554 10.2159 77.911
11158523 5.32021 6.80553 34 31.6327 -0.283575 10.3218 77.7584
11158544 5.17047 6.59372 34 31.5937 -0.317697 10.4378 77.3579
11158568 5.14404 6.52004 34 31.545 -0.349382 10.4679 77.2091
11158571 5.14404 6.52004 34 31.545 -0.349382 10.4679 77.2091
11158575 5.17047 6.50163 34 31.5547 -0.360665 10.4658 77.2268
11158584 5.18808 6.50163 34 31.5158 -0.379086 10.4577 77.2055
11158594 5.18808 6.52004 34 31.5158 -0.373033 10.4516 77.2239
11158605 5.17047 6.52004 34 31.5547 -0.354616 10.4597 77.2452
11158615 5.17047 6.52004 34 31.5547 -0.354616 10.4597 77.2452
11158625 5.17927 6.52004 34 31.4281 -0.399064 10.4494 77.1274
11158635 5.24974 6.59372 34 31.4281 -0.397281 10.4019 77.2715
11158645 5.24974 6.59372 34 31.4281 -0.397281 10.4019 77.2715
11158655 5.28497 6.59372 34 31.3404 -0.437346 10.3851 77.2191
11158675 5.34663 6.62134 34 31.3209 -0.45426 10.3546 77.2889
11158689 5.35544 6.6766 34 31.2917 -0.448489 10.3318 77.3237
11158705 5.39948 6.65818 34 31.2819 -0.471736 10.3228 77.3396
11158715 5.44352 6.72264 34 31.204 -0.490133 10.2826 77.3702
11158725 5.44352 6.72264 34 31.204 -0.490133 10.2826 77.3702
11158735 5.40829 6.71343 34 31.165 -0.49485 10.2948 77.2868
11158745 5.40829 6.71343 34 31.165 -0.49485 10.2948 77.2868
11158755 5.40829 6.66739 34 31.1943 -0.5004 10.3116 77.27
11158765 5.43471 6.66739 34 31.1456 -0.524862 10.3 77.2477
11158776 5.43471 6.66739 34 31.1456 -0.524862 10.3 77.2477
11158786 5.44352 6.6766 34 31.165 -0.518173 10.2953 77.2852
11158798 5.42591 6.68581 34 31.1845 -0.50312 10.2992 77.2962
11158808 5.42591 6.68581 34 31.1845 -0.50312 10.2992 77.2962
11158821 5.4171 6.62134 34 31.1456 -0.534505 10.3209 77.184
11158826 5.29378 6.66739 34 31.1066 -0.493009 10.3439 77.0678
11158836 5.29378 6.66739 34 31.1066 -0.493009 10.3439 77.0678
11158846 5.32902 6.60293 34 31.1163 -0.522323 10.3541 77.0483
11158856 5.32902 6.60293 34 31.1163 -0.522323 10.3541 77.0483
11158867 5.25855 6.58451 34 31.1943 -0.480211 10.3881 77.0373
11158880 5.19689 6.52004 34 31.3112 -0.443238 10.4366 77.0281
11158887 5.19689 6.52004 34 31.3112 -0.443238 10.4366 77.0281
11158897 5.13523 6.43716 34 31.3112 -0.450972 10.4844 76.8836
11158917 4.97668 6.29903 34 31.3794 -0.423421 10.5871 76.6551
11158927 5.01192 6.35428 34 31.3599 -0.422852 10.5558 76.7261
11158949 4.90622 6.28061 34 31.3404 -0.419854 10.6146 76.5272
11158957 4.87098 6.25298 34 31.4183 -0.391829 10.6401 76.5423
11158972 4.87098 6.25298 34 31.4183 -0.391829 10.6401 76.5423
11158977 4.87979 6.28061 34 31.3696 -0.401659 10.6251 76.53
11158987 4.87979 6.28061 34 31.3696 -0.401659 10.6251 76.53
11159006 4.87979 6.24377 34 31.3112 -0.433327 10.6341 76.4347
11159008 4.96788 6.30823 34 31.243 -0.462843 10.5791 76.5191
11159020 4.96788 6.30823 34 31.243 -0.462843 10.5791 76.5191
11159028 4.97668 6.35428 34 31.1748 -0.473045 10.5568 76.5058
11159038 5.14404 6.40953 34 31.2138 -0.495248 10.485 76.7673
11159048 5.14404 6.40953 34 31.2138 -0.495248 10.485 76.7673
11159058 5.21451 6.50163 34 31.1553 -0.506553 10.4276 76.8714
11159069 5.21451 6.50163 34 31.1553 -0.506553 10.4276 76.8714
11159078 5.2057 6.50163 34 31.1943 -0.490826 10.4329 76.9016
11159088 5.25855 6.50163 34 31.2332 -0.494744 10.4177 76.9934
11159099 5.25855 6.50163 34 31.2332 -0.494744 10.4177 76.9934
11159108 5.22332 6.50163 34 31.1553 -0.50936 10.4247 76.8802
11159118 5.24974 6.52004 34 31.2235 -0.48907 10.414 76.9933
11159138 5.27617 6.50163 34 31.1456 -0.529417 10.4067 76.9233
11159148 5.27617 6.50163 34 31.1456 -0.529417 10.4067 76.9233
11159158 5.28497 6.48321 34 31.1358 -0.541569 10.4093 76.904
11159173 5.32902 6.54767 34 31.1066 -0.543869 10.3717 76.9833
11159188 5.39067 6.59372 34 31.0676 -0.561094 10.3339 77.052
11159199 5.40829 6.66739 34 31.0287 -0.555173 10.3016 77.1043
11159208 5.40829 6.66739 34 31.0287 -0.555173 10.3016 77.1043
11159221 5.51399 6.82394 34 30.8143 -0.607798 10.2025 77.1523
11159230 5.51399 6.82394 34 30.8143 -0.607798 10.2025 77.1523
11159243 5.6285 6.94366 34 30.7072 -0.63978 10.1195 77.2793
11159250 5.74301 7.13705 34 30.6 -0.647247 10.0129 77.4801
11159270 5.8399 7.33965 34 30.4441 -0.662206 9.90637 77.6237
11159280 6.00725 7.50542 34 30.1908 -0.743535 9.78298 77.7035
11159293 6.00725 7.50542 34 30.1908 -0.743535 9.78298 77.7035
11159300 6.22746 7.80932 34 30.0155 -0.769572 9.60485 78.0523
11159320 6.40363 7.95666 34 29.7914 -0.849487 9.48753 78.1517
11159331 6.59741 8.20531 34 29.6355 -0.87858 9.33846 78.4382
11159340 6.59741 8.20531 34 29.6355 -0.87858 9.33846 78.4382
11159350 6.74715 8.38949 33.9606 29.5284 -0.887088 9.22454 78.6256
11159360 6.89689 8.50921 33.7736 29.3238 -0.90362 9.11258 78.5035
11159370 6.89689 8.50921 33.7736 29.3238 -0.90362 9.11258 78.5035
11159381 6.97617 8.69339 33.6456 29.2069 -0.866485 9.01332 78.5221
11159391 6.97617 8.69339 33.6456 29.2069 -0.866485 9.01332 78.5221
11159401 7.1171 8.77627 33.4389 29.2458 -0.806169 8.93214 78.5781
11159411 7.14352 8.81311 33.3602 29.0997 -0.825992 8.89543 78.4165
11159421 7.14352 8.81311 33.3602 29.0997 -0.825992 8.89543 78.4165
11159432 7.18756 8.87757 33.3208 29.09 -0.809424 8.85857 78.4759
11159442 7.33731 8.95125 33.2125 29.09 -0.797991 8.78229 78.591
11159452 7.33731 8.95125 33.2125 29.09 -0.797991 8.78229 78.591
11159464 7.40777 9.05255 33.0944 28.9633 -0.79163 8.71088 78.518
11159472 7.52228 9.15385 32.8877 28.9146 -0.745901 8.6252 78.4784
11159486 7.52228 9.15385 32.8877 28.9146 -0.745901 8.6252 78.4784
11159492 7.67202 9.33803 32.7499 28.7587 -0.740306 8.50089 78.5186
11159506 7.67202 9.33803 32.7499 28.7587 -0.740306 8.50089 78.5186
11159512 7.77772 9.50379 32.5038 28.6126 -0.690418 8.387 78.3979
11159522 7.98912 9.64193 32.2281 28.447 -0.679493 8.24534 78.3062
11159542 8.12124 9.79848 32.11 28.3301 -0.670844 8.13945 78.3598
11159553 8.20933 9.79848 31.8836 28.184 -0.67579 8.08061 78.0754
11159562 8.20933 9.90899 31.8836 28.184 -0.6395 8.04798 78.1859
11159577 8.43834 10.0563 31.6277 27.9307 -0.665902 7.89149 78.053
11159585 8.43834 10.0563 31.6277 27.9307 -0.665902 7.89149 78.053
11159601 8.72902 10.3879 31.1257 27.6384 -0.586924 7.63611 77.8809
11159606 9.11658 10.7931 30.7122 27.2682 -0.567317 7.33164 77.8901
11159613 9.11658 10.7931 30.7122 27.2682 -0.567317 7.33164 77.8901
11159629 9.49534 11.1614 30.1905 26.9564 -0.50382 7.03505 77.8037
11159637 9.7772 11.4837 29.8066 26.635 -0.47138 6.79141 77.7025
11159650 9.7772 11.4837 29.8066 26.635 -0.47138 6.79141 77.7025
11159653 10.0415 11.7416 29.4719 26.4109 -0.438055 6.58586 77.6659
11159663 10.0415 11.7416 29.4719 26.4109 -0.438055 6.58586 77.6659
11159674 10.2969 11.9166 29.1963 26.2453 -0.428604 6.41841 77.655
11159684 10.6052 12.2021 28.8813 26.0212 -0.40639 6.19522 77.7097
11159694 10.6052 12.2021 28.8813 26.0212 -0.40639 6.19522 77.7097
11159703 10.9399 12.5428 28.4285 25.651 -0.378597 5.91721 77.5622
11159715 10.9399 12.5428 28.4285 25.651 -0.378597 5.91721 77.5622
11159724 11.2746 12.8743 27.9658 25.1542 -0.392124 5.62407 77.2689
11159736 11.856 13.3624 27.3851 24.745 -0.366403 5.21892 77.3484
11159745 11.856 13.3624 27.3851 24.745 -0.366403 5.21892 77.3484
11159758 12.4021 13.7952 26.7255 24.2189 -0.360849 4.81201 77.1418
11159765 12.7896 14.1452 26.2235 23.8 -0.346932 4.50023 76.9583
11159786 13.1508 14.5043 25.8494 23.5467 -0.30797 4.23245 77.0513
11159795 13.3974 14.7346 25.564 23.3032 -0.299901 4.03936 76.9991
11159806 13.3974 14.7346 25.564 23.3032 -0.299901 4.03936 76.9991
11159816 13.7321 15.0845 25.2096 23.0109 -0.274655 3.77815 77.0371
11159826 13.7321 15.0845 25.2096 23.0109 -0.274655 3.77815 77.0371
11159837 14.058 15.4621 24.7568 22.5335 -0.26664 3.47027 76.8104
11159847 14.5513 16.0054 24.2154 22.0659 -0.226249 3.06969 76.838
11159857 14.5513 16.0054 24.2154 22.0659 -0.226249 3.06969 76.838
11159870 15.1238 16.5672 23.5559 21.4814 -0.205652 2.60913 76.7283
11159877 15.6259 16.9908 22.916 20.9943 -0.181924 2.21365 76.527
11159897 16.0751 17.5349 22.2959 20.4779 -0.117232 1.79956 76.3839
11159907 16.0751 17.5349 22.2959 20.4779 -0.117232 1.79956 76.3839
11159917 16.6389 18.0503 21.6856 20.0298 -0.0799373 1.3794 76.4046
11159927 17.2292 18.5463 21.154 19.5817 -0.0833929 0.972438 76.5112
11159937 17.2292 18.5463 21.154 19.5817 -0.0833929 0.972438 76.5112
11159948 17.7573 19.1201 20.5043 18.9484 -0.0632495 0.506085 76.3302
11159958 18.3552 19.7134 19.9039 18.4126 -0.0435635 0.0486785 76.3851
11159968 18.3552 19.7134 19.9039 18.4126 -0.0435635 0.0486785 76.3851
11159979 18.9431 20.2775 19.3625 17.9158 -0.0367314 -0.380862 76.4988
11159991 18.9431 20.2775 19.3625 17.9158 -0.0367314 -0.380862 76.4988
11160004 19.4414 20.8221 18.7522 17.3994 0.00914931 -0.807146 76.4151
11160011 19.9396 21.2986 18.319 16.9429 -0.00560731 -1.17182 76.5002
11160021 19.9396 21.2986 18.319 16.9429 -0.00560731 -1.17182 76.5002
11160030 20.4379 21.8822 17.8466 16.4955 0.0304073 -1.56099 76.6621
11160040 20.9361 22.417 17.2559 15.991 0.0705093 -1.97901 76.6001
11160052 20.9361 22.417 17.2559 15.991 0.0705093 -1.97901 76.6001
11160063 21.3247 22.8644 16.7609 15.5342 0.102302 -2.33267 76.4842
11160071 21.6635 23.2437 16.3346 15.1915 0.142968 -2.62606 76.4333
11160084 21.6635 23.2437 16.3346 15.1915 0.142968 -2.62606 76.4333
11160093 22.0522 23.6619 15.8979 14.8393 0.180238 -2.93852 76.4512
11160105 22.0522 23.6619 15.8979 14.8393 0.180238 -2.93852 76.4512
11160125 22.5903 24.3135 15.274 14.2111 0.216103 -3.4204 76.3889
11160139 22.5903 24.3135 15.274 14.2111 0.216103 -3.4204 76.3889
11160142 22.8593 24.5761 14.9309 13.9826 0.251648 -3.63893 76.3489
11160154 23.0287 24.897 14.6813 13.8208 0.329652 -3.81214 76.4279
11160174 23.2978 25.111 14.463 13.659 0.329682 -3.97619 76.5308
11160190 23.507 25.3249 14.2135 13.4972 0.359818 -4.13913 76.5426
11160196 23.507 25.3249 14.2135 13.4972 0.359818 -4.13913 76.5426
11160204 23.786 25.607 13.9847 13.3735 0.394025 -4.30642 76.7512
11160215 23.786 25.607 13.9847 13.3735 0.394025 -4.30642 76.7512
11160226 24.075 25.8404 13.7144 13.145 0.389451 -4.50461 76.7748
11160240 24.3839 26.0835 13.444 12.9451 0.390556 -4.69933 76.8566
11160263 24.5434 26.4434 13.1009 12.6025 0.456879 -4.94523 76.6901
11160273 24.6829 26.6768 12.8202 12.3645 0.50239 -5.12937 76.5443
11160285 24.6829 26.6768 12.8202 12.3645 0.50239 -5.12937 76.5443
11160291 24.9121 26.9005 12.5706 12.1646 0.516787 -5.30595 76.5478
11160298 25.0715 27.163 12.3627 11.9647 0.553003 -5.46756 76.562
11160308 25.0715 27.163 12.3627 11.9647 0.553003 -5.46756 76.562
11160316 25.211 27.2506 12.2171 11.8124 0.534329 -5.57555 76.4911
11160330 25.211 27.2506 12.2171 11.8124 0.534329 -5.57555 76.4911
11160336 25.2509 27.4256 11.9468 11.7172 0.637019 -5.7006 76.3405
11160346 25.4601 27.6201 11.8532 11.5935 0.620791 -5.80845 76.527
11160358 25.4601 27.6201 11.8532 11.5935 0.620791 -5.80845 76.527
11160366 25.6594 27.873 11.6141 11.4793 0.678223 -5.95865 76.6258
11160377 25.6893 28.0675 11.4477 11.327 0.737426 -6.07243 76.5315
11160386 25.6893 28.0675 11.4477 11.327 0.737426 -6.07243 76.5315
11160400 25.8288 28.2134 11.3333 11.2984 0.766116 -6.14494 76.674
11160406 25.8288 28.2134 11.3333 11.2984 0.766116 -6.14494 76.674
11160416 25.9285 28.3884 11.0942 11.1366 0.81726 -6.28747 76.5477
11160426 26.1676 28.6802 10.9278 10.9748 0.83372 -6.43876 76.7505
11160436 26.1676 28.6802 10.9278 10.9748 0.83372 -6.43876 76.7505
11160446 26.2075 28.8747 10.6263 10.8987 0.959295 -6.57065 76.6072
11160456 26.2075 28.8747 10.6263 10.8987 0.959295 -6.57065 76.6072
11160468 26.2274 28.9817 10.5327 10.832 0.996938 -6.62975 76.5739
11160476 26.2673 29.1762 10.3456 10.6892 1.06324 -6.74871 76.4783
11160489 26.2673 29.1762 10.3456 10.6892 1.06324 -6.74871 76.4783
11160496 26.3968 29.3221 10.252 10.5845 1.06387 -6.83473 76.5555
11160512 26.4367 29.4291 10.096 10.537 1.12201 -6.9085 76.4987
11160517 26.4367 29.4291 10.096 10.537 1.12201 -6.9085 76.4987
11160527 26.5264 29.5458 10.0336 10.4989 1.13721 -6.95903 76.6047
11160537 26.5264 29.5458 10.0336 10.4989 1.13721 -6.95903 76.6047
11160547 26.5164 29.6333 9.85688 10.3847 1.19276 -7.05084 76.3913
11160557 26.5264 29.7111 9.7633 10.4418 1.26343 -7.07049 76.4426
11160567 26.5264 29.7111 9.7633 10.4418 1.26343 -7.07049 76.4426
11160580 26.626 29.7305 9.7841 10.4989 1.24587 -7.06037 76.6395
11160587 26.5762 29.7014 9.7529 10.4608 1.25278 -7.07215 76.4913
11160597 26.5762 29.7014 9.7529 10.4608 1.25278 -7.07215 76.4913
11160624 26.6758 29.7208 9.7737 10.5655 1.25 -7.04836 76.7359
11160625 26.6758 29.7208 9.7737 10.5655 1.25 -7.04836 76.7359
11160627 26.5862 29.7014 9.7737 10.6417 1.29825 -7.01515 76.7029
11160637 26.5662 29.7014 9.88807 10.6512 1.26885 -6.97757 76.8069
11160658 26.4168 29.6527 9.84648 10.7844 1.36047 -6.93059 76.7004
11160668 26.347 29.6333 9.95046 10.8796 1.37203 -6.86435 76.8104
11160680 26.347 29.6333 9.95046 10.8796 1.37203 -6.86435 76.8104
11160690 26.337 29.6916 9.91927 10.9653 1.43038 -6.85398 76.9132
11160700 26.2872 29.6819 9.96086 11.0129 1.44481 -6.82235 76.9429
11160710 26.2872 29.6819 9.96086 11.0129 1.44481 -6.82235 76.9429
11160720 26.2573 29.6527 9.88807 10.9938 1.46538 -6.84215 76.792
11160730 26.2573 29.6527 9.88807 10.9938 1.46538 -6.84215 76.792
11160740 26.0979 29.5166 9.90887 11.089 1.50069 -6.77761 76.6124
11160753 25.9683 29.5166 10.0128 11.2128 1.54743 -6.69908 76.7105
11160760 25.9683 29.5166 10.0128 11.2128 1.54743 -6.69908 76.7105
11160770 25.8787 29.3999 10.1168 11.327 1.54172 -6.61504 76.7224
11160790 25.7989 29.3513 10.1064 11.4317 1.59007 -6.57442 76.6883
11160800 25.6295 29.2637 10.148 11.5459 1.6426 -6.50226 76.5872
11160810 25.6295 29.2637 10.148 11.5459 1.6426 -6.50226 76.5872
11160820 25.49 29.2054 10.2416 11.6792 1.68141 -6.41666 76.6162
11160830 25.3206 29.1859 10.356 11.8029 1.73228 -6.329 76.6654
11160851 25.1413 29.1373 10.4287 11.9552 1.80091 -6.24059 76.6625
11160861 24.942 28.9525 10.5431 12.2122 1.85246 -6.09378 76.6498
11160871 24.942 28.9525 10.5431 12.2122 1.85246 -6.09378 76.6498
11160884 24.7028 28.8942 10.7823 12.4406 1.90372 -5.9309 76.8199
11160891 24.7028 28.8942 10.7823 12.4406 1.90372 -5.9309 76.8199
11160901 24.4637 28.7775 10.8862 12.7262 2.00178 -5.78282 76.8536
11160927 24.2743 28.6899 11.0006 12.8499 2.03897 -5.68517 76.8148
11160929 24.2743 28.6899 11.0006 12.8499 2.03897 -5.68517 76.8148
11160931 23.9953 28.6024 11.1774 13.0594 2.11138 -5.53677 76.8344
11160945 23.9953 28.6024 11.1774 13.0594 2.11138 -5.53677 76.8344
11160951 23.8159 28.4857 11.2917 13.3449 2.18452 -5.39361 76.9383
11160961 23.4971 28.262 11.4477 13.6209 2.25771 -5.21109 76.8277
11160971 23.4971 28.262 11.4477 13.6209 2.25771 -5.21109 76.8277
11160981 23.1682 28.0967 11.6037 13.8684 2.34346 -5.0418 76.737
11160991 22.8892 27.9216 11.7804 14.1254 2.40411 -4.86954 76.7167
11161002 22.8892 27.9216 11.7804 14.1254 2.40411 -4.86954 76.7167
11161011 22.7098 27.766 11.9364 14.3443 2.4311 -4.72828 76.7566
11161021 22.7098 27.766 11.9364 14.3443 2.4311 -4.72828 76.7566
11161031 22.5404 27.7077 12.0924 14.5062 2.46629 -4.61626 76.8466
11161041 22.3312 27.5715 12.1963 14.7441 2.53377 -4.4823 76.8431
11161051 22.3312 27.5715 12.1963 14.7441 2.53377 -4.4823 76.8431
11161061 22.1319 27.4062 12.3731 14.8774 2.53247 -4.3537 76.7885
11161071 22.0522 27.4159 12.4251 15.0392 2.59249 -4.29022 76.9323
11161092 21.9127 27.2992 12.5291 15.1153 2.59342 -4.20931 76.8563
11161112 21.8429 27.2408 12.581 15.1344 2.58833 -4.17355 76.7992
11161122 21.813 27.2214 12.5602 15.182 2.61476 -4.1599 76.7766
11161143 21.813 27.1825 12.5291 15.1439 2.60352 -4.17171 76.6685
11161155 21.813 27.27 12.6122 15.1344 2.59638 -4.16566 76.8297
11161162 21.813 27.27 12.6122 15.1344 2.59638 -4.16566 76.8297
11161172 21.9426 27.2603 12.5291 15.0868 2.56301 -4.21519 76.8187
11161183 21.9426 27.2603 12.5291 15.0868 2.56301 -4.21519 76.8187
11161192 21.9226 27.2797 12.5602 14.9726 2.53125 -4.23591 76.7352
11161205 22.0422 27.2603 12.4147 14.9059 2.51535 -4.30325 76.6231
11161213 22.0422 27.2603 12.4147 14.9059 2.51535 -4.30325 76.6231
11161229 22.1219 27.3673 12.3523 14.8108 2.51259 -4.36898 76.6522
11161233 22.112 27.3673 12.3315 14.6489 2.47606 -4.41386 76.4597
11161254 22.2614 27.4548 12.2691 14.5252 2.43413 -4.49388 76.5105
11161265 22.3312 27.4743 12.2379 14.449 2.40357 -4.53348 76.4924
11161275 22.3312 27.4743 12.2379 14.449 2.40357 -4.53348 76.4924
11161285 22.371 27.5132 12.1339 14.3539 2.40992 -4.59522 76.372
11161295 22.371 27.5132 12.1339 14.3539 2.40992 -4.59522 76.372
11161305 22.4607 27.5229 12.1859 14.2396 2.32821 -4.62471 76.4092
11161317 22.5305 27.591 12.1235 14.3348 2.37392 -4.63498 76.5798
11161325 22.5305 27.591 12.1235 14.3348 2.37392 -4.63498 76.5798
11161337 22.66 27.6104 12.1755 14.1825 2.26984 -4.68084 76.6285
11161345 22.66 27.6104 12.1755 14.1825 2.26984 -4.68084 76.6285
11161358 22.7397 27.7077 12.2171 14.1445 2.24428 -4.70371 76.809
11161365 22.8195 27.7077 12.1755 14.0683 2.20819 -4.74462 76.771
11161375 22.8195 27.7077 12.1755 14.0683 2.20819 -4.74462 76.771
11161385 22.7896 27.6882 12.1963 14.0302 2.19432 -4.74247 76.7043
11161395 22.7896 27.6785 12.2275 14.0112 2.17471 -4.73804 76.7068
11161405 22.7896 27.6785 12.2275 14.0112 2.17471 -4.73804 76.7068
11161417 22.8792 27.6007 12.1963 13.9446 2.11094 -4.76483 76.6208
11161435 22.8693 27.5618 12.2795 13.897 2.05919 -4.74912 76.6076
11161445 22.8792 27.4743 12.3315 13.9541 2.02821 -4.71064 76.6391
11161468 22.8095 27.3186 12.4251 14.0302 1.99597 -4.63667 76.5835
11161476 22.7397 27.1728 12.6538 14.1825 1.94196 -4.51006 76.7489
11161491 22.7397 27.1728 12.6538 14.1825 1.94196 -4.51006 76.7489
11161496 22.6002 27.0366 12.841 14.3634 1.93866 -4.379 76.8412
11161506 22.6002 27.0366 12.841 14.3634 1.93866 -4.379 76.8412
11161518 22.391 26.7449 13.1841 14.5823 1.86993 -4.16817 76.9022
11161527 22.2814 26.5601 13.4232 14.8108 1.83788 -4.01051 77.0754
11161536 22.2814 26.5601 13.4232 14.8108 1.83788 -4.01051 77.0754
11161546 22.1518 26.3364 13.6312 14.9726 1.792 -3.86897 77.092
11161566 21.9824 26.0933 13.8703 15.0773 1.72603 -3.72512 77.0233
11161568 21.9824 26.0933 13.8703 15.0773 1.72603 -3.72512 77.0233
11161578 21.803 25.8598 14.0263 15.2676 1.72114 -3.58037 76.9568
11161587 21.534 25.5389 14.3382 15.477 1.67247 -3.36677 76.8882
11161602 21.534 25.5389 14.3382 15.477 1.67247 -3.36677 76.8882
11161607 21.3546 25.2374 14.6709 15.6484 1.57981 -3.17366 76.9114
11161628 21.1155 24.9943 14.8685 15.7721 1.55778 -3.02327 76.7504
11161637 20.8365 24.6636 15.2012 16.0862 1.53415 -2.77636 76.7875
11161647 20.8365 24.6636 15.2012 16.0862 1.53415 -2.77636 76.7875
11161657 20.6471 24.4788 15.5339 16.3052 1.49513 -2.58953 76.9651
11161677 20.4179 24.1871 15.8147 16.5146 1.45222 -2.39343 76.9342
11161691 20.1788 23.905 16.2098 16.8096 1.4027 -2.15252 77.1032
11161698 20.1788 23.905 16.2098 16.8096 1.4027 -2.15252 77.1032
11161713 19.9894 23.5841 16.5113 16.9619 1.3126 -1.9664 77.0468
11161718 19.6008 23.2729 16.9272 17.2728 1.30318 -1.68807 77.0737
11161738 19.3019 22.9714 17.3248 17.565 1.26671 -1.43528 77.1632
11161748 19.0528 22.9714 17.5906 17.565 1.26104 -1.3349 77.1798
11161758 19.0528 22.6213 17.5906 17.7989 1.22521 -1.22326 77.0635
11161768 18.694 22.3101 18.0828 18.0716 1.16801 -0.942797 77.1585
11161778 18.694 22.3101 18.0828 18.0716 1.16801 -0.942797 77.1585
11161788 18.405 21.96 18.3092 18.3444 1.16534 -0.722821 77.0186
11161799 18.1061 21.6974 18.6931 18.6269 1.14268 -0.483007 77.1235
11161819 17.7673 21.2986 19.0573 18.9192 1.10108 -0.212103 77.0424
11161833 17.7673 21.2986 19.4019 18.9192 0.98488 -0.144378 77.387
11161840 17.4883 20.9874 19.4019 19.153 1.05487 0.0154173 77.0306
11161850 17.1395 20.7346 19.7858 19.4648 1.06128 0.267706 77.1246
11161870 16.8855 20.4233 20.1303 19.6791 1.00062 0.486369 77.1182
11161883 16.6124 20.1316 20.4945 19.9226 0.954911 0.714051 77.1611
11161890 16.6124 20.1316 20.4945 19.9226 0.954911 0.714051 77.1611
11161900 16.3746 19.8301 20.8686 20.1662 0.891095 0.938001 77.2395
11161910 16.3746 19.8301 20.8686 20.1662 0.891095 0.938001 77.2395
11161920 16.1192 19.4703 21.2525 20.4097 0.81175 1.17915 77.2516
11161930 15.8373 19.2368 21.5576 20.6241 0.797996 1.38 77.2558
11161941 15.8373 19.2368 21.5576 20.6241 0.797996 1.38 77.2558
11161951 15.5907 18.8478 21.9415 20.8676 0.706577 1.62542 77.2476
11161961 15.3969 18.6144 22.2171 21.1014 0.679499 1.80537 77.3299
11161981 15.1503 18.2157 22.5321 21.3158 0.598675 2.03629 77.2138
11161998 14.8684 17.9239 22.9653 21.5203 0.521046 2.26972 77.2779
11162002 14.8684 17.9239 22.9653 21.5203 0.521046 2.26972 77.2779
11162012 14.5865 17.5446 23.3295 21.8905 0.490996 2.5382 77.3512
11162032 14.2342 17.0389 23.9299 22.3192 0.38504 2.89776 77.5222
11162044 13.8378 16.6408 24.491 22.7381 0.337836 3.23336 77.7078
11162052 13.8378 16.6408 24.491 22.7381 0.337836 3.23336 77.7078
11162062 13.4415 16.1896 25.1506 23.1375 0.235865 3.59162 77.9191
11162072 13.142 15.7384 25.623 23.5077 0.154167 3.89376 78.0111
11162082 13.142 15.7384 25.623 23.5077 0.154167 3.89376 78.0111
11162092 12.7632 15.2871 26.1251 23.8974 0.0948608 4.22148 78.0728
11162102 12.7632 15.2871 26.1251 23.8974 0.0948608 4.22148 78.0728
11162112 12.4109 14.7898 26.5385 24.1897 0.00965893 4.52865 77.9289
11162122 12.085 14.3386 26.9815 24.5696 -0.050737 4.83379 77.9746
11162134 12.085 14.3386 26.9815 24.5696 -0.050737 4.83379 77.9746
11162146 11.7238 13.9702 27.3851 24.8716 -0.0856504 5.11143 77.9507
11162154 11.3098 13.4821 27.9461 25.2711 -0.16114 5.46575 78.0092
11162165 11.3098 13.4821 27.9461 25.2711 -0.16114 5.46575 78.0092
11162174 10.8694 13.0217 28.5171 25.7289 -0.203457 5.82724 78.1371
11162184 10.5083 12.6165 29.0683 26.1381 -0.262359 6.14347 78.3312
11162194 10.5083 12.6165 29.0683 26.1381 -0.262359 6.14347 78.3312
11162209 10.1472 12.1192 29.6196 26.5765 -0.34126 6.4865 78.4624
11162215 10.1472 12.1192 29.6196 26.5765 -0.34126 6.4865 78.4624
11162225 9.72435 11.7508 30.0921 26.8688 -0.38147 6.78623 78.436
11162235 9.41606 11.3272 30.4464 27.1513 -0.441663 7.05655 78.341
11162246 9.41606 11.3272 30.4464 27.1513 -0.441663 7.05655 78.341
11162257 9.09896 11.0233 30.9485 27.4923 -0.487468 7.31613 78.563
11162266 8.72902 10.5813 31.3717 27.8235 -0.54009 7.6208 78.5055
11162279 8.72902 10.5813 31.3717 27.8235 -0.54009 7.6208 78.5055
11162286 8.47358 10.1945 31.7261 28.0378 -0.627103 7.85953 78.432
11162307 8.21813 9.9182 31.982 28.2132 -0.66027 8.05401 78.3316
11162317 8.01554 9.79848 32.2872 28.4372 -0.657961 8.19543 78.5385
11162337 7.80414 9.47616 32.4644 28.5054 -0.730644 8.37497 78.2501
11162351 7.6456 9.39328 32.6317 28.6613 -0.709394 8.47435 78.3319
11162358 7.6456 9.39328 32.6317 28.6613 -0.709394 8.47435 78.3319
11162372 7.50466 9.25515 32.9861 28.8562 -0.756805 8.6033 78.6021
11162378 7.34611 8.98808 33.2814 29.0997 -0.806618 8.77471 78.7153
11162388 7.34611 8.98808 33.2814 29.0997 -0.806618 8.77471 78.7153
11162398 7.21399 8.9052 33.5275 29.314 -0.798579 8.87574 78.9607
11162408 7.21399 8.9052 33.5275 29.314 -0.798579 8.87574 78.9607
11162419 7.02902 8.72102 33.7834 29.4797 -0.826375 9.01997 79.0131
11162428 6.82643 8.58288 33.8622 29.7037 -0.760368 9.14653 78.9752
11162442 6.82643 8.58288 33.8622 29.7037 -0.760368 9.14653 78.9752
11162451 6.74715 8.43554 33.9409 29.8401 -0.763783 9.23177 78.9637
11162475 6.52694 8.26056 34 29.957 -0.73318 9.36627 78.7445
11162478 6.45648 8.15926 34 29.9862 -0.735022 9.42161 78.602
11162498 6.35959 8.03034 34 30.0934 -0.712204 9.4995 78.4833
11162513 6.29793 7.96587 34 30.1324 -0.701462 9.54165 78.3962
11162520 6.29793 7.96587 34 30.1324 -0.701462 9.54165 78.3962
11162536 6.18342 7.82774 34 30.1616 -0.701675 9.623 78.1728
11162540 6.12176 7.81853 34 30.3175 -0.634363 9.65601 78.2578
11162551 6.12176 7.81853 34 30.3175 -0.634363 9.65601 78.2578
11162560 6.01606 7.77248 34 30.4441 -0.575033 9.71249 78.2327
11162570 6.01606 7.77248 34 30.4441 -0.575033 9.71249 78.2327
11162583 5.9544 7.72644 34 30.5903 -0.523089 9.75636 78.2711
11162591 5.86632 7.62514 34 30.8241 -0.452374 9.83188 78.3155
11162606 5.86632 7.62514 34 30.8241 -0.452374 9.83188 78.3155
11162611 5.80466 7.5883 34 30.8436 -0.438674 9.86443 78.2365
11162621 5.72539 7.45937 34 30.9117 -0.433527 9.9352 78.0965
11162641 5.6285 7.33044 34 30.941 -0.435519 10.0094 77.8999
11162662 5.61088 7.33044 34 30.8923 -0.445877 10.0119 77.8336
11162676 5.49637 7.34886 34 30.941 -0.387773 10.0459 77.7862
11162682 5.49637 7.34886 34 30.941 -0.387773 10.0459 77.7862
11162692 5.57565 7.35807 34 30.9312 -0.413005 10.0169 77.865
11162702 5.53161 7.26598 34 30.9605 -0.419623 10.0625 77.758
11162712 5.53161 7.26598 34 30.9605 -0.419623 10.0625 77.758
11162724 5.54041 7.29361 34 31.0189 -0.3943 10.0545 77.8529
11162732 5.54041 7.29361 34 31.0189 -0.3943 10.0545 77.8529
11162746 5.46995 7.27519 34 31.0579 -0.365309 10.0856 77.803
11162752 5.57565 7.32124 34 31.0287 -0.393248 10.0349 77.9255
11162762 5.57565 7.32124 34 31.0287 -0.393248 10.0349 77.9255
11162772 5.58446 7.33965 34 31.0676 -0.377341 10.0287 77.9917
11162784 5.58446 7.36728 34 31.1456 -0.34304 10.0248 78.0973
11162794 5.58446 7.36728 34 31.1456 -0.34304 10.0248 78.0973
11162802 5.50518 7.22914 34 31.204 -0.343871 10.0983 77.9383
11162817 5.50518 7.22914 34 31.204 -0.343871 10.0983 77.9383
11162824 5.39948 7.13705 34 31.2917 -0.311822 10.1676 77.8282
11162835 5.33782 7.17389 34 31.3989 -0.245501 10.1823 77.9106
11162846 5.33782 7.17389 34 31.3989 -0.245501 10.1823 77.9106
11162857 5.3114 7.04496 34 31.4378 -0.266284 10.235 77.7942
11162866 5.23212 6.92524 34 31.467 -0.27048 10.3015 77.6244
11162873 5.23212 6.92524 34 31.467 -0.27048 10.3015 77.6244
11162883 5.24093 6.98971 34 31.5352 -0.230172 10.2817 77.7659
11162893 5.24093 6.98971 34 31.5352 -0.230172 10.2817 77.7659
11162904 5.26736 6.95287 34 31.5352 -0.250545 10.2851 77.7555
11162915 5.21451 6.92524 34 31.5742 -0.230026 10.3137 77.714
11162924 5.21451 6.92524 34 31.5742 -0.230026 10.3137 77.714
11162935 5.27617 6.8792 34 31.5547 -0.270955 10.3074 77.7101
11162943 5.30259 6.99892 34 31.4768 -0.265782 10.2552 77.7783
11162958 5.30259 6.99892 34 31.4768 -0.265782 10.2552 77.7783
11162963 5.35544 7.0818 34 31.3891 -0.284138 10.2058 77.8264
11162973 5.35544 7.0818 34 31.3891 -0.284138 10.2058 77.8264
11162986 5.45233 7.22914 34 31.2625 -0.308146 10.119 77.9439
11162994 5.53161 7.33044 34 31.1066 -0.350966 10.0511 77.9686
11163006 5.53161 7.33044 34 31.1066 -0.350966 10.0511 77.9686
11163015 5.60207 7.56067 34 31.0092 -0.330117 9.94854 78.1719
11163025 5.7342 7.67118 34 30.8143 -0.399096 9.85857 78.2197
11163035 5.7342 7.67118 34 30.8143 -0.399096 9.85857 78.2197
11163047 5.77824 7.83694 34 30.7461 -0.381298 9.78754 78.3613
11163067 5.83109 7.93824 34 30.6 -0.412418 9.72906 78.3693
11163075 5.9456 8.05796 34 30.5221 -0.43475 9.65007 78.5256
11163086 5.9456 8.05796 34 30.5221 -0.43475 9.65007 78.5256
11163095 6.02487 8.13164 34 30.3759 -0.483018 9.5921 78.5324
11163114 6.02487 8.13164 34 30.3759 -0.483018 9.5921 78.5324
11163117 6.06891 8.23294 34 30.2785 -0.495501 9.53992 78.5804
11163125 6.12176 8.35265 33.9311 30.1226 -0.50223 9.47036 78.5281
11163142 6.12176 8.35265 33.9311 30.1226 -0.50223 9.47036 78.5281
11163145 6.17461 8.40791 33.9016 30.0739 -0.507379 9.43118 78.558
11163155 6.28031 8.45395 33.8031 30.0155 -0.513668 9.37286 78.5529
11163168 6.28031 8.45395 33.8031 30.0155 -0.513668 9.37286 78.5529
11163175 6.35078 8.61051 33.7539 30.035 -0.463244 9.30047 78.7502
11163185 6.35078 8.61051 33.7539 30.035 -0.463244 9.30047 78.7502
11163196 6.2715 8.61972 33.7047 29.9083 -0.461172 9.30939 78.5042
11163205 6.46528 8.76706 33.6161 29.9083 -0.446315 9.1977 78.7568
11163222 6.46528 8.76706 33.6161 29.9083 -0.446315 9.1977 78.7568
11163227 6.56218 8.96966 33.3405 29.6258 -0.416318 9.06412 78.4981
11163235 6.72953 9.18147 33.0747 29.4309 -0.37996 8.9129 78.4166
11163250 6.72953 9.18147 33.0747 29.4309 -0.37996 8.9129 78.4166
11163255 6.87927 9.40249 32.9566 29.2556 -0.375113 8.77719 78.4939
11163267 6.87927 9.40249 32.9566 29.2556 -0.375113 8.77719 78.4939
11163279 6.99378 9.48537 32.8581 29.2751 -0.347108 8.71124 78.6124
11163287 7.12591 9.60509 32.6711 29.051 -0.363569 8.60216 78.4531
11163305 7.12591 9.60509 32.6711 29.051 -0.363569 8.60216 78.4531
11163307 7.25803 9.82611 32.4152 28.8951 -0.30358 8.46224 78.3944
11163317 7.42539 10.0103 32.2085 28.6905 -0.297762 8.32262 78.3347
11163332 7.42539 10.0103 32.2085 28.6905 -0.297762 8.32262 78.3347
11163337 7.66321 10.2774 31.9919 28.4665 -0.290591 8.13489 78.3989
11163347 7.78653 10.4155 31.795 28.3301 -0.266822 8.02846 78.3271
11163367 7.83938 10.5813 31.6966 28.2327 -0.230388 7.94678 78.3499
11163386 7.83938 10.5813 31.6966 28.2327 -0.230388 7.94678 78.3499
11163388 7.93627 10.6181 31.6474 28.2327 -0.233594 7.90323 78.4344
11163399 7.9715 10.6918 31.5588 28.1742 -0.211841 7.8581 78.3963
11163410 7.9715 10.6918 31.5588 28.1742 -0.211841 7.8581 78.3963
11163419 8.08601 10.8575 31.4013 28.0378 -0.188793 7.74959 78.3826
11163433 8.17409 10.9036 31.2339 27.9404 -0.180203 7.68606 78.252
11163448 8.26218 10.9865 31.1158 27.843 -0.175349 7.61631 78.2074
11163469 8.30622 11.0509 31.0371 27.7456 -0.174943 7.56826 78.1398
11163486 8.43834 11.1062 30.9091 27.7163 -0.167879 7.49922 78.1699
11163490 8.43834 11.1062 30.9091 27.7163 -0.167879 7.49922 78.1699
11163501 8.42953 11.2443 30.8894 27.5897 -0.155127 7.44794 78.1529
11163512 8.53523 11.318 30.8205 27.5897 -0.143126 7.38985 78.2634
11163531 8.6057 11.3088 30.7516 27.4436 -0.193624 7.35134 78.1096
11163540 8.6057 11.3088 30.7516 27.4436 -0.193624 7.35134 78.1096
11163555 8.70259 11.4101 30.5449 27.3364 -0.16059 7.26376 77.9939
11163560 8.86995 11.5758 30.3775 27.1513 -0.166835 7.13368 77.9746
11163570 8.86995 11.5758 30.3775 27.1513 -0.166835 7.13368 77.9746
11163581 9.00207 11.7876 30.1807 26.9954 -0.128154 7.00045 77.9658
11163591 9.09896 11.935 30.0035 26.9272 -0.0770301 6.90635 77.9647
11163602 9.09896 11.935 30.0035 26.9272 -0.0770301 6.90635 77.9647
11163611 9.22228 12.1008 29.8952 26.7421 -0.0880539 6.79466 77.9604
11163628 9.22228 12.1008 29.8952 26.7421 -0.0880539 6.79466 77.9604
11163631 9.3456 12.1744 29.7377 26.6544 -0.081636 6.71374 77.9122
11163641 9.47772 12.2849 29.6196 26.5765 -0.0756353 6.62531 77.9587
11163651 9.47772 12.2849 29.6196 26.5765 -0.0756353 6.62531 77.9587
11163661 9.57461 12.4047 29.4818 26.4596 -0.0616357 6.53783 77.9206
11163675 9.68031 12.5612 29.3243 26.3232 -0.0385642 6.43338 77.889
11163681 9.68031 12.5612 29.3243 26.3232 -0.0385642 6.43338 77.889
11163692 9.84767 12.727 29.1471 26.1966 -0.0228465 6.30834 77.9183
11163702 9.93575 12.727 28.96 26.0991 -0.0224099 6.25238 77.7219
11163712 9.93575 12.7914 28.96 26.0991 -0.00167787 6.23477 77.7864
11163723 10.156 12.9848 28.7829 25.9043 -0.0159591 6.08002 77.8279
11163732 10.156 12.9848 28.7829 25.9043 -0.0159591 6.08002 77.8279
11163747 10.3145 13.1046 28.5958 25.7582 -0.015308 5.96639 77.7731
11163752 10.4819 13.2427 28.4088 25.6413 -0.00215769 5.84873 77.7746
11163762 10.4819 13.2427 28.4088 25.6413 -0.00215769 5.84873 77.7746
11163772 10.6316 13.4085 28.2513 25.5049 0.00977218 5.7296 77.7962
11163795 10.7109 13.5005 27.9855 25.2711 0.024268 5.62397 77.468
11163804 10.9663 13.8044 27.7985 25.2126 0.0810713 5.44606 77.7819
11163820 10.9663 13.8044 27.7985 25.2126 0.0810713 5.44606 77.7819
11163824 11.0808 13.9242 27.513 24.9788 0.0997126 5.32025 77.4968
11163834 11.3275 14.1544 27.326 24.7352 0.076142 5.14154 77.5431
11163846 11.3275 14.1544 27.326 24.7352 0.076142 5.14154 77.5431
11163855 11.6269 14.4675 26.9323 24.4527 0.116491 4.89624 77.4794
11163872 11.8736 14.7069 26.5188 24.0728 0.125474 4.66705 77.1721
11163885 12.2611 15.0477 26.1644 23.7221 0.111455 4.38713 77.1953
11163897 12.2611 15.0477 26.1644 23.7221 0.111455 4.38713 77.1953
11163905 12.6575 15.3239 25.6821 23.3226 0.0996768 4.09618 76.9862
11163922 13.0979 15.6831 25.2195 22.933 0.0970542 3.77691 76.9334
11163925 13.0979 15.6831 25.2195 22.933 0.0970542 3.77691 76.9334
11163935 13.5295 16.0699 24.7174 22.5433 0.119108 3.44677 76.8601
11163947 13.9259 16.4475 24.3237 22.2218 0.13639 3.15373 76.9188
11163956 13.9259 16.4475 24.3237 22.2218 0.13639 3.15373 76.9188
11163972 14.4456 16.8158 23.9398 21.8126 0.0788987 2.82241 77.0138
11163986 14.7627 17.214 23.5953 21.4911 0.112611 2.55175 77.063
11163999 15.2031 17.6419 23.1621 21.0332 0.100553 2.20995 77.0404
11164006 15.2031 17.6419 23.1621 21.0332 0.100553 2.20995 77.0404
11164016 15.5466 18.0406 22.6404 20.5656 0.136462 1.87883 76.7933
11164027 15.9694 18.4199 22.227 20.0785 0.098446 1.54824 76.6948
11164048 16.3922 18.8867 21.725 19.6986 0.152576 1.20164 76.7025
11164072 16.7622 19.2271 21.282 19.1433 0.106725 0.87077 76.4146
11164077 17.1694 19.587 20.7603 18.7536 0.134671 0.542316 76.2702
11164095 17.1694 19.587 20.7603 18.7536 0.134671 0.542316 76.2702
11164104 17.6776 20.0732 20.1303 18.286 0.180948 0.131044 76.1671
11164119 18.2855 20.5692 19.6578 17.7696 0.129649 -0.280657 76.2821
11164130 18.2855 20.5692 19.6578 17.7696 0.129649 -0.280657 76.2821
11164132 18.9332 21.0263 19.0081 17.2046 0.0950515 -0.737829 76.1722
11164144 19.4215 21.0263 18.5061 17.2046 0.0995845 -0.93301 76.1584
11164149 19.4215 21.5029 18.5061 16.8287 0.132442 -1.09946 76.2591
11164158 19.9297 22.0086 18.1222 16.4099 0.119847 -1.45276 76.4703
11164178 20.2984 22.4754 17.6398 16.0672 0.197563 -1.77824 76.4808
11164192 20.8066 22.8644 17.2067 15.696 0.17862 -2.1094 76.5737
11164198 20.8066 22.8644 17.2067 15.696 0.17862 -2.1094 76.5737
11164208 21.1553 23.3312 16.6777 15.3438 0.275138 -2.44388 76.508
11164219 21.1553 23.3312 16.6777 15.3438 0.275138 -2.44388 76.508
11164228 21.524 23.6327 16.2618 15.0487 0.292814 -2.71612 76.4672
11164238 21.823 24.0023 15.9394 14.7441 0.321528 -2.96862 76.5088
11164265 22.1219 24.3232 15.5132 14.4681 0.378221 -3.23133 76.4264
11164269 22.4209 24.615 15.326 14.2682 0.370717 -3.41413 76.6301
11164291 22.67 24.9067 14.9933 14.0588 0.424865 -3.62618 76.6288
11164303 22.67 24.9067 14.9933 14.0588 0.424865 -3.62618 76.6288
11164309 22.8992 25.1888 14.7229 13.7732 0.4374 -3.83731 76.5841
11164319 23.238 25.5195 14.4318 13.5924 0.46953 -4.05043 76.7816
11164329 23.238 25.5195 14.4318 13.5924 0.46953 -4.05043 76.7816
11164338 23.5469 25.8209 14.0575 13.3068 0.496331 -4.30136 76.7322
11164349 23.796 26.1613 13.704 13.0213 0.548562 -4.54447 76.6826
11164358 23.796 26.1613 13.704 13.0213 0.548562 -4.54447 76.6826
11164373 24.0551 26.4823 13.4544 12.7928 0.574845 -4.74511 76.7846
11164390 24.2345 26.6184 13.1321 12.4311 0.550595 -4.9642 76.4161
11164400 24.4836 26.9005 12.7786 12.2027 0.602683 -5.18614 76.3653
11164411 24.4836 26.9005 12.7786 12.2027 0.602683 -5.18614 76.3653
11164421 24.7626 27.1825 12.5291 12.0123 0.622058 -5.37423 76.4865
11164431 24.9918 27.3867 12.2899 11.7363 0.602487 -5.56621 76.4047
11164446 24.9918 27.3867 12.2899 11.7363 0.602487 -5.56621 76.4047
11164451 25.2808 27.7271 11.9572 11.5364 0.661933 -5.78701 76.5015
11164461 25.2808 27.7271 11.7596 11.5364 0.728372 -5.84083 76.3039
11164471 25.5199 27.8146 11.7596 11.3651 0.621295 -5.92666 76.4593
11164481 25.7989 28.0189 11.5933 11.2128 0.600147 -6.07091 76.6239
11164494 25.7989 28.0189 11.5933 11.2128 0.600147 -6.07091 76.6239
11164501 26.0281 28.2523 11.2398 10.9367 0.628173 -6.29844 76.4569
11164511 26.337 28.5732 10.9798 10.7654 0.659364 -6.48976 76.6555
11164521 26.337 28.5732 10.9798 10.7654 0.659364 -6.48976 76.6555
11164531 26.4666 28.8164 10.6991 10.5655 0.723797 -6.66612 76.5475
11164541 26.4666 28.8164 10.6991 10.5655 0.723797 -6.66612 76.5475
11164551 26.6858 28.972 10.408 10.4608 0.764117 -6.81901 76.5265
11164564 26.8552 29.2151 10.2832 10.2324 0.753751 -6.96371 76.5859
11164572 26.8552 29.2151 10.2832 10.2324 0.753751 -6.96371 76.5859
11164589 27.0445 29.4096 10.0232 10.0991 0.796887 -7.11677 76.5765
11164592 27.1342 29.5555 9.87768 9.97536 0.822726 -7.21884 76.5428
11164612 27.2438 29.6819 9.64893 9.83259 0.857818 -7.35092 76.4073
11164637 27.2538 29.7597 9.66972 9.81355 0.865966 -7.35918 76.4968
11164642 27.2937 29.857 9.56575 9.75644 0.900319 -7.41998 76.4728
11164652 27.2937 29.857 9.56575 9.75644 0.900319 -7.41998 76.4728
11164663 27.3634 29.9445 9.54495 9.66125 0.881335 -7.46955 76.5141
11164672 27.3634 30.0029 9.50336 9.71836 0.931752 -7.47073 76.588
11164684 27.3634 30.0029 9.50336 9.71836 0.931752 -7.47073 76.588
11164692 27.3734 30.0126 9.51376 9.69933 0.921932 -7.4752 76.5991
11164707 27.3734 30.0126 9.51376 9.69933 0.921932 -7.4752 76.5991
11164712 27.3036 30.0223 9.47217 9.67077 0.953749 -7.48991 76.4689
11164722 27.3036 29.9251 9.53456 9.77548 0.934932 -7.43127 76.5387
11164748 27.2239 29.8667 9.68012 9.92777 0.942141 -7.33053 76.6985
11164766 27.0246 29.6819 9.7737 10.0039 0.943831 -7.24246 76.4842
11164767 27.0246 29.6819 9.7737 10.0039 0.943831 -7.24246 76.4842
11164774 27.0047 29.5166 9.87768 10.3085 0.959077 -7.10526 76.7075
11164784 27.0047 29.5166 9.87768 10.3085 0.959077 -7.10526 76.7075
11164795 26.7855 29.4485 10.0128 10.4418 1.00796 -6.99831 76.6886
11164803 26.6758 29.2832 10.1272 10.6512 1.02013 -6.87682 76.7374
11164816 26.6758 29.2832 10.1272 10.6512 1.02013 -6.87682 76.7374
11164824 26.5164 29.1081 10.2728 10.8415 1.02962 -6.74564 76.7389
11164837 26.337 28.9039 10.4807 11.1081 1.03937 -6.57014 76.8297
11164844 26.337 28.9039 10.4807 11.1081 1.03937 -6.57014 76.8297
11164853 26.1776 28.7872 10.6575 11.2508 1.04163 -6.4502 76.8731
11164863 26.1776 28.7872 10.6575 11.2508 1.04163 -6.4502 76.8731
11164874 25.9982 28.651 10.8031 11.4412 1.06997 -6.3214 76.8935
11164887 25.8288 28.5732 10.9486 11.6697 1.12484 -6.19001 77.0203
11164894 25.8288 28.5732 10.9486 11.6697 1.12484 -6.19001 77.0203
11164915 25.6495 28.3787 11.1566 11.7839 1.09023 -6.05852 76.9686
11164918 25.4801 28.3495 11.167 11.9647 1.19126 -5.98312 76.9613
11164925 25.4801 28.3495 11.167 11.9647 1.19126 -5.98312 76.9613
11164938 25.4203 28.262 11.2606 12.0218 1.17035 -5.92478 76.9647
11164945 25.4203 28.262 11.2606 12.0218 1.17035 -5.92478 76.9647
11164955 25.2608 28.1161 11.3853 12.0409 1.14281 -5.84952 76.8032
11164965 25.1911 27.9703 11.4581 12.2122 1.14968 -5.75759 76.8316
11164985 25.1114 27.9508 11.4269 12.1646 1.16666 -5.76697 76.6537
11164996 25.0317 27.873 11.5517 12.2598 1.15669 -5.68847 76.7161
11165015 25.0715 27.9119 11.4997 12.2217 1.16108 -5.72232 76.7048
11165036 25.1213 27.9314 11.4373 12.2027 1.16549 -5.75271 76.6927
11165051 25.1512 27.9897 11.4269 12.1265 1.15331 -5.78676 76.6944
11165056 25.1512 27.9897 11.4269 12.1265 1.15331 -5.78676 76.6944
11165066 25.1014 28.0383 11.3749 12.1456 1.20909 -5.79555 76.6602
11165076 25.2011 27.9994 11.2917 12.1932 1.20616 -5.8125 76.6854
11165096 25.2011 28.0092 11.2917 12.1551 1.19736 -5.824 76.6571
11165125 25.1612 27.98 11.2917 12.1741 1.20784 -5.81056 76.607
11165136 25.1512 27.98 11.2917 12.1646 1.2083 -5.81195 76.5876
11165139 25.1512 27.98 11.2917 12.1646 1.2083 -5.81195 76.5876
11165147 25.221 27.9994 11.219 12.0789 1.18874 -5.86575 76.5183
11165164 25.1612 27.98 11.3437 12.1551 1.18415 -5.80161 76.64
11165167 25.1612 27.98 11.3437 12.1551 1.18415 -5.80161 76.64
11165177 25.1612 27.9119 11.3541 12.2408 1.18607 -5.76737 76.668
11165193 25.1612 27.9119 11.3541 12.2408 1.18607 -5.76737 76.668
11165199 24.9719 27.766 11.5205 12.3359 1.17816 -5.65606 76.5943
11165209 24.9021 27.7855 11.6037 12.5549 1.24748 -5.56873 76.8461
11165229 24.7626 27.7174 11.7076 12.5644 1.24151 -5.51281 76.752
11165248 24.7825 27.6201 11.9052 12.6786 1.17261 -5.42021 76.9865
11165251 24.7825 27.6201 11.9052 12.6786 1.17261 -5.42021 76.9865
11165258 24.6829 27.6104 11.822 12.7357 1.24957 -5.4135 76.851
11165276 24.5832 27.5326 11.9988 12.7928 1.21686 -5.32931 76.9075
11165279 24.5832 27.5326 11.9988 12.7928 1.21686 -5.32931 76.9075
11165288 24.5334 27.4256 12.1028 12.869 1.18888 -5.262 76.9308
11165305 24.5334 27.4256 12.1028 12.869 1.18888 -5.262 76.9308
11165308 24.3441 27.2992 12.0612 12.888 1.23445 -5.22782 76.5925
11165320 24.4138 27.377 12.1547 12.9832 1.23219 -5.19693 76.9288
11165335 24.4138 27.377 12.1547 12.9832 1.23219 -5.19693 76.9288
11165340 24.3341 27.2797 12.2171 12.9451 1.19622 -5.16794 76.7761
11165350 24.2544 27.2506 12.1859 12.9451 1.22507 -5.16217 76.636
11165370 24.1448 27.1339 12.3003 13.0689 1.22562 -5.07049 76.6478
11165380 24.1448 27.1339 12.3003 13.0689 1.22562 -5.07049 76.6478
11165389 23.9056 26.9783 12.4667 13.145 1.22588 -4.95562 76.4956
11165409 23.7661 26.8324 12.6642 13.4115 1.24343 -4.79745 76.6743
11165411 23.7661 26.8324 12.6642 13.4115 1.24343 -4.79745 76.6743
11165421 23.5868 26.5892 12.8514 13.5543 1.20963 -4.65587 76.5817
11165434 23.4572 26.4823 13.1113 13.8018 1.20865 -4.49426 76.8526
11165441 23.4572 26.4823 13.1113 13.8018 1.20865 -4.49426 76.8526
11165451 23.3277 26.3267 13.2881 14.0302 1.21509 -4.35272 76.9726
11165461 23.3277 26.3267 13.2881 14.0302 1.21509 -4.35272 76.9726
11165471 23.0785 26.1711 13.5168 14.173 1.21807 -4.20326 76.9394
11165481 22.949 25.9474 13.7248 14.2682 1.15159 -4.07795 76.8893
11165491 22.949 25.9474 13.7248 14.2682 1.15159 -4.07795 76.8893
11165503 22.7696 25.8501 13.8911 14.4205 1.17307 -3.95966 76.9314
11165512 22.5305 25.7042 14.0263 14.6109 1.22227 -3.82407 76.8719
11165535 22.5305 25.7042 14.0263 14.6109 1.22227 -3.82407 76.8719
11165536 22.4009 25.5292 14.2446 14.7156 1.17022 -3.70071 76.8903
11165542 22.4009 25.5292 14.2446 14.7156 1.17022 -3.70071 76.8903
11165552 22.2714 25.3541 14.4318 14.8012 1.12289 -3.58954 76.8586
11165562 22.0621 25.2374 14.6086 14.9535 1.14499 -3.46157 76.8616
11165572 22.0621 25.2374 14.6086 14.9535 1.14499 -3.46157 76.8616
11165582 21.9027 25.0429 14.7541 15.0202 1.10996 -3.35728 76.7199
11165594 21.6934 24.7803 15.0349 15.2391 1.07206 -3.16618 76.7477
11165602 21.6934 24.7803 15.0349 15.2391 1.07206 -3.16618 76.7477
11165617 21.5539 24.615 15.2844 15.3914 1.03066 -3.02424 76.8447
11165622 21.5539 24.615 15.2844 15.3914 1.03066 -3.02424 76.8447
11165632 21.3945 24.4205 15.5651 15.6198 1.00022 -2.85001 76.9999
11165642 21.2151 24.1676 15.7315 15.8387 0.99403 -2.69239 76.953
11165652 21.2151 24.1676 15.7315 15.8387 0.99403 -2.69239 76.953
11165662 21.0059 23.9926 16.033 16.0196 0.96471 -2.52024 77.051
11165672 20.8564 23.8078 16.293 16.1243 0.902531 -2.38324 77.0814
11165692 20.6671 23.5744 16.5529 16.248 0.844485 -2.22744 77.0424
11165704 20.6671 23.5744 16.5529 16.248 0.844485 -2.22744 77.0424
11165713 20.4977 23.4479 16.7401 16.3908 0.843659 -2.10467 77.0765
11165725 20.3482 23.3896 16.9376 16.4574 0.830141 -2.01134 77.1328
11165733 20.3482 23.3896 16.9376 16.4574 0.830141 -2.01134 77.1328
11165744 20.2585 23.2048 17.0394 16.4955 0.780034 -1.93415 76.9982
11165753 20.109 23.0978 17.2166 16.6193 0.776029 -1.82451 77.0427
11165764 20.109 23.0978 17.2166 16.6193 0.776029 -1.82451 77.0427
11165773 19.9297 22.9422 17.3741 16.7335 0.770327 -1.70779 76.9794
11165795 19.7702 22.8839 17.5512 16.7525 0.752008 -1.62758 76.9579
11165806 19.6208 22.7672 17.7383 16.8953 0.74766 -1.51017 77.0215
11165815 19.6208 22.7672 17.7383 16.8953 0.74766 -1.51017 77.0215
11165827 19.4414 22.6407 17.8662 16.9524 0.743008 -1.41679 76.9008
11165836 19.2819 22.524 18.0336 17.0487 0.733924 -1.31171 76.8883
11165852 19.2819 22.524 18.0336 17.0487 0.733924 -1.31171 76.8883
11165855 19.0826 22.3976 18.26 17.1072 0.703382 -1.19323 76.8474
11165865 19.0826 22.3976 18.26 17.1072 0.703382 -1.19323 76.8474
11165878 18.8933 22.1836 18.447 17.2046 0.66725 -1.06063 76.7286
11165886 18.7339 21.9794 18.7423 17.4287 0.628167 -0.886196 76.8843
11165906 18.4748 21.8141 18.949 17.6917 0.676569 -0.711325 76.9296
11165916 18.2855 21.6682 19.1951 17.8573 0.663874 -0.565127 77.0061
11165936 18.146 21.4931 19.4904 18.0619 0.621384 -0.405503 77.1914
11165946 17.8669 21.4931 19.6283 18.0619 0.668341 -0.325099 77.0502
11165957 17.8669 21.4056 19.6283 18.1203 0.659153 -0.29679 77.0211
11165966 17.7175 21.1236 19.8743 18.1398 0.543746 -0.16138 76.8552
11165977 17.7175 21.1236 19.8743 18.1398 0.543746 -0.16138 76.8552
11165986 17.4982 20.9971 20.0614 18.2957 0.563812 -0.0269946 76.8525
11166002 17.3089 20.7929 20.3173 18.4711 0.532493 0.133937 76.8902
11166006 17.3089 20.7929 20.3173 18.4711 0.532493 0.133937 76.8902
11166016 17.2192 20.5887 20.5339 18.6075 0.46882 0.259929 76.9492
11166032 17.2192 20.5887 20.5339 18.6075 0.46882 0.259929 76.9492
11166037 16.9648 20.3844 20.7504 18.7438 0.459728 0.418723 76.8435
11166049 16.7886 20.1899 21.0064 18.8705 0.41163 0.565671 76.8554
11166057 16.7886 20.1899 21.0064 18.8705 0.41163 0.565671 76.8554
11166072 16.5948 20.0051 21.2525 19.0946 0.406909 0.730448 76.947
11166077 16.4451 19.7523 21.5379 19.3089 0.349855 0.905217 77.0442
11166087 16.4451 19.7523 21.5379 19.3089 0.349855 0.905217 77.0442
11166098 16.1368 19.5092 21.9218 19.5232 0.315779 1.12836 77.091
11166107 16.1368 19.5092 21.9218 19.5232 0.315779 1.12836 77.091
11166120 15.9694 19.2563 22.1876 19.7765 0.283641 1.30945 77.1898
11166127 15.7316 18.9645 22.542 20.0688 0.245681 1.53569 77.3069
11166148 15.5202 18.6922 22.857 20.2344 0.177684 1.72287 77.3038
11166157 15.2119 18.4394 23.1621 20.439 0.163189 1.93194 77.2524
11166168 15.2119 18.4394 23.1621 20.439 0.163189 1.93194 77.2524
11166178 14.9741 18.1087 23.5953 20.7897 0.106183 2.18842 77.4677
11166198 14.5425 17.7683 24.0579 21.0332 0.064972 2.47675 77.4019
11166214 14.3487 17.5641 24.4418 21.3255 0.0318795 2.6753 77.6801
11166228 14.0668 17.1653 24.806 21.5301 -0.0571892 2.92077 77.5683
11166239 13.829 16.8711 25.2096 21.8516 -0.101586 3.15602 77.7613
11166250 13.829 16.8711 25.2096 21.8516 -0.101586 3.15602 77.7613
11166260 13.5295 16.5672 25.6034 22.2023 -0.116628 3.40984 77.9024
11166285 13.1948 16.1896 26.0365 22.4264 -0.197612 3.67613 77.8473
11166290 12.7808 15.8212 26.5188 22.7868 -0.221926 3.98617 77.9077
11166300 12.7808 15.8212 26.5188 22.7868 -0.221926 3.98617 77.9077
11166311 12.2788 15.3792 27.011 23.1278 -0.251542 4.33453 77.7968
11166320 11.9705 15.0845 27.5327 23.4785 -0.301078 4.60306 78.0662
11166340 11.7062 14.7714 27.8477 23.7513 -0.330202 4.8263 78.0766
11166360 11.3627 14.4583 28.1529 24.0143 -0.334328 5.06735 77.9882
11166371 11.1161 14.1268 28.6057 24.2676 -0.424802 5.30565 78.1161
11166381 11.1161 14.1268 28.6057 24.2676 -0.424802 5.30565 78.1161
11166391 10.8078 13.8321 28.9404 24.5014 -0.452933 5.53304 78.0816
11166401 10.5259 13.4729 29.3833 24.7645 -0.534843 5.787 78.1466
11166411 10.5259 13.4729 29.3833 24.7645 -0.534843 5.787 78.1466
11166422 10.385 13.2703 29.6589 24.9106 -0.595401 5.92796 78.2248
11166432 10.0238 12.9572 30.0527 25.1444 -0.631543 6.18128 78.1781
11166442 10.0238 12.9572 30.0527 25.1444 -0.631543 6.18128 78.1781
11166455 9.79482 12.6257 30.4464 25.4367 -0.695658 6.41017 78.3036
11166473 9.58342 12.3402 30.6925 25.5731 -0.755438 6.58825 78.1892
11166483 9.44249 12.0915 30.9386 25.7289 -0.818597 6.73903 78.2016
11166495 9.44249 12.0915 30.9386 25.7289 -0.818597 6.73903 78.2016
11166503 9.26632 11.8245 31.2142 25.9627 -0.860295 6.9159 78.2678
11166516 9.0285 11.585 31.6178 26.0991 -0.945398 7.10517 78.3305
11166523 9.0285 11.585 31.6178 26.0991 -0.945398 7.10517 78.3305
11166538 8.80829 11.3456 31.982 26.2745 -1.01078 7.28907 78.4105
11166560 8.80829 11.3456 31.982 26.2745 -1.01078 7.28907 78.4105
11166561 8.56166 11.0693 32.3167 26.5278 -1.04531 7.49537 78.4755
11166564 8.40311 10.8115 32.6514 26.7032 -1.12636 7.66331 78.5692
11166574 8.40311 10.8115 32.6514 26.7032 -1.12636 7.66331 78.5692
11166586 8.25337 10.5444 32.8089 26.8103 -1.182 7.80853 78.417
11166593 8.15648 10.3602 33.0747 27.0636 -1.21014 7.9375 78.655
11166615 7.98031 10.1116 33.3109 27.2 -1.26575 8.09494 78.6028
11166625 7.98031 10.1116 33.3109 27.2 -1.26575 8.09494 78.6028
11166640 7.83938 9.90899 33.557 27.3364 -1.3196 8.22941 78.6418
11166646 7.68083 9.69718 33.8031 27.5799 -1.33531 8.38074 78.7611
11166655 7.68083 9.69718 33.8031 27.5799 -1.33531 8.38074 78.7611
11166668 7.5487 9.49458 34 27.8527 -1.33131 8.51933 78.896
11166675 7.31969 9.33803 34 28.067 -1.24313 8.65217 78.7248
11166694 7.31969 9.33803 34 28.067 -1.24313 8.65217 78.7248
11166696 7.16995 9.18147 34 28.3301 -1.1624 8.76547 78.6815
11166705 7.16995 9.18147 34 28.3301 -1.1624 8.76547 78.6815
11166720 6.96736 8.9052 34 28.4178 -1.16374 8.91781 78.2903
11166725 6.8 8.67497 34 28.6223 -1.12125 9.0555 78.0973
11166735 6.8 8.67497 34 28.6223 -1.12125 9.0555 78.0973
11166747 6.61503 8.49079 34 28.7587 -1.08056 9.17996 77.8646
11166755 6.51813 8.26056 34 29.012 -1.04304 9.30059 77.7907
11166770 6.51813 8.26056 34 29.012 -1.04304 9.30059 77.7907
11166776 6.2715 8.03955 34 29.3238 -0.93649 9.46986 77.6348
11166785 6.2715 8.03955 34 29.3238 -0.93649 9.46986 77.6348
11166795 6.09534 7.80011 34 29.4407 -0.922769 9.60972 77.3361
11166805 5.92798 7.6896 34 29.7037 -0.819522 9.7165 77.3213
11166816 5.92798 7.6896 34 29.7037 -0.819522 9.7165 77.3213
11166825 5.81347 7.47779 34 29.8791 -0.795835 9.83302 77.1703
11166839 5.69016 7.35807 34 30.0057 -0.754781 9.91984 77.054
11166845 5.69016 7.35807 34 30.0057 -0.754781 9.91984 77.054
11166855 5.57565 7.22914 34 30.1908 -0.699933 10.0108 76.9956
11166865 5.57565 7.22914 34 30.1908 -0.699933 10.0108 76.9956
11166875 5.49637 7.09101 34 30.2298 -0.708032 10.0842 76.8172
11166885 5.46114 7.09101 34 30.2201 -0.700146 10.095 76.7722
11166907 5.4171 7.02654 34 30.3077 -0.67843 10.1361 76.7514
11166916 5.37306 6.99892 34 30.4149 -0.637881 10.1664 76.7869
11166936 5.32021 7.00813 34 30.4441 -0.608277 10.1825 76.7725
11166946 5.32021 7.00813 34 30.4441 -0.608277 10.1825 76.7725
11166956 5.24093 6.96208 34 30.5221 -0.572428 10.2285 76.7251
11166966 5.27617 6.95287 34 30.5708 -0.570482 10.223 76.7998
11166978 5.27617 6.95287 34 30.5708 -0.570482 10.223 76.7998
11166986 5.27617 6.95287 34 30.6097 -0.557517 10.2254 76.8388
11167004 5.17927 6.93445 34 30.6585 -0.516582 10.2664 76.7722
11167006 5.17927 6.93445 34 30.6585 -0.516582 10.2664 76.7722
11167016 5.18808 6.97129 34 30.6585 -0.507155 10.2513 76.8178
11167028 5.18808 6.97129 34 30.6585 -0.507155 10.2513 76.8178
11167037 5.21451 7.03575 34 30.6195 -0.507115 10.2191 76.8697
11167050 5.24093 7.0818 34 30.6 -0.506718 10.1941 76.9227
11167057 5.24093 7.0818 34 30.6 -0.506718 10.1941 76.9227
11167067 5.25855 7.14626 34 30.6585 -0.471637 10.1709 77.0633
11167080 5.21451 7.15547 34 30.6487 -0.457789 10.1817 77.0187
11167087 5.21451 7.15547 34 30.6487 -0.457789 10.1817 77.0187
11167099 5.29378 7.15547 34 30.6779 -0.473365 10.1576 77.1272
11167109 5.29378 7.15547 34 30.6779 -0.473365 10.1576 77.1272
11167121 5.26736 7.14626 34 30.6877 -0.464784 10.1699 77.1013
11167129 5.29378 7.26598 34 30.6585 -0.443336 10.1204 77.2182
11167139 5.29378 7.26598 34 30.6585 -0.443336 10.1204 77.2182
11167150 5.35544 7.25677 34 30.5415 -0.504553 10.0959 77.1538
11167174 5.39948 7.34886 34 30.5415 -0.48812 10.0517 77.2899
11167180 5.39067 7.31203 34 30.6292 -0.46857 10.0721 77.3319
11167192 5.36425 7.31203 34 30.6097 -0.466605 10.0795 77.286
11167200 5.36425 7.31203 34 30.6097 -0.466605 10.0795 77.286
11167215 5.46114 7.32124 34 30.6097 -0.494291 10.0451 77.3921
11167231 5.47876 7.35807 34 30.5026 -0.523055 10.0206 77.3394
11167241 5.5228 7.36728 34 30.4928 -0.537163 10.0027 77.3829
11167251 5.5228 7.36728 34 30.4928 -0.537163 10.0027 77.3829
11167263 5.54041 7.39491 34 30.5415 -0.517561 9.99129 77.4769
11167271 5.5228 7.39491 34 30.5221 -0.518411 9.99571 77.4398
11167287 5.5228 7.39491 34 30.5221 -0.518411 9.99571 77.4398
11167292 5.54041 7.49621 34 30.4734 -0.506662 9.95422 77.51
11167312 5.67254 7.49621 34 30.4246 -0.56438 9.90856 77.5934
11167322 5.75181 7.62514 34 30.3175 -0.582154 9.83478 77.6944
11167337 5.75181 7.62514 34 30.3175 -0.582154 9.83478 77.6944
11167341 5.82228 7.70802 34 30.2395 -0.602649 9.78064 77.7698
11167351 5.8487 7.70802 34 30.2103 -0.620563 9.77025 77.767
11167364 5.8487 7.7909 34 30.2103 -0.593285 9.74389 77.8499
11167371 5.88394 7.88299 34 30.1811 -0.583676 9.7015 77.948
11167386 5.88394 7.88299 34 30.1811 -0.583676 9.7015 77.948
11167393 5.97202 7.86457 34 30.1032 -0.642899 9.67412 77.9397
11167401 5.98964 7.92904 34 30.1032 -0.627211 9.64816 78.0218
11167412 5.98964 7.92904 34 30.1032 -0.627211 9.64816 78.0218
11167421 6.10415 8.04875 34 30.035 -0.64602 9.56966 78.1879
11167436 6.10415 8.04875 34 30.035 -0.64602 9.56966 78.1879
11167441 6.17461 8.06717 34 29.9181 -0.700291 9.53359 78.1598
11167451 6.23627 8.17768 34 29.8109 -0.718345 9.47211 78.2248
11167462 6.23627 8.17768 34 29.8109 -0.718345 9.47211 78.2248
11167471 6.34197 8.27898 34 29.7427 -0.740232 9.40265 78.3636
11167483 6.39482 8.32503 34 29.7719 -0.731884 9.37399 78.4918
11167504 6.46528 8.42633 34 29.6355 -0.765155 9.31091 78.5271
11167513 6.46528 8.42633 34 29.6355 -0.765155 9.31091 78.5271
11167522 6.43005 8.3987 34 29.6355 -0.763348 9.33038 78.4643
11167532 6.61503 8.55525 33.9016 29.6258 -0.741938 9.217 78.6976
11167552 6.67668 8.6013 33.7736 29.4894 -0.751069 9.16432 78.541
11167562 6.80881 8.73944 33.6653 29.3725 -0.751466 9.0645 78.5861
11167574 6.80881 8.73944 33.6653 29.3725 -0.751466 9.0645 78.5861
11167582 6.87927 8.82232 33.4783 29.3043 -0.710635 8.99818 78.4842
11167593 6.87927 8.82232 33.4783 29.3043 -0.710635 8.99818 78.4842
11167602 7.0114 8.92362 33.3897 29.2556 -0.706884 8.91641 78.5803
11167616 7.05544 9.01571 33.3897 29.1777 -0.715864 8.86898 78.6385
11167622 7.05544 9.01571 33.3897 29.1777 -0.715864 8.86898 78.6385
11167632 7.21399 9.13543 33.1436 29.0413 -0.694251 8.75454 78.5343
11167642 7.27565 9.2091 32.9369 28.9146 -0.66662 8.68693 78.3362
11167664 7.48705 9.36566 32.7105 28.7003 -0.680903 8.54001 78.2635
11167674 7.48705 9.36566 32.7105 28.7003 -0.680903 8.54001 78.2635
11167687 7.68083 9.58667 32.425 28.4178 -0.672576 8.36803 78.1103
11167694 7.8658 9.8169 32.0706 28.2327 -0.604875 8.19774 77.986
11167709 7.8658 9.8169 32.0706 28.2327 -0.604875 8.19774 77.986
11167713 8.14767 10.0471 31.6178 27.9599 -0.565268 7.98153 77.7725
11167725 8.50881 10.3234 31.2733 27.6579 -0.578947 7.7348 77.7634
11167745 8.91399 10.6641 30.7516 27.4533 -0.497586 7.44895 77.783
11167755 8.91399 10.6641 30.7516 27.4533 -0.497586 7.44895 77.783
11167765 9.33679 11.0785 30.1511 27.1123 -0.41744 7.11548 77.6788
11167780 9.83886 11.6219 29.5408 26.6252 -0.364752 6.70618 77.6268
11167785 9.83886 11.6219 29.5408 26.6252 -0.364752 6.70618 77.6268
11167795 10.3585 12.1192 28.8222 26.0699 -0.320439 6.28431 77.3699
11167807 10.9839 12.8651 28.0347 25.4269 -0.234973 5.74551 77.3107
11167827 11.7326 13.519 27.198 24.7352 -0.219107 5.18528 77.1849
11167835 11.7326 13.519 27.198 24.7352 -0.219107 5.18528 77.1849
11167852 12.3845 14.1452 26.4696 24.1312 -0.18723 4.68126 77.1305
11167855 12.8953 14.6701 25.8987 23.6149 -0.165094 4.27123 77.079
11167865 12.8953 14.6701 25.8987 23.6149 -0.165094 4.27123 77.079
11167877 13.4238 15.2411 25.2785 23.0596 -0.130415 3.8323 77.003
11167904 13.9611 15.7384 24.6682 22.5822 -0.100315 3.42124 76.9499
11167908 13.9611 15.7384 24.6682 22.5822 -0.100315 3.42124 76.9499
11167909 14.4456 16.162 24.2351 22.1146 -0.131276 3.06835 76.9573
11167915 14.4456 16.162 24.2351 22.1146 -0.131276 3.06835 76.9573
11167925 14.7979 16.4935 23.7232 21.6762 -0.114562 2.75939 76.6909
11167935 15.2912 16.9171 23.2901 21.1891 -0.154866 2.40018 76.6875
11167950 15.2912 16.9171 23.2901 21.1891 -0.154866 2.40018 76.6875
11167959 15.7052 17.3598 22.7093 20.7215 -0.108887 2.03262 76.4958
11167970 16.128 17.8461 22.1778 20.2149 -0.0801191 1.65358 76.3668
11167977 16.128 17.8461 22.1778 20.2149 -0.0801191 1.65358 76.3668
11167986 16.5772 18.2838 21.7545 19.7181 -0.108041 1.29922 76.3335
11168006 17.0698 18.877 21.2131 19.0946 -0.102054 0.857829 76.2544
11168022 17.6178 19.3827 20.6028 18.6951 -0.0467718 0.451655 76.2984
11168027 17.6178 19.3827 20.6028 18.6951 -0.0467718 0.451655 76.2984
11168036 18.2157 19.9176 20.0122 18.1496 -0.0526488 0.00558257 76.2951
11168047 18.714 20.4233 19.4904 17.7404 -0.0133097 -0.374459 76.3681
11168056 18.714 20.4233 19.4904 17.7404 -0.0133097 -0.374459 76.3681
11168069 19.2122 20.8415 19.0573 17.3507 -0.0252649 -0.715198 76.4618
11168076 19.2122 20.8415 19.0573 17.3507 -0.0252649 -0.715198 76.4618
11168093 19.6208 21.25 18.6045 16.9524 -0.0074774 -1.04291 76.4277
11168097 19.9695 21.6779 18.1911 16.6288 0.0477612 -1.33931 76.4673
11168118 20.398 22.0572 17.8859 16.2671 0.0131696 -1.62558 76.6082
11168128 20.7169 22.3392 17.5512 16.0196 0.0295967 -1.85678 76.627
11168137 20.7169 22.3392 17.5512 16.0196 0.0295967 -1.85678 76.627
11168152 21.0258 22.6116 17.1969 15.8102 0.0649363 -2.08044 76.6444
11168157 21.0258 22.6116 17.1969 15.8102 0.0649363 -2.08044 76.6444
11168167 21.245 22.9908 16.948 15.5722 0.120527 -2.28952 76.7561
11168184 21.6237 23.3118 16.5425 15.2867 0.140777 -2.561 76.7646
11168189 21.6237 23.3118 16.5425 15.2867 0.140777 -2.561 76.7646
11168197 21.8329 23.6035 16.2826 15.0202 0.165558 -2.76269 76.7392
11168216 22.1917 23.8467 15.9498 14.7822 0.158703 -2.99067 76.7704
11168218 22.1917 23.8467 15.9498 14.7822 0.158703 -2.99067 76.7704
11168228 22.4707 24.1871 15.5651 14.5347 0.223416 -3.23575 76.7576
11168248 22.8095 24.4205 15.2532 14.192 0.17927 -3.47923 76.6752
11168265 23.0188 24.7122 14.8165 13.9255 0.26235 -3.72464 76.473
11168278 23.3675 25.1013 14.5046 13.659 0.289747 -3.97453 76.6324
11168290 23.6266 25.4319 14.1407 13.3639 0.33586 -4.22277 76.5631
11168313 23.8857 25.7723 13.8703 13.0403 0.344983 -4.45627 76.5687
11168330 24.095 26.0349 13.5688 12.8309 0.392669 -4.65117 76.5296
11168341 24.354 26.21 13.3401 12.4978 0.33167 -4.8545 76.4018
11168350 24.354 26.21 13.3401 12.4978 0.33167 -4.8545 76.4018
11168362 24.5234 26.5309 13.0801 12.4026 0.434399 -5.01162 76.537
11168370 24.7327 26.7351 12.9034 12.2217 0.431103 -5.15898 76.5929
11168390 24.8324 26.9005 12.789 12.0599 0.437123 -5.26573 76.5817
11168400 24.8324 26.9005 12.789 12.0599 0.437123 -5.26573 76.5817
11168410 24.9918 27.0269 12.633 12.0218 0.464275 -5.35331 76.6735
11168420 25.0715 27.1241 12.5083 11.9171 0.476861 -5.43655 76.621
11168430 25.0715 27.1241 12.5083 11.9171 0.476861 -5.43655 76.621
11168440 25.2309 27.2992 12.3939 11.7934 0.478297 -5.54168 76.7174
11168450 25.2509 27.3965 12.2795 11.6697 0.501236 -5.62 76.5965
11168460 25.2509 27.3965 12.2795 11.6697 0.501236 -5.62 76.5965
11168470 25.2509 27.4548 12.2171 11.6221 0.525466 -5.65678 76.5449
11168482 25.2509 27.4548 12.2171 11.6221 0.525466 -5.65678 76.5449
11168490 25.2808 27.3867 12.0924 11.6125 0.532305 -5.68843 76.3724
11168500 25.3804 27.5229 12.1547 11.6601 0.536984 -5.68739 76.7182
11168520 25.4701 27.6299 12.082 11.6125 0.550282 -5.74367 76.7945
11168530 25.5 27.6785 12.0612 11.584 0.553641 -5.76646 76.8236
11168541 25.5 27.6785 12.0612 11.584 0.553641 -5.76646 76.8236
11168552 25.5498 27.7271 12.0196 11.5935 0.569394 -5.78694 76.89
11168561 25.5498 27.7271 12.0196 11.5935 0.569394 -5.78694 76.89
11168571 25.4601 27.6299 12.082 11.5078 0.52022 -5.77079 76.6798
11168581 25.4502 27.6201 12.1028 11.5269 0.519583 -5.75764 76.6999
11168592 25.4502 27.6201 12.1028 11.5269 0.519583 -5.75764 76.6999
11168601 25.3804 27.6104 12.0924 11.5554 0.552288 -5.74313 76.6386
11168612 25.3804 27.6104 12.0924 11.5554 0.552288 -5.74313 76.6386
11168621 25.3107 27.4062 12.1443 11.6697 0.529462 -5.66494 76.5308
11168635 25.1413 27.3576 12.3731 11.8124 0.539756 -5.53828 76.6843
11168641 25.1413 27.3576 12.3731 11.8124 0.539756 -5.53828 76.6843
11168651 25.0117 27.3089 12.5394 11.86 0.527167 -5.45903 76.7201
11168661 24.8921 27.1922 12.6434 12.0885 0.567952 -5.34115 76.8163
11168671 24.8921 27.1922 12.6434 12.0885 0.567952 -5.34115 76.8163
11168682 24.8324 27.1825 12.7162 12.117 0.569615 -5.30559 76.8481
11168691 24.8324 27.1825 12.7162 12.117 0.569615 -5.30559 76.8481
11168701 24.7925 27.0755 12.7578 12.2027 0.56226 -5.25343 76.8285
11168711 24.7427 27.0852 12.9034 12.2503 0.548664 -5.19753 76.9816
11168724 24.7427 27.0852 12.9034 12.2503 0.548664 -5.19753 76.9816
11168731 24.7726 27.0755 12.8306 12.2312 0.553766 -5.22422 76.9099
11168741 24.7825 27.0658 12.8722 12.2598 0.542635 -5.20582 76.9803
11168761 24.7925 27.0852 12.8098 12.1932 0.54504 -5.24347 76.8807
11168771 24.7925 27.0852 12.8098 12.1932 0.54504 -5.24347 76.8807
11168781 24.9121 27.1339 12.7058 12.0694 0.515941 -5.32484 76.8212
11168794 24.9719 27.1825 12.5602 11.9457 0.520504 -5.40992 76.6603
11168802 24.9719 27.1825 12.5602 11.9457 0.520504 -5.40992 76.6603
11168816 25.0018 27.1533 12.5187 11.8981 0.499859 -5.43378 76.5718
11168822 25.0117 27.2603 12.4979 11.9076 0.540686 -5.45138 76.6775
11168832 25.0117 27.2603 12.4979 11.9076 0.540686 -5.45138 76.6775
11168842 25.0815 27.2797 12.4875 11.8886 0.521058 -5.47032 76.7373
11168852 25.0815 27.2797 12.4875 11.8886 0.521058 -5.47032 76.7373
11168863 25.1114 27.2895 12.4043 11.9171 0.551 -5.48982 76.7223
11168872 25.1612 27.3576 12.3731 11.8791 0.554356 -5.52291 76.7709
11168882 25.1612 27.3576 12.3731 11.8791 0.554356 -5.52291 76.7709
11168892 25.211 27.3965 12.3419 11.86 0.554475 -5.54728 76.8094
11168902 25.221 27.3867 12.3315 11.7553 0.518146 -5.57815 76.6945
11168931 25.2708 27.3478 12.3315 11.7934 0.501317 -5.56928 76.7435
11168936 25.2708 27.3478 12.3315 11.7934 0.501317 -5.56928 76.7435
11168943 25.3406 27.3673 12.2899 11.7172 0.473848 -5.61181 76.715
11168962 25.3705 27.4451 12.2587 11.7077 0.496092 -5.63591 76.782
11168969 25.3705 27.4451 12.2587 11.7077 0.496092 -5.63591 76.782
11168973 25.4004 27.3186 12.1859 11.7077 0.469923 -5.64372 76.6127
11168984 25.2708 27.3867 12.2171 11.7268 0.530523 -5.62267 76.6014
11168993 25.2708 27.3867 12.2171 11.7268 0.530523 -5.62267 76.6014
11169005 25.2409 27.27 12.2483 11.7839 0.511041 -5.58092 76.5431
11169015 25.2409 27.27 12.2483 11.7839 0.511041 -5.58092 76.5431
11169026 25.1413 27.2117 12.3835 11.8791 0.510988 -5.49962 76.6155
11169035 25.1512 27.1241 12.633 12.0409 0.448593 -5.38046 76.9493
11169055 24.9619 26.9685 12.789 12.0694 0.41903 -5.28827 76.7889
11169066 24.8623 26.8227 12.9034 12.2979 0.440559 -5.1668 76.8861
11169076 24.8623 26.8227 12.9034 12.2979 0.440559 -5.1668 76.8861
11169086 24.7028 26.7546 13.0593 12.4311 0.462511 -5.06192 76.9478
11169097 24.5932 26.6087 13.2153 12.5263 0.431004 -4.96344 76.9435
11169106 24.5932 26.6087 13.2153 12.5263 0.431004 -4.96344 76.9435
11169127 24.5035 26.4628 13.3089 12.6691 0.428727 -4.87139 76.9443
11169131 24.5035 26.4628 13.3089 12.6691 0.428727 -4.87139 76.9443
11169136 24.3839 26.3656 13.392 12.7357 0.430977 -4.8041 76.8773
11169146 24.4138 26.3267 13.4336 12.7643 0.404048 -4.78485 76.9384
11169156 24.4138 26.3267 13.4336 12.7643 0.404048 -4.78485 76.9384
11169181 24.4138 26.3267 13.3713 12.6976 0.403342 -4.81808 76.8094
11169182 24.4138 26.3072 13.3193 12.7262 0.423464 -4.82155 76.7665
11169187 24.4138 26.3072 13.3193 12.7262 0.423464 -4.82155 76.7665
11169197 24.4537 26.3656 13.3089 12.6501 0.408012 -4.85691 76.7782
11169216 24.4537 26.3656 13.3089 12.6501 0.408012 -4.85691 76.7782
11169217 24.5234 26.3169 13.2257 12.6501 0.396872 -4.88124 76.7161
11169227 24.4736 26.278 13.2673 12.631 0.380999 -4.86367 76.65
11169247 24.4736 26.278 13.2673 12.631 0.380999 -4.86367 76.65
11169248 24.4238 26.2002 13.3089 12.7262 0.389308 -4.81136 76.6591
11169259 24.3142 26.1905 13.3401 12.7738 0.427458 -4.77512 76.6185
11169269 24.3142 26.1905 13.3401 12.7738 0.427458 -4.77512 76.6185
11169280 24.354 26.103 13.4648 12.8595 0.372344 -4.71457 76.7813
11169290 24.3042 26.0543 13.5064 12.869 0.362515 -4.68824 76.734
11169301 24.3042 26.0543 13.5064 12.869 0.362515 -4.68824 76.734
11169310 24.2743 26.0738 13.6832 13.0594 0.381255 -4.59308 77.0907
11169322 24.2743 26.0738 13.6832 13.0594 0.381255 -4.59308 77.0907
11169330 24.1249 25.8987 13.6832 13.0594 0.374532 -4.54909 76.7661
11169345 24.085 25.8112 13.8495 13.2021 0.350499 -4.45325 76.9479
11169350 24.085 25.8112 13.8495 13.2021 0.350499 -4.45325 76.9479
11169360 24.1149 25.8307 13.9015 13.2592 0.348052 -4.43247 77.1063
11169370 24.0352 25.8015 13.8703 13.2878 0.384367 -4.41819 76.9948
11169382 24.0352 25.8015 13.8703 13.2878 0.384367 -4.41819 76.9948
11169391 24.0451 25.8307 13.9431 13.2021 0.33904 -4.42682 77.021
11169401 24.0451 25.8307 13.9431 13.2021 0.33904 -4.42682 77.021
11169411 24.095 25.8793 13.808 13.1831 0.376621 -4.47927 76.9653
11169421 24.075 25.8598 13.7248 13.1069 0.380042 -4.5143 76.7666
11169432 24.075 25.8598 13.7248 13.1069 0.380042 -4.5143 76.7666
11169441 24.1448 25.9182 13.6936 13.0118 0.355482 -4.56392 76.7683
11169454 24.1448 25.889 13.6 12.9546 0.358698 -4.59844 76.5884
11169476 24.1747 25.9571 13.5376 13.0308 0.415772 -4.60821 76.7002
11169492 24.1348 25.8696 13.5792 12.9642 0.365689 -4.59733 76.5478
11169508 24.1149 25.889 13.5896 13.0022 0.387344 -4.58486 76.5957
11169522 24.1049 25.9474 13.6416 13.0118 0.395215 -4.57573 76.7056
11169533 24.1149 25.9085 13.7248 13.0403 0.361097 -4.54331 76.7884
11169542 24.1149 25.9085 13.7248 13.0403 0.361097 -4.54331 76.7884
11169554 24.1348 25.9376 13.704 13.145 0.404266 -4.52867 76.9215
11169562 24.1348 25.9376 13.704 13.145 0.404266 -4.52867 76.9215
11169573 24.1149 25.8501 13.7144 13.0974 0.364134 -4.52348 76.7768
11169582 24.1149 25.8987 13.7664 13.2307 0.405192 -4.48313 77.0107
11169602 24.085 25.9182 13.6832 13.1831 0.433561 -4.51485 76.8695
11169612 24.1149 25.889 13.6312 13.1641 0.425458 -4.53299 76.7991
11169623 24.1149 25.889 13.6312 13.1641 0.425458 -4.53299 76.7991
11169633 24.0451 25.9376 13.5688 13.145 0.478742 -4.55085 76.6966
11169644 24.0451 25.9376 13.5688 13.145 0.478742 -4.55085 76.6966
11169654 24.075 25.9571 13.4856 13.1165 0.493547 -4.58608 76.6342
11169666 24.075 26.0252 13.5272 13.0974 0.495389 -4.58956 76.7248
11169673 24.075 26.0252 13.5272 13.0974 0.495389 -4.58956 76.7248
11169690 24.0352 26.0933 13.4544 13.0974 0.5546 -4.61199 76.6803
11169693 23.9953 26.0738 13.5688 13.0689 0.514477 -4.58201 76.7068
11169704 23.9953 26.0738 13.5688 13.0689 0.514477 -4.58201 76.7068
11169714 24.0053 26.103 13.5168 13.0784 0.540808 -4.59817 76.7035
11169723 24.0053 26.103 13.5168 13.0784 0.540808 -4.59817 76.7035
11169738 23.8957 26.0933 13.5688 13.1355 0.575107 -4.55411 76.6932
11169743 23.8757 26.0933 13.6832 13.3068 0.5981 -4.47881 76.959
11169764 23.8658 26.103 13.704 13.2212 0.570396 -4.49521 76.8939
11169775 23.6964 26.0057 13.756 13.3259 0.611866 -4.41894 76.7839
11169785 23.6964 26.0057 13.756 13.3259 0.611866 -4.41894 76.7839
11169795 23.6266 25.996 13.7768 13.3639 0.637206 -4.3931 76.7633
11169815 23.4771 25.782 13.8911 13.5067 0.626323 -4.27775 76.657
11169826 23.4074 25.7626 13.9743 13.64 0.657967 -4.21096 76.7843
11169836 23.4074 25.7626 13.9743 13.64 0.657967 -4.21096 76.7843
11169846 23.2081 25.6362 14.2446 13.7732 0.636417 -4.06436 76.8621
11169856 23.0586 25.4222 14.4318 13.9636 0.616375 -3.91904 76.8762
11169871 23.0586 25.4222 14.4318 13.9636 0.616375 -3.91904 76.8762
11169880 22.8593 25.2666 14.6398 14.1254 0.61546 -3.77691 76.8911
11169889 22.6102 25.2666 14.9517 14.449 0.69676 -3.58631 77.2775
11169898 22.6102 25.1207 14.9517 14.449 0.650793 -3.56472 77.1316
11169910 22.4009 24.8581 15.2324 14.6585 0.610247 -3.37684 77.1499
11169924 22.4009 24.8581 15.2324 14.6585 0.610247 -3.37684 77.1499
11169927 22.1419 24.615 15.5132 14.9821 0.628483 -3.15751 77.2521
11169937 21.803 24.333 15.8459 15.2867 0.637618 -2.91259 77.2685
11169948 21.803 24.333 15.8459 15.2867 0.637618 -2.91259 77.2685
11169957 21.5938 24.0217 16.137 15.6008 0.611395 -2.69111 77.3533
11169974 21.0955 23.6716 16.5945 15.9434 0.622544 -2.37291 77.3051
11169987 20.5574 23.2923 17.0295 16.2956 0.648201 -2.0456 77.1749
11170004 20.5574 23.2923 17.0295 16.2956 0.648201 -2.0456 77.1749
11170007 20.0293 22.7963 17.443 16.8096 0.692058 -1.66838 77.0782
11170018 19.4314 22.2906 18.0631 17.341 0.692713 -1.22876 77.1261
11170031 19.4314 22.2906 18.0631 17.341 0.692713 -1.22876 77.1261
11170038 18.7937 21.7849 18.7226 17.9547 0.719464 -0.757456 77.2559
11170055 18.2356 21.3084 19.2936 18.51 0.739896 -0.337513 77.3476
11170068 17.6477 20.7735 20.0515 19.0361 0.680667 0.12898 77.5088
11170078 17.6477 20.7735 20.0515 19.0361 0.680667 0.12898 77.5088
11170088 17 20.2288 20.6914 19.6206 0.695795 0.59643 77.5408
11170099 16.4627 19.655 21.3214 20.137 0.647089 1.03265 77.5761
11170121 15.899 19.091 22.0203 20.6436 0.584415 1.48233 77.6537
11170128 15.3881 18.5366 22.5715 21.0625 0.528464 1.87779 77.5587
11170142 15.3881 18.5366 22.5715 21.0625 0.528464 1.87779 77.5587
11170148 14.8244 18.0017 23.1818 21.5301 0.491896 2.29936 77.538
11170158 14.8244 18.0017 23.1818 21.5301 0.491896 2.29936 77.538
11170168 14.3047 17.389 23.7331 22.0172 0.441763 2.7226 77.4439
11170179 13.829 16.8987 24.3237 22.4946 0.399941 3.11245 77.546
11170188 13.829 16.8987 24.3237 22.4946 0.399941 3.11245 77.546
11170199 13.4062 16.4935 24.7765 22.9427 0.403732 3.44365 77.6189
11170220 12.957 16.0054 25.4065 23.4785 0.359821 3.83878 77.8474
11170233 12.499 15.6094 25.9085 23.8585 0.340417 4.17178 77.8754
11170245 12.499 15.6094 25.9085 23.8585 0.340417 4.17178 77.8754
11170263 12.1642 15.1029 26.3909 24.3553 0.289416 4.51442 78.0133
11170266 11.7503 14.6977 26.8437 24.8424 0.302753 4.84515 78.134
11170280 11.4244 14.2281 27.3162 25.2711 0.242403 5.16391 78.2396
11170294 11.0192 13.6755 27.6508 25.6997 0.225899 5.50755 78.0452
11170301 11.0192 13.6755 27.6508 25.6997 0.225899 5.50755 78.0452
11170311 10.7902 13.2611 28.0249 26.0797 0.168163 5.76796 78.1558
11170321 10.7902 13.2611 28.0249 26.0797 0.168163 5.76796 78.1558
11170334 10.5347 12.8651 28.3104 26.4986 0.165775 6.02409 78.2088
11170341 10.1912 12.4967 28.6451 26.8298 0.15682 6.29204 78.1628
11170351 10.1912 12.4967 28.6451 26.8298 0.15682 6.29204 78.1628
11170363 9.81244 12.1008 29.1372 27.2585 0.130746 6.60509 78.3089
11170371 9.51295 11.76 29.5211 27.5507 0.0882775 6.8541 78.3448
11170381 9.51295 11.76 29.5211 27.5507 0.0882775 6.8541 78.3448
11170391 9.30155 11.4377 29.8164 27.8235 0.045678 7.06195 78.3792
11170401 9.30155 11.4377 29.8164 27.8235 0.045678 7.06195 78.3792
11170411 9.0285 11.1062 30.1118 28.067 0.0105262 7.28689 78.3135
11170421 8.82591 10.8759 30.535 28.3496 -0.0430807 7.47891 78.5865
11170431 8.82591 10.8759 30.535 28.3496 -0.0430807 7.47891 78.5865
11170442 8.63212 10.5168 30.8599 28.5444 -0.1371 7.6869 78.5532
11170452 8.38549 10.2313 31.1749 28.8074 -0.165905 7.89427 78.5991
11170473 8.13886 9.97346 31.4997 29.0802 -0.185814 8.09501 78.6923
11170482 8.13886 9.97346 31.4997 29.0802 -0.185814 8.09501 78.6923
11170496 7.94508 9.7156 31.795 29.2751 -0.237972 8.27048 78.7308
11170502 7.69845 9.40249 32.2183 29.5576 -0.303212 8.49583 78.8768
11170528 7.52228 9.21831 32.3856 29.8011 -0.281419 8.63696 78.9274
11170532 7.31969 8.95125 32.6219 30.1032 -0.280766 8.82085 78.996
11170543 7.31969 8.95125 32.6219 30.1032 -0.280766 8.82085 78.996
11170553 7.14352 8.74865 32.7991 30.1616 -0.3273 8.95374 78.8528
11170565 7.14352 8.74865 32.7991 30.1616 -0.3273 8.95374 78.8528
11170573 7.00259 8.58288 32.927 30.2493 -0.348349 9.06357 78.7618
11170589 6.86166 8.44475 33.1141 30.4928 -0.328891 9.18106 78.9133
11170604 6.77358 8.32503 33.3011 30.6877 -0.335696 9.27269 79.0874
11170615 6.57098 8.00271 33.5177 30.8338 -0.396618 9.46044 78.9252
11170635 6.49171 7.84615 33.7736 30.9507 -0.464329 9.55952 79.0622
11170645 6.49171 7.84615 33.9016 30.9507 -0.503978 9.56831 79.1901
11170657 6.33316 7.66197 33.9016 31.0092 -0.495395 9.67905 78.9059
11170666 6.13057 7.47779 34 31.1553 -0.475307 9.81676 78.7637
11170686 6.04249 7.34886 34 31.243 -0.4612 9.89103 78.6343
11170697 5.98083 7.30282 34 31.2527 -0.453705 9.9258 78.5364
11170713 5.98083 7.30282 34 31.2527 -0.453705 9.9258 78.5364
11170717 5.97202 7.32124 34 31.3112 -0.426061 9.92652 78.6044
11170727 5.91917 7.16468 34 31.4476 -0.416054 10.0018 78.5314
11170745 5.91917 7.16468 34 31.4476 -0.416054 10.0018 78.5314
11170748 5.75181 7.09101 34 31.584 -0.343266 10.0873 78.4268
11170757 5.75181 7.09101 34 31.584 -0.343266 10.0873 78.4268
11170772 5.64611 6.94366 34 31.7106 -0.316681 10.1764 78.3004
11170777 5.57565 6.8792 34 31.847 -0.271212 10.2281 78.3018
11170787 5.57565 6.8792 34 31.847 -0.271212 10.2281 78.3018
11170797 5.46114 6.7779 34 32.0321 -0.20798 10.309 78.2711
11170807 5.36425 6.68581 34 32.1295 -0.175534 10.376 78.1796
11170829 5.26736 6.63055 34 32.188 -0.143699 10.4289 78.0859
11170839 5.26736 6.63055 34 32.188 -0.143699 10.4289 78.0859
11170849 5.14404 6.54767 34 32.1977 -0.127956 10.4968 77.8894
11170861 5.02073 6.53846 34 32.188 -0.0946343 10.5397 77.7472
11170868 5.02073 6.53846 34 32.188 -0.0946343 10.5397 77.7472
11170883 5.08238 6.51083 34 32.1295 -0.142185 10.5252 77.7227
11170890 5.14404 6.61213 34 32.0516 -0.154336 10.4672 77.8078
11170900 5.14404 6.61213 34 32.0516 -0.154336 10.4672 77.8078
11170915 5.24093 6.71343 34 31.9054 -0.199735 10.3939 77.8598
11170920 5.39067 6.75948 34 31.7691 -0.276612 10.322 77.9192
11170930 5.39067 6.75948 34 31.7691 -0.276612 10.322 77.9192
11170948 5.48756 6.81473 34 31.7398 -0.298879 10.2709 78.0421
11170950 5.48756 6.81473 34 31.7398 -0.298879 10.2709 78.0421
11170962 5.47876 6.86999 34 31.6911 -0.29397 10.2529 78.0399
11170973 5.58446 6.91603 34 31.6716 -0.318778 10.2027 78.1721
11170981 5.58446 6.91603 34 31.6716 -0.318778 10.2027 78.1721
11170998 5.59326 7.01733 34 31.7301 -0.269924 10.1709 78.3407
11171001 5.6285 7.01733 34 31.6132 -0.318806 10.1523 78.259
11171021 5.69016 7.06338 34 31.545 -0.345404 10.1135 78.2985
11171032 5.69016 7.06338 34 31.545 -0.345404 10.1135 78.2985
11171044 5.74301 7.16468 34 31.4183 -0.370242 10.0562 78.326
11171052 5.79586 7.24756 34 31.3501 -0.382094 10.0085 78.3936
11171073 5.86632 7.29361 34 31.2332 -0.427164 9.96387 78.3932
11171090 5.91917 7.37649 34 31.1845 -0.432642 9.91757 78.4802
11171093 5.91917 7.37649 34 31.1845 -0.432642 9.91757 78.4802
11171103 5.92798 7.487 34 31.1456 -0.412236 9.87721 78.5605
11171113 5.92798 7.487 34 31.1456 -0.412236 9.87721 78.5605
11171123 6.02487 7.47779 34 31.0481 -0.477061 9.84309 78.5508
11171136 6.14819 7.64355 34 30.9897 -0.480743 9.7481 78.7814
11171143 6.14819 7.64355 34 30.9897 -0.480743 9.7481 78.7814
11171158 6.1658 7.71723 34 30.8825 -0.49706 9.71227 78.7655
11171163 6.24508 7.84615 34 30.7169 -0.533579 9.63587 78.8081
11171173 6.24508 7.84615 34 30.7169 -0.533579 9.63587 78.8081
11171185 6.28031 7.96587 34 30.6292 -0.534137 9.58151 78.8754
11171194 6.28031 7.96587 34 30.6292 -0.534137 9.58151 78.8754
11171204 6.38601 8.03955 33.8622 30.4441 -0.560296 9.50329 78.7319
11171214 6.47409 8.18689 33.8031 30.298 -0.568908 9.41572 78.7621
11171226 6.47409 8.18689 33.8031 30.298 -0.568908 9.41572 78.7621
11171233 6.54456 8.16847 33.7638 30.1519 -0.632077 9.38638 78.6286
11171243 6.53575 8.26977 33.6948 30.2006 -0.559159 9.35629 78.7009
11171272 6.53575 8.26977 33.6948 30.2006 -0.559159 9.35629 78.7009
11171274 6.59741 8.36186 33.6259 30.0934 -0.561802 9.29606 78.6786
11171275 6.59741 8.36186 33.6259 30.0934 -0.561802 9.29606 78.6786
11171285 6.67668 8.43554 33.5275 29.9765 -0.569902 9.23317 78.6162
11171299 6.75596 8.43554 33.4488 29.8791 -0.601794 9.19576 78.5193
11171305 6.75596 8.43554 33.4488 29.8791 -0.601794 9.19576 78.5193
11171315 6.87927 8.57367 33.3799 29.7817 -0.605421 9.10301 78.6145
11171325 6.87927 8.67497 33.3208 29.7524 -0.563623 9.06534 78.6275
11171335 6.87927 8.67497 33.3208 29.7524 -0.563623 9.06534 78.6275
11171352 6.94974 8.72102 33.3011 29.7524 -0.564435 9.02824 78.7243
11171357 6.94974 8.72102 33.3011 29.7524 -0.564435 9.02824 78.7243
11171365 6.91451 8.67497 33.3109 29.7135 -0.584188 9.05087 78.6139
11171378 6.99378 8.79469 33.2519 29.6258 -0.580043 8.97893 78.6661
11171385 6.99378 8.79469 33.2519 29.6258 -0.580043 8.97893 78.6661
11171396 7.13472 8.84074 33.055 29.392 -0.62387 8.88869 78.4224
11171407 7.19637 8.98808 32.9369 29.314 -0.583643 8.80976 78.4354
11171416 7.19637 8.98808 32.9369 29.314 -0.583643 8.80976 78.4354
11171430 7.33731 9.1078 32.8384 29.1192 -0.621395 8.70745 78.4028
11171446 7.39016 9.15385 32.7597 29.0802 -0.611024 8.66809 78.3839
11171460 7.4342 9.24594 32.74 29.0413 -0.601256 8.62229 78.4614
11171466 7.4342 9.24594 32.74 29.0413 -0.601256 8.62229 78.4614
11171485 7.55751 9.27356 32.6514 28.9341 -0.638026 8.5609 78.4166
11171487 7.73368 9.44854 32.4644 28.749 -0.637962 8.4248 78.3956
11171498 7.73368 9.44854 32.4644 28.749 -0.637962 8.4248 78.3956
11171507 7.93627 9.63272 32.3167 28.5639 -0.655319 8.28143 78.4496
11171528 8.11244 9.80769 32.11 28.3398 -0.661902 8.14018 78.37
11171537 8.22694 9.97346 32.0313 28.1937 -0.666575 8.03782 78.4254
11171547 8.22694 9.97346 32.0313 28.1937 -0.666575 8.03782 78.4254
11171557 8.25337 9.97346 31.9427 28.106 -0.676 8.01436 78.2755
11171567 8.33264 10.0748 31.8935 28.0281 -0.677675 7.94996 78.3289
11171587 8.40311 10.1576 31.8246 27.9404 -0.679733 7.89094 78.3257
11171597 8.53523 10.1853 31.6671 27.8332 -0.697955 7.82013 78.2208
11171611 8.53523 10.1853 31.6671 27.8332 -0.697955 7.82013 78.2208
11171617 8.59689 10.2866 31.608 27.804 -0.675105 7.76454 78.2955
11171627 8.59689 10.2866 31.608 27.804 -0.675105 7.76454 78.2955
11171638 8.66736 10.3879 31.6277 27.6774 -0.711393 7.70477 78.3603
11171647 8.63212 10.3971 31.5292 27.6384 -0.679663 7.6995 78.1968
11171667 8.7114 10.3971 31.5292 27.7456 -0.66915 7.68652 78.3833
11171677 8.7114 10.3971 31.5292 27.7456 -0.66915 7.68652 78.3833
11171691 8.75544 10.4155 31.5194 27.6092 -0.718452 7.65477 78.2995
11171697 8.80829 10.4523 31.4111 27.5702 -0.701952 7.61498 78.2419
11171707 8.80829 10.4523 31.4111 27.5702 -0.701952 7.61498 78.2419
11171719 8.94922 10.5997 31.2241 27.4436 -0.680828 7.50201 78.2165
11171729 9.09896 10.701 31.0666 27.1805 -0.731629 7.38923 78.047
11171745 9.09896 10.701 31.0666 27.1805 -0.731629 7.38923 78.047
11171749 9.22228 10.8207 30.9386 27.1415 -0.703587 7.30332 78.1231
11171758 9.22228 10.8207 30.9386 27.1415 -0.703587 7.30332 78.1231
11171773 9.23109 10.8759 30.8599 27.1221 -0.670055 7.27533 78.089
11171778 9.26632 10.9036 30.7614 27.0734 -0.657277 7.24281 78.0047
11171807 9.38083 10.9772 30.6532 26.9857 -0.663827 7.16966 77.9969
11171809 9.55699 11.1062 30.4268 26.937 -0.621776 7.05536 78.0269
11171827 9.55699 11.1062 30.4268 26.937 -0.621776 7.05536 78.0269
11171828 9.70674 11.2075 30.2693 26.6544 -0.679 6.93932 77.8379
11171839 9.70674 11.2075 30.2693 26.6544 -0.679 6.93932 77.8379
11171854 9.97098 11.4009 29.8755 26.4596 -0.638947 6.74906 77.707
11171859 10.2969 11.6679 29.403 26.216 -0.585149 6.50668 77.5839
11171881 10.5788 11.9442 29.0388 26.0017 -0.538795 6.28857 77.5635
11171890 10.7373 12.1468 28.7533 25.8361 -0.48653 6.13861 77.4735
11171902 10.7373 12.1468 28.7533 25.8361 -0.48653 6.13861 77.4735
11171910 11.0368 12.3218 28.5663 25.6802 -0.515778 5.97022 77.6051
11171930 11.2394 12.552 28.3793 25.5244 -0.496264 5.81355 77.695
11171940 11.4155 12.6994 28.2021 25.3198 -0.51474 5.68164 77.6367
11171960 11.6974 12.948 27.8871 25.1444 -0.480226 5.48157 77.6769
11171975 11.9881 13.3624 27.4933 24.7255 -0.44912 5.19568 77.5693
11171981 11.9881 13.3624 27.4933 24.7255 -0.44912 5.19568 77.5693
11171991 12.3756 13.7031 27.0208 24.2092 -0.47995 4.88002 77.3088
11172011 12.7632 14.0531 26.568 23.7708 -0.488429 4.57309 77.1551
11172022 13.1155 14.3754 26.2038 23.3032 -0.532745 4.28895 76.9979
11172031 13.1155 14.3754 26.2038 23.3032 -0.532745 4.28895 76.9979
11172044 13.4326 14.799 25.8002 22.9719 -0.474629 4.0012 77.0038
11172051 13.8642 15.2042 25.3277 22.4653 -0.495186 3.65422 76.8615
11172074 13.8642 15.2042 25.3277 22.4653 -0.495186 3.65422 76.8615
11172077 14.2782 15.7199 24.934 22.0367 -0.472794 3.30767 76.9688
11172081 14.2782 15.7199 24.934 22.0367 -0.472794 3.30767 76.9688
11172091 14.7098 16.162 24.4517 21.5496 -0.471543 2.95215 76.873
11172105 15.0622 16.558 24.0481 21.2281 -0.430514 2.66385 76.8963
11172111 15.0622 16.558 24.0481 21.2281 -0.430514 2.66385 76.8963
11172121 15.5026 16.9263 23.4968 20.7897 -0.418232 2.31849 76.7154
11172131 15.8461 17.4182 23.2113 20.361 -0.415896 2.01233 76.8367
11172142 15.8461 17.4182 23.2113 20.361 -0.415896 2.01233 76.8367
11172152 16.2249 17.8461 22.7487 19.9226 -0.392491 1.68102 76.7423
11172162 16.2249 17.8461 22.7487 19.9226 -0.392491 1.68102 76.7423
11172176 16.5508 18.2546 22.414 19.494 -0.396356 1.3888 76.7133
11172182 17.0199 18.7019 21.9514 19.0653 -0.392246 1.03497 76.7386
11172192 17.0199 18.7019 21.9514 19.0653 -0.392246 1.03497 76.7386
11172203 17.3986 19.2077 21.4198 18.6172 -0.324079 0.671436 76.6433
11172212 17.7872 19.6356 20.9572 18.1691 -0.306906 0.333787 76.549
11172232 18.2057 20.0635 20.5536 17.7209 -0.31841 0.0010246 76.5437
11172253 18.6143 20.4914 20.0417 17.2923 -0.285293 -0.34768 76.4397
11172267 18.9132 20.8513 19.6676 17 -0.23865 -0.607769 76.4321
11172273 18.9132 20.8513 19.6676 17 -0.23865 -0.607769 76.4321
11172294 19.272 21.1625 19.2345 16.6478 -0.228062 -0.894716 76.3168
11172295 19.5012 21.5418 18.9786 16.3242 -0.200991 -1.1278 76.3457
11172304 19.5012 21.5418 18.9786 16.3242 -0.200991 -1.1278 76.3457
11172313 19.7902 21.853 18.6144 16.1719 -0.124185 -1.34573 76.4294
11172323 19.7902 21.853 18.6144 16.1719 -0.124185 -1.34573 76.4294
11172336 20.0692 22.0961 18.4569 15.953 -0.155714 -1.51918 76.5751
11172343 20.3581 22.4462 18.1025 15.7436 -0.08834 -1.75309 76.6504
11172365 20.5873 22.7477 17.8859 15.5056 -0.0716686 -1.94395 76.7266
11172375 20.8464 22.9714 17.6103 15.2676 -0.0709608 -2.1396 76.6958
11172395 21.0856 23.1854 17.3445 15.1249 -0.0390589 -2.30678 76.7403
11172405 21.245 23.3799 17.128 14.9535 -0.0129059 -2.45287 76.7064
11172431 21.5141 23.623 16.896 14.7156 -0.0233009 -2.64346 76.7487
11172440 21.5141 23.623 16.896 14.7156 -0.0233009 -2.64346 76.7487
11172448 21.7931 23.7883 16.5841 14.5252 -0.0207499 -2.83061 76.6907
11172456 21.9924 24.0217 16.3242 14.2587 -0.0117883 -3.02191 76.597
11172467 21.9924 24.0217 16.3242 14.2587 -0.0117883 -3.02191 76.597
11172476 22.2814 24.2162 16.137 14.0398 -0.0529408 -3.19289 76.6744
11172489 22.371 24.401 15.8563 13.9636 0.0448227 -3.31997 76.5919
11172497 22.371 24.401 15.8563 13.9636 0.0448227 -3.31997 76.5919
11172511 22.6401 24.508 15.8147 13.8684 -0.0254899 -3.40975 76.8312
11172517 22.6401 24.508 15.8147 13.8684 -0.0254899 -3.40975 76.8312
11172527 22.7995 24.6539 15.5547 13.7447 0.0144273 -3.54788 76.7528
11172539 22.9789 24.8484 15.3676 13.5638 0.0214159 -3.69259 76.7587
11172547 22.9789 24.8484 15.3676 13.5638 0.0214159 -3.69259 76.7587
11172560 23.2081 25.004 15.1076 13.4306 0.0387102 -3.84504 76.7503
11172567 23.4871 25.2471 14.8893 13.1926 0.0206143 -4.03281 76.8162
11172579 23.4871 25.2471 14.8893 13.1926 0.0206143 -4.03281 76.8162
11172587 23.7661 25.4222 14.4838 12.9927 0.0538081 -4.24806 76.6648
11172601 23.7661 25.4222 14.4838 12.9927 0.0538081 -4.24806 76.6648
11172607 23.9754 25.6848 14.2862 12.6881 0.0363052 -4.44039 76.6345
11172618 24.1647 25.8307 14.0367 12.4787 0.035283 -4.60326 76.5108
11172627 24.1647 25.8307 14.0367 12.4787 0.035283 -4.60326 76.5108
11172637 24.3441 26.0641 13.6936 12.3645 0.127807 -4.77663 76.4662
11172657 24.5035 26.2197 13.5688 12.1265 0.0896037 -4.91265 76.4185
11172668 24.7128 26.4531 13.444 12.0314 0.106868 -5.02806 76.6413
11172677 24.7128 26.4531 13.444 12.0314 0.106868 -5.02806 76.6413
11172690 24.9519 26.6379 13.1945 11.8791 0.120819 -5.18819 76.6634
11172697 25.221 26.9588 12.9657 11.6601 0.140682 -5.38123 76.8057
11172707 25.221 26.9588 12.9657 11.6601 0.140682 -5.38123 76.8057
11172725 25.4801 27.1144 12.7578 11.4317 0.100359 -5.54901 76.784
11172727 25.4801 27.1144 12.7578 11.4317 0.100359 -5.54901 76.784
11172737 25.5698 27.2797 12.5394 11.3175 0.159052 -5.66952 76.7064
11172756 25.6893 27.377 12.4251 11.1747 0.142598 -5.76524 76.6661
11172759 25.6893 27.377 12.4251 11.1747 0.142598 -5.76524 76.6661
11172769 25.779 27.4645 12.2483 11.0605 0.162524 -5.86555 76.5523
11172788 25.7989 27.484 12.1963 11.0319 0.170115 -5.89221 76.5112
11172791 25.7989 27.484 12.1963 11.0319 0.170115 -5.89221 76.5112
11172800 25.7989 27.5326 12.1963 11.0129 0.179714 -5.9032 76.5408
11172821 25.7192 27.5521 12.1651 11.1271 0.259522 -5.87337 76.5635
11172823 25.7192 27.5521 12.1651 11.1271 0.259522 -5.87337 76.5635
11172830 25.7591 27.5618 12.1651 11.1652 0.261813 -5.8689 76.6512
11172853 25.7591 27.5618 12.1651 11.1652 0.261813 -5.8689 76.6512
11172855 25.6993 27.4256 12.2275 11.1271 0.204599 -5.83887 76.4795
11172860 25.5698 27.4645 12.4043 11.308 0.260091 -5.73095 76.7465
11172880 25.4701 27.3673 12.5394 11.4317 0.256941 -5.63731 76.8085
11172890 25.3107 27.2603 12.6746 11.6125 0.288698 -5.52 76.8581
11172906 25.3107 27.2603 12.6746 11.6125 0.288698 -5.52 76.8581
11172911 25.1512 27.1922 12.9242 11.7744 0.28919 -5.38244 77.042
11172921 25.1512 27.1922 12.9242 11.7744 0.28919 -5.38244 77.042
11172931 24.9021 27.0172 13.1321 11.9552 0.304568 -5.22656 77.0066
11172941 24.8124 26.9588 13.2153 12.098 0.33375 -5.1485 77.0845
11172961 24.6829 26.8518 13.3609 12.2503 0.342977 -5.0405 77.1459
11172975 24.4936 26.7157 13.4336 12.3169 0.359082 -4.96208 76.9598
11172981 24.4936 26.7157 13.4336 12.3169 0.359082 -4.96208 76.9598
11172991 24.4039 26.6087 13.548 12.4692 0.365448 -4.86734 77.0298
11173002 24.4039 26.6087 13.548 12.4692 0.365448 -4.86734 77.0298
11173012 24.1249 26.4336 13.6624 12.631 0.415546 -4.73607 76.8519
11173022 23.9555 26.2391 13.8391 12.6691 0.362968 -4.6321 76.7028
11173032 23.9555 26.2391 13.8391 12.6691 0.362968 -4.6321 76.7028
11173044 23.8259 26.1127 13.9535 12.9166 0.406805 -4.50506 76.8087
11173052 23.6366 26.0446 14.0887 13.0213 0.436455 -4.40895 76.7912
11173081 23.5369 26.0154 14.2343 13.1545 0.454503 -4.32088 76.9412
11173082 23.5369 26.0154 14.2343 13.1545 0.454503 -4.32088 76.9412
11173093 23.507 26.0349 14.3174 13.2212 0.464317 -4.28189 77.0805
11173104 23.517 26.0835 14.3174 13.2116 0.473469 -4.29241 77.1296
11173115 23.517 26.0835 14.3174 13.2116 0.473469 -4.29241 77.1296
11173123 23.5569 26.2002 14.2654 13.1641 0.499433 -4.33902 77.1866
11173136 23.517 26.1711 14.1927 13.1545 0.524414 -4.35012 77.0352
11173143 23.517 26.1711 14.1927 13.1545 0.524414 -4.35012 77.0352
11173153 23.4971 26.1127 14.1927 13.1355 0.506404 -4.34408 76.9379
11173163 23.4971 26.1127 14.1927 13.1355 0.506404 -4.34408 76.9379
11173175 23.2978 26.0446 14.1615 13.0594 0.537053 -4.33398 76.5632
11173183 23.2081 25.9182 14.1927 13.145 0.543544 -4.27429 76.464
11173195 23.2081 25.9182 14.1927 13.145 0.543544 -4.27429 76.464
11173205 23.0487 25.8015 14.2758 13.2688 0.571293 -4.18331 76.3947
11173215 22.959 25.6848 14.4734 13.4686 0.56181 -4.05461 76.5858
11173226 22.959 25.6848 14.4734 13.4686 0.56181 -4.05461 76.5858
11173235 22.8095 25.5778 14.6813 13.6209 0.556761 -3.9285 76.6896
11173248 22.6002 25.5778 14.9725 13.6209 0.529507 -3.82654 76.7715
11173255 22.6002 25.4027 14.9725 13.8684 0.552568 -3.74046 76.8439
11173265 22.4906 25.286 15.17 14.0873 0.555834 -3.60606 77.034
11173277 22.4906 25.286 15.17 14.0873 0.555834 -3.60606 77.034
11173285 22.391 25.2763 15.3572 14.2396 0.571999 -3.50819 77.2641
11173299 22.4209 25.2277 15.378 14.2682 0.548884 -3.49358 77.2947
11173307 22.4209 25.2277 15.378 14.2682 0.548884 -3.49358 77.2947
11173321 22.4707 25.2277 15.3572 14.2587 0.536284 -3.50825 77.3142
11173326 22.4508 25.1888 15.2844 14.1159 0.509322 -3.55126 77.0399
11173336 22.4508 25.1888 15.2844 14.1159 0.509322 -3.55126 77.0399
11173346 22.5504 25.2763 15.0557 13.9255 0.519407 -3.68039 76.8079
11173356 22.5504 25.2763 15.0557 13.9255 0.519407 -3.68039 76.8079
11173367 22.66 25.3152 14.8581 13.7256 0.49724 -3.79932 76.559
11173376 22.7796 25.4027 14.8061 13.6495 0.478393 -3.86102 76.638
11173390 22.7796 25.4027 14.8061 13.6495 0.478393 -3.86102 76.638
11173397 22.8294 25.5292 14.7125 13.4306 0.463319 -3.96373 76.5017
11173407 22.9191 25.6167 14.5982 13.4211 0.496534 -4.01997 76.555
11173417 22.9191 25.6167 14.5982 13.4211 0.496534 -4.01997 76.555
11173427 23.0287 25.7237 14.5982 13.3735 0.479075 -4.06276 76.724
11173441 23.0287 25.7237 14.5982 13.3735 0.479075 -4.06276 76.724
11173447 23.0387 25.6653 14.5878 13.4686 0.490984 -4.03481 76.7604
11173457 22.9889 25.6945 14.7437 13.4782 0.468135 -3.99091 76.9053
11173469 22.9889 25.6945 14.7437 13.4782 0.468135 -3.99091 76.9053
11173477 23.0188 25.6167 14.7957 13.5543 0.44052 -3.95245 76.9855
11173493 22.939 25.4903 14.9309 13.6019 0.39703 -3.87785 76.9621
11173497 22.939 25.4903 14.9309 13.6019 0.39703 -3.87785 76.9621
11173507 22.8593 25.4805 15.0037 13.6305 0.405338 -3.84008 76.974
11173518 22.8593 25.4805 15.0037 13.6305 0.405338 -3.84008 76.974
11173527 22.7397 25.3444 15.1076 13.6495 0.373009 -3.77278 76.8413
11173545 22.68 25.1304 15.2324 13.7542 0.316507 -3.67666 76.797
11173547 22.68 25.1304 15.2324 13.7542 0.316507 -3.67666 76.797
11173557 22.5604 25.004 15.3988 13.8113 0.278792 -3.58602 76.7745
11173570 22.4906 24.9067 15.4716 13.9446 0.289384 -3.51134 76.8135
