12638928 4.1399 3.17714 34 34 -0.319567 12.0855 75.317
12638935 4.1399 3.17714 34 34 -0.319567 12.0855 75.317
12638945 4.17513 3.17714 34 34 -0.331107 12.0728 75.3523
12638965 4.1399 3.13109 34 34 -0.335056 12.1021 75.271
12638975 4.06943 3.13109 34 34 -0.311944 12.1275 75.2005
12638986 4.06943 3.13109 34 34 -0.311944 12.1275 75.2005
12638995 4.01658 3.14951 34 34 -0.288384 12.1399 75.1661
12639005 3.99016 3.25081 34 34 -0.245658 12.1129 75.241
12639015 3.99016 3.25081 34 34 -0.245658 12.1129 75.241
12639026 3.99896 3.26002 34 34 -0.245467 12.1064 75.259
12639036 3.99896 3.26002 34 34 -0.245467 12.1064 75.259
12639046 4.08705 3.21398 34 34 -0.28986 12.0913 75.301
12639060 4.07824 3.27844 34 34 -0.265338 12.0713 75.3567
12639066 4.07824 3.27844 34 34 -0.265338 12.0713 75.3567
12639076 4.08705 3.31528 34 34 -0.255883 12.0549 75.4023
12639087 4.18394 3.39816 34 34 -0.259908 11.9905 75.5821
12639097 4.18394 3.39816 34 34 -0.259908 11.9905 75.5821
12639106 4.28083 3.38895 34 34 -0.29466 11.9592 75.6698
12639126 4.39534 3.39816 34 34 -0.328912 11.9152 75.7935
12639139 4.50984 3.5455 34 34 -0.316983 11.8226 76.0553
12639149 4.50984 3.5455 34 34 -0.316983 11.8226 76.0553
12639157 4.6772 3.59155 34 34 -0.355865 11.7475 76.2688
12639169 4.87098 3.66522 34 34 -0.393854 11.6541 76.5362
12639180 4.87098 3.66522 34 34 -0.393854 11.6541 76.5362
12639187 5.04715 3.78494 34 34 -0.410706 11.5514 76.8321
12639197 5.25855 4.00596 34 34 -0.405294 11.4028 77.2645
12639209 5.25855 4.00596 34 34 -0.405294 11.4028 77.2645
12639219 5.44352 4.42958 34 34 -0.325513 11.1965 77.8731
12639229 5.44352 4.42958 34 34 -0.325513 11.1965 77.8731
12639239 5.76943 4.78873 34 34 -0.312093 10.968 78.5582
12639249 6.1658 5.33207 34 34 -0.262187 10.6611 79.4979
12639271 6.47409 5.83857 34 34 -0.197829 10.4007 80.3127
12639279 6.67668 6.31744 34 34 -0.110884 10.187 80.9941
12639290 6.67668 6.31744 34 34 -0.110884 10.187 80.9941
12639300 6.80881 6.75948 34 34 -0.0151202 10.0097 81.5683
12639322 7.0114 7.23835 34 34 0.0689834 9.8025 82.2498
12639333 7.36373 7.8922 34 33.5324 0.0183761 9.47171 82.7883
12639352 7.70725 8.6013 34 32.8602 -0.0738829 9.1173 83.1687
12639360 8.15648 9.28277 34 32.2562 -0.184463 8.74903 83.6954
12639371 8.15648 9.28277 34 32.2562 -0.184463 8.74903 83.6954
12639380 8.61451 10.1484 33.8917 31.545 -0.241335 8.31484 84.1996
12639390 8.61451 10.1484 33.8917 31.545 -0.241335 8.31484 84.1996
12639401 8.99326 10.8299 33.3799 30.9117 -0.187679 7.92996 84.1148
12639411 9.51295 11.6863 32.8483 30.1616 -0.152385 7.44763 84.2092
12639431 10.0062 12.5796 32.1691 29.3725 -0.0663206 6.94584 84.1274
12639441 10.5964 13.4177 31.3816 28.6029 0.012666 6.4234 83.9985
12639461 11.1953 14.403 30.3677 27.6092 0.134364 5.81126 83.5752
12639474 11.1953 14.403 30.3677 27.6092 0.134364 5.81126 83.5752
12639482 11.9176 15.5081 29.3341 26.6155 0.261429 5.1317 83.3753
12639496 12.6663 16.5672 28.3497 25.6802 0.369713 4.46711 83.2635
12639512 13.4238 17.6322 27.1685 24.7255 0.532043 3.76818 82.95
12639523 14.3223 18.8186 26.1054 23.8195 0.665277 3.03084 83.0658
12639542 15.1679 19.9662 24.9832 22.8063 0.790325 2.28922 82.9236
12639552 15.8109 20.9971 23.9693 21.8223 0.919884 1.63142 82.5997
12639575 16.6212 22.0961 23.0243 20.9066 1.01549 0.946219 82.6483
12639585 16.6212 22.0961 23.0243 20.9066 1.01549 0.946219 82.6483
12639594 17.558 23.0589 22.04 19.9421 1.03 0.247904 82.599
12639605 18.405 23.9537 21.1048 19.2407 1.11376 -0.365134 82.7042
12639626 18.993 24.508 20.3862 18.7146 1.16324 -0.799041 82.6018
12639634 19.5709 25.0624 19.7956 18.2665 1.19786 -1.19194 82.6954
12639646 19.5709 25.0624 19.7956 18.2665 1.19786 -1.19194 82.6954
12639654 20.1987 25.6751 19.3625 17.7696 1.16964 -1.57971 83.0059
12639664 20.1987 25.6751 19.3625 17.7696 1.16964 -1.57971 83.0059
12639674 20.7767 26.278 18.7522 17.1364 1.17116 -2.01936 82.9433
12639683 21.5041 27.0269 18.0041 16.4574 1.19775 -2.54291 82.9925
12639693 21.5041 27.0269 18.0041 16.4574 1.19775 -2.54291 82.9925
12639705 22.092 27.7271 17.3347 15.7055 1.20864 -3.03749 82.8593
12639714 22.6401 28.2134 16.7609 15.0868 1.17871 -3.4472 82.7011
12639724 22.6401 28.2134 16.7609 15.0868 1.17871 -3.4472 82.7011
12639734 22.9689 28.3106 16.1058 14.7727 1.21978 -3.72473 82.1581
12639745 22.9689 28.3106 16.1058 14.7727 1.21978 -3.72473 82.1581
12639755 23.1882 28.4954 15.6691 14.6204 1.29876 -3.91484 81.9731
12639765 23.3576 28.6705 15.4924 14.668 1.36532 -3.99102 82.1884
12639776 23.3576 28.6705 15.4924 14.668 1.36532 -3.99102 82.1884
12639795 23.6465 28.8942 15.378 14.6204 1.35997 -4.09667 82.5391
12639798 23.9455 29.1178 15.3052 14.5252 1.3247 -4.20411 82.8937
12639815 24.2743 29.4291 15.1804 14.2587 1.27281 -4.3776 83.1425
12639825 24.2743 29.4291 15.1804 14.2587 1.27281 -4.3776 83.1425
12639836 24.5035 29.6041 14.9725 14.0969 1.26988 -4.51536 83.177
12639845 24.7028 29.7986 14.9205 13.9731 1.24362 -4.606 83.3951
12639855 24.7028 29.7986 14.9205 13.9731 1.24362 -4.606 83.3951
12639865 24.8224 29.9542 14.7333 13.8684 1.27938 -4.70893 83.3784
12639876 24.8224 29.9542 14.7333 13.8684 1.27938 -4.70893 83.3784
12639885 24.8224 30.0418 14.5462 13.7256 1.32278 -4.79798 83.136
12639897 24.9719 30.1585 14.4526 13.6019 1.30309 -4.88235 83.1848
12639918 24.9519 30.1682 14.4318 13.4782 1.28345 -4.91571 83.0301
12639926 24.9519 30.2071 14.4006 13.4591 1.29901 -4.93249 83.0188
12639937 24.9519 30.2071 14.4006 13.4591 1.29901 -4.93249 83.0188
12639946 25.0615 30.3141 14.4214 13.3544 1.25841 -4.97883 83.1515
12639957 25.1612 30.5086 14.359 13.1736 1.25054 -5.07267 83.2024
12639974 25.1612 30.5086 14.359 13.1736 1.25054 -5.07267 83.2024
12639978 25.3705 30.6545 14.3174 13.0022 1.19048 -5.16625 83.3446
12639987 25.3705 30.6545 14.3174 13.0022 1.19048 -5.16625 83.3446
12639999 25.49 30.7614 14.1927 12.8214 1.17099 -5.26702 83.2655
12640007 25.6196 30.8781 14.1303 12.7262 1.15606 -5.33409 83.3542
12640020 25.6196 30.8781 14.1303 12.7262 1.15606 -5.33409 83.3542
12640027 25.6694 30.9365 14.1095 12.6405 1.13913 -5.3726 83.3559
12640040 25.7491 30.8879 14.1719 12.5739 1.06161 -5.37723 83.3828
12640061 25.8388 30.8879 14.1407 12.5073 1.0242 -5.41149 83.3746
12640069 25.8388 30.8879 14.1407 12.5073 1.0242 -5.41149 83.3746
12640079 25.8488 30.849 14.0887 12.3169 0.971207 -5.46768 83.1033
12640089 25.9783 30.8101 14.0367 12.3074 0.932986 -5.49321 83.1325
12640103 25.9783 30.8101 14.0367 12.3074 0.932986 -5.49321 83.1325
12640121 26.2274 30.8684 13.9847 12.0789 0.822282 -5.59747 83.1595
12640139 26.3968 30.8587 13.9951 11.9838 0.736028 -5.63649 83.2344
12640160 26.4865 30.8684 13.9119 11.8791 0.7063 -5.69432 83.1459
12640172 26.636 30.8879 13.8391 11.86 0.682732 -5.73604 83.223
12640194 26.7755 30.9657 13.8807 11.8029 0.633013 -5.76403 83.4248
12640200 26.915 30.9754 13.9535 11.6221 0.517857 -5.80743 83.466
12640220 27.1043 31.0046 13.8183 11.5459 0.487521 -5.88416 83.4732
12640231 27.1542 30.9754 13.8807 11.3651 0.391471 -5.91609 83.3754
12640241 27.1542 30.9754 13.8807 11.3651 0.391471 -5.91609 83.3754
12640251 27.2538 30.9754 13.756 11.3555 0.396314 -5.96066 83.3407
12640262 27.2538 30.9754 13.756 11.3555 0.396314 -5.96066 83.3407
12640271 27.3535 30.9754 13.7144 11.2032 0.333595 -6.0203 83.2465
12640281 27.5826 31.0435 13.652 11.0985 0.272074 -6.09444 83.3767
12640292 27.5826 31.0435 13.652 11.0985 0.272074 -6.09444 83.3767
12640302 27.7819 31.0629 13.5584 10.9462 0.200608 -6.18004 83.3495
12640311 27.7819 31.0629 13.5584 10.9462 0.200608 -6.18004 83.3495
12640323 27.9215 31.0727 13.4232 10.7749 0.151119 -6.27389 83.1923
12640331 28.1208 31.1602 13.4232 10.7083 0.0972509 -6.32089 83.4125
12640345 28.1208 31.1602 13.4232 10.7083 0.0972509 -6.32089 83.4125
12640351 28.2104 31.1018 13.3089 10.4894 0.0216216 -6.40967 83.1105
12640361 28.4297 31.2088 13.2465 10.3085 -0.0477269 -6.50595 83.1935
12640371 28.4297 31.2088 13.2465 10.3085 -0.0477269 -6.50595 83.1935
12640381 28.5991 31.2963 13.2049 10.1848 -0.0969097 -6.57484 83.2851
12640401 28.6788 31.2963 13.1009 10.0991 -0.115496 -6.63211 83.1751
12640412 28.7286 31.2866 13.0905 9.98488 -0.16477 -6.66859 83.0906
12640421 28.7286 31.2866 13.0905 9.98488 -0.16477 -6.66859 83.0906
12640433 28.8183 31.2866 13.1113 9.91825 -0.217941 -6.68952 83.1345
12640441 28.7685 31.2574 13.1737 9.88018 -0.242102 -6.67527 83.0798
12640454 28.7685 31.2574 13.1737 9.88018 -0.242102 -6.67527 83.0798
12640462 28.8183 31.1699 13.2049 9.87066 -0.29574 -6.66584 83.0638
12640476 28.8183 31.1699 13.2049 9.87066 -0.29574 -6.66584 83.0638
12640482 28.7984 31.1407 13.2777 9.95633 -0.294258 -6.61964 83.1731
12640492 28.7585 31.0532 13.3817 10.0515 -0.310962 -6.5551 83.2449
12640502 28.7585 31.0532 13.3817 10.0515 -0.310962 -6.5551 83.2449
12640512 28.7585 31.0046 13.4336 10.023 -0.349858 -6.54409 83.2197
12640524 28.7186 30.9073 13.6624 10.1657 -0.391823 -6.43429 83.4541
12640544 28.6389 30.8101 13.6624 10.2609 -0.368923 -6.39164 83.3723
12640554 28.5891 30.8101 13.9119 10.2609 -0.427787 -6.32263 83.572
12640564 28.5891 30.7809 13.9119 10.3751 -0.401935 -6.29049 83.6571
12640574 28.4994 30.6836 14.0055 10.4132 -0.421061 -6.23749 83.6018
12640602 28.3798 30.5767 14.0575 10.4703 -0.416349 -6.18596 83.4843
12640609 28.2902 30.4697 14.3174 10.6131 -0.45549 -6.0633 83.6904
12640624 28.1506 30.3433 14.4422 10.6321 -0.483875 -5.99861 83.5682
12640634 28.1506 30.3433 14.4422 10.6321 -0.483875 -5.99861 83.5682
12640645 28.051 30.2071 14.5358 10.6797 -0.509128 -5.93767 83.4736
12640653 27.8916 29.9931 14.6294 10.7559 -0.531976 -5.85436 83.2699
12640664 27.8916 29.9931 14.6294 10.7559 -0.531976 -5.85436 83.2699
12640674 27.772 29.8764 14.7333 10.9082 -0.51648 -5.76425 83.2899
12640684 27.6424 29.8667 14.7853 10.9367 -0.487894 -5.7287 83.2312
12640693 27.6424 29.8667 14.7853 10.9367 -0.487894 -5.7287 83.2312
12640705 27.5528 29.7986 14.9205 11.07 -0.48134 -5.64438 83.3419
12640725 27.4132 29.7111 15.0453 11.1842 -0.468843 -5.55971 83.3538
12640735 27.3435 29.7208 15.1076 11.2984 -0.42886 -5.50942 83.4704
12640746 27.3435 29.7208 15.1076 11.2984 -0.42886 -5.50942 83.4704
12640757 27.1741 29.7111 15.2116 11.4507 -0.366224 -5.42616 83.5475
12640769 27.0744 29.5944 15.2844 11.4888 -0.382194 -5.3742 83.442
12640776 27.0744 29.5944 15.2844 11.4888 -0.382194 -5.3742 83.442
12640788 26.9449 29.468 15.4612 11.6697 -0.379574 -5.2575 83.5437
12640796 26.7954 29.3707 15.5547 11.7934 -0.355051 -5.176 83.5143
12640812 26.7954 29.3707 15.5547 11.7934 -0.355051 -5.176 83.5143
12640816 26.7655 29.3513 15.6795 11.8981 -0.35716 -5.11489 83.6944
12640837 26.5264 29.2054 15.7627 12.0218 -0.317858 -5.01948 83.5163
12640847 26.3171 29.0984 15.7731 12.1741 -0.245215 -4.94255 83.3627
12640857 26.3171 29.0984 15.7731 12.1741 -0.245215 -4.94255 83.3627
12640867 26.0879 29.0206 15.9394 12.2979 -0.212643 -4.83609 83.3458
12640877 25.8288 28.9331 16.1786 12.4502 -0.187129 -4.70073 83.3907
12640887 25.8288 28.9331 16.1786 12.4502 -0.187129 -4.70073 83.3907
12640897 25.7093 28.7483 16.2722 12.6976 -0.160471 -4.58262 83.4274
12640907 25.7093 28.7483 16.2722 12.6976 -0.160471 -4.58262 83.4274
12640917 25.5498 28.6899 16.4697 12.8214 -0.15211 -4.48014 83.5309
12640927 25.4302 28.6802 16.6049 12.9737 -0.113888 -4.39697 83.689
12640937 25.4302 28.6802 16.6049 12.9737 -0.113888 -4.39697 83.689
12640947 25.3007 28.7094 16.6049 13.0308 -0.0494391 -4.371 83.6458
12640957 25.2907 28.6608 16.5737 13.0784 -0.037466 -4.35975 83.6036
12640969 25.2907 28.6608 16.5737 13.0784 -0.037466 -4.35975 83.6036
12640978 25.211 28.6997 16.5841 13.1545 0.0176579 -4.33453 83.6493
12640988 25.211 28.6997 16.5841 13.1545 0.0176579 -4.33453 83.6493
12640998 25.1313 28.7677 16.5321 13.2212 0.0972718 -4.32966 83.6523
12641008 25.0715 28.7775 16.4385 13.2307 0.149098 -4.34272 83.5182
12641018 25.0715 28.7775 16.4385 13.2307 0.149098 -4.34272 83.5182
12641029 24.922 28.7775 16.293 13.1926 0.226921 -4.36627 83.1851
12641039 24.8623 28.7775 16.3138 13.2878 0.267068 -4.33165 83.2413
12641059 24.7825 28.7775 16.3761 13.4496 0.320315 -4.26948 83.3857
12641071 24.7825 28.7775 16.3761 13.4496 0.320315 -4.26948 83.3857
12641083 24.5135 28.583 16.5217 13.4782 0.308654 -4.16924 83.0963
12641090 24.2743 28.3593 16.6361 13.7447 0.359437 -4.0209 83.0144
12641104 24.2743 28.3593 16.6361 13.7447 0.359437 -4.0209 83.0144
12641110 24.0352 28.1356 16.9064 14.0398 0.371087 -3.83037 83.1169
12641120 23.8259 27.9508 17.1673 14.2968 0.37671 -3.66033 83.2408
12641130 23.8259 27.9508 17.1673 14.2968 0.37671 -3.66033 83.2408
12641141 23.6465 27.8049 17.4922 14.6394 0.390512 -3.46719 83.5831
12641151 23.3576 27.6299 17.758 14.9916 0.449604 -3.26699 83.737
12641161 23.3576 27.6299 17.758 14.9916 0.449604 -3.26699 83.737
12641174 22.949 27.4062 18.0926 15.3247 0.504127 -3.03282 83.7726
12641195 22.5305 27.1144 18.3683 15.6198 0.548673 -2.80813 83.633
12641201 22.1618 26.8129 18.7817 15.9815 0.55261 -2.54571 83.7379
12641218 22.1618 26.8129 18.7817 15.9815 0.55261 -2.54571 83.7379
12641226 21.7632 26.4531 19.1558 16.2671 0.538391 -2.2944 83.6391
12641235 21.4842 26.0641 19.6283 16.6193 0.468668 -2.02291 83.7958
12641254 21.4842 26.0641 19.6283 16.6193 0.468668 -2.02291 83.7958
12641257 21.0657 25.6751 19.9531 17.0097 0.497606 -1.75223 83.7035
12641265 21.0657 25.6751 19.9531 17.0097 0.497606 -1.75223 83.7035
12641272 20.697 25.3152 20.3173 17.2825 0.473458 -1.50917 83.612
12641288 20.3581 24.9651 20.7307 17.6917 0.468051 -1.23603 83.7457
12641292 20.3581 24.9651 20.7307 17.6917 0.468051 -1.23603 83.7457
12641302 20.0492 24.5664 21.0457 17.9742 0.43211 -1.00358 83.6356
12641313 19.7204 24.1676 21.4296 18.2762 0.38693 -0.750443 83.5939
12641322 19.7204 24.1676 21.4296 18.2762 0.38693 -0.750443 83.5939
12641337 19.4314 23.7008 21.8332 18.8413 0.381055 -0.43989 83.8067
12641344 19.4314 23.7008 21.8332 18.8413 0.381055 -0.43989 83.8067
12641354 19.0926 23.1854 22.2664 19.2894 0.332737 -0.129223 83.8337
12641364 18.7538 22.417 22.7684 20.1077 0.298223 0.304341 84.047
12641374 18.7538 22.417 22.7684 20.1077 0.298223 0.304341 84.047
12641384 18.3353 21.7946 23.2409 20.9066 0.333732 0.715061 84.2774
12641394 17.8869 21.2305 23.5854 21.4424 0.356728 1.05361 84.1452
12641405 17.8869 21.2305 23.5854 21.4424 0.356728 1.05361 84.1452
12641414 17.4185 20.8221 24.0087 21.9003 0.384778 1.36692 84.1496
12641426 17.4185 20.8221 24.0087 21.9003 0.384778 1.36692 84.1496
12641434 17.0299 20.4039 24.4418 22.0562 0.294393 1.61992 83.9317
12641444 16.6477 19.976 24.7076 22.2997 0.27515 1.86241 83.6309
12641454 16.6477 19.976 24.7076 22.2997 0.27515 1.86241 83.6309
12641464 16.3218 19.5772 25.0718 22.4946 0.203145 2.0968 83.4653
12641474 15.9166 19.0521 25.564 22.9135 0.145292 2.4283 83.4461
12641486 15.9166 19.0521 25.564 22.9135 0.145292 2.4283 83.4461
12641494 15.4938 18.4685 26.066 23.5077 0.124642 2.80324 83.5361
12641504 15.4938 18.4685 26.066 23.5077 0.124642 2.80324 83.5361
12641514 14.9917 17.8267 26.6369 24.1897 0.115874 3.22941 83.645
12641524 14.428 17.107 27.3949 25.0373 0.0956744 3.7331 83.9671
12641535 14.428 17.107 27.3949 25.0373 0.0956744 3.7331 83.9671
12641545 13.8114 16.4475 28.1726 25.9725 0.129136 4.24498 84.4039
12641555 13.0539 15.591 29.1274 27.0831 0.145197 4.87281 84.8554
12641575 12.1642 14.6885 30.1019 28.2911 0.209242 5.54988 85.2458
12641584 12.1642 14.6885 30.1019 28.2911 0.209242 5.54988 85.2458
12641596 11.2306 13.6939 31.2339 29.353 0.170279 6.25573 85.5114
12641605 10.4378 12.8283 32.0608 30.0252 0.103945 6.82231 85.3521
12641625 9.86528 12.1652 32.5431 30.5415 0.0876307 7.23505 85.1152
12641637 9.50414 11.6587 32.9763 30.8046 -0.00503212 7.5258 84.9437
12641657 9.25751 11.2904 33.2716 31.0189 -0.0647739 7.73399 84.8383
12641678 9.06373 10.9312 33.4881 31.1066 -0.151931 7.90873 84.5897
12641687 8.99326 10.8115 33.498 30.9312 -0.222152 7.94652 84.2339
12641699 8.99326 10.8115 33.498 30.9312 -0.222152 7.94652 84.2339
12641706 9.06373 10.9404 33.4684 30.6 -0.294912 7.86183 84.0726
12641716 9.32798 11.1154 33.4684 30.4149 -0.375366 7.72709 84.3267
12641726 9.32798 11.1154 33.4684 30.4149 -0.375366 7.72709 84.3267
12641736 9.4601 11.1062 33.4389 30.4344 -0.402199 7.69314 84.4396
12641757 9.50414 11.0141 33.5373 30.4928 -0.453757 7.71959 84.5484
12641767 9.44249 10.968 33.7933 30.6877 -0.465316 7.78708 84.8915
12641788 9.43368 10.7746 33.9508 30.8338 -0.522397 7.86705 84.9929
12641797 9.30155 10.5444 34 30.9117 -0.544311 7.97551 84.7577
12641809 9.30155 10.5444 34 30.9117 -0.544311 7.97551 84.7577
12641819 9.19586 10.4063 34 30.9507 -0.543699 8.04501 84.5529
12641842 9.05492 10.2221 34 31.0481 -0.529107 8.1419 84.3252
12641849 8.93161 10.0011 34 31.3209 -0.477609 8.25868 84.2536
12641859 8.93161 10.0011 34 31.3209 -0.477609 8.25868 84.2536
12641868 8.65855 9.65114 34 31.6327 -0.409432 8.45633 83.9424
12641878 8.40311 9.24594 34 31.9542 -0.359741 8.66685 83.6032
12641894 8.40311 9.24594 34 31.9542 -0.359741 8.66685 83.6032
12641899 8.15648 8.83153 34 32.4023 -0.276609 8.8885 83.3903
12641919 7.80414 8.3987 34 32.8797 -0.158213 9.14937 83.0825
12641934 7.42539 7.91983 34 33.3668 -0.0419527 9.43422 82.712
12641940 7.42539 7.91983 34 33.3668 -0.0419527 9.43422 82.712
12641950 7.06425 7.30282 34 33.9221 0.0488013 9.76223 82.2891
12641960 6.65026 6.71343 34 34 0.0194103 10.0726 81.3637
12641971 6.65026 6.71343 34 34 0.0194103 10.0726 81.3637
12641980 6.28031 6.25298 34 34 -0.00848621 10.3311 80.5333
12642000 5.87513 5.71885 34 34 -0.0490844 10.6301 79.594
12642012 5.58446 5.33207 34 34 -0.0799537 10.8501 78.9165
12642032 5.32021 4.9545 34 34 -0.116803 11.0621 78.2747
12642041 5.18808 4.77031 34 34 -0.133972 11.1678 77.9584
12642052 5.18808 4.77031 34 34 -0.133972 11.1678 77.9584
12642061 5.19689 4.63218 34 34 -0.181395 11.2113 77.8291
12642072 5.44352 4.57692 34 34 -0.277683 11.147 78.0204
12642082 5.44352 4.57692 34 34 -0.277683 11.147 78.0204
12642094 5.87513 4.74269 34 34 -0.360109 10.9483 78.6178
12642102 5.87513 4.74269 34 34 -0.360109 10.9483 78.6178
12642115 6.30674 4.78873 34 34 -0.4798 10.7916 79.0955
12642123 6.65907 4.96371 34 34 -0.53231 10.6208 79.6228
12642132 6.65907 4.96371 34 34 -0.53231 10.6208 79.6228
12642142 6.86166 4.90845 34 34 -0.612137 10.5735 79.7701
12642156 7.10829 4.80715 34 34 -0.719865 10.527 79.9154
12642164 7.10829 4.80715 34 34 -0.719865 10.527 79.9154
12642175 7.49585 4.80715 34 34 -0.83705 10.4038 80.303
12642184 7.49585 4.80715 34 34 -0.83705 10.4038 80.303
12642196 7.85699 4.87161 34 34 -0.924511 10.2699 80.7286
12642204 8.45596 4.91766 34 34 -1.08705 10.0695 81.3736
12642216 8.45596 4.91766 34 34 -1.08705 10.0695 81.3736
12642224 8.86114 4.84399 34 34 -1.22916 9.96783 81.7051
12642236 9.12539 4.82557 34 34 -1.3117 9.89294 81.951
12642244 9.12539 4.82557 34 34 -1.3117 9.89294 81.951
12642255 9.40725 4.79794 34 34 -1.40177 9.81595 82.2052
12642263 9.40725 4.79794 34 34 -1.40177 9.81595 82.2052
12642276 9.47772 4.7519 33.6259 34 -1.3291 9.78486 81.8556
12642284 9.85648 4.67822 33.3011 34 -1.3684 9.67176 81.8358
12642294 9.85648 4.67822 33.3011 34 -1.3684 9.67176 81.8358
12642304 9.93575 4.72427 33.0747 34 -1.311 9.61917 81.7347
12642314 9.97098 4.67822 32.8975 34 -1.28462 9.61074 81.5467
12642324 9.97098 4.67822 32.8975 34 -1.28462 9.61074 81.5467
12642335 9.86528 4.56771 32.7499 34 -1.24639 9.66648 81.1829
12642344 9.86528 4.56771 32.7499 34 -1.24639 9.66648 81.1829
12642354 9.58342 4.4572 32.7991 34 -1.21391 9.78946 80.8397
12642364 9.38964 4.42958 32.9172 34 -1.20059 9.86506 80.7364
12642374 9.38964 4.42958 32.9172 34 -1.20059 9.86506 80.7364
12642384 9.22228 4.38353 32.8975 34 -1.16028 9.92972 80.5033
12642394 9.04611 4.29144 32.8286 34 -1.11745 10.0088 80.1662
12642404 9.04611 4.29144 32.8286 34 -1.11745 10.0088 80.1662
12642414 9.03731 4.30065 32.7695 34 -1.09422 10.005 80.1075
12642424 9.03731 4.30065 32.7695 34 -1.09422 10.005 80.1075
12642434 8.94922 4.2546 32.7597 34 -1.07997 10.0463 79.9635
12642445 8.82591 4.21777 32.74 34 -1.04913 10.0954 79.7837
12642465 8.62332 4.16251 32.8286 34 -1.03292 10.1821 79.6144
12642475 8.44715 4.09805 32.9172 34 -1.02763 10.2637 79.4624
12642485 8.44715 4.09805 32.9172 34 -1.02763 10.2637 79.4624
12642495 8.35026 4.13489 32.9172 34 -0.986296 10.2828 79.4023
12642505 8.35026 4.13489 32.9172 34 -0.986296 10.2828 79.4023
12642515 8.24456 4.08884 32.7695 34 -0.924511 10.3225 79.1029
12642534 8.1829 4.10726 32.8286 34 -0.917687 10.3399 79.1188
12642539 8.1829 4.10726 32.8286 34 -0.917687 10.3399 79.1188
12642546 8.31503 4.1533 32.7695 34 -0.924829 10.2794 79.2379
12642556 8.26218 4.19014 32.9074 34 -0.93857 10.2927 79.3597
12642566 8.26218 4.19014 32.9074 34 -0.93857 10.2927 79.3597
12642576 8.29741 4.2454 32.9074 34 -0.931202 10.2639 79.4502
12642586 8.29741 4.2454 32.9074 34 -0.931202 10.2639 79.4502
12642596 8.33264 4.16251 32.9763 34 -0.989786 10.2832 79.4714
12642606 8.36788 4.13489 32.9664 34 -1.00649 10.2801 79.4692
12642627 8.41192 4.17172 32.8286 34 -0.966099 10.2462 79.4122
12642639 8.58808 4.19014 32.553 34 -0.92994 10.1678 79.3312
12642649 8.58808 4.19014 32.553 34 -0.92994 10.1678 79.3312
12642656 8.76425 4.27302 32.4742 34 -0.9324 10.081 79.5115
12642668 8.76425 4.27302 32.4742 34 -0.9324 10.081 79.5115
12642677 8.88756 4.26381 32.366 34 -0.939955 10.0383 79.5173
12642689 9.01088 4.28223 32.4644 34 -1.00086 9.99993 79.7575
12642697 9.01088 4.28223 32.4644 34 -1.00086 9.99993 79.7575
12642707 9.10777 4.32828 32.4152 34 -1.00019 9.95209 79.8512
12642718 9.23109 4.3467 32.297 34 -0.995758 9.90035 79.8748
12642738 9.36321 4.40195 32.0805 34 -0.952384 9.82809 79.8456
12642749 9.36321 4.40195 32.0805 34 -0.952384 9.82809 79.8456
12642759 9.63627 4.448 31.795 34 -0.93369 9.71042 79.8793
12642767 9.7772 4.53088 31.8836 34 -0.97577 9.6473 80.1917
12642782 9.7772 4.53088 31.8836 34 -0.97577 9.6473 80.1917
12642787 9.75078 4.4572 32.1592 34 -1.07407 9.69635 80.3672
12642797 9.62746 4.48483 32.4053 34 -1.10161 9.74191 80.5176
12642807 9.62746 4.48483 32.4053 34 -1.10161 9.74191 80.5176
12642817 9.58342 4.4572 32.4053 34 -1.09749 9.76395 80.446
12642828 9.58342 4.4572 32.4053 34 -1.09749 9.76395 80.446
12642837 9.73316 4.448 32.238 34 -1.09525 9.70978 80.4191
12642849 9.90933 4.55851 32.0903 34 -1.06791 9.61215 80.5582
12642859 9.90933 4.55851 32.0903 34 -1.06791 9.61215 80.5582
12642872 10.0767 4.56771 31.736 34 -1.00924 9.53434 80.3804
12642879 10.2088 4.54009 31.6277 34 -1.0253 9.49508 80.3766
12642889 10.2088 4.54009 31.6277 34 -1.0253 9.49508 80.3766
12642899 10.3585 4.61376 31.5883 34 -1.03434 9.42446 80.5606
12642919 10.4466 4.57692 31.4406 34 -1.02852 9.39867 80.4642
12642929 10.4819 4.63218 31.3816 34 -1.00355 9.36713 80.4956
12642949 10.5788 4.68743 31.2339 34 -0.970577 9.31075 80.5001
12642960 10.6845 4.6506 31.106 34 -0.975816 9.28088 80.441
12642970 10.6845 4.6506 31.106 34 -0.975816 9.28088 80.441
12642980 10.7549 4.71506 30.9288 34 -0.923097 9.22753 80.3988
12643000 10.8254 4.73348 30.85 34 -0.914681 9.1951 80.4089
12643010 10.887 4.74269 30.8796 34 -0.938997 9.17593 80.5093
12643021 10.887 4.74269 30.8796 34 -0.938997 9.17593 80.5093
12643031 10.9663 4.84399 30.7811 34 -0.900672 9.11465 80.5914
12643042 11.0368 4.80715 30.7024 34 -0.910038 9.09882 80.5463
12643061 11.1601 4.83478 30.6433 34 -0.920358 9.04939 80.6382
12643072 11.1601 4.83478 30.6433 34 -0.920358 9.04939 80.6382
12643081 11.1865 4.87161 30.6335 34 -0.913474 9.02981 80.6916
12643091 11.2746 4.91766 30.5843 34 -0.91029 8.98627 80.7765
12643101 11.2746 4.91766 30.5843 34 -0.91029 8.98627 80.7765
12643111 11.301 4.94529 30.5252 34 -0.891696 8.96582 80.7715
12643121 11.3363 4.9545 30.5449 34 -0.905122 8.95412 80.8356
12643131 11.3363 4.9545 30.5449 34 -0.905122 8.95412 80.8356
12643143 11.3715 5.02817 30.6236 34 -0.915466 8.92779 81.0233
12643156 11.3715 5.02817 30.6236 34 -0.915466 8.92779 81.0233
12643166 11.3803 4.96371 30.6433 34 -0.944565 8.94571 80.9873
12643174 11.4332 5.01896 30.5449 34 -0.913329 8.9064 80.997
12643184 11.4332 5.01896 30.5449 34 -0.913329 8.9064 80.997
12643192 11.5565 5.0558 30.4661 34 -0.914796 8.85326 81.0784
12643205 11.6093 5.12026 30.3382 34 -0.871871 8.80903 81.0677
12643212 11.6093 5.12026 30.3382 34 -0.871871 8.80903 81.0677
12643226 11.7679 5.22156 30.1708 34 -0.836962 8.72004 81.1602
12643242 11.8295 5.37811 30.1118 34 -0.787997 8.65183 81.3194
12643252 11.9264 5.45179 30.0035 34 -0.761262 8.59382 81.3817
12643264 11.9264 5.45179 30.0035 34 -0.761262 8.59382 81.3817
12643276 12.0762 5.71885 29.8755 34 -0.683483 8.46336 81.6705
12643284 12.2699 5.90303 29.6688 34 -0.621839 8.33849 81.8418
12643294 12.2699 5.90303 29.6688 34 -0.621839 8.33849 81.8418
12643304 12.543 6.2714 29.2357 34 -0.459255 8.12088 82.0501
12643314 12.8777 6.92524 28.8715 34 -0.249149 7.81411 82.6744
12643334 13.1508 8.02113 28.6254 34 0.0730902 7.42031 83.7973
12643355 13.6088 8.9052 28.2907 33.5811 0.173846 6.99604 84.3858
12643365 13.9699 9.72481 27.8576 32.9089 0.238627 6.5838 84.4612
12643377 13.9699 9.72481 27.8576 32.9089 0.238627 6.5838 84.4612
12643385 14.287 10.4063 27.454 32.1685 0.24721 6.21398 84.3158
12643397 14.6658 11.0509 26.8732 31.3989 0.271103 5.81423 83.9888
12643406 14.6658 11.0509 26.8732 31.3989 0.271103 5.81423 83.9888
12643417 15.115 11.76 26.253 30.5903 0.293308 5.36948 83.7183
12643438 15.4938 12.5428 25.5049 29.7037 0.37474 4.89615 83.2452
12643446 15.9606 13.344 24.8946 28.9731 0.439394 4.42991 83.1723
12643459 15.9606 13.344 24.8946 28.9731 0.439394 4.42991 83.1723
12643467 16.3922 14.0807 24.3237 28.3398 0.512603 4.00376 83.1365
12643480 16.586 14.6701 23.9102 27.6774 0.558645 3.6813 82.8437
12643489 16.586 14.6701 23.9102 27.6774 0.558645 3.6813 82.8437
12643502 16.9031 15.2963 23.5953 27.1026 0.573161 3.34723 82.8973
12643507 17.2691 15.9962 23.1523 26.2648 0.556234 2.93021 82.6823
12643517 17.2691 15.9962 23.1523 26.2648 0.556234 2.93021 82.6823
12643527 17.847 16.8527 22.6896 25.2029 0.459751 2.39602 82.5922
12643548 18.3951 17.7586 22.1384 24.1897 0.42882 1.8503 82.4817
12643557 18.993 18.7895 21.4887 23.1278 0.435561 1.24408 82.3989
12643571 18.993 18.7895 21.4887 23.1278 0.435561 1.24408 82.3989
12643579 19.6108 20.0149 20.8489 22.0269 0.479433 0.590925 82.5015
12643594 20.3083 21.25 20.15 20.965 0.531229 -0.0804332 82.6733
12643599 20.3083 21.25 20.15 20.965 0.531229 -0.0804332 82.6733
12643609 20.9062 22.1739 19.5692 20.2928 0.600222 -0.581989 82.9422
12643630 21.3546 22.8839 19.077 19.7765 0.670561 -0.972111 83.092
12643640 21.9326 23.6716 18.6439 19.0751 0.651142 -1.41952 83.3232
12643660 22.5305 24.6053 17.9844 18.2178 0.692418 -1.96794 83.3379
12643671 23.0586 25.4514 17.315 17.2436 0.698614 -2.51927 83.0685
12643681 23.0586 25.4514 17.315 17.2436 0.698614 -2.51927 83.0685
12643692 23.6166 26.3753 16.6985 16.3527 0.726399 -3.05998 83.0432
12643711 23.9654 26.9783 16.0226 15.477 0.748166 -3.5377 82.4434
12643726 24.2644 27.5034 15.5132 14.963 0.817376 -3.88325 82.244
12643731 24.2644 27.5034 15.5132 14.963 0.817376 -3.88325 82.244
12643742 24.4936 27.9703 15.2012 14.5062 0.846291 -4.15409 82.1712
12643754 24.7726 28.3787 15.0453 14.2111 0.840932 -4.3494 82.4076
12643776 24.9918 28.651 14.7749 13.9446 0.858667 -4.53909 82.3623
12643782 25.1612 28.865 14.6398 13.7637 0.857627 -4.66265 82.4297
12643801 25.1612 28.865 14.6398 13.7637 0.857627 -4.66265 82.4297
12643819 25.2808 28.972 14.619 13.7732 0.860754 -4.69367 82.6449
12643827 25.2808 28.972 14.619 13.7732 0.860754 -4.69367 82.6449
12643830 25.3107 28.972 14.7749 13.8018 0.811061 -4.65354 82.8594
12643833 25.3605 28.9428 14.8789 13.916 0.788045 -4.6045 83.0982
12643842 25.3605 28.9428 14.8789 13.916 0.788045 -4.6045 83.0982
12643853 25.3505 28.7872 14.9413 14.0969 0.779143 -4.52647 83.1759
12643862 25.2808 28.7872 15.0765 14.3443 0.830743 -4.42823 83.4888
12643873 25.2808 28.758 15.0765 14.3443 0.822294 -4.42453 83.4596
12643885 25.2409 28.7191 15.222 14.3348 0.775596 -4.38292 83.5169
12643894 25.2409 28.7191 15.222 14.3348 0.775596 -4.38292 83.5169
12643904 25.1911 28.6608 15.3468 14.3729 0.746599 -4.33141 83.5715
12643917 25.1413 28.5343 15.43 14.43 0.716195 -4.27643 83.5356
12643924 25.1413 28.5343 15.43 14.43 0.716195 -4.27643 83.5356
12643934 25.1712 28.6024 15.5132 14.4205 0.698441 -4.27202 83.7072
12643954 25.0815 28.5538 15.5859 14.3539 0.670123 -4.25285 83.5751
12643964 25.0117 28.4662 15.6379 14.3919 0.661179 -4.21184 83.5078
12643975 25.0117 28.4662 15.6379 14.3919 0.661179 -4.21184 83.5078
12643985 25.0516 28.4565 15.8355 14.3539 0.57449 -4.17912 83.6974
12643995 25.1313 28.369 15.8771 14.3729 0.517467 -4.16423 83.7503
12644008 25.1313 28.369 15.8771 14.3729 0.517467 -4.16423 83.7503
12644015 25.1712 28.4371 15.8667 14.154 0.464317 -4.23076 83.6289
12644026 25.1213 28.3495 15.7939 14.0873 0.456399 -4.24518 83.3521
12644035 25.1213 28.3495 15.7939 14.0873 0.456399 -4.24518 83.3521
12644049 25.1114 28.3204 15.8667 14.0207 0.408983 -4.23871 83.3191
12644055 25.1114 28.3204 15.8667 14.0207 0.408983 -4.23871 83.3191
12644065 25.0018 28.3495 15.8459 13.9446 0.434947 -4.25073 83.1417
12644075 25.0416 28.2815 15.981 13.8875 0.344464 -4.22902 83.1916
12644094 25.0416 28.2815 15.981 13.8875 0.344464 -4.22902 83.1916
12644096 25.0117 28.3106 15.9706 13.9351 0.379476 -4.22033 83.2281
12644105 25.0815 28.3106 15.9602 13.8494 0.336021 -4.25156 83.2018
12644126 25.1712 28.4468 15.9498 13.7923 0.335312 -4.29627 83.3601
12644138 25.1712 28.4468 15.9498 13.7923 0.335312 -4.29627 83.3601
12644146 25.2309 28.583 15.8771 13.6209 0.328848 -4.37799 83.3119
12644159 25.3505 28.6608 15.7939 13.5067 0.306997 -4.44907 83.3119
12644166 25.3505 28.6608 15.7939 13.5067 0.306997 -4.44907 83.3119
12644176 25.4203 28.8066 15.5339 13.3735 0.36864 -4.56842 83.1343
12644186 25.5996 28.9039 15.4924 13.2116 0.307524 -4.65094 83.2075
12644196 25.5996 28.9039 15.4924 13.2116 0.307524 -4.65094 83.2075
12644206 25.7093 29.1373 15.2948 13.0403 0.352705 -4.78076 83.1817
12644227 25.8388 29.2832 15.1908 12.9356 0.357112 -4.86415 83.2484
12644236 25.9086 29.4485 15.1492 12.7833 0.352392 -4.93901 83.2896
12644248 25.9086 29.4485 15.1492 12.7833 0.352392 -4.93901 83.2896
12644257 26.1079 29.6138 14.9517 12.7643 0.39508 -5.03473 83.4377
12644269 26.1975 29.7403 14.8789 12.5834 0.373879 -5.12148 83.4001
12644287 26.3171 29.8764 14.7021 12.4787 0.400573 -5.21971 83.3744
12644307 26.3072 29.9542 14.4942 12.4026 0.467625 -5.29677 83.1581
12644317 26.4566 30.0029 14.411 12.3455 0.444835 -5.35408 83.216
12644329 26.4566 30.0029 14.411 12.3455 0.444835 -5.35408 83.216
12644339 26.5064 30.1098 14.3694 12.2408 0.442991 -5.40803 83.2265
12644349 26.5264 30.1001 14.2966 12.1741 0.436604 -5.44345 83.0973
12644369 26.5164 30.0709 14.2758 12.1837 0.440213 -5.44172 83.0468
12644389 26.5264 30.139 14.2343 12.2027 0.475639 -5.45625 83.1023
12644399 26.5662 30.1974 14.3382 12.2027 0.448832 -5.44197 83.3045
12644420 26.5762 30.3043 14.2758 12.1075 0.468332 -5.49408 83.2639
12644439 26.5363 30.1974 14.3382 12.1361 0.438318 -5.4549 83.208
12644441 26.5363 30.1974 14.3382 12.1361 0.438318 -5.4549 83.208
12644455 26.4168 30.1293 14.4526 12.1551 0.425422 -5.40054 83.1538
12644460 26.3968 29.9737 14.6502 12.2788 0.361803 -5.30163 83.2995
12644480 26.2872 29.7792 14.8477 12.4216 0.319746 -5.18333 83.3357
12644504 26.2872 29.7792 14.8477 12.4216 0.319746 -5.18333 83.3357
12644505 26.1577 29.6527 15.0661 12.5929 0.306088 -5.05899 83.4694
12644511 25.9584 29.5944 15.1908 12.7928 0.370505 -4.95038 83.5364
12644521 25.9584 29.5944 15.1908 12.7928 0.370505 -4.95038 83.5364
12644534 25.7192 29.4291 15.4092 12.8975 0.358936 -4.82444 83.455
12644541 25.6295 29.3026 15.5859 13.0784 0.348565 -4.71333 83.5965
12644555 25.6295 29.3026 15.5859 13.0784 0.348565 -4.71333 83.5965
12644562 25.4103 29.1762 15.8251 13.2021 0.341731 -4.58525 83.6137
12644577 25.4103 29.1762 15.8251 13.2021 0.341731 -4.58525 83.6137
12644582 25.1213 28.9817 16.0226 13.3639 0.359824 -4.44063 83.4896
12644592 24.932 28.6899 16.2098 13.4877 0.310799 -4.30712 83.3194
12644602 24.932 28.6899 16.2098 13.4877 0.310799 -4.30712 83.3194
12644612 24.7028 28.5538 16.4697 13.6685 0.314698 -4.15823 83.3949
12644623 24.5234 28.3398 16.7505 13.7923 0.25723 -4.0142 83.406
12644642 24.5733 28.262 16.8856 14.0398 0.25157 -3.92366 83.7607
12644652 24.5733 28.262 16.8856 14.0398 0.25157 -3.92366 83.7607
12644663 24.4039 28.155 16.9064 14.0969 0.281709 -3.86938 83.5622
12644672 24.3042 28.0578 17.0492 14.192 0.268051 -3.78946 83.6033
12644695 24.2145 27.9411 17.1477 14.2016 0.233653 -3.73746 83.5048
12644702 24.1547 27.9119 17.2362 14.2777 0.238875 -3.68854 83.5806
12644712 24.1547 27.9119 17.2362 14.2777 0.238875 -3.68854 83.5806
12644722 24.1249 27.8438 17.3741 14.43 0.231257 -3.61059 83.7727
12644732 24.1249 27.8438 17.3741 14.43 0.231257 -3.61059 83.7727
12644744 24.0053 27.659 17.3741 14.449 0.218219 -3.56483 83.4874
12644752 23.8458 27.6299 17.443 14.4871 0.248241 -3.51515 83.4058
12644774 23.9056 27.6104 17.5414 14.4966 0.197482 -3.49678 83.5541
12644784 23.806 27.5326 17.6005 14.4871 0.183782 -3.46132 83.4262
12644793 23.806 27.5326 17.6005 14.4871 0.183782 -3.46132 83.4262
12644804 23.8159 27.5132 17.6891 14.6013 0.182226 -3.41524 83.6195
12644824 23.6764 27.3478 17.7678 14.5347 0.1315 -3.37018 83.3268
12644834 23.517 27.2117 17.9155 14.6204 0.119975 -3.27742 83.2645
12644847 23.517 27.2117 17.9155 14.6204 0.119975 -3.27742 83.2645
12644855 23.3675 27.1339 17.9253 14.7917 0.190088 -3.20561 83.2184
12644864 23.2679 27.0074 18.1419 14.944 0.162458 -3.09307 83.3612
12644874 23.2679 27.0074 18.1419 14.944 0.162458 -3.09307 83.3612
12644884 23.1981 26.9199 18.2305 15.0487 0.161886 -3.02868 83.3972
12644895 23.1981 26.9199 18.2305 15.0487 0.161886 -3.02868 83.3972
12644916 23.0287 26.7254 18.4175 15.201 0.14399 -2.90305 83.3726
12644917 22.8593 26.7157 18.4765 15.3533 0.219744 -2.83169 83.4048
12644925 22.8593 26.7157 18.4765 15.3533 0.219744 -2.83169 83.4048
12644937 22.7796 26.6281 18.6537 15.4485 0.192583 -2.74917 83.51
12644949 22.7098 26.5795 18.8998 15.5817 0.164613 -2.65148 83.7709
12644957 22.7098 26.5795 18.8998 15.5817 0.164613 -2.65148 83.7709
12644966 22.5604 26.4336 18.9983 15.696 0.170565 -2.56305 83.6882
12644979 22.3411 26.2197 19.0869 15.8102 0.180289 -2.45581 83.4579
12645001 22.1219 26.0154 19.2542 15.953 0.177667 -2.32712 83.3445
12645007 22.1219 26.0154 19.2542 15.953 0.177667 -2.32712 83.3445
12645017 21.8828 25.7723 19.4609 16.0196 0.134787 -2.19663 83.1356
12645027 21.6536 25.5973 19.6873 16.2671 0.157273 -2.03649 83.2052
12645040 21.6536 25.5973 19.6873 16.2671 0.157273 -2.03649 83.2052
12645049 21.524 25.3833 19.9137 16.5146 0.138026 -1.88618 83.3356
12645059 21.1653 25.1791 20.1303 16.762 0.193882 -1.70334 83.2367
12645072 21.1653 25.1791 20.1303 16.762 0.193882 -1.70334 83.2367
12645084 21.1354 25.1402 20.3075 16.981 0.202912 -1.61322 83.564
12645095 21.1354 25.1402 20.3075 16.981 0.202912 -1.61322 83.564
12645116 21.0258 25.0915 20.4354 17.1072 0.220376 -1.53743 83.6599
12645130 21.0358 25.1402 20.4748 17.0877 0.214139 -1.54292 83.7384
12645140 21.0358 25.1499 20.3961 17.1169 0.249401 -1.55427 83.6986
12645150 21.0358 25.1499 20.3961 17.1169 0.249401 -1.55427 83.6986
12645165 21.0059 25.111 20.3173 17.0487 0.250509 -1.57233 83.4829
12645171 20.8863 25.0429 20.2779 17.039 0.275582 -1.55183 83.2461
12645181 20.8863 25.0429 20.2779 17.039 0.275582 -1.55183 83.2461
12645192 20.7767 24.9846 20.3173 17.1072 0.29985 -1.50328 83.1857
12645201 20.7767 24.9846 20.3173 17.1072 0.29985 -1.50328 83.1857
12645215 20.6272 24.8387 20.3862 17.2533 0.324452 -1.41261 83.1054
12645221 20.4977 24.7122 20.465 17.3507 0.331324 -1.33589 83.0256
12645241 20.4179 24.6053 20.5536 17.4968 0.340244 -1.25903 83.0736
12645251 20.1887 24.4108 20.7406 17.7501 0.370547 -1.1028 83.0902
12645264 20.1887 24.4108 20.7406 17.7501 0.370547 -1.1028 83.0902
12645271 19.9795 24.2454 21.0261 18.0229 0.379112 -0.93233 83.2739
12645283 19.9795 24.2454 21.0261 18.0229 0.379112 -0.93233 83.2739
12645292 19.7503 24.0704 21.3706 18.3054 0.375742 -0.744574 83.4967
12645303 19.5211 23.9342 21.7053 18.5393 0.37249 -0.575412 83.6998
12645312 19.5211 23.9342 21.7053 18.5393 0.37249 -0.575412 83.6998
12645325 19.3019 23.7105 21.8726 18.7925 0.396937 -0.420764 83.6776
12645334 19.0029 23.4577 22.1187 19.0946 0.427431 -0.223609 83.6739
12645347 19.0029 23.4577 22.1187 19.0946 0.427431 -0.223609 83.6739
12645354 18.7339 22.9617 22.3254 19.455 0.406519 0.0152528 83.476
12645374 18.3054 22.5435 22.6896 19.9713 0.454977 0.32549 83.5098
12645384 17.9467 22.2128 23.1031 20.4779 0.489914 0.612883 83.7405
12645394 17.9467 22.2128 23.1031 20.4779 0.489914 0.612883 83.7405
12645404 17.578 21.8141 23.5559 20.8871 0.467387 0.903731 83.835
12645415 17.1295 21.3084 23.989 21.3742 0.466585 1.2396 83.8011
12645424 17.1295 21.3084 23.989 21.3742 0.466585 1.2396 83.8011
12645437 16.6036 20.6665 24.6485 22.1926 0.477603 1.70684 84.1112
12645444 16.6036 20.6665 24.6485 22.1926 0.477603 1.70684 84.1112
12645454 16.0135 19.869 25.2391 23.1862 0.534537 2.23163 84.3079
12645464 15.4145 19.1104 25.8199 23.9559 0.543252 2.71366 84.3007
12645481 15.4145 19.1104 25.8199 23.9559 0.543252 2.71366 84.3007
12645483 14.7803 18.381 26.3712 24.7352 0.582898 3.1943 84.2677
12645494 14.4104 17.7586 26.8338 25.3295 0.546622 3.55636 84.3323
12645505 14.4104 17.7586 26.8338 25.3295 0.546622 3.55636 84.3323
12645515 14.0492 17.1653 27.2768 25.8848 0.510851 3.90164 84.3761
12645527 14.0492 17.1653 27.2768 25.8848 0.510851 3.90164 84.3761
12645535 13.6176 16.6132 27.5918 26.4596 0.552732 4.23942 84.2822
12645549 13.3181 16.0054 27.9855 27.0831 0.528741 4.57597 84.3922
12645555 13.3181 16.0054 27.9855 27.0831 0.528741 4.57597 84.3922
12645565 12.8513 15.4252 28.3497 27.6676 0.561082 4.93645 84.2939
12645575 12.4637 14.8267 28.8124 28.408 0.579378 5.31234 84.5108
12645586 12.4637 14.8267 28.8124 28.408 0.579378 5.31234 84.5108
12645595 12.0674 14.2189 29.3243 29.051 0.554633 5.68542 84.6615
12645605 12.0674 14.2189 29.3243 29.051 0.554633 5.68542 84.6615
12645616 11.5301 13.6295 29.6589 29.5479 0.589195 6.05347 84.3663
12645625 11.3363 13.2979 29.8164 29.5868 0.515258 6.20599 84.0375
12645638 11.3363 13.2979 29.8164 29.5868 0.515258 6.20599 84.0375
12645645 11.1689 13.3256 29.8755 29.5673 0.550556 6.24544 83.9373
12645655 11.1425 13.344 30.0428 29.5089 0.496066 6.25881 84.0382
12645675 11.1249 13.2519 30.2889 29.8791 0.507769 6.35011 84.5448
12645685 11.1249 13.2519 30.2889 29.8791 0.507769 6.35011 84.5448
12645696 10.9311 13.0125 30.6925 30.259 0.485265 6.53889 84.8951
12645706 10.7021 12.773 31.1158 30.6 0.456372 6.73324 85.1909
12645716 10.7021 12.773 31.1158 30.6 0.456372 6.73324 85.1909
12645734 10.3762 12.3954 31.5883 30.7948 0.359884 6.97757 85.1548
12645737 10.1207 11.9626 31.9328 31.2138 0.329348 7.2269 85.2299
12645757 9.83005 11.4745 32.1592 31.7983 0.37635 7.50385 85.2621
12645771 9.83005 11.4745 32.1592 31.7983 0.37635 7.50385 85.2621
12645777 9.51295 10.7839 32.7991 32.5582 0.300628 7.89112 85.6541
12645794 9.03731 9.94583 33.5669 33.6395 0.2846 8.39254 86.1896
12645807 8.43834 9.04334 34 34 0.176936 8.86476 85.4817
12645817 7.8658 8.14085 34 34 0.0818491 9.28379 84.0067
12645827 7.8658 8.14085 34 34 0.0818491 9.28379 84.0067
12645840 7.39016 7.42254 34 34 0.00977516 9.6339 82.8127
12645848 7.39016 7.42254 32.7597 34 0.390047 9.55231 81.5724
12645863 7.04663 6.81473 34 34 -0.0708193 9.92018 81.8614
12645869 6.74715 6.30823 34 34 -0.135376 10.168 81.0554
12645889 6.56218 5.8662 34 34 -0.216337 10.3642 80.4284
12645900 6.43005 5.58992 34 34 -0.262474 10.4936 80.02
12645909 6.43005 5.58992 34 34 -0.262474 10.4936 80.02
12645919 6.43005 5.3597 34 34 -0.335369 10.5672 79.7897
12645932 6.51813 5.3597 34 34 -0.362566 10.539 79.8778
12645940 6.51813 5.19393 34 34 -0.415309 10.5921 79.7121
12645950 6.76477 5.1571 34 34 -0.502887 10.5249 79.9219
12645970 7.0114 5.10184 34 34 -0.595894 10.464 80.1132
12645980 7.31969 5.00054 34 34 -0.721844 10.3983 80.3202
12646000 7.63679 4.9545 34 34 -0.832066 10.3129 80.5913
12646011 8.05078 4.80715 34 34 -1.00288 10.2294 80.8579
12646020 8.05078 4.80715 34 34 -1.00288 10.2294 80.8579
12646030 8.47358 4.83478 34 34 -1.11883 10.0897 81.3083
12646040 8.47358 4.83478 34 34 -1.11883 10.0897 81.3083
12646050 8.90518 4.73348 34 34 -1.27749 9.98816 81.6387
12646060 9.33679 4.68743 33.7342 34 -1.3404 9.85403 81.7584
12646070 9.33679 4.68743 33.7342 34 -1.3404 9.85403 81.7584
12646080 9.94456 4.78873 33.1239 34 -1.30707 9.60037 81.8572
12646090 9.94456 4.78873 33.1239 34 -1.30707 9.60037 81.8572
12646100 10.3145 4.81636 32.9763 34 -1.36237 9.47154 82.1071
12646111 10.4026 4.72427 33.0156 34 -1.4286 9.47538 82.1425
12646139 10.3057 4.62297 33.1436 34 -1.47014 9.5431 82.0723
12646141 10.1472 4.64139 33.3208 34 -1.46955 9.59676 82.1093
12646152 10.1472 4.64139 33.3208 34 -1.46955 9.59676 82.1093
12646161 10.0326 4.5493 33.4291 34 -1.49749 9.66586 82.011
12646173 9.85648 4.43879 33.3011 34 -1.44577 9.74415 81.5964
12646181 9.85648 4.43879 33.3011 34 -1.44577 9.74415 81.5964
12646195 9.75959 4.4572 33.2913 34 -1.40895 9.76734 81.508
12646201 9.75959 4.4572 33.2913 34 -1.40895 9.76734 81.508
12646212 9.81244 4.48483 33.1239 34 -1.36682 9.73211 81.4212
12646221 9.99741 4.48483 32.9959 34 -1.38335 9.66769 81.4782
12646242 10.0767 4.57692 32.9074 34 -1.35086 9.61007 81.561
12646252 10.2352 4.57692 32.8384 34 -1.37683 9.55773 81.6506
12646262 10.2352 4.5493 32.8384 34 -1.38576 9.56604 81.623
12646272 10.244 4.50325 32.8975 34 -1.42027 9.58117 81.6448
12646283 10.244 4.50325 32.8975 34 -1.42027 9.58117 81.6448
12646292 10.1824 4.5493 33.0353 34 -1.42735 9.595 81.767
12646304 10.0855 4.50325 33.055 34 -1.41997 9.63937 81.6438
12646314 10.0855 4.50325 33.055 34 -1.41997 9.63937 81.6438
12646325 10.0326 4.48483 33.0452 34 -1.40781 9.66025 81.5626
12646334 10.0326 4.48483 33.1436 34 -1.43624 9.66669 81.6611
12646343 9.93575 4.40195 33.1436 34 -1.43511 9.72111 81.4813
12646352 9.89171 4.42958 33.3306 34 -1.46744 9.73817 81.6519
12646372 9.89171 4.42958 33.3306 34 -1.46744 9.73817 81.6519
12646374 9.73316 4.36511 33.557 34 -1.50789 9.82032 81.6553
12646384 9.57461 4.40195 33.8622 34 -1.53804 9.87655 81.8388
12646404 9.3456 4.33749 34 34 -1.53279 9.97457 81.6831
12646413 9.10777 4.23619 34 34 -1.49722 10.0787 81.344
12646425 9.10777 4.23619 34 34 -1.49722 10.0787 81.344
12646436 8.88756 4.19935 34 34 -1.44543 10.1582 81.0869
12646445 8.88756 4.19935 34 34 -1.44543 10.1582 81.0869
12646457 8.63212 4.1441 34 34 -1.38903 10.255 80.7762
12646465 8.55285 4.11647 34 34 -1.37487 10.2884 80.6693
12646486 8.33264 4.06121 34 34 -1.32828 10.3751 80.3939
12646501 8.17409 4.03359 34 34 -1.29056 10.434 80.2077
12646506 8.17409 4.03359 34 34 -1.29056 10.434 80.2077
12646517 8.20052 3.96912 34 34 -1.31951 10.446 80.1696
12646529 8.12124 3.95991 34 34 -1.2991 10.4742 80.0812
12646539 8.12124 3.95991 34 34 -1.2991 10.4742 80.0812
12646547 8.13005 3.9415 34 34 -1.30776 10.4772 80.0715
12646557 8.13005 3.9415 34 34 -1.30776 10.4772 80.0715
12646567 8.17409 3.80336 34 34 -1.36624 10.5072 79.9774
12646577 8.12124 3.85861 34 34 -1.33241 10.5064 79.9799
12646599 8.02435 3.77573 34 34 -1.33102 10.5639 79.8001
12646609 7.87461 3.80336 34 34 -1.27741 10.6031 79.678
12646629 7.90104 3.82178 34 34 -1.2792 10.5887 79.7228
12646639 7.90104 3.82178 34 34 -1.2792 10.5887 79.7228
12646651 7.91865 3.79415 34 34 -1.29355 10.5919 79.7128
12646659 8.05959 3.82178 34 34 -1.32628 10.5379 79.8814
12646679 8.19171 3.93229 34 34 -1.32901 10.4605 80.124
12646689 8.20052 3.9415 34 34 -1.32859 10.4548 80.142
12646700 8.20052 3.9415 34 34 -1.32859 10.4548 80.142
12646710 8.31503 4.01517 34 34 -1.33818 10.3952 80.3302
12646730 8.51762 3.98754 34 34 -1.40676 10.34 80.5052
12646740 8.84352 4.08884 34 34 -1.46872 10.2062 80.9324
12646760 9.14301 4.1533 34 34 -1.53442 10.0934 81.2963
12646770 9.63627 4.2454 34 34 -1.64593 9.914 81.8817
12646781 9.63627 4.2454 34 34 -1.64593 9.914 81.8817
12646790 10.0591 4.32828 33.7834 34 -1.67767 9.74728 82.1708
12646802 10.0591 4.32828 33.7834 34 -1.67767 9.74728 82.1708
12646810 10.3145 4.39274 33.3897 34 -1.61743 9.62565 82.0969
12646820 10.6404 4.51246 33.1239 34 -1.5958 9.47491 82.2768
12646831 10.6404 4.51246 33.1239 34 -1.5958 9.47491 82.2768
12646846 10.7461 4.56771 32.74 34 -1.49853 9.40106 82.0538
12646851 10.8606 4.56771 32.4742 34 -1.45512 9.34877 81.9026
12646861 10.8606 4.56771 32.4742 34 -1.45512 9.34877 81.9026
12646872 10.9663 4.58613 32.2478 34 -1.41442 9.29619 81.8003
12646883 11.0192 4.62297 32.11 34 -1.37801 9.25992 81.7522
12646902 11.0632 4.64139 31.9427 34 -1.33639 9.22959 81.6473
12646922 11.0632 4.58613 31.7852 34 -1.30849 9.23487 81.4345
12646937 11.0632 4.6506 31.7852 34 -1.28768 9.2157 81.499
12646942 11.0632 4.6506 31.7852 34 -1.28768 9.2157 81.499
12646954 10.8959 4.62297 31.7064 34 -1.22478 9.26823 81.2253
12646964 10.8078 4.62297 31.6769 34 -1.1903 9.2925 81.1076
12646974 10.8078 4.62297 31.6769 34 -1.1903 9.2925 81.1076
12646988 10.7725 4.54009 31.608 34 -1.18649 9.32309 80.9206
12646993 10.7725 4.54009 31.608 34 -1.18649 9.32309 80.9206
12647003 10.6492 4.56771 31.6178 34 -1.14411 9.35258 80.8348
12647017 10.4995 4.55851 31.7064 34 -1.12903 9.4067 80.7644
12647023 10.4995 4.55851 31.7064 34 -1.12903 9.4067 80.7644
12647033 10.4026 4.58613 31.8442 34 -1.13218 9.43715 80.833
12647045 10.2793 4.48483 31.8639 34 -1.13434 9.50658 80.628
12647063 10.1119 4.49404 31.9328 34 -1.10217 9.55941 80.5388
12647073 10.1119 4.49404 31.9328 34 -1.10217 9.55941 80.5388
12647084 10.0326 4.5493 31.8639 34 -1.04022 9.56208 80.4459
12647094 9.90052 4.49404 31.9525 34 -1.04515 9.62536 80.3471
12647104 9.90052 4.49404 31.9525 34 -1.04515 9.62536 80.3471
12647114 9.85648 4.51246 32.0313 34 -1.04953 9.63847 80.4002
12647123 9.83005 4.50325 32.1592 34 -1.08272 9.6579 80.4925
12647134 9.83005 4.50325 32.1592 34 -1.08272 9.6579 80.4925
12647146 9.81244 4.54009 32.2872 34 -1.10354 9.6605 80.6397
12647164 9.78601 4.5493 32.3463 34 -1.11022 9.66967 80.6816
12647174 9.78601 4.58613 32.4939 34 -1.14195 9.66817 80.8661
12647194 9.81244 4.59534 32.4447 34 -1.13225 9.65405 80.8525
12647214 9.79482 4.63218 32.4545 34 -1.11805 9.64884 80.8815
12647224 9.86528 4.70585 32.4152 34 -1.10346 9.60237 80.9863
12647244 10.0326 4.73348 32.4053 34 -1.14095 9.54262 81.1714
12647263 10.1648 4.78873 32.425 34 -1.1677 9.48743 81.3785
12647266 10.1648 4.78873 32.425 34 -1.1677 9.48743 81.3785
12647274 10.3233 4.8532 32.3069 34 -1.15883 9.41241 81.4834
12647286 10.3233 4.8532 32.3069 34 -1.15883 9.41241 81.4834
12647295 10.4114 4.98212 32.0706 34 -1.07407 9.33118 81.4642
12647307 10.7021 5.13868 31.7556 34 -1.01691 9.17594 81.5964
12647315 10.7021 5.13868 31.7556 34 -1.01691 9.17594 81.5964
12647327 10.9663 5.42416 31.4702 34 -0.91996 8.99328 81.8607
12647335 11.2658 5.73727 31.2733 34 -0.851351 8.80026 82.2764
12647355 11.6886 6.12405 31.0666 34 -0.793666 8.55231 82.8792
12647368 11.6886 6.12405 31.0666 34 -0.793666 8.55231 82.8792
12647375 12.1731 6.46479 30.8205 34 -0.757493 8.30042 83.4583
12647388 12.5959 6.85157 30.4071 34 -0.641394 8.04244 83.8545
12647395 12.5959 6.85157 30.4071 34 -0.641394 8.04244 83.8545
12647405 13.0451 7.32124 29.9149 33.2109 -0.726965 7.68207 83.4921
12647415 13.6264 7.98429 29.4424 32.0905 -0.900242 7.20239 83.1436
12647425 13.6264 7.98429 29.4424 32.0905 -0.900242 7.20239 83.1436
12647436 14.3135 8.89599 28.9699 31.4183 -0.88789 6.67102 83.5977
12647445 14.3135 8.89599 28.9699 31.4183 -0.88789 6.67102 83.5977
12647463 14.9565 9.70639 28.3891 30.5221 -0.932449 6.14694 83.5741
12647467 15.5819 10.4707 27.8576 29.5284 -1.03079 5.63288 83.4385
12647475 15.5819 10.4707 27.8576 29.5284 -1.03079 5.63288 83.4385
12647489 16.2161 11.2259 27.198 28.7198 -1.0402 5.12403 83.3598
12647495 16.771 11.9166 26.7354 27.8917 -1.10968 4.67016 83.3146
12647505 16.771 11.9166 26.7354 27.8917 -1.10968 4.67016 83.3146
12647517 17.4484 12.7454 26.1743 26.6837 -1.26236 4.09337 83.0518
12647540 18.146 13.7216 25.4655 25.31 -1.38545 3.43188 82.6431
12647546 18.8236 14.7898 24.9734 24.3748 -1.39593 2.84495 82.9615
12647556 18.8236 14.7898 24.9734 24.3748 -1.39593 2.84495 82.9615
12647577 19.4015 15.7015 24.4713 23.3713 -1.44673 2.30385 82.9457
12647583 19.9197 16.5764 23.9496 22.4166 -1.47121 1.78673 82.8623
12647596 20.3482 17.496 23.359 21.5885 -1.39587 1.28697 82.7917
12647606 20.3482 17.496 23.359 21.5885 -1.39587 1.28697 82.7917
12647616 20.6073 18.2838 22.8274 20.9358 -1.27493 0.884208 82.6543
12647627 21.0557 18.9548 22.3254 20.3415 -1.23515 0.481959 82.6775
12647654 21.0557 18.9548 22.3254 20.3415 -1.23515 0.481959 82.6775
12647655 21.4642 19.6161 21.8529 19.8252 -1.17082 0.108345 82.7585
12647658 21.7732 20.1608 21.4592 19.4258 -1.10053 -0.189983 82.8189
12647669 21.7732 20.1608 21.4592 19.4258 -1.10053 -0.189983 82.8189
12647678 22.0422 20.7735 20.9867 19.1043 -0.950204 -0.492966 82.9066
12647691 22.0422 20.7735 20.9867 19.1043 -0.950204 -0.492966 82.9066
12647699 22.381 21.3278 20.4945 18.7828 -0.832938 -0.801008 82.9861
12647713 22.6401 22.1545 20.0023 18.4029 -0.62653 -1.15193 83.1997
12647729 22.8693 22.6796 19.4806 17.9645 -0.513829 -1.46466 82.994
12647739 23.0985 23.2729 19.0376 17.6235 -0.37327 -1.75417 83.0325
12647749 23.0985 23.2729 19.0376 17.6235 -0.37327 -1.75417 83.0325
12647760 23.3476 23.9148 18.7226 17.3312 -0.247324 -2.01794 83.3162
12647770 23.5868 24.4302 18.1812 16.8287 -0.153299 -2.34991 83.0269
12647781 23.5868 24.4302 18.1812 16.8287 -0.153299 -2.34991 83.0269
12647790 23.9156 25.0818 17.7087 16.3337 -0.062871 -2.70141 83.0399
12647811 24.1547 25.607 17.2461 15.8768 0.025022 -3.0112 82.8846
12647821 24.374 26.1711 16.7297 15.4866 0.167343 -3.32199 82.7613
12647843 24.7227 26.774 16.189 15.1153 0.295177 -3.658 82.8011
12647851 25.0117 27.4256 15.7315 14.7156 0.421661 -3.97969 82.8844
12647861 25.0117 27.4256 15.7315 14.7156 0.421661 -3.97969 82.8844
12647872 25.2509 27.98 15.3364 14.449 0.554636 -4.23629 83.0163
12647881 25.2509 27.98 15.3364 14.449 0.554636 -4.23629 83.0163
12647891 25.4103 28.4662 14.8893 14.1254 0.691283 -4.499 82.8913
12647901 25.7292 28.972 14.4838 13.8113 0.77422 -4.77239 82.9963
12647911 25.7292 28.972 14.4838 13.8113 0.77422 -4.77239 82.9963
12647922 25.9185 29.536 14.0367 13.5924 0.954825 -5.02364 83.0836
12647934 26.1477 29.9445 13.6832 13.1831 0.993481 -5.28444 82.9585
12647942 26.1477 29.9445 13.6832 13.1831 0.993481 -5.28444 82.9585
12647956 26.4367 30.353 13.3401 12.8595 1.03498 -5.52906 82.9892
12647973 26.7456 30.7031 12.9657 12.5358 1.06316 -5.77704 82.9503
12647985 27.0744 31.0338 12.5291 12.1265 1.07438 -6.06291 82.7638
12647992 27.0744 31.0338 12.5291 12.1265 1.07438 -6.06291 82.7638
12648004 27.4132 31.3255 12.1859 11.8505 1.08029 -6.28854 82.7752
12648014 27.772 31.5589 11.822 11.5459 1.06133 -6.523 82.6988
12648034 28.1506 31.8896 11.6245 11.346 1.04218 -6.69849 83.0107
12648044 28.1506 31.8896 11.6245 11.346 1.04218 -6.69849 83.0107
12648054 28.4596 32.123 11.2502 11.0319 1.03941 -6.93308 82.8646
12648067 28.7685 32.3078 11.0838 10.7654 0.971031 -7.0956 82.9254
12648084 28.9478 32.3175 10.8758 10.5465 0.919214 -7.22775 82.6876
12648095 29.0275 32.3467 10.8135 10.4608 0.897318 -7.2778 82.6485
12648105 29.0275 32.3467 10.8135 10.4608 0.897318 -7.2778 82.6485
12648115 29.1272 32.4148 10.855 10.4227 0.861889 -7.2925 82.8197
12648125 29.1272 32.4148 10.855 10.4227 0.861889 -7.2925 82.8197
12648137 29.1372 32.3759 10.907 10.5179 0.858948 -7.25025 82.938
12648145 29.2567 32.3856 11.0734 10.4608 0.756299 -7.23307 83.1765
12648165 29.2866 32.405 11.0942 10.4703 0.749055 -7.22958 83.2562
12648190 29.2567 32.405 11.2502 10.4798 0.712895 -7.18268 83.3918
12648191 29.2567 32.405 11.2502 10.4798 0.712895 -7.18268 83.3918
12648196 29.3265 32.3661 11.3541 10.3751 0.61754 -7.18577 83.4219
12648206 29.2966 32.2397 11.3333 10.3656 0.593314 -7.17917 83.2353
12648226 29.1671 32.123 11.4373 10.3371 0.55851 -7.13585 83.0644
12648236 29.1671 32.123 11.4373 10.3371 0.55851 -7.13585 83.0644
12648248 29.1471 32.0841 11.5621 10.3371 0.514838 -7.09706 83.1304
12648256 29.0375 31.9479 11.7388 10.318 0.44845 -7.0317 83.0423
12648270 29.0375 31.9479 11.7388 10.318 0.44845 -7.0317 83.0423
12648276 29.0774 31.841 11.8844 10.3275 0.362906 -6.98417 83.1303
12648294 29.0774 31.841 12.03 10.3275 0.318572 -6.94574 83.2758
12648297 29.0076 31.7145 12.03 10.3466 0.307924 -6.9217 83.0987
12648307 29.0674 31.6951 12.1547 10.4132 0.265852 -6.87525 83.3304
12648317 29.0674 31.6951 12.1547 10.4132 0.265852 -6.87525 83.3304
12648327 29.0275 31.7437 12.2171 10.3847 0.264981 -6.86723 83.373
12648338 29.0275 31.7534 12.3003 10.3466 0.231385 -6.85636 83.4279
12648357 29.0574 31.7243 12.3107 10.318 0.202054 -6.86119 83.4104
12648367 29.1671 31.7826 12.3939 10.299 0.155619 -6.86077 83.6425
12648378 29.1671 31.7826 12.3939 10.299 0.155619 -6.86077 83.6425
12648389 29.2567 31.7923 12.4563 10.3085 0.115684 -6.85166 83.8139
12648400 29.2567 31.7923 12.4563 10.3085 0.115684 -6.85166 83.8139
12648409 29.2368 31.8118 12.3107 10.0896 0.10601 -6.94706 83.4489
12648423 29.2866 31.8215 12.2067 10.023 0.105324 -6.99775 83.3378
12648429 29.2866 31.8215 12.2067 10.023 0.105324 -6.99775 83.3378
12648439 29.4162 31.8701 12.0196 9.8897 0.097385 -7.0996 83.1956
12648449 29.4261 31.8507 12.0092 9.79451 0.0631571 -7.12679 83.0805
12648459 29.4261 31.8507 12.0092 9.79451 0.0631571 -7.12679 83.0805
12648470 29.5457 31.9771 11.874 9.68029 0.0715226 -7.21652 83.0771
12648479 29.5457 31.9771 11.874 9.68029 0.0715226 -7.21652 83.0771
12648494 29.4859 32.0063 11.7076 9.68981 0.151566 -7.25569 82.8897
12648500 29.6254 32.123 11.6765 9.61366 0.130895 -7.30835 83.0386
12648509 29.6254 32.123 11.6765 9.61366 0.130895 -7.30835 83.0386
12648519 29.6553 32.2689 11.4997 9.53751 0.196287 -7.39265 82.9614
12648530 29.7151 32.3467 11.3957 9.53751 0.232953 -7.43332 82.995
12648543 29.7151 32.3467 11.3957 9.53751 0.232953 -7.43332 82.995
12648550 29.7251 32.4537 11.3541 9.57559 0.28578 -7.44491 83.1085
12648570 29.7151 32.3856 11.3229 9.60414 0.286552 -7.43853 83.0278
12648580 29.755 32.512 11.3437 9.58511 0.300017 -7.45317 83.1958
12648601 29.7849 32.6093 11.3125 9.51848 0.309503 -7.49109 83.2252
12648612 29.7649 32.6093 11.2813 9.62318 0.356078 -7.46944 83.2787
12648633 29.6653 32.5412 11.2709 9.60414 0.363824 -7.4622 83.0816
12648641 29.6952 32.5412 11.3021 9.60414 0.345188 -7.45648 83.1427
12648656 29.6952 32.5023 11.3021 9.67077 0.353411 -7.43496 83.1704
12648661 29.6254 32.512 11.3541 9.68029 0.364527 -7.41291 83.1719
12648671 29.6254 32.512 11.3541 9.68029 0.364527 -7.41291 83.1719
12648682 29.5657 32.6287 11.4373 9.74692 0.411582 -7.37782 83.3786
12648691 29.5158 32.5801 11.4061 9.80403 0.438797 -7.36185 83.3061
12648704 29.5158 32.5801 11.4061 9.80403 0.438797 -7.36185 83.3061
12648711 29.4859 32.512 11.4477 9.72788 0.392631 -7.36214 83.1735
12648723 29.4859 32.512 11.4477 9.72788 0.392631 -7.36214 83.1735
12648731 29.4261 32.4926 11.5517 9.75644 0.381842 -7.31926 83.2268
12648746 29.3265 32.2981 11.6453 9.86114 0.3571 -7.23885 83.131
12648751 29.3265 32.2981 11.6453 9.86114 0.3571 -7.23885 83.131
12648761 29.2468 32.1716 11.7492 9.96585 0.34326 -7.16378 83.1335
12648771 29.0774 31.9966 11.9468 10.1086 0.325105 -7.04057 83.1293
12648794 28.8681 31.7826 12.1547 10.2514 0.304359 -6.90694 83.0569
12648805 28.8681 31.7826 12.1547 10.2514 0.304359 -6.90694 83.0569
12648818 28.7585 31.627 12.3211 10.3847 0.280434 -6.80211 83.0913
12648823 28.629 31.5492 12.5602 10.6417 0.30033 -6.652 83.3801
12648843 28.4396 31.3644 12.7994 10.7749 0.269949 -6.51783 83.3783
12648852 28.1307 31.1991 13.0697 11.0605 0.317255 -6.32631 83.46
12648874 27.9414 30.9851 13.3193 11.2413 0.289208 -6.17447 83.4871
12648884 27.6325 30.5378 13.6832 11.5649 0.235876 -5.91994 83.4184
12648905 27.4033 30.2363 13.9847 11.8886 0.220582 -5.70564 83.5128
12648917 27.4033 30.2363 13.9847 11.8886 0.220582 -5.70564 83.5128
12648925 27.0645 29.9445 14.3278 12.2027 0.225905 -5.47259 83.5395
12648942 26.7157 29.6527 14.6813 12.5263 0.233921 -5.23369 83.5761
12648945 26.7157 29.6527 14.6813 12.5263 0.233921 -5.23369 83.5761
12648955 26.2972 29.3026 15.0037 12.8499 0.25515 -4.98713 83.4534
12648966 25.7989 28.9039 15.482 13.2212 0.253025 -4.67587 83.406
12648976 25.7989 28.9039 15.482 13.2212 0.253025 -4.67587 83.406
12648989 25.221 28.3398 16.1162 13.7828 0.23526 -4.25268 83.4598
12648997 25.221 28.3398 16.1162 13.7828 0.23526 -4.25268 83.4598
12649006 24.4836 27.5423 16.896 14.3348 0.149402 -3.74656 83.2568
12649017 23.8757 26.7351 17.6891 15.1439 0.0941485 -3.19579 83.4438
12649036 23.1782 26.2586 18.4372 15.8673 0.152409 -2.71055 83.7412
12649046 22.4607 25.9474 19.2148 16.3432 0.183123 -2.29558 83.9661
12649056 22.4607 25.9474 19.2148 16.3432 0.183123 -2.29558 83.9661
12649066 21.813 25.6556 19.8842 16.7906 0.222531 -1.92419 84.1434
12649087 21.2948 25.2569 20.5536 17.039 0.132936 -1.59711 84.1442
12649097 20.9361 25.004 21.0162 17.4481 0.148043 -1.32856 84.4045
12649117 20.6671 24.6928 21.3214 17.7794 0.143182 -1.1116 84.4606
12649129 20.4179 24.2941 21.597 18.0716 0.103924 -0.896539 84.3806
12649149 20.0592 23.7981 21.7939 18.4126 0.10635 -0.651433 84.0637
12649159 19.6805 23.2632 22.0006 18.851 0.129196 -0.374503 83.7953
12649169 19.6805 23.2632 22.0006 18.851 0.129196 -0.374503 83.7953
12649180 19.2122 22.8644 22.3746 19.2309 0.151923 -0.0844306 83.6822
12649204 18.6442 22.4754 22.6896 19.5914 0.219715 0.208892 83.4006
12649215 18.0662 22.0086 23.1228 19.9519 0.231946 0.541159 83.1494
12649219 18.0662 22.0086 23.1228 19.9519 0.231946 0.541159 83.1494
12649229 17.6178 21.5418 23.6838 20.4487 0.206745 0.895579 83.2921
12649239 17.1993 20.9485 24.1268 21.0527 0.202551 1.2658 83.3273
12649260 16.7093 20.3358 24.6879 21.7542 0.207442 1.68833 83.4872
12649270 16.7093 20.3358 24.6879 21.7542 0.207442 1.68833 83.4872
12649280 16.3482 19.7231 25.1604 22.4556 0.200185 2.06925 83.6873
12649293 15.9254 19.2563 25.7018 23.0206 0.193599 2.42075 83.9041
12649300 15.9254 19.2563 25.7018 23.0206 0.193599 2.42075 83.9041
12649310 15.4762 18.7895 26.0857 23.6052 0.247976 2.75593 83.9565
12649320 15.1062 18.4685 26.4696 24.0533 0.281224 3.02294 84.0976
12649331 15.1062 18.4685 26.4696 24.0533 0.281224 3.02294 84.0976
12649347 14.8596 18.099 26.9126 24.3456 0.199595 3.25937 84.2167
12649361 14.6218 17.8169 27.0996 24.6963 0.235012 3.44701 84.2346
12649374 14.4368 17.4668 27.2768 25.1249 0.260416 3.64712 84.3053
12649382 14.4368 17.4668 27.2768 25.1249 0.260416 3.64712 84.3053
12649402 14.2254 17.0973 27.4441 25.4562 0.262368 3.84295 84.2229
12649405 13.9699 16.7974 27.5229 25.7289 0.307521 4.01417 84.0192
12649412 13.9699 16.7974 27.5229 25.7289 0.307521 4.01417 84.0192
12649427 13.7497 16.4751 27.7197 25.9822 0.29425 4.19601 83.9268
12649432 13.5648 16.3185 27.8576 26.0991 0.296798 4.30703 83.84
12649452 13.415 16.162 27.9954 26.2063 0.285837 4.40888 83.7787
12649462 13.415 16.162 27.9954 26.2063 0.285837 4.40888 83.7787
12649472 13.1948 15.9502 28.1922 26.4791 0.310853 4.56826 83.8163
12649482 13.0363 15.7107 28.3891 26.8298 0.332022 4.72905 83.9659
12649495 13.0363 15.7107 28.3891 26.8298 0.332022 4.72905 83.9659
12649502 12.9218 15.4345 28.5171 27.0734 0.318342 4.86634 83.9467
12649512 12.9218 15.4345 28.5171 27.0734 0.318342 4.86634 83.9467
12649522 12.6839 15.149 28.6943 27.3072 0.321448 5.04003 83.8343
12649534 12.5782 14.9095 28.901 27.6676 0.326547 5.18952 84.0564
12649543 12.5782 14.9095 28.901 27.6676 0.326547 5.18952 84.0564
12649553 12.4021 14.5964 29.0585 27.8917 0.306007 5.35178 83.9487
12649564 12.2876 14.3846 29.3636 28.2521 0.292322 5.50676 84.288
12649579 12.2876 14.3846 29.3636 28.2521 0.292322 5.50676 84.288
12649587 12.085 14.1268 29.5014 28.5249 0.316146 5.66513 84.2381
12649594 11.9176 13.8044 29.7279 28.8074 0.286746 5.84161 84.2574
12649603 11.9176 13.8044 29.7279 28.8074 0.286746 5.84161 84.2574
12649614 11.7591 13.6939 29.8361 29.0315 0.335106 5.94421 84.3206
12649625 11.7591 13.6939 29.8361 29.0315 0.335106 5.94421 84.3206
12649635 11.6181 13.4637 29.9641 29.1971 0.320089 6.06805 84.2431
12649645 11.4508 13.3072 30.161 29.314 0.2996 6.18234 84.2329
12649665 11.3803 13.123 30.3677 29.5868 0.284693 6.29626 84.4578
12649679 11.2041 13.123 30.7221 29.5868 0.231454 6.37703 84.636
12649685 11.2041 12.8835 30.7221 30.1032 0.312227 6.48975 84.9129
12649695 11.0016 12.4139 31.1749 30.6974 0.274032 6.76361 85.2877
12649705 11.0016 12.4139 31.1749 30.6974 0.274032 6.76361 85.2877
12649715 10.6756 11.8521 31.4308 31.1553 0.264636 7.05966 85.1139
12649725 10.3674 11.4469 31.7458 31.5352 0.255299 7.30947 85.0953
12649735 10.3674 11.4469 31.7458 31.5352 0.255299 7.30947 85.0953
12649746 10.0943 11.0141 32.051 31.7788 0.190616 7.54456 84.9381
12649757 10.0943 11.0141 32.051 31.7788 0.190616 7.54456 84.9381
12649768 9.79482 10.572 32.3167 32.0029 0.136787 7.78508 84.6865
12649775 9.5658 10.2589 32.9074 32.1393 -0.022082 7.99242 84.8714
12649795 9.1342 9.84453 33.5078 32.5582 -0.0703514 8.30515 85.0447
12649806 8.75544 9.44854 33.9902 32.8309 -0.13705 8.57696 85.0251
12649816 8.75544 9.44854 33.9902 32.8309 -0.13705 8.57696 85.0251
12649826 8.44715 9.06176 34 32.9576 -0.126617 8.78136 84.4665
12649846 8.24456 8.73944 34 32.9576 -0.163069 8.93007 83.9416
12649856 8.12124 8.64735 34 32.9673 -0.151238 8.99233 83.7359
12649866 8.12124 8.64735 34 32.9673 -0.151238 8.99233 83.7359
12649876 8.09482 8.46316 34 33.0745 -0.166547 9.06045 83.6325
12649886 8.13886 8.36186 34 33.2109 -0.169066 9.08658 83.7116
12649896 8.13886 8.36186 34 33.2109 -0.169066 9.08658 83.7116
12649910 8.15648 8.21452 34 33.4837 -0.136635 9.14308 83.8547
12649916 8.15648 8.21452 34 33.4837 -0.136635 9.14308 83.8547
12649926 8.09482 7.91983 34 33.5519 -0.186418 9.25081 83.5665
12649936 8.13886 7.85536 34 33.4544 -0.248376 9.25003 83.4487
12649957 8.19171 7.91983 34 33.4155 -0.256327 9.2133 83.527
12649966 8.20933 8.11322 34 33.4837 -0.182699 9.15704 83.8062
12649981 8.20933 8.11322 34 33.4837 -0.182699 9.15704 83.8062
12649987 8.21813 8.0948 34 33.5616 -0.167431 9.16524 83.8745
12650007 8.19171 8.17768 34 33.7175 -0.0881687 9.15983 84.0869
12650023 8.09482 8.13164 34 33.8441 -0.0354037 9.2097 84.0706
12650027 8.09482 8.13164 34 33.8441 -0.0354037 9.2097 84.0706
12650037 7.92746 7.9935 34 33.9123 -0.0064522 9.30264 83.8333
12650048 7.81295 7.77248 34 34 -0.0121057 9.40617 83.5854
12650059 7.81295 7.77248 34 34 -0.0121057 9.40617 83.5854
12650073 7.69845 7.62514 34 34 -0.0219941 9.48287 83.3236
12650080 7.5399 7.43174 34 34 -0.0325873 9.58671 82.9716
12650089 7.5399 7.43174 34 34 -0.0325873 9.58671 82.9716
12650101 7.38135 7.26598 34 34 -0.034897 9.6832 82.6473
12650125 7.1171 6.98971 34 34 -0.0387877 9.84569 82.1068
12650130 6.9057 6.72264 34 34 -0.0560626 9.99132 81.6283
12650141 6.9057 6.72264 34 34 -0.0560626 9.99132 81.6283
12650151 6.74715 6.5753 34 34 -0.0528306 10.0853 81.3224
12650165 6.59741 6.36349 34 34 -0.0722334 10.1973 80.9609
12650182 6.55337 6.32665 34 34 -0.0700772 10.2225 80.88
12650197 6.55337 6.32665 34 34 -0.0700772 10.2225 80.88
12650202 6.56218 6.20693 34 34 -0.109957 10.2572 80.7691
12650221 6.54456 6.22535 34 34 -0.0988007 10.2569 80.7699
12650235 6.54456 6.22535 34 34 -0.0988007 10.2569 80.7699
12650244 6.55337 6.19772 34 34 -0.110105 10.2628 80.7511
12650245 6.51813 6.11484 34 34 -0.125042 10.2998 80.633
12650251 6.51813 6.11484 34 34 -0.125042 10.2998 80.633
12650261 6.49171 6.10563 34 34 -0.119755 10.311 80.5973
12650272 6.3772 5.99512 34 34 -0.118847 10.3819 80.3723
12650284 6.3772 5.99512 34 34 -0.118847 10.3819 80.3723
12650295 6.31554 5.84778 34 34 -0.145879 10.448 80.1633
12650302 6.31554 5.84778 34 34 -0.145879 10.448 80.1633
12650312 6.19223 5.67281 34 34 -0.162594 10.5431 79.865
12650323 6.07772 5.6636 34 34 -0.129834 10.5827 79.7413
12650332 6.07772 5.6636 34 34 -0.129834 10.5827 79.7413
12650344 6.02487 5.53467 34 34 -0.154036 10.6412 79.5595
12650354 5.88394 5.36891 34 34 -0.162466 10.7404 79.2528
12650374 5.83109 5.39653 34 34 -0.137122 10.7486 79.2276
12650388 5.83109 5.39653 34 34 -0.137122 10.7486 79.2276
12650394 5.75181 5.28602 34 34 -0.147334 10.8104 79.0378
12650404 5.65492 5.29523 34 34 -0.113897 10.8391 78.9502
12650414 5.65492 5.29523 34 34 -0.113897 10.8391 78.9502
12650424 5.60207 5.11105 34 34 -0.155953 10.9169 78.7131
12650436 5.45233 5.07421 34 34 -0.120381 10.9785 78.5266
12650445 5.45233 5.07421 34 34 -0.120381 10.9785 78.5266
12650459 5.36425 5.04659 34 34 -0.101282 11.0168 78.4108
12650465 5.36425 5.04659 34 34 -0.101282 11.0168 78.4108
12650475 5.3114 4.91766 34 34 -0.125828 11.0773 78.2291
12650486 5.22332 4.77952 34 34 -0.142236 11.1529 78.0028
12650495 5.22332 4.77952 34 34 -0.142236 11.1529 78.0028
12650506 5.26736 4.74269 34 34 -0.16814 11.1505 78.01
12650515 5.32021 4.66901 34 34 -0.208744 11.1575 77.9892
12650527 5.32021 4.66901 34 34 -0.208744 11.1575 77.9892
12650535 5.28497 4.5493 34 34 -0.236297 11.2095 77.8343
12650550 5.28497 4.5493 34 34 -0.236297 11.2095 77.8343
12650556 5.24093 4.53088 34 34 -0.228252 11.2306 77.7718
12650566 5.33782 4.57692 34 34 -0.244145 11.1825 77.9147
12650579 5.33782 4.57692 34 34 -0.244145 11.1825 77.9147
12650586 5.46114 4.5493 34 34 -0.292218 11.1503 78.0104
12650596 5.55803 4.5493 34 34 -0.322868 11.1179 78.1073
12650608 5.55803 4.5493 34 34 -0.322868 11.1179 78.1073
12650617 5.69016 4.63218 34 34 -0.337699 11.0462 78.3223
12650627 5.69016 4.63218 34 34 -0.337699 11.0462 78.3223
12650639 5.70777 4.60455 34 34 -0.352187 11.0495 78.3123
12650647 5.65492 4.54009 34 34 -0.356428 11.0886 78.195
12650668 5.54922 4.50325 34 34 -0.335023 11.1363 78.0525
12650683 5.53161 4.42037 34 34 -0.356385 11.17 77.952
12650690 5.53161 4.42037 34 34 -0.356385 11.17 77.952
12650700 5.47876 4.39274 34 34 -0.348656 11.197 77.8715
12650710 5.50518 4.36511 34 34 -0.366016 11.1974 77.8703
12650720 5.50518 4.36511 34 34 -0.366016 11.1974 77.8703
12650730 5.54922 4.31907 34 34 -0.394948 11.1981 77.8683
12650740 5.54922 4.31907 34 34 -0.394948 11.1981 77.8683
12650751 5.64611 4.29144 34 34 -0.434536 11.1748 77.9376
12650760 5.70777 4.33749 34 34 -0.438939 11.1387 78.0453
12650774 5.70777 4.33749 34 34 -0.438939 11.1387 78.0453
12650780 5.83109 4.30986 34 34 -0.486693 11.1067 78.1409
12650796 5.99845 4.3467 34 34 -0.527075 11.0386 78.3451
12650801 5.99845 4.3467 34 34 -0.527075 11.0386 78.3451
12650811 6.14819 4.33749 34 34 -0.576761 10.992 78.4857
12650821 6.14819 4.33749 34 34 -0.576761 10.992 78.4857
12650836 6.25389 4.41116 34 34 -0.585625 10.9327 78.665
12650845 6.34197 4.46641 34 34 -0.594972 10.8856 78.8084
12650864 6.44767 4.50325 34 34 -0.615706 10.8388 78.9509
12650872 6.42124 4.56771 34 34 -0.586642 10.8264 78.989
12650892 6.43886 4.51246 34 34 -0.609995 10.8387 78.9513
12650904 6.41244 4.448 34 34 -0.622758 10.8685 78.8604
12650924 6.34197 4.41116 34 34 -0.612931 10.9037 78.7531
12650934 6.34197 4.41116 34 34 -0.612931 10.9037 78.7531
12650944 6.26269 4.37432 34 34 -0.600345 10.942 78.637
12650954 6.2715 4.32828 34 34 -0.618075 10.9543 78.5998
12650964 6.2715 4.32828 34 34 -0.618075 10.9543 78.5998
12650975 6.31554 4.27302 34 34 -0.64975 10.958 78.5886
12650984 6.45648 4.30065 34 34 -0.684327 10.9024 78.7571
12651000 6.45648 4.30065 34 34 -0.684327 10.9024 78.7571
12651005 6.76477 4.3467 34 34 -0.764136 10.7864 79.1115
12651014 6.76477 4.3467 34 34 -0.764136 10.7864 79.1115
12651024 7.02021 4.32828 34 34 -0.848134 10.7094 79.3485
12651034 7.25803 4.36511 34 34 -0.908317 10.6207 79.6231
12651044 7.25803 4.36511 34 34 -0.908317 10.6207 79.6231
12651054 7.50466 4.41116 34 34 -0.967737 10.5269 79.9158
12651066 7.74249 4.41116 34 34 -1.03904 10.4511 80.1536
12651095 8.00674 4.41116 34 34 -1.11778 10.3675 80.4179
12651105 8.24456 4.41116 34 34 -1.1882 10.2927 80.6557
12651123 8.46477 4.38353 34 34 -1.262 10.2324 80.8483
12651135 8.49119 4.38353 34 34 -1.26976 10.2242 80.8747
12651150 8.45596 4.30065 34 34 -1.28637 10.2611 80.7566
12651156 8.45596 4.30065 34 34 -1.28637 10.2611 80.7566
12651166 8.40311 4.32828 34 34 -1.26185 10.269 80.7314
12651179 8.40311 4.32828 34 34 -1.26185 10.269 80.7314
12651186 8.48238 4.27302 34 34 -1.30312 10.2615 80.7554
12651196 8.65855 4.3559 34 34 -1.32774 10.1807 81.0145
12651209 8.65855 4.3559 34 34 -1.32774 10.1807 81.0145
12651216 8.77306 4.3467 34 34 -1.36414 10.148 81.1198
12651236 8.89637 4.448 34 34 -1.36714 10.0786 81.3444
12651238 8.89637 4.448 34 34 -1.36714 10.0786 81.3444
12651249 8.90518 4.42037 34 34 -1.37866 10.0844 81.3255
12651258 9.00207 4.51246 34 34 -1.37694 10.0262 81.5145
12651282 9.14301 4.58613 34 34 -1.3939 9.9605 81.7291
12651287 9.14301 4.58613 34 34 -1.3939 9.9605 81.7291
12651297 9.41606 4.69664 33.7933 34 -1.3774 9.83089 81.906
12651310 9.68031 4.77952 33.4488 34 -1.32756 9.70391 81.9086
12651319 9.68031 4.77952 33.4488 34 -1.32756 9.70391 81.9086
12651329 9.9886 4.86241 33.1239 34 -1.29616 9.56504 81.9749
12651339 10.1383 5.11105 33.0058 34 -1.22579 9.43826 82.2552
12651359 10.3497 5.24919 32.7302 34 -1.16323 9.31589 82.3291
12651369 10.3497 5.24919 32.7302 34 -1.16323 9.31589 82.3291
12651379 10.5699 5.48862 32.6022 34 -1.11405 9.17188 82.6608
12651389 10.7725 5.78332 32.2872 34 -0.988746 9.00462 82.8431
12651399 10.7725 5.78332 32.2872 34 -0.988746 9.00462 82.8431
12651408 11.072 6.16089 31.8738 34 -0.837748 8.77923 83.1067
12651420 11.4772 6.75948 31.4111 33.4934 -0.792456 8.41962 83.1412
12651429 11.4772 6.75948 31.4111 33.4934 -0.792456 8.41962 83.1412
12651443 11.9264 7.57909 31.0666 33.2499 -0.645436 8.01895 83.822
12651469 12.2964 8.3987 30.8205 33.0355 -0.497521 7.65708 84.5511
12651470 12.5959 9.06176 30.476 32.5289 -0.437364 7.32567 84.6625
12651480 12.5959 9.06176 30.476 32.5289 -0.437364 7.32567 84.6625
12651490 12.8073 9.63272 30.161 31.9542 -0.408417 7.03834 84.5551
12651500 13.0891 10.3326 29.6294 30.9702 -0.421239 6.63722 84.0213
12651512 13.0891 10.3326 29.6294 30.9702 -0.421239 6.63722 84.0213
12651521 13.5295 11.2075 28.9797 29.5284 -0.532593 6.08524 83.2451
12651530 13.5295 11.2075 28.9797 29.5284 -0.532593 6.08524 83.2451
12651540 14.0404 12.3586 28.2907 28.0281 -0.587662 5.42563 82.7178
12651550 14.7979 13.5374 27.641 26.7908 -0.637548 4.72951 82.7671
12651560 14.7979 13.5374 27.641 26.7908 -0.637548 4.72951 82.7671
12651571 15.4057 14.5504 26.9519 25.8751 -0.583507 4.14413 82.7831
12651582 15.8373 15.3516 26.381 25.1347 -0.523575 3.68664 82.7046
12651605 16.1544 16.162 26.0266 24.6378 -0.416134 3.31668 82.9808
12651621 16.4363 16.7053 25.7313 24.1994 -0.38005 3.03155 83.0723
12651632 16.7005 17.3987 25.5049 23.7415 -0.319497 2.72609 83.3457
12651652 17.0897 17.8461 25.2096 23.3811 -0.320886 2.4522 83.5265
12651662 17.568 18.4588 24.806 22.9719 -0.281394 2.10331 83.8047
12651673 17.568 18.4588 24.806 22.9719 -0.281394 2.10331 83.8047
12651682 17.9566 18.9354 24.3335 22.5335 -0.245127 1.78639 83.759
12651695 18.2755 18.9354 23.7331 22.0269 -0.315253 1.54557 82.9708
12651703 18.2755 19.3924 23.7331 22.0269 -0.176553 1.45492 83.4279
12651712 18.5944 19.8495 23.1621 21.608 -0.0898108 1.14035 83.2141
12651722 18.5944 19.8495 23.1621 21.608 -0.0898108 1.14035 83.2141
12651732 18.8335 20.2094 22.6896 21.1404 -0.0523031 0.866472 82.8729
12651742 19.1125 20.6081 22.2959 20.7994 -0.000265241 0.611231 82.816
12651752 19.1125 20.6081 22.2959 20.7994 -0.000265241 0.611231 82.816
12651764 19.3218 20.9971 22.0301 20.439 0.0254244 0.389573 82.788
12651786 19.4812 21.2889 21.6757 20.0298 0.0490218 0.170122 82.4757
12651794 19.7902 21.7752 21.2229 19.6206 0.116104 -0.131375 82.4089
12651804 19.7902 21.7752 21.2229 19.6206 0.116104 -0.131375 82.4089
12651815 20.1688 22.2225 20.6815 19.153 0.159684 -0.466425 82.2259
12651824 20.5176 22.7769 20.15 18.6951 0.244844 -0.812526 82.1396
12651850 20.7966 23.4479 19.6578 18.3639 0.412515 -1.13464 82.2662
12651856 20.7966 23.4479 19.6578 18.3639 0.412515 -1.13464 82.2662
12651864 21.0955 23.9245 19.2444 18.0521 0.497085 -1.40741 82.3165
12651874 21.4244 24.5469 18.8309 17.7501 0.618318 -1.70623 82.5524
12651894 21.8529 25.1888 18.4962 17.5261 0.712028 -1.98991 83.064
12651905 22.102 25.8015 18.1714 17.1851 0.814676 -2.26045 83.26
12651914 22.102 25.8015 18.1714 17.1851 0.814676 -2.26045 83.26
12651928 22.4607 26.3947 17.7973 16.9905 0.934672 -2.52279 83.6433
12651935 22.4607 26.3947 17.7973 16.9905 0.934672 -2.52279 83.6433
12651952 22.6202 26.9102 17.4528 16.6573 1.04451 -2.76544 83.6405
12651955 22.9191 27.4256 17.0689 16.3527 1.13123 -3.03041 83.7664
12651975 23.2081 27.8535 16.8024 15.972 1.13764 -3.27195 83.8361
12651985 23.5768 28.2328 16.3969 15.5722 1.14329 -3.55229 83.7788
12651999 23.5768 28.2328 16.3969 15.5722 1.14329 -3.55229 83.7788
12652006 23.8658 28.6413 15.9602 15.0582 1.15938 -3.85905 83.5255
12652016 23.9654 28.8358 15.6171 14.6489 1.17441 -4.06932 83.0673
12652026 23.9654 28.8358 15.6171 14.6489 1.17441 -4.06932 83.0673
12652036 24.1846 29.0692 15.3156 14.3539 1.18267 -4.26618 82.9233
12652056 24.2843 29.1762 14.9933 14.0969 1.21002 -4.42826 82.5506
12652069 24.4936 29.361 14.8789 13.9065 1.17831 -4.55031 82.6399
12652089 24.5733 29.5458 14.7021 13.7542 1.21845 -4.66169 82.5754
12652096 24.6829 29.6236 14.5774 13.6114 1.20454 -4.74894 82.4952
12652113 24.6829 29.6236 14.5774 13.6114 1.20454 -4.74894 82.4952
12652117 24.7726 29.7014 14.567 13.5924 1.19631 -4.77675 82.6333
12652139 24.8822 29.9056 14.6502 13.6305 1.20495 -4.78651 83.0684
12652147 25.0018 30.0418 14.5462 13.6114 1.23353 -4.84716 83.2011
12652162 25.0018 30.0418 14.5462 13.6114 1.23353 -4.84716 83.2011
12652167 25.1811 30.2168 14.5878 13.4972 1.18142 -4.90753 83.4829
12652177 25.2907 30.2752 14.567 13.3925 1.14036 -4.95773 83.5254
12652199 25.5 30.4016 14.5982 13.3163 1.07968 -5.00866 83.8161
12652213 25.5 30.4016 14.5982 13.3163 1.07968 -5.00866 83.8161
12652219 25.5399 30.3433 14.5254 13.1926 1.03785 -5.05348 83.6011
12652229 25.5498 30.2654 14.4942 13.1069 0.997522 -5.07349 83.4164
12652239 25.5498 30.2654 14.4942 13.1069 0.997522 -5.07349 83.4164
12652249 25.6196 30.246 14.4942 12.9927 0.937268 -5.10699 83.3525
12652262 25.6594 30.1487 14.5566 12.888 0.847045 -5.11039 83.2528
12652279 25.6694 30.1682 14.619 12.7738 0.797072 -5.12641 83.2303
12652290 25.6694 30.1682 14.619 12.7738 0.797072 -5.12641 83.2303
12652299 25.5698 29.964 14.6606 12.7643 0.752765 -5.08246 82.9585
12652317 25.6893 29.9153 14.7541 12.7548 0.669754 -5.07061 83.1136
12652319 25.6893 29.9153 14.7541 12.7548 0.669754 -5.07061 83.1136
12652329 25.6893 29.9834 14.7749 12.6501 0.652608 -5.09901 83.0977
12652339 25.6794 29.9834 14.8373 12.6405 0.633645 -5.08505 83.1406
12652349 25.6794 29.9834 14.8373 12.6405 0.633645 -5.08505 83.1406
12652363 25.7491 29.9348 14.9829 12.6405 0.553173 -5.05247 83.3073
12652371 25.7491 29.9348 14.9829 12.6405 0.553173 -5.05247 83.3073
12652380 25.8089 29.9153 15.0972 12.5739 0.474575 -5.0458 83.3954
12652390 25.8189 29.8862 15.1492 12.631 0.46387 -5.01731 83.4853
12652400 25.8189 29.8862 15.1492 12.631 0.46387 -5.01731 83.4853
12652410 25.779 29.857 15.1908 12.6025 0.446367 -5.00592 83.4293
12652420 25.7989 29.7597 15.2844 12.5549 0.36909 -4.98562 83.3979
12652433 25.7989 29.7597 15.2844 12.5549 0.36909 -4.98562 83.3979
12652440 25.8587 29.7986 15.326 12.5644 0.352579 -4.98523 83.5477
12652460 25.8787 29.7403 15.378 12.5168 0.299481 -4.97957 83.5137
12652470 25.8687 29.7208 15.3364 12.4597 0.292441 -4.99968 83.3856
12652482 25.8687 29.7208 15.3364 12.4597 0.292441 -4.99968 83.3856
12652492 25.9484 29.7208 15.3572 12.4311 0.253528 -5.0111 83.4576
12652502 25.9683 29.7208 15.3052 12.3835 0.249112 -5.03738 83.3779
12652511 25.9683 29.7208 15.3052 12.3835 0.249112 -5.03738 83.3779
12652525 25.9683 29.7889 15.2636 12.3074 0.259319 -5.07383 83.3282
12652531 25.9683 29.7889 15.2636 12.3074 0.259319 -5.07383 83.3282
12652548 25.9683 29.7208 15.2116 12.2788 0.246364 -5.08515 83.1796
12652552 26.0281 29.8084 15.2428 12.2122 0.224999 -5.11123 83.2915
12652562 26.0281 29.8084 15.2428 12.2122 0.224999 -5.11123 83.2915
12652573 26.058 29.7305 15.1804 12.2598 0.225851 -5.10911 83.2288
12652584 26.0281 29.7111 15.2636 12.2312 0.195411 -5.09005 83.2341
12652596 26.0281 29.7111 15.2636 12.2312 0.195411 -5.09005 83.2341
12652602 25.9883 29.6041 15.274 12.2693 0.183782 -5.06083 83.1357
12652612 25.9086 29.6041 15.378 12.3645 0.204816 -5.00333 83.2552
12652622 25.9086 29.5555 15.378 12.3645 0.190327 -4.99749 83.2065
12652632 25.8787 29.4777 15.5235 12.4882 0.169045 -4.91997 83.3681
12652654 25.8189 29.4096 15.6275 12.5549 0.155279 -4.86377 83.4109
12652666 25.7591 29.3707 15.7731 12.6405 0.143358 -4.79682 83.5434
12652674 25.7591 29.3707 15.7731 12.6405 0.143358 -4.79682 83.5434
12652689 25.6893 29.3415 15.9187 12.7357 0.14019 -4.7278 83.6852
12652694 25.5698 29.3415 15.8875 12.8404 0.21663 -4.69578 83.6392
12652704 25.5698 29.254 15.8875 12.8404 0.190666 -4.68498 83.5516
12652714 25.4203 29.1081 16.0122 12.869 0.163227 -4.61227 83.4096
12652724 25.4203 29.1081 16.0122 12.869 0.163227 -4.61227 83.4096
12652737 25.3107 29.0011 16.1474 12.9642 0.152007 -4.53115 83.4234
12652752 25.1114 28.8455 16.1994 13.0879 0.187007 -4.44528 83.2442
12652772 24.9519 28.7094 16.3761 13.1831 0.169548 -4.34425 83.2206
12652775 24.8423 28.5732 16.5321 13.383 0.174537 -4.23022 83.3306
12652786 24.8423 28.5732 16.5321 13.383 0.174537 -4.23022 83.3306
12652797 24.7028 28.5051 16.7401 13.5733 0.190258 -4.11174 83.5214
12652808 24.7028 28.5051 16.7401 13.5733 0.190258 -4.11174 83.5214
12652816 24.5633 28.4079 16.8024 13.7637 0.241169 -4.02306 83.5374
12652832 24.4437 28.3593 16.896 13.7828 0.240251 -3.97528 83.4818
12652846 24.2843 28.2912 17.0394 13.9255 0.267255 -3.88026 83.5404
12652856 24.1747 28.1356 17.0787 14.0017 0.264969 -3.81874 83.3907
12652867 24.1747 28.1356 17.0787 14.0017 0.264969 -3.81874 83.3907
12652880 24.095 28.0578 17.187 14.1064 0.264296 -3.7496 83.4462
12652903 23.8658 27.873 17.2756 14.3443 0.322688 -3.62028 83.3587
12652909 23.786 27.7952 17.3544 14.4966 0.345016 -3.54723 83.4323
12652917 23.786 27.7952 17.3544 14.4966 0.345016 -3.54723 83.4323
12652927 23.5967 27.6882 17.4725 14.6585 0.382859 -3.4443 83.4159
12652937 23.517 27.6201 17.6005 14.687 0.356513 -3.38923 83.4246
12652950 23.517 27.6201 17.6005 14.687 0.356513 -3.38923 83.4246
12652957 23.4472 27.5618 17.6792 14.8583 0.387111 -3.31638 83.5466
12652971 23.4472 27.5618 17.6792 14.8583 0.387111 -3.31638 83.5466
12652977 23.3775 27.4743 17.6694 15.0392 0.438783 -3.2569 83.5603
12652988 23.3376 27.4548 17.7481 15.0582 0.426829 -3.22722 83.5988
12653000 23.3376 27.4548 17.7481 15.0582 0.426829 -3.22722 83.5988
12653009 23.2479 27.4062 17.7678 15.1153 0.450629 -3.19097 83.5373
12653019 23.2081 27.3867 17.8564 15.0677 0.41607 -3.17365 83.519
12653041 23.1882 27.4354 17.8466 15.0297 0.428241 -3.18815 83.4997
12653049 23.1084 27.3381 17.817 15.1058 0.455341 -3.1529 83.3694
12653064 23.1084 27.3381 17.817 15.1058 0.455341 -3.1529 83.3694
12653070 23.0885 27.2408 17.758 15.0963 0.448009 -3.15118 83.1836
12653080 23.0885 27.2408 17.758 15.0963 0.448009 -3.15118 83.1836
12653092 23.0088 27.1533 17.8958 15.0202 0.381845 -3.11385 83.078
12653102 22.949 27.1339 17.9548 15.2296 0.438225 -3.04414 83.2673
12653110 22.949 27.1339 17.9548 15.2296 0.438225 -3.04414 83.2673
12653120 22.9689 27.0561 17.9942 15.2962 0.416824 -3.01288 83.3154
12653137 22.8394 26.9588 18.1025 15.3628 0.414273 -2.94239 83.2635
12653140 22.8394 26.9588 18.1025 15.3628 0.414273 -2.94239 83.2635
12653150 22.8294 26.9199 18.1714 15.477 0.418517 -2.89592 83.3978
12653171 22.7597 26.7838 18.2403 15.5532 0.401074 -2.83487 83.3369
12653187 22.6202 26.7351 18.3978 15.6579 0.412133 -2.75136 83.411
12653191 22.6202 26.7351 18.3978 15.6579 0.412133 -2.75136 83.411
12653201 22.5006 26.6281 18.6242 15.7436 0.373346 -2.65178 83.4965
12653212 22.3411 26.4823 18.7522 15.8007 0.356701 -2.56738 83.3763
12653221 22.3411 26.4823 18.7522 15.8007 0.356701 -2.56738 83.3763
12653232 22.2714 26.3267 18.9392 15.953 0.32011 -2.46242 83.4902
12653242 22.2714 26.3267 18.9392 15.953 0.32011 -2.46242 83.4902
12653254 22.0522 26.0933 19.0967 16.1433 0.326112 -2.32152 83.3855
12653262 22.0223 25.9863 19.3822 16.2956 0.262132 -2.21017 83.6863
12653277 22.0223 25.9863 19.3822 16.2956 0.262132 -2.21017 83.6863
12653282 21.823 25.782 19.52 16.3527 0.23714 -2.10816 83.4777
12653292 21.7831 25.6556 19.6381 16.4194 0.195745 -2.04463 83.4962
12653311 21.7831 25.6556 19.6381 16.4194 0.195745 -2.04463 83.4962
12653312 21.6336 25.5973 19.707 16.505 0.228193 -1.98079 83.4429
12653324 21.6336 25.5973 19.707 16.505 0.228193 -1.98079 83.4429
12653332 21.524 25.3638 19.9531 16.5431 0.128871 -1.86936 83.3841
12653347 21.4045 25.3347 20.1204 16.724 0.159642 -1.77572 83.5835
12653364 21.255 25.0429 20.209 16.8191 0.119418 -1.66869 83.3261
12653374 21.1354 24.9262 20.5142 16.9524 0.0685453 -1.54349 83.5282
12653396 21.1354 24.9262 20.5142 16.9524 0.0685453 -1.54349 83.5282
12653412 20.8962 24.6928 20.7012 17.1461 0.0723481 -1.39178 83.4364
12653421 20.697 24.4983 20.9079 17.3897 0.0847638 -1.2392 83.4929
12653425 20.5574 24.3427 21.2032 17.604 0.0555515 -1.09182 83.7074
12653436 20.5574 24.3427 21.2032 17.604 0.0555515 -1.09182 83.7074
12653448 20.3681 24.1287 21.4198 17.6819 0.00680387 -0.968033 83.5986
12653456 20.1688 23.9245 21.6757 17.8086 -0.0333458 -0.827188 83.5776
12653476 19.8599 23.7689 21.9218 17.906 -0.0320047 -0.683159 83.4566
12653486 19.4215 23.4966 22.2368 18.1691 0.00220239 -0.452235 83.3239
12653507 19.1524 23.3312 22.5814 18.4029 0.000104308 -0.269459 83.4679
12653519 18.7339 23.0103 22.8471 18.6756 0.031504 -0.0398836 83.267
12653529 18.7339 23.0103 22.8471 18.6756 0.031504 -0.0398836 83.267
12653539 18.4349 22.7866 23.1917 19.1238 0.0849336 0.196422 83.537
12653553 18.4349 22.7866 23.1917 19.1238 0.0849336 0.196422 83.537
12653557 18.0762 22.4268 23.5559 19.3576 0.0456423 0.433457 83.4164
12653567 17.7673 22.1836 23.9595 19.8739 0.0987053 0.695082 83.7843
12653578 17.7673 22.1836 23.9595 19.8739 0.0987053 0.695082 83.7843
12653587 17.3687 21.7849 24.4024 20.3026 0.0943094 0.992995 83.8586
12653601 16.9648 21.2889 24.8257 20.7605 0.077197 1.31188 83.8398
12653607 16.9648 21.2889 24.8257 20.7605 0.077197 1.31188 83.8398
12653626 16.4979 20.7832 25.3179 21.3547 0.0959128 1.67798 83.9537
12653627 16.4979 20.7832 25.3179 21.3547 0.0959128 1.67798 83.9537
12653637 16.0135 20.151 25.751 21.8808 0.07976 2.05271 83.7963
12653650 15.5114 19.6259 26.3023 22.553 0.108704 2.44986 83.9925
12653675 14.9653 18.9159 26.7452 23.3616 0.168774 2.89785 83.988
12653679 14.428 18.9159 27.1488 23.3616 0.208908 3.07078 83.8543
12653689 14.428 18.3227 27.1488 24.0143 0.22648 3.29133 83.9138
12653699 14.058 17.8072 27.5327 24.5696 0.234047 3.61516 83.9676
12653722 13.6705 17.2918 27.8379 25.0275 0.241843 3.91932 83.8276
12653730 13.2301 16.7698 28.2316 25.6315 0.280106 4.26827 83.863
12653750 12.9482 16.1804 28.6451 26.3719 0.284943 4.61493 84.1455
12653760 12.5342 15.5542 29.0486 27.0831 0.312999 4.99466 84.2201
12653770 12.5342 15.5542 29.0486 27.0831 0.312999 4.99466 84.2201
12653780 12.2259 14.9556 29.5113 27.8235 0.308189 5.35163 84.5163
12653790 12.2259 14.9556 29.5113 27.8235 0.308189 5.35163 84.5163
12653800 11.8736 14.3938 29.905 28.5152 0.333697 5.69496 84.6876
12653816 11.4596 13.7676 30.3677 29.2458 0.349531 6.07957 84.8407
12653821 11.4596 13.7676 30.3677 29.2458 0.349531 6.07957 84.8407
12653831 11.1953 13.3072 30.6138 29.8401 0.393775 6.34762 84.9564
12653845 10.8959 12.8283 30.8205 30.3564 0.432375 6.61702 84.9011
12653868 10.6404 12.3954 31.0764 30.8825 0.459182 6.8692 84.9948
12653881 10.4642 11.981 31.3914 31.3696 0.43864 7.09732 85.2063
12653893 10.244 11.493 31.5883 31.9054 0.459361 7.34889 85.2307
12653902 10.244 11.493 31.5883 31.9054 0.459361 7.34889 85.2307
12653916 10.015 10.9404 31.6867 32.3049 0.454256 7.59935 84.9471
12653922 9.80363 10.4155 31.8147 32.6848 0.437322 7.84014 84.7186
12653942 9.61865 10.0379 31.9525 33.0063 0.435218 8.03085 84.6154
12653968 9.4601 9.513 32.1986 33.5032 0.400779 8.2779 84.6749
12653973 9.30155 9.02492 32.4545 34 0.374144 8.51513 84.781
12653984 9.30155 9.02492 32.4545 34 0.374144 8.51513 84.781
12653994 9.10777 8.45395 32.74 34 0.179762 8.7504 84.3017
12654004 8.98446 7.91062 32.9763 34 -0.0149325 8.95679 83.8713
12654018 8.98446 7.91062 32.9763 34 -0.0149325 8.95679 83.8713
12654025 8.86995 7.43174 33.1239 34 -0.168452 9.13788 83.4256
12654034 8.86995 7.43174 33.1239 34 -0.168452 9.13788 83.4256
12654043 8.66736 6.92524 33.2617 34 -0.302893 9.35421 82.8543
12654059 8.62332 6.48321 33.3799 34 -0.460669 9.50581 82.4864
12654065 8.62332 6.48321 33.3799 34 -0.460669 9.50581 82.4864
12654074 8.53523 6.11484 33.4389 34 -0.566247 9.64603 82.089
12654088 8.55285 5.8662 33.5373 34 -0.67841 9.72193 81.9564
12654094 8.55285 5.8662 33.5373 34 -0.67841 9.72193 81.9564
12654104 8.64093 5.64518 33.3897 34 -0.730157 9.75263 81.6758
12654116 8.78187 5.64518 33.3011 34 -0.7457 9.70426 81.7281
12654124 8.78187 5.39653 33.3011 34 -0.824267 9.77964 81.4795
12654134 8.94041 5.27681 33.0845 34 -0.845045 9.7539 81.3018
12654145 8.94041 5.27681 33.0845 34 -0.845045 9.7539 81.3018
12654159 9.15181 5.14789 33.0058 34 -0.925435 9.72371 81.3055
12654165 9.25751 5.02817 32.8778 34 -0.957072 9.71967 81.1635
12654175 9.25751 5.02817 32.8778 34 -0.957072 9.71967 81.1635
12654185 9.2487 4.91766 32.9172 34 -1.00151 9.7586 81.0836
12654195 9.2487 4.91766 32.9172 34 -1.00151 9.7586 81.0836
12654207 9.17824 4.78873 32.9369 34 -1.02788 9.8209 80.9039
12654215 9.19586 4.67822 32.9074 34 -1.05996 9.84755 80.7814
12654230 9.19586 4.67822 32.9074 34 -1.05996 9.84755 80.7814
12654235 9.0285 4.6506 32.8778 34 -1.01038 9.9058 80.5569
12654245 8.99326 4.59534 32.927 34 -1.0324 9.93691 80.5156
12654255 8.99326 4.59534 32.927 34 -1.0324 9.93691 80.5156
12654265 8.85233 4.58613 33.0353 34 -1.02565 9.99025 80.4738
12654277 8.85233 4.58613 33.0353 34 -1.02565 9.99025 80.4738
12654285 8.7114 4.48483 33.2519 34 -1.08096 10.079 80.4481
12654295 8.62332 4.52167 33.4389 34 -1.09841 10.1063 80.5839
12654315 8.50881 4.42958 33.6456 34 -1.15558 10.1833 80.584
12654325 8.36788 4.37432 33.8327 34 -1.18716 10.2558 80.5749
12654335 8.36788 4.37432 33.8327 34 -1.18716 10.2558 80.5749
12654347 8.22694 4.30986 34 34 -1.21593 10.33 80.5368
12654355 8.22694 4.30986 34 34 -1.21593 10.33 80.5368
12654369 8.06839 4.26381 34 34 -1.18402 10.3945 80.3322
12654376 8.02435 4.2454 34 34 -1.17695 10.4143 80.2697
12654386 8.02435 4.2454 34 34 -1.17695 10.4143 80.2697
12654396 7.99793 4.28223 34 34 -1.1571 10.411 80.2802
12654406 7.87461 4.21777 34 34 -1.14144 10.4706 80.0924
12654417 7.87461 4.21777 34 34 -1.14144 10.4706 80.0924
12654426 7.83938 4.19935 34 34 -1.13696 10.4877 80.0387
12654437 7.83938 4.19935 34 34 -1.13696 10.4877 80.0387
12654447 7.74249 4.11647 34 34 -1.13513 10.545 79.859
12654459 7.66321 4.16251 34 34 -1.09636 10.5557 79.8257
12654467 7.66321 4.16251 34 34 -1.09636 10.5557 79.8257
12654482 7.6544 4.07042 34 34 -1.12386 10.588 79.7248
12654487 7.59275 4.10726 34 34 -1.09331 10.596 79.7
12654507 7.59275 4.06121 34 34 -1.1084 10.6108 79.654
12654517 7.63679 4.052 34 34 -1.12462 10.5996 79.6888
12654529 7.63679 4.052 34 34 -1.12462 10.5996 79.6888
12654539 7.52228 4.09805 34 34 -1.07518 10.6216 79.6203
12654551 7.52228 4.09805 34 34 -1.07518 10.6216 79.6203
12654559 7.34611 4.0428 34 34 -1.04023 10.6963 79.3889
12654569 7.23161 3.96912 34 34 -1.02981 10.7573 79.2007
12654579 7.23161 3.96912 34 34 -1.02981 10.7573 79.2007
12654589 7.16995 3.89545 34 34 -1.03538 10.8014 79.0654
12654599 7.10829 3.87703 34 34 -1.02274 10.8276 78.9853
12654609 7.10829 3.87703 34 34 -1.02274 10.8276 78.9853
12654620 7.00259 3.87703 34 34 -0.990613 10.8622 78.8796
12654629 7.00259 3.87703 34 34 -0.990613 10.8622 78.8796
12654643 6.70311 3.76652 34 34 -0.935583 10.9973 78.4696
12654649 6.50052 3.68364 34 34 -0.90072 11.0922 78.1842
12654675 6.23627 3.59155 34 34 -0.849542 11.2117 77.8278
12654688 6.00725 3.47183 34 34 -0.818098 11.3297 77.4791
12654692 6.00725 3.47183 34 34 -0.818098 11.3297 77.4791
12654699 5.92798 3.49946 34 34 -0.784127 11.3472 77.4274
12654711 5.92798 3.49946 34 34 -0.784127 11.3472 77.4274
12654720 5.8399 3.40737 34 34 -0.787254 11.4087 77.2473
12654734 5.89275 3.39816 34 34 -0.806883 11.3938 77.2909
12654740 5.89275 3.39816 34 34 -0.806883 11.3938 77.2909
12654750 5.89275 3.39816 34 34 -0.806883 11.3938 77.2909
12654760 5.89275 3.39816 34 34 -0.806883 11.3938 77.2909
12654771 6.06891 3.46262 34 34 -0.840396 11.3119 77.5315
12654780 6.24508 3.5455 34 34 -0.867575 11.2243 77.7906
12654790 6.24508 3.5455 34 34 -0.867575 11.2243 77.7906
12654801 6.41244 3.49946 34 34 -0.934704 11.1834 77.9119
12654810 6.54456 3.58234 34 34 -0.947887 11.1114 78.1269
12654827 6.54456 3.58234 34 34 -0.947887 11.1114 78.1269
12654830 6.52694 3.60076 34 34 -0.936347 11.1111 78.1277
12654841 6.35959 3.60076 34 34 -0.884689 11.1672 77.9603
12654855 6.35959 3.52709 34 34 -0.909175 11.1919 77.8867
12654864 6.28912 3.48104 34 34 -0.902684 11.2311 77.7702
12654881 6.12176 3.49025 34 34 -0.847651 11.2846 77.612
12654891 6.07772 3.46262 34 34 -0.84314 11.3089 77.5403
12654909 6.07772 3.46262 34 34 -0.84314 11.3089 77.5403
12654912 6.03368 3.47183 34 34 -0.826342 11.3207 77.5055
12654922 5.9544 3.42579 34 34 -0.816946 11.3633 77.3802
12654950 5.98083 3.37974 34 34 -0.840572 11.37 77.3606
12654953 5.98083 3.37974 34 34 -0.840572 11.37 77.3606
12654963 5.90155 3.36132 34 34 -0.821947 11.4034 77.2629
12654974 5.76062 3.39816 34 34 -0.765456 11.439 77.1588
12654984 5.76062 3.39816 34 34 -0.765456 11.439 77.1588
12654994 5.7342 3.37974 34 34 -0.763303 11.4544 77.1139
12655009 5.64611 3.30607 34 34 -0.760226 11.51 76.9522
12655014 5.64611 3.30607 34 34 -0.760226 11.51 76.9522
12655024 5.58446 3.28765 34 34 -0.746956 11.5376 76.8721
12655034 5.58446 3.28765 34 34 -0.746956 11.5376 76.8721
12655044 5.48756 3.22319 34 34 -0.737961 11.5934 76.7108
12655054 5.39067 3.26002 34 34 -0.694923 11.6142 76.6507
12655074 5.39948 3.22319 34 34 -0.710069 11.624 76.6227
12655085 5.29378 3.23239 34 34 -0.673425 11.6575 76.5262
12655110 5.21451 3.18635 34 34 -0.663657 11.7013 76.4009
12655128 5.13523 3.17714 34 34 -0.641473 11.7322 76.3124
12655135 5.06477 3.21398 34 34 -0.606589 11.744 76.2787
12655152 5.06477 3.21398 34 34 -0.606589 11.744 76.2787
12655155 4.91503 3.15872 34 34 -0.577171 11.8161 76.0737
12655166 4.81813 3.14951 34 34 -0.549124 11.8535 75.9677
12655178 4.81813 3.14951 34 34 -0.549124 11.8535 75.9677
12655187 4.75648 3.16793 34 34 -0.523068 11.8688 75.9244
12655202 4.70363 3.14951 34 34 -0.512213 11.8941 75.8531
12655206 4.70363 3.14951 34 34 -0.512213 11.8941 75.8531
12655216 4.68601 3.14951 34 34 -0.506523 11.9003 75.8355
12655228 4.68601 3.14951 34 34 -0.506523 11.9003 75.8355
12655236 4.58031 3.16793 34 34 -0.466144 11.9313 75.7482
12655253 4.6772 3.20477 34 34 -0.485109 11.8839 75.882
12655256 4.6772 3.20477 34 34 -0.485109 11.8839 75.882
12655266 4.65959 3.21398 34 34 -0.476322 11.8868 75.8736
12655279 4.70363 3.21398 34 34 -0.490548 11.8712 75.9176
12655286 4.70363 3.21398 34 34 -0.490548 11.8712 75.9176
12655296 4.77409 3.32449 34 34 -0.476228 11.8073 76.0986
12655307 4.77409 3.32449 34 34 -0.476228 11.8073 76.0986
12655316 4.85337 3.36132 34 34 -0.489423 11.7665 76.2147
12655334 4.91503 3.40737 34 34 -0.493845 11.7287 76.3224
12655347 5.02953 3.49025 34 34 -0.502904 11.6598 76.5198
12655358 5.14404 3.55471 34 34 -0.518042 11.5976 76.6988
12655368 5.14404 3.55471 34 34 -0.518042 11.5976 76.6988
12655381 5.24093 3.72969 34 34 -0.490852 11.5036 76.9706
12655407 5.39067 3.85861 34 34 -0.495817 11.408 77.2493
12655409 5.61969 4.07963 34 34 -0.49552 11.2551 77.6993
12655417 5.61969 4.07963 34 34 -0.49552 11.2551 77.6993
12655432 5.83109 4.23619 34 34 -0.510746 11.1313 78.0673
12655438 5.83109 4.23619 34 34 -0.510746 11.1313 78.0673
12655447 6.11295 4.48483 34 34 -0.517865 10.9549 78.5978
12655457 6.41244 4.7519 34 34 -0.524396 10.7692 79.1643
12655480 6.74715 5.03738 34 34 -0.535749 10.5689 79.7845
12655487 7.08187 5.26761 34 34 -0.564492 10.3891 80.3495
12655504 7.08187 5.26761 34 34 -0.564492 10.3891 80.3495
12655509 7.55751 5.60834 34 34 -0.600368 10.1337 81.1659
12655529 8.0772 5.95829 34 34 -0.64573 9.86729 82.0355
12655539 8.65855 6.36349 34 34 -0.691099 9.57179 83.022
12655561 8.65855 6.36349 34 34 -0.691099 9.57179 83.022
12655563 9.31917 6.6766 34 34 -0.786521 9.28694 83.9958
12655570 9.81244 7.11863 33.498 34 -0.648998 8.98392 84.429
12655591 9.81244 7.11863 33.498 34 -0.648998 8.98392 84.429
12655594 10.2528 7.39491 32.927 33.8344 -0.577721 8.72778 84.4092
12655600 10.6756 7.88299 32.2675 33.435 -0.482196 8.39246 84.2611
12655620 10.6756 7.88299 32.2675 33.435 -0.482196 8.39246 84.2611
12655623 11.1601 8.31582 31.5883 32.9186 -0.450675 8.04289 83.9828
12655630 11.1601 8.31582 31.5883 32.9186 -0.450675 8.04289 83.9828
12655646 11.6974 8.94204 30.7319 32.4607 -0.306128 7.614 83.8321
12655652 12.3845 9.54063 29.8952 32.0711 -0.199057 7.15947 83.8913
12655660 12.3845 9.54063 29.8952 32.0711 -0.199057 7.15947 83.8913
12655670 12.913 10.0932 29.1865 31.6619 -0.102659 6.76927 83.8545
12655681 13.2212 10.5997 28.6352 31.2527 -0.00120997 6.46294 83.7088
12655691 13.2212 10.5997 28.6352 31.2527 -0.00120997 6.46294 83.7088
12655704 13.5472 11.1706 28.1332 30.7754 0.0794232 6.13277 83.6263
12655711 13.5472 11.1706 28.1332 30.7754 0.0794232 6.13277 83.6263
12655721 13.7233 11.714 27.7985 30.3467 0.16118 5.86987 83.5825
12655733 13.9259 12.2297 27.3949 30.0544 0.288054 5.61458 83.6049
12655742 13.9259 12.2297 27.3949 30.0544 0.288054 5.61458 83.6049
12655756 14.2518 12.6349 26.9618 29.7232 0.342369 5.34839 83.5717
12655762 14.5161 13.0861 26.381 29.2458 0.43101 5.05076 83.229
12655772 14.5161 13.0861 26.381 29.2458 0.43101 5.05076 83.229
12655784 14.9036 13.6295 25.7215 28.6321 0.49358 4.67273 82.8867
12655794 15.115 14.2465 25.1506 27.9696 0.591201 4.32072 82.4817
12655806 15.115 14.2465 25.1506 27.9696 0.591201 4.32072 82.4817
12655814 15.3176 14.9095 24.9931 27.5799 0.657853 4.04815 82.8001
12655826 15.3176 14.9095 24.9931 27.5799 0.657853 4.04815 82.8001
12655834 15.3528 15.4437 24.9734 27.3266 0.735316 3.88166 83.0965
12655852 15.485 15.9225 24.8552 27.0734 0.796676 3.69367 83.3361
12655855 15.485 15.9225 24.8552 27.0734 0.796676 3.69367 83.3361
12655865 15.6964 16.383 24.5895 26.7519 0.85381 3.46352 83.4207
12655877 16.0399 16.825 24.1367 26.294 0.883138 3.16326 83.2956
12655895 16.5508 17.5154 23.4279 25.5244 0.921819 2.68965 83.0185
12655907 16.5508 17.5154 23.4279 25.5244 0.921819 2.68965 83.0185
12655916 17.0299 18.2935 22.6699 24.6378 0.977674 2.17552 82.6311
12655928 17.6577 19.1104 22.227 23.7221 0.890931 1.66488 82.7171
12655936 17.6577 19.1104 22.227 23.7221 0.890931 1.66488 82.7171
12655946 18.1061 19.869 21.7053 22.8842 0.890779 1.20168 82.5646
12655956 18.4848 20.5109 21.3706 22.2997 0.893733 0.848234 82.6659
12655977 18.8435 21.0847 21.1934 22.0172 0.921643 0.592223 83.1387
12655987 19.1624 21.4348 21.0556 21.7444 0.887689 0.396209 83.3972
12655998 19.1624 21.4348 21.0556 21.7444 0.887689 0.396209 83.3972
12656007 19.3716 21.853 20.8587 21.5203 0.939843 0.207131 83.6037
12656024 19.3716 21.853 20.8587 21.5203 0.939843 0.207131 83.6037
12656028 19.6805 22.2128 20.7209 21.1794 0.892293 0.00123918 83.7936
12656039 19.9994 22.5338 20.4354 20.8481 0.879011 -0.22363 83.8167
12656051 19.9994 22.5338 20.4354 20.8481 0.879011 -0.22363 83.8167
12656059 20.0891 22.7866 20.2189 20.4779 0.884435 -0.391079 83.5725
12656069 20.2685 22.9811 19.9433 20.2539 0.905749 -0.548698 83.4467
12656079 20.2685 22.9811 19.9433 20.2539 0.905749 -0.548698 83.4467
12656089 20.4877 23.2534 19.6578 20.0103 0.934631 -0.732476 83.4092
12656103 20.4877 23.2534 19.6578 20.0103 0.934631 -0.732476 83.4092
12656109 20.5176 23.2826 19.5003 19.7473 0.906709 -0.822291 83.0478
12656120 20.6471 23.409 19.205 19.5524 0.938663 -0.959761 82.8136
12656132 20.6471 23.409 19.205 19.5524 0.938663 -0.959761 82.8136
12656139 20.7567 23.4966 19.077 19.4453 0.938711 -1.03853 82.7756
12656156 20.7866 23.6035 19.018 19.2699 0.927958 -1.10712 82.678
12656172 20.8265 23.6716 19.0081 19.1433 0.901484 -1.15187 82.6495
12656182 20.8265 23.6716 19.0081 19.1433 0.901484 -1.15187 82.6495
12656189 20.8464 23.7592 18.9687 19.1238 0.927404 -1.18136 82.6981
12656199 20.9461 23.8078 18.9786 19.0556 0.887424 -1.21751 82.788
12656210 20.9461 23.8078 18.9786 19.0556 0.887424 -1.21751 82.788
12656219 21.0457 23.9828 19.0081 19.0751 0.903624 -1.2535 83.1117
12656233 21.1254 24.0898 19.1262 19.1335 0.88999 -1.24986 83.475
12656250 21.3347 24.2357 19.077 19.0361 0.854436 -1.33669 83.6835
12656270 21.4045 24.2746 19.0081 18.9582 0.842905 -1.38312 83.6453
12656284 21.5539 24.4302 18.9294 18.7925 0.818181 -1.48058 83.706
12656290 21.5539 24.4302 18.9294 18.7925 0.818181 -1.48058 83.706
12656300 21.7134 24.5858 18.8014 18.4418 0.751981 -1.62599 83.5424
12656311 21.8529 24.7317 18.6144 18.2178 0.743923 -1.75369 83.4167
12656320 21.8529 24.7317 18.6144 18.2178 0.743923 -1.75369 83.4167
12656338 22.0522 24.8776 18.5061 17.9645 0.684589 -1.88114 83.4003
12656351 22.1319 24.9457 18.3289 17.7307 0.666228 -1.98792 83.1371
12656364 22.3312 25.0429 18.1911 17.5456 0.621518 -2.10035 83.1107
12656371 22.3312 25.0429 18.1911 17.5456 0.621518 -2.10035 83.1107
12656381 22.5006 25.1596 18.0533 17.3215 0.580251 -2.21932 83.035
12656392 22.6401 25.3638 17.9745 17.0487 0.541371 -2.34514 83.0272
12656402 22.6401 25.3638 17.9745 17.0487 0.541371 -2.34514 83.0272
12656415 22.8792 25.4805 17.8958 16.8763 0.475687 -2.45173 83.1318
12656422 22.8792 25.4805 17.8958 16.8763 0.475687 -2.45173 83.1318
12656441 22.9689 25.5195 17.8072 16.724 0.441855 -2.5218 83.0195
12656443 23.0985 25.6653 17.758 16.6097 0.426626 -2.59759 83.1315
12656452 23.0985 25.6653 17.758 16.6097 0.426626 -2.59759 83.1315
12656465 23.228 25.7723 17.7383 16.5526 0.407803 -2.64903 83.2912
12656472 23.3675 25.9085 17.8072 16.4384 0.35086 -2.69937 83.5216
12656482 23.3675 25.9085 17.8072 16.4384 0.35086 -2.69937 83.5216
12656492 23.5369 25.9571 17.7973 16.21 0.249335 -2.782 83.5013
12656503 23.5369 25.9571 17.7973 16.21 0.249335 -2.782 83.5013
12656519 23.6266 26.0641 17.6398 16.0482 0.253597 -2.87892 83.3787
12656523 23.8159 26.0933 17.6103 15.953 0.18568 -2.93736 83.4725
12656548 23.8658 26.2197 17.502 15.7721 0.187141 -3.02508 83.3596
12656554 24.0352 26.3364 17.4823 15.6293 0.134221 -3.1012 83.4832
12656564 24.0352 26.3364 17.4823 15.6293 0.134221 -3.1012 83.4832
12656576 24.1747 26.4725 17.3445 15.439 0.117552 -3.21172 83.4307
12656583 24.1747 26.4725 17.3445 15.439 0.117552 -3.21172 83.4307
12656604 24.2046 26.5114 17.1969 15.22 0.0992477 -3.30178 83.1329
12656612 24.364 26.6768 17.1378 15.1344 0.0928193 -3.37917 83.313
12656614 24.364 26.6768 17.1378 15.1344 0.0928193 -3.37917 83.313
12656632 24.4537 26.6087 16.9376 14.9916 0.0629544 -3.45815 82.9916
12656635 24.5932 26.8227 17 14.8679 0.0292122 -3.52073 83.2837
12656645 24.5932 26.8227 17 14.8679 0.0292122 -3.52073 83.2837
12656659 24.653 26.9005 16.844 14.9059 0.0928462 -3.5659 83.3034
12656665 24.5832 26.9296 16.8024 14.8583 0.12092 -3.58024 83.1737
12656685 24.5832 26.9491 16.8856 14.7632 0.0731438 -3.58559 83.1811
12656695 24.5832 26.9491 16.8856 14.7632 0.0731438 -3.58559 83.1811
12656711 24.5533 26.9783 16.9792 14.8488 0.0883341 -3.54552 83.3596
12656716 24.5434 26.9394 17.187 14.9916 0.0599325 -3.46111 83.6614
12656726 24.5434 26.9394 17.187 14.9916 0.0599325 -3.46111 83.6614
12656737 24.4238 26.8616 17.187 15.0963 0.103819 -3.41073 83.5687
12656746 24.2743 26.7935 17.2166 15.182 0.145137 -3.35511 83.4663
12656763 24.2743 26.7935 17.2166 15.182 0.145137 -3.35511 83.4663
12656766 24.0352 26.5698 17.3642 15.4485 0.185481 -3.19937 83.4177
12656779 24.0352 26.5698 17.3642 15.4485 0.185481 -3.19937 83.4177
12656789 23.796 26.4239 17.4233 15.6579 0.258854 -3.08617 83.3011
12656796 23.5768 26.1711 17.758 16.0482 0.264639 -2.86193 83.554
12656813 23.5768 26.1711 17.758 16.0482 0.264639 -2.86193 83.554
12656817 23.3077 25.8793 17.945 16.4479 0.321394 -2.65508 83.5799
12656827 22.8693 25.5778 18.1419 16.8667 0.429386 -2.41538 83.4557
12656840 22.8693 25.5778 18.1419 16.8667 0.429386 -2.41538 83.4557
12656847 22.4009 25.286 18.2403 17.2046 0.556159 -2.20892 83.1319
12656862 22.4009 25.286 18.2403 17.2046 0.556159 -2.20892 83.1319
12656869 22.0721 25.1013 18.5061 17.6138 0.641358 -1.99059 83.2932
12656887 21.9027 24.9943 18.762 17.867 0.657466 -1.84396 83.526
12656899 21.8329 24.8484 18.8801 18.0229 0.64553 -1.7548 83.5844
12656912 21.8529 24.722 18.9983 18.2178 0.623158 -1.67539 83.7909
12656929 21.9027 24.79 19.0081 18.1496 0.604892 -1.70573 83.8504
12656939 22.0821 24.9748 18.8506 18.0132 0.612283 -1.82192 83.9207
12656950 22.0821 24.9748 18.8506 18.0132 0.612283 -1.82192 83.9207
12656961 22.3611 25.1499 18.5947 17.7501 0.579649 -1.99738 83.8558
12656970 22.3611 25.1499 18.5947 17.7501 0.579649 -1.99738 83.8558
12656986 22.391 25.393 18.2698 17.4384 0.649944 -2.1695 83.4922
12656992 22.5404 25.4611 18.0041 17.2436 0.648701 -2.29803 83.2491
12657010 22.5006 25.5097 17.7973 17.0487 0.682059 -2.38321 82.8564
12657020 22.4807 25.5 17.817 17.1266 0.702137 -2.35823 82.9243
12657032 22.4807 25.5 17.817 17.1266 0.702137 -2.35823 82.9243
12657040 22.371 25.3444 18.0041 17.1559 0.641075 -2.27248 82.8754
12657056 22.371 25.3444 18.0041 17.1559 0.641075 -2.27248 82.8754
12657060 22.2315 25.1693 18.2108 17.3897 0.637555 -2.13257 83.0013
12657070 22.0821 24.897 18.4273 17.7112 0.631276 -1.95637 83.1176
12657080 22.0821 24.897 18.4273 17.7112 0.631276 -1.95637 83.1176
12657091 21.8529 24.7122 18.703 18.0132 0.651285 -1.77393 83.2812
12657101 21.6835 24.5372 19.0278 18.2275 0.614977 -1.61101 83.476
12657111 21.6835 24.5372 19.0278 18.2275 0.614977 -1.61101 83.476
12657121 21.544 24.3719 19.2444 18.4321 0.602815 -1.47849 83.5923
12657131 21.544 24.3719 19.2444 18.4321 0.602815 -1.47849 83.5923
12657142 21.3646 24.2357 19.6184 18.588 0.549075 -1.32339 83.8067
12657151 21.2749 24.0509 19.7464 18.7633 0.53466 -1.21955 83.8355
12657164 21.2749 24.0509 19.7464 18.7633 0.53466 -1.21955 83.8355
12657171 21.0657 23.8175 19.8153 18.8802 0.543439 -1.11051 83.5787
12657186 20.8066 23.5841 19.9826 19.0751 0.560215 -0.95861 83.4484
12657194 20.8066 23.5841 19.9826 19.0751 0.560215 -0.95861 83.4484
12657202 20.5973 23.3993 20.1401 19.2602 0.576177 -0.826706 83.3969
12657212 20.5973 23.3993 20.1401 19.2602 0.576177 -0.826706 83.3969
12657222 20.408 23.2145 20.3665 19.4258 0.559199 -0.68876 83.4148
12657237 20.408 23.2243 20.4551 19.5524 0.571972 -0.65005 83.6398
12657246 20.408 23.2243 20.4551 19.5524 0.571972 -0.65005 83.6398
12657255 20.388 23.1659 20.4256 19.5037 0.555798 -0.651261 83.4833
12657262 20.4478 23.1756 20.3961 19.5232 0.555089 -0.665082 83.5427
12657276 20.4478 23.1756 20.3961 19.5232 0.555089 -0.665082 83.5427
12657282 20.5475 23.2048 20.2779 19.4258 0.540754 -0.72767 83.456
12657303 20.5574 23.127 20.209 19.3479 0.51308 -0.743783 83.2413
12657312 20.5774 23.1367 20.209 19.4355 0.535592 -0.732295 83.3587
12657331 20.5774 23.1367 20.209 19.4355 0.535592 -0.732295 83.3587
12657334 20.4977 23.0589 20.2386 19.4453 0.530985 -0.697871 83.2404
12657344 20.5076 22.9519 20.1697 19.5524 0.549132 -0.673972 83.1817
12657364 20.4977 23.0395 20.1992 19.6401 0.594515 -0.665266 83.3764
12657374 20.4977 23.0395 20.1992 19.6401 0.594515 -0.665266 83.3764
12657389 20.3581 22.8644 20.3468 19.6888 0.554976 -0.574159 83.2582
12657394 20.3382 22.8352 20.4453 19.8057 0.556633 -0.525466 83.4245
12657404 20.3382 22.8352 20.4453 19.8057 0.556633 -0.525466 83.4245
12657414 20.1887 22.6894 20.4748 19.9713 0.599208 -0.437798 83.3243
12657424 20.0193 22.5921 20.6914 20.1954 0.621811 -0.309826 83.4982
12657437 20.0193 22.5921 20.6914 20.1954 0.621811 -0.309826 83.4982
12657444 19.9197 22.4268 20.8292 20.3903 0.61872 -0.202299 83.5659
12657460 19.9197 22.4268 20.8292 20.3903 0.61872 -0.202299 83.5659
12657465 19.5709 22.0086 21.0556 20.6436 0.608084 0.0215489 83.2786
12657474 19.3816 21.7168 21.3706 21.0819 0.612378 0.243106 83.5509
12657484 19.3816 21.7168 21.3706 21.0819 0.612378 0.243106 83.5509
12657495 19.0727 21.4542 21.7053 21.4229 0.627339 0.466427 83.6551
12657507 18.9232 21.4542 21.8923 19.192 -0.0519574 0.130152 81.4617
12657514 18.9232 21.2305 21.8923 21.686 0.627297 0.613473 83.732
12657524 18.704 21.0458 22.0695 21.8126 0.623241 0.741166 83.6318
12657536 18.704 21.0458 22.0695 21.8126 0.623241 0.741166 83.6318
12657544 18.4947 20.861 22.1778 22.0172 0.659984 0.8688 83.5507
12657564 18.2057 20.5206 22.5912 22.4069 0.636175 1.12364 83.7244
12657565 18.2057 20.5206 22.5912 22.4069 0.636175 1.12364 83.7244
12657574 17.9865 20.0246 22.9259 23.1278 0.666153 1.43507 84.0648
12657588 17.9865 20.0246 22.9259 23.1278 0.666153 1.43507 84.0648
12657594 17.4086 19.2466 23.3492 23.9851 0.736389 1.90723 83.9894
12657603 16.9824 18.7506 23.7921 24.8327 0.832388 2.29235 84.3577
12657625 16.5596 18.274 24.0677 25.2516 0.861013 2.58203 84.1529
12657638 16.1984 17.8267 24.4024 25.7484 0.883326 2.87358 84.176
12657645 16.1984 17.8267 24.4024 25.7484 0.883326 2.87358 84.176
12657655 15.8461 17.4571 24.7666 26.2258 0.910524 3.14771 84.2956
12657665 15.8461 17.4571 24.7666 26.2258 0.910524 3.14771 84.2956
12657675 15.4409 16.8527 25.1801 26.937 0.938448 3.52268 84.4106
12657689 14.9741 16.2356 25.564 27.6287 0.985229 3.9068 84.4024
12657705 14.5425 15.766 25.8987 28.1547 1.03114 4.22198 84.3619
12657715 14.058 15.2319 26.3416 28.5736 1.01117 4.56481 84.2052
12657725 14.058 15.2319 26.3416 28.5736 1.01117 4.56481 84.2052
12657740 13.556 14.8359 26.7748 28.9146 1.0168 4.86985 84.0812
12657755 12.9658 14.4399 27.2866 29.2556 1.02535 5.20618 83.9479
12657767 12.3756 14.1728 28.0643 29.6355 0.999549 5.54635 84.2483
12657775 12.3756 14.1728 28.0643 29.6355 0.999549 5.54635 84.2483
12657785 11.5917 13.7584 29.1471 30.1421 0.933886 6.01478 84.6393
12657795 10.8606 13.4085 30.4071 30.5123 0.778592 6.45339 85.1885
12657806 10.8606 13.4085 30.4071 30.5123 0.778592 6.45339 85.1885
12657818 10.1383 12.9296 31.2339 30.9507 0.735468 6.8825 85.2526
12657843 9.69793 12.4139 31.6375 31.2625 0.688398 7.19692 85.0118
12657846 9.33679 11.9442 32.0116 31.5645 0.636455 7.47641 84.857
12657872 9.09896 11.364 32.425 31.9249 0.520259 7.76184 84.8129
12657881 8.72021 10.9312 32.7695 32.3536 0.529355 8.04576 84.7745
12657897 8.72021 10.9312 32.7695 32.3536 0.529355 8.04576 84.7745
12657899 8.43834 10.4247 33.1731 32.6848 0.442052 8.32053 84.721
12657907 8.20052 9.99187 33.4881 32.9868 0.380915 8.55393 84.6673
12657929 7.98031 9.62351 33.6555 33.2986 0.380301 8.7544 84.5579
12657939 7.98031 9.62351 33.6555 33.2986 0.380301 8.7544 84.5579
12657949 7.78653 9.29198 33.7539 33.5713 0.391835 8.92971 84.4038
12657959 7.67202 9.11701 34 33.7759 0.360942 9.04398 84.565
12657969 7.67202 9.11701 34 33.7759 0.360942 9.04398 84.565
12657979 7.53109 8.91441 34 33.9708 0.401017 9.15557 84.4163
12657989 7.42539 8.64735 34 34 0.363362 9.2647 84.0727
12658023 7.33731 8.43554 34 34 0.327739 9.35157 83.7728
12658030 7.25803 8.16847 34 34 0.272828 9.45266 83.4265
12658038 7.1171 8.00271 34 34 0.266367 9.54289 83.1198
12658053 7.1171 8.00271 34 34 0.266367 9.54289 83.1198
12658061 7.04663 7.85536 34 34 0.243881 9.60737 82.902
12658070 6.87927 7.67118 34 34 0.239825 9.71216 82.5505
12658080 6.87927 7.67118 34 34 0.239825 9.71216 82.5505
12658091 6.76477 7.45937 34 34 0.211194 9.81023 82.2241
12658110 6.54456 7.10022 34 34 0.170144 9.98629 81.6448
12658120 6.41244 6.7779 34 34 0.112531 10.1261 81.1903
12658142 6.41244 6.7779 34 34 0.112531 10.1261 81.1903
12658144 6.31554 6.49242 34 34 0.05472 10.245 80.808
12658150 6.11295 6.05959 34 34 -0.0166416 10.4451 80.1725
12658174 6.11295 6.05959 34 34 -0.0166416 10.4451 80.1725
12658177 5.91917 5.75569 34 34 -0.0512972 10.6041 79.6749
12658180 5.91917 5.75569 34 34 -0.0512972 10.6041 79.6749
12658190 5.61969 5.39653 34 34 -0.0706032 10.8175 79.0162
12658207 5.45233 5.18472 34 34 -0.0850767 10.942 78.6371
12658234 5.45233 5.18472 34 34 -0.0850767 10.942 78.6371
12658236 5.27617 4.9545 34 34 -0.102796 11.0767 78.2307
12658237 5.14404 4.80715 34 34 -0.108044 11.1702 77.9512
12658241 5.14404 4.80715 34 34 -0.108044 11.1702 77.9512
12658257 5.2057 4.67822 34 34 -0.169316 11.1928 77.8839
12658271 5.21451 4.62297 34 34 -0.189991 11.2085 77.8375
12658281 5.30259 4.62297 34 34 -0.218035 11.1788 77.9256
12658291 5.30259 4.62297 34 34 -0.218035 11.1788 77.9256
12658304 5.46995 4.69664 34 34 -0.247326 11.0981 78.1666
12658311 5.61969 4.78873 34 34 -0.264943 11.0176 78.4084
12658327 5.61969 4.78873 34 34 -0.264943 11.0176 78.4084
12658331 5.87513 4.86241 34 34 -0.321551 10.9089 78.7375
12658341 5.87513 4.86241 34 34 -0.321551 10.9089 78.7375
12658352 6.10415 4.89003 34 34 -0.384241 10.8247 78.9942
12658362 6.3772 4.99133 34 34 -0.436528 10.7029 79.3685
12658382 6.53575 4.98212 34 34 -0.488453 10.6546 79.5179
12658397 6.59741 4.89003 34 34 -0.536995 10.6644 79.4874
12658406 6.59741 4.89003 34 34 -0.536995 10.6644 79.4874
12658414 6.71192 4.89924 34 34 -0.569227 10.6245 79.6112
12658434 6.74715 4.83478 34 34 -0.600755 10.634 79.5819
12658444 6.83523 4.80715 34 34 -0.636619 10.6145 79.6424
12658454 6.83523 4.80715 34 34 -0.636619 10.6145 79.6424
12658469 6.86166 4.7519 34 34 -0.662501 10.6238 79.6136
12658475 6.96736 4.68743 34 34 -0.715564 10.6105 79.6548
12658485 6.96736 4.68743 34 34 -0.715564 10.6105 79.6548
12658495 7.0114 4.68743 34 34 -0.728984 10.5964 79.6988
12658517 6.98497 4.59534 34 34 -0.750698 10.6345 79.5803
12658526 6.9057 4.47562 34 34 -0.765318 10.6987 79.3813
12658549 6.77358 4.33749 34 34 -0.769831 10.7865 79.1111
12658555 6.52694 4.28223 34 34 -0.712073 10.8853 78.8092
12658575 6.3772 4.1533 34 34 -0.707971 10.9772 78.5305
12658596 6.21865 3.98754 34 34 -0.713214 11.0849 78.2062
12658606 5.91917 3.92308 34 34 -0.64107 11.2068 77.8422
12658638 5.75181 3.8494 34 34 -0.61288 11.2882 77.6012
12658639 5.47876 3.78494 34 34 -0.548063 11.4031 77.2637
12658646 5.47876 3.78494 34 34 -0.548063 11.4031 77.2637
12658662 5.29378 3.68364 34 34 -0.522928 11.5013 76.9774
12658666 5.06477 3.66522 34 34 -0.455996 11.5867 76.73
12658676 5.06477 3.66522 34 34 -0.455996 11.5867 76.73
12658687 4.98549 3.56392 34 34 -0.464265 11.6495 76.5494
12658710 4.96788 3.63759 34 34 -0.434132 11.63 76.6055
12658717 4.98549 3.60997 34 34 -0.448959 11.6334 76.5955
12658743 4.98549 3.60997 34 34 -0.448959 11.6334 76.5955
12658746 5.06477 3.61918 34 34 -0.471283 11.6027 76.6839
12658749 5.15285 3.70206 34 34 -0.471926 11.5435 76.8549
12658776 5.17927 3.7481 34 34 -0.465105 11.5185 76.9274
12658789 5.16166 3.79415 34 34 -0.444251 11.5087 76.9558
12658807 5.1 3.7481 34 34 -0.439796 11.5459 76.8481
12658810 5.1 3.7481 34 34 -0.439796 11.5459 76.8481
12658820 5.10881 3.75731 34 34 -0.43956 11.5397 76.8661
12658831 5.09119 3.72969 34 34 -0.443077 11.5553 76.8209
12658840 5.09119 3.72969 34 34 -0.443077 11.5553 76.8209
12658857 5.14404 3.80336 34 34 -0.435585 11.5116 76.9474
12658860 5.2057 3.81257 34 34 -0.452207 11.4872 77.0183
12658881 5.32902 3.8494 34 34 -0.479284 11.4323 77.1784
12658890 5.32902 3.8494 34 34 -0.479284 11.4323 77.1784
12658906 5.5228 3.91387 34 34 -0.519432 11.3441 77.4367
12658910 5.67254 4.01517 34 34 -0.533344 11.259 77.6877
12658920 5.67254 4.01517 34 34 -0.533344 11.259 77.6877
12658931 5.90155 4.08884 34 34 -0.581069 11.1571 77.9904
12658941 6.02487 4.052 34 34 -0.631705 11.1281 78.0769
12658956 6.02487 4.052 34 34 -0.631705 11.1281 78.0769
12658961 6.26269 4.07042 34 34 -0.699662 11.0426 78.3331
12658971 6.26269 4.07042 34 34 -0.699662 11.0426 78.3331
12658982 6.41244 4.12568 34 34 -0.727914 10.9746 78.5381
12658991 6.57098 4.21777 34 34 -0.746685 10.892 78.7888
12659006 6.57098 4.21777 34 34 -0.746685 10.892 78.7888
12659011 6.67668 4.30986 34 34 -0.749122 10.8272 78.9865
12659045 6.67668 4.26381 34 34 -0.764143 10.8422 78.9405
12659046 6.8 4.2454 34 34 -0.807954 10.808 79.0454
12659056 6.8 4.2454 34 34 -0.807954 10.808 79.0454
12659061 6.84404 4.29144 34 34 -0.8064 10.7786 79.1355
12659071 6.86166 4.38353 34 34 -0.781791 10.7429 79.2452
12659091 6.98497 4.53088 34 34 -0.771576 10.6553 79.5159
12659107 6.98497 4.53088 34 34 -0.771576 10.6553 79.5159
12659111 6.95855 4.42958 34 34 -0.796394 10.6965 79.3881
12659121 7.06425 4.5493 34 34 -0.789736 10.6238 79.6135
12659132 7.06425 4.5493 34 34 -0.789736 10.6238 79.6135
12659156 7.06425 4.56771 34 34 -0.783771 10.6179 79.632
12659160 7.18756 4.59534 34 34 -0.812274 10.5694 79.7829
12659171 7.18756 4.59534 34 34 -0.812274 10.5694 79.7829
12659180 7.28446 4.67822 34 34 -0.814828 10.5119 79.9627
12659182 7.29326 4.67822 34 34 -0.817493 10.5091 79.9715
12659194 7.29326 4.59534 34 34 -0.844276 10.5356 79.8886
12659206 7.39896 4.66901 34 34 -0.852385 10.4783 80.068
12659230 7.45181 4.69664 34 34 -0.859396 10.4528 80.1485
12659243 7.50466 4.73348 34 34 -0.863425 10.4243 80.2381
12659244 7.50466 4.73348 34 34 -0.863425 10.4243 80.2381
12659256 7.6544 4.77031 34 34 -0.896519 10.3653 80.4247
12659264 7.71606 4.83478 34 34 -0.894244 10.3256 80.5508
12659281 7.71606 4.83478 34 34 -0.894244 10.3256 80.5508
12659284 7.83938 4.79794 34 34 -0.942937 10.2985 80.6373
12659294 7.83938 4.79794 34 34 -0.942937 10.2985 80.6373
12659305 7.90984 4.89003 34 34 -0.934349 10.2476 80.7999
12659315 8.00674 4.90845 34 34 -0.957263 10.2116 80.9152
12659330 8.00674 4.90845 34 34 -0.957263 10.2116 80.9152
12659334 8.13005 4.9545 34 34 -0.979087 10.1589 81.0845
12659344 8.13005 4.9545 34 34 -0.979087 10.1589 81.0845
12659357 8.21813 5.03738 34 34 -0.978628 10.106 81.2555
12659365 8.27979 5.0558 33.8327 34 -0.941454 10.0711 81.1682
12659382 8.27979 5.0558 33.8327 34 -0.941454 10.0711 81.1682
12659385 8.53523 5.2584 33.6555 34 -0.900044 9.91942 81.4491
12659395 8.68497 5.38732 33.3799 34 -0.821801 9.81697 81.4521
12659415 8.94041 5.5623 33.183 34 -0.783823 9.67371 81.6857
12659433 9.18705 5.8662 32.9369 34 -0.688417 9.49205 81.9901
12659435 9.18705 5.8662 32.9369 34 -0.688417 9.49205 81.9901
12659445 9.60104 6.56609 32.7597 34 -0.541031 9.15131 82.9268
12659458 9.60104 6.56609 32.7597 34 -0.541031 9.15131 82.9268
12659466 10.0062 7.40412 32.7302 34 -0.395846 8.7924 84.1405
12659482 10.385 8.11322 32.5136 34 -0.230958 8.47213 85.0118
12659486 10.385 8.11322 32.5136 34 -0.230958 8.47213 85.0118
12659496 10.6756 8.5 32.1592 34 -0.0981092 8.25869 85.3349
12659507 10.9135 9.07096 31.6966 33.2693 -0.0793859 7.94255 84.9504
12659516 10.9135 9.07096 31.6966 33.2693 -0.0793859 7.94255 84.9504
12659532 11.1249 9.69718 31.2438 32.4218 -0.0738829 7.60647 84.4876
12659546 11.3275 10.5168 30.7221 31.3696 -0.0485793 7.19253 83.9359
12659556 11.6446 11.2996 30.3283 30.8046 0.0390321 6.81318 84.077
12659566 11.6446 11.2996 30.3283 30.8046 0.0390321 6.81318 84.077
12659581 11.8383 11.6771 29.9247 30.5415 0.13563 6.59979 83.9818
12659596 12.0233 12.0363 29.4916 30.0252 0.163499 6.36373 83.5764
12659606 12.2083 12.4507 28.9896 29.7622 0.304222 6.131 83.4108
12659629 12.358 12.9664 28.586 29.3043 0.398576 5.87021 83.2147
12659637 12.587 13.6295 28.1529 28.71 0.481346 5.53321 83.0794
12659655 12.587 13.6295 28.1529 28.71 0.481346 5.53321 83.0794
12659661 12.9922 14.4215 27.7099 27.765 0.447696 5.07813 82.8886
12659667 13.3622 15.1766 27.3063 27.0344 0.465283 4.66978 82.8795
12659681 13.3622 15.1766 27.3063 27.0344 0.465283 4.66978 82.8795
12659689 13.8378 15.7291 26.8732 26.6837 0.511825 4.32906 83.1238
12659705 13.8378 15.7291 26.8732 26.6837 0.511825 4.32906 83.1238
12659709 14.5073 16.2633 26.1644 26.1868 0.534871 3.89442 83.1218
12659719 15.3176 16.8987 25.3573 25.5341 0.528806 3.37064 83.1077
12659729 15.3176 16.8987 25.3573 25.5341 0.528806 3.37064 83.1077
12659739 15.8285 17.6224 24.806 24.8619 0.556371 2.92659 83.1188
12659753 16.2953 18.3518 24.2942 23.9072 0.503781 2.45402 82.8485
12659759 16.2953 18.3518 24.2942 23.9072 0.503781 2.45402 82.8485
12659769 16.8062 19.2466 23.861 22.9135 0.450572 1.9417 82.8273
12659803 17.3687 20.1219 23.3885 21.9393 0.393593 1.41948 82.8183
12659805 18.1061 20.968 22.8668 21.0527 0.315616 0.875757 82.9936
12659814 18.1061 20.968 22.8668 21.0527 0.315616 0.875757 82.9936
12659827 18.9332 21.7363 22.1089 20.2149 0.273857 0.298997 82.9932
12659830 19.6905 22.4268 21.2131 19.3966 0.277945 -0.273364 82.7269
12659840 19.6905 22.4268 21.2131 19.3966 0.277945 -0.273364 82.7269
12659851 20.388 23.0395 20.4354 18.812 0.310865 -0.7584 82.675
12659860 20.388 23.0395 20.4354 18.812 0.310865 -0.7584 82.675
12659877 20.8962 23.5744 19.8448 18.1691 0.303802 -1.17418 82.4845
12659882 21.2351 24.0704 19.4708 17.9255 0.389972 -1.43452 82.7017
12659901 21.6038 24.4594 19.2247 17.5553 0.357988 -1.68086 82.8431
12659910 21.8429 24.8289 18.8801 17.3312 0.433484 -1.89311 82.8832
12659924 21.8429 24.8289 18.8801 17.3312 0.433484 -1.89311 82.8832
12659930 22.0322 25.1985 18.7423 17.1169 0.463608 -2.05287 83.09
12659947 22.0322 25.1985 18.7423 17.1169 0.463608 -2.05287 83.09
12659952 22.1717 25.5 18.5651 16.8572 0.4875 -2.21124 83.0941
12659961 22.4009 25.7723 18.4175 16.762 0.514656 -2.33833 83.3528
12659977 22.4009 25.7723 18.4175 16.762 0.514656 -2.33833 83.3528
12659981 22.5305 26.0252 18.26 16.6669 0.569445 -2.4488 83.4825
12659992 22.6102 26.2586 18.073 16.505 0.623289 -2.56884 83.4468
12660003 22.6102 26.2586 18.073 16.505 0.623289 -2.56884 83.4468
12660011 22.6501 26.4628 17.8564 16.2576 0.665027 -2.70326 83.2268
12660026 22.6501 26.4628 17.8564 16.2576 0.665027 -2.70326 83.2268
12660031 22.7397 26.5892 17.63 15.9339 0.649464 -2.85279 82.8929
12660041 22.7397 26.7449 17.502 15.6484 0.650892 -2.965 82.635
12660052 22.7397 26.7449 17.502 15.6484 0.650892 -2.965 82.635
12660070 22.9689 26.8907 17.4528 15.5056 0.596064 -3.06115 82.8181
12660071 22.9889 26.988 17.3347 15.5056 0.65507 -3.10381 82.8171
12660084 22.9889 26.988 17.3347 15.5056 0.65507 -3.10381 82.8171
12660095 23.0785 27.1241 17.2953 15.5437 0.690606 -3.13644 83.0417
12660111 23.0785 27.1241 17.2953 15.5437 0.690606 -3.13644 83.0417
12660127 23.1583 27.5132 17.1083 15.5532 0.839946 -3.24181 83.3329
12660134 23.1583 27.5132 17.1083 15.5532 0.839946 -3.24181 83.3329
12660150 23.1882 27.6785 17.0394 15.477 0.877875 -3.30107 83.3831
12660154 23.2579 27.8535 16.8752 15.3819 0.930285 -3.39235 83.3685
12660164 23.2579 27.8535 16.8752 15.3819 0.930285 -3.39235 83.3685
12660179 23.4871 28.087 16.6985 15.22 0.93464 -3.53125 83.4926
12660184 23.4871 28.087 16.6985 15.22 0.93464 -3.53125 83.4926
12660193 23.6565 28.2912 16.6361 15.0297 0.905436 -3.63852 83.6135
12660205 23.9455 28.476 16.4385 14.8203 0.870046 -3.79348 83.6803
12660214 23.9455 28.476 16.4385 14.8203 0.870046 -3.79348 83.6803
12660227 24.0651 28.6899 16.345 14.4681 0.822085 -3.93846 83.568
12660234 24.2444 28.8066 16.1162 14.2111 0.796697 -4.08807 83.3784
12660244 24.2444 28.8066 16.1162 14.2111 0.796697 -4.08807 83.3784
12660254 24.354 28.8553 16.0538 14.0493 0.749189 -4.16016 83.3124
12660280 24.354 28.8553 16.0538 14.0493 0.749189 -4.16016 83.3124
12660281 24.4138 28.7677 15.9187 13.8589 0.691351 -4.23172 82.9591
12660284 24.5135 28.7483 16.0018 13.8779 0.634733 -4.21847 83.1415
12660295 24.5135 28.7483 16.0018 13.8779 0.634733 -4.21847 83.1415
12660306 24.6032 28.7386 16.0642 13.8589 0.5795 -4.21882 83.2648
12660315 24.663 28.7094 16.137 13.8684 0.533068 -4.2038 83.3778
12660332 24.663 28.7094 16.137 13.8684 0.533068 -4.2038 83.3778
12660335 24.6131 28.7094 16.137 13.8208 0.534362 -4.20832 83.2803
12660345 24.4936 28.5441 16.2202 13.8018 0.491244 -4.15647 83.0596
12660356 24.4936 28.5441 16.2202 13.8018 0.491244 -4.15647 83.0596
12660365 24.3839 28.4662 16.3969 13.897 0.475782 -4.06937 83.1441
12660382 24.3839 28.4662 16.3969 13.897 0.475782 -4.06937 83.1441
12660385 24.2544 28.2328 16.6257 13.9922 0.404581 -3.9473 83.1051
12660395 24.2145 28.2523 16.8752 14.1254 0.385761 -3.8577 83.4675
12660407 24.2145 28.2523 16.8752 14.1254 0.385761 -3.8577 83.4675
12660416 24.2245 28.1453 17.0591 14.173 0.309432 -3.79257 83.6019
12660436 24.1448 28.0286 17.187 14.2492 0.282848 -3.72036 83.6096
12660458 24.0252 27.9897 17.2953 14.3158 0.294459 -3.65983 83.626
12660460 24.0252 27.9897 17.2953 14.3158 0.294459 -3.65983 83.626
12660472 24.0152 27.8924 17.3248 14.4015 0.285116 -3.61959 83.634
12660476 24.0352 27.8438 17.315 14.3919 0.264877 -3.62 83.5859
