675279 7.49019 7.71976 23.8807 21.043 -1.08432 7.41193 60.1336
675289 7.60434 7.83909 23.8315 20.8676 -1.13444 7.29659 60.1426
675299 7.60434 7.86663 23.8217 20.7799 -1.15669 7.27386 60.0726
675310 7.60434 7.86663 23.8217 20.7799 -1.15669 7.27386 60.0726
675319 7.70093 8.05939 23.7232 20.6143 -1.14415 7.13267 60.0979
675340 7.8063 8.16955 23.5165 20.2734 -1.20466 6.98076 59.7657
675352 8.03461 8.4541 23.3787 20.098 -1.19285 6.75089 59.9654
675370 8.20145 8.71112 23.1523 19.8252 -1.17607 6.52819 59.8901
675381 8.32438 8.86717 23.0735 19.533 -1.2533 6.37519 59.798
675391 8.32438 8.86717 23.0735 19.533 -1.2533 6.37519 59.798
675401 8.42097 9.0324 23.0637 19.4258 -1.26223 6.26499 59.9429
675411 8.42097 9.0324 23.0637 19.4258 -1.26223 6.26499 59.9429
675421 8.49122 9.22516 23.0145 19.2115 -1.28001 6.13328 59.9423
675431 8.61415 9.35367 22.9259 19.0653 -1.30132 6.00995 59.959
675452 8.79855 9.50054 22.7782 18.7731 -1.37976 5.82758 59.8504
675461 8.99174 9.66577 22.6306 18.5198 -1.43659 5.64128 59.8078
675471 8.99174 9.66577 22.6306 18.5198 -1.43659 5.64128 59.8078
675481 9.21126 9.86771 22.4042 18.1788 -1.49548 5.40646 59.6619
675491 9.21126 9.86771 22.4042 18.1788 -1.49548 5.40646 59.6619
675501 9.35176 10.1156 22.227 17.9158 -1.48776 5.20267 59.6101
675511 9.57128 10.2991 21.9907 17.6332 -1.52521 4.98036 59.4944
675521 9.57128 10.2991 21.9907 17.6332 -1.52521 4.98036 59.4944
675531 9.80837 10.5194 21.8234 17.3702 -1.57175 4.75437 59.5214
675541 9.96643 10.7397 21.7053 17.1948 -1.56741 4.57853 59.6063
675551 9.96643 10.7397 21.7053 17.1948 -1.56741 4.57853 59.6063
675561 10.142 10.8683 21.4789 16.9431 -1.60246 4.39451 59.4323
675571 10.142 10.8683 21.4789 16.9431 -1.60246 4.39451 59.4323
675581 10.2474 10.9692 21.3607 16.8105 -1.61163 4.28233 59.3879
675591 10.3704 11.0702 21.2525 16.7157 -1.61462 4.17303 59.4087
675601 10.3704 11.0702 21.2525 16.7157 -1.61462 4.17303 59.4087
675611 10.4494 11.1161 21.2032 16.6494 -1.63551 4.11167 59.4181
675621 10.4494 11.1161 21.1737 16.6494 -1.62389 4.10625 59.3886
675631 10.5021 11.2079 21.1737 16.5925 -1.62895 4.04943 59.4762
675641 10.6074 11.2446 21.0162 16.4599 -1.65149 3.95024 59.3281
675652 10.6074 11.2446 21.0162 16.4599 -1.65149 3.95024 59.3281
675661 10.7216 11.3915 20.9572 16.2514 -1.70085 3.81703 59.3216
675671 10.9236 11.6668 20.7012 16.0334 -1.65381 3.57629 59.3251
675690 10.9236 11.6668 20.7012 16.0334 -1.65381 3.57629 59.3251
675697 11.2397 11.9514 20.3862 15.7018 -1.67542 3.26345 59.2791
675702 11.547 12.1901 20.022 15.4175 -1.67357 2.96632 59.1766
675712 11.547 12.1901 20.022 15.4175 -1.67357 2.96632 59.1766
675722 11.907 12.4563 19.6283 15.0669 -1.69837 2.62414 59.0584
675742 12.2846 12.8234 19.1262 14.6405 -1.67599 2.20604 58.8747
675753 12.671 13.2824 18.6734 14.2425 -1.62204 1.77406 58.8693
675763 12.671 13.2824 18.6734 14.2425 -1.62204 1.77406 58.8693
675774 13.189 13.6679 18.26 13.8824 -1.65202 1.34376 58.9994
675783 13.6544 14.0259 17.7383 13.456 -1.66066 0.895262 58.8746
675793 13.6544 14.0259 17.7383 13.456 -1.66066 0.895262 58.8746
675804 14.0057 14.3747 17.2658 13.0674 -1.63049 0.498898 58.7136
675813 14.0057 14.3747 17.2658 13.0674 -1.63049 0.498898 58.7136
675824 14.3306 14.6409 17.0295 12.7926 -1.66963 0.217032 58.7937
675833 14.5589 14.8796 16.6701 12.4041 -1.68565 -0.0933766 58.5127
675843 14.5589 14.8796 16.6701 12.4041 -1.68565 -0.0933766 58.5127
675853 14.7872 15.155 16.4227 12.1483 -1.66913 -0.351512 58.5131
675864 14.9452 15.3018 16.2165 12.0061 -1.64776 -0.519361 58.4697
675873 14.9452 15.3018 16.2165 12.0061 -1.64776 -0.519361 58.4697
675886 15.2877 15.5772 15.9278 11.7598 -1.65602 -0.813968 58.5525
675893 15.2877 15.5772 15.9278 11.7598 -1.65602 -0.813968 58.5525
675903 15.5863 15.7792 15.7113 11.4755 -1.72622 -1.07048 58.5522
675914 15.8936 16.0913 15.3918 11.2386 -1.68707 -1.37026 58.6152
675925 15.8936 16.0913 15.3918 11.2386 -1.68707 -1.37026 58.6152
675934 16.2009 16.3942 15.0103 10.9638 -1.64476 -1.69569 58.5692
675945 16.2009 16.3942 15.0103 10.9638 -1.64476 -1.69569 58.5692
675955 16.517 16.5778 14.6495 10.6795 -1.67282 -1.99384 58.4238
675964 16.8156 16.8256 14.3299 10.4047 -1.67673 -2.28861 58.3758
675974 16.8156 16.8256 14.3299 10.4047 -1.67673 -2.28861 58.3758
675986 17.1196 17.1264 14.0103 10.1109 -1.66726 -2.602 58.3672
675995 17.5481 17.3501 13.6804 9.77926 -1.75602 -2.94009 58.3579
676005 17.5481 17.3501 13.6804 9.77926 -1.75602 -2.94009 58.3579
676015 17.8869 17.6613 13.268 9.46656 -1.72737 -3.29778 58.2828
676025 17.8869 17.6613 13.268 9.46656 -1.72737 -3.29778 58.2828
676035 18.1958 17.8169 12.9691 9.14437 -1.80794 -3.58684 58.1262
676045 18.5844 18.0309 12.6907 8.91695 -1.85807 -3.86642 58.223
676054 18.5844 18.0309 12.6907 8.91695 -1.85807 -3.86642 58.223
676064 18.7937 18.3032 12.3608 8.66109 -1.80243 -4.14882 58.1188
676074 19.2022 18.5074 12.0515 8.37681 -1.87894 -4.45869 58.138
676094 19.541 18.877 11.7732 8.17781 -1.82434 -4.74576 58.369
676106 19.541 18.877 11.7732 8.17781 -1.82434 -4.74576 58.369
676116 19.83 19.0229 11.5052 7.93144 -1.87892 -4.99652 58.2895
676126 20.0692 19.2077 11.2165 7.77035 -1.84834 -5.22366 58.2637
676136 20.0692 19.2077 11.2165 7.77035 -1.84834 -5.22366 58.2637
676146 20.2984 19.3341 10.9381 7.5524 -1.87103 -5.45617 58.123
676156 20.5475 19.5092 10.7526 7.40078 -1.88547 -5.6442 58.21
676167 20.5475 19.5092 10.7526 7.40078 -1.88547 -5.6442 58.21
676176 20.6372 19.5772 10.5876 7.28707 -1.87664 -5.76865 58.0891
676186 20.6372 19.5772 10.5876 7.28707 -1.87664 -5.76865 58.0891
676197 20.8165 19.8106 10.4124 7.12598 -1.84486 -5.95426 58.1655
676207 21.0457 19.9565 10.3196 7.02174 -1.87984 -6.08317 58.3436
676218 21.0457 19.9565 10.3196 7.02174 -1.87984 -6.08317 58.3436
676227 21.1653 20.0343 10.1959 6.90803 -1.89475 -6.19921 58.3035
676237 21.3048 20.0732 10.0928 6.77536 -1.95249 -6.31197 58.2462
676247 21.3048 20.0732 10.0928 6.77536 -1.95249 -6.31197 58.2462
676257 21.3646 20.1899 10 6.6806 -1.92928 -6.40694 58.2351
676267 21.3646 20.1899 10 6.6806 -1.92928 -6.40694 58.2351
676277 21.2749 20.1316 9.96907 6.63322 -1.93039 -6.41391 58.0088
676287 21.3646 20.1121 9.98969 6.67113 -1.96561 -6.40272 58.1375
676298 21.3646 20.1121 9.98969 6.67113 -1.96561 -6.40272 58.1375
676309 21.4144 20.1997 10.1031 6.65217 -1.99834 -6.38832 58.3693
676322 21.4543 20.2483 10.0103 6.6427 -1.95937 -6.43886 58.3556
676332 21.4543 20.2483 10.0103 6.6427 -1.95937 -6.43886 58.3556
676343 21.6038 20.3358 10 6.60479 -1.99129 -6.49117 58.5444
676357 21.6835 20.3553 9.91753 6.58584 -1.98998 -6.54282 58.5421
676367 21.7233 20.4233 9.84536 6.52899 -1.97209 -6.60592 58.521
676377 21.7233 20.4233 9.84536 6.52899 -1.97209 -6.60592 58.521
676387 21.7532 20.4817 9.78351 6.4437 -1.97193 -6.67296 58.4621
676398 21.7134 20.4331 9.79381 6.45318 -1.97836 -6.653 58.3934
676408 21.7134 20.4331 9.79381 6.45318 -1.97836 -6.653 58.3934
676418 21.7233 20.5303 9.83505 6.41527 -1.97114 -6.66707 58.504
676428 21.7233 20.5303 9.83505 6.41527 -1.97114 -6.66707 58.504
676439 21.7233 20.4428 9.73196 6.38685 -1.98407 -6.70344 58.2849
676448 21.7732 20.5109 9.73196 6.33946 -1.99415 -6.73783 58.3554
676458 21.7732 20.5109 9.73196 6.33946 -1.99415 -6.73783 58.3554
676469 21.9226 20.5887 9.68041 6.23523 -2.04492 -6.82793 58.4269
676478 21.9127 20.6276 9.6701 6.2068 -2.03211 -6.84645 58.4171
676488 21.9127 20.6276 9.6701 6.2068 -2.03211 -6.84645 58.4171
676498 22.092 20.6178 9.5567 6.21628 -2.05813 -6.90892 58.4829
676510 22.092 20.6178 9.5567 6.21628 -2.05813 -6.90892 58.4829
676518 22.1817 20.6665 9.52577 6.07414 -2.12448 -6.99294 58.4481
676528 22.3611 20.6567 9.46392 6.02676 -2.1969 -7.05722 58.5085
676538 22.3611 20.6567 9.46392 6.02676 -2.1969 -7.05722 58.5085
676548 22.371 20.7054 9.3299 5.97938 -2.14787 -7.13372 58.3857
676558 22.381 20.6957 9.29897 5.95095 -2.15741 -7.15628 58.3266
676579 22.5205 20.6567 9.20619 5.83724 -2.24693 -7.24841 58.2207
676588 22.5205 20.6567 9.20619 5.83724 -2.24693 -7.24841 58.2207
676598 22.4308 20.7151 9.18557 5.84671 -2.17203 -7.2485 58.1782
676609 22.4807 20.6859 9.13402 5.82776 -2.19385 -7.27824 58.1284
676618 22.4807 20.6859 9.13402 5.82776 -2.19385 -7.27824 58.1284
676628 22.4508 20.6567 9.14433 5.78986 -2.21758 -7.28097 58.0417
676639 22.4508 20.6567 9.14433 5.78986 -2.21758 -7.28097 58.0417
676648 22.4707 20.6762 9.21649 5.7709 -2.25344 -7.26581 58.1343
676658 22.4308 20.5984 9.27835 5.87514 -2.24966 -7.1866 58.1827
676678 22.4009 20.6373 9.34021 5.91304 -2.22623 -7.14984 58.2915
676688 22.371 20.5595 9.52577 5.91304 -2.32326 -7.06494 58.3694
676698 22.371 20.5595 9.52577 5.91304 -2.32326 -7.06494 58.3694
676711 22.2814 20.4914 9.64948 5.99833 -2.32842 -6.96457 58.4206
676718 22.2814 20.4914 9.64948 5.99833 -2.32842 -6.96457 58.4206
676728 22.2415 20.5206 9.73196 6.12152 -2.27386 -6.88604 58.6156
676738 22.1219 20.5011 9.78351 6.22575 -2.20805 -6.80865 58.6323
676748 22.1219 20.5011 9.78351 6.22575 -2.20805 -6.80865 58.6323
676759 22.0322 20.4525 9.87629 6.21628 -2.23625 -6.7583 58.5773
676768 21.9625 20.2483 9.96907 6.23523 -2.33161 -6.67802 58.4151
676779 21.9625 20.2483 9.96907 6.23523 -2.33161 -6.67802 58.4151
676789 21.9027 20.3261 10 6.32051 -2.2443 -6.63755 58.5493
676798 21.9027 20.3261 10 6.32051 -2.2443 -6.63755 58.5493
676808 21.803 20.3066 10 6.30156 -2.22339 -6.62752 58.4112
676819 21.7532 20.2677 10.0928 6.30156 -2.25827 -6.58045 58.4153
676829 21.7532 20.2677 10.0928 6.30156 -2.25827 -6.58045 58.4153
676840 21.6635 20.2677 10.0825 6.41527 -2.16631 -6.52934 58.429
676850 21.7034 20.151 10.1546 6.41527 -2.26435 -6.49161 58.4243
676859 21.7034 20.151 10.1546 6.41527 -2.26435 -6.49161 58.4243
676869 21.7134 20.1802 10.1959 6.39632 -2.27949 -6.48911 58.4858
676880 21.7134 20.1802 10.1959 6.39632 -2.27949 -6.48911 58.4858
676890 21.7134 20.1705 10.1546 6.36789 -2.28127 -6.51332 58.4064
676900 21.7433 20.258 10.1031 6.37737 -2.22761 -6.54584 58.4817
676920 21.7732 20.2191 10.0206 6.41527 -2.20758 -6.56097 58.4282
676930 21.7732 20.2191 10.0206 6.41527 -2.20758 -6.56097 58.4282
676939 21.6934 20.2677 9.93814 6.35842 -2.14797 -6.60804 58.2577
676950 21.7632 20.3553 9.96907 6.37737 -2.13788 -6.61218 58.4649
676961 21.7632 20.3553 9.96907 6.37737 -2.13788 -6.61218 58.4649
676969 21.8828 20.4622 9.79381 6.22575 -2.13682 -6.76578 58.3646
676981 22.1219 20.5984 9.61856 6.17837 -2.12062 -6.9014 58.5173
676990 22.1219 20.5984 9.61856 6.17837 -2.12062 -6.9014 58.5173
676999 22.3611 20.8124 9.46392 6.13099 -2.07665 -7.03913 58.7683
677012 22.3611 20.8124 9.46392 6.13099 -2.07665 -7.03913 58.7683
677019 22.5305 20.8999 9.25773 5.96042 -2.10061 -7.21558 58.6485
677029 22.68 20.9971 9.06186 5.87514 -2.07695 -7.35491 58.6141
677040 22.68 20.9971 9.06186 5.87514 -2.07695 -7.35491 58.6141
677049 22.6999 20.9777 8.89691 5.74248 -2.09057 -7.46906 58.317
677060 22.6501 20.9096 8.80412 5.67614 -2.09702 -7.51536 58.0399
677079 22.6401 20.8804 8.81443 5.66667 -2.11521 -7.50999 58.0016
677091 22.6401 20.8804 8.81443 5.66667 -2.11521 -7.50999 58.0016
677101 22.5504 20.8221 8.76289 5.74248 -2.05119 -7.48139 57.8779
677111 22.5205 20.8221 8.79381 5.86566 -1.99414 -7.41778 58.0021
677131 22.5106 20.9193 8.84536 5.91304 -1.94349 -7.39104 58.1883
677141 22.5305 21.0166 8.87629 5.89409 -1.92742 -7.40174 58.3175
677151 22.5305 21.0166 8.87629 5.89409 -1.92742 -7.40174 58.3175
677161 22.5803 20.9971 8.8866 6.02676 -1.89902 -7.35092 58.4908
677171 22.5803 20.9971 8.8866 6.02676 -1.89902 -7.35092 58.4908
677181 22.381 20.9388 8.97938 6.14994 -1.82708 -7.23462 58.4491
677191 22.2614 20.861 9.12371 6.19732 -1.85086 -7.13546 58.4434
677201 22.2614 20.861 9.12371 6.19732 -1.85086 -7.13546 58.4434
677211 22.2315 20.8999 9.2268 6.27313 -1.82723 -7.06912 58.6314
677223 22.1618 20.8513 9.42268 6.41527 -1.83426 -6.92641 58.851
677232 22.1618 20.8513 9.42268 6.41527 -1.83426 -6.92641 58.851
677241 22.1419 20.8221 9.48454 6.4437 -1.8511 -6.88607 58.8922
677251 22.1419 20.8221 9.48454 6.4437 -1.8511 -6.88607 58.8922
677261 22.102 20.6762 9.42268 6.42475 -1.88643 -6.89053 58.6256
677271 21.9127 20.6859 9.52577 6.49108 -1.81753 -6.80241 58.6154
677281 21.9127 20.6859 9.52577 6.49108 -1.81753 -6.80241 58.6154
677291 21.813 20.5498 9.45361 6.51003 -1.80314 -6.78915 58.3264
677301 21.6635 20.5498 9.60825 6.55741 -1.78344 -6.69273 58.379
677311 21.6635 20.3553 9.60825 6.55741 -1.87297 -6.66496 58.1845
677321 21.4543 20.2191 9.83505 6.70903 -1.8728 -6.47468 58.2175
677341 21.2948 19.976 10.0103 6.77536 -1.96094 -6.3262 58.0565
677352 21.0457 19.9176 10.2577 7.03122 -1.86886 -6.09617 58.2523
677362 21.0457 19.9176 10.2577 7.03122 -1.86886 -6.09617 58.2523
677372 20.976 19.7815 10.433 7.19231 -1.89919 -5.94323 58.3827
677382 20.976 19.7815 10.433 7.19231 -1.89919 -5.94323 58.3827
677392 20.7767 19.587 10.6804 7.46711 -1.88127 -5.69535 58.5112
677402 20.5275 19.4994 11.0206 7.69454 -1.8531 -5.44204 58.7421
677422 20.3681 19.2855 11.2784 7.92196 -1.88561 -5.21289 58.8539
677435 20.2087 19.1299 11.5052 8.10201 -1.90088 -5.02107 58.9457
677452 19.9197 18.9062 11.7629 8.34838 -1.87828 -4.76302 58.9371
677463 19.5909 18.6728 11.9381 8.52843 -1.84224 -4.54546 58.7302
677483 19.3318 18.4394 12.2268 8.7369 -1.8653 -4.29237 58.7348
677503 19.0727 18.2059 12.433 9.01171 -1.82552 -4.04454 58.7233
677513 18.7737 17.9434 12.6701 9.1728 -1.84754 -3.80999 58.56
677533 18.5147 17.5835 12.8969 9.41918 -1.88689 -3.53906 58.4143
677545 18.1061 17.214 13.268 9.81717 -1.859 -3.14223 58.4053
677555 18.1061 17.214 13.268 9.81717 -1.859 -3.14223 58.4053
677565 17.6577 16.8807 13.8144 10.1583 -1.89414 -2.70862 58.5111
677585 17.2192 16.6328 14.299 10.6511 -1.80024 -2.27085 58.8021
677597 16.7366 16.284 14.9485 11.0301 -1.8521 -1.79037 58.9991
677615 16.28 15.9627 15.3918 11.5608 -1.75192 -1.34053 59.1952
677625 15.9638 15.5864 15.8763 12.0251 -1.77819 -0.920631 59.4516
677635 15.9638 15.5864 15.8763 12.0251 -1.77819 -0.920631 59.4516
677645 15.5511 15.2376 16.268 12.3473 -1.782 -0.548803 59.404
677655 15.5511 15.2376 16.268 12.3473 -1.782 -0.548803 59.404
677666 15.1296 14.8062 16.6495 12.6789 -1.8114 -0.153732 59.2642
677676 14.7433 14.4941 17.0984 13.1148 -1.77998 0.246234 59.4506
677696 14.3394 14.182 17.3741 13.437 -1.72521 0.578878 59.3324
677706 13.9267 13.824 17.6989 13.7781 -1.69829 0.943755 59.2277
677716 13.9267 13.824 17.6989 13.7781 -1.69829 0.943755 59.2277
677727 13.5579 13.4752 18.1419 14.1761 -1.70528 1.3357 59.351
677736 13.5579 13.4752 18.1419 14.1761 -1.70528 1.3357 59.351
677749 13.11 13.0346 18.6144 14.5931 -1.72561 1.785 59.352
677756 12.7061 12.6949 19.1361 15.1332 -1.68175 2.22932 59.6703
677767 12.7061 12.6949 19.1361 15.1332 -1.68175 2.22932 59.6703
677776 12.2583 12.2543 19.6578 15.6923 -1.65772 2.71559 59.8627
677786 11.7402 11.7403 20.1697 16.1566 -1.67745 3.22184 59.8068
677796 11.7402 11.7403 20.1697 16.1566 -1.67745 3.22184 59.8068
677807 11.3187 11.3915 20.6126 16.7631 -1.5714 3.66115 60.0859
677816 11.3187 11.3915 20.6126 16.7631 -1.5714 3.66115 60.0859
677827 10.8621 11.0427 21.0261 17.2046 -1.51363 4.07229 60.1354
677836 10.5021 10.6847 21.3706 17.5748 -1.50219 4.42991 60.1321
677847 10.5021 10.6847 21.3706 17.5748 -1.50219 4.42991 60.1321
677857 10.0981 10.2532 21.5379 18.0619 -1.38485 4.81603 59.9512
677867 9.79081 9.86771 21.7446 18.4516 -1.34332 5.14689 59.8547
677877 9.79081 9.86771 21.7446 18.4516 -1.34332 5.14689 59.8547
677887 9.47469 9.50972 22.0695 18.9971 -1.26447 5.51586 60.051
677897 9.47469 9.50972 22.0695 18.9971 -1.26447 5.51586 60.051
677907 9.26395 9.24352 22.2959 19.3673 -1.22526 5.77252 60.1707
677917 8.88636 8.96814 22.5321 19.7765 -1.11108 6.09695 60.1631
677927 8.88636 8.96814 22.5321 19.7765 -1.11108 6.09695 60.1631
677937 8.53512 8.61933 22.8373 20.1564 -1.07927 6.4439 60.1482
677947 8.53512 8.61933 22.8373 20.1564 -1.07927 6.4439 60.1482
677958 8.24535 8.28888 23.2212 20.6143 -1.06152 6.78352 60.3697
677967 8.01705 8.15119 23.4279 21.0138 -0.940445 6.99723 60.6099
677977 8.01705 8.15119 23.4279 21.0138 -0.940445 6.99723 60.6099
677987 7.71849 7.86663 23.546 21.2086 -0.907072 7.25132 60.3398
677997 7.52531 7.82073 23.5854 21.3937 -0.78586 7.36834 60.3251
678007 7.52531 7.82073 23.5854 21.3937 -0.78586 7.36834 60.3251
678017 7.41116 7.75648 23.4378 21.5301 -0.649512 7.43327 60.1355
678027 7.41116 7.75648 23.4378 21.5301 -0.649512 7.43327 60.1355
678037 7.38481 7.68305 23.4279 21.5593 -0.653718 7.47298 60.0551
678047 7.297 7.61879 23.4181 21.6957 -0.583288 7.54578 60.0296
678060 7.297 7.61879 23.4181 21.6957 -0.583288 7.54578 60.0296
678067 7.26188 7.57289 23.5067 21.8223 -0.570647 7.60281 60.1638
678077 7.09504 7.38013 23.6543 22.1926 -0.487663 7.80105 60.322
678087 7.09504 7.38013 23.6543 22.1926 -0.487663 7.80105 60.322
678097 6.9282 7.20572 23.9102 22.4751 -0.478218 7.99367 60.5192
678117 6.73502 7.04968 24.1563 22.7966 -0.430182 8.19135 60.7376
678128 6.62965 6.89363 24.3631 23.0304 -0.438592 8.34011 60.9167
678139 6.62965 6.89363 24.3631 23.0304 -0.438592 8.34011 60.9167
678148 6.49793 6.70086 24.4123 23.0693 -0.469674 8.4746 60.6804
678161 6.39256 6.60907 24.4221 23.0986 -0.457285 8.55529 60.5223
678169 6.39256 6.60907 24.4221 23.0986 -0.457285 8.55529 60.5223
678179 6.32231 6.51728 24.5107 23.2544 -0.437798 8.64426 60.6047
678188 6.32231 6.51728 24.5107 23.2544 -0.437798 8.64426 60.6047
678198 6.1906 6.22354 24.7174 23.3908 -0.534371 8.84651 60.5224
678208 5.97986 6.01242 25.1013 23.7123 -0.557694 9.08334 60.8059
678218 5.97986 6.01242 25.1013 23.7123 -0.557694 9.08334 60.8059
678233 5.81302 5.8013 25.2982 23.9364 -0.564322 9.27386 60.8489
678242 5.62862 5.51674 25.5049 24.102 -0.623348 9.49633 60.7523
678251 5.62862 5.51674 25.5049 24.102 -0.623348 9.49633 60.7523
678260 5.47056 5.38823 25.7116 24.2384 -0.639534 9.64282 60.8088
678271 5.47056 5.38823 25.7116 24.2384 -0.639534 9.64282 60.8088
678279 5.33006 5.16793 25.8002 24.3943 -0.645919 9.8109 60.6925
678289 5.29494 5.03942 25.8199 24.5794 -0.615832 9.89524 60.7336
678309 5.2686 4.92009 25.8199 24.6281 -0.635073 9.95915 60.6367
678319 5.23347 4.7824 25.9676 24.5794 -0.759244 10.0386 60.5628
678329 5.23347 4.7824 25.9676 24.5794 -0.759244 10.0386 60.5628
678339 5.24225 4.7365 25.9774 24.5891 -0.782081 10.0556 60.5453
678350 5.24225 4.7365 25.9774 24.5891 -0.782081 10.0556 60.5453
678359 5.24225 4.71814 25.9479 24.4722 -0.827993 10.0512 60.3805
678372 5.38275 4.7365 25.938 24.3456 -0.926583 9.97412 60.4028
678380 5.38275 4.7365 25.938 24.3456 -0.926583 9.97412 60.4028
678390 5.42665 4.85583 25.9774 24.1507 -0.992179 9.8937 60.4106
678400 5.54081 4.97516 26.0266 24.0143 -1.06427 9.79037 60.5569
678410 5.54081 4.97516 26.0266 24.0143 -1.06427 9.79037 60.5569
678421 5.66374 5.05778 26.0365 23.8877 -1.1356 9.69632 60.6457
678429 5.66374 5.05778 26.0365 23.8877 -1.1356 9.69632 60.6457
678440 5.73399 5.12203 26.0759 23.8195 -1.18036 9.63912 60.7514
678450 5.75155 5.11285 26.0955 23.7805 -1.21571 9.63402 60.7405
678461 5.75155 5.11285 26.0955 23.7805 -1.21571 9.63402 60.7405
678472 5.83936 5.13121 26.1251 23.6734 -1.29995 9.58413 60.769
678481 5.83936 5.13121 26.1251 23.6734 -1.29995 9.58413 60.769
678489 5.90961 5.12203 25.9873 23.6052 -1.3071 9.54096 60.6241
678501 5.97986 5.223 25.9971 23.5467 -1.31993 9.46742 60.7467
678520 6.11157 5.23218 25.879 23.4201 -1.37622 9.38824 60.6428
678531 6.18182 5.223 25.8101 23.3129 -1.42744 9.34731 60.5278
678541 6.18182 5.223 25.8101 23.3129 -1.42744 9.34731 60.5278
678551 6.22572 5.29644 25.8002 23.3129 -1.40868 9.29928 60.6353
678561 6.22572 5.29644 25.8002 23.3129 -1.40868 9.29928 60.6353
678573 6.21694 5.25054 25.7904 23.2447 -1.45122 9.31389 60.5026
678581 6.24329 5.24136 25.7904 23.2544 -1.46122 9.30791 60.5295
678591 6.24329 5.24136 25.7904 23.2544 -1.46122 9.30791 60.5295
678601 6.29597 5.3148 25.7412 23.2447 -1.43475 9.25178 60.5966
678611 6.35744 5.39741 25.6034 23.1083 -1.42851 9.16792 60.4665
678631 6.40134 5.59935 25.3868 23.0109 -1.31539 9.03923 60.3984
678641 6.40134 5.59935 25.3868 23.0109 -1.31539 9.03923 60.3984
678651 6.50671 5.73704 25.1309 22.8842 -1.25139 8.90442 60.2589
678662 6.63843 5.89309 24.9635 22.8648 -1.17798 8.77159 60.3598
678687 6.76136 6.07667 24.6682 22.8453 -1.03876 8.61837 60.3515
678691 6.85795 6.18683 24.6091 22.7966 -1.02717 8.52622 60.4505
678701 6.85795 6.18683 24.6091 22.7966 -1.02717 8.52622 60.4505
678711 6.98089 6.32451 24.4221 22.6212 -1.01795 8.38574 60.3487
678721 6.98089 6.32451 24.4221 22.6212 -1.01795 8.38574 60.3487
678731 7.03357 6.51728 24.3335 22.4751 -0.983587 8.26492 60.3595
678741 7.14773 6.76512 24.1465 22.3387 -0.906661 8.08942 60.398
678751 7.14773 6.76512 24.1465 22.3387 -0.906661 8.08942 60.398
678761 7.20041 6.82019 24.0481 22.2705 -0.894028 8.0291 60.3392
678771 7.21798 6.82019 24.0284 22.2705 -0.893177 8.02012 60.337
678783 7.21798 6.82019 24.0284 22.2705 -0.893177 8.02012 60.337
678791 7.28822 6.84773 23.9102 22.2023 -0.891493 7.96117 60.2485
678801 7.28822 6.84773 23.9102 22.2023 -0.891493 7.96117 60.2485
678811 7.30579 6.86609 23.8217 22.1926 -0.859334 7.93597 60.1861
678821 7.3936 6.92117 23.6642 22.1438 -0.828615 7.85723 60.1228
678833 7.3936 6.92117 23.6642 22.1438 -0.828615 7.85723 60.1228
678841 7.42872 7.00378 23.6543 22.1049 -0.820041 7.80673 60.1917
678852 7.42872 7.00378 23.6543 22.1049 -0.820041 7.80673 60.1917
678860 7.4814 7.08639 23.6051 22.0562 -0.806898 7.7438 60.2291
678871 7.52531 7.20572 23.4968 22.0756 -0.721665 7.67155 60.3035
678890 7.52531 7.20572 23.4968 22.0756 -0.721665 7.67155 60.3035
678893 7.55165 7.16901 23.4771 22.1438 -0.710924 7.68134 60.3416
678902 7.54287 7.20572 23.5657 22.1633 -0.719084 7.68394 60.4776
678922 7.54287 7.15065 23.4181 22.2413 -0.649941 7.69619 60.3528
678933 7.54287 7.15065 23.4181 22.2413 -0.649941 7.69619 60.3528
678942 7.47262 7.08639 23.4574 22.2413 -0.664815 7.75163 60.2577
678952 7.45506 7.10475 23.5559 22.29 -0.668901 7.76898 60.4057
678962 7.45506 7.10475 23.5559 22.29 -0.668901 7.76898 60.4057
678972 7.41994 7.08639 23.4968 22.3192 -0.626284 7.78559 60.3223
678982 7.41116 7.03132 23.546 22.3192 -0.666031 7.81561 60.3077
678995 7.41116 7.03132 23.546 22.3192 -0.666031 7.81561 60.3077
679002 7.3936 6.9946 23.6149 22.4361 -0.652651 7.85818 60.4392
679022 7.27944 6.90281 23.7035 22.4653 -0.668934 7.95013 60.3511
679033 7.16529 6.87527 23.7921 22.4751 -0.666197 8.01554 60.3078
679044 7.16529 6.87527 23.7921 22.4751 -0.666197 8.01554 60.3078
679053 7.0687 6.76512 23.9299 22.5043 -0.717303 8.11386 60.2681
679063 7.0687 6.80184 24.0185 22.553 -0.716548 8.11546 60.4421
679073 7.0687 6.80184 24.0185 22.553 -0.716548 8.11546 60.4421
679083 7.07748 6.7284 24.0481 22.5725 -0.754905 8.14577 60.4264
679104 6.99845 6.66415 24.0776 22.5433 -0.774935 8.20082 60.2835
679113 7.03357 6.65497 24.1268 22.4946 -0.833553 8.1909 60.3099
679123 7.03357 6.65497 24.1268 22.4946 -0.833553 8.1909 60.3099
679133 7.01601 6.68251 24.1563 22.4556 -0.843246 8.186 60.3104
679143 7.01601 6.68251 24.1268 22.3874 -0.860669 8.17494 60.2127
679153 7.01601 6.68251 24.1268 22.3874 -0.860669 8.17494 60.2127
679163 7.03357 6.78348 24.1957 22.3387 -0.872858 8.13171 60.3514
679174 7.03357 6.78348 24.1957 22.3387 -0.872858 8.13171 60.3514
679185 6.98967 6.81102 24.1563 22.2607 -0.861144 8.12461 60.2178
679197 7.07748 6.82937 24.1563 22.1536 -0.934483 8.07161 60.2168
679205 7.07748 6.82937 24.1563 22.1536 -0.934483 8.07161 60.2168
679214 7.20041 6.95788 24.1268 21.949 -1.00456 7.94837 60.2341
679224 7.22676 6.98542 24.0579 21.9198 -0.988317 7.91633 60.1898
679235 7.22676 6.98542 24.0579 21.9198 -0.988317 7.91633 60.1898
679245 7.28822 7.12311 24.0185 21.7152 -1.02604 7.81171 60.1451
679255 7.28822 7.12311 24.0185 21.7152 -1.02604 7.81171 60.1451
679265 7.35847 7.25162 23.989 21.5203 -1.071 7.70947 60.1194
679274 7.44628 7.38013 23.9299 21.345 -1.10276 7.59929 60.1013
679285 7.44628 7.38013 23.9299 21.345 -1.10276 7.59929 60.1013
679297 7.55165 7.55454 23.8118 21.1404 -1.1108 7.45425 60.0584
679305 7.55165 7.55454 23.8118 21.1404 -1.1108 7.45425 60.0584
679315 7.66581 7.71976 23.674 20.965 -1.1058 7.31037 60.0246
679325 7.81508 7.91253 23.5362 20.6728 -1.15371 7.12787 59.9366
679335 7.81508 7.91253 23.5362 20.6728 -1.15371 7.12787 59.9366
679345 7.98192 8.09611 23.3688 20.4 -1.19248 6.94041 59.8469
679355 8.21023 8.25216 23.2606 20.2149 -1.25285 6.76027 59.9379
679365 8.21023 8.25216 23.2606 20.2149 -1.25285 6.76027 59.9379
679374 8.42097 8.50918 23.0637 19.8252 -1.31658 6.50932 59.8191
679385 8.42097 8.50918 23.0637 19.8252 -1.31658 6.50932 59.8191
679394 8.6844 8.7203 22.7979 19.5037 -1.3643 6.25485 59.7063
679407 9.0532 9.04158 22.5223 19.1725 -1.40552 5.92077 59.7896
679425 9.43957 9.49136 22.2073 18.6562 -1.46307 5.50199 59.7944
679436 9.86983 9.90443 21.6856 18.0911 -1.49446 5.03832 59.551
679444 9.86983 9.90443 21.6856 18.0911 -1.49446 5.03832 59.551
679455 10.3089 10.4368 21.2229 17.4871 -1.51705 4.53219 59.4557
679465 10.3089 10.4368 21.2229 17.4871 -1.51705 4.53219 59.4557
679475 10.827 10.8315 20.7603 16.9052 -1.62264 4.04736 59.324
679485 11.2836 11.2354 20.2287 16.3272 -1.67147 3.56419 59.0749
679504 11.749 11.6668 19.7169 15.806 -1.69369 3.08127 58.9387
679525 12.1002 11.9973 19.3329 15.3133 -1.75448 2.69357 58.7437
679526 12.1002 11.9973 19.3329 15.3133 -1.75448 2.69357 58.7437
679536 12.4602 12.392 18.9195 14.9247 -1.73051 2.29793 58.6965
679546 12.4602 12.392 18.9195 14.9247 -1.73051 2.29793 58.6965
679556 12.7763 12.6766 18.6144 14.6405 -1.73472 1.99341 58.7077
679566 13.1627 12.9519 18.319 14.2614 -1.81803 1.65239 58.6951
679576 13.1627 12.9519 18.319 14.2614 -1.81803 1.65239 58.6951
679586 13.5052 13.1906 18.0533 14.0056 -1.85613 1.36919 58.7546
679596 13.8037 13.4935 17.758 13.7118 -1.85322 1.06502 58.767
679606 13.8037 13.4935 17.758 13.7118 -1.85322 1.06502 58.767
679616 14.1901 13.7597 17.3741 13.4749 -1.84081 0.739601 58.7988
679636 14.6204 14.1544 16.8557 13.0011 -1.84221 0.276815 58.6316
679646 15.077 14.5675 16.2784 12.5652 -1.8049 -0.205398 58.488
679656 15.077 14.5675 16.2784 12.5652 -1.8049 -0.205398 58.488
679666 15.5072 15.054 15.7423 12.1388 -1.73535 -0.6879 58.4423
679676 15.9199 15.4395 15.1856 11.6366 -1.73139 -1.16978 58.1816
679696 16.4117 15.9352 14.7732 11.1249 -1.77045 -1.66079 58.2449
679707 16.4117 15.9352 14.7732 11.1249 -1.77045 -1.66079 58.2449
679717 16.9912 16.3758 14.2062 10.6226 -1.8038 -2.20073 58.1958
679730 17.6278 16.899 13.5876 10.1204 -1.80132 -2.78668 58.2348
679738 17.6278 16.899 13.5876 10.1204 -1.80132 -2.78668 58.2348
679747 18.2057 17.3307 12.9588 9.58974 -1.82668 -3.35403 58.0849
679757 18.7837 17.8461 12.3918 9.06856 -1.8337 -3.91706 58.0901
679777 19.3118 18.3324 11.8557 8.63266 -1.80728 -4.42675 58.1326
679787 19.3118 18.3324 11.8557 8.63266 -1.80728 -4.42675 58.1326
679797 19.83 18.7311 11.4021 8.13991 -1.87642 -4.91002 58.1031
679807 20.3183 19.1299 10.9691 7.77982 -1.88054 -5.33513 58.197
679828 20.5873 19.4216 10.5979 7.41026 -1.87591 -5.68817 58.0172
679838 20.8664 19.5286 10.3299 7.22074 -1.91857 -5.91356 57.9456
679848 20.8664 19.5286 10.3299 7.22074 -1.91857 -5.91356 57.9456
679858 20.9859 19.7134 10.2474 7.06912 -1.91794 -6.04562 58.0159
679868 20.9859 19.7134 10.2474 7.06912 -1.91794 -6.04562 58.0159
679878 21.1653 19.8301 10.1134 6.93645 -1.94338 -6.18798 58.0452
679888 21.3447 20.0343 10.0928 6.84169 -1.95557 -6.28787 58.3135
679899 21.3447 20.0343 10.0928 6.84169 -1.95557 -6.28787 58.3135
679908 21.5041 20.2288 9.93814 6.73746 -1.9158 -6.43502 58.4085
679919 21.7831 20.2288 9.81443 6.73746 -1.97701 -6.5211 58.5638
679928 21.7831 20.2483 9.81443 6.58584 -2.03803 -6.57977 58.4317
679939 21.9027 20.4039 9.69072 6.55741 -1.97769 -6.67541 58.5547
679948 21.9027 20.4039 9.69072 6.55741 -1.97769 -6.67541 58.5547
679958 22.0123 20.54 9.56701 6.36789 -1.99675 -6.82648 58.4873
679968 22.1618 20.5303 9.37113 6.32051 -2.00487 -6.93698 58.3837
679979 22.1618 20.5303 9.37113 6.32051 -2.00487 -6.93698 58.3837
679988 22.2714 20.7151 9.25773 6.14994 -1.99681 -7.08431 58.3942
679998 22.2714 20.7151 9.25773 6.14994 -1.99681 -7.08431 58.3942
680008 22.381 20.6665 9.1134 6.08361 -2.03638 -7.17247 58.2445
680018 22.5205 20.8124 9.05155 6.02676 -2.0257 -7.25578 58.4112
680038 22.5803 20.9096 8.92784 5.95095 -1.99061 -7.35269 58.3687
680048 22.6899 20.9777 8.8866 5.85619 -2.02988 -7.428 58.4104
680058 22.6899 20.9777 8.8866 5.85619 -2.02988 -7.428 58.4104
680068 22.6899 21.0166 8.73196 5.78038 -1.986 -7.52184 58.2188
680078 22.6899 21.0166 8.73196 5.78038 -1.986 -7.52184 58.2188
680088 22.7597 20.9777 8.73196 5.733 -2.05359 -7.54413 58.2023
680098 22.7796 21.0749 8.73196 5.72352 -2.0207 -7.56278 58.31
680108 22.7796 21.0749 8.73196 5.72352 -2.0207 -7.56278 58.31
680118 22.8693 21.143 8.71134 5.64771 -2.05147 -7.62015 58.3714
680128 22.9091 21.1333 8.6701 5.71405 -2.02472 -7.61425 58.4266
680140 22.9091 21.1333 8.6701 5.71405 -2.02472 -7.61425 58.4266
680151 22.8693 21.2792 8.60825 5.68562 -1.93042 -7.66258 58.4423
680159 22.8693 21.2792 8.60825 5.68562 -1.93042 -7.66258 58.4423
680171 22.9789 21.1333 8.60825 5.69509 -2.0366 -7.65435 58.4155
680182 22.8693 21.2597 8.53608 5.70457 -1.90213 -7.68079 58.3697
680191 22.8693 21.2597 8.53608 5.70457 -1.90213 -7.68079 58.3697
680199 22.9291 21.2889 8.5567 5.70457 -1.92047 -7.68393 58.4792
680210 22.7597 21.2305 8.5567 5.74248 -1.86284 -7.64059 58.2894
680219 22.7597 21.2305 8.5567 5.74248 -1.86284 -7.64059 58.2894
680229 22.7796 21.2208 8.53608 5.78986 -1.84523 -7.6315 58.3264
680259 22.4209 21.0458 8.68041 5.83724 -1.81872 -7.48884 57.9843
680271 22.4209 21.0458 8.68041 5.83724 -1.81872 -7.48884 57.9843
680281 22.3113 20.9874 8.76289 5.91304 -1.79979 -7.40568 57.9746
680291 22.1618 20.8902 8.91753 6.08361 -1.76801 -7.24788 58.0531
680301 22.1618 20.8902 8.91753 6.08361 -1.76801 -7.24788 58.0531
680311 22.0821 20.8804 9.08247 6.26366 -1.72378 -7.10436 58.3086
680321 22.0821 20.8804 9.08247 6.26366 -1.72378 -7.10436 58.3086
680331 22.0422 20.8513 9.20619 6.35842 -1.72718 -7.01243 58.4581
680343 21.8828 20.8318 9.37113 6.47213 -1.68635 -6.88327 58.5578
680351 21.8828 20.8318 9.37113 6.47213 -1.68635 -6.88327 58.5578
680361 21.8329 20.8513 9.49485 6.49108 -1.69825 -6.82586 58.6701
680371 21.6735 20.7346 9.63918 6.61427 -1.68929 -6.68785 58.6615
680381 21.6735 20.7346 9.63918 6.61427 -1.68929 -6.68785 58.6615
680391 21.6237 20.7151 9.68041 6.6427 -1.68179 -6.65228 58.6619
680401 21.6237 20.7151 9.68041 6.6427 -1.68179 -6.65228 58.6619
680411 21.4244 20.6567 9.78351 6.72798 -1.63125 -6.54596 58.5926
680426 21.3746 20.6762 9.80412 6.75641 -1.59785 -6.52354 58.6113
680431 21.3746 20.6762 9.80412 6.75641 -1.59785 -6.52354 58.6113
680443 21.2948 20.5887 9.86598 6.82274 -1.60033 -6.45224 58.5722
680453 21.2052 20.5206 9.93814 6.75641 -1.65452 -6.42701 58.4203
680463 21.2052 20.5206 9.93814 6.75641 -1.65452 -6.42701 58.4203
680472 21.1653 20.4331 10 6.81327 -1.6773 -6.36477 58.4116
680483 21.1653 20.4331 10 6.81327 -1.6773 -6.36477 58.4116
680492 20.9959 20.3844 10.1134 6.88907 -1.64252 -6.26328 58.3828
680503 20.976 20.365 10.1546 6.88907 -1.65992 -6.24237 58.3847
680512 20.976 20.365 10.1546 6.88907 -1.65992 -6.24237 58.3847
680523 21.0158 20.4233 10.2474 6.86065 -1.69917 -6.23371 58.5472
680532 20.9959 20.3942 10.1959 6.8796 -1.67535 -6.23818 58.4655
680552 21.1155 20.4331 10.2268 6.86065 -1.72614 -6.25753 58.636
680562 21.1155 20.4331 10.2268 6.86065 -1.72614 -6.25753 58.636
680573 21.1454 20.54 10.2165 6.78484 -1.71972 -6.30911 58.6868
680583 21.3148 20.6081 10.1237 6.81327 -1.70621 -6.36748 58.8599
680593 21.3148 20.6081 10.1237 6.81327 -1.70621 -6.36748 58.8599
680603 21.4244 20.7054 9.91753 6.59532 -1.72281 -6.55247 58.6426
680613 21.524 20.7443 9.7732 6.47213 -1.74353 -6.67101 58.5136
680623 21.524 20.7443 9.7732 6.47213 -1.74353 -6.67101 58.5136
680633 21.6934 20.7929 9.65979 6.43423 -1.76087 -6.75798 58.5804
680653 21.8529 20.9582 9.39175 6.21628 -1.74177 -6.98481 58.4191
680664 22.0522 21.0069 9.24742 6.14994 -1.77174 -7.09803 58.4564
680673 22.0522 21.0069 9.24742 6.14994 -1.77174 -7.09803 58.4564
680683 22.2315 21.0847 9.09278 6.03623 -1.79802 -7.23426 58.4452
680693 22.2315 21.0847 9.09278 6.03623 -1.79802 -7.23426 58.4452
680703 22.3511 21.1041 8.8866 5.89409 -1.81997 -7.38579 58.2359
680713 22.5703 21.1819 8.80412 5.78986 -1.88645 -7.49619 58.3462
680723 22.5703 21.1819 8.80412 5.78986 -1.88645 -7.49619 58.3462
680733 22.7298 21.1819 8.59794 5.67614 -1.92042 -7.64043 58.1858
680743 22.9291 21.2403 8.65979 5.62876 -2.01847 -7.66726 58.4579
680756 22.9291 21.2403 8.65979 5.62876 -2.01847 -7.66726 58.4579
680763 23.0088 21.2111 8.4433 5.58138 -2.00002 -7.77631 58.2446
680774 23.0088 21.2111 8.4433 5.58138 -2.00002 -7.77631 58.2446
680784 22.9789 21.1625 8.41237 5.51505 -2.02938 -7.8047 58.0688
680796 23.0387 21.2014 8.40206 5.57191 -2.00444 -7.79866 58.214
680807 23.0387 21.2014 8.40206 5.57191 -2.00444 -7.79866 58.214
680818 22.939 21.143 8.47423 5.43924 -2.08249 -7.80282 57.9955
680824 22.7796 20.9582 8.4433 5.60981 -2.01366 -7.70486 57.7909
680834 22.7796 20.9582 8.4433 5.60981 -2.01366 -7.70486 57.7909
680844 22.68 20.8804 8.6701 5.64771 -2.08278 -7.57865 57.8782
680864 22.5006 20.7929 8.85567 5.72352 -2.09072 -7.44245 57.8727
680874 22.3611 20.7443 9.04124 5.9699 -2.0167 -7.25118 58.1165
680884 22.3611 20.7443 9.04124 5.9699 -2.0167 -7.25118 58.1165
680894 22.2515 20.6957 9.3299 6.13099 -2.03513 -7.05885 58.408
680904 22.1717 20.6178 9.54639 6.34894 -2.02409 -6.87423 58.6849
680914 22.1717 20.6178 9.54639 6.34894 -2.02409 -6.87423 58.6849
680924 21.9625 20.5789 9.80412 6.51951 -1.98257 -6.68082 58.8651
680934 21.9625 20.5789 9.80412 6.51951 -1.98257 -6.68082 58.8651
680944 21.7134 20.4331 9.96907 6.67113 -1.94698 -6.50817 58.7866
680954 21.524 20.3747 10.1959 6.80379 -1.92764 -6.34119 58.8984
680964 21.524 20.3747 10.1959 6.80379 -1.92764 -6.34119 58.8984
680976 21.2849 20.1997 10.3814 6.97436 -1.90868 -6.15107 58.8403
680984 20.9361 19.9468 10.4845 7.1544 -1.84523 -5.95777 58.5218
680994 20.9361 19.9468 10.4845 7.1544 -1.84523 -5.95777 58.5218
681004 20.7268 19.8495 10.7216 7.24916 -1.85739 -5.79163 58.5472
681014 20.7268 19.8495 10.7216 7.24916 -1.85739 -5.79163 58.5472
681024 20.4777 19.7037 10.8557 7.43868 -1.79179 -5.61439 58.4757
681034 20.119 19.6064 11.1546 7.59978 -1.73883 -5.37903 58.4798
681044 20.119 19.6064 11.1546 7.59978 -1.73883 -5.37903 58.4798
681054 19.9994 19.5967 11.3402 7.73244 -1.70896 -5.24729 58.6687
681066 19.7503 19.4216 11.4845 7.89353 -1.67364 -5.07101 58.55
681077 19.7503 19.4216 11.4845 7.89353 -1.67364 -5.07101 58.55
681088 19.6506 19.3535 11.5567 8.04515 -1.62468 -4.96596 58.606
681096 19.6506 19.3535 11.5567 8.04515 -1.62468 -4.96596 58.606
681107 19.4513 19.2855 11.7938 8.2631 -1.57185 -4.76579 58.7937
681116 19.2022 19.1688 11.9897 8.35786 -1.56054 -4.6042 58.7185
681126 19.2022 19.1688 11.9897 8.35786 -1.56054 -4.6042 58.7185
681136 19.0926 18.9937 12.1134 8.5379 -1.56391 -4.45243 58.7376
681146 18.7937 18.8186 12.268 8.72742 -1.49965 -4.2529 58.6078
681166 18.5346 18.7506 12.4227 8.96433 -1.38156 -4.06449 58.6722
681177 18.5346 18.7506 12.4227 8.96433 -1.38156 -4.06449 58.6722
681188 18.2755 18.4296 12.5773 9.14437 -1.40296 -3.84672 58.4268
681197 18.0064 18.2351 12.8557 9.42865 -1.36621 -3.5772 58.5259
681207 18.0064 18.2351 12.8557 9.42865 -1.36621 -3.5772 58.5259
681217 17.7972 18.0309 13.0825 9.6466 -1.36711 -3.35544 58.5572
681227 17.4185 17.7489 13.3814 10.0162 -1.29555 -3.01454 58.565
681237 17.4185 17.7489 13.3814 10.0162 -1.29555 -3.01454 58.565
681248 17.0199 17.4376 13.8351 10.3952 -1.28738 -2.614 58.6878
681268 16.6136 17.0097 14.2577 10.8122 -1.29891 -2.18598 58.6932
681277 16.359 16.7063 14.8041 11.2575 -1.35274 -1.77676 59.1269
681288 16.359 16.7063 14.8041 11.2575 -1.35274 -1.77676 59.1269
681297 15.9551 16.3758 15.1546 11.7313 -1.26761 -1.37923 59.2168
681307 15.595 16.0178 15.5567 12.1104 -1.27512 -0.99843 59.2799
681317 15.595 16.0178 15.5567 12.1104 -1.27512 -0.99843 59.2799
681327 15.2438 15.5405 15.9691 12.5178 -1.33055 -0.58141 59.2712
681337 15.2438 15.5405 15.9691 12.5178 -1.33055 -0.58141 59.2712
681347 14.8223 15.2009 16.4433 12.8685 -1.34672 -0.179851 59.3349
681357 14.4272 14.8245 16.8041 13.2854 -1.31502 0.211784 59.3412
681367 14.4272 14.8245 16.8041 13.2854 -1.31502 0.211784 59.3412
681380 14.0408 14.4665 17.1477 13.6644 -1.28858 0.582801 59.3194
681387 14.0408 14.4665 17.1477 13.6644 -1.28858 0.582801 59.3194
681397 13.6457 13.9892 17.6989 14.0719 -1.38179 1.04433 59.4057
681407 13.1978 13.6404 18.1714 14.5552 -1.33202 1.48285 59.5648
681433 12.8202 13.1631 18.6537 14.9532 -1.40868 1.919 59.5902
681442 12.3724 12.8234 19.1754 15.3891 -1.3953 2.35156 59.7604
681454 12.3724 12.8234 19.1754 15.3891 -1.3953 2.35156 59.7604
681458 11.9246 12.4287 19.6873 15.8818 -1.37734 2.80758 59.9225
681478 11.5119 11.9789 20.0515 16.3367 -1.35598 3.23086 59.879
681490 11.1167 11.6026 20.4453 16.82 -1.30845 3.63742 59.9846
681499 11.1167 11.6026 20.4453 16.82 -1.30845 3.63742 59.9846
681510 10.8533 11.2538 20.6028 17.2533 -1.22951 3.93967 59.9632
681520 10.5548 11.0977 20.6028 17.5553 -1.04685 4.13947 59.8106
681530 10.5548 11.0977 20.6028 17.5553 -1.04685 4.13947 59.8106
681539 10.3879 10.9141 20.7307 17.8573 -0.979798 4.32943 59.8901
681550 10.3879 10.9141 20.7307 17.8573 -0.979798 4.32943 59.8901
681560 10.1069 10.7397 20.7603 18.1398 -0.83169 4.53249 59.7468
681570 9.98399 10.6479 20.839 18.3931 -0.744161 4.66061 59.8641
681580 9.98399 10.6479 20.839 18.3931 -0.744161 4.66061 59.8641
681590 9.73812 10.5011 21.0064 18.7049 -0.641589 4.87204 59.9504
681600 9.50981 10.2257 21.2032 19.0848 -0.584163 5.13612 60.0236
681610 9.50981 10.2257 21.2032 19.0848 -0.584163 5.13612 60.0236
681620 9.22004 9.90443 21.4887 19.4453 -0.565718 5.44707 60.0584
681630 9.22004 9.90443 21.4887 19.4453 -0.565718 5.44707 60.0584
681640 8.94783 9.61987 21.6757 19.6693 -0.556792 5.70264 59.9128
681651 8.67562 9.37203 22.1679 20.0493 -0.589989 6.01583 60.2649
681661 8.67562 9.37203 22.1679 20.0493 -0.589989 6.01583 60.2649
681670 8.46488 9.08747 22.4632 20.2734 -0.649905 6.26588 60.2889
681679 8.18388 8.84881 22.7487 20.5169 -0.649633 6.52578 60.2983
681692 8.18388 8.84881 22.7487 20.5169 -0.649633 6.52578 60.2983
681700 7.98192 8.5459 22.9849 20.7507 -0.692897 6.77222 60.2635
681719 7.74483 8.22462 23.3196 21.0235 -0.75289 7.05665 60.3126
681731 7.55165 7.92171 23.5756 21.3547 -0.766005 7.31502 60.4037
681740 7.55165 7.92171 23.5756 21.3547 -0.766005 7.31502 60.4037
681750 7.26188 7.7014 24.1071 21.6372 -0.836118 7.60557 60.7077
681760 6.91942 7.23326 24.4418 22.0075 -0.874773 7.99395 60.6019
681770 6.91942 7.23326 24.4418 22.0075 -0.874773 7.99395 60.6019
681779 6.68233 6.93035 24.7568 22.3582 -0.885357 8.27521 60.7276
681790 6.68233 6.93035 24.7568 22.3582 -0.885357 8.27521 60.7276
681801 6.5155 6.7284 24.8848 22.6115 -0.848041 8.45874 60.7401
681810 6.33988 6.44384 25.0324 22.8648 -0.850227 8.67986 60.6809
681821 6.33988 6.44384 25.0324 22.8648 -0.850227 8.67986 60.6809
681832 6.26963 6.26944 25.0521 22.9817 -0.854607 8.78976 60.5728
681841 6.16426 6.09503 25.0226 22.9524 -0.887938 8.8942 60.2343
681851 6.16426 6.09503 25.0226 22.9524 -0.887938 8.8942 60.2343
681861 6.16426 5.99406 25.1506 22.9817 -0.969923 8.95014 60.2905
681871 6.16426 5.99406 25.1506 22.9817 -0.969923 8.95014 60.2905
681881 6.1906 5.90227 25.1407 22.9232 -1.04137 8.96933 60.1568
681891 6.19938 6.00324 25.1309 22.8648 -1.02256 8.91878 60.1982
681903 6.19938 6.00324 25.1309 22.8648 -1.02256 8.91878 60.1982
681912 6.28719 6.03996 25.2588 22.8745 -1.08813 8.88337 60.4605
681921 6.28719 6.03996 25.2588 22.8745 -1.08813 8.88337 60.4605
681933 6.26963 6.03078 25.2982 22.8745 -1.10072 8.89792 60.4731
681941 6.29597 6.12257 25.3671 22.8063 -1.12813 8.85139 60.592
681951 6.29597 6.12257 25.3671 22.8063 -1.12813 8.85139 60.592
681961 6.26085 6.04914 25.5246 22.7966 -1.21215 8.90908 60.6312
681973 6.29597 6.04914 25.5246 22.7479 -1.247 8.89033 60.6176
681981 6.29597 6.04914 25.5246 22.7479 -1.247 8.89033 60.6176
681992 6.41012 5.99406 25.5837 22.7284 -1.34699 8.87107 60.7162
682001 6.41012 5.99406 25.5837 22.7284 -1.34699 8.87107 60.7162
682012 6.30475 5.94816 25.5345 22.5433 -1.38726 8.90712 60.3306
682021 6.33988 5.89309 25.5935 22.5725 -1.43538 8.92392 60.399
682031 6.33988 5.89309 25.5935 22.5725 -1.43538 8.92392 60.399
682041 6.35744 5.88391 25.6034 22.3777 -1.53566 8.90192 60.2224
682051 6.33988 5.95734 25.6723 22.3095 -1.55334 8.87984 60.2789
682061 6.33988 5.95734 25.6723 22.3095 -1.55334 8.87984 60.2789
682070 6.39256 6.04914 25.7609 22.2315 -1.60206 8.82383 60.4341
682092 6.46281 6.09503 25.8199 22.0854 -1.6962 8.76917 60.4632
682102 6.52428 6.21436 25.7904 21.9198 -1.72895 8.67797 60.4488
682113 6.52428 6.21436 25.7904 21.9198 -1.72895 8.67797 60.4488
682122 6.6999 6.26026 25.6526 21.7347 -1.80519 8.55723 60.3474
682132 6.78771 6.39795 25.564 21.5398 -1.8303 8.43883 60.2895
682142 6.78771 6.39795 25.564 21.5398 -1.8303 8.43883 60.2895
682154 6.93698 6.56317 25.5541 21.267 -1.9317 8.28588 60.3213
682162 6.93698 6.56317 25.5541 21.267 -1.9317 8.28588 60.3213
682173 7.03357 6.61825 25.3671 21.004 -1.99025 8.1767 60.0229
682182 7.17407 6.82937 25.2588 20.9456 -1.93412 8.02245 60.2078
682193 7.17407 6.82937 25.2588 20.9456 -1.93412 8.02245 60.2078
682203 7.2531 6.9487 25.1604 20.8384 -1.92124 7.92276 60.2006
682215 7.4375 7.04968 25.121 20.6241 -2.02748 7.78434 60.2323
682223 7.4375 7.04968 25.121 20.6241 -2.02748 7.78434 60.2323
682233 7.50775 7.08639 25.1407 20.6046 -2.054 7.74398 60.3394
682243 7.50775 7.08639 25.1407 20.6046 -2.054 7.74398 60.3394
682253 7.61312 7.19654 25.1899 20.4877 -2.11566 7.65482 60.4873
682263 7.58678 7.20572 25.2687 20.4 -2.1707 7.66016 60.4612
682273 7.58678 7.20572 25.2687 20.4 -2.1707 7.66016 60.4612
682283 7.61312 7.20572 25.1899 20.3805 -2.15966 7.63834 60.3893
682293 7.63946 7.26998 25.1112 20.4097 -2.09783 7.59837 60.4304
682303 7.63946 7.26998 25.1112 20.4097 -2.09783 7.59837 60.4304
682313 7.68337 7.25162 25.1112 20.3415 -2.15333 7.58045 60.3877
682323 7.68337 7.25162 25.1112 20.3415 -2.15333 7.58045 60.3877
682335 7.67459 7.20572 24.9635 20.3026 -2.13222 7.57796 60.1464
682345 7.64824 7.32505 24.806 20.2149 -2.04783 7.51263 59.9942
682355 7.64824 7.32505 24.806 20.2149 -2.04783 7.51263 59.9942
682366 7.71849 7.39849 24.6879 20.0883 -2.05351 7.42802 59.8931
682374 7.79752 7.46274 24.619 19.9713 -2.08119 7.35082 59.8506
682385 7.79752 7.46274 24.619 19.9713 -2.08119 7.35082 59.8506
682394 7.86777 7.527 24.5796 19.9519 -2.07277 7.29314 59.9262
682406 7.86777 7.527 24.5796 19.9519 -2.07277 7.29314 59.9262
682417 7.91167 7.66469 24.5698 19.9421 -2.02812 7.22326 60.0883
682426 7.98192 7.77484 24.5402 19.9616 -1.98549 7.15543 60.2586
682434 7.98192 7.77484 24.5402 19.9616 -1.98549 7.15543 60.2586
682445 7.97314 7.83909 24.4713 20.0201 -1.90093 7.13369 60.3036
682455 7.9907 7.81155 24.4123 20.0298 -1.89297 7.13092 60.2443
682464 7.9907 7.81155 24.4123 20.0298 -1.89297 7.13092 60.2443
682475 7.9907 7.82991 24.3926 20.1662 -1.81651 7.13939 60.3794
682485 7.9907 7.82991 24.3926 20.1662 -1.81651 7.13939 60.3794
682495 7.9468 7.72894 24.4024 20.137 -1.86138 7.19013 60.2151
682505 7.95558 7.76566 24.3631 20.1954 -1.80722 7.17586 60.2797
682531 7.9468 7.73812 24.3532 20.2149 -1.80364 7.19048 60.253
682534 7.9468 7.73812 24.3532 20.2149 -1.80364 7.19048 60.253
682545 7.89411 7.62797 24.3237 20.3026 -1.78195 7.2581 60.1483
682554 7.89411 7.63715 24.3138 20.3415 -1.75672 7.25845 60.1866
682567 7.89411 7.63715 24.3138 20.3415 -1.75672 7.25845 60.1866
682574 7.83264 7.66469 24.3434 20.3221 -1.74081 7.2723 60.1628
682584 7.83264 7.60043 24.2942 20.4 -1.71568 7.29979 60.1272
682594 7.83264 7.60043 24.2942 20.4 -1.71568 7.29979 60.1272
682606 7.90289 7.66469 24.304 20.3026 -1.7614 7.23874 60.1742
682614 7.90289 7.66469 24.304 20.3026 -1.7614 7.23874 60.1742
682624 7.84143 7.73812 24.1957 20.1954 -1.71067 7.20642 59.9707
682636 7.89411 7.82073 24.2056 20.1662 -1.71117 7.1539 60.0866
682647 7.89411 7.82073 24.2056 20.1662 -1.71117 7.1539 60.0866
682656 7.95558 7.89417 24.1268 20.098 -1.70214 7.08496 60.0745
682668 7.93802 7.91253 24.1465 20.0883 -1.69914 7.08598 60.0853
682676 7.93802 7.91253 24.1465 20.0883 -1.69914 7.08598 60.0853
682686 7.9907 7.99514 24.176 20.0103 -1.7289 7.02995 60.1722
682712 7.95558 8.00432 24.2252 19.9616 -1.75192 7.03952 60.1467
682723 7.98192 8.11447 24.2056 19.7862 -1.78353 6.96362 60.0882
682734 7.98192 8.11447 24.2056 19.7862 -1.78353 6.96362 60.0882
682745 8.06973 8.22462 24.2056 19.7181 -1.79872 6.88231 60.218
682747 8.12242 8.22462 24.117 19.6109 -1.83266 6.83667 60.0749
682767 8.22779 8.30724 23.9496 19.5037 -1.81971 6.73088 59.9884
682777 8.22779 8.30724 23.9496 19.5037 -1.81971 6.73088 59.9884
682787 8.28926 8.4541 23.802 19.3576 -1.78602 6.61475 59.9029
682797 8.28048 8.59179 23.674 19.2797 -1.70621 6.53932 59.8259
682807 8.28048 8.59179 23.674 19.2797 -1.70621 6.53932 59.8259
682817 8.41219 8.71112 23.4476 19.1335 -1.68126 6.39596 59.7044
682827 8.57025 8.89471 23.4279 19.0653 -1.68372 6.26143 59.9582
682837 8.57025 8.89471 23.4279 19.0653 -1.68372 6.26143 59.9582
682847 8.62293 9.01404 23.2212 18.9289 -1.63127 6.15011 59.7871
682857 8.62293 9.01404 23.2212 18.9289 -1.63127 6.15011 59.7871
682867 8.74587 9.17009 23.1129 18.6951 -1.67168 6.00063 59.724
682879 8.93027 9.39957 22.9653 18.5685 -1.64018 5.81419 59.8636
682887 8.93027 9.39957 22.9653 18.5685 -1.64018 5.81419 59.8636
682899 9.07076 9.64741 22.6601 18.247 -1.60858 5.58209 59.6253
682907 9.30785 9.91361 22.4829 17.906 -1.66546 5.32646 59.6104
682919 9.30785 9.91361 22.4829 17.906 -1.66546 5.32646 59.6104
682927 9.50981 10.2165 22.1975 17.6917 -1.59315 5.07322 59.6155
682939 9.50981 10.2165 22.1975 17.6917 -1.59315 5.07322 59.6155
682947 9.68543 10.3634 21.9514 17.4092 -1.6261 4.87593 59.4094
682957 9.98399 10.7856 21.6856 17.0682 -1.60262 4.53204 59.5234
682967 9.98399 10.7856 21.6856 17.0682 -1.60262 4.53204 59.5234
682977 10.1508 11.0151 21.3411 16.8673 -1.51978 4.30551 59.3743
682987 10.4845 11.2354 21.095 16.602 -1.57448 4.03346 59.4169
682999 10.4845 11.2354 21.095 16.602 -1.57448 4.03346 59.4169
683007 10.7479 11.5016 20.8095 16.4125 -1.53154 3.77637 59.4715
683019 10.7479 11.5016 20.8095 16.4125 -1.53154 3.77637 59.4715
683027 11.0201 11.8504 20.4945 16.024 -1.53237 3.44707 59.389
683039 11.3363 12.1258 20.1303 15.7207 -1.5258 3.13311 59.3131
683047 11.3363 12.1258 20.1303 15.7207 -1.5258 3.13311 59.3131
683059 11.6787 12.493 19.7365 15.3606 -1.50232 2.76506 59.2689
683069 12.0826 12.493 19.264 14.9342 -1.66719 2.45584 58.7739
683078 12.0826 12.7225 19.264 14.9342 -1.56347 2.38795 59.0034
683088 12.469 13.0713 18.8506 14.5457 -1.5706 1.99945 58.9366
683108 12.7676 13.3191 18.3486 14.1761 -1.54445 1.64764 58.6114
683119 13.0749 13.5945 18.1222 13.8919 -1.58082 1.36614 58.6834
683128 13.0749 13.5945 18.1222 13.8919 -1.58082 1.36614 58.6834
683139 13.3998 13.824 17.8859 13.5886 -1.64959 1.08626 58.6983
683148 13.3998 13.824 17.8859 13.5886 -1.64959 1.08626 58.6983
683160 13.6281 14.0259 17.6202 13.3423 -1.65486 0.84662 58.6164
683168 13.9793 14.3197 17.4134 13.0959 -1.69076 0.563777 58.8083
683178 13.9793 14.3197 17.4134 13.0959 -1.69076 0.563777 58.8083
683188 14.3042 14.6226 17.1181 12.7832 -1.70693 0.248474 58.8281
683199 14.6555 14.9255 16.701 12.4799 -1.68097 -0.102106 58.7619
683210 14.6555 14.9255 16.701 12.4799 -1.68097 -0.102106 58.7619
683220 14.9979 15.2468 16.3196 12.0819 -1.70037 -0.471429 58.6462
683230 14.9979 15.2468 16.3196 12.0819 -1.70037 -0.471429 58.6462
683240 15.437 15.5497 15.8969 11.8071 -1.69408 -0.838964 58.6907
683250 15.7882 15.8985 15.5567 11.4376 -1.70791 -1.19948 58.681
683260 15.7882 15.8985 15.5567 11.4376 -1.70791 -1.19948 58.681
683270 16.2536 16.2565 14.9794 11.0491 -1.6773 -1.66087 58.5385
683280 16.7541 16.5961 14.433 10.6226 -1.69862 -2.13025 58.4059
683289 16.7541 16.5961 14.433 10.6226 -1.69862 -2.13025 58.4059
683299 17.1794 16.9908 13.8866 10.1488 -1.6864 -2.6118 58.2056
683310 17.1794 16.9908 13.8866 10.1488 -1.6864 -2.6118 58.2056
683320 17.6477 17.2723 13.3814 9.73188 -1.7339 -3.0517 58.0334
683329 18.1758 17.6808 12.9072 9.4097 -1.71581 -3.4912 58.1735
683339 18.1758 17.6808 12.9072 9.4097 -1.71581 -3.4912 58.1735
683349 18.5645 18.0212 12.4124 9.06856 -1.67356 -3.90191 58.0666
683367 18.9132 18.2157 12.0412 8.7369 -1.72773 -4.23544 57.9071
683378 18.9132 18.2157 12.0412 8.7369 -1.72773 -4.23544 57.9071
683379 19.2819 18.4977 11.7835 8.56633 -1.7209 -4.49767 58.1295
683391 19.2819 18.4977 11.7835 8.56633 -1.7209 -4.49767 58.1295
683400 19.6805 18.7506 11.5258 8.29153 -1.78727 -4.79339 58.2484
683409 20.0393 18.9354 11.268 8.01672 -1.8689 -5.06953 58.2594
683420 20.0393 18.9354 11.268 8.01672 -1.8689 -5.06953 58.2594
683429 20.3482 19.1299 11.0309 7.79877 -1.90818 -5.3119 58.3077
683440 20.6372 19.2952 10.8351 7.59978 -1.96054 -5.52473 58.3672
683450 20.6372 19.2952 10.8351 7.59978 -1.96054 -5.52473 58.3672
683460 20.8365 19.4605 10.6495 7.46711 -1.95088 -5.69569 58.4136
683471 20.8365 19.4605 10.6495 7.46711 -1.95088 -5.69569 58.4136
683481 20.966 19.5481 10.4433 7.23969 -1.98531 -5.88459 58.197
683491 21.1454 19.7134 10.2165 7.10702 -1.95139 -6.06763 58.1823
683511 21.3148 19.8301 10.0619 6.96488 -1.96902 -6.21905 58.1716
683521 21.4642 19.9565 9.90722 6.83222 -1.96987 -6.36552 58.1602
683531 21.4642 19.9565 9.90722 6.83222 -1.96987 -6.36552 58.1602
683541 21.5739 20.0051 9.87629 6.72798 -2.02679 -6.43864 58.1833
683551 21.5739 20.0051 9.87629 6.72798 -2.02679 -6.43864 58.1833
683561 21.5938 20.1316 9.74227 6.62375 -1.97134 -6.54814 58.0914
683571 21.6038 20.151 9.75258 6.65217 -1.95717 -6.53806 58.1595
683581 21.6038 20.151 9.75258 6.65217 -1.95717 -6.53806 58.1595
683591 21.5739 20.0927 9.7732 6.6427 -1.98497 -6.52107 58.0824
683601 21.4941 20.1413 9.85567 6.70903 -1.93276 -6.46152 58.2001
683622 21.5739 20.1316 9.98969 6.82274 -1.96915 -6.38087 58.5179
683632 21.5739 20.1316 9.98969 6.82274 -1.96915 -6.38087 58.5179
683642 21.534 20.1413 9.97938 6.80379 -1.95364 -6.38713 58.4585
683652 21.6038 20.2483 9.97938 6.80379 -1.93188 -6.41309 58.6352
683662 21.6038 20.2483 9.97938 6.80379 -1.93188 -6.41309 58.6352
683674 21.7333 20.3066 9.92784 6.76589 -1.95314 -6.47317 58.7337
683682 21.7532 20.3747 9.86598 6.74693 -1.91415 -6.51549 58.7408
683692 21.7532 20.3747 9.86598 6.74693 -1.91415 -6.51549 58.7408
683702 21.8628 20.5011 9.78351 6.67113 -1.90164 -6.60744 58.8186
683712 21.8628 20.5011 9.78351 6.67113 -1.90164 -6.60744 58.8186
683722 21.8329 20.4817 9.69072 6.53846 -1.92313 -6.68357 58.5438
683732 21.803 20.4331 9.61856 6.50056 -1.9227 -6.71328 58.3552
683752 21.7532 20.3747 9.60825 6.4437 -1.95216 -6.72294 58.1799
683762 21.7532 20.3747 9.60825 6.4437 -1.95216 -6.72294 58.1799
683772 21.7233 20.3553 9.59794 6.4058 -1.96282 -6.73394 58.0823
683782 21.6137 20.3747 9.59794 6.4058 -1.91023 -6.72109 57.9922
683793 21.6137 20.3747 9.59794 6.4058 -1.91023 -6.72109 57.9922
683803 21.6934 20.3455 9.60825 6.50056 -1.91563 -6.68903 58.1478
683813 21.7632 20.4331 9.70103 6.49108 -1.94391 -6.68048 58.3884
683823 21.7632 20.4331 9.70103 6.49108 -1.94391 -6.68048 58.3884
683833 21.813 20.4914 9.75258 6.48161 -1.96134 -6.68027 58.5386
683843 21.813 20.4914 9.75258 6.48161 -1.96134 -6.68027 58.5386
683853 21.7732 20.4331 9.7732 6.48161 -1.98067 -6.65865 58.461
683866 21.7632 20.4233 9.86598 6.48161 -2.01772 -6.62151 58.5341
683873 21.7632 20.4233 9.86598 6.48161 -2.01772 -6.62151 58.5341
683883 21.7831 20.3844 9.75258 6.45318 -2.01208 -6.67132 58.3733
683894 21.823 20.3747 9.81443 6.50056 -2.03466 -6.63515 58.5127
683914 21.813 20.4039 9.7732 6.50056 -2.00107 -6.65315 58.4907
683925 21.7931 20.3942 9.73196 6.42475 -2.01654 -6.69235 58.344
683935 21.7931 20.3942 9.73196 6.42475 -2.01654 -6.69235 58.344
683945 21.9127 20.4525 9.78351 6.4058 -2.06553 -6.70552 58.5545
683956 21.9127 20.4525 9.78351 6.4058 -2.06553 -6.70552 58.5545
683964 21.823 20.4331 9.74227 6.39632 -2.02752 -6.70887 58.3946
683974 21.9525 20.472 9.64948 6.32051 -2.05907 -6.79546 58.3945
683985 21.9525 20.472 9.64948 6.32051 -2.05907 -6.79546 58.3945
683994 21.9924 20.472 9.65979 6.32999 -2.07437 -6.79368 58.4541
684004 21.9924 20.472 9.65979 6.32999 -2.07437 -6.79368 58.4541
684016 21.9027 20.4622 9.71134 6.39632 -2.03321 -6.73579 58.4726
684025 21.9525 20.4817 9.62887 6.35842 -2.02891 -6.79038 58.4215
684044 21.9426 20.4039 9.56701 6.36789 -2.03229 -6.7976 58.2813
684058 21.8529 20.4622 9.60825 6.38685 -1.97737 -6.77069 58.3102
684066 21.8529 20.4622 9.60825 6.38685 -1.97737 -6.77069 58.3102
684078 21.8728 20.4525 9.56701 6.4058 -1.96468 -6.78045 58.2981
684086 21.8728 20.4525 9.56701 6.4058 -1.96468 -6.78045 58.2981
684099 21.813 20.4817 9.61856 6.32999 -1.98302 -6.78521 58.2433
684106 21.6934 20.4428 9.6701 6.47213 -1.90835 -6.69046 58.2785
684116 21.6934 20.4428 9.6701 6.47213 -1.90835 -6.69046 58.2785
684126 21.7134 20.4039 9.6701 6.48161 -1.92983 -6.68423 58.269
684136 21.7034 20.4039 9.86598 6.48161 -2.0032 -6.61015 58.4549
684156 21.6137 20.3358 9.87629 6.60479 -1.9465 -6.53813 58.4306
684167 21.5639 20.2969 9.8866 6.58584 -1.9576 -6.52845 58.3332
684178 21.5639 20.2969 9.8866 6.58584 -1.9576 -6.52845 58.3332
684187 21.4742 20.2775 10.0103 6.69955 -1.92755 -6.4252 58.4615
684198 21.4742 20.2775 10.0103 6.69955 -1.92755 -6.4252 58.4615
684207 21.3945 20.1608 9.97938 6.76589 -1.90703 -6.3833 58.3005
684218 21.2948 20.1899 10.0722 6.79431 -1.87775 -6.32848 58.3513
684227 21.2948 20.1899 10.0722 6.79431 -1.87775 -6.32848 58.3513
684238 21.2948 20.1899 10.1856 6.85117 -1.89644 -6.26642 58.5215
684247 21.2948 20.1899 10.1856 6.85117 -1.89644 -6.26642 58.5215
684259 21.3048 20.2094 10.2268 6.8796 -1.89465 -6.24553 58.6206
684267 21.1852 20.1219 10.1856 6.95541 -1.83648 -6.20194 58.4481
684278 21.1852 20.1219 10.1856 6.95541 -1.83648 -6.20194 58.4481
684287 21.1354 20.0927 10.1443 6.96488 -1.80938 -6.20157 58.3373
684299 21.0657 20.1024 10.3402 7.03122 -1.82451 -6.09759 58.5395
684307 21.0657 20.1024 10.3402 7.03122 -1.82451 -6.09759 58.5395
684319 21.0258 20.0246 10.3402 7.02174 -1.84878 -6.08308 58.4123
684327 21.0258 20.0246 10.3402 7.02174 -1.84878 -6.08308 58.4123
684337 20.9461 19.9079 10.3608 7.00279 -1.88784 -6.05239 58.2176
684347 20.9361 19.9079 10.4742 7.09755 -1.88515 -5.97584 58.4158
684358 20.9361 19.9079 10.4742 7.09755 -1.88515 -5.97584 58.4158
684367 20.8863 19.9176 10.3918 7.10702 -1.82384 -5.9959 58.3027
684377 20.8464 19.9273 10.4948 7.16388 -1.81836 -5.93378 58.4325
684387 20.8464 19.9273 10.4948 7.16388 -1.81836 -5.93378 58.4325
684400 20.7368 19.8593 10.5464 7.30602 -1.76134 -5.83685 58.4485
684407 20.7368 19.8593 10.5464 7.30602 -1.76134 -5.83685 58.4485
684419 20.677 19.7912 10.5876 7.32497 -1.77648 -5.7953 58.3808
684427 20.6372 19.7037 10.6598 7.3913 -1.79905 -5.72589 58.3919
684437 20.6372 19.7037 10.6598 7.3913 -1.79905 -5.72589 58.3919
684447 20.5574 19.7231 10.7732 7.42921 -1.78613 -5.66271 58.483
684458 20.4279 19.6259 10.9381 7.51449 -1.80566 -5.53814 58.5064
684467 20.4279 19.6259 10.9381 7.51449 -1.80566 -5.53814 58.5064
684478 20.3781 19.4897 11.0825 7.61873 -1.85769 -5.42093 58.569
684498 20.3083 19.5286 11.0825 7.61873 -1.81227 -5.41589 58.5381
684508 20.1489 19.4897 11.1753 7.68506 -1.77327 -5.32786 58.4989
684518 20.1489 19.4897 11.1753 7.68506 -1.77327 -5.32786 58.4989
684528 20.0492 19.4216 11.1959 7.69454 -1.76871 -5.28958 58.3613
684538 19.9596 19.4216 11.2887 7.69454 -1.76994 -5.24241 58.3644
684548 19.9596 19.2563 11.2887 7.74192 -1.82415 -5.19824 58.2464
684560 20.0094 19.3049 11.3196 7.7893 -1.8121 -5.18769 58.4232
684568 20.0094 19.3049 11.3196 7.7893 -1.8121 -5.18769 58.4232
684579 19.9795 19.2077 11.3093 7.73244 -1.86705 -5.18955 58.2289
684588 20.0991 19.1785 11.3093 7.79877 -1.89733 -5.1818 58.3856
684599 20.0991 19.1785 11.3093 7.79877 -1.89733 -5.1818 58.3856
684609 20.2884 19.2952 11.268 7.75139 -1.9239 -5.26359 58.603
684618 20.2884 19.2952 11.268 7.75139 -1.9239 -5.26359 58.603
684628 20.5076 19.3924 11.1443 7.63768 -1.96901 -5.39809 58.6821
684639 20.7468 19.5772 10.8969 7.54292 -1.92445 -5.58613 58.7638
684653 20.7468 19.5772 10.8969 7.54292 -1.92445 -5.58613 58.7638
684658 20.976 19.7328 10.6907 7.26812 -1.98821 -5.81666 58.6676
684670 21.2948 19.8009 10.3608 7.0786 -2.03987 -6.06208 58.5352
684680 21.2948 19.8009 10.3608 7.0786 -2.03987 -6.06208 58.5352
684690 21.4543 19.869 10.1443 6.9175 -2.0605 -6.23312 58.3851
684699 21.4543 19.869 10.1443 6.9175 -2.0605 -6.23312 58.3851
684709 21.5639 19.9662 9.78351 6.77536 -1.98221 -6.44819 58.089
684720 21.6237 20.0051 9.7732 6.6427 -2.04542 -6.51556 58.0447
684730 21.6237 20.0051 9.7732 6.6427 -2.04542 -6.51556 58.0447
684739 21.5938 19.976 9.75258 6.57637 -2.07001 -6.53922 57.8987
684750 21.6536 20.0538 9.81443 6.61427 -2.06411 -6.52228 58.1361
684759 21.6536 20.0538 9.81443 6.61427 -2.06411 -6.52228 58.1361
684769 21.7233 20.0635 9.93814 6.58584 -2.14889 -6.49867 58.3108
684779 21.7233 20.0635 9.93814 6.58584 -2.14889 -6.49867 58.3108
684789 21.7433 20.083 10.0619 6.6427 -2.16957 -6.43806 58.5308
684799 21.7532 20.0538 10.0928 6.6806 -2.18146 -6.41007 58.5804
684826 21.7532 20.1219 10.1753 6.72798 -2.16009 -6.37272 58.7783
684830 21.803 20.083 10.1546 6.75641 -2.17627 -6.37148 58.7971
684850 21.7632 20.0538 10.1031 6.77536 -2.14546 -6.3732 58.6954
684859 21.7632 20.0538 10.1031 6.77536 -2.14546 -6.3732 58.6954
684871 21.5838 19.9954 10.0515 6.69008 -2.12183 -6.38818 58.3209
684879 21.5739 19.9273 10.0309 6.6806 -2.14594 -6.38769 58.2127
684889 21.5739 19.9273 10.0309 6.6806 -2.14594 -6.38769 58.2127
684899 21.4941 19.9371 9.98969 6.67113 -2.09824 -6.39599 58.092
684909 21.4144 19.9371 9.98969 6.77536 -2.01822 -6.34581 58.1165
684920 21.4144 19.8982 9.98969 6.77536 -2.03632 -6.34001 58.0776
684931 21.3048 19.8495 10.2062 6.90803 -2.03945 -6.18862 58.2686
684940 21.3048 19.8495 10.2062 6.90803 -2.03945 -6.18862 58.2686
684950 21.1952 19.8106 10.3505 7.00279 -2.02723 -6.07939 58.3591
684960 21.2151 19.8106 10.4639 7.09755 -2.03579 -6.00753 58.5872
684970 21.2151 19.8106 10.4639 7.09755 -2.03579 -6.00753 58.5872
684980 21.1354 19.8009 10.5464 7.27759 -1.9585 -5.89999 58.7603
684990 21.1354 19.8009 10.5464 7.27759 -1.9585 -5.89999 58.7603
685000 21.0158 19.7037 10.5876 7.36288 -1.93324 -5.82128 58.67
685010 20.966 19.6939 10.6598 7.44816 -1.90738 -5.7562 58.7679
685020 20.966 19.6939 10.6598 7.44816 -1.90738 -5.7562 58.7679
685029 20.7767 19.6064 10.6804 7.45764 -1.87669 -5.7018 58.5211
685041 20.7268 19.5092 10.6598 7.58082 -1.83692 -5.6421 58.4766
685051 20.7268 19.5092 10.6598 7.58082 -1.83692 -5.6421 58.4766
685061 20.5475 19.4411 10.6804 7.72297 -1.7399 -5.5449 58.3919
685071 20.5475 19.4411 10.6804 7.72297 -1.7399 -5.5449 58.3919
685081 20.4379 19.3049 10.7423 7.81773 -1.73983 -5.44986 58.3028
685091 20.2386 19.159 10.9175 8.07358 -1.6799 -5.24241 58.3887
685111 19.9496 18.9451 11.1031 8.24415 -1.65837 -5.03437 58.2419
685121 19.6108 18.77 11.4639 8.52843 -1.61729 -4.72524 58.3732
685131 19.6108 18.77 11.4639 8.52843 -1.61729 -4.72524 58.3732
685141 19.3318 18.6144 11.8454 8.87904 -1.56964 -4.403 58.6706
685151 19.3318 18.6144 11.8454 8.87904 -1.56964 -4.403 58.6706
685161 18.9232 18.2449 12.1546 9.2107 -1.54711 -4.04967 58.5334
685171 18.6043 18.1087 12.6495 9.62765 -1.49071 -3.67076 58.9902
685181 18.6043 18.1087 12.6495 9.62765 -1.49071 -3.67076 58.9902
685191 18.1659 17.8364 12.8866 9.95931 -1.38356 -3.35347 58.8482
685201 17.7274 17.5252 13.4433 10.3668 -1.38784 -2.90603 59.0627
685212 17.7274 17.5252 13.4433 10.3668 -1.38784 -2.90603 59.0627
685222 17.2292 17.1362 13.8557 10.7648 -1.34945 -2.47812 58.9858
685232 17.2292 17.1362 13.8557 10.7648 -1.34945 -2.47812 58.9858
685244 16.6927 16.6695 14.2887 11.2575 -1.29619 -1.99022 58.9084
685264 16.1834 16.2381 15.0206 11.7598 -1.35389 -1.42929 59.2019
685273 15.6214 15.7792 15.5155 12.2525 -1.31201 -0.920906 59.1685
685291 14.9979 15.311 16.1753 12.7737 -1.30298 -0.344258 59.2579
685302 14.3657 14.7052 16.9072 13.3612 -1.35093 0.302716 59.3393
685313 14.3657 14.7052 16.9072 13.3612 -1.35093 0.302716 59.3393
685323 13.751 14.1452 17.63 13.9487 -1.3817 0.928735 59.475
685334 13.2505 13.6496 18.2797 14.5931 -1.37501 1.49884 59.7729
685343 13.2505 13.6496 18.2797 14.5931 -1.37501 1.49884 59.7729
685354 12.6885 13.2457 18.7719 15.1522 -1.27908 2.00219 59.8582
685363 12.1792 12.8051 19.3133 15.6449 -1.26892 2.49586 59.9425
685375 12.1792 12.8051 19.3133 15.6449 -1.26892 2.49586 59.9425
685383 11.7314 12.4287 19.7267 16.0903 -1.22508 2.91533 59.9771
685403 11.2485 11.9606 20.1106 16.5167 -1.20401 3.36375 59.8363
685416 10.7831 11.6577 20.6028 16.9147 -1.17309 3.77182 59.9582
685424 10.7831 11.6577 20.6028 16.9147 -1.17309 3.77182 59.9582
685436 10.5196 11.3915 20.7997 17.2241 -1.12778 4.03254 59.9348
685444 10.344 11.1069 21.0851 17.4774 -1.18509 4.27694 60.0134
685457 10.344 11.1069 21.0851 17.4774 -1.18509 4.27694 60.0134
685464 10.0542 10.8499 21.2623 17.7209 -1.14621 4.52828 59.8873
685484 9.85227 10.6296 21.4296 17.9645 -1.12226 4.73786 59.876
685496 9.57128 10.3634 21.7545 18.2665 -1.12412 5.02529 59.9556
685504 9.57128 10.3634 21.7545 18.2665 -1.12412 5.02529 59.9556
685517 9.24638 10.0605 22.0301 18.588 -1.09639 5.33448 59.9249
685525 8.93027 9.73002 22.4928 18.9582 -1.13741 5.68712 60.1112
685534 8.93027 9.73002 22.4928 18.9582 -1.13741 5.68712 60.1112
685544 8.6405 9.41793 22.9062 19.3771 -1.14004 6.02192 60.3417
685554 8.6405 9.41793 22.9062 19.3771 -1.14004 6.02192 60.3417
685566 8.21023 9.04158 23.3098 19.6693 -1.16597 6.40717 60.2309
685576 7.9468 8.79374 23.6937 20.0298 -1.16472 6.69397 60.464
685586 7.9468 8.79374 23.6937 20.0298 -1.16472 6.69397 60.464
685596 7.58678 8.42657 24.0185 20.4779 -1.11585 7.06079 60.5098
685606 7.31457 8.10529 24.3434 20.7994 -1.13652 7.3617 60.5627
685617 7.31457 8.10529 24.3434 20.7994 -1.13652 7.3617 60.5627
685626 7.03357 7.77484 24.5796 21.1891 -1.09333 7.66634 60.5771
685636 7.03357 7.77484 24.5796 21.1891 -1.09333 7.66634 60.5771
685646 6.73502 7.45356 24.7962 21.4911 -1.06924 7.96153 60.4759
685656 6.54184 7.22408 25.0324 21.7054 -1.0928 8.17435 60.5038
685667 6.54184 7.22408 25.0324 21.7054 -1.0928 8.17435 60.5038
685678 6.35744 6.96706 25.2195 22.0756 -1.04512 8.40584 60.6196
685686 6.18182 6.76512 25.3966 22.3484 -1.01534 8.60034 60.692
685698 6.18182 6.76512 25.3966 22.3484 -1.01534 8.60034 60.692
685706 6.03254 6.43467 25.4951 22.6309 -1.01579 8.82743 60.5932
685716 6.03254 6.43467 25.4951 22.6309 -1.01579 8.82743 60.5932
685726 5.91839 6.30616 25.6624 22.7381 -1.04599 8.95075 60.6251
685736 5.91839 6.14093 25.5837 22.9037 -1.01468 9.02479 60.5467
685756 5.90083 6.14093 25.5541 22.9524 -0.97509 9.03365 60.5483
685767 5.96229 6.16847 25.4459 22.9037 -0.965588 8.98279 60.4803
685787 5.92717 6.13175 25.3868 22.9817 -0.910413 9.01318 60.4274
685807 5.97986 6.04914 25.3966 23.0304 -0.949858 9.03087 60.456
685817 5.91839 5.9757 25.5738 23.1083 -0.993873 9.10953 60.5762
685828 5.91839 5.9757 25.5738 23.1083 -0.993873 9.10953 60.5762
685840 5.93595 5.89309 25.5935 23.2934 -0.964727 9.15522 60.716
685848 5.88326 5.77376 25.6132 23.3713 -0.96937 9.23315 60.6416
685858 5.88326 5.77376 25.6132 23.3713 -0.96937 9.23315 60.6416
685868 5.88326 5.77376 25.6132 23.4103 -0.952692 9.23685 60.6805
685878 5.88326 5.77376 25.6132 23.4103 -0.952692 9.23685 60.6805
685888 5.89205 5.7095 25.6723 23.3908 -1.01541 9.26278 60.6646
685898 5.84814 5.61771 25.6624 23.498 -0.987551 9.32629 60.6263
685913 5.84814 5.61771 25.6624 23.498 -0.987551 9.32629 60.6263
685922 5.83058 5.68197 25.6034 23.498 -0.929646 9.30203 60.6139
685931 5.73399 5.59935 25.6427 23.6246 -0.888079 9.3895 60.6007
685938 5.73399 5.59935 25.6427 23.6246 -0.888079 9.3895 60.6007
685948 5.71643 5.54428 25.751 23.839 -0.856276 9.44836 60.8507
685958 5.71643 5.54428 25.751 23.839 -0.856276 9.44836 60.8507
685968 5.62862 5.43413 25.7609 23.8682 -0.859733 9.53168 60.6918
685978 5.65496 5.43413 25.7412 23.9266 -0.837499 9.52453 60.7569
685988 5.65496 5.43413 25.7412 23.9266 -0.837499 9.52453 60.7569
685999 5.66374 5.45248 25.6132 23.7415 -0.861119 9.48518 60.471
686008 5.64618 5.4433 25.5049 23.7903 -0.793883 9.49058 60.3847
686020 5.64618 5.4433 25.5049 23.7903 -0.793883 9.49058 60.3847
686028 5.72521 5.47084 25.5049 23.761 -0.826243 9.44475 60.462
686040 5.72521 5.47084 25.5049 23.761 -0.826243 9.44475 60.462
686048 5.75155 5.48002 25.3474 23.7221 -0.786424 9.41225 60.3011
686059 5.85692 5.57181 25.3179 23.7221 -0.777648 9.32992 60.4687
686068 5.85692 5.57181 25.3179 23.7221 -0.777648 9.32992 60.4687
686080 5.85692 5.70032 25.1899 23.7415 -0.663336 9.26807 60.4887
686088 5.85692 5.70032 25.1899 23.7415 -0.663336 9.26807 60.4887
686099 5.96229 5.73704 25.0423 23.6344 -0.676237 9.18676 60.376
686108 6.06767 5.77376 25.0127 23.5857 -0.711854 9.12237 60.4398
686128 6.12035 5.87473 24.8946 23.5564 -0.655042 9.04673 60.4461
686140 6.22572 5.98488 24.7962 23.5564 -0.611168 8.95148 60.5632
686149 6.22572 5.98488 24.7962 23.5564 -0.611168 8.95148 60.5632
686160 6.25207 6.12257 24.7273 23.4883 -0.564659 8.87295 60.5902
686169 6.3311 6.12257 24.619 23.4883 -0.552857 8.83084 60.5609
686180 6.3311 6.11339 24.619 23.3519 -0.614427 8.82054 60.4153
686189 6.375 6.13175 24.6288 23.3324 -0.636579 8.79502 60.468
686202 6.375 6.13175 24.6288 23.3324 -0.636579 8.79502 60.468
686209 6.38378 6.25108 24.5501 23.2155 -0.607328 8.72445 60.4004
686219 6.44525 6.26944 24.3729 23.1765 -0.569248 8.67052 60.2641
686240 6.55062 6.36123 24.3335 23.1181 -0.581835 8.58294 60.3634
686259 6.67355 6.48974 24.0776 22.9037 -0.56434 8.43418 60.1446
686270 6.84039 6.61825 23.9792 22.6504 -0.645247 8.28056 60.0882
686280 6.84039 6.61825 23.9792 22.6504 -0.645247 8.28056 60.0882
686290 6.94576 6.85691 23.8118 22.5043 -0.580671 8.1123 60.1188
686302 7.07748 6.97624 23.7626 22.3874 -0.613101 7.99692 60.2037
686311 7.07748 6.97624 23.7626 22.3874 -0.613101 7.99692 60.2037
686321 7.13895 7.15065 23.7724 22.3095 -0.60098 7.89917 60.3715
686342 7.14773 7.12311 23.7724 22.2997 -0.620346 7.90514 60.343
686351 7.21798 7.19654 23.7035 22.2218 -0.6228 7.83333 60.3398
686362 7.21798 7.19654 23.7035 22.2218 -0.6228 7.83333 60.3398
686371 7.27944 7.26998 23.6642 22.0562 -0.670926 7.75785 60.2697
686381 7.37603 7.33423 23.6346 21.9393 -0.720412 7.67953 60.2841
686391 7.37603 7.33423 23.6346 21.9393 -0.720412 7.67953 60.2841
686403 7.41116 7.4352 23.5263 21.7639 -0.722688 7.59368 60.1366
686412 7.41116 7.4352 23.5263 21.7639 -0.722688 7.59368 60.1366
686423 7.40238 7.49028 23.5067 21.6665 -0.729316 7.56183 60.0658
686431 7.4814 7.56371 23.5263 21.6567 -0.741887 7.50594 60.2282
686451 7.50775 7.64633 23.487 21.6762 -0.693075 7.46282 60.3173
686464 7.49897 7.59125 23.4771 21.7347 -0.684127 7.49268 60.302
686482 7.51653 7.59125 23.5165 21.7834 -0.686334 7.49709 60.4077
686493 7.51653 7.59125 23.5165 21.7834 -0.686334 7.49709 60.4077
686502 7.49019 7.57289 23.4673 21.8126 -0.651264 7.51127 60.343
686513 7.49019 7.58207 23.5165 21.8516 -0.650658 7.51878 60.4403
686522 7.49019 7.58207 23.5165 21.8516 -0.650658 7.51878 60.4403
686532 7.45506 7.59125 23.5067 21.8029 -0.649314 7.5212 60.3558
686542 7.46384 7.55454 23.5067 21.6762 -0.722471 7.51591 60.2013
686563 7.46384 7.55454 23.5067 21.6762 -0.722471 7.51591 60.2013
686564 7.51653 7.61879 23.4476 21.6957 -0.68417 7.46732 60.2786
686573 7.53409 7.62797 23.3295 21.5885 -0.68536 7.42907 60.0801
686596 7.6219 7.73812 23.3098 21.4034 -0.744976 7.32935 60.0732
686604 7.6219 7.73812 23.3098 21.4034 -0.744976 7.32935 60.0732
686615 7.66581 7.82991 23.3196 21.3255 -0.760724 7.27028 60.1409
686625 7.75362 7.92171 23.2704 21.3742 -0.716227 7.20391 60.3199
686635 7.75362 7.92171 23.2704 21.3742 -0.716227 7.20391 60.3199
686645 7.72727 7.98596 23.2803 21.1891 -0.761208 7.16722 60.1826
686654 7.72727 8.0135 23.1621 21.2086 -0.693423 7.14421 60.1115
686665 7.72727 8.0135 23.1621 21.2086 -0.693423 7.14421 60.1115
686675 7.82386 8.07775 23.2507 21.1501 -0.765595 7.08907 60.3025
686686 7.82386 8.07775 23.2507 21.1501 -0.765595 7.08907 60.3025
686695 7.85899 8.13283 23.1818 20.9748 -0.803509 7.02382 60.1484
686705 7.92045 8.25216 23.0932 20.8676 -0.787373 6.93164 60.1335
686714 7.92045 8.25216 23.0932 20.8676 -0.787373 6.93164 60.1335
686724 7.96436 8.32559 22.9456 20.7312 -0.772555 6.85051 59.9668
686734 7.96436 8.32559 22.9456 20.7312 -0.772555 6.85051 59.9668
686744 8.06095 8.44492 22.7979 20.4487 -0.822239 6.71288 59.7525
686754 8.13998 8.59179 22.7684 20.2928 -0.846143 6.60515 59.793
686764 8.13998 8.59179 22.7684 20.2928 -0.846143 6.60515 59.793
686775 8.29804 8.75702 22.6601 20.1272 -0.866404 6.45001 59.8424
686787 8.38585 8.94978 22.542 19.8934 -0.871927 6.29898 59.771
686796 8.38585 8.94978 22.542 19.8934 -0.871927 6.29898 59.771
686804 8.46488 9.08747 22.4731 19.8057 -0.854382 6.19906 59.8312
686815 8.46488 9.08747 22.4731 19.8057 -0.854382 6.19906 59.8312
686826 8.51756 9.28024 22.3845 19.5719 -0.857633 6.06449 59.7542
686836 8.66684 9.41793 22.2959 19.4453 -0.877349 5.93131 59.8259
686846 8.66684 9.41793 22.2959 19.4453 -0.877349 5.93131 59.8259
686855 8.70196 9.61069 22.2171 19.2797 -0.848007 5.8145 59.8094
686867 8.8249 9.7392 22.1975 19.1433 -0.893034 5.7032 59.9048
686874 8.8249 9.7392 22.1975 19.1433 -0.893034 5.7032 59.9048
686886 8.8688 9.77592 22.2762 19.0264 -0.976992 5.66944 59.9473
686905 8.93027 9.92279 22.1187 18.9095 -0.925469 5.55477 59.8812
686915 9.01808 9.94114 22.1089 18.6756 -1.05038 5.47972 59.7437
686927 9.01808 9.94114 22.1089 18.6756 -1.05038 5.47972 59.7437
686935 9.03564 10.0605 22.0793 18.6172 -1.01907 5.41883 59.7926
686945 9.07955 10.0972 22.04 18.5685 -1.0261 5.37718 59.7852
686955 9.07955 10.0972 22.04 18.5685 -1.0261 5.37718 59.7852
686965 9.07955 10.1339 22.0695 18.4613 -1.06864 5.35215 59.7443
686988 9.12345 10.2349 22.0203 18.4808 -1.01406 5.2981 59.8594
686996 9.20248 10.2165 22.0104 18.3834 -1.09216 5.26011 59.8128
687008 9.20248 10.2165 22.0104 18.3834 -1.09216 5.26011 59.8128
687016 9.27273 10.29 21.9514 18.2665 -1.1156 5.18274 59.7805
687028 9.26395 10.2991 21.8825 18.2665 -1.08052 5.17128 59.712
687037 9.26395 10.2991 21.8825 18.2665 -1.08052 5.17128 59.712
687046 9.33419 10.3909 21.8529 18.1691 -1.09927 5.09569 59.7471
687056 9.33419 10.3909 21.8529 18.1691 -1.09927 5.09569 59.7471
687068 9.27273 10.4644 21.8628 18.0327 -1.10614 5.07064 59.6325
687076 9.39566 10.5378 21.7742 17.9255 -1.13466 4.97196 59.6331
687086 9.39566 10.5378 21.7742 17.9255 -1.13466 4.97196 59.6331
687096 9.46591 10.6571 21.6757 17.8476 -1.10525 4.87882 59.6463
687106 9.52738 10.7306 21.5478 17.6527 -1.13183 4.77877 59.4584
687116 9.52738 10.7306 21.5478 17.6527 -1.13183 4.77877 59.4584
687126 9.68543 10.9233 21.5379 17.5553 -1.14935 4.64418 59.702
687136 9.68543 10.9233 21.5379 17.5553 -1.14935 4.64418 59.702
687148 9.77324 10.9876 21.3607 17.3605 -1.17092 4.52919 59.482
687156 9.92252 11.1253 21.1836 17.1656 -1.18491 4.36926 59.397
687167 9.92252 11.1253 21.1836 17.1656 -1.18491 4.36926 59.397
687176 10.1245 11.2446 21.0654 16.9431 -1.26402 4.20347 59.3777
687187 10.1245 11.2446 21.0654 16.9431 -1.26402 4.20347 59.3777
687195 10.3616 11.419 20.8489 16.7441 -1.2831 3.99482 59.3736
687211 10.6074 11.676 20.5634 16.5167 -1.25418 3.73882 59.3636
687217 10.6074 11.676 20.5634 16.5167 -1.25418 3.73882 59.3636
687229 10.9587 11.9606 20.1795 16.1187 -1.29137 3.38894 59.2175
687237 11.3538 12.2727 19.8448 15.7302 -1.34952 3.02742 59.2015
687257 11.6699 12.5113 19.4314 15.3512 -1.37322 2.69689 58.9638
687277 12.0739 12.9152 19.0278 14.8868 -1.40042 2.27292 58.9037
687290 12.5305 13.2365 18.6045 14.5078 -1.43968 1.87129 58.8793
687309 12.9256 13.5578 18.1517 14.1098 -1.45108 1.4754 58.7449
687318 13.3559 13.8607 17.7875 13.636 -1.55469 1.07612 58.6401
687328 13.3559 13.8607 17.7875 13.636 -1.55469 1.07612 58.6401
687341 13.8301 14.2279 17.4233 13.2191 -1.62112 0.66041 58.7003
687348 13.8301 14.2279 17.4233 13.2191 -1.62112 0.66041 58.7003
687358 14.1989 14.5859 17.0591 12.8021 -1.64971 0.275329 58.6459
687368 14.6116 14.9071 16.701 12.461 -1.68049 -0.0911763 58.6807
687378 14.6116 14.9071 16.701 12.461 -1.68049 -0.0911763 58.6807
687388 14.9628 15.2743 16.2887 12.0819 -1.66157 -0.477711 58.6077
687398 15.3053 15.4762 15.9588 11.7219 -1.73871 -0.795617 58.4621
687408 15.3053 15.4762 15.9588 11.7219 -1.73871 -0.795617 58.4621
687418 15.7004 15.8159 15.6392 11.3902 -1.76509 -1.1496 58.5457
687438 16.0253 16.128 15.2577 11.0017 -1.77761 -1.51351 58.4127
687449 16.4556 16.4033 14.9278 10.6984 -1.83022 -1.855 58.4852
687459 16.4556 16.4033 14.9278 10.6984 -1.83022 -1.855 58.4852
687469 16.8156 16.7797 14.4742 10.3194 -1.79432 -2.26113 58.3889
687480 17.1893 17.0486 13.9794 9.98774 -1.77491 -2.64689 58.2051
687490 17.1893 17.0486 13.9794 9.98774 -1.77491 -2.64689 58.2051
687499 17.6676 17.3987 13.567 9.65608 -1.79271 -3.04771 58.2895
687509 17.6676 17.3987 13.567 9.65608 -1.79271 -3.04771 58.2895
687520 17.9965 17.5641 13.1649 9.28651 -1.85774 -3.38958 58.012
687529 18.3851 17.8072 12.866 9.03066 -1.89934 -3.6915 58.089
687539 18.3851 17.8072 12.866 9.03066 -1.89934 -3.6915 58.089
687549 18.7638 18.0698 12.5052 8.77481 -1.90331 -4.01463 58.1135
687560 19.2022 18.2935 12.2577 8.50948 -1.99827 -4.30681 58.2629
687570 19.2022 18.2935 12.2577 8.50948 -1.99827 -4.30681 58.2629
687582 19.5909 18.5755 11.9072 8.2631 -1.9968 -4.62729 58.3367
687590 19.5909 18.5755 11.9072 8.2631 -1.9968 -4.62729 58.3367
687600 19.8998 18.7311 11.5876 7.94091 -2.0699 -4.92672 58.1594
687610 20.3083 19.0034 11.3402 7.76087 -2.09039 -5.18996 58.4128
687620 20.3083 19.0034 11.3402 7.76087 -2.09039 -5.18996 58.4128
687630 20.6571 19.1396 11.0103 7.53344 -2.14018 -5.46437 58.3404
687639 20.8066 19.2757 10.8763 7.37235 -2.15784 -5.6146 58.3309
687652 20.8066 19.2757 10.8763 7.37235 -2.15784 -5.6146 58.3309
687660 21.1055 19.3827 10.6701 7.1544 -2.24586 -5.82987 58.3127
687669 21.1055 19.3827 10.6701 7.1544 -2.24586 -5.82987 58.3127
687681 21.2251 19.4994 10.4845 6.98384 -2.24527 -5.99458 58.1929
687689 21.4045 19.6356 10.4021 6.86065 -2.27703 -6.11738 58.3027
687701 21.4045 19.6356 10.4021 6.86065 -2.27703 -6.11738 58.3027
687710 21.4742 19.7815 10.2784 6.74693 -2.24094 -6.23627 58.281
687722 21.4742 19.7815 10.2784 6.74693 -2.24094 -6.23627 58.281
687730 21.5938 19.8884 10.2371 6.69008 -2.24809 -6.30593 58.4094
687741 21.6038 19.8398 10.0825 6.6427 -2.23647 -6.37414 58.1687
687766 21.6336 19.9079 10.0722 6.60479 -2.23002 -6.40636 58.2185
687769 21.5539 19.8982 10.1443 6.67113 -2.20061 -6.34229 58.2676
687780 21.5539 19.8982 10.1443 6.67113 -2.20061 -6.34229 58.2676
687790 21.5041 19.8884 10.268 6.6427 -2.2473 -6.29857 58.3033
687809 21.4742 19.8982 10.268 6.65217 -2.22666 -6.29209 58.2926
687829 21.4244 19.869 10.3814 6.72798 -2.22971 -6.21133 58.4028
687830 21.4244 19.869 10.3814 6.72798 -2.22971 -6.21133 58.4028
687841 21.3746 19.8982 10.4227 6.76589 -2.19512 -6.17951 58.4613
687851 21.3646 19.7328 10.5052 6.85117 -2.26065 -6.09228 58.4538
687863 21.3646 19.7328 10.5052 6.85117 -2.26065 -6.09228 58.4538
687872 21.3148 19.7717 10.6082 6.83222 -2.27205 -6.06029 58.527
687881 21.3148 19.7717 10.6082 6.83222 -2.27205 -6.06029 58.527
687891 21.2251 19.655 10.6907 6.9175 -2.28391 -5.96834 58.4883
687901 21.2351 19.6453 10.8247 7.02174 -2.29569 -5.88331 58.7268
687911 21.2351 19.6453 10.8247 7.02174 -2.29569 -5.88331 58.7268
687921 21.1952 19.6161 10.8557 6.9175 -2.35439 -5.8987 58.5845
687931 21.1753 19.5967 10.9278 6.90803 -2.38808 -5.87023 58.6078
687941 21.1753 19.5967 10.9278 6.90803 -2.38808 -5.87023 58.6078
687951 21.2151 19.5092 10.9072 6.8796 -2.44978 -5.88028 58.5111
687961 21.2151 19.5092 10.9072 6.8796 -2.44978 -5.88028 58.5111
687971 21.1354 19.4411 10.9691 6.82274 -2.50164 -5.85541 58.3683
687982 21.1753 19.4119 10.9588 6.83222 -2.52231 -5.85738 58.3781
687992 21.1753 19.4119 10.9588 6.83222 -2.52231 -5.85738 58.3781
688002 21.1155 19.4216 10.9897 6.78484 -2.52896 -5.85541 58.3116
688012 21.1254 19.3924 10.9072 6.79431 -2.51028 -5.87854 58.2194
688022 21.1254 19.3924 10.9072 6.79431 -2.51028 -5.87854 58.2194
688032 21.255 19.48 10.9691 6.81327 -2.53379 -5.88355 58.5173
688042 21.255 19.48 10.9691 6.81327 -2.53379 -5.88355 58.5173
688052 21.245 19.4605 11.0103 6.79431 -2.56386 -5.87101 58.5102
688062 21.245 19.48 10.9381 6.84169 -2.5047 -5.88289 58.5048
688072 21.245 19.48 10.9381 6.84169 -2.5047 -5.88289 58.5048
688082 21.2251 19.4897 11 6.75641 -2.55637 -5.88966 58.4712
688092 21.1753 19.48 11.0103 6.81327 -2.519 -5.85639 58.4788
688102 21.1753 19.48 11.0103 6.81327 -2.519 -5.85639 58.4788
688112 21.3148 19.4508 10.9897 6.82274 -2.57388 -5.87758 58.578
688122 21.3148 19.4508 10.9897 6.82274 -2.57388 -5.87758 58.578
688132 21.3048 19.5189 10.9485 6.75641 -2.55344 -5.92501 58.5285
688142 21.245 19.5967 10.9278 6.81327 -2.4593 -5.91486 58.5828
688162 21.3247 19.6745 10.8041 6.74693 -2.43698 -6.00719 58.5503
688182 21.3247 19.6356 10.7938 6.67113 -2.48687 -6.03216 58.4253
688193 21.3746 19.6745 10.7423 6.6427 -2.48128 -6.07456 58.434
688203 21.3746 19.6745 10.7423 6.6427 -2.48128 -6.07456 58.434
688213 21.3945 19.762 10.6392 6.63322 -2.41251 -6.13158 58.4289
688223 21.3447 19.7717 10.5773 6.62375 -2.36914 -6.15133 58.3175
688243 21.3746 19.7912 10.567 6.57637 -2.38986 -6.17975 58.3091
688255 21.3646 19.7231 10.5258 6.54794 -2.4154 -6.19328 58.1614
688264 21.3646 19.7231 10.5258 6.54794 -2.4154 -6.19328 58.1614
688274 21.4144 19.7717 10.5052 6.57637 -2.39046 -6.20532 58.2677
688284 21.4144 19.7717 10.5052 6.57637 -2.39046 -6.20532 58.2677
688296 21.3945 19.8495 10.5155 6.51003 -2.38134 -6.23444 58.2695
688306 21.4443 19.8884 10.5258 6.47213 -2.40419 -6.25782 58.3307
688314 21.4443 19.8884 10.5258 6.47213 -2.40419 -6.25782 58.3307
688324 21.4045 19.9371 10.4948 6.50056 -2.34057 -6.26005 58.3369
688334 21.4343 19.9468 10.4639 6.51003 -2.33117 -6.2738 58.3551
688344 21.4343 19.9468 10.4639 6.51003 -2.33117 -6.2738 58.3551
688354 21.4443 19.9176 10.4639 6.49108 -2.3576 -6.27783 58.3169
688365 21.4443 19.9176 10.4639 6.49108 -2.3576 -6.27783 58.3169
688375 21.3646 19.9371 10.4124 6.49108 -2.2974 -6.28765 58.2051
688384 21.4343 19.9565 10.5258 6.59532 -2.31076 -6.22175 58.512
688404 21.3347 19.9079 10.5052 6.52899 -2.31781 -6.23108 58.2767
688414 21.2849 19.8593 10.567 6.63322 -2.29645 -6.15584 58.3444
688424 21.2849 19.8593 10.567 6.63322 -2.29645 -6.15584 58.3444
688434 21.2351 19.9176 10.6186 6.66165 -2.25658 -6.12818 58.4329
688455 21.255 19.8593 10.6598 6.72798 -2.27664 -6.0835 58.502
688464 21.2849 19.869 10.7423 6.6806 -2.33777 -6.0769 58.5767
688484 21.2849 19.869 10.7423 6.6806 -2.33777 -6.0769 58.5767
688487 21.2849 19.8495 10.7113 6.70903 -2.32161 -6.07484 58.5548
688495 21.2649 19.8787 10.6186 6.71851 -2.25984 -6.10627 58.4807
688506 21.2649 19.8787 10.6186 6.71851 -2.25984 -6.10627 58.4807
688516 21.2351 19.9176 10.6701 6.67113 -2.27221 -6.10614 58.4939
688526 21.2351 19.9176 10.6701 6.67113 -2.27221 -6.10614 58.4939
688536 21.3347 19.9468 10.5052 6.6427 -2.24646 -6.1956 58.4293
688546 21.3746 19.9857 10.4536 6.56689 -2.25913 -6.25371 58.3808
688556 21.3746 19.9857 10.4536 6.56689 -2.25913 -6.25371 58.3808
688566 21.4543 20.0635 10.3711 6.59532 -2.20854 -6.29691 58.4842
688576 21.4642 20.0538 10.3196 6.51951 -2.23218 -6.34342 58.3571
688596 21.524 20.1219 10.268 6.50056 -2.21249 -6.38813 58.4145
688607 21.524 20.1219 10.268 6.50056 -2.21249 -6.38813 58.4145
688619 21.524 20.1413 10.1237 6.51951 -2.13816 -6.43699 58.3086
688627 21.5838 20.1121 10.1134 6.46265 -2.19764 -6.4662 58.272
688637 21.5838 20.1121 10.1134 6.46265 -2.19764 -6.4662 58.272
688647 21.6436 20.1219 10.1031 6.4437 -2.2213 -6.48714 58.3123
688659 21.6237 20.1413 10.1546 6.43423 -2.22898 -6.47158 58.3539
688667 21.6237 20.1413 10.1546 6.43423 -2.22898 -6.47158 58.3539
688680 21.6735 20.151 10.1134 6.46265 -2.21455 -6.48499 58.4006
688687 21.6735 20.151 10.1134 6.46265 -2.21455 -6.48499 58.4006
688700 21.7433 20.2288 10.0103 6.48161 -2.15651 -6.5374 58.464
688707 21.7233 20.1024 10.0825 6.51003 -2.22249 -6.47911 58.4182
688717 21.7233 20.1024 10.0825 6.51003 -2.22249 -6.47911 58.4182
688727 21.7532 20.1705 10.0928 6.42475 -2.24618 -6.52095 58.4412
688739 21.7532 20.1705 10.0928 6.42475 -2.24618 -6.52095 58.4412
688747 21.7034 20.0927 10.1031 6.51003 -2.22729 -6.4672 58.4092
688757 21.7333 20.0343 10.134 6.58584 -2.24285 -6.42388 58.4875
688767 21.7333 20.0343 10.134 6.58584 -2.24285 -6.42388 58.4875
688777 21.6835 20.0149 10.134 6.54794 -2.25019 -6.42761 58.3803
688787 21.6436 19.9662 10.2062 6.61427 -2.25451 -6.36384 58.4303
688807 21.6735 19.9273 10.2062 6.67113 -2.25778 -6.34174 58.4782
688828 21.5639 19.7815 10.2887 6.69955 -2.30208 -6.26324 58.3336
688840 21.4144 19.6453 10.3918 6.8796 -2.26349 -6.11725 58.3311
688848 21.4144 19.6453 10.3918 6.8796 -2.26349 -6.11725 58.3311
688860 21.245 19.5383 10.5258 6.90803 -2.28645 -6.01615 58.2171
688868 21.1254 19.4119 10.7423 7.16388 -2.2637 -5.80848 58.4435
688880 21.1254 19.4119 10.7423 7.16388 -2.2637 -5.80848 58.4435
688888 20.9859 19.2563 10.9278 7.23021 -2.3233 -5.67228 58.4003
688908 20.7767 19.1201 11.1856 7.5524 -2.25536 -5.41287 58.6348
688921 20.5973 18.877 11.3918 7.66611 -2.32605 -5.23211 58.5322
688928 20.5973 18.877 11.3918 7.66611 -2.32605 -5.23211 58.5322
688940 20.3083 18.7408 11.6082 7.91249 -2.24656 -5.00132 58.5699
688948 20.0492 18.5172 12.0103 8.22519 -2.26064 -4.6761 58.8019
688960 20.0492 18.5172 12.0103 8.22519 -2.26064 -4.6761 58.8019
688969 19.7802 18.3421 12.2371 8.39576 -2.24637 -4.46499 58.7552
688979 19.7802 18.3421 12.2371 8.39576 -2.24637 -4.46499 58.7552
688988 19.4513 18.0406 12.6082 8.61371 -2.30153 -4.1566 58.7139
689000 19.1524 17.7197 12.8866 8.88852 -2.31503 -3.8613 58.6472
689008 19.1524 17.7197 12.8866 8.88852 -2.31503 -3.8613 58.6472
689020 18.7837 17.5154 13.1031 9.16332 -2.22316 -3.59411 58.5656
689030 18.3751 17.2431 13.4536 9.48551 -2.1774 -3.24788 58.5574
689041 18.3751 17.2431 13.4536 9.48551 -2.1774 -3.24788 58.5574
689049 18.0563 16.899 13.8866 9.82664 -2.22317 -2.8743 58.6685
689060 18.0563 16.899 13.8866 9.82664 -2.22317 -2.8743 58.6685
689070 17.6377 16.6053 14.268 10.2625 -2.14295 -2.47878 58.7736
689079 17.2292 16.3483 14.7938 10.6511 -2.12787 -2.06682 59.0223
689089 17.2292 16.3483 14.7938 10.6511 -2.12787 -2.06682 59.0223
689099 16.719 15.9627 15.2268 11.1059 -2.06609 -1.61377 59.0145
689114 16.3326 15.5956 15.701 11.5987 -2.04272 -1.17222 59.2279
689124 16.3326 15.5956 15.701 11.5987 -2.04272 -1.17222 59.2279
689132 15.9112 15.2284 16.2784 12.1198 -2.03285 -0.690662 59.5378
689140 15.9112 15.2284 16.2784 12.1198 -2.03285 -0.690662 59.5378
689150 15.4019 14.7694 16.701 12.4799 -2.04437 -0.250287 59.3523
689160 15.0155 14.3931 17.187 13.0011 -2.01702 0.196209 59.5967
689170 15.0155 14.3931 17.187 13.0011 -2.01702 0.196209 59.5967
689180 14.6028 14.081 17.6103 13.238 -2.05523 0.54539 59.5321
689190 14.2164 13.6312 17.9745 13.7023 -2.04008 0.964953 59.5245
689200 14.2164 13.6312 17.9745 13.7023 -2.04008 0.964953 59.5245
689210 13.8476 13.3467 18.3092 13.9771 -2.03135 1.28414 59.4806
689220 13.8476 13.3467 18.3092 13.9771 -2.03135 1.28414 59.4806
689230 13.4876 12.9428 18.6734 14.3751 -2.03565 1.66904 59.4789
689241 13.1539 12.493 18.9687 14.8016 -2.03145 2.05077 59.4172
689251 13.1539 12.493 18.9687 14.8016 -2.03145 2.05077 59.4172
689261 12.8466 12.1166 19.392 15.1616 -2.08358 2.41707 59.5169
689271 12.4251 11.6485 19.8153 15.7018 -2.05154 2.88052 59.5907
689281 12.4251 11.6485 19.8153 15.7018 -2.05154 2.88052 59.5907
689291 12.109 11.3364 20.15 16.1945 -1.97693 3.23611 59.7899
689301 12.109 11.3364 20.15 16.1945 -1.97693 3.23611 59.7899
689311 11.7665 11.0702 20.4847 16.3935 -2.0043 3.52713 59.7149
689323 11.4416 10.8591 20.839 16.6589 -1.99115 3.81209 59.7986
689331 11.4416 10.8591 20.839 16.6589 -1.99115 3.81209 59.7986
689344 11.1782 10.703 21.1442 16.9431 -1.94945 4.05365 59.9686
689362 10.9762 10.4919 21.1836 17.0585 -1.92992 4.21382 59.7101
689372 10.8796 10.3634 21.2525 17.1851 -1.92006 4.32164 59.6806
689382 10.8796 10.3634 21.2525 17.1851 -1.92006 4.32164 59.6806
689392 10.6952 10.2073 21.3214 17.302 -1.89298 4.46548 59.526
689402 10.5548 10.088 21.4296 17.4287 -1.87716 4.59207 59.5011
689412 10.5548 10.088 21.4296 17.4287 -1.87716 4.59207 59.5011
689422 10.3879 10.0329 21.7053 17.6235 -1.85639 4.74679 59.7496
689432 10.3879 10.0329 21.7053 17.6235 -1.85639 4.74679 59.7496
689442 10.1245 9.70248 21.9612 18.0034 -1.83126 5.05197 59.7916
689452 10.0015 9.53726 22.2073 18.3347 -1.80462 5.24373 60.0808
689462 10.0015 9.53726 22.2073 18.3347 -1.80462 5.24373 60.0808
689472 9.76446 9.32613 22.3943 18.588 -1.76647 5.46628 60.0729
689482 9.65031 9.18845 22.4829 18.7438 -1.74848 5.5909 60.0655
689492 9.65031 9.18845 22.4829 18.7438 -1.74848 5.5909 60.0655
689502 9.45713 9.02322 22.6995 18.9387 -1.74435 5.77804 60.1185
689522 9.22004 8.7662 22.8373 19.2115 -1.69887 6.01212 60.035
689533 8.93027 8.60097 23.0834 19.5914 -1.58675 6.26438 60.206
689552 8.69318 8.28888 23.2999 19.7862 -1.63065 6.51862 60.0682
689563 8.42975 8.09611 23.5854 20.2441 -1.5222 6.78572 60.3554
689573 8.42975 8.09611 23.5854 20.2441 -1.5222 6.78572 60.3554
689583 8.12242 7.87581 23.9004 20.4974 -1.51069 7.05334 60.3961
689593 8.12242 7.87581 23.9004 20.4974 -1.51069 7.05334 60.3961
689603 7.89411 7.53618 24.1465 20.8481 -1.51274 7.33911 60.4249
689613 7.6219 7.24244 24.3335 21.1989 -1.4546 7.61665 60.3967
689623 7.6219 7.24244 24.3335 21.1989 -1.4546 7.61665 60.3967
689633 7.41994 7.01296 24.6485 21.5009 -1.46687 7.85291 60.5823
689643 7.20919 6.87527 24.7076 21.7834 -1.34466 8.02466 60.5754
689656 7.20919 6.87527 24.7076 21.7834 -1.34466 8.02466 60.5754
689663 7.0687 6.69168 24.8749 22.0367 -1.32486 8.19601 60.672
689673 7.0687 6.69168 24.8749 22.0367 -1.32486 8.19601 60.672
689683 6.90186 6.4622 24.934 22.1049 -1.3529 8.36254 60.4029
689693 6.77893 6.37041 24.9537 22.212 -1.30571 8.45967 60.315
689703 6.77893 6.37041 24.9537 22.212 -1.30571 8.45967 60.315
689713 6.66477 6.36123 24.9045 22.2218 -1.24111 8.50348 60.1522
689723 6.61209 6.20518 25.0521 22.2607 -1.32973 8.60523 60.1301
689733 6.61209 6.20518 25.0521 22.2607 -1.32973 8.60523 60.1301
689744 6.56818 6.25108 25.0816 22.4556 -1.21907 8.62823 60.3565
689756 6.56818 6.25108 25.0816 22.4556 -1.21907 8.62823 60.3565
689764 6.55062 6.15929 25.1604 22.553 -1.24071 8.68957 60.4233
689776 6.49793 6.12257 25.2588 22.7381 -1.19441 8.75402 60.6174
689793 6.38378 6.10421 25.2884 22.8453 -1.12281 8.82003 60.6216
689803 6.29597 6.08585 25.3474 22.9427 -1.07745 8.87765 60.6719
689814 6.29597 6.08585 25.3474 22.9427 -1.07745 8.87765 60.6719
689825 6.35744 6.11339 25.3277 22.9914 -1.06119 8.84561 60.79
689835 6.35744 6.11339 25.3277 22.9914 -1.06119 8.84561 60.79
689845 6.3311 6.13175 25.1801 22.9232 -1.01386 8.82682 60.5661
689855 6.33988 6.23272 24.934 22.8648 -0.901251 8.75237 60.3713
689867 6.33988 6.23272 24.934 22.8648 -0.901251 8.75237 60.3713
689874 6.45403 6.2878 24.8749 22.894 -0.887106 8.68286 60.5107
689885 6.39256 6.26026 24.8159 22.816 -0.884187 8.70347 60.2847
689894 6.39256 6.26026 24.8159 22.816 -0.884187 8.70347 60.2847
689904 6.4189 6.2419 24.806 22.855 -0.88194 8.70337 60.3218
689914 6.4189 6.2419 24.806 22.855 -0.88194 8.70337 60.3218
689927 6.42769 6.23272 24.806 22.9135 -0.864327 8.70962 60.3799
689934 6.45403 6.20518 24.8454 22.9037 -0.906546 8.71318 60.4083
689944 6.45403 6.20518 24.8454 22.9037 -0.906546 8.71318 60.4083
689954 6.45403 6.29698 24.8946 22.9719 -0.857735 8.68945 60.6175
689964 6.41012 6.22354 24.9143 22.9524 -0.887784 8.73541 60.5004
689976 6.41012 6.22354 24.9143 22.9524 -0.887784 8.73541 60.5004
689986 6.42769 6.18683 24.9635 22.9914 -0.913405 8.75204 60.5694
689996 6.42769 6.18683 24.9635 22.9914 -0.913405 8.75204 60.5694
690006 6.43647 6.16847 25.0029 22.9719 -0.948741 8.75785 60.5798
690016 6.41012 6.14093 25.0127 22.9622 -0.958166 8.77901 60.526
690026 6.41012 6.14093 25.0127 22.9622 -0.958166 8.77901 60.526
690036 6.4189 6.16847 24.9635 22.9622 -0.930287 8.75968 60.5131
690046 6.4189 6.16847 24.9635 22.9622 -0.930287 8.75968 60.5131
690056 6.44525 6.22354 24.8454 22.855 -0.916067 8.70434 60.3692
690066 6.5155 6.29698 24.7765 22.855 -0.885116 8.64082 60.444
690077 6.5155 6.29698 24.7765 22.855 -0.885116 8.64082 60.444
690087 6.53306 6.37959 24.7076 22.7186 -0.887665 8.57993 60.3389
690096 6.63843 6.35205 24.6584 22.7771 -0.896829 8.55054 60.4259
690106 6.63843 6.35205 24.6584 22.7771 -0.896829 8.55054 60.4259
690116 6.70868 6.40713 24.6091 22.7284 -0.902486 8.49127 60.4533
690126 6.70868 6.40713 24.6091 22.7284 -0.902486 8.49127 60.4533
690136 6.78771 6.40713 24.4713 22.6699 -0.904104 8.43933 60.3361
690146 6.77014 6.49892 24.4418 22.6504 -0.854272 8.40518 60.3613
690156 6.77014 6.49892 24.4418 22.6504 -0.854272 8.40518 60.3613
690169 6.83161 6.59071 24.3729 22.6212 -0.824526 8.3351 60.4164
690177 6.87552 6.61825 24.3138 22.553 -0.835849 8.29342 60.3606
690187 6.87552 6.61825 24.3138 22.553 -0.835849 8.29342 60.3606
690197 6.91064 6.63661 24.3631 22.6115 -0.836734 8.28477 60.5218
690207 6.91064 6.63661 24.3631 22.6115 -0.836734 8.28477 60.5218
690217 6.8843 6.57235 24.2449 22.6115 -0.806382 8.3066 60.313
690227 6.90186 6.61825 24.2745 22.6115 -0.805636 8.28539 60.406
690243 6.90186 6.61825 24.2745 22.6115 -0.805636 8.28539 60.406
690257 6.98089 6.60907 24.2646 22.4946 -0.887288 8.24433 60.3491
690267 6.98089 6.60907 24.2646 22.4946 -0.887288 8.24433 60.3491
690278 6.98089 6.71922 24.2942 22.4458 -0.872754 8.19982 60.4401
690288 6.98089 6.71922 24.2942 22.4458 -0.872754 8.19982 60.4401
690299 7.02479 6.65497 24.2351 22.4264 -0.902598 8.1988 60.3412
690308 7.05992 6.70086 24.1859 22.3971 -0.889814 8.15881 60.3438
690318 7.05992 6.70086 24.1859 22.3971 -0.889814 8.15881 60.3438
690328 7.13895 6.71004 24.2351 22.2218 -1.01243 8.11062 60.3059
690338 7.20919 6.82019 24.1071 22.1049 -0.992364 8.01341 60.2414
690348 7.20919 6.82019 24.1071 22.1049 -0.992364 8.01341 60.2414
690358 7.30579 6.91199 24.0185 22.0562 -0.976974 7.9256 60.2925
690368 7.30579 6.91199 24.0185 22.0562 -0.976974 7.9256 60.2925
690378 7.30579 6.97624 24.0284 21.8516 -1.0415 7.87821 60.162
690388 7.4375 7.17819 24.0185 21.7542 -1.04477 7.73915 60.3884
690416 7.51653 7.19654 23.8807 21.5983 -1.08088 7.66694 60.1921
690418 7.66581 7.33423 23.7429 21.3937 -1.11446 7.51702 60.1366
690428 7.66581 7.33423 23.7429 21.3937 -1.11446 7.51702 60.1366
690438 7.77996 7.54536 23.7232 21.1014 -1.18719 7.35645 60.15
690448 7.77996 7.54536 23.7232 21.1014 -1.18719 7.35645 60.15
690458 7.87655 7.69222 23.5756 20.7897 -1.23895 7.20704 59.934
690468 7.95558 7.83909 23.546 20.5559 -1.29667 7.08903 59.8966
690479 7.95558 7.83909 23.546 20.5559 -1.29667 7.08903 59.8966
690489 8.08729 7.98596 23.5067 20.2344 -1.41003 6.93842 59.8143
690499 8.21023 7.98596 23.487 20.059 -1.52832 6.86696 59.7422
690508 8.21023 8.08693 23.487 20.059 -1.48356 6.83006 59.8432
690518 8.26291 8.22462 23.6149 19.9713 -1.53223 6.76636 60.0738
690528 8.26291 8.22462 23.6149 19.9713 -1.53223 6.76636 60.0738
690538 8.26291 8.30724 23.6445 19.9421 -1.52021 6.73651 60.1567
690548 8.38585 8.27052 23.7724 20.0006 -1.60815 6.73099 60.4294
690558 8.38585 8.27052 23.7724 20.0006 -1.60815 6.73099 60.4294
690568 8.37707 8.37149 23.7528 19.9226 -1.58699 6.68448 60.4239
690578 8.37707 8.37149 23.7528 19.9226 -1.58699 6.68448 60.4239
690588 8.39463 8.28888 23.7035 19.796 -1.66712 6.68361 60.183
690602 8.35072 8.32559 23.6346 19.8057 -1.60273 6.67802 60.1167
690609 8.35072 8.32559 23.6346 19.8057 -1.60273 6.67802 60.1167
690622 8.3595 8.34395 23.5854 19.6888 -1.63066 6.64516 59.9777
690629 8.37707 8.34395 23.6149 19.7278 -1.63171 6.64837 60.0638
690640 8.37707 8.34395 23.6149 19.7278 -1.63171 6.64837 60.0638
690650 8.40341 8.38067 23.5657 19.6986 -1.61949 6.61472 60.0484
690660 8.40341 8.38067 23.5657 19.6986 -1.61949 6.61472 60.0484
690670 8.35072 8.32559 23.6051 19.757 -1.6128 6.66718 60.0384
690679 8.36829 8.35313 23.6445 19.7765 -1.61414 6.65909 60.1424
690700 8.34194 8.2797 23.6543 19.7473 -1.65323 6.6924 60.0232
690709 8.33316 8.35313 23.6838 19.7862 -1.61148 6.67854 60.1564
690719 8.33316 8.35313 23.6838 19.7862 -1.61148 6.67854 60.1564
690729 8.32438 8.30724 23.7724 19.7862 -1.66278 6.71048 60.1903
690740 8.32438 8.30724 23.7724 19.7862 -1.66278 6.71048 60.1903
690750 8.29804 8.35313 23.6642 19.6986 -1.629 6.67634 60.0139
690759 8.24535 8.26134 23.7232 19.7083 -1.66794 6.73815 59.9382
690770 8.24535 8.26134 23.7232 19.7083 -1.66794 6.73815 59.9382
690782 8.23657 8.28888 23.7823 19.6206 -1.71427 6.7274 59.9284
690789 8.28926 8.32559 23.7823 19.6791 -1.69238 6.70311 60.0762
690803 8.28926 8.32559 23.7823 19.6791 -1.69238 6.70311 60.0762
690809 8.27169 8.30724 23.7429 19.6986 -1.66977 6.71335 60.0204
690820 8.27169 8.30724 23.7429 19.6986 -1.66977 6.71335 60.0204
690829 8.23657 8.29806 23.7134 19.7278 -1.6357 6.72935 59.9758
690840 8.28926 8.35313 23.7035 19.6499 -1.66253 6.67822 59.9958
690863 8.40341 8.39903 23.6346 19.6401 -1.66406 6.60957 60.0772
690871 8.39463 8.48164 23.5165 19.5622 -1.61259 6.55553 59.9549
690883 8.39463 8.48164 23.5165 19.5622 -1.61259 6.55553 59.9549
690891 8.54391 8.56425 23.2999 19.4355 -1.60588 6.42357 59.8436
690903 8.54391 8.56425 23.2999 19.4355 -1.60588 6.42357 59.8436
690911 8.57903 8.60097 23.2803 19.3868 -1.61724 6.38805 59.8471
690924 8.69318 8.73866 23.1424 19.3381 -1.56848 6.27133 59.9124
690931 8.69318 8.73866 23.1424 19.3381 -1.56848 6.27133 59.9124
690941 8.74587 8.77538 23.0342 19.2212 -1.58233 6.20664 59.7766
690951 8.88636 8.9865 22.8078 19.0264 -1.54139 6.01971 59.707
690961 8.88636 8.9865 22.8078 19.0264 -1.54139 6.01971 59.707
690971 9.03564 9.18845 22.5715 18.851 -1.49535 5.83397 59.6466
690981 9.03564 9.18845 22.5715 18.851 -1.49535 5.83397 59.6466
690991 9.22882 9.44546 22.4239 18.5782 -1.52028 5.61222 59.6764
691001 9.422 9.66577 22.1482 18.3054 -1.51114 5.38261 59.5415
691021 9.64153 9.85853 21.9907 18.0521 -1.56256 5.17513 59.5429
691046 9.81715 10.1247 21.7545 17.7599 -1.55031 4.93787 59.4563
691055 10.1069 10.4552 21.41 17.4871 -1.50296 4.62543 59.4592
691071 10.3704 10.6755 21.2131 17.1754 -1.57005 4.37692 59.4343
691082 10.5987 11.0151 20.9079 16.8768 -1.52136 4.08368 59.3985
691092 10.5987 11.0151 20.9079 16.8768 -1.52136 4.08368 59.3985
691102 10.8972 11.3089 20.5929 16.5357 -1.53604 3.77247 59.3347
691112 10.8972 11.3089 20.5929 16.5357 -1.53604 3.77247 59.3347
691123 11.1782 11.5934 20.1795 16.2609 -1.47919 3.46267 59.212
691132 11.4241 11.8321 19.9826 15.9766 -1.51905 3.21785 59.2154
691142 11.4241 11.8321 19.9826 15.9766 -1.51905 3.21785 59.2154
691152 11.5733 11.9514 19.7562 15.825 -1.50289 3.0597 59.1059
691162 11.7841 12.1442 19.5987 15.607 -1.53534 2.86066 59.134
691172 11.7841 12.1442 19.5987 15.607 -1.53534 2.86066 59.134
691182 11.8895 12.3186 19.4609 15.5123 -1.48676 2.72852 59.1812
691202 11.9509 12.4563 19.3428 15.2469 -1.52149 2.58891 58.9969
691214 12.188 12.7225 19.205 15.1332 -1.49257 2.38682 59.2487
691226 12.188 12.7225 19.205 15.1332 -1.49257 2.38682 59.2487
691233 12.3022 12.8969 19.0081 14.9058 -1.48344 2.21141 59.1129
691243 12.4954 13.0621 18.8014 14.6689 -1.5102 2.01079 59.0277
691263 12.7588 13.3099 18.5061 14.4036 -1.50537 1.73986 58.9784
691273 12.9081 13.4476 18.2403 14.1572 -1.50781 1.54251 58.7532
691283 12.9081 13.4476 18.2403 14.1572 -1.50781 1.54251 58.7532
691293 13.0837 13.6587 18.0336 14.0909 -1.4302 1.3714 58.8669
691313 13.4261 13.9249 17.7875 13.835 -1.46408 1.08644 58.9736
691324 13.7949 14.2279 17.3248 13.5223 -1.43096 0.719638 58.8699
691334 13.7949 14.2279 17.3248 13.5223 -1.43096 0.719638 58.8699
691347 14.1901 14.5767 16.8557 13.238 -1.37234 0.338155 58.8604
691355 14.594 14.9989 16.2577 12.7547 -1.32159 -0.148568 58.6054
691367 14.594 14.9989 16.2577 12.7547 -1.32159 -0.148568 58.6054
691374 15.0594 15.4487 15.6804 12.3188 -1.27004 -0.643214 58.5074
691385 15.0594 15.4487 15.6804 12.3188 -1.27004 -0.643214 58.5074
691395 15.516 15.7975 15.1237 11.864 -1.27708 -1.11297 58.3012
691405 15.9551 16.1096 14.6186 11.4755 -1.28465 -1.53992 58.1587
691415 15.9551 16.1096 14.6186 11.4755 -1.28465 -1.53992 58.1587
691430 16.3941 16.5869 14.134 11.0491 -1.2431 -2.01103 58.1641
691435 16.3941 16.5869 14.134 11.0491 -1.2431 -2.01103 58.1641
691444 16.8507 16.8531 13.5876 10.7269 -1.23166 -2.42752 58.0184
691454 17.3288 17.1945 13.1959 10.3763 -1.27116 -2.82756 58.0955
691474 17.7474 17.4765 12.8454 10.0635 -1.31278 -3.17764 58.1328
691484 18.1559 17.8461 12.5155 9.76031 -1.31481 -3.53297 58.2778
691494 18.1559 17.8461 12.5155 9.76031 -1.31481 -3.53297 58.2778
691505 18.5147 18.0698 12.3711 9.50446 -1.41615 -3.77408 58.46
691515 18.5147 18.0698 12.3711 9.50446 -1.41615 -3.77408 58.46
691524 18.7937 18.2449 12.0103 9.28651 -1.4025 -4.04773 58.3353
691535 19.0229 18.4394 11.7835 9.03066 -1.43126 -4.28511 58.2764
691546 19.0229 18.4394 11.7835 9.03066 -1.43126 -4.28511 58.2764
691556 19.1225 18.6241 11.6701 8.82219 -1.43645 -4.44403 58.2389
691566 19.3218 18.7408 11.4536 8.56633 -1.4928 -4.65958 58.0826
691576 19.3218 18.7408 11.4536 8.56633 -1.4928 -4.65958 58.0826
691586 19.6108 18.8381 11.299 8.43367 -1.56321 -4.82531 58.1815
691596 19.6108 18.8381 11.299 8.43367 -1.56321 -4.82531 58.1815
691606 19.8101 18.9451 11.0515 8.25362 -1.57721 -5.02494 58.0603
691616 20.0492 19.159 10.8454 8.08305 -1.57065 -5.23246 58.1367
691626 20.0492 19.159 10.8454 8.08305 -1.57065 -5.23246 58.1367
691637 20.388 19.3146 10.6804 7.88406 -1.66035 -5.44171 58.2672
691646 20.677 19.4314 10.5361 7.71349 -1.74281 -5.61846 58.3579
691672 20.9162 19.6259 10.3608 7.60925 -1.72695 -5.78648 58.5121
691683 20.9162 19.6259 10.3608 7.60925 -1.72695 -5.78648 58.5121
691694 21.0557 19.7426 10.1134 7.3913 -1.73028 -5.99289 58.303
691702 21.255 19.8593 10.0206 7.23969 -1.78873 -6.12954 58.3746
691707 21.255 19.8593 10.0206 7.23969 -1.78873 -6.12954 58.3746
691717 21.3447 19.9176 9.93814 7.12598 -1.81702 -6.22312 58.3264
691730 21.4244 20.0149 9.81443 6.95541 -1.83328 -6.3571 58.2091
691740 21.4244 20.0149 9.81443 6.95541 -1.83328 -6.3571 58.2091
691747 21.5938 20.1802 9.64948 6.88907 -1.78949 -6.49142 58.3126
691757 21.5938 20.1802 9.64948 6.88907 -1.78949 -6.49142 58.3126
691770 21.7433 20.1802 9.59794 6.75641 -1.88947 -6.58118 58.2778
691777 21.9426 20.3358 9.49485 6.69008 -1.88645 -6.69483 58.4633
691787 21.9426 20.3358 9.49485 6.69008 -1.88645 -6.69483 58.4633
691797 22.102 20.3747 9.35052 6.51003 -1.95748 -6.84369 58.3373
691807 22.2016 20.4039 9.23711 6.39632 -1.99117 -6.94692 58.239
691817 22.2016 20.4039 9.23711 6.39632 -1.99117 -6.94692 58.239
691827 22.3113 20.5692 9.16495 6.32051 -1.96453 -7.0405 58.3659
691849 22.5205 20.6081 9.06186 6.19732 -2.04534 -7.15974 58.3878
691857 22.66 20.7735 9.05155 6.15942 -2.03715 -7.21872 58.6444
691867 22.66 20.7735 9.05155 6.15942 -2.03715 -7.21872 58.6444
691877 22.7896 20.8415 8.90722 5.98885 -2.07869 -7.36454 58.5272
691887 22.7896 20.8415 8.90722 5.98885 -2.07869 -7.36454 58.5272
691897 22.9689 20.8707 8.80412 5.84671 -2.16088 -7.48553 58.4905
691907 23.0188 20.8999 8.69072 5.76143 -2.16211 -7.57224 58.3708
691917 23.0188 20.8999 8.69072 5.76143 -2.16211 -7.57224 58.3708
691927 23.0885 20.8415 8.59794 5.63824 -2.23784 -7.6575 58.1662
691937 23.1284 20.8513 8.61856 5.63824 -2.25693 -7.65573 58.2364
691950 23.1284 20.8513 8.61856 5.63824 -2.25693 -7.65573 58.2364
691957 23.1084 20.7929 8.59794 5.59086 -2.29067 -7.67236 58.0901
691977 23.0387 20.7832 8.61856 5.534 -2.30277 -7.67648 57.9744
691991 23.0188 20.7248 8.65979 5.56243 -2.3252 -7.63934 57.9658
691998 23.0188 20.7248 8.65979 5.56243 -2.3252 -7.63934 57.9658
692008 22.9988 20.6859 8.78351 5.55295 -2.38855 -7.5873 58.0212
692018 23.0188 20.5692 8.84536 5.63824 -2.43521 -7.51772 58.0716
692038 22.9689 20.5789 8.90722 5.65719 -2.42634 -7.48124 58.1123
692058 22.9191 20.472 9.04124 5.70457 -2.48715 -7.39082 58.1369
692068 22.8294 20.3747 9.21649 5.90357 -2.47223 -7.22275 58.3242
692078 22.8294 20.3747 9.21649 5.90357 -2.47223 -7.22275 58.3242
692088 22.6202 20.3261 9.46392 5.94147 -2.49201 -7.07971 58.3516
692098 22.5404 20.2094 9.57732 6.09309 -2.48856 -6.95292 58.4202
692108 22.5404 20.2094 9.57732 6.09309 -2.48856 -6.95292 58.4202
692118 22.4707 20.1219 9.84536 6.19732 -2.55686 -6.79196 58.6352
692128 22.4707 20.1219 9.84536 6.19732 -2.55686 -6.79196 58.6352
692139 22.3113 19.9857 9.90722 6.36789 -2.50327 -6.66406 58.5721
692148 22.092 19.8495 10.1237 6.54794 -2.48163 -6.46695 58.6132
692159 22.092 19.8495 10.1237 6.54794 -2.48163 -6.46695 58.6132
692168 21.9426 19.7328 10.299 6.63322 -2.50627 -6.33277 58.6076
692180 21.6536 19.4703 10.4948 6.83222 -2.50037 -6.10686 58.4509
692188 21.6536 19.4703 10.4948 6.83222 -2.50037 -6.10686 58.4509
692201 21.4144 19.3438 10.8247 6.99331 -2.51895 -5.87444 58.5763
692220 21.1354 19.091 11 7.12598 -2.53566 -5.68111 58.3523
692230 21.0955 19.0326 11.2371 7.3534 -2.53184 -5.50191 58.7187
692242 21.0955 19.0326 11.2371 7.3534 -2.53184 -5.50191 58.7187
692249 21.0059 18.8673 11.4639 7.44816 -2.6173 -5.34855 58.7852
692262 20.8365 18.8089 11.6186 7.51449 -2.60793 -5.23466 58.7784
692270 20.8365 18.8089 11.6186 7.51449 -2.60793 -5.23466 58.7784
692279 20.8365 18.7311 11.6907 7.5524 -2.65414 -5.18387 58.8107
692290 20.8365 18.7311 11.6907 7.5524 -2.65414 -5.18387 58.8107
692299 20.8165 18.7506 11.5979 7.63768 -2.56205 -5.18636 58.8027
692314 20.8365 18.7992 11.5876 7.56187 -2.57847 -5.22738 58.7852
692326 20.8365 18.7992 11.5876 7.56187 -2.57847 -5.22738 58.7852
692332 20.8763 18.7797 11.4124 7.49554 -2.56702 -5.31423 58.564
692341 20.9361 18.8284 11.3299 7.41973 -2.57113 -5.38712 58.5141
692361 21.0158 18.9256 11.1546 7.33445 -2.52881 -5.50715 58.4305
692372 21.0158 18.9256 11.1546 7.33445 -2.52881 -5.50715 58.4305
692381 21.0856 18.8673 10.9794 7.21126 -2.57399 -5.61427 58.1435
692391 21.1055 18.9451 10.9485 7.24916 -2.51498 -5.62755 58.2482
692401 21.1055 18.9451 10.9485 7.24916 -2.51498 -5.62755 58.2482
692411 21.0856 18.9645 10.866 7.22074 -2.47962 -5.66682 58.1368
692421 21.0955 19.0229 10.8247 7.20178 -2.44889 -5.69918 58.145
692441 21.1354 19.1104 10.7835 7.21126 -2.40264 -5.73081 58.2406
692453 21.1354 19.1104 10.7835 7.21126 -2.40264 -5.73081 58.2406
692462 21.0358 19.2174 10.7526 7.28707 -2.26609 -5.71602 58.2928
692476 21.0258 19.2855 10.7216 7.40078 -2.16536 -5.6959 58.4337
692482 21.0258 19.2855 10.7216 7.40078 -2.16536 -5.6959 58.4337
692492 21.0258 19.4508 10.6495 7.32497 -2.09556 -5.77461 58.451
692502 21.0955 19.5675 10.6495 7.33445 -2.0645 -5.80058 58.647
692512 21.0955 19.5675 10.6495 7.33445 -2.0645 -5.80058 58.647
692522 21.1653 19.6259 10.6186 7.33445 -2.05278 -5.8316 58.7442
692542 21.1753 19.6939 10.4433 7.27759 -1.98286 -5.92634 58.5901
692553 21.2948 19.8884 10.2577 7.18283 -1.91104 -6.07502 58.6238
692563 21.2948 19.8884 10.2577 7.18283 -1.91104 -6.07502 58.6238
692575 21.4244 19.976 10.0515 7.00279 -1.92336 -6.24741 58.4547
692583 21.4842 20.1705 9.91753 6.93645 -1.8351 -6.35821 58.5086
692593 21.4842 20.1705 9.91753 6.93645 -1.8351 -6.35821 58.5086
692603 21.524 20.1608 9.69072 6.79431 -1.83071 -6.49815 58.1698
692613 21.524 20.1608 9.69072 6.79431 -1.83071 -6.49815 58.1698
692623 21.4543 20.1802 9.58763 6.75641 -1.77018 -6.54306 57.9785
692633 21.544 20.2386 9.53608 6.72798 -1.77164 -6.5943 58.0466
692643 21.544 20.2386 9.53608 6.72798 -1.77164 -6.5943 58.0466
692654 21.5639 20.2677 9.42268 6.67113 -1.74695 -6.6649 57.9254
692663 21.4941 20.2969 9.48454 6.76589 -1.68667 -6.60061 58.0415
692684 21.534 20.2969 9.59794 6.85117 -1.70893 -6.53272 58.28
692693 21.534 20.2969 9.59794 6.85117 -1.70893 -6.53272 58.28
692705 21.524 20.2872 9.64948 6.92698 -1.69529 -6.4829 58.3877
692713 21.4941 20.2872 9.74227 7.05017 -1.66416 -6.39934 58.5738
692733 21.4443 20.2288 9.78351 7.09755 -1.66574 -6.35106 58.5542
692745 21.2052 20.1802 9.96907 7.18283 -1.62768 -6.20975 58.5373
692756 21.2052 20.1802 9.96907 7.18283 -1.62768 -6.20975 58.5373
692767 21.1753 20.1219 10.0103 7.3155 -1.59845 -6.1336 58.6229
692775 21.1753 20.1219 10.0103 7.3155 -1.59845 -6.1336 58.6229
692786 21.0258 20.0635 10.0206 7.29654 -1.57789 -6.10518 58.4065
692795 20.956 20.0246 10.0722 7.37235 -1.55381 -6.04263 58.4252
692804 20.956 20.0246 10.0722 7.37235 -1.55381 -6.04263 58.4252
692814 20.8265 19.976 10.0619 7.40078 -1.50673 -6.0087 58.2651
692827 20.7368 19.7815 10.1753 7.58082 -1.52287 -5.85906 58.2744
692834 20.7368 19.7815 10.1753 7.58082 -1.52287 -5.85906 58.2744
692845 20.5674 19.8106 10.2887 7.71349 -1.42683 -5.74918 58.3802
692855 20.5674 19.8106 10.2887 7.71349 -1.42683 -5.74918 58.3802
692864 20.4279 19.6842 10.4845 7.80825 -1.46391 -5.60381 58.4049
692875 20.3482 19.5675 10.5979 7.94091 -1.47025 -5.4855 58.4545
692895 20.2286 19.5578 10.7938 7.99777 -1.4796 -5.37612 58.578
692905 20.0891 19.48 10.8866 8.14939 -1.42749 -5.25546 58.6051
692915 20.0891 19.48 10.8866 8.14939 -1.42749 -5.25546 58.6051
692924 19.9695 19.3633 11.134 8.25362 -1.48443 -5.09494 58.7204
692934 19.9695 19.3633 11.134 8.25362 -1.48443 -5.09494 58.7204
692945 19.9097 19.3146 11.1443 8.31048 -1.46088 -5.05364 58.6792
692954 19.7702 19.2077 11.2577 8.35786 -1.47731 -4.95677 58.5935
692971 19.7702 19.2077 11.2577 8.35786 -1.47731 -4.95677 58.5935
692976 19.6905 19.1979 11.268 8.32943 -1.46667 -4.94759 58.4859
692986 19.6905 19.1979 11.268 8.32943 -1.46667 -4.94759 58.4859
692996 19.5909 19.0229 11.3402 8.49052 -1.46192 -4.82073 58.4445
693007 19.4115 18.9256 11.5567 8.50948 -1.51237 -4.69261 58.4033
693016 19.4115 18.9256 11.5567 8.50948 -1.51237 -4.69261 58.4033
693026 19.2919 18.7311 11.6082 8.63266 -1.51739 -4.57799 58.2639
693036 19.1225 18.6047 11.8247 8.86009 -1.49048 -4.37642 58.412
693046 19.1225 18.6047 11.8247 8.86009 -1.49048 -4.37642 58.412
693056 18.9332 18.4977 11.9588 8.96433 -1.46944 -4.24336 58.354
693066 18.9332 18.4977 11.9588 8.96433 -1.46944 -4.24336 58.354
693076 18.7837 18.4199 12.134 9.07804 -1.46355 -4.10632 58.4157
693086 18.5744 18.3227 12.3711 9.30546 -1.41594 -3.89778 58.5737
693106 18.4947 18.099 12.5567 9.50446 -1.46961 -3.71645 58.6549
693116 18.3951 17.9531 12.7423 9.61817 -1.51855 -3.57385 58.7086
693126 18.3951 17.9531 12.7423 9.61817 -1.51855 -3.57385 58.7086
693136 18.1958 17.8558 12.9278 9.82664 -1.46291 -3.39177 58.8061
693146 18.1958 17.8558 12.9278 9.82664 -1.46291 -3.39177 58.8061
693156 17.8968 17.6419 13.0825 9.95931 -1.44166 -3.19994 58.5805
693166 17.857 17.5349 13.1959 10.0825 -1.46388 -3.09701 58.6702
693176 17.857 17.5349 13.1959 10.0825 -1.46388 -3.09701 58.6702
693186 17.7175 17.3404 13.3608 10.1583 -1.52773 -2.95476 58.577
693196 17.5979 17.1362 13.4948 10.3668 -1.5316 -2.78325 58.5957
693206 17.5979 17.1362 13.4948 10.3668 -1.5316 -2.78325 58.5957
693217 17.4086 16.9816 13.701 10.4142 -1.58694 -2.63438 58.5054
693227 17.4086 16.9816 13.701 10.4142 -1.58694 -2.63438 58.5054
693237 17.2192 16.7522 13.8763 10.5279 -1.63403 -2.45837 58.3755
693247 17.0797 16.5594 14.0619 10.7458 -1.64096 -2.26653 58.4468
693267 16.9298 16.4217 14.3918 10.9164 -1.69768 -2.05678 58.6596
693277 16.798 16.2565 14.5567 11.0964 -1.70413 -1.89108 58.7076
693298 16.6663 16.1096 14.8454 11.2765 -1.75117 -1.69466 58.8978
693308 16.6663 16.1096 14.8454 11.2765 -1.75117 -1.69466 58.8978
693319 16.4731 15.8618 15.0309 11.4281 -1.79194 -1.49911 58.7939
693328 16.2975 15.7424 15.2887 11.6934 -1.75795 -1.28542 59.022
693338 16.2975 15.7424 15.2887 11.6934 -1.75795 -1.28542 59.022
693348 16.157 15.568 15.5155 11.8071 -1.81943 -1.11837 59.0477
693358 15.9463 15.3477 15.7423 11.9872 -1.84403 -0.905886 59.0235
693368 15.9463 15.3477 15.7423 11.9872 -1.84403 -0.905886 59.0235
693378 15.7794 15.2009 15.8454 12.1577 -1.80822 -0.757127 58.9834
693388 15.7794 15.2009 15.8454 12.1577 -1.80822 -0.757127 58.9834
693398 15.5863 14.9897 16 12.3473 -1.80288 -0.567365 58.9233
693408 15.4458 14.8337 16.1237 12.5557 -1.77244 -0.407065 58.9589
693429 15.2701 14.6776 16.2474 12.7263 -1.74538 -0.247972 58.9215
693439 15.0594 14.5124 16.3711 12.9727 -1.67419 -0.0580493 58.9156
693460 14.8574 14.3839 16.6289 13.2949 -1.60886 0.173004 59.1651
693469 14.8574 14.3839 16.6289 13.2949 -1.60886 0.173004 59.1651
693480 14.4974 14.0351 16.9588 13.6171 -1.60892 0.518532 59.1083
693490 14.2515 13.8882 17.3445 13.9298 -1.58972 0.791357 59.4141
693500 14.2515 13.8882 17.3445 13.9298 -1.58972 0.791357 59.4141
693510 13.9354 13.5486 17.6595 14.252 -1.59709 1.11813 59.3955
693520 13.6369 13.2365 17.9844 14.6026 -1.59021 1.44135 59.4603
693530 13.6369 13.2365 17.9844 14.6026 -1.59021 1.44135 59.4603
693542 13.3383 13.0713 18.2895 14.8489 -1.55657 1.69498 59.5481
693549 13.3383 13.0713 18.2895 14.8489 -1.55657 1.69498 59.5481
693559 13.0837 12.7133 18.5455 15.1427 -1.58576 1.98987 59.4851
693569 12.6973 12.4195 18.949 15.4554 -1.58405 2.34057 59.5213
693579 12.6973 12.4195 18.949 15.4554 -1.58405 2.34057 59.5213
693595 12.4339 12.0707 19.2345 15.806 -1.59192 2.6541 59.5451
693603 12.1353 11.7403 19.5397 16.2135 -1.56016 2.98787 59.6288
693613 12.1353 11.7403 19.5397 16.2135 -1.56016 2.98787 59.6288
693623 11.8719 11.4374 19.7464 16.5736 -1.51241 3.2729 59.6292
693631 11.8719 11.4374 19.7464 16.5736 -1.51241 3.2729 59.6292
693641 11.5207 11.0335 20.0122 16.9242 -1.50241 3.62635 59.4905
693651 11.4065 10.7306 20.2976 17.4287 -1.48042 3.9062 59.8633
693661 11.4065 10.7306 20.2976 17.4287 -1.48042 3.9062 59.8633
693671 11.187 10.446 20.465 17.7404 -1.44788 4.15429 59.8384
693681 10.906 10.1156 20.7504 18.0716 -1.4493 4.46176 59.8436
693691 10.906 10.1156 20.7504 18.0716 -1.4493 4.46176 59.8436
693701 10.7655 9.85853 20.8882 18.4808 -1.38116 4.6868 59.9931
693711 10.7655 9.85853 20.8882 18.4808 -1.38116 4.6868 59.9931
693721 10.4845 9.48218 21.095 18.7536 -1.39751 4.98582 59.8152
693732 10.2299 9.32613 21.3017 19.0848 -1.30149 5.21262 59.9425
693741 10.2299 9.32613 21.3017 19.0848 -1.30149 5.21262 59.9425
693751 10.142 9.16091 21.4493 19.2797 -1.31214 5.35366 60.0319
693761 9.97521 8.94978 21.4986 19.5037 -1.25996 5.52602 59.9273
693771 9.97521 8.94978 21.4986 19.5037 -1.25996 5.52602 59.9273
693781 9.79959 8.94061 21.5379 19.6206 -1.15874 5.61407 59.8988
693791 9.79959 8.94061 21.5379 19.6206 -1.15874 5.61407 59.8988
693804 9.64153 8.81209 21.6561 19.757 -1.13939 5.75264 59.8667
693811 9.48347 8.72948 21.784 19.9811 -1.06577 5.89019 59.9781
693821 9.48347 8.72948 21.784 19.9811 -1.06577 5.89019 59.9781
693832 9.35176 8.57343 21.8037 20.2831 -0.957698 6.03919 60.012
693843 9.2376 8.34395 21.9317 20.5461 -0.948726 6.21791 60.0594
693852 9.2376 8.34395 21.9317 20.5461 -0.948726 6.21791 60.0594
693863 9.08833 8.19708 22.0203 20.8287 -0.865918 6.3766 60.1343
693872 9.08833 8.19708 22.0203 20.8287 -0.865918 6.3766 60.1343
693883 8.89514 8.05939 22.1187 21.0722 -0.782372 6.54323 60.1454
693892 8.72831 7.90335 22.2171 21.4424 -0.663319 6.72434 60.2912
693902 8.72831 7.90335 22.2171 21.4424 -0.663319 6.72434 60.2912
693912 8.54391 7.68305 22.414 21.7347 -0.637756 6.937 60.3756
693922 8.54391 7.68305 22.414 21.7347 -0.637756 6.937 60.3756
693934 8.34194 7.51782 22.5026 21.949 -0.571091 7.11106 60.3114
693942 8.08729 7.2608 22.6306 22.251 -0.500612 7.35522 60.2297
693952 8.08729 7.2608 22.6306 22.251 -0.500612 7.35522 60.2297
693962 7.9468 7.15983 22.729 22.5725 -0.390464 7.49772 60.4081
693972 7.73605 7.09557 22.7782 22.6699 -0.310549 7.61861 60.2798
693982 7.73605 7.09557 22.7782 22.6699 -0.310549 7.61861 60.2798
693992 7.59556 6.89363 22.916 22.9037 -0.296076 7.79252 60.3089
694002 7.59556 6.89363 22.916 22.9037 -0.296076 7.79252 60.3089
694012 7.47262 6.80184 22.9554 23.0693 -0.230874 7.89819 60.2992
694022 7.37603 6.75594 23.0539 23.235 -0.181636 7.98322 60.4208
694033 7.37603 6.75594 23.0539 23.235 -0.181636 7.98322 60.4208
694043 7.28822 6.65497 23.1031 23.537 -0.0822663 8.09552 60.5832
694054 7.13017 6.48056 23.1031 23.6831 -0.028801 8.23936 60.3969
694072 7.05992 6.40713 23.1523 23.8487 0.0180423 8.3186 60.468
694083 7.05992 6.40713 23.1523 23.8487 0.0180423 8.3186 60.468
694096 6.97211 6.34287 23.1917 23.9072 0.0357002 8.38811 60.4138
694103 6.89308 6.42549 23.1424 24.063 0.187114 8.39838 60.524
694123 6.8843 6.29698 23.1523 24.1117 0.153914 8.45792 60.4453
694133 6.82283 6.2419 23.172 24.2189 0.192708 8.51686 60.4556
694153 6.7438 6.16847 23.231 24.3943 0.242782 8.6012 60.5376
694165 6.7438 6.16847 23.231 24.3943 0.242782 8.6012 60.5376
694175 6.64721 6.14093 23.2704 24.4625 0.283277 8.66097 60.521
694184 6.68233 6.12257 23.2507 24.4527 0.265348 8.65133 60.5084
694194 6.68233 6.12257 23.2507 24.4527 0.265348 8.65133 60.5084
694205 6.67355 6.12257 23.1917 24.404 0.273782 8.64345 60.3918
694215 6.62965 6.15011 23.1326 24.4332 0.340167 8.64672 60.3456
694225 6.62965 6.15011 23.1326 24.4332 0.340167 8.64672 60.3456
694235 6.6999 6.21436 23.1031 24.4332 0.34931 8.591 60.4506
694247 6.6999 6.21436 23.1031 24.4332 0.34931 8.591 60.4506
694261 6.66477 6.17765 23.0932 24.4527 0.361148 8.62009 60.3884
694269 6.67355 6.2419 23.0243 24.5112 0.436386 8.59044 60.451
694286 6.70868 6.29698 23.0243 24.4819 0.432116 8.55219 60.5119
694296 6.67355 6.2878 23.0046 24.443 0.435609 8.5632 60.409
694306 6.67355 6.2878 23.0046 24.443 0.435609 8.5632 60.409
694316 6.7438 6.34287 22.9554 24.365 0.417459 8.50076 60.4071
694326 6.7438 6.34287 22.9554 24.365 0.417459 8.50076 60.4071
694336 6.7438 6.30616 22.9357 24.2287 0.355098 8.49825 60.2143
694347 6.76136 6.37041 22.9259 24.2676 0.394025 8.46952 60.3253
694356 6.76136 6.37041 22.9259 24.2676 0.394025 8.46952 60.3253
694366 6.77893 6.34287 22.8964 24.0825 0.312024 8.45009 60.1007
694376 6.89308 6.4622 22.8078 23.9754 0.306264 8.33773 60.1384
694386 6.89308 6.4622 22.8078 23.9754 0.306264 8.33773 60.1384
694396 6.91942 6.58153 22.8767 24.0241 0.335056 8.29441 60.4017
694406 6.91942 6.58153 22.8767 24.0241 0.335056 8.29441 60.4017
694416 6.96333 6.52646 22.8767 23.9461 0.262219 8.29007 60.3126
694426 6.98967 6.60907 22.9062 23.9461 0.272676 8.25137 60.4511
694436 6.98967 6.60907 22.9062 23.9461 0.272676 8.25137 60.4511
694446 7.05114 6.65497 22.8471 23.8877 0.266531 8.19694 60.4409
694457 7.05114 6.64579 22.8964 23.8487 0.226256 8.20162 60.442
694466 7.05114 6.64579 22.8964 23.8487 0.226256 8.20162 60.442
694476 7.07748 6.70086 22.9062 23.7415 0.18979 8.15941 60.4261
694486 7.07748 6.70086 22.9062 23.7415 0.18979 8.15941 60.4261
694496 7.13895 6.76512 22.8274 23.6539 0.187379 8.09234 60.3854
694506 7.19163 6.73758 22.7487 23.498 0.12266 8.05575 60.1759
694516 7.19163 6.73758 22.7487 23.498 0.12266 8.05575 60.1759
694526 7.34091 6.92117 22.7585 23.3129 0.055778 7.90838 60.3335
694536 7.34091 6.92117 22.6109 23.3129 0.117245 7.89098 60.1859
694546 7.34091 6.9946 22.6109 23.1083 0.0629067 7.83877 60.0547
694557 7.44628 7.13229 22.5912 22.9817 0.0317842 7.72907 60.1514
694567 7.44628 7.13229 22.5912 22.9817 0.0317842 7.72907 60.1514
694577 7.53409 7.25162 22.5321 22.816 0.000596046 7.62361 60.1339
694587 7.60434 7.23326 22.5518 22.7576 -0.0687107 7.59933 60.147
694597 7.60434 7.23326 22.5518 22.7576 -0.0687107 7.59933 60.147
694607 7.63946 7.39849 22.5518 22.6504 -0.0590846 7.51101 60.2402
694627 7.63946 7.38931 22.5518 22.6212 -0.0750706 7.5108 60.2018
694637 7.68337 7.34341 22.5518 22.5822 -0.128633 7.5067 60.1608
694647 7.68337 7.34341 22.5518 22.5822 -0.128633 7.5067 60.1608
694659 7.67459 7.38931 22.601 22.5043 -0.158729 7.48924 60.1692
694667 7.79752 7.44438 22.5617 22.3971 -0.214976 7.40446 60.2007
694677 7.79752 7.44438 22.5617 22.3971 -0.214976 7.40446 60.2007
694688 7.82386 7.49946 22.5518 22.3192 -0.231346 7.36308 60.1943
694697 7.82386 7.49946 22.5518 22.3192 -0.231346 7.36308 60.1943
694709 7.87655 7.49028 22.4435 22.1926 -0.265513 7.31696 60.0029
694717 7.99948 7.60043 22.4042 22.0367 -0.319178 7.20534 60.0408
694727 7.99948 7.60043 22.4042 22.0367 -0.319178 7.20534 60.0408
694737 8.13998 7.72894 22.3353 21.8808 -0.360113 7.07676 60.085
694747 8.29804 7.76566 22.3254 21.7347 -0.467005 6.98469 60.1238
694757 8.29804 7.76566 22.3254 21.7347 -0.467005 6.98469 60.1238
694771 8.44731 7.84827 22.3254 21.647 -0.529912 6.88844 60.268
694778 8.44731 7.84827 22.3254 21.647 -0.529912 6.88844 60.268
694788 8.49122 7.94924 22.2467 21.3742 -0.588746 6.78816 60.0613
694798 8.6405 7.99514 22.1679 21.2378 -0.655986 6.68791 60.0414
694818 8.71952 8.11447 22.0695 21.0722 -0.667909 6.57959 59.9757
694828 8.79855 8.22462 22.0203 20.9163 -0.699581 6.4827 59.9598
694838 8.79855 8.22462 22.0203 20.9163 -0.699581 6.4827 59.9598
694848 8.84246 8.35313 22.0695 20.7897 -0.736466 6.41005 60.0548
694875 8.85124 8.50918 22.0104 20.6533 -0.70771 6.32328 60.0241
694893 8.96539 8.62851 21.9907 20.5948 -0.719836 6.22929 60.1795
694895 8.96539 8.62851 21.9907 20.5948 -0.719836 6.22929 60.1795
694898 8.96539 8.62851 22.0203 20.4877 -0.777628 6.21796 60.1018
694908 9.06198 8.61933 21.9415 20.4097 -0.822231 6.16414 60.0326
694920 9.06198 8.61933 21.9415 20.4097 -0.822231 6.16414 60.0326
694928 9.06198 8.69276 21.9021 20.3415 -0.80411 6.1224 59.9984
694940 9.06198 8.69276 21.9021 20.3415 -0.80411 6.1224 59.9984
694948 9.11467 8.70194 21.784 20.2052 -0.832523 6.06277 59.8058
694958 9.09711 8.81209 21.8332 20.0785 -0.852434 6.0186 59.8209
694968 9.09711 8.81209 21.8332 20.0785 -0.852434 6.0186 59.8209
694983 9.14101 8.84881 21.784 20.0883 -0.830227 5.98437 59.8621
694989 9.22004 8.92225 21.784 20.0201 -0.859836 5.92074 59.9464
694999 9.22004 8.92225 21.784 20.0201 -0.859836 5.92074 59.9464
695009 9.16736 8.94061 21.7643 19.9519 -0.852172 5.91941 59.8242
695020 9.16736 8.94061 21.7643 19.9519 -0.852172 5.91941 59.8242
695029 9.22882 8.99568 21.7939 19.9129 -0.881891 5.8773 59.9313
695039 9.22882 9.02322 21.7939 19.8544 -0.895248 5.8588 59.9003
695050 9.22882 9.02322 21.7939 19.8544 -0.895248 5.8588 59.9003
695059 9.24638 9.07829 21.8529 19.796 -0.927503 5.83362 59.9736
695069 9.28151 9.07829 21.7446 19.796 -0.898103 5.80484 59.9004
695081 9.28151 9.13337 21.7446 19.6986 -0.916424 5.77073 59.8581
695089 9.31663 9.14255 21.6659 19.6011 -0.937124 5.7281 59.7262
695100 9.31663 9.14255 21.6659 19.6011 -0.937124 5.7281 59.7262
695111 9.32541 9.16091 21.6167 19.494 -0.959446 5.69433 59.597
695120 9.41322 9.2527 21.6659 19.3771 -1.02553 5.62154 59.7089
695129 9.41322 9.2527 21.6659 19.3771 -1.02553 5.62154 59.7089
695139 9.48347 9.41793 21.4986 19.2115 -0.986655 5.48769 59.6114
695150 9.48347 9.41793 21.4986 19.2115 -0.986655 5.48769 59.6114
695159 9.54494 9.48218 21.4887 19.114 -1.0219 5.42739 59.6299
695170 9.64153 9.53726 21.4887 19.0166 -1.07917 5.35985 59.6841
695181 9.64153 9.53726 21.4887 19.0166 -1.07917 5.35985 59.6841
695192 9.73812 9.63823 21.3706 18.8607 -1.09454 5.24806 59.6077
695201 9.79959 9.7392 21.3804 18.7438 -1.13009 5.17543 59.6631
695213 9.79959 9.7392 21.3804 18.7438 -1.13009 5.17543 59.6631
695221 9.9313 9.95032 21.282 18.5782 -1.12348 5.01623 59.7418
695233 9.9313 9.95032 21.282 18.5782 -1.12348 5.01623 59.7418
695242 10.0806 9.97786 21.1442 18.3444 -1.21857 4.89449 59.547
695261 10.3089 10.1247 20.9867 18.1496 -1.26795 4.70942 59.5699
695271 10.5108 10.3542 20.7504 17.906 -1.26049 4.4836 59.5215
695282 10.7128 10.5011 20.6028 17.6625 -1.32485 4.30017 59.4791
695301 10.8796 10.6296 20.4551 17.4481 -1.37052 4.13903 59.4125
695312 11.0904 10.7306 20.3567 17.2728 -1.44816 3.98866 59.4504
695322 11.0904 10.7306 20.3567 17.2728 -1.44816 3.98866 59.4504
695332 11.2133 10.8958 20.1401 17.1169 -1.40685 3.82741 59.3661
695342 11.2133 10.8958 20.1401 17.1169 -1.40685 3.82741 59.3661
695352 11.4065 11.0886 19.9433 16.8579 -1.4349 3.61897 59.2962
695363 11.5821 11.2813 19.7169 16.6968 -1.40058 3.42886 59.2771
695384 11.8192 11.4833 19.4904 16.3841 -1.45426 3.18672 59.177
695393 11.9597 11.6485 19.3428 16.1566 -1.47924 3.01769 59.1076
695412 12.1529 11.9055 19.0573 15.9576 -1.41649 2.78211 59.0734
695428 12.1529 11.9055 19.0573 15.9576 -1.41649 2.78211 59.0734
695433 12.3461 12.0524 18.9294 15.7871 -1.4531 2.61812 59.1149
695443 12.5568 12.2635 18.703 15.5691 -1.44991 2.39923 59.0924
695463 12.7851 12.4471 18.4569 15.3606 -1.45397 2.18087 59.0497
695473 12.7851 12.4471 18.2305 15.3606 -1.36334 2.13153 58.8233
695483 13.0222 12.6123 18.2305 15.0385 -1.52873 1.94413 58.9034
695493 13.3208 12.9152 17.9647 14.7731 -1.52487 1.65374 58.9738
695504 13.3208 12.9152 17.9647 14.7731 -1.52487 1.65374 58.9738
