1387699 17.9965 17.9628 21.0457 18.6951 -0.78741 0.74932 75.7002
1387710 16.5961 16.5502 22.0006 19.9032 -0.713953 1.75032 75.05
1387720 16.5961 16.5502 22.0006 19.9032 -0.713953 1.75032 75.05
1387729 15.595 15.5589 22.5223 20.6923 -0.627352 2.43262 74.3685
1387750 14.7784 14.8062 22.8078 21.2768 -0.510125 2.95239 73.6691
1387760 14.0057 14.2279 23.0735 21.7249 -0.385596 3.40226 73.032
1387769 14.0057 14.2279 23.0735 21.7249 -0.385596 3.40226 73.032
1387779 13.3032 13.6587 23.5854 22.251 -0.336152 3.88906 72.7984
1387789 12.6534 13.0988 24.0284 22.8648 -0.247166 4.36523 72.6454
1387801 12.6534 13.0988 24.0284 22.8648 -0.247166 4.36523 72.6454
1387809 12.1792 12.7041 24.5796 23.4688 -0.200868 4.7644 72.9317
1387821 12.1792 12.7041 24.5796 23.4688 -0.200868 4.7644 72.9317
1387831 11.8104 12.2543 24.9832 24.0241 -0.176282 5.12012 73.072
1387841 11.4943 11.8963 25.3573 24.6573 -0.101474 5.44047 73.4052
1387861 11.1167 11.5016 25.7116 25.1542 -0.058718 5.76603 73.4841
1387871 10.7479 11.1344 26.0463 25.7484 0.0300705 6.08989 73.6771
1387882 10.7479 11.1344 26.0463 25.7484 0.0300705 6.08989 73.6771
1387893 10.423 10.8407 26.253 26.1771 0.115922 6.34375 73.6939
1387902 10.423 10.8407 26.253 26.1771 0.115922 6.34375 73.6939
1387913 10.1508 10.5103 26.381 26.5083 0.165445 6.57268 73.5504
1387922 10.0894 10.3359 26.3219 26.6837 0.20707 6.65532 73.4308
1387932 10.0894 10.3359 26.3219 26.6837 0.20707 6.65532 73.4308
1387942 9.9313 10.2624 26.1644 26.8006 0.330529 6.71922 73.1587
1387952 9.78202 10.1156 26.0266 26.9759 0.439927 6.81171 72.9001
1387961 9.78202 10.1156 26.0266 26.9759 0.439927 6.81171 72.9001
1387972 9.67665 10.0238 26.1349 27.3851 0.545371 6.92831 73.2204
1387981 9.67665 10.0238 26.1349 27.3851 0.545371 6.92831 73.2204
1387991 9.422 9.85853 26.3613 27.7943 0.636429 7.12355 73.4361
1388010 9.09711 9.66577 26.6271 28.2911 0.757548 7.36051 73.6811
1388014 9.09711 9.66577 26.6271 28.2911 0.757548 7.36051 73.6811
1388025 8.84246 9.46382 26.824 28.8074 0.880757 7.57228 73.9377
1388033 8.64928 9.24352 27.0799 29.1679 0.904447 7.75992 74.1406
1388044 8.64928 9.24352 27.0799 29.1679 0.904447 7.75992 74.1406
1388053 8.38585 9.0324 27.3457 29.6258 0.983554 7.97554 74.3897
1388073 7.9907 8.66523 27.6115 30.1324 1.07374 8.28388 74.3998
1388083 7.66581 8.37149 27.9658 30.6779 1.14413 8.55769 74.6811
1388103 7.31457 7.94006 28.3694 31.3696 1.20867 8.89763 74.9937
1388114 6.80527 7.41685 29.2554 32.2172 1.18021 9.36336 75.6947
1388134 5.96229 6.61825 30.0724 32.9771 1.177 10.0097 75.63
1388144 5.10176 5.72786 30.6827 33.4837 1.14242 10.6679 74.996
1388154 5.10176 5.72786 30.6827 33.4837 1.14242 10.6679 74.996
1388164 4.49587 5.25972 30.9485 33.8149 1.21791 11.0726 74.519
1388174 4.49587 5.25972 30.9485 33.8149 1.21791 11.0726 74.519
1388184 4.1095 4.84665 30.978 33.8539 1.22412 11.3587 73.788
1388194 3.89876 4.61717 31.0863 34 1.23371 11.5289 73.6022
1388204 3.89876 4.61717 31.0863 34 1.23371 11.5289 73.6022
1388215 3.7407 4.50702 31.0764 34 1.25807 11.6255 73.3242
1388224 3.7407 4.50702 31.0764 34 1.25807 11.6255 73.3242
1388235 3.64411 4.42441 31.2339 34 1.2095 11.6979 73.3025
1388244 3.53874 4.38769 31.3127 34 1.2071 11.7532 73.2391
1388266 3.38946 4.33261 31.3521 34 1.22858 11.8298 73.0741
1388274 3.42459 4.28672 31.2536 34 1.23639 11.8294 72.9649
1388286 3.42459 4.28672 31.2536 34 1.23639 11.8294 72.9649
1388296 3.61777 4.46112 31.1749 34 1.25198 11.6914 73.2538
1388306 3.61777 4.46112 31.1749 34 1.25198 11.6914 73.2538
1388318 3.82851 4.68143 30.8894 34 1.34998 11.5218 73.3993
1388326 4.14463 5.03942 30.6433 34 1.43967 11.268 73.8274
1388335 4.14463 5.03942 30.6433 34 1.43967 11.268 73.8274
1388345 4.45196 5.41577 30.3775 34 1.5443 11.0128 74.2453
1388355 4.79442 5.77376 30.3283 34 1.55248 10.7669 74.8965
1388366 4.79442 5.77376 30.3283 34 1.55248 10.7669 74.8965
1388375 5.04029 5.96652 30.033 33.9123 1.60287 10.5945 74.9521
1388385 5.04029 5.96652 30.033 33.9123 1.60287 10.5945 74.9521
1388396 5.172 6.07667 29.846 33.5324 1.53801 10.478 74.627
1388405 5.51446 6.36123 29.4325 33.1232 1.52403 10.2134 74.4314
1388425 5.84814 6.61825 29.1668 32.6653 1.43633 9.96636 74.2985
1388435 6.16426 6.88445 28.9305 32.451 1.42438 9.74056 74.4302
1388445 6.16426 6.88445 28.9305 32.451 1.42438 9.74056 74.4302
1388455 6.41012 7.09557 28.8222 32.3146 1.39928 9.57185 74.6425
1388475 6.48915 7.17819 28.6549 32.11 1.39193 9.49137 74.4323
1388487 6.6999 7.2149 28.5958 31.9542 1.30039 9.39408 74.4648
1388496 6.6999 7.2149 28.5958 31.9542 1.30039 9.39408 74.4648
1388507 6.79649 7.17819 28.5565 31.7983 1.21874 9.3597 74.3294
1388517 6.90186 7.24244 28.586 31.7496 1.17621 9.30277 74.4799
1388527 6.90186 7.24244 28.586 31.7496 1.17621 9.30277 74.4799
1388537 6.95455 7.17819 28.4876 31.6327 1.13421 9.29003 74.2529
1388547 6.95455 7.17819 28.4876 31.6327 1.13421 9.29003 74.2529
1388557 7.07748 7.18737 28.4777 31.5352 1.06607 9.23858 74.2778
1388567 7.2531 7.29752 28.3399 31.2138 0.984517 9.1094 74.1043
1388587 7.3936 7.44438 28.2611 30.7559 0.86166 8.97279 73.855
1388597 7.58678 7.58207 28.1529 30.5415 0.806886 8.83908 73.8633
1388608 7.58678 7.58207 28.1529 30.5415 0.806886 8.83908 73.8633
1388618 7.83264 7.60961 28.2316 30.2785 0.616568 8.7356 73.9524
1388628 7.83264 7.60961 28.2316 30.2785 0.616568 8.7356 73.9524
1388637 7.88533 7.67387 28.3694 30.0934 0.510836 8.69409 74.022
1388648 7.88533 7.65551 28.3793 30.0739 0.494915 8.69915 73.994
1388674 7.93802 7.60961 28.4974 29.9278 0.372431 8.69459 73.9728
1388678 7.92924 7.56371 28.7041 29.9181 0.286183 8.72883 74.1151
1388688 7.92924 7.56371 28.7041 29.9181 0.286183 8.72883 74.1151
1388698 7.92924 7.50864 28.8518 29.8304 0.188214 8.75154 74.12
1388718 7.88533 7.41685 29.029 29.8596 0.122038 8.81236 74.1907
1388728 7.79752 7.3067 29.4325 29.9083 -0.00505745 8.91328 74.4451
1388739 7.79752 7.3067 29.4325 29.9083 -0.00505745 8.91328 74.4451
1388750 7.578 7.12311 29.7377 30.1032 -0.0299916 9.08342 74.542
1388759 7.30579 6.81102 30.0527 30.1616 -0.129776 9.30246 74.3311
1388769 7.30579 6.81102 30.0527 30.1616 -0.129776 9.30246 74.3311
1388780 7.14773 6.64579 30.2693 30.1811 -0.198704 9.4264 74.2439
1388789 7.14773 6.64579 30.2693 30.1811 -0.198704 9.4264 74.2439
1388799 7.05114 6.5081 30.4563 30.1519 -0.285657 9.51542 74.1674
1388809 6.93698 6.48056 30.7024 30.2395 -0.309056 9.58675 74.3595
1388829 6.84039 6.43467 31.0174 30.2883 -0.38041 9.66012 74.5807
1388839 6.62087 6.22354 31.3619 30.3662 -0.467007 9.83278 74.5725
1388849 6.62087 6.22354 31.3619 30.3662 -0.467007 9.83278 74.5725
1388859 6.38378 6.05832 31.6474 30.4344 -0.516094 9.99136 74.5238
1388880 6.18182 5.90227 31.7458 30.5221 -0.505464 10.1242 74.352
1388889 6.06767 5.78294 31.8442 30.5026 -0.547993 10.2085 74.1974
1388899 6.06767 5.78294 31.8442 30.5026 -0.547993 10.2085 74.1974
1388909 6.0501 5.84719 31.9033 30.5221 -0.532863 10.1977 74.3227
1388919 6.01498 5.86555 31.8541 30.3467 -0.559118 10.1889 74.0813
1388939 6.03254 5.92063 31.8639 30.3662 -0.542457 10.1661 74.1833
1388950 6.03254 5.92063 31.8639 30.3662 -0.542457 10.1661 74.1833
1388960 6.08523 5.90227 31.9033 30.4441 -0.552276 10.1621 74.3349
1388970 5.99742 5.82883 32.1494 30.5513 -0.592633 10.2395 74.5269
1388990 5.91839 5.7095 32.4053 30.6195 -0.668003 10.3272 74.6527
1389000 5.76911 5.64525 32.5628 30.7559 -0.645904 10.4179 74.7331
1389020 5.69886 5.60853 32.5825 30.7072 -0.658767 10.4526 74.5971
1389030 5.69886 5.60853 32.5825 30.7072 -0.658767 10.4526 74.5971
1389040 5.59349 5.52592 32.5136 30.639 -0.653751 10.5086 74.272
1389052 5.6813 5.62689 32.5333 30.7072 -0.630641 10.4493 74.5486
1389062 5.6813 5.62689 32.5333 30.7072 -0.630641 10.4493 74.5486
1389072 5.6813 5.5351 32.5038 30.639 -0.676112 10.4748 74.3591
1389081 5.60227 5.58099 32.5235 30.7364 -0.607289 10.4932 74.4431
1389092 5.60227 5.58099 32.5235 30.7364 -0.607289 10.4932 74.4431
1389102 5.4969 5.50756 32.612 30.9605 -0.550079 10.5732 74.577
1389112 5.4969 5.50756 32.612 30.9605 -0.550079 10.5732 74.577
1389122 5.40909 5.42495 32.7991 31.0579 -0.577493 10.6485 74.691
1389132 5.3125 5.34233 32.9172 31.1358 -0.586133 10.7214 74.7078
1389152 5.25981 5.27808 32.8975 31.204 -0.561108 10.7645 74.6394
1389163 5.07541 5.19546 32.8581 31.3209 -0.475879 10.8613 74.4499
1389181 4.99638 5.18629 32.9172 31.3794 -0.452451 10.8985 74.4792
1389204 4.97882 5.24136 33.0156 31.4768 -0.427072 10.8962 74.7126
1389213 4.90857 5.21382 32.927 31.6424 -0.327811 10.9343 74.6918
1389223 4.90857 5.21382 32.927 31.6424 -0.327811 10.9343 74.6918
1389233 4.89101 5.24136 32.8483 31.6229 -0.293222 10.9255 74.6036
1389243 4.87345 5.16793 32.74 31.7301 -0.240046 10.9571 74.5115
1389255 4.87345 5.16793 32.74 31.7301 -0.240046 10.9571 74.5115
1389264 4.81198 5.223 32.7499 31.7398 -0.200942 10.9604 74.5247
1389275 4.81198 5.223 32.7499 31.7398 -0.200942 10.9604 74.5247
1389287 4.74174 5.223 32.7499 31.7983 -0.157794 10.988 74.5129
1389298 4.82076 5.16793 32.7203 31.7983 -0.192893 10.9781 74.5073
1389304 4.82076 5.16793 32.7203 31.7983 -0.192893 10.9781 74.5073
1389314 4.72417 5.18629 32.7499 31.847 -0.147888 11.0096 74.5073
1389324 4.66271 5.18629 32.6613 31.886 -0.0845894 11.0284 74.3962
1389344 4.74174 5.25054 32.6317 31.8957 -0.0762299 10.9773 74.5197
1389355 4.74174 5.25054 32.6317 31.8957 -0.0762299 10.9773 74.5197
1389364 4.68905 5.223 32.5628 31.8665 -0.0546128 11.0001 74.3414
1389374 4.70661 5.24136 32.6711 31.9834 -0.0512615 10.9996 74.6025
1389384 4.70661 5.24136 32.6711 31.9834 -0.0512615 10.9996 74.6025
1389395 4.69783 5.20464 32.6022 31.9152 -0.0605345 11.0081 74.4199
1389404 4.72417 5.20464 32.5924 31.9152 -0.0660628 10.9984 74.4364
1389424 4.76808 5.2689 32.5628 31.9347 -0.0427097 10.9601 74.5345
1389434 4.76808 5.2689 32.5628 31.9347 -0.0427097 10.9601 74.5345
1389444 4.73295 5.21382 32.366 31.8665 -0.0062719 10.9773 74.1792
1389456 4.79442 5.29644 32.4053 31.8665 -0.0123858 10.9291 74.3627
1389467 4.79442 5.29644 32.4053 31.8665 -0.0123858 10.9291 74.3627
1389475 4.85589 5.40659 32.238 31.808 0.0406206 10.8568 74.3085
1389486 4.9437 5.42495 32.0706 31.7496 0.053975 10.8072 74.1889
1389495 4.9437 5.42495 32.0706 31.7496 0.053975 10.8072 74.1889
1389506 5.07541 5.56263 31.9131 31.5352 0.0368863 10.6923 74.0864
1389525 5.22469 5.7095 31.6867 31.2917 0.0303596 10.562 73.9126
1389535 5.40031 5.92981 31.3422 31.0092 0.0666559 10.3869 73.6815
1389555 5.67252 6.26944 31.0075 30.5415 0.0445426 10.1251 73.491
1389565 6.03254 6.73758 30.476 30.0057 0.0801325 9.77005 73.2518
1389577 6.03254 6.73758 30.476 30.0057 0.0801325 9.77005 73.2518
1389586 6.50671 7.37095 29.7771 29.2848 0.127494 9.29212 72.9395
1389597 6.50671 7.37095 29.7771 29.2848 0.127494 9.29212 72.9395
1389606 7.09504 8.10529 29.0979 28.4957 0.140151 8.7356 72.7939
1389617 7.72727 8.88553 28.4482 27.765 0.163102 8.15651 72.826
1389627 7.72727 8.88553 28.4482 27.765 0.163102 8.15651 72.826
1389636 8.36829 9.53726 27.6902 27.2487 0.249666 7.62585 72.8445
1389647 8.98295 10.1431 26.9815 26.4888 0.229862 7.09628 72.5963
1389657 8.98295 10.1431 26.9815 26.4888 0.229862 7.09628 72.5963
1389667 9.67665 10.7673 26.2334 25.8556 0.245702 6.54428 72.5329
1389678 9.67665 10.7673 26.2334 25.8556 0.245702 6.54428 72.5329
1389687 10.423 11.5292 25.3474 25.0762 0.288397 5.90075 72.3758
1389698 11.3099 12.2176 24.4221 24.2189 0.244039 5.21976 72.1685
1389706 11.3099 12.2176 24.4221 24.2189 0.244039 5.21976 72.1685
1389718 12.311 13.1631 23.3295 23.1083 0.219351 4.37281 71.9118
1389727 13.4349 14.2187 22.0695 21.9782 0.241455 3.42967 71.7013
1389738 13.4349 14.2187 22.0695 21.9782 0.241455 3.42967 71.7013
1389748 14.436 15.3844 20.9375 20.9553 0.336877 2.52514 71.7132
1389768 15.2438 16.2473 19.9334 20.1759 0.43506 1.80549 71.6004
1389778 16.0692 17.0681 19.0278 19.3966 0.477779 1.10822 71.5616
1389789 16.0692 17.0681 19.0278 19.3966 0.477779 1.10822 71.5616
1389798 16.8858 17.9725 18.0434 18.5782 0.567114 0.370018 71.48
1389808 17.6975 18.8867 17.1083 17.643 0.60415 -0.385433 71.3355
1389828 18.5545 19.8495 16.2474 16.82 0.653255 -1.12003 71.4714
1389839 18.5545 19.8495 16.2474 16.82 0.653255 -1.12003 71.4714
1389849 19.272 20.8221 15.3814 16.005 0.760233 -1.82727 71.4805
1389860 20.0193 21.7849 14.5155 15.1143 0.827461 -2.55645 71.434
1389869 20.0193 21.7849 14.5155 15.1143 0.827461 -2.55645 71.434
1389879 20.5674 22.6991 13.8041 14.4699 0.977576 -3.14349 71.5405
1389891 21.1155 23.5355 13.2577 13.7308 1.00958 -3.69819 71.6394
1389899 21.1155 23.5355 13.2577 13.7308 1.00958 -3.69819 71.6394
1389909 21.5938 24.226 12.5979 13.0959 1.09424 -4.22143 71.5136
1389919 21.5938 24.226 12.5979 13.0959 1.09424 -4.22143 71.5136
1389935 22.0023 24.8776 12.1134 12.5557 1.15919 -4.65641 71.5491
1389941 22.2415 25.4125 11.7113 12.044 1.22662 -5.02006 71.4093
1389951 22.2415 25.4125 11.7113 12.044 1.22662 -5.02006 71.4093
1389960 22.5305 25.9376 11.2474 11.6745 1.3427 -5.36761 71.39
1389970 22.7995 26.2391 10.9794 11.3333 1.32918 -5.61852 71.3514
1389980 22.7995 26.2391 10.9794 11.3333 1.32918 -5.61852 71.3514
1389992 23.0487 26.7449 10.7216 10.9827 1.3837 -5.893 71.4979
1390000 23.0487 26.7449 10.7216 10.9827 1.3837 -5.893 71.4979
1390011 23.2479 27.1825 10.3814 10.67 1.47699 -6.16499 71.4819
1390021 23.5768 27.659 9.96907 10.4521 1.59274 -6.45046 71.657
1390030 23.5768 27.659 9.96907 10.4521 1.59274 -6.45046 71.657
1390040 23.8857 28.2523 9.5567 10.0635 1.69787 -6.79735 71.7582
1390051 24.085 28.7094 9.21649 9.74136 1.79411 -7.07362 71.7522
1390060 24.085 28.7094 9.21649 9.74136 1.79411 -7.07362 71.7522
1390071 24.5135 29.3707 8.7732 9.43813 1.91488 -7.422 72.0955
1390090 24.7128 29.9056 8.38144 9.02118 2.02461 -7.75102 72.021
1390100 24.922 30.2654 8.09278 8.699 2.06644 -8.00141 71.9793
1390110 24.922 30.2654 8.09278 8.699 2.06644 -8.00141 71.9793
1390120 25.1114 30.635 7.71134 8.41472 2.16599 -8.26888 71.8724
1390130 25.1313 30.9851 7.42268 8.16834 2.30084 -8.47724 71.7074
1390140 25.1313 30.9851 7.42268 8.16834 2.30084 -8.47724 71.7074
1390150 25.1612 31.345 7.28866 8.03567 2.4122 -8.59979 71.8305
1390171 25.211 31.5881 6.96907 7.8272 2.52642 -8.80005 71.5954
1390180 25.3007 31.9479 6.85567 7.5903 2.57407 -8.95521 71.6946
1390194 25.3007 31.9479 6.85567 7.5903 2.57407 -8.95521 71.6946
1390204 25.5797 32.3564 6.60825 7.46711 2.65081 -9.1362 72.0115
1390211 25.8986 32.833 6.40206 7.23021 2.68177 -9.34844 72.3638
1390223 25.8986 32.833 6.40206 7.23021 2.68177 -9.34844 72.3638
1390231 26.357 33.5526 6.02062 6.92698 2.7801 -9.66864 72.8572
1390244 26.357 33.5526 6.02062 6.92698 2.7801 -9.66864 72.8572
1390262 27.3136 34 5.24742 6.10256 2.59468 -10.314 72.6636
1390272 27.3136 34 5.24742 6.10256 2.59468 -10.314 72.6636
1390283 27.7919 34 4.86598 5.68562 2.4286 -10.6244 72.3435
1390292 27.9912 34 4.51546 5.24972 2.34928 -10.9174 71.7564
1390312 28.1805 34 4.23711 4.98439 2.29922 -11.1255 71.402
1390333 28.1606 34 4.1134 4.72854 2.27264 -11.2641 71.0025
1390343 28.1805 34 3.94845 4.51059 2.25851 -11.4075 70.6396
1390353 28.1805 34 3.94845 4.51059 2.25851 -11.4075 70.6396
1390363 28.1307 34 3.71134 4.23579 2.28094 -11.5979 70.0778
1390373 28.0909 34 3.56701 4.06522 2.29743 -11.7161 69.7231
1390383 28.0909 34 3.56701 4.06522 2.29743 -11.7161 69.7231
1390393 27.9613 34 3.41237 3.94203 2.369 -11.817 69.3157
1390406 27.9613 34 3.41237 3.94203 2.369 -11.817 69.3157
1390414 27.9015 34 3.28866 3.74303 2.37652 -11.9398 68.9332
1390425 27.8916 34 3.34021 3.7146 2.35068 -11.9303 68.9464
1390434 27.8916 34 3.34021 3.7146 2.35068 -11.9303 68.9464
1390444 27.9015 34 3.31959 3.68618 2.34557 -11.9499 68.9073
1390455 27.9812 34 3.4433 3.68618 2.26507 -11.9052 69.1107
1390466 27.9812 34 3.4433 3.68618 2.26507 -11.9052 69.1107
1390475 28.0709 34 3.57732 3.7146 2.18646 -11.8462 69.3629
1390487 28.1706 34 3.71134 3.79989 2.12322 -11.7662 69.6818
1390497 28.1706 34 3.71134 3.79989 2.12322 -11.7662 69.6818
1390510 28.3499 34 3.70103 3.79989 2.05757 -11.7785 69.8509
1390517 28.3499 34 3.70103 3.79989 2.05757 -11.7785 69.8509
1390528 28.4994 34 3.70103 3.78094 1.99356 -11.7926 69.9814
1390537 28.6389 34 3.70103 3.75251 1.93051 -11.8098 70.0925
1390548 28.6389 34 3.70103 3.75251 1.93051 -11.8098 70.0925
1390560 28.9179 34 3.7732 3.76198 1.79937 -11.7914 70.4531
1390571 29.1073 34 3.79381 3.68618 1.69474 -11.821 70.5873
1390581 29.1073 34 3.79381 3.68618 1.69474 -11.821 70.5873
1390588 29.3962 34 3.84536 3.78094 1.59785 -11.7786 71.0225
1390598 29.3962 34 3.84536 3.78094 1.59785 -11.7786 71.0225
1390608 29.6055 34 3.92783 3.78094 1.48904 -11.7571 71.3143
1390622 29.7052 34 4.08247 3.82832 1.41054 -11.6862 71.616
1390638 29.8646 34 4.18557 3.82832 1.31408 -11.6552 71.8785
1390650 29.8646 34 4.15464 3.79041 1.31291 -11.6808 71.8096
1390669 29.8447 34 4.19588 3.77146 1.29885 -11.6716 71.812
1390681 29.8646 34 4.16495 3.74303 1.29349 -11.6946 71.7726
1390689 29.8646 34 4.16495 3.74303 1.29349 -11.6946 71.7726
1390701 29.8945 34 4.1134 3.79041 1.31707 -11.6975 71.7983
1390710 29.8945 34 4.1134 3.79041 1.31707 -11.6975 71.7983
1390720 29.8447 34 4.12371 3.75251 1.31905 -11.7055 71.7209
1390731 29.6952 34 4.12371 3.77146 1.38027 -11.6915 71.5904
1390740 29.6952 34 4.12371 3.77146 1.38027 -11.6915 71.5904
1390750 29.5059 34 4.16495 3.69565 1.40992 -11.6957 71.3665
1390761 29.3165 34 4.02062 3.72408 1.54336 -11.7304 71.0612
1390770 29.3165 34 4.02062 3.72408 1.54336 -11.7304 71.0612
1390780 29.1671 34 4.06186 3.7146 1.58072 -11.7116 70.9435
1390791 29.1671 34 4.06186 3.7146 1.58072 -11.7116 70.9435
1390801 28.9977 34 4.01031 3.61984 1.63246 -11.759 70.6278
1390810 28.9977 34 4.03093 3.72408 1.65912 -11.7118 70.7527
1390820 28.9977 34 4.03093 3.72408 1.65912 -11.7118 70.7527
1390833 28.9379 34 4.02062 3.64827 1.66053 -11.7416 70.6068
1390840 28.9379 34 3.8866 3.64827 1.71123 -11.7924 70.4727
1390852 28.7784 34 3.8866 3.65775 1.77493 -11.7815 70.3228
1390861 28.7286 34 3.90722 3.60089 1.76726 -11.7931 70.2367
1390870 28.7286 34 3.90722 3.60089 1.76726 -11.7931 70.2367
1390881 28.8581 34 3.84536 3.68618 1.76967 -11.7901 70.3897
1390890 28.8382 34 3.86598 3.62932 1.75063 -11.803 70.3335
1390900 28.8382 34 3.86598 3.62932 1.75063 -11.803 70.3335
1390911 28.9379 34 3.79381 3.69565 1.76209 -11.8097 70.4273
1390920 28.9379 34 3.79381 3.69565 1.76209 -11.8097 70.4273
1390933 28.8781 34 3.80412 3.69565 1.7809 -11.8031 70.3779
1390941 28.888 34 3.7732 3.6767 1.78263 -11.8225 70.3379
1390952 28.888 34 3.7732 3.6767 1.78263 -11.8225 70.3379
1390961 28.9678 34 3.83505 3.70513 1.73821 -11.7918 70.5079
1390972 28.9977 34 3.84536 3.78094 1.74796 -11.7605 70.624
1390992 29.0475 34 3.85567 3.83779 1.74392 -11.7373 70.7409
1391002 28.9777 34 3.87629 3.88517 1.77807 -11.7084 70.7392
1391013 28.9777 34 3.87629 3.88517 1.77807 -11.7084 70.7392
1391023 28.9279 34 3.95876 3.97993 1.79678 -11.6393 70.8666
1391049 28.9379 34 4 3.99889 1.78364 -11.6172 70.9368
1391053 28.898 34 4 4.03679 1.81109 -11.6011 70.9348
1391063 28.898 34 4 4.03679 1.81109 -11.6011 70.9348
1391075 28.7784 34 4.06186 4.07469 1.84531 -11.5579 70.915
1391083 28.7386 34 4.03093 4.1505 1.89686 -11.5392 70.92
1391094 28.7386 34 4.03093 4.1505 1.89686 -11.5392 70.92
1391103 28.7685 34 4.05155 4.12207 1.86845 -11.5435 70.9421
1391123 28.5094 34 3.97938 4.1126 1.99141 -11.5615 70.6013
1391133 28.32 34 4.03093 4.1505 2.05652 -11.5186 70.5015
1391146 28.32 34 4.03093 4.1505 2.05652 -11.5186 70.5015
1391155 28.1208 34 4.06186 4.27369 2.1613 -11.4508 70.4563
1391165 27.9215 34 4.06186 4.40635 2.28124 -11.3909 70.3897
1391175 27.9215 34 4.06186 4.40635 2.28124 -11.3909 70.3897
1391184 27.7321 34 4.1134 4.51059 2.36833 -11.3227 70.3561
1391211 27.3734 34 4.2268 4.73802 2.53696 -11.1764 70.3382
1391214 27.0445 34 4.36082 4.98439 2.69181 -11.0171 70.3898
1391226 27.0445 34 4.36082 4.98439 2.69181 -11.0171 70.3898
1391234 26.8552 34 4.36082 5.12653 2.81142 -10.9538 70.3426
1391246 26.6858 34 4.49485 5.32553 2.888 -10.8215 70.5062
1391255 26.6858 34 4.49485 5.32553 2.888 -10.8215 70.5062
1391265 26.6659 34 4.58763 5.52453 2.92146 -10.7139 70.778
1391276 26.6659 34 4.58763 5.52453 2.92146 -10.7139 70.778
1391285 26.626 34 4.63918 5.61929 2.94637 -10.6584 70.8845
1391295 26.6858 34 4.72165 5.75195 2.93162 -10.5844 71.1594
1391315 26.5363 34 4.73196 5.82776 3.00982 -10.5442 71.0961
1391326 26.4766 34 4.7835 5.9699 3.05694 -10.471 71.23
1391345 26.4467 34 4.82474 6.07414 3.08454 -10.4171 71.3455
1391365 26.3271 34 4.96907 6.09309 3.08062 -10.3513 71.3892
1391375 26.3072 34 4.93814 6.21628 3.1384 -10.3173 71.4616
1391395 26.1776 34 5 6.2447 3.17376 -10.2768 71.4223
1391406 26.0481 33.9514 5.07217 6.36789 3.21917 -10.1959 71.4395
1391417 26.0481 33.9514 5.07217 6.36789 3.21917 -10.1959 71.4395
1391426 25.9285 33.9708 5.12371 6.4058 3.26353 -10.1576 71.4288
1391439 25.9285 33.9708 5.12371 6.4058 3.26353 -10.1576 71.4288
1391447 25.7989 34 5.13402 6.47213 3.33981 -10.1238 71.4051
1391457 25.6993 33.9708 5.24742 6.63322 3.37429 -10.0187 71.5508
1391468 25.6993 33.9708 5.24742 6.63322 3.37429 -10.0187 71.5508
1391477 25.7192 34 5.28866 6.65217 3.3646 -10.0011 71.6601
1391488 25.6295 33.9514 5.30928 6.71851 3.3973 -9.96104 71.6087
1391497 25.6295 33.9514 5.30928 6.71851 3.3973 -9.96104 71.6087
1391508 25.6096 33.8249 5.37113 6.80379 3.36827 -9.89945 71.6095
1391517 25.6096 33.8249 5.37113 6.80379 3.36827 -9.89945 71.6095
1391528 25.4302 33.7569 5.41237 6.82274 3.40825 -9.8608 71.4222
1391537 25.3804 33.7958 5.49485 6.8796 3.42419 -9.8116 71.5506
1391549 25.3804 33.7958 5.49485 6.8796 3.42419 -9.8116 71.5506
1391557 25.4004 33.6985 5.61856 6.95541 3.36076 -9.73693 71.6728
1391568 25.3505 33.6693 5.74227 7.05964 3.3542 -9.65263 71.8218
1391578 25.3505 33.6693 5.74227 7.05964 3.3542 -9.65263 71.8218
1391588 25.2808 33.6304 5.83505 7.23969 3.38757 -9.55113 71.9859
1391598 25.2808 33.6304 5.83505 7.23969 3.38757 -9.55113 71.9859
1391608 25.0416 33.5624 5.93814 7.42921 3.4777 -9.42805 71.9713
1391618 24.7227 33.222 6.19588 7.5524 3.43679 -9.24702 71.693
1391628 24.7227 33.222 6.19588 7.5524 3.43679 -9.24702 71.693
1391638 24.1249 32.8427 6.46392 7.83668 3.53965 -8.98023 71.2681
1391658 23.3476 32.2494 6.91753 8.27258 3.62244 -8.56235 70.7871
1391671 22.3013 31.7145 7.91753 9.16332 3.74808 -7.79255 71.0967
1391678 22.3013 31.7145 7.91753 9.16332 3.74808 -7.79255 71.0967
1391688 21.544 31.1602 9.93814 10.6795 3.53154 -6.56419 73.3218
1391698 21.2052 30.8392 12.6701 12.7168 3.12561 -5.16409 77.4313
1391718 20.5176 30.3238 14.3918 14.432 3.08995 -4.14566 79.6651
1391729 19.3517 29.468 14.9485 15.3133 3.31338 -3.52003 79.0814
1391739 19.3517 29.468 14.9485 15.3133 3.31338 -3.52003 79.0814
1391749 18.0862 28.1648 15.0928 15.6734 3.46 -3.01585 77.0171
1391769 16.798 26.5309 15.3608 15.9292 3.45128 -2.42007 74.619
1391780 15.7443 24.8484 15.7732 16.6304 3.41158 -1.68277 72.9963
1391801 14.6818 23.2923 16.5567 17.4968 3.31493 -0.816478 72.0277
1391811 13.7159 21.7168 17.4823 18.7633 3.23734 0.170124 71.6784
1391821 13.7159 21.7168 17.4823 18.7633 3.23734 0.170124 71.6784
1391830 12.8027 20.1024 18.7226 20.361 3.104 1.28741 71.9888
1391859 11.9509 18.6728 20.0023 22.0951 3.03029 2.36666 72.7211
1391862 11.2572 17.5641 21.0359 23.5857 3.0148 3.22705 73.4429
1391872 11.2572 17.5641 21.0359 23.5857 3.0148 3.22705 73.4429
1391882 10.7567 16.7522 21.6561 24.5599 3.01774 3.80613 73.7248
1391892 10.423 16.0913 21.971 25.349 3.06299 4.22684 73.8343
1391912 10.3352 15.6415 22.1285 25.8361 3.04762 4.46055 73.9413
1391921 10.3352 15.6415 22.3254 25.8361 2.97314 4.48854 74.1382
1391931 10.1596 15.1274 22.3254 26.3524 3.04024 4.74363 73.9649
1391943 9.9313 14.7052 22.542 26.8201 3.05816 5.01204 73.9985
1391952 9.9313 14.7052 22.542 26.8201 3.05816 5.01204 73.9985
1391962 9.57128 14.1085 22.6995 27.161 3.05914 5.34007 73.5403
1391972 9.20248 13.5027 23.0834 27.6871 3.02956 5.72951 73.4757
1391984 9.20248 13.5027 23.0834 27.6871 3.02956 5.72951 73.4757
1391992 8.75465 12.8785 23.5756 28.2716 3.00077 6.16778 73.4804
1392003 8.75465 12.8785 23.5756 28.2716 3.00077 6.16778 73.4804
1392013 8.28926 12.1075 24.304 29.012 2.89171 6.69884 73.7127
1392023 7.66581 11.2079 25.1702 29.9668 2.81669 7.34961 74.0107
1392033 7.66581 11.2079 25.1702 29.9668 2.81669 7.34961 74.0107
1392043 7.18285 10.4552 25.938 30.6097 2.67707 7.86736 74.1858
1392053 6.83161 9.71166 26.4893 31.0871 2.52223 8.3041 74.1197
1392073 6.57696 9.24352 27.0701 31.3014 2.32435 8.60289 74.192
1392094 6.30475 8.82127 27.4737 31.3989 2.1763 8.8677 73.9985
1392106 6.22572 8.5459 27.7296 31.2917 1.99283 8.9947 73.7929
1392114 6.22572 8.5459 27.7296 31.2917 1.99283 8.9947 73.7929
1392124 6.12035 8.47246 27.8477 31.1358 1.91645 9.04993 73.5763
1392135 6.13791 8.40821 28.0151 30.9799 1.77968 9.06613 73.5411
1392144 6.13791 8.40821 28.0151 30.9799 1.77968 9.06613 73.5411
1392155 6.24329 8.5 28.2415 30.7754 1.62372 9.00355 73.7601
1392164 6.24329 8.5 28.2415 30.7754 1.62372 9.00355 73.7601
1392174 6.30475 8.5 28.458 30.7461 1.51447 8.9988 74.0089
1392185 6.34866 8.34395 28.6057 30.7851 1.40879 9.05024 74.0834
1392211 6.40134 8.27052 28.714 30.8241 1.34055 9.06877 74.2099
1392214 6.38378 8.16955 28.96 30.8533 1.23678 9.12909 74.3667
1392225 6.38378 8.16955 28.96 30.8533 1.23678 9.12909 74.3667
1392235 6.36622 8.05939 29.1372 30.863 1.14845 9.18524 74.4259
1392244 6.36622 8.05939 29.1372 30.863 1.14845 9.18524 74.4259
1392254 6.24329 7.88499 29.2947 30.8825 1.08656 9.29587 74.3055
1392264 6.18182 7.75648 29.5999 30.9702 0.988135 9.3879 74.5084
1392284 6.02376 7.47192 29.8361 31.165 0.931945 9.56527 74.4969
1392295 5.79545 7.19654 30.2003 31.4963 0.902754 9.78154 74.6886
1392307 5.79545 7.19654 30.2003 31.4963 0.902754 9.78154 74.6886
1392314 5.54959 6.90281 30.3775 31.584 0.859937 9.97981 74.4139
1392324 5.54959 6.90281 30.3775 31.584 0.859937 9.97981 74.4139
1392335 5.30372 6.54482 30.5646 31.7496 0.817829 10.2071 74.1627
1392344 5.14566 6.37041 30.8303 31.9152 0.777519 10.3478 74.2616
1392354 5.14566 6.37041 30.8303 31.9152 0.777519 10.3478 74.2616
1392364 5.08419 6.26026 31.0371 32.1003 0.751624 10.4306 74.4818
1392374 4.85589 6.01242 31.4111 32.2562 0.671351 10.6256 74.5356
1392385 4.85589 6.01242 31.4111 32.2562 0.671351 10.6256 74.5356
1392397 4.63636 5.79212 31.6474 32.3731 0.631794 10.7977 74.4489
1392415 4.56612 5.55346 31.8147 32.5971 0.593629 10.9267 74.5314
1392424 4.39928 5.46166 32.0214 32.8309 0.626364 11.0405 74.7133
1392444 4.34659 5.24136 32.2183 32.9673 0.549591 11.1532 74.7736
1392455 4.34659 5.24136 32.2183 32.9673 0.549591 11.1532 74.7736
1392464 4.2061 5.03024 32.4152 33.0842 0.499499 11.2924 74.7357
1392493 4.15341 4.85583 32.6711 33.4252 0.48483 11.4014 75.1056
1392494 4.15341 4.85583 32.6711 33.4252 0.48483 11.4014 75.1056
1392495 3.89876 4.54374 32.8188 33.6006 0.476471 11.6168 74.8618
1392506 3.64411 4.28672 32.9861 33.7077 0.457034 11.8117 74.6247
1392516 3.64411 4.28672 32.9861 33.7077 0.457034 11.8117 74.6247
1392527 3.59143 4.13067 33.1239 33.6688 0.363716 11.891 74.5148
1392537 3.53874 4.03888 33.1436 33.6201 0.328413 11.9421 74.3413
1392557 3.5124 4.0297 33.242 33.6103 0.297594 11.9586 74.3944
1392566 3.5124 4.0297 33.242 33.6103 0.297594 11.9586 74.3944
1392577 3.52996 4.02052 33.3208 33.4934 0.222951 11.954 74.3647
1392587 3.65289 4.16739 33.4488 33.4739 0.180507 11.8611 74.743
1392597 3.65289 4.16739 33.4488 33.4739 0.180507 11.8611 74.743
1392607 3.81973 4.24082 33.4488 33.4739 0.148785 11.7751 74.9832
1392618 3.8812 4.30508 33.4488 33.4837 0.152689 11.7307 75.1187
1392637 3.89876 4.25 33.4783 33.4739 0.115469 11.7449 75.101
1392646 3.89876 4.25 33.4783 33.4739 0.115469 11.7449 75.101
1392658 3.95145 4.25 33.5866 33.2986 0.00351667 11.7232 75.0866
1392668 3.87242 4.2041 33.5866 33.1719 -0.0277147 11.7623 74.835
1392678 3.87242 4.2041 33.5866 33.1719 -0.0277147 11.7623 74.835
1392688 3.88998 4.25 33.557 33.0063 -0.0638261 11.7311 74.7033
1392698 3.80217 4.21328 33.557 32.8407 -0.102548 11.7685 74.4132
1392708 3.80217 4.21328 33.557 32.8407 -0.102548 11.7685 74.4132
1392719 3.89876 4.23164 33.6653 32.714 -0.207487 11.7264 74.5098
1392728 3.89876 4.23164 33.6653 32.714 -0.207487 11.7264 74.5098
1392738 3.88998 4.24082 33.7047 32.7433 -0.204673 11.7293 74.5788
1392748 3.9251 4.21328 33.8819 32.714 -0.294261 11.7331 74.7343
1392759 3.9251 4.21328 33.8819 32.714 -0.294261 11.7331 74.7343
1392769 4.0656 4.23164 33.7539 32.6946 -0.298783 11.6698 74.7457
1392779 4.18853 4.25 33.872 32.4997 -0.438058 11.616 74.8103
1392789 4.18853 4.25 33.872 32.4997 -0.438058 11.616 74.8103
1392801 4.25878 4.35097 33.8425 32.3244 -0.476739 11.5458 74.7766
1392819 4.32903 4.37851 33.9212 32.1393 -0.579296 11.5062 74.768
1392829 4.38171 4.43359 34 32.1393 -0.603324 11.4717 74.9546
1392840 4.38171 4.43359 34 32.1393 -0.603324 11.4717 74.9546
1392849 4.45196 4.52538 34 32.1295 -0.598173 11.4142 75.1069
1392859 4.38171 4.49784 34 32.1393 -0.581394 11.4491 75.0188
1392869 4.38171 4.49784 34 32.1393 -0.581394 11.4491 75.0188
1392879 4.38171 4.48866 34 32.0613 -0.611134 11.4486 74.9317
1392889 4.38171 4.48866 34 32.0613 -0.611134 11.4486 74.9317
1392899 4.42562 4.47948 34 32.0029 -0.648554 11.4336 74.908
1392909 4.4344 4.49784 34 31.9347 -0.668484 11.4208 74.8669
1392920 4.4344 4.49784 34 31.9347 -0.668484 11.4208 74.8669
1392929 4.4344 4.5621 34 31.7983 -0.693239 11.3915 74.7948
1392939 4.4344 4.5621 34 31.7983 -0.693239 11.3915 74.7948
1392949 4.42562 4.50702 34 31.7885 -0.712669 11.4136 74.7212
1392959 4.42562 4.60799 34 31.7106 -0.704747 11.3742 74.7442
1392969 4.42562 4.60799 34 31.7106 -0.704747 11.3742 74.7442
1392979 4.50465 4.70896 33.9803 31.7009 -0.692686 11.3094 74.8948
1392991 4.52221 4.70896 33.8917 31.7009 -0.669611 11.2988 74.8238
1393000 4.52221 4.70896 33.8917 31.7009 -0.669611 11.2988 74.8238
1393010 4.55733 4.84665 33.7539 31.6911 -0.592351 11.2308 74.849
1393020 4.55733 4.84665 33.7539 31.6911 -0.592351 11.2308 74.849
1393031 4.51343 4.79158 33.5964 31.6911 -0.545347 11.2577 74.5925
1393039 4.56612 4.88337 33.5669 31.6911 -0.521538 11.2054 74.7075
1393050 4.56612 4.88337 33.5669 31.6911 -0.521538 11.2054 74.7075
1393060 4.58368 4.90173 33.4586 31.7788 -0.4556 11.1918 74.7228
1393071 4.55733 4.99352 33.3306 31.7203 -0.393453 11.1593 74.6018
1393079 4.55733 4.99352 33.3306 31.7203 -0.393453 11.1593 74.6018
1393089 4.61002 5.08531 33.2617 31.7593 -0.343674 11.1071 74.7164
1393115 4.60124 5.12203 33.055 31.7009 -0.279729 11.0835 74.4791
1393124 4.5749 5.17711 33.0058 31.7009 -0.235943 11.0708 74.4586
1393135 4.5749 5.17711 33.0058 31.7009 -0.235943 11.0708 74.4586
1393141 4.64514 5.24136 32.7794 31.6814 -0.168733 11.0107 74.3473
1393150 4.6188 5.34233 32.6711 31.7496 -0.0665486 10.9824 74.3818
1393170 4.69783 5.43413 32.4939 31.8275 0.0234634 10.9175 74.4534
1393180 4.69783 5.43413 32.4939 31.8275 0.0234634 10.9175 74.4534
1393190 4.68027 5.47084 32.238 31.8178 0.124767 10.8962 74.2069
1393201 4.8032 5.64525 32.051 31.7398 0.178787 10.7778 74.2392
1393222 4.88223 5.82883 31.7852 31.5158 0.228745 10.6584 74.012
1393231 5.03151 6.15011 31.4505 31.3404 0.340837 10.4652 73.9725
1393242 5.03151 6.15011 31.4505 31.3404 0.340837 10.4652 73.9725
1393252 5.20713 6.48974 31.1749 31.1456 0.423315 10.2591 74.0173
1393262 5.20713 6.48974 31.1749 31.1456 0.423315 10.2591 74.0173
1393272 5.32128 6.7284 30.8894 31.0676 0.535539 10.1154 74.0067
1393281 5.42665 7.03132 30.5843 30.941 0.662783 9.94832 73.9832
1393304 5.60227 7.26998 30.2693 30.6877 0.706407 9.76945 73.8292
1393312 5.78667 7.73812 29.7672 30.3564 0.862429 9.4908 73.6485
1393322 5.78667 7.73812 29.7672 30.3564 0.862429 9.4908 73.6485
1393332 6.19938 8.2797 29.2554 29.8401 0.905567 9.09616 73.5746
1393352 6.60331 8.85799 28.6844 29.2361 0.956082 8.6791 73.3818
1393362 7.20041 9.61069 27.9461 28.71 1.08013 8.13527 73.4673
1393372 7.20041 9.61069 27.9461 28.71 1.08013 8.13527 73.4673
1393382 7.69215 10.3817 27.3457 28.2424 1.21715 7.63912 73.662
1393392 8.1312 10.3817 26.7649 27.9989 1.18881 7.42067 73.2767
1393402 8.1312 10.9141 26.7649 27.9989 1.36057 7.25894 73.8091
1393412 8.52634 11.4282 26.1349 27.5215 1.45645 6.86757 73.6109
1393422 8.52634 11.4282 26.1349 27.5215 1.45645 6.86757 73.6109
1393433 8.97417 12.0707 25.3474 26.8883 1.58207 6.38452 73.2806
1393441 9.36932 12.8969 24.5501 26.333 1.81493 5.86818 73.1492
1393461 9.85227 13.5853 23.7528 25.6023 1.91729 5.34068 72.7926
1393473 10.2211 14.2829 23.1031 24.9788 2.04502 4.8724 72.5859
1393483 10.2211 14.2829 23.1031 24.9788 2.04502 4.8724 72.5859
1393494 10.7479 15.0632 22.3746 24.2968 2.15136 4.31698 72.4826
1393513 11.2572 15.8526 21.6659 23.5467 2.23864 3.7546 72.3224
1393523 11.7402 16.642 21.0359 22.8063 2.30955 3.21083 72.2244
1393533 11.7402 16.642 21.0359 22.8063 2.30955 3.21083 72.2244
1393543 12.1968 17.2723 20.3567 22.1146 2.37468 2.71103 71.9404
1393553 12.1968 17.2723 20.3567 22.1146 2.37468 2.71103 71.9404
1393563 12.6095 17.8364 19.7661 21.5496 2.44225 2.27205 71.7615
1393573 13.0573 18.4977 19.2444 20.9748 2.4977 1.8107 71.7742
1393583 13.0573 18.4977 19.2444 20.9748 2.4977 1.8107 71.7742
1393593 13.4349 19.0715 18.7915 20.4097 2.52929 1.40045 71.7077
1393603 13.8476 19.7134 18.2698 19.8057 2.58306 0.945303 71.6366
1393613 13.8476 19.7134 18.2698 19.8057 2.58306 0.945303 71.6366
1393623 14.3218 20.365 17.7678 19.1238 2.58429 0.462039 71.5784
1393634 14.3218 20.365 17.7678 19.1238 2.58429 0.462039 71.5784
1393643 14.7784 20.8804 17.1477 18.549 2.62887 0.00794828 71.3555
1393653 15.3931 21.5904 16.5567 17.8963 2.63762 -0.531346 71.4364
1393664 15.3931 21.5904 16.5567 17.8963 2.63762 -0.531346 71.4364
1393675 16.0253 22.2323 15.8557 17.2143 2.65172 -1.09093 71.3276
1393684 16.7278 23.0103 15.0619 16.4314 2.68564 -1.7362 71.2314
1393694 16.7278 23.0103 15.0619 16.4314 2.68564 -1.7362 71.2314
1393704 17.6278 23.7592 14.3299 15.6828 2.62057 -2.38955 71.3997
1393715 17.6278 23.7592 14.3299 15.6828 2.62057 -2.38955 71.3997
1393724 18.415 24.2162 13.6804 15.0385 2.50851 -2.92481 71.3501
1393734 19.1225 24.6928 13.1031 14.413 2.41136 -3.42749 71.3314
1393744 19.1225 24.6928 13.1031 14.413 2.41136 -3.42749 71.3314
1393754 19.7702 25.1888 12.567 13.8729 2.35454 -3.89062 71.3989
1393764 20.408 25.5486 12.0619 13.3896 2.2646 -4.30731 71.4081
1393779 20.408 25.5486 12.0619 13.3896 2.2646 -4.30731 71.4081
1393786 20.9162 25.9085 11.6495 12.8495 2.1705 -4.69529 71.3236
1393806 21.3447 26.0835 11.268 12.4894 2.0932 -4.98782 71.1856
1393815 21.7433 26.2294 11.0412 12.1957 1.98027 -5.21049 71.2095
1393825 21.7433 26.2294 11.0412 12.1957 1.98027 -5.21049 71.2095
1393836 22.1618 26.4725 10.701 11.9398 1.94651 -5.47038 71.2752
1393845 22.68 26.7546 10.433 11.6555 1.85155 -5.73508 71.523
1393855 22.68 26.7546 10.433 11.6555 1.85155 -5.73508 71.523
1393865 23.2978 27.1728 10.0825 11.267 1.76118 -6.08209 71.82
1393875 23.2978 27.1728 10.0825 11.267 1.76118 -6.08209 71.82
1393885 23.7661 27.5034 9.79381 10.7932 1.64797 -6.40495 71.8566
1393896 24.2444 27.8827 9.35052 10.4521 1.64739 -6.74087 71.9297
1393906 24.2444 27.8827 9.35052 10.4521 1.64739 -6.74087 71.9297
1393915 24.7427 28.2426 9.02062 9.98774 1.55118 -7.07915 71.9936
1393926 25.1313 28.5927 8.68041 9.54236 1.50227 -7.40156 71.9468
1393945 25.4601 28.865 8.43299 9.26756 1.4715 -7.6274 72.0257
1393966 25.7292 29.0887 8.14433 8.82219 1.40606 -7.90938 71.7844
1393977 26.1776 29.536 7.85567 8.45262 1.37298 -8.20695 72.0219
1393986 26.1776 29.536 7.85567 8.45262 1.37298 -8.20695 72.0219
1393999 26.4666 29.8181 7.59794 8.0641 1.32656 -8.46932 71.9467
1394007 26.8453 30.139 7.38144 7.71349 1.25757 -8.71736 72.0792
1394017 26.8453 30.139 7.38144 7.71349 1.25757 -8.71736 72.0792
1394027 26.9648 30.2557 7.17526 7.42921 1.23385 -8.89998 71.825
1394036 26.9648 30.2557 7.17526 7.42921 1.23385 -8.89998 71.825
1394047 26.9648 30.2752 7.10309 7.20178 1.19122 -9.00172 71.5449
1394058 27.0844 30.2752 7 7.12598 1.15993 -9.07182 71.4856
1394077 27.1741 30.3238 6.84536 6.88907 1.12078 -9.21564 71.2323
1394087 27.0246 30.3335 6.83505 6.8796 1.17958 -9.21101 71.0728
1394097 27.0246 30.3335 6.83505 6.8796 1.17958 -9.21101 71.0728
1394107 27.0744 30.353 6.90722 6.84169 1.12854 -9.20499 71.1763
1394127 27.0545 30.3335 7.01031 6.73746 1.05649 -9.20217 71.1358
1394137 27.204 30.4308 7.07217 6.82274 1.0406 -9.17239 71.5297
1394148 27.204 30.4308 7.07217 6.82274 1.0406 -9.17239 71.5297
1394158 27.3036 30.5378 7.08247 6.8796 1.0554 -9.16655 71.8035
1394168 27.5229 30.7323 7.16495 6.90803 1.02052 -9.16286 72.3281
1394178 27.5229 30.7323 7.16495 6.90803 1.02052 -9.16286 72.3281
1394188 27.7521 30.9949 7.10309 6.86065 1.0316 -9.23864 72.7106
1394200 27.7521 30.9949 7.10309 6.86065 1.0316 -9.23864 72.7106
1394208 27.8417 31.0532 7.08247 6.78484 1.00115 -9.28248 72.7623
1394218 27.9414 31.1505 7.04124 6.70903 0.987366 -9.33696 72.8421
1394228 27.9414 31.1505 7.04124 6.70903 0.987366 -9.33696 72.8421
1394238 28.0111 31.3158 6.93814 6.67113 1.04119 -9.40226 72.9362
1394248 28.0709 31.2088 6.82474 6.52899 0.978243 -9.48447 72.6335
1394258 28.0709 31.2088 6.82474 6.52899 0.978243 -9.48447 72.6335
1394268 28.1506 31.2574 6.7732 6.43423 0.952902 -9.54355 72.6155
1394294 28.2104 31.2769 6.62887 6.32051 0.951901 -9.63695 72.4367
1394299 28.2603 31.4033 6.5567 6.19732 0.960982 -9.71647 72.4176
1394309 28.2603 31.4033 6.5567 6.19732 0.960982 -9.71647 72.4176
1394318 28.4297 31.4811 6.39175 6.11204 0.956905 -9.81991 72.4146
1394328 28.4297 31.4811 6.39175 6.11204 0.956905 -9.81991 72.4146
1394338 28.4496 31.4908 6.17526 5.95095 0.977203 -9.95209 72.0666
1394348 28.5094 31.4714 6.14433 5.84671 0.925499 -10.0018 71.9718
1394358 28.5094 31.4714 6.14433 5.84671 0.925499 -10.0018 71.9718
1394368 28.3599 31.3741 6.04124 5.75195 0.952417 -10.0537 71.5272
1394378 28.34 31.1213 6 5.69509 0.870058 -10.0693 71.1563
1394388 28.34 31.1213 6 5.69509 0.870058 -10.0693 71.1563
1394399 28.2702 31.0727 5.95876 5.57191 0.852075 -10.1192 70.8735
1394408 28.2702 31.0727 5.95876 5.57191 0.852075 -10.1192 70.8735
1394418 28.3001 31.1213 5.89691 5.57191 0.880292 -10.1465 70.8902
1394429 28.4496 31.1602 6 5.54348 0.791979 -10.133 71.1533
1394438 28.4496 31.1602 6 5.54348 0.791979 -10.133 71.1533
1394448 28.6788 31.3158 5.92783 5.51505 0.77838 -10.1946 71.4375
1394458 28.9777 31.6367 5.81443 5.43924 0.794446 -10.3024 71.8681
1394478 29.456 32.016 5.63918 5.2592 0.753072 -10.4823 72.3704
1394488 29.456 32.016 5.63918 5.2592 0.753072 -10.4823 72.3704
1394499 29.9543 32.4342 5.5567 5.10758 0.694981 -10.6206 73.0528
1394509 30.3927 32.7941 5.35052 5.01282 0.701436 -10.7729 73.5501
1394519 30.3927 32.7941 5.35052 5.01282 0.701436 -10.7729 73.5501
1394529 30.6219 33.0761 5.23711 4.76644 0.672817 -10.9281 73.7016
1394541 30.8212 33.1928 5.12371 4.67168 0.65017 -11.0186 73.8094
1394550 30.8212 33.1928 5.12371 4.67168 0.65017 -11.0186 73.8094
1394561 30.871 33.1247 5.01031 4.56745 0.615308 -11.0946 73.5735
1394580 30.7913 32.9886 4.94845 4.40635 0.565782 -11.1626 73.1347
1394589 30.592 32.8524 4.89691 4.27369 0.563645 -11.2113 72.615
1394609 30.4127 32.4926 4.92783 4.23579 0.481433 -11.1855 72.0688
1394621 30.3429 32.2592 4.82474 4.17893 0.443551 -11.2278 71.6057
1394630 30.3429 32.2592 4.82474 4.17893 0.443551 -11.2278 71.6057
1394641 30.303 32.2105 4.7732 4.1126 0.436589 -11.2664 71.3994
1394650 30.303 32.2105 4.7732 4.1126 0.436589 -11.2664 71.3994
1394660 30.303 32.1424 4.73196 4.02731 0.398412 -11.3095 71.2048
1394670 30.4127 32.2105 4.62887 3.99889 0.409779 -11.3673 71.2509
1394691 30.4027 32.3467 4.51546 3.86622 0.455058 -11.465 71.1311
1394700 30.313 32.4148 4.50515 3.80936 0.49476 -11.4889 71.0423
1394710 30.313 32.4148 4.50515 3.80936 0.49476 -11.4889 71.0423
1394720 30.3529 32.4537 4.54639 3.84727 0.492156 -11.4634 71.2002
1394730 30.3529 32.4537 4.54639 3.84727 0.492156 -11.4634 71.2002
1394741 30.2333 32.5704 4.49485 3.88517 0.606671 -11.4683 71.1837
1394751 30.1237 32.5606 4.49485 3.96098 0.668782 -11.4342 71.1401
1394761 30.1237 32.5606 4.49485 3.96098 0.668782 -11.4342 71.1401
1394772 30.034 32.6968 4.52577 3.9515 0.733247 -11.4285 71.2081
1394782 29.9244 32.8038 4.53608 4.05574 0.840944 -11.3859 71.32
1394793 29.9244 32.8038 4.53608 4.05574 0.840944 -11.3859 71.32
1394802 29.745 32.9886 4.62887 4.18841 0.9794 -11.3031 71.5508
1394813 29.745 32.9886 4.62887 4.18841 0.9794 -11.3031 71.5508
1394822 29.6454 33.222 4.58763 4.21683 1.11822 -11.3147 71.6718
1394831 29.6952 33.4554 4.54639 4.26421 1.20829 -11.3269 71.9612
1394842 29.6952 33.4554 4.54639 4.26421 1.20829 -11.3269 71.9612
1394853 29.7151 33.718 4.4433 4.27369 1.32822 -11.3755 72.1501
1394862 29.5059 33.9611 4.41237 4.22631 1.48018 -11.4058 72.1056
1394882 29.4062 34 4.30928 4.22631 1.56752 -11.4406 71.9418
1394894 29.4062 34 4.30928 4.22631 1.56752 -11.4406 71.9418
1394901 29.2069 34 4.20619 4.15998 1.65805 -11.4933 71.5731
1394913 29.177 34 4.26804 4.19788 1.65851 -11.455 71.6429
1394933 29.0674 34 4.19588 4.13155 1.7047 -11.5008 71.3948
1394943 28.9877 34 4.15464 4.14103 1.75311 -11.5087 71.2834
1394953 28.9877 34 4.15464 4.14103 1.75311 -11.5087 71.2834
1394963 28.9578 34 4.07217 4.09365 1.77989 -11.5557 71.1236
1394983 28.8283 34 4 4.06522 1.84677 -11.587 70.8935
1394993 28.7186 34 3.96907 4.06522 1.9001 -11.5934 70.7529
1395013 28.6887 34 3.87629 4.01784 1.93135 -11.6447 70.5829
1395023 28.6589 34 3.79381 3.93255 1.94639 -11.7068 70.3852
1395033 28.6589 34 3.79381 3.93255 1.94639 -11.7068 70.3852
1395052 28.6987 34 3.7732 3.94203 1.94213 -11.7129 70.4139
1395063 28.7386 34 3.64948 3.86622 1.94941 -11.7906 70.2543
1395075 28.7186 34 3.65979 3.80936 1.93443 -11.8075 70.1878
1395084 28.7186 34 3.65979 3.80936 1.93443 -11.8075 70.1878
1395095 28.7485 34 3.5567 3.83779 1.97188 -11.8374 70.143
1395104 28.7186 34 3.56701 3.81884 1.97319 -11.8394 70.1045
1395124 28.6987 34 3.5567 3.7146 1.95055 -11.8824 69.97
1395144 28.6987 34 3.40206 3.65775 1.9915 -11.9639 69.7585
1395154 28.6788 34 3.45361 3.64827 1.97615 -11.9468 69.7807
1395164 28.6788 34 3.45361 3.64827 1.97615 -11.9468 69.7807
1395175 28.5592 34 3.39175 3.69565 2.06209 -11.9471 69.6466
1395185 28.4695 34 3.34021 3.65775 2.10459 -11.9779 69.4675
1395195 28.4695 34 3.34021 3.65775 2.10459 -11.9779 69.4675
1395205 28.4795 34 3.38144 3.66722 2.08775 -11.9586 69.5282
1395225 28.4396 34 3.34021 3.6767 2.12251 -11.9692 69.4565
1395235 28.4197 34 3.4433 3.64827 2.0807 -11.9394 69.5113
1395255 28.34 34 3.30928 3.68618 2.17671 -11.9732 69.3354
1395265 28.2304 34 3.36082 3.72408 2.21196 -11.9336 69.3153
1395276 28.2304 34 3.36082 3.72408 2.21196 -11.9336 69.3153
1395286 28.1208 34 3.30928 3.72408 2.27537 -11.9488 69.1541
1395296 28.1208 34 3.30928 3.72408 2.27537 -11.9488 69.1541
1395305 28.0012 34 3.24742 3.69565 2.33778 -11.9788 68.9443
1395315 27.9215 34 3.30928 3.79041 2.37597 -11.9141 69.0211
1395327 27.9215 34 3.30928 3.79041 2.37597 -11.9141 69.0211
1395336 27.9115 34 3.26804 3.69565 2.36519 -11.9668 68.8752
1395345 27.9513 34 3.30928 3.75251 2.35168 -11.9302 69.0131
1395366 27.9613 34 3.30928 3.78094 2.35706 -11.9196 69.0515
1395376 27.9613 34 3.30928 3.78094 2.35706 -11.9196 69.0515
1395389 27.9314 34 3.28866 3.79041 2.3802 -11.9226 69.0105
1395397 27.9314 34 3.34021 3.80936 2.36597 -11.8951 69.081
1395408 27.9314 34 3.34021 3.80936 2.36597 -11.8951 69.081
1395417 27.9513 34 3.37113 3.88517 2.37066 -11.8546 69.2076
1395429 27.9513 34 3.37113 3.97993 2.4016 -11.8178 69.3024
1395437 27.9513 34 3.37113 3.97993 2.4016 -11.8178 69.3024
1395448 27.9115 34 3.45361 3.99889 2.39093 -11.7768 69.364
1395457 27.9115 34 3.45361 3.99889 2.39093 -11.7768 69.364
1395467 27.7521 34 3.39175 4.00836 2.48168 -11.7896 69.1522
1395477 27.6723 34 3.50515 4.07469 2.48989 -11.7164 69.2522
1395487 27.6723 34 3.50515 4.07469 2.48989 -11.7164 69.2522
1395497 27.6823 34 3.56701 4.1505 2.48603 -11.6639 69.3998
1395507 27.6823 34 3.56701 4.1505 2.48603 -11.6639 69.3998
1395517 27.6823 34 3.56701 4.1505 2.48603 -11.6639 69.3998
1395526 27.6026 34 3.65979 4.37793 2.55439 -11.5375 69.6403
1395547 27.4531 34 3.68041 4.33055 2.5902 -11.5402 69.4641
1395558 27.3036 34 3.73196 4.49164 2.68098 -11.4516 69.5272
1395568 27.3036 34 3.73196 4.49164 2.68098 -11.4516 69.5272
1395578 27.2638 34 3.76289 4.60535 2.72098 -11.3947 69.632
1395588 27.204 34 3.89691 4.65273 2.70661 -11.3229 69.7536
1395598 27.204 34 3.89691 4.65273 2.70661 -11.3229 69.7536
1395608 27.1043 34 3.96907 4.79487 2.76287 -11.2369 69.8683
1395618 27.1043 34 3.96907 4.79487 2.76287 -11.2369 69.8683
1395632 26.905 34 4.02062 4.90858 2.85781 -11.1641 69.8342
1395638 26.8751 34 4.1134 5.04125 2.87474 -11.0782 70.0298
1395658 26.8453 34 4.12371 5.07915 2.89451 -11.0586 70.0481
1395668 26.7057 34 4.26804 5.2592 2.94926 -10.9304 70.233
1395678 26.7057 34 4.26804 5.2592 2.94926 -10.9304 70.233
1395693 26.5064 34 4.42268 5.37291 3.00268 -10.8199 70.302
1395699 26.5064 34 4.42268 5.37291 3.00268 -10.8199 70.302
1395710 26.357 34 4.53608 5.43924 3.03779 -10.7451 70.3323
1395720 26.1975 34 4.62887 5.61929 3.12045 -10.6357 70.4457
1395729 26.1975 34 4.62887 5.61929 3.12045 -10.6357 70.4457
1395742 26.0182 34 4.74227 5.80881 3.20549 -10.5146 70.5693
1395750 25.789 34 4.90722 5.98885 3.28664 -10.3755 70.6851
1395759 25.789 34 4.90722 5.98885 3.28664 -10.3755 70.6851
1395769 25.4701 34 5.17526 6.18785 3.36794 -10.1874 70.8332
1395789 25.1712 33.8541 5.42268 6.38685 3.40479 -9.99842 70.8348
1395800 25.0416 33.5721 5.91753 6.82274 3.30594 -9.64349 71.354
1395819 24.8822 33.3289 6.42268 7.3155 3.24519 -9.27173 71.9493
1395830 24.4736 32.901 7.26804 8.0262 3.16008 -8.68606 72.6689
1395842 24.4736 32.901 7.26804 8.0262 3.16008 -8.68606 72.6689
1395851 23.9056 32.3078 8.46392 9.06856 3.05332 -7.86775 73.7459
1395861 23.9056 32.3078 8.46392 9.06856 3.05332 -7.86775 73.7459
1395871 22.939 31.2185 10.299 10.6132 2.8619 -6.64292 75.0697
1395881 21.6336 29.6138 12.701 12.8116 2.63508 -5.02895 76.7601
1395891 21.6336 29.6138 12.701 12.8116 2.63508 -5.02895 76.7601
1395900 20.2087 28.0189 15.2268 15.2754 2.49549 -3.37713 78.7297
1395911 20.2087 28.0189 15.2268 15.2754 2.49549 -3.37713 78.7297
1395920 18.7737 26.5698 16.8041 16.9621 2.51361 -2.19517 79.1097
1395930 17.4484 25.2374 17.2953 17.4774 2.57269 -1.5324 77.4585
1395941 17.4484 25.2374 17.2953 17.4774 2.57269 -1.5324 77.4585
1395951 16.3853 23.8564 17.315 17.4189 2.52582 -1.10192 74.9756
1395960 15.5336 22.7088 17.4134 17.4481 2.46564 -0.693698 73.104
1395980 14.796 21.532 17.7284 17.8573 2.38652 -0.154823 71.9137
1395991 14.796 21.532 17.7284 17.8573 2.38652 -0.154823 71.9137
1396001 13.953 20.4525 18.2206 18.4126 2.35488 0.470386 71.0387
1396011 13.2417 19.266 19.077 19.3771 2.22808 1.25694 70.9618
1396021 13.2417 19.266 19.077 19.3771 2.22808 1.25694 70.9618
1396031 12.5919 18.2254 20.0712 20.4585 2.10965 2.04192 71.347
1396041 12.1178 17.4474 21.1934 21.5788 1.97512 2.73864 72.3373
1396051 12.1178 17.4474 21.1934 21.5788 1.97512 2.73864 72.3373
1396062 11.8368 16.7981 22.04 22.3874 1.81651 3.24227 73.0622
1396072 11.8368 16.7981 22.04 22.3874 1.81651 3.24227 73.0622
1396082 11.5646 16.3483 22.6503 22.9914 1.74185 3.61545 73.5545
1396091 11.4329 16.0913 23.1523 23.4688 1.67741 3.86343 74.1452
1396102 11.4329 16.0913 23.1523 23.4688 1.67741 3.86343 74.1452
1396112 11.266 15.7516 23.3885 23.8195 1.65595 4.0802 74.2256
1396122 11.1519 15.4212 23.546 24.141 1.63757 4.26487 74.26
1396132 11.1519 15.4212 23.546 24.141 1.63757 4.26487 74.26
1396142 10.9587 15.0815 23.7429 24.3845 1.60598 4.46702 74.1676
1396152 10.9587 15.0815 23.7429 24.3845 1.60598 4.46702 74.1676
1396162 10.6689 14.54 23.9792 24.6281 1.53082 4.75473 73.8161
1396172 10.344 14.0626 24.176 24.9496 1.52728 5.04247 73.5322
1396191 10.0191 13.5394 24.4615 25.2516 1.47069 5.3543 73.2716
1396202 9.80837 13.0346 24.7666 25.6802 1.41212 5.64962 73.2898
1396222 9.5625 12.5297 25.1702 26.1479 1.34341 5.97176 73.4103
1396232 9.5625 12.5297 25.1702 26.1479 1.34341 5.97176 73.4103
1396242 9.34298 11.9881 25.436 26.5862 1.29352 6.27602 73.3534
1396251 9.10589 11.4374 25.7609 27.2 1.28246 6.61547 73.5041
1396262 9.10589 11.4374 25.7609 27.2 1.28246 6.61547 73.5041
1396275 8.93027 10.9233 26.1644 27.6774 1.18935 6.91798 73.6954
1396282 8.61415 10.3634 26.568 28.0768 1.10632 7.26694 73.6224
1396294 8.61415 10.3634 26.568 28.0768 1.10632 7.26694 73.6224
1396301 8.42975 9.99622 26.883 28.3593 1.03258 7.49638 73.6683
1396313 8.42975 9.99622 26.883 28.3593 1.03258 7.49638 73.6683
1396333 8.28048 9.71166 27.0701 28.486 0.967762 7.66108 73.5482
1396334 8.16632 9.61069 27.2571 28.4567 0.899434 7.74317 73.4908
1396354 8.11364 9.50972 27.4638 28.486 0.82171 7.81394 73.5731
1396363 8.07851 9.43629 27.4933 28.6516 0.853929 7.86661 73.6597
1396373 8.07851 9.43629 27.4933 28.6516 0.853929 7.86661 73.6597
1396383 8.00826 9.36285 27.5918 28.6321 0.813541 7.9189 73.595
1396393 8.00826 9.36285 27.5918 28.6321 0.813541 7.9189 73.595
1396403 7.97314 9.27106 27.7591 28.7003 0.759488 7.981 73.7036
1396413 7.93802 9.27106 27.9757 28.71 0.699437 8.01342 73.8948
1396434 7.89411 9.15173 28.1332 28.9146 0.687996 8.09826 74.0936
1396443 7.81508 9.04158 28.2218 28.9049 0.64528 8.16468 73.9833
1396454 7.81508 9.04158 28.2218 28.9049 0.64528 8.16468 73.9833
1396464 7.74483 9.02322 28.2611 28.8854 0.643525 8.19429 73.9146
1396477 7.74483 9.02322 28.2611 28.8854 0.643525 8.19429 73.9146
1396484 7.85021 9.0324 28.3301 28.7977 0.557303 8.15666 74.0104
1396494 7.90289 9.06911 28.3301 28.8269 0.56088 8.13143 74.129
1396504 7.90289 9.06911 28.3301 28.8269 0.56088 8.13143 74.129
1396514 7.82386 9.07829 28.3793 28.7782 0.558129 8.15329 74.0596
1396524 7.8063 8.96814 28.3104 28.7782 0.551596 8.18694 73.863
1396534 7.8063 8.96814 28.3104 28.7782 0.551596 8.18694 73.863
1396546 7.77118 8.89471 28.3399 28.6905 0.500083 8.21572 73.6963
1396554 7.77118 8.89471 28.3399 28.6905 0.500083 8.21572 73.6963
1396566 7.72727 8.90389 28.3301 28.7003 0.524986 8.22665 73.6615
1396575 7.63946 8.88553 28.4679 28.7295 0.511283 8.27545 73.7224
1396586 7.63946 8.88553 28.4679 28.7295 0.511283 8.27545 73.7224
1396594 7.58678 8.77538 28.7238 28.8367 0.44015 8.35975 73.9226
1396606 7.58678 8.77538 28.7238 28.8367 0.44015 8.35975 73.9226
1396614 7.49019 8.59179 28.8715 28.9633 0.403655 8.47294 73.9168
1396624 7.38481 8.40821 29.1471 29.2361 0.374925 8.61263 74.1762
1396634 7.38481 8.40821 29.1471 29.2361 0.374925 8.61263 74.1762
1396644 7.1126 8.08693 29.531 29.5771 0.343314 8.86353 74.3076
1396655 6.77014 7.7932 30.0921 30.0057 0.313655 9.14822 74.6611
1396674 6.4189 7.31587 30.535 30.5123 0.292268 9.49008 74.7821
1396685 6.4189 7.31587 30.535 30.5123 0.292268 9.49008 74.7821
1396696 5.92717 6.78348 31.0174 30.9799 0.274026 9.89587 74.708
1396706 5.453 6.26944 31.5588 31.3014 0.187412 10.2848 74.5826
1396715 5.453 6.26944 31.5588 31.3014 0.187412 10.2848 74.5826
1396726 5.11054 5.77376 31.8639 31.3501 0.0504196 10.5933 74.0984
1396736 4.84711 5.45248 32.1986 31.5352 -0.0195831 10.8264 74.0334
1396745 4.84711 5.45248 32.1986 31.5352 -0.0195831 10.8264 74.0334
1396755 4.68905 5.3148 32.4152 31.5158 -0.0925332 10.9408 73.9348
1396765 4.68905 5.3148 32.4152 31.5158 -0.0925332 10.9408 73.9348
1396775 4.60124 5.17711 32.681 31.5352 -0.192527 11.0355 73.9945
1396785 4.62758 5.11285 32.9369 31.6034 -0.285465 11.0661 74.2808
1396795 4.62758 5.11285 32.9369 31.6034 -0.285465 11.0661 74.2808
1396806 4.59246 5.07613 33.183 31.6814 -0.341436 11.1083 74.5329
1396815 4.63636 5.0027 33.3602 31.6911 -0.436035 11.1284 74.6903
1396825 4.63636 5.0027 33.3602 31.6911 -0.436035 11.1284 74.6903
1396836 4.79442 5.10367 33.3503 31.7301 -0.43712 11.0396 74.9785
1396845 4.79442 5.10367 33.3503 31.7301 -0.43712 11.0396 74.9785
1396855 4.81198 5.05778 33.4094 31.7106 -0.484394 11.0516 74.9897
1396865 4.85589 5.12203 33.4488 31.6229 -0.519554 11.0115 75.0496
1396876 4.85589 5.12203 33.4488 31.6229 -0.519554 11.0115 75.0496
1396888 4.92614 5.25972 33.3602 31.5645 -0.486654 10.9317 75.1105
1396896 4.91736 5.16793 33.3995 31.4865 -0.554354 10.9643 74.9714
1396907 4.91736 5.16793 33.3995 31.4865 -0.554354 10.9643 74.9714
1396917 4.90857 5.13121 33.3995 31.3989 -0.593963 10.9754 74.8382
1396937 4.89979 5.03024 33.4389 31.3501 -0.655228 11.0131 74.7191
1396948 4.89101 5.02106 33.3897 31.2235 -0.683042 11.0099 74.5253
1396960 4.89101 5.02106 33.3897 31.2235 -0.683042 11.0099 74.5253
1396976 4.89101 5.10367 33.3208 31.1163 -0.668998 10.9716 74.4318
1396978 4.91736 5.15875 33.3306 31.0481 -0.685348 10.94 74.4549
1396989 4.91736 5.15875 33.3306 31.0481 -0.685348 10.94 74.4549
1396998 5.00517 5.21382 33.1928 31.0189 -0.660093 10.8811 74.4307
1397010 4.97004 5.30562 33.0747 30.941 -0.6051 10.8505 74.2913
1397019 4.97004 5.30562 33.0747 30.941 -0.6051 10.8505 74.2913
1397030 5.1281 5.45248 33.055 30.8143 -0.643486 10.7365 74.4499
1397039 5.1281 5.45248 33.055 30.8143 -0.643486 10.7365 74.4499
1397049 5.13688 5.56263 33.0353 30.7266 -0.632182 10.6892 74.4615
1397059 5.27738 5.70032 32.9074 30.7072 -0.595653 10.5849 74.5922
1397070 5.27738 5.70032 32.9074 30.7072 -0.595653 10.5849 74.5922
1397079 5.27738 5.76458 32.8483 30.639 -0.577664 10.5553 74.5292
1397090 5.27738 5.76458 32.8483 30.639 -0.577664 10.5553 74.5292
1397099 5.36519 5.74622 32.7991 30.5513 -0.626746 10.5233 74.4618
1397110 5.42665 5.87473 32.7597 30.561 -0.586487 10.4566 74.6221
1397119 5.42665 5.87473 32.7597 30.561 -0.586487 10.4566 74.6221
1397129 5.4969 5.87473 32.6514 30.4539 -0.610836 10.4194 74.4769
1397139 5.54959 5.92063 32.5431 30.3077 -0.627132 10.37 74.3211
1397149 5.54959 5.92063 32.5431 30.3077 -0.627132 10.37 74.3211
1397159 5.60227 6.0216 32.4742 30.2395 -0.610514 10.309 74.3376
1397169 5.60227 6.0216 32.4742 30.2395 -0.610514 10.309 74.3376
1397179 5.65496 6.10421 32.4152 30.1811 -0.600098 10.2556 74.3554
1397189 5.66374 6.11339 32.3856 30.1324 -0.606908 10.2445 74.2952
1397203 5.66374 6.11339 32.3856 30.1324 -0.606908 10.2445 74.2952
1397210 5.74277 6.15929 32.3463 30.1129 -0.610818 10.1983 74.3612
1397219 5.80424 6.23272 32.297 30.0544 -0.609677 10.1456 74.3884
1397241 5.79545 6.26026 32.3561 30.035 -0.62338 10.1419 74.4468
1397249 5.79545 6.26026 32.3561 30.035 -0.62338 10.1419 74.4468
1397261 5.81302 6.25108 32.3758 29.957 -0.66559 10.1352 74.3969
1397271 5.81302 6.30616 32.4939 29.8986 -0.70533 10.1206 74.5117
1397281 5.81302 6.30616 32.4939 29.8986 -0.70533 10.1206 74.5117
1397289 5.83058 6.36123 32.4349 29.8401 -0.692956 10.0884 74.4668
1397299 5.88326 6.37041 32.3167 29.7524 -0.698693 10.0539 74.3228
1397323 5.98864 6.42549 32.3266 29.6745 -0.744212 9.99533 74.4152
1397331 5.98864 6.42549 32.3266 29.6745 -0.744212 9.99533 74.4152
1397343 6.03254 6.51728 32.1789 29.5089 -0.735915 9.92852 74.2376
1397350 6.12913 6.60907 32.1494 29.4504 -0.746262 9.85934 74.338
1397363 6.12913 6.60907 32.1494 29.4504 -0.746262 9.85934 74.338
1397370 6.21694 6.63661 31.9722 29.314 -0.754824 9.79893 74.1398
1397381 6.30475 6.73758 31.982 29.2556 -0.771955 9.7325 74.28
1397391 6.30475 6.73758 31.982 29.2556 -0.771955 9.7325 74.28
1397401 6.31353 6.70086 31.923 29.1971 -0.788608 9.73347 74.1345
1397410 6.31353 6.70086 31.923 29.1971 -0.788608 9.73347 74.1345
1397420 6.3311 6.79266 31.8246 29.1387 -0.750574 9.68581 74.087
1397433 6.41012 6.7743 31.8246 29.0705 -0.806527 9.6607 74.0795
1397442 6.41012 6.7743 31.8246 29.0705 -0.806527 9.6607 74.0795
1397451 6.48915 6.87527 31.7458 28.9731 -0.805384 9.58808 74.0833
1397471 6.55062 6.97624 31.5981 28.8756 -0.775968 9.51618 74.0007
1397483 6.66477 6.9946 31.5096 28.8659 -0.781327 9.46502 74.0348
1397491 6.66477 6.9946 31.5096 28.8659 -0.781327 9.46502 74.0348
1397503 6.77014 7.09557 31.4702 28.7587 -0.805055 9.38594 74.0946
1397513 6.82283 7.24244 31.3422 28.71 -0.746307 9.3069 74.1175
1397520 6.82283 7.24244 31.3422 28.71 -0.746307 9.3069 74.1175
1397532 6.8843 7.27916 31.1453 28.6321 -0.716245 9.25347 73.9409
1397543 6.96333 7.39849 30.9977 28.486 -0.703008 9.16546 73.8455
1397552 6.96333 7.39849 30.9977 28.486 -0.703008 9.16546 73.8455
1397563 7.0687 7.57289 30.7516 28.2424 -0.680713 9.03485 73.6356
1397572 7.0687 7.57289 30.7516 28.2424 -0.680713 9.03485 73.6356
1397583 7.17407 7.86663 30.5153 28.0183 -0.613138 8.86715 73.5744
1397591 7.28822 8.10529 30.2102 27.9014 -0.507346 8.71737 73.5051
1397605 7.28822 8.10529 30.2102 27.9014 -0.507346 8.71737 73.5051
1397613 7.54287 8.36231 29.7574 27.5605 -0.470303 8.48353 73.223
1397623 7.9468 8.75702 29.0585 26.9662 -0.440703 8.10979 72.7285
1397633 7.9468 8.75702 29.0585 26.9662 -0.440703 8.10979 72.7285
1397643 8.44731 9.33531 28.3005 26.3427 -0.369285 7.63414 72.4258
1397653 8.44731 9.33531 28.3005 26.3427 -0.369285 7.63414 72.4258
1397663 9.11467 10.1706 27.3752 25.4074 -0.316302 6.97204 72.068
1397673 9.9313 11.0518 26.4499 24.4819 -0.294596 6.24669 71.915
1397683 9.9313 11.0518 26.4499 24.4819 -0.294596 6.24669 71.915
1397693 10.827 12.1075 25.5246 23.5175 -0.252387 5.44088 71.9765
1397703 11.7226 13.2273 24.5993 22.4751 -0.215045 4.6077 72.0243
1397713 11.7226 13.2273 24.5993 22.4751 -0.215045 4.6077 72.0243
1397723 12.5832 14.2279 23.6346 21.5106 -0.166534 3.82195 71.9563
1397735 12.5832 14.2279 23.6346 21.5106 -0.166534 3.82195 71.9563
1397744 13.3822 15.2376 22.6404 20.6046 -0.0627875 3.05265 71.8648
1397755 14.1901 16.1922 21.8135 19.9908 0.0621408 2.37345 72.1867
1397764 14.1901 16.1922 21.8135 19.9908 0.0621408 2.37345 72.1867
1397776 14.8926 17.0097 21.0654 19.2602 0.107959 1.74932 72.2279
1397784 15.4721 17.778 20.3862 18.5685 0.169027 1.18508 72.2048
1397795 15.4721 17.778 20.3862 18.5685 0.169027 1.18508 72.2048
1397805 15.9375 18.4491 19.8645 18.0229 0.231755 0.726576 72.274
1397814 15.9375 18.4491 19.8645 18.0229 0.231755 0.726576 72.274
1397826 16.2097 18.9743 19.4215 17.5163 0.297877 0.36478 72.1218
1397838 16.6312 19.4994 19.018 17.0195 0.301298 -0.01937 72.1681
1397855 17 19.9954 18.4372 16.6115 0.405908 -0.405327 72.0441
1397865 17.4285 20.5109 17.8859 16.1756 0.476396 -0.807873 72.0009
1397876 17.4285 20.5109 17.8859 16.1756 0.476396 -0.807873 72.0009
1397886 17.9367 21.0555 17.3741 15.5596 0.453377 -1.26348 71.9259
1397895 17.9367 21.0555 17.3741 15.5596 0.453377 -1.26348 71.9259
1397905 18.4549 21.4834 16.7423 14.9816 0.442314 -1.7194 71.6621
1397916 19.0926 22.028 16.1134 14.4699 0.450435 -2.20434 71.7039
1397925 19.0926 22.028 16.1134 14.4699 0.450435 -2.20434 71.7039
1397936 19.7204 22.6116 15.4124 13.9582 0.501025 -2.71149 71.7025
1397948 20.2884 23.1076 14.7732 13.3517 0.488561 -3.20278 71.5209
1397955 20.2884 23.1076 14.7732 13.3517 0.488561 -3.20278 71.5209
1397967 20.7866 23.6133 14.0928 12.9822 0.600219 -3.63589 71.4749
1397976 20.7866 23.6133 14.0928 12.9822 0.600219 -3.63589 71.4749
1397987 21.3646 24.0412 13.5464 12.5084 0.573245 -4.0619 71.4605
1397997 21.9525 24.5275 12.866 12.063 0.620353 -4.52696 71.4089
1398008 21.9525 24.5275 12.866 12.063 0.620353 -4.52696 71.4089
1398018 22.6202 25.1013 12.1856 11.5702 0.652575 -5.02935 71.4772
1398028 23.3077 25.6556 11.433 11.0775 0.696883 -5.55159 71.4738
1398038 23.3077 25.6556 11.433 11.0775 0.696883 -5.55159 71.4738
1398050 24.1249 26.2586 10.7526 10.49 0.653085 -6.10272 71.626
1398059 24.7227 26.9102 10.1546 10.0067 0.710183 -6.57537 71.7943
1398070 24.7227 26.9102 10.1546 10.0067 0.710183 -6.57537 71.7943
1398079 25.2509 27.4743 9.61856 9.56132 0.753126 -6.99783 71.905
1398089 25.2509 27.4743 9.61856 9.56132 0.753126 -6.99783 71.905
1398100 25.6893 27.873 9.14433 9.14437 0.759804 -7.36391 71.851
1398109 25.9982 28.2426 8.72165 8.699 0.775057 -7.70711 71.6615
1398120 25.9982 28.2426 8.72165 8.699 0.775057 -7.70711 71.6615
1398129 26.2075 28.5149 8.43299 8.4621 0.815612 -7.92278 71.6175
1398139 26.3769 28.8164 8.2268 8.15886 0.828287 -8.13248 71.5789
1398152 26.3769 28.8164 8.2268 8.15886 0.828287 -8.13248 71.5789
1398160 26.636 29.04 8.01031 8.01672 0.840434 -8.29442 71.7031
1398170 26.636 29.04 8.01031 8.01672 0.840434 -8.29442 71.7031
1398180 26.8054 29.2929 7.84536 7.68506 0.81225 -8.49545 71.6287
1398190 26.905 29.468 7.65979 7.5524 0.857556 -8.62486 71.5852
1398200 26.905 29.468 7.65979 7.5524 0.857556 -8.62486 71.5852
1398212 26.8652 29.5944 7.60825 7.3534 0.866118 -8.71546 71.4212
1398220 26.6758 29.7111 7.5567 7.32497 0.983435 -8.73567 71.2686
1398231 26.6758 29.7111 7.5567 7.32497 0.983435 -8.73567 71.2686
1398251 26.6061 29.7305 7.61856 7.28707 0.980094 -8.72327 71.2423
1398262 26.6061 29.7305 7.61856 7.28707 0.980094 -8.72327 71.2423
1398271 26.2872 29.6722 7.95876 7.3913 0.987777 -8.54221 71.3095
1398293 26.0182 29.5749 8.21649 7.54292 1.0102 -8.37399 71.3525
1398302 25.7591 29.468 8.49485 7.72297 1.02772 -8.19007 71.4449
1398323 25.5797 29.3902 8.89691 7.88406 0.974756 -7.98365 71.7508
1398334 25.4004 29.2929 9.25773 8.09253 0.946423 -7.77509 72.0435
1398354 25.3007 29.3804 9.6701 8.29153 0.929603 -7.58221 72.6428
1398375 25.1911 29.4291 9.80412 8.35786 0.958925 -7.51383 72.7821
1398384 25.1712 29.643 9.7732 8.40524 1.06308 -7.52866 72.9926
1398404 25.221 29.75 9.78351 8.41472 1.07976 -7.53857 73.1692
1398414 25.2808 29.8959 9.50515 8.33891 1.18078 -7.6689 73.0207
1398425 25.2808 29.8959 9.50515 8.33891 1.18078 -7.6689 73.0207
1398435 25.4203 29.964 9.35052 8.14939 1.14653 -7.79683 72.8841
1398455 25.4502 30.032 9.13402 7.95987 1.17384 -7.93408 72.5761
1398466 25.5 30.0418 8.94845 7.80825 1.17622 -8.04686 72.2985
1398476 25.5 30.0418 8.94845 7.80825 1.17622 -8.04686 72.2985
1398486 25.4601 30.0709 8.73196 7.66611 1.2321 -8.16074 71.9291
1398496 25.5399 30.0709 8.62887 7.52397 1.19356 -8.24748 71.7636
1398506 25.5399 30.0709 8.62887 7.52397 1.19356 -8.24748 71.7636
1398516 25.5399 30.0418 8.52577 7.41026 1.18376 -8.3152 71.5177
1398535 25.5399 29.9348 8.4433 7.38183 1.16881 -8.34144 71.2998
1398545 25.5797 29.8667 8.38144 7.41026 1.16363 -8.34976 71.2381
1398556 25.5797 29.8667 8.38144 7.41026 1.16363 -8.34976 71.2381
1398567 25.5996 29.964 8.39175 7.34392 1.16287 -8.37903 71.2993
1398576 25.7093 30.0807 8.37113 7.3155 1.15974 -8.41604 71.4766
1398595 25.8388 30.1876 8.3299 7.29654 1.15679 -8.45744 71.6529
1398617 25.9385 30.353 8.3299 7.28707 1.17222 -8.48464 71.9084
1398627 26.068 30.4016 8.2268 7.29654 1.18183 -8.53131 71.993
1398637 26.068 30.4016 8.2268 7.29654 1.18183 -8.53131 71.993
1398647 26.0879 30.5767 8.18557 7.3155 1.2536 -8.55605 72.1656
1398656 26.1676 30.6253 8.1134 7.23021 1.23878 -8.61893 72.1365
1398668 26.1676 30.6253 8.1134 7.23021 1.23878 -8.61893 72.1365
1398677 26.2075 30.7225 8.03093 7.20178 1.27694 -8.66735 72.1628
1398687 26.2075 30.7225 8.03093 7.20178 1.27694 -8.66735 72.1628
1398697 26.1676 30.742 7.96907 7.25864 1.33908 -8.6672 72.1373
1398707 26.2474 30.8976 7.91753 7.17336 1.35185 -8.73266 72.2358
1398727 26.1776 30.9559 7.87629 7.1544 1.40528 -8.75147 72.1643
1398737 26.2374 30.9657 7.79381 7.13545 1.41057 -8.79088 72.1323
1398748 26.2374 30.9657 7.79381 7.13545 1.41057 -8.79088 72.1323
1398758 26.2175 30.9754 7.74227 7.05964 1.41514 -8.83209 71.9948
1398768 26.2175 30.9754 7.74227 7.05964 1.41514 -8.83209 71.9948
1398778 26.1178 30.9657 7.72165 7.05017 1.45305 -8.83268 71.8553
1398788 26.1776 30.8976 7.64948 7.04069 1.43217 -8.85908 71.7654
1398798 26.1776 30.8976 7.64948 7.04069 1.43217 -8.85908 71.7654
1398808 26.1776 30.8587 7.64948 7.12598 1.44739 -8.82742 71.8118
1398818 26.1377 30.9365 7.62887 7.00279 1.45479 -8.87847 71.7059
1398828 26.1377 30.9365 7.62887 7.00279 1.45479 -8.87847 71.7059
1398838 26.1975 31.024 7.54639 7.03122 1.50117 -8.90901 71.7992
1398848 26.1975 31.024 7.54639 7.03122 1.50117 -8.90901 71.7992
1398858 26.2872 31.1407 7.51546 6.93645 1.48668 -8.9683 71.8799
1398868 26.3769 31.2477 7.49485 6.96488 1.50547 -8.98216 72.0843
1398890 26.5862 31.3352 7.38144 6.90803 1.48027 -9.06344 72.2109
1398899 26.5862 31.3352 7.38144 6.90803 1.48027 -9.06344 72.2109
1398909 26.5662 31.4325 7.25773 6.88907 1.55852 -9.11739 72.1455
1398918 26.7556 31.5686 7.18557 6.8796 1.55655 -9.17104 72.3894
1398929 26.7556 31.5686 7.18557 6.8796 1.55655 -9.17104 72.3894
1398938 26.8652 31.6659 6.97938 6.82274 1.6051 -9.27561 72.3332
1398948 26.9449 31.8021 6.96907 6.76589 1.60522 -9.31515 72.4819
1398958 26.9449 31.8021 6.96907 6.76589 1.60522 -9.31515 72.4819
1398968 26.9549 31.9382 6.82474 6.70903 1.68019 -9.39416 72.4269
1398978 26.9549 31.9382 6.82474 6.70903 1.68019 -9.39416 72.4269
1398989 26.9449 31.9577 6.71134 6.61427 1.70144 -9.4652 72.2282
1398998 26.8951 31.9285 6.62887 6.57637 1.72879 -9.50002 72.0288
1399009 26.8951 31.9285 6.62887 6.57637 1.72879 -9.50002 72.0288
1399018 26.8353 31.8604 6.54639 6.46265 1.72282 -9.55725 71.7048
1399029 26.8154 31.7826 6.50515 6.48161 1.72652 -9.55746 71.5847
1399049 26.7954 31.7826 6.39175 6.46265 1.77023 -9.60144 71.4324
1399069 26.6858 31.7145 6.4433 6.37737 1.74204 -9.59963 71.221
1399078 26.6659 31.7632 6.40206 6.46265 1.80866 -9.5866 71.2938
1399100 26.6559 31.7729 6.41237 6.4437 1.80554 -9.58957 71.2849
1399110 26.626 31.8507 6.39175 6.50056 1.86827 -9.58071 71.369
1399119 26.626 31.8507 6.39175 6.50056 1.86827 -9.58071 71.369
1399130 26.6958 31.8701 6.46392 6.49108 1.81818 -9.56593 71.5209
1399140 26.6958 31.8701 6.46392 6.49108 1.81818 -9.56593 71.5209
1399150 26.6958 31.8701 6.42268 6.51951 1.84286 -9.57033 71.5081
1399159 26.7855 31.9479 6.42268 6.52899 1.83747 -9.57977 71.6851
1399171 26.7855 31.9479 6.42268 6.52899 1.83747 -9.57977 71.6851
1399179 26.8453 31.9966 6.46392 6.58584 1.83375 -9.5544 71.8916
1399191 26.8552 32.0063 6.61856 6.62375 1.78779 -9.49032 72.1038
1399200 26.8552 32.0063 6.61856 6.62375 1.78779 -9.49032 72.1038
1399211 26.8652 32.1035 6.56701 6.67113 1.84971 -9.49991 72.2069
1399219 26.8652 32.1035 6.56701 6.67113 1.84971 -9.49991 72.2069
1399231 26.7755 32.123 6.65979 6.77536 1.88815 -9.42784 72.3336
1399239 26.7655 32.0355 6.58763 6.84169 1.91194 -9.42229 72.2303
1399260 26.6858 31.9868 6.63918 6.82274 1.90082 -9.40133 72.1346
1399279 26.6659 31.9577 6.6701 6.83222 1.89041 -9.38385 72.1259
1399289 26.5563 31.8118 6.72165 6.89855 1.88656 -9.32399 71.9883
1399310 26.4267 31.7729 6.75258 6.92698 1.92008 -9.2906 71.8792
1399319 26.3769 31.6562 6.73196 6.9175 1.90591 -9.28754 71.6825
1399330 26.3769 31.6562 6.73196 6.9175 1.90591 -9.28754 71.6825
1399340 26.1876 31.5784 6.85567 6.95541 1.9177 -9.21138 71.577
1399350 26.1876 31.5784 6.85567 6.95541 1.9177 -9.21138 71.577
1399359 26.0381 31.3741 6.92783 7.05964 1.91452 -9.12289 71.3997
1399371 25.8986 31.1796 7.07217 7.21126 1.89883 -8.99534 71.3616
1399379 25.8986 31.1796 7.07217 7.21126 1.89883 -8.99534 71.3616
1399390 25.6893 30.9073 7.2268 7.33445 1.87106 -8.86101 71.1579
1399400 25.4601 30.7712 7.45361 7.56187 1.90159 -8.67741 71.2468
1399421 25.4004 30.6545 7.81443 7.95987 1.8793 -8.41174 71.8291
1399441 25.1811 30.4502 8.12371 8.25362 1.87443 -8.17693 72.0087
1399451 24.8822 30.2849 8.65979 8.72742 1.88492 -7.81067 72.5543
1399460 24.8822 30.2849 8.65979 8.72742 1.88492 -7.81067 72.5543
1399471 24.5434 29.9056 9.21649 9.33389 1.8766 -7.37649 72.9994
1399480 24.2245 29.4777 9.87629 9.97826 1.82008 -6.90235 73.5567
1399491 24.2245 29.4777 9.87629 9.97826 1.82008 -6.90235 73.5567
1399500 23.7263 28.8553 10.5773 10.7269 1.78605 -6.34981 73.8857
1399515 23.7263 28.8553 10.5773 10.7269 1.78605 -6.34981 73.8857
1399524 23.0785 28.1648 11.2062 11.5229 1.82598 -5.78208 73.9724
1399533 22.371 27.2408 12.0206 12.3662 1.76199 -5.11327 73.9987
1399542 22.371 27.2408 12.0206 12.3662 1.76199 -5.11327 73.9987
1399552 21.4642 26.2975 12.7732 13.2854 1.81029 -4.40999 73.8203
1399562 20.4678 25.004 13.5876 14.2804 1.78246 -3.60045 73.3398
1399572 20.4678 25.004 13.5876 14.2804 1.78246 -3.60045 73.3398
1399582 19.3816 23.7105 14.3918 15.3038 1.80009 -2.76075 72.7877
1399592 19.3816 23.7105 14.3918 15.3038 1.80009 -2.76075 72.7877
1399602 18.1758 22.2809 15.5979 16.5167 1.73065 -1.72425 72.5714
1399612 17.0399 20.7637 16.9278 17.8865 1.61206 -0.617454 72.618
1399622 17.0399 20.7637 16.9278 17.8865 1.61206 -0.617454 72.618
1399631 16.1131 19.266 18.2108 19.4745 1.51121 0.473444 73.0644
1399641 15.2965 18.3518 19.1951 20.7117 1.55392 1.2763 73.5552
1399662 14.7696 17.6516 19.8251 21.3937 1.51091 1.79201 73.6401
1399682 14.2515 16.9908 20.1795 21.9003 1.52071 2.21708 73.3222
1399692 13.6896 16.4217 20.6028 22.5043 1.58214 2.66241 73.2184
1399702 13.6896 16.4217 20.6028 22.5043 1.58214 2.66241 73.2184
1399712 13.233 15.8159 21.0162 23.1473 1.6097 3.09675 73.2123
1399723 12.75 15.3202 21.1934 23.7708 1.76203 3.46973 73.0344
1399733 12.75 15.3202 21.1934 23.7708 1.76203 3.46973 73.0344
1399743 12.2583 14.7786 21.6364 24.3553 1.79358 3.8933 73.0285
1399753 12.2583 14.7786 21.6364 24.3553 1.79358 3.8933 73.0285
1399763 11.7929 14.2187 22.0498 24.9691 1.82974 4.31477 73.0304
1399773 11.3187 13.8423 22.5026 25.5633 1.90652 4.6919 73.227
1399783 11.3187 13.8423 22.5026 25.5633 1.90652 4.6919 73.227
1399793 11.0201 13.3925 22.916 26.0309 1.87 5.01657 73.3597
1399803 10.5811 12.9887 23.2901 26.557 1.93228 5.3688 73.4169
1399813 10.5811 12.9887 23.2901 26.557 1.93228 5.3688 73.4169
1399826 10.2211 12.6123 23.861 27.1026 1.9082 5.71776 73.797
1399847 9.82593 12.1258 24.2154 27.6871 1.95371 6.08308 73.8542
1399854 9.41322 11.6393 24.6288 28.4275 2.0324 6.47773 74.1089
1399867 9.41322 11.6393 24.6288 28.4275 2.0324 6.47773 74.1089
1399874 8.96539 11.0702 24.9635 29.0413 2.08756 6.88189 74.0404
1399887 8.47366 10.6388 25.3474 29.5576 2.15331 7.25355 74.0174
1399895 8.47366 10.6388 25.3474 29.5576 2.15331 7.25355 74.0174
1399907 8.19267 10.1798 25.7313 29.996 2.10925 7.56173 74.0998
1399914 8.19267 10.1798 25.7313 29.996 2.10925 7.56173 74.0998
1399925 7.77996 9.72084 26.0463 30.4246 2.13568 7.90237 73.9718
1399935 7.53409 9.38121 26.2727 30.6877 2.11913 8.13091 73.8757
1399944 7.53409 9.38121 26.2727 30.6877 2.11913 8.13091 73.8757
1399954 7.20919 9.05994 26.6074 31.1358 2.15476 8.40551 74.0124
1399966 6.8843 8.68359 27.0504 31.5937 2.13665 8.70672 74.212
1399986 6.55062 8.21544 27.4343 32.0029 2.10012 9.03015 74.2032
1400005 6.17304 7.84827 27.769 32.4802 2.14974 9.33639 74.2705
1400014 5.83936 7.38931 28.3301 33.0258 2.09349 9.67906 74.5845
1400025 5.83936 7.38931 28.3301 33.0258 2.09349 9.67906 74.5845
1400037 5.40031 6.87527 28.8911 33.6493 2.08281 10.0777 74.816
1400046 4.87345 6.27862 29.5211 34 1.96993 10.5197 74.6732
1400055 4.87345 6.27862 29.5211 34 1.96993 10.5197 74.6732
1400067 4.36415 5.59935 30.2299 34 1.68658 10.9713 74.1934
1400076 4.36415 5.59935 30.2299 34 1.68658 10.9713 74.1934
1400087 3.78461 4.70896 30.8107 34 1.40296 11.524 73.3042
1400096 3.34556 3.9838 31.3225 34 1.14096 11.9735 72.6519
1400115 2.94163 3.35961 31.6178 34 0.973365 12.3715 71.9191
1400128 2.70455 2.98326 31.8639 34 0.843722 12.6152 71.5517
1400136 2.70455 2.98326 31.8639 34 0.843722 12.6152 71.5517
1400149 2.62552 2.95572 32.2085 34 0.738877 12.6677 71.7897
1400156 2.62552 2.95572 32.2085 34 0.738877 12.6677 71.7897
1400173 2.39721 2.78132 32.1789 34 0.772583 12.8229 71.3575
1400177 2.28306 2.63445 32.3758 34 0.69277 12.9307 71.2933
1400187 2.28306 2.63445 32.3758 34 0.69277 12.9307 71.2933
1400197 2.13378 2.43251 32.7203 34 0.553539 13.0783 71.2866
1400210 2.11622 2.39579 32.6908 34 0.557834 13.0989 71.2028
1400217 2.11622 2.39579 32.6908 34 0.557834 13.0989 71.2028
1400230 1.9406 2.2581 31.6671 34 0.948405 13.1971 69.8658
1400257 1.83523 2.20302 30.7221 34 1.32552 13.2381 68.7603
1400268 1.83523 2.20302 30.7221 34 1.32552 13.2381 68.7603
1400278 1.84401 2.18467 30.7713 34 1.29701 13.2433 68.7999
1400288 1.69473 2.04698 30.6827 34 1.34074 13.3595 68.4244
1400299 1.69473 2.04698 30.6827 34 1.34074 13.3595 68.4244
1400308 1.65961 1.95518 31.2831 34 1.09308 13.426 68.8979
1400328 1.72986 1.91847 32.7991 34 0.493109 13.4464 70.4474
1400338 1.88791 2.06533 33.9803 34 0.0685036 13.3513 71.9336
1400350 1.88791 2.06533 33.9803 34 0.0685036 13.3513 71.9336
1400360 1.94938 1.9919 34 34 0.014776 13.3565 71.9413
1400369 2.03719 2.16631 34 34 0.0447035 13.2535 72.2035
1400379 2.03719 2.16631 34 34 0.0447035 13.2535 72.2035
1400389 2.08109 2.12959 34 34 0.0167876 13.2507 72.2107
1400399 2.06353 2.12959 34 34 0.0228733 13.2575 72.1931
1400409 2.06353 2.12041 34 34 0.0196993 13.2611 72.1839
1400420 1.9406 2.12959 34 34 0.0655562 13.3057 72.0702
1400429 1.9406 2.12959 34 34 0.0655562 13.3057 72.0702
1400439 1.80888 2.04698 34 34 0.0828356 13.3902 71.8559
1400449 1.69473 1.96436 33.4192 34 0.299108 13.4556 71.0783
1400459 1.69473 1.96436 33.4192 34 0.299108 13.4556 71.0783
1400469 1.60692 1.93683 32.6711 34 0.590616 13.4859 70.2149
1400480 1.60692 1.93683 32.6711 34 0.590616 13.4859 70.2149
1400490 1.51033 1.85421 32.4349 34 0.683749 13.5539 69.7994
1400499 1.47521 1.87257 32.5825 34 0.648805 13.5638 69.9303
1400521 1.48399 1.89093 32.3955 34 0.720742 13.5488 69.7704
1400529 1.47521 1.89093 32.1691 34 0.807735 13.5477 69.5352
1400541 1.47521 1.89093 32.1691 34 0.807735 13.5477 69.5352
1400551 1.47521 1.97354 32.0608 34 0.876689 13.5115 69.5096
1400562 1.47521 1.97354 32.0608 34 0.876689 13.5115 69.5096
1400571 1.36983 1.86339 31.9033 34 0.936645 13.597 69.1365
1400582 1.39618 1.88175 32.0903 34 0.863233 13.5824 69.3683
1400590 1.39618 1.88175 32.0903 34 0.863233 13.5824 69.3683
1400602 1.44886 1.90011 32.3758 34 0.744158 13.5591 69.7248
1400610 1.46643 1.92765 32.9369 34 0.541845 13.5522 70.331
1400631 1.55424 2.00108 33.242 34 0.42544 13.4935 70.7974
1400651 1.54545 1.98272 33.3503 34 0.383383 13.5067 70.8785
1400660 1.59814 1.96436 33.1633 34 0.425211 13.4889 70.7258
1400671 1.59814 1.96436 33.1633 34 0.425211 13.4889 70.7258
1400684 1.60692 1.9919 33.2322 34 0.406879 13.4757 70.831
1400692 1.56302 2.01026 33.2814 34 0.411344 13.4871 70.8547
1400712 1.64205 2.06533 33.3011 34 0.395089 13.4337 71.0085
1400724 1.64205 2.06533 33.3011 34 0.395089 13.4337 71.0085
1400732 1.67717 2.09287 33.3109 34 0.388557 13.4088 71.081
1400745 1.72986 2.08369 33.6948 34 0.230393 13.4001 71.5084
1400752 1.72986 2.08369 33.6948 34 0.230393 13.4001 71.5084
1400764 1.82645 2.16631 33.7539 34 0.204176 13.3305 71.7467
1400772 1.87035 2.26728 33.872 34 0.182232 13.2762 72.0097
1400784 1.87035 2.26728 33.872 34 0.182232 13.2762 72.0097
1400792 1.89669 2.23974 34 34 0.118887 13.2797 72.1364
1400810 1.89669 2.23974 34 34 0.118887 13.2797 72.1364
1400812 1.9845 2.33153 34 34 0.119969 13.2095 72.316
1400826 2.01963 2.29482 34 34 0.095135 13.2101 72.3144
1400833 2.01963 2.29482 34 34 0.095135 13.2101 72.3144
1400845 1.97572 2.24892 34 34 0.0945657 13.2452 72.2246
1400854 2.07231 2.27646 34 34 0.0705421 13.1967 72.3488
1400873 2.09866 2.23056 34 34 0.0455886 13.2044 72.3292
1400886 2.09866 2.23056 34 34 0.0455886 13.2044 72.3292
1400893 2.08988 2.27646 34 34 0.0644594 13.1899 72.3663
1400903 2.15134 2.26728 34 34 0.0400215 13.1695 72.4186
1400913 2.15134 2.26728 34 34 0.0400215 13.1695 72.4186
1400923 2.22159 2.26728 34 34 0.0157595 13.1423 72.4889
1400933 2.2655 2.24892 34 34 -0.00571609 13.1323 72.5144
1400943 2.2655 2.24892 34 34 -0.00571609 13.1323 72.5144
1400953 2.41477 2.29482 34 34 -0.0412449 13.0568 72.7096
1400963 2.41477 2.29482 34 34 -0.0412449 13.0568 72.7096
1400973 2.43233 2.34071 34 34 -0.0314757 13.0324 72.773
1400985 2.57283 2.36825 34 34 -0.0701189 12.9678 72.9411
1400994 2.57283 2.36825 34 34 -0.0701189 12.9678 72.9411
1401008 2.76601 2.39579 34 34 -0.126509 12.8834 73.1618
1401015 3.31921 2.65281 34 34 -0.225222 12.578 73.972
1401034 3.67045 2.87311 33.7145 34 -0.17233 12.3564 74.2581
1401044 3.67045 2.87311 33.7145 34 -0.17233 12.3564 74.2581
1401054 3.96901 2.98326 33.6948 34 -0.227937 12.2059 74.6471
1401067 4.23244 3.13931 33.813 34 -0.301293 12.0585 75.1847
1401075 4.23244 3.13931 33.813 34 -0.301293 12.0585 75.1847
1401085 4.46074 3.21274 33.7933 33.6103 -0.4765 11.9338 75.0771
1401097 4.65393 3.26782 33.7441 33.2499 -0.627477 11.8277 74.9157
1401117 4.90857 3.40551 33.6063 32.792 -0.775422 11.6616 74.7123
1401127 5.04907 3.46058 33.7244 32.3731 -0.985095 11.5782 74.6071
1401147 5.19835 3.51566 34 32.1393 -1.18346 11.5076 74.8533
1401157 5.19835 3.51566 34 32.1393 -1.18346 11.5076 74.8533
1401167 5.25981 3.5432 34 32.0029 -1.24113 11.4697 74.8059
1401176 5.3564 3.51566 34 31.6229 -1.41547 11.4271 74.495
1401186 5.3564 3.51566 34 31.6229 -1.41547 11.4271 74.495
1401196 5.34762 3.4973 34 31.2917 -1.53724 11.4208 74.1366
1401212 5.32128 3.43305 34 30.9799 -1.66418 11.4382 73.7343
1401218 5.32128 3.43305 34 30.9799 -1.66418 11.4382 73.7343
1401228 5.3564 3.40551 34 30.9312 -1.7029 11.4331 73.6931
1401248 5.33006 3.38715 34 30.6292 -1.81116 11.4345 73.3464
1401258 5.39153 3.35961 34 30.259 -1.97674 11.4041 73.0102
1401268 5.39153 3.35961 34 30.259 -1.97674 11.4041 73.0102
1401278 5.43543 3.43305 34 30.0739 -2.0319 11.3525 72.9424
1401288 5.30372 3.34125 34 30.0544 -2.03166 11.4326 72.6994
1401299 5.30372 3.34125 34 30.0544 -2.03166 11.4326 72.6994
1401309 5.172 3.26782 34 30.0739 -2.01005 11.5083 72.5137
1401320 5.172 3.26782 34 30.0739 -2.01005 11.5083 72.5137
1401329 4.92614 3.10259 34 30.1616 -1.96077 11.6635 72.1903
1401339 4.7593 3.10259 34 30.2006 -1.89285 11.7271 72.0625
1401350 4.7593 3.10259 34 30.2006 -1.89285 11.7271 72.0625
1401359 4.67149 3.04752 34 30.1519 -1.90345 11.778 71.8709
1401369 4.62758 3.00162 34 30.1129 -1.92114 11.8097 71.7421
1401379 4.62758 3.00162 34 30.1129 -1.92114 11.8097 71.7421
1401393 4.68905 3.06587 34 30.0837 -1.92776 11.7615 71.8386
1401400 4.68905 3.06587 34 30.0837 -1.92776 11.7615 71.8386
1401412 4.79442 3.08423 34 29.9278 -2.01319 11.7084 71.8064
1401419 4.92614 3.277 34 29.8401 -2.01581 11.5841 72.0432
1401429 4.92614 3.277 34 29.8401 -2.01581 11.5841 72.0432
1401447 5.03151 3.56156 34 29.7914 -1.96125 11.4386 72.3845
1401458 5.20713 3.93791 34 29.4797 -1.99298 11.2223 72.6247
1401470 5.51446 4.60799 34 29.09 -1.98617 10.8522 73.2124
1401480 5.51446 4.60799 34 29.09 -1.98617 10.8522 73.2124
1401490 5.91839 5.47084 33.3602 28.5054 -1.80953 10.3358 73.2548
1401501 6.63843 6.61825 32.3758 27.8722 -1.5386 9.58945 73.5047
1401512 6.63843 6.61825 32.3758 27.8722 -1.5386 9.58945 73.5047
1401520 7.578 7.98596 31.2831 27.2097 -1.23737 8.69513 74.0569
1401531 8.42097 9.17927 30.161 26.7811 -0.879227 7.91668 74.5423
1401540 8.42097 9.17927 30.161 26.7811 -0.879227 7.91668 74.5423
1401551 9.13223 10.0238 28.9207 26.2063 -0.613478 7.26364 74.283
1401561 9.13223 10.0238 28.9207 26.2063 -0.613478 7.26364 74.283
1401572 9.67665 10.8315 27.7394 25.3295 -0.426435 6.63809 73.5771
1401581 10.4494 11.7862 26.4991 24.2579 -0.309777 5.86117 72.9926
1401601 11.3538 12.9887 25.1309 22.7381 -0.262396 4.887 72.2115
1401613 12.4163 14.4573 23.4476 21.0722 -0.117089 3.70751 71.3935
1401632 13.8301 16.0545 21.6856 19.3284 -0.0468045 2.35464 70.8985
1401641 13.8301 16.0545 21.6856 19.3284 -0.0468045 2.35464 70.8985
1401652 15.1296 17.4376 20.0909 17.8963 0.0401676 1.15228 70.5545
1401661 16.2887 18.8284 18.8014 16.8389 0.203919 0.110911 70.7574
1401671 16.2887 18.8284 18.8014 16.8389 0.203919 0.110911 70.7574
1401682 17.4584 20.258 17.6398 15.8724 0.362265 -0.885361 71.2286
1401692 18.5645 20.258 16.2887 14.8868 0.104189 -1.63868 69.998
1401702 18.5645 21.4931 16.2887 14.8868 0.535861 -1.87036 71.2331
1401711 19.6208 22.8352 15.0309 13.9487 0.746226 -2.82975 71.4356
1401723 19.6208 22.8352 15.0309 13.9487 0.746226 -2.82975 71.4356
1401732 20.5873 24.0509 13.8041 12.84 0.876611 -3.78651 71.2824
1401742 21.4543 25.2082 12.7113 11.9872 1.06143 -4.6168 71.361
1401752 21.4543 25.2082 12.7113 11.9872 1.06143 -4.6168 71.361
1401762 22.3212 26.2489 11.8351 11.2386 1.1624 -5.33818 71.6437
1401772 22.3212 26.2489 10.8763 11.2386 1.51727 -5.61404 70.6849
1401782 22.949 27.1047 10.8763 10.5658 1.34454 -6.0028 71.4958
1401792 23.5967 27.7563 10.2577 9.95931 1.34873 -6.52563 71.5701
1401812 23.9953 28.3593 9.59794 9.46656 1.4816 -6.99185 71.4191
1401825 24.3341 28.9331 9.07216 9.14437 1.63364 -7.35496 71.4837
1401833 24.3341 28.9331 9.07216 9.14437 1.63364 -7.35496 71.4837
1401845 24.7925 29.6041 8.58763 8.75585 1.73538 -7.74737 71.7401
1401853 25.211 30.3238 8.07216 8.34838 1.87234 -8.15386 71.9554
1401873 25.7491 31.0143 7.58763 7.98829 1.95808 -8.54048 72.3393
1401886 25.7491 31.0143 7.58763 7.98829 1.95808 -8.54048 72.3393
1401894 26.1975 31.5297 7.13402 7.43868 1.94913 -8.95323 72.3
1401907 26.5961 31.9188 6.7732 7.09755 1.95031 -9.25131 72.3856
1401927 26.7954 32.1522 6.38144 6.69955 1.96965 -9.55175 72.0286
1401936 26.905 32.2203 6 6.43423 2.00862 -9.78718 71.5595
1401948 26.905 32.2203 6 6.43423 2.00862 -9.78718 71.5595
1401954 27.0047 32.2883 5.81443 6.26366 2.00812 -9.92312 71.3711
1401964 27.0047 32.2883 5.81443 6.26366 2.00812 -9.92312 71.3711
1401974 26.8851 32.1133 5.62887 6.14047 2.02768 -10.0107 70.7677
1401984 26.626 31.8118 5.62887 6.06466 2.00394 -9.99787 70.1313
1401994 26.626 31.8118 5.62887 6.06466 2.00394 -9.99787 70.1313
1402004 26.2374 31.5006 5.73196 6.2068 2.0588 -9.85965 69.6767
1402014 25.8787 31.1407 5.95876 6.34894 2.03826 -9.67407 69.3271
1402024 25.8787 31.1407 5.95876 6.34894 2.03826 -9.67407 69.3271
1402037 25.4801 30.635 6.39175 6.6806 1.96704 -9.33176 69.1874
1402044 25.4801 30.635 6.39175 6.6806 1.96704 -9.33176 69.1874
1402056 24.9918 30.1585 6.85567 7.25864 2.01028 -8.88678 69.2646
1402066 24.5234 29.7792 7.63918 8.0641 2.02864 -8.27059 70.0059
1402092 24.085 29.3221 8.65979 9.01171 1.96578 -7.54142 71.0786
1402095 23.7562 29.04 9.8866 10.0446 1.87064 -6.7784 72.7274
1402116 23.5868 28.6608 10.8866 10.9543 1.73499 -6.15615 74.0884
1402125 23.5868 28.6608 10.8866 10.9543 1.73499 -6.15615 74.0884
1402137 23.2679 28.3106 11.567 11.7124 1.73266 -5.67057 74.8579
1402148 22.9191 27.8924 11.9381 12.1577 1.73312 -5.34973 74.9074
1402158 22.9191 27.8924 11.9381 12.1577 1.73312 -5.34973 74.9074
1402167 22.6002 27.591 11.9897 12.2525 1.76451 -5.22931 74.4334
1402178 22.3312 27.2506 11.8763 11.9777 1.70925 -5.25516 73.4357
1402186 22.3312 27.2506 11.8763 11.9777 1.70925 -5.25516 73.4357
1402199 22.102 27.1241 11.5876 11.7219 1.77719 -5.35943 72.5356
1402219 21.9426 27.0172 11.4021 11.447 1.78237 -5.45419 71.8088
1402226 22.0821 27.1922 11.1237 11.0964 1.77737 -5.67614 71.4944
1402239 22.0821 27.1922 11.1237 11.0964 1.77737 -5.67614 71.4944
1402249 22.3013 27.4062 10.7938 10.7174 1.76515 -5.93867 71.2187
1402261 22.5903 27.591 10.4845 10.5089 1.76505 -6.1513 71.1747
1402268 22.5903 27.591 10.4845 10.5089 1.76505 -6.1513 71.1747
1402279 22.7696 27.7952 10.3093 10.3478 1.77758 -6.29884 71.2219
1402299 23.0686 28.1356 10 10.3099 1.87967 -6.48003 71.5141
1402308 23.4771 28.5927 9.83505 10.2246 1.90807 -6.6568 72.1295
1402320 23.4771 28.5927 9.83505 10.2246 1.90807 -6.6568 72.1295
1402330 23.806 28.8942 9.43299 9.97826 1.95304 -6.92447 72.1114
1402341 24.095 29.254 9.19588 9.76979 1.98195 -7.13202 72.3146
1402349 24.095 29.254 9.19588 9.76979 1.98195 -7.13202 72.3146
1402362 24.2544 29.5069 8.94845 9.59922 2.04098 -7.30482 72.3089
1402369 24.2544 29.5069 8.94845 9.59922 2.04098 -7.30482 72.3089
1402379 24.3341 29.6916 8.59794 9.34337 2.12005 -7.52103 71.9671
1402389 24.364 29.964 8.37113 9.1728 2.22674 -7.677 71.8719
1402399 24.364 29.964 8.37113 9.1728 2.22674 -7.677 71.8719
1402409 24.4238 30.2363 8.12371 8.90747 2.30022 -7.87311 71.6912
1402419 24.5533 30.3919 8 8.72742 2.29026 -7.99841 71.6726
1402429 24.5533 30.3919 8 8.72742 2.29026 -7.99841 71.6726
1402439 24.4338 30.4989 7.81443 8.57581 2.3928 -8.1059 71.3229
1402449 24.4338 30.4989 7.81443 8.57581 2.3928 -8.1059 71.3229
1402459 24.3839 30.4697 7.61856 8.43367 2.43311 -8.20836 70.9058
1402469 24.364 30.6156 7.65979 8.31996 2.4351 -8.24412 70.9593
1402479 24.364 30.6156 7.65979 8.31996 2.4351 -8.24412 70.9593
1402490 24.3242 30.7712 7.57732 8.39576 2.5558 -8.25731 71.0684
1402499 24.2843 30.8198 7.62887 8.36734 2.55765 -8.25058 71.1003
1402509 24.2843 30.8198 7.62887 8.36734 2.55765 -8.25058 71.1003
1402519 24.374 30.9949 7.68041 8.50948 2.60274 -8.21261 71.5587
1402529 24.374 30.9949 7.68041 8.50948 2.60274 -8.21261 71.5587
1402539 24.3242 31.0727 7.70103 8.58528 2.66198 -8.18404 71.6831
1402550 24.2843 31.1505 7.83505 8.71795 2.69111 -8.10174 71.9877
1402565 24.2843 31.1505 7.83505 8.71795 2.69111 -8.10174 71.9877
1402569 24.4338 31.2672 7.8866 8.76533 2.66476 -8.09553 72.3529
1402580 24.4338 31.2672 7.8866 8.76533 2.66476 -8.09553 72.3529
1402589 24.364 31.2672 7.87629 8.89799 2.73628 -8.04985 72.4055
1402600 24.3042 31.3158 7.96907 8.89799 2.73859 -8.01928 72.4871
1402610 24.3042 31.3158 7.96907 8.89799 2.73859 -8.01928 72.4871
1402619 24.2245 31.1991 7.91753 8.92642 2.76178 -8.00767 72.2675
1402630 24.1448 31.1699 7.94845 8.98328 2.78905 -7.96918 72.2464
1402649 24.0152 31.1505 7.95876 9.06856 2.8552 -7.92425 72.193
1402659 24.0152 31.1505 7.95876 9.06856 2.8552 -7.92425 72.193
1402671 23.8857 31.0143 8.01031 9.07804 2.84641 -7.8787 71.9883
1402681 23.6864 30.8684 8.02062 9.2107 2.91564 -7.79889 71.7861
1402690 23.6864 30.8684 8.02062 9.2107 2.91564 -7.79889 71.7861
1402716 23.5569 30.7225 8.14433 9.30546 2.90217 -7.7018 71.7292
1402716 23.3476 30.5864 8.30928 9.40022 2.90666 -7.58432 71.6435
1402732 23.1981 30.4308 8.50515 9.72241 2.93986 -7.39001 71.8565
1402740 23.1981 30.4308 8.50515 9.72241 2.93986 -7.39001 71.8565
1402752 22.8593 30.1974 8.72165 9.95931 2.98857 -7.1878 71.7376
1402760 22.5903 29.9251 9.04124 10.2057 2.9609 -6.95388 71.7623
1402773 22.5903 29.9251 9.04124 10.2057 2.9609 -6.95388 71.7623
1402780 22.371 29.7111 9.40206 10.5279 2.93904 -6.69725 72.0121
1402794 21.9725 29.4485 9.86598 10.8974 2.94645 -6.37067 72.1844
1402802 21.9725 29.4485 9.86598 10.8974 2.94645 -6.37067 72.1844
1402814 21.6536 29.1081 10.3402 11.2386 2.88667 -6.05116 72.3405
1402823 21.245 28.6802 10.8866 11.6176 2.81868 -5.67884 72.4294
1402835 21.245 28.6802 10.8866 11.6176 2.81868 -5.67884 72.4294
1402843 20.8962 28.3398 11.567 11.9967 2.70372 -5.28966 72.7997
1402855 20.8962 28.3398 11.567 11.9967 2.70372 -5.28966 72.7997
1402863 20.4877 27.8535 11.9897 12.262 2.63048 -4.97767 72.5929
1402876 20.109 27.2408 12.5052 12.6789 2.51799 -4.58388 72.534
1402883 20.109 27.2408 12.5052 12.6789 2.51799 -4.58388 72.534
1402893 19.6606 26.6962 13.0412 13.0201 2.42151 -4.20382 72.4181
1402903 19.3617 26.21 13.5876 13.5033 2.3272 -3.81503 72.6626
1402913 19.3617 26.21 13.5876 13.5033 2.3272 -3.81503 72.6626
1402923 18.983 25.782 14.1546 14.0056 2.27972 -3.41545 72.9253
1402943 18.5147 25.2666 14.9175 14.3941 2.13034 -2.96943 73.0929
1402953 18.0363 24.6539 15.4845 15.0669 2.11625 -2.48604 73.2417
1402963 18.0363 24.6539 15.4845 15.0669 2.11625 -2.48604 73.2417
1402976 17.4683 23.9342 16.268 15.7681 2.03092 -1.91311 73.4387
1402983 16.6839 23.0395 17.1477 16.602 1.9769 -1.21957 73.473
1402994 16.6839 23.0395 17.1477 16.602 1.9769 -1.21957 73.473
1403005 15.876 22.0572 18.073 17.5748 1.93087 -0.465915 73.581
1403014 15.876 22.0572 18.073 17.5748 1.93087 -0.465915 73.581
1403024 15.0857 20.7832 19.1065 18.6951 1.7938 0.393527 73.6706
1403034 14.313 19.5578 20.15 19.7473 1.64098 1.22542 73.768
1403045 14.313 19.5578 20.15 19.7473 1.64098 1.22542 73.768
1403054 13.5842 18.2059 20.9178 20.9358 1.57508 2.04976 73.6437
1403066 13.0134 17.3404 21.5871 21.9003 1.57097 2.66794 73.8412
1403075 13.0134 17.3404 21.5871 21.9003 1.57097 2.66794 73.8412
1403086 12.5393 16.5043 22.227 22.6797 1.49348 3.21765 73.9502
1403095 12.5393 16.5043 22.227 22.6797 1.49348 3.21765 73.9502
1403107 12.0563 15.8342 22.6306 23.3421 1.51952 3.67209 73.8632
1403114 11.5997 15.0907 23.1523 24.0338 1.47968 4.16148 73.8765
1403128 11.5997 15.0907 23.1523 24.0338 1.47968 4.16148 73.8765
1403136 11.2045 14.5032 23.546 24.6963 1.50403 4.57089 73.9501
1403146 10.8357 13.8515 23.9004 25.2418 1.47542 4.96854 73.8295
1403156 10.8357 13.8515 23.9004 25.2418 1.47542 4.96854 73.8295
1403166 10.5635 13.264 24.2154 25.7777 1.44362 5.3167 73.8206
1403176 10.5635 13.264 24.2154 25.7777 1.44362 5.3167 73.8206
1403185 10.265 12.6674 24.4615 26.3135 1.443 5.66618 73.7073
1403197 10.0894 12.2084 24.7076 26.7811 1.42051 5.9342 73.7865
1403205 10.0894 12.2084 24.7076 26.7811 1.42051 5.9342 73.7865
1403217 9.95764 11.9422 24.9045 27.1123 1.41796 6.11166 73.9166
1403226 9.65031 11.6485 25.1998 27.502 1.45283 6.36542 74.0006
1403239 9.65031 11.6485 25.1998 27.502 1.45283 6.36542 74.0006
1403245 9.28151 11.2079 25.5837 27.8917 1.43122 6.68953 73.9648
1403265 8.99174 10.6938 25.8494 28.2327 1.38452 6.99423 73.7677
1403275 8.76343 10.4368 26.0562 28.5444 1.40975 7.19511 73.8008
1403295 8.54391 10.1156 26.194 28.749 1.40167 7.39449 73.6024
1403307 8.42097 9.96868 26.3416 28.9536 1.4113 7.51285 73.6849
1403317 8.42097 9.96868 26.3416 28.9536 1.4113 7.51285 73.6849
1403327 8.5 9.77592 26.4598 29.1777 1.35084 7.58216 73.9133
1403337 8.5 9.77592 26.4598 29.1777 1.35084 7.58216 73.9133
1403350 8.35072 9.46382 26.5877 29.4309 1.33961 7.76157 73.8332
1403362 8.18388 9.2068 26.7058 29.7135 1.36517 7.93157 73.81
1403380 8.06973 8.83963 26.8929 29.9278 1.29012 8.11975 73.73
1403397 7.9468 8.57343 27.139 30.1129 1.22016 8.28192 73.7721
1403411 7.72727 8.37149 27.3654 30.3662 1.23426 8.45848 73.8303
1403416 7.72727 8.37149 27.3654 30.3662 1.23426 8.45848 73.8303
1403426 7.578 8.03186 27.5229 30.5708 1.18778 8.64622 73.7035
1403436 7.33213 7.75648 27.8182 30.8143 1.15995 8.85986 73.7211
1403456 7.15651 7.59125 28.1726 30.9507 1.08733 9.01074 73.871
1403468 7.02479 7.59125 28.2808 31.1261 1.15224 9.07641 74.023
1403478 7.02479 7.38013 28.2808 31.1261 1.08404 9.14528 73.8118
1403488 6.8843 7.26998 28.4974 31.3404 1.09089 9.26117 73.9921
1403498 6.8843 7.26998 28.4974 31.3404 1.09089 9.26117 73.9921
1403511 6.75258 7.07721 28.6746 31.4963 1.06294 9.39338 74.0006
1403519 6.62965 6.92117 28.901 31.584 1.00441 9.50908 74.0358
1403528 6.62965 6.92117 28.901 31.584 1.00441 9.50908 74.0358
1403540 6.5594 6.67333 29.0683 31.6716 0.918323 9.6334 73.9727
1403548 6.5594 6.67333 29.0683 31.6716 0.918323 9.6334 73.9727
1403562 6.46281 6.48974 29.1963 31.7788 0.882429 9.74382 73.9276
1403568 6.4189 6.31533 29.5408 31.8275 0.736517 9.84462 74.1026
1403578 6.4189 6.31533 29.5408 31.8275 0.736517 9.84462 74.1026
1403588 6.3311 6.22354 29.6885 31.8957 0.70802 9.91981 74.1388
1403598 6.26085 6.08585 29.9739 31.8665 0.578785 10.0072 74.1871
1403618 6.25207 6.03078 30.1118 31.8957 0.525862 10.0399 74.2903
1403628 6.25207 6.03078 30.1118 31.8957 0.525862 10.0399 74.2903
1403638 6.19938 5.96652 30.22 31.7398 0.434038 10.0762 74.1258
1403648 6.2345 5.92063 30.2693 31.7398 0.38991 10.0832 74.1642
1403658 6.2345 5.92063 30.2693 31.7398 0.38991 10.0832 74.1642
1403671 6.27841 5.94816 30.2693 31.6132 0.341955 10.0506 74.109
1403678 6.39256 5.94816 30.3086 31.4768 0.244102 10.0055 74.1261
1403691 6.39256 5.94816 30.3086 31.4768 0.244102 10.0055 74.1261
1403699 6.4189 5.95734 30.348 31.4476 0.215042 9.99423 74.1718
1403712 6.4189 5.95734 30.348 31.4476 0.215042 9.99423 74.1718
1403720 6.42769 5.98488 30.4071 31.2917 0.149038 9.97543 74.1113
1403732 6.48037 6.03078 30.476 31.3112 0.12975 9.94828 74.2983
1403739 6.48037 6.03078 30.476 31.3112 0.12975 9.94828 74.2983
1403753 6.47159 6.09503 30.4957 31.3209 0.150809 9.93167 74.3832
1403759 6.47159 5.98488 30.535 31.2527 0.0777781 9.96669 74.2442
1403769 6.47159 5.98488 30.535 31.2527 0.0777781 9.96669 74.2442
1403779 6.43647 6.04914 30.5646 31.2625 0.104481 9.95956 74.3126
1403790 6.43647 6.04914 30.5646 31.2625 0.104481 9.95956 74.3126
1403799 6.46281 5.92063 30.6335 31.2917 0.039041 10.0005 74.3086
1403809 6.36622 6.0216 30.5843 31.3307 0.135186 9.99837 74.3027
1403822 6.36622 6.0216 30.5843 31.3307 0.135186 9.99837 74.3027
1403829 6.4189 5.99406 30.535 31.3891 0.144354 9.99053 74.3371
1403840 6.26085 5.98488 30.6039 31.3599 0.161701 10.0495 74.2095
1403859 6.34866 5.94816 30.6728 31.4573 0.128976 10.0434 74.427
1403881 6.28719 5.88391 30.6728 31.4476 0.124997 10.0851 74.2915
1403889 6.29597 5.92063 30.5941 31.4281 0.154451 10.0633 74.2388
1403903 6.29597 5.92063 30.5941 31.4281 0.154451 10.0633 74.2388
1403911 6.26085 5.99406 30.6138 31.3112 0.145122 10.0438 74.1799
1403924 6.33988 5.95734 30.6433 31.3112 0.0960678 10.0315 74.2517
1403931 6.33988 5.95734 30.6433 31.3112 0.0960678 10.0315 74.2517
1403941 6.29597 5.94816 30.5744 31.3307 0.137711 10.0461 74.1492
1403951 6.29597 5.94816 30.5744 31.3307 0.137711 10.0461 74.1492
1403961 6.28719 5.94816 30.6728 31.3014 0.097549 10.0537 74.2096
1403971 6.26963 5.96652 30.7221 31.3014 0.0930071 10.0567 74.2596
1403997 6.21694 5.9757 30.7516 31.2917 0.100642 10.0727 74.2359
1404007 6.21694 5.9757 30.7221 31.2917 0.110635 10.0708 74.2064
1404014 6.25207 6.0216 30.7221 31.2819 0.110874 10.0428 74.2777
1404020 6.29597 6.04914 30.7713 31.204 0.0625312 10.0168 74.3204
1404032 6.29597 6.04914 30.7713 31.204 0.0625312 10.0168 74.3204
1404042 6.26085 6.03996 30.7516 31.1358 0.0550389 10.0258 74.1882
1404052 6.31353 6.12257 30.8697 31.1163 0.018695 9.98694 74.4221
1404072 6.31353 6.09503 30.8894 31.0774 -0.0102654 9.99489 74.3753
1404082 6.28719 6.01242 30.9189 31.0092 -0.0621527 10.029 74.2277
1404092 6.28719 6.01242 30.9189 31.0092 -0.0621527 10.029 74.2277
1404102 6.32231 6.03078 31.0272 30.941 -0.127076 10.0136 74.3213
1404121 6.27841 6.04914 31.0174 30.902 -0.116046 10.019 74.2469
1404135 6.32231 6.0216 31.1847 30.8533 -0.212462 10.0214 74.3819
1404143 6.32231 6.0216 31.1847 30.8533 -0.212462 10.0214 74.3819
1404156 6.35744 6.0216 31.1552 30.8143 -0.227539 10.005 74.3485
1404163 6.30475 5.99406 31.293 30.6877 -0.308295 10.0328 74.2795
1404183 6.3311 5.92981 31.2733 30.6195 -0.355716 10.0397 74.1537
1404193 6.3311 5.92981 31.2733 30.6195 -0.355716 10.0397 74.1537
1404203 6.33988 5.92063 31.3127 30.5513 -0.398193 10.0379 74.1245
1404213 6.31353 5.9757 31.3521 30.4149 -0.430411 10.0217 74.0562
1404233 6.42769 6.01242 31.4308 30.3564 -0.50171 9.97216 74.2274
1404244 6.375 6.00324 31.3619 30.2688 -0.494838 9.9824 74.0089
1404253 6.375 6.00324 31.3619 30.2688 -0.494838 9.9824 74.0089
1404263 6.48037 6.06749 31.4505 30.2493 -0.543483 9.92999 74.2476
1404273 6.48037 6.06749 31.4505 30.2493 -0.543483 9.92999 74.2476
1404283 6.46281 5.92981 31.4308 30.1908 -0.598864 9.97693 74.0143
1404293 6.50671 6.05832 31.4308 30.1226 -0.592487 9.91421 74.1185
1404304 6.50671 6.05832 31.4308 30.1226 -0.592487 9.91421 74.1185
1404313 6.52428 6.09503 31.4013 30.1226 -0.575873 9.89395 74.1432
1404325 6.52428 6.09503 31.4013 30.1226 -0.575873 9.89395 74.1432
1404333 6.56818 6.12257 31.3127 30.0252 -0.585273 9.85709 74.0286
1404347 6.65599 6.16847 31.1749 29.9278 -0.586593 9.79577 73.9271
1404354 6.65599 6.16847 31.1749 29.9278 -0.586593 9.79577 73.9271
1404368 6.7438 6.2878 31.0174 29.7037 -0.599863 9.6992 73.7527
1404374 6.96333 6.48974 30.8303 29.5381 -0.598001 9.53287 73.8215
1404388 6.96333 6.48974 30.8303 29.5381 -0.598001 9.53287 73.8215
1404394 7.15651 6.68251 30.5744 29.2848 -0.598249 9.36662 73.6982
1404404 7.15651 6.68251 30.5744 29.2848 -0.598249 9.36662 73.6982
1404414 7.4814 6.92117 30.2397 28.8951 -0.647575 9.12439 73.5374
1404424 7.75362 7.34341 29.8263 28.6223 -0.548691 8.84177 73.5457
1404435 7.75362 7.34341 29.8263 28.6223 -0.548691 8.84177 73.5457
1404447 8.16632 7.82991 29.2652 28.1547 -0.492699 8.46347 73.4162
1404460 8.54391 8.29806 28.6943 27.7066 -0.421041 8.10159 73.2428
1404464 8.54391 8.29806 28.6943 27.7066 -0.421041 8.10159 73.2428
1404474 9.09711 8.86717 28.0347 27.161 -0.377136 7.63357 73.1601
1404484 9.09711 8.86717 28.0347 27.161 -0.377136 7.63357 73.1601
1404498 9.55372 9.45464 27.3457 26.6057 -0.287497 7.18404 72.9598
1404504 10.0806 10.0788 26.7157 26.0699 -0.221922 6.70907 72.945
1404518 10.0806 10.0788 26.7157 26.0699 -0.221922 6.70907 72.945
1404525 10.5987 10.703 25.9184 25.3782 -0.150064 6.19744 72.5983
1404535 11.2221 11.318 25.1604 24.706 -0.123763 5.66101 72.4066
1404548 11.2221 11.318 25.1604 24.706 -0.123763 5.66101 72.4066
1404555 11.7314 12.0616 24.432 24.1215 0.00679791 5.13374 72.3464
1404565 12.2144 12.7592 23.7724 23.5759 0.120404 4.64068 72.3219
1404575 12.2144 12.7592 23.7724 23.5759 0.120404 4.64068 72.3219
1404586 12.671 13.4293 23.1031 22.933 0.203842 4.14544 72.1363
1404595 12.671 13.4293 23.1031 22.933 0.203842 4.14544 72.1363
1404605 13.1715 14.182 22.4337 22.3095 0.307307 3.618 72.0966
1404616 13.6896 14.8979 21.7742 21.5398 0.338671 3.07222 71.9015
1404627 13.6896 14.8979 21.7742 21.5398 0.338671 3.07222 71.9015
1404635 14.313 15.8342 21.0162 20.702 0.419885 2.41513 71.8655
1404662 15.0331 16.7338 20.1008 19.7375 0.466979 1.69082 71.6051
1404669 15.8233 17.7878 19.2837 18.7341 0.493786 0.922821 71.6289
1404686 16.5434 18.6728 18.5356 17.7501 0.46989 0.224385 71.5019
1404696 17.1893 19.4216 17.9942 17.0097 0.435603 -0.336592 71.6149
1404707 17.1893 19.4216 17.9942 17.0097 0.435603 -0.336592 71.6149
1404717 17.857 20.0635 17.4627 16.4978 0.431839 -0.82638 71.8809
1404727 17.857 20.0635 17.4627 16.4978 0.431839 -0.82638 71.8809
1404737 18.3851 20.6276 16.8866 15.8155 0.40834 -1.31994 71.7148
1404747 18.9132 21.2014 16.3299 15.228 0.413761 -1.7908 71.6725
1404759 18.9132 21.2014 16.3299 15.228 0.413761 -1.7908 71.6725
1404767 19.4015 21.6974 15.8247 14.5836 0.368744 -2.24254 71.5072
1404776 20.0791 22.3976 15.1649 13.9771 0.394684 -2.79283 71.6188
1404797 20.8365 23.127 14.5052 13.3707 0.40231 -3.35909 71.8393
1404818 21.6038 23.7592 13.6392 12.66 0.41033 -3.99035 71.6621
1404828 22.2714 24.333 13.0722 12.063 0.366735 -4.48899 71.7395
1404848 22.6202 24.6442 12.5464 11.5702 0.366992 -4.86426 71.381
1404863 22.959 24.897 12.2887 11.3428 0.346988 -5.08296 71.4875
1404868 22.959 24.897 12.2887 11.3428 0.346988 -5.08296 71.4875
1404878 23.1284 24.9457 12.0722 11.1722 0.32157 -5.22227 71.3184
1404888 23.1284 24.9457 12.0722 11.1722 0.32157 -5.22227 71.3184
1404898 23.2181 25.0915 12.0206 11.1912 0.364947 -5.26369 71.5214
1404908 23.2978 25.2569 12.1237 11.2101 0.363594 -5.26248 71.8885
1404929 23.4373 25.3541 12.1031 11.1438 0.332311 -5.31894 72.0383
1404939 23.6166 25.5 12.0619 11.1628 0.340149 -5.36872 72.3413
1404960 23.786 25.6751 11.9278 11.1343 0.377643 -5.46009 72.5233
1404974 23.8658 25.6362 11.8454 11.0491 0.336373 -5.51288 72.3963
1404989 23.9853 25.7529 11.7423 10.9353 0.331625 -5.60525 72.4158
1405000 23.9853 25.7529 11.7423 10.9353 0.331625 -5.60525 72.4158
1405014 23.8757 25.7334 11.6598 10.7458 0.327608 -5.66624 72.0148
1405021 23.8359 25.6556 11.6701 10.7553 0.314572 -5.64528 71.9169
1405041 23.8458 25.6848 11.5876 10.7269 0.340378 -5.68225 71.8451
1405050 23.796 25.7431 11.6186 10.7363 0.370306 -5.67173 71.894
1405060 23.796 25.7431 11.6186 10.7363 0.370306 -5.67173 71.894
1405073 23.8359 25.7334 11.6804 10.6984 0.318134 -5.66876 71.9481
1405090 23.7661 25.7723 11.5979 10.6226 0.359148 -5.71034 71.759
1405102 23.9156 26.0057 11.5567 10.6037 0.394383 -5.77697 72.0817
1405112 23.9156 26.0057 11.5567 10.6037 0.394383 -5.77697 72.0817
1405122 24.364 26.5212 11.2165 10.4331 0.473487 -6.04584 72.5348
1405132 24.7726 27.0172 10.7629 9.97826 0.503224 -6.42111 72.5309
1405151 25.2011 27.5521 10.2887 9.53289 0.549513 -6.80642 72.5747
1405172 25.51 27.873 9.76289 9.08751 0.584099 -7.17104 72.2334
1405183 25.779 28.2328 9.37113 8.64214 0.598687 -7.49709 72.0251
1405193 25.779 28.2328 9.37113 8.64214 0.598687 -7.49709 72.0251
1405203 25.8587 28.4079 8.95876 8.21572 0.63203 -7.78798 71.4411
1405213 25.9584 28.4857 8.83505 7.93144 0.570035 -7.93652 71.2106
1405223 25.9584 28.4857 8.83505 7.93144 0.570035 -7.93652 71.2106
1405233 25.9285 28.3787 8.7732 7.65663 0.471348 -8.03201 70.737
1405273 25.6694 28.2426 8.84536 7.64716 0.488237 -7.97239 70.4045
1405283 25.6295 28.2426 9.14433 7.79877 0.447455 -7.82226 70.8152
1405295 25.6993 28.2231 9.34021 7.98829 0.411189 -7.70388 71.2509
1405304 25.6993 28.2231 9.34021 7.98829 0.411189 -7.70388 71.2509
1405316 25.7292 28.3009 9.60825 8.24415 0.420001 -7.54934 71.8825
1405324 25.7292 28.3009 9.60825 8.24415 0.420001 -7.54934 71.8825
1405337 25.8089 28.369 9.93814 8.44314 0.366968 -7.40015 72.5592
1405344 26.1178 28.6899 9.97938 8.45262 0.356823 -7.45 73.2398
1405364 26.4068 28.9817 9.75258 8.44314 0.429934 -7.58168 73.5842
1405374 26.7855 29.3902 9.23711 8.16834 0.521848 -7.90356 73.5811
1405386 26.7855 29.3902 9.23711 8.16834 0.521848 -7.90356 73.5811
1405394 27.2937 29.8667 8.65979 7.83668 0.593942 -8.28108 73.6569
1405414 27.8517 30.353 8.03093 7.40078 0.635257 -8.71301 73.6364
1405426 28.4197 30.8684 7.46392 6.97436 0.664335 -9.12492 73.7264
1405435 28.4197 30.8684 7.46392 6.97436 0.664335 -9.12492 73.7264
1405445 28.9578 31.3936 6.86598 6.46265 0.689629 -9.57303 73.68
1405456 29.4261 31.7145 6.36082 5.98885 0.651929 -9.95865 73.4903
1405467 29.4261 31.7145 6.36082 5.98885 0.651929 -9.95865 73.4903
1405476 29.6454 31.9382 5.89691 5.65719 0.701803 -10.2607 73.1377
1405489 29.6454 31.9382 5.89691 5.65719 0.701803 -10.2607 73.1377
1405498 29.7948 31.9285 5.61856 5.26867 0.614154 -10.5018 72.6106
1405506 29.8447 31.909 5.30928 5.0223 0.616422 -10.7003 72.0853
1405516 29.8447 31.909 5.30928 5.0223 0.616422 -10.7003 72.0853
1405526 29.7849 31.7826 5.17526 4.71906 0.539285 -10.8463 71.4618
1405536 29.8247 31.6173 5.02062 4.68116 0.510612 -10.9089 71.1438
1405556 29.7849 31.4908 4.87629 4.53902 0.484043 -11.0043 70.691
1405578 29.7052 31.3158 4.81443 4.39688 0.424686 -11.0654 70.2323
1405587 29.6454 31.2185 4.83505 4.3874 0.401473 -11.0524 70.0864
1405599 29.6454 31.2185 4.83505 4.3874 0.401473 -11.0524 70.0864
1405606 29.755 31.1991 4.7732 4.34002 0.3607 -11.0981 70.0673
1405617 29.8148 31.2088 4.81443 4.27369 0.304264 -11.1113 70.1117
1405636 29.8247 31.2185 4.7732 4.3495 0.345647 -11.0995 70.166
1405646 29.8247 31.2185 4.7732 4.3495 0.345647 -11.0995 70.166
1405657 29.9343 31.1894 4.8866 4.29264 0.235075 -11.083 70.3029
1405667 30.0739 31.1894 4.98969 4.39688 0.184959 -11.0142 70.6498
1405677 30.0739 31.1894 4.98969 4.39688 0.184959 -11.0142 70.6498
1405687 30.1735 31.1699 5 4.3495 0.122327 -11.0323 70.6929
1405702 30.2532 31.2185 5.07217 4.48216 0.132105 -10.9644 71.0261
1405707 30.2532 31.2185 5.07217 4.48216 0.132105 -10.9644 71.0261
1405717 30.3628 31.3352 5.20619 4.53902 0.106815 -10.9079 71.4433
1405728 30.3628 31.3352 5.20619 4.53902 0.106815 -10.9079 71.4433
1405738 30.4625 31.4228 5.34021 4.64326 0.0916004 -10.8326 71.8687
1405748 30.5322 31.4519 5.4433 4.77592 0.0873685 -10.754 72.2034
1405758 30.5322 31.4519 5.4433 4.77592 0.0873685 -10.754 72.2034
1405768 30.5223 31.5395 5.54639 4.88016 0.121042 -10.6849 72.4883
1405778 30.4924 31.5297 5.61856 4.88016 0.103065 -10.657 72.5208
1405788 30.4924 31.5297 5.61856 4.88016 0.103065 -10.657 72.5208
1405798 30.4027 31.3839 5.74227 5.00334 0.0834972 -10.5555 72.5322
1405810 30.4027 31.3839 5.74227 5.00334 0.0834972 -10.5555 72.5322
1405818 30.1336 31.1991 5.8866 5.12653 0.105527 -10.4331 72.3459
1405831 29.8945 31.0532 5.96907 5.2592 0.155467 -10.333 72.176
1405848 29.7052 30.9365 6.14433 5.33501 0.146288 -10.225 72.121
1405858 29.5059 30.8003 6.19588 5.37291 0.164005 -10.1713 71.875
1405868 29.5059 30.8003 6.19588 5.37291 0.164005 -10.1713 71.875
1405878 29.1471 30.6642 6.35052 5.61929 0.27369 -9.99737 71.7811
1405888 29.1471 30.6642 6.35052 5.61929 0.27369 -9.99737 71.7811
1405898 28.9179 30.4502 6.48454 5.7709 0.285754 -9.86673 71.6236
1405908 28.609 30.3141 6.68041 5.94147 0.337586 -9.70743 71.545
1405918 28.609 30.3141 6.68041 5.94147 0.337586 -9.70743 71.545
1405929 28.4396 30.2071 6.95876 6.09309 0.314438 -9.53887 71.6986
1405939 28.2304 30.032 7.10309 6.31104 0.352141 -9.38556 71.6765
1405950 28.2304 30.032 7.10309 6.31104 0.352141 -9.38556 71.6765
1405962 27.9713 29.8181 7.45361 6.59532 0.344002 -9.1331 71.8383
1405983 27.6225 29.5166 7.87629 6.92698 0.328308 -8.82703 71.9424
1405990 27.2837 29.3513 8.3299 7.28707 0.354564 -8.51562 72.2519
1406004 27.2837 29.3513 8.3299 7.28707 0.354564 -8.51562 72.2519
1406013 26.8951 29.147 8.92784 7.71349 0.356892 -8.13131 72.6834
1406020 26.337 28.7386 9.59794 8.22519 0.352806 -7.66525 72.8987
1406030 26.337 28.7386 9.59794 8.22519 0.352806 -7.66525 72.8987
1406040 25.6993 28.4176 10.3711 8.84114 0.405133 -7.13999 73.3292
1406060 24.8224 27.7757 11.3299 9.39075 0.345817 -6.52169 73.3188
1406071 23.6864 27.1339 12.433 10.2246 0.421593 -5.74921 73.4779
1406082 23.6864 27.1339 12.433 10.2246 0.421593 -5.74921 73.4779
1406092 22.381 26.3364 13.8454 11.1154 0.415793 -4.83657 73.6781
1406102 20.9261 25.5681 15.3711 12.1767 0.488743 -3.8383 74.0421
1406122 19.2919 24.401 17.0098 13.3423 0.486708 -2.70258 74.045
1406135 19.2919 24.401 17.0098 13.3423 0.486708 -2.70258 74.045
1406142 17.8669 23.1951 18.575 14.6215 0.4628 -1.58881 74.2585
1406152 16.9122 22.0183 19.5101 15.7397 0.450146 -0.744268 74.1803
1406172 16.2009 20.8124 20.1303 16.8673 0.455502 -0.00317574 74.0109
1406182 15.4633 19.5967 20.7701 17.8865 0.42384 0.731851 73.7167
1406192 15.4633 19.5967 20.7701 17.8865 0.42384 0.731851 73.7167
1406202 14.6818 18.2643 21.4887 19.0166 0.377935 1.54372 73.4514
1406211 14.6818 18.2643 21.4887 19.0166 0.377935 1.54372 73.4514
1406223 13.9618 16.9266 22.2959 20.0201 0.235289 2.34159 73.2043
1406232 13.2417 15.7424 23.044 21.0819 0.18419 3.10664 73.1101
1406244 13.2417 15.7424 23.044 21.0819 0.18419 3.10664 73.1101
1406251 12.5744 14.6501 23.7921 22.1731 0.155985 3.84085 73.1897
1406266 11.9948 13.6771 24.491 23.0693 0.0889599 4.48335 73.2323
1406272 11.9948 13.6771 24.491 23.0693 0.0889599 4.48335 73.2323
1406282 11.5031 13.0713 25.121 23.8097 0.0873715 4.97034 73.5051
1406292 11.5031 13.0713 25.121 23.8097 0.0873715 4.97034 73.5051
1406302 11.1782 12.5297 25.5443 24.2481 0.0188231 5.32335 73.5003
1406312 10.8006 12.0707 26.0759 24.6963 -0.0371605 5.68294 73.6435
1406323 10.8006 12.0707 26.0759 24.6963 -0.0371605 5.68294 73.6435
1406333 10.546 11.676 26.4007 25.1931 -0.0262529 5.96861 73.8158
1406343 10.0981 11.162 26.9224 25.9433 0.0285655 6.39566 74.1258
1406363 9.68543 10.547 27.3949 26.4986 -0.0117362 6.8116 74.1259
1406373 9.68543 10.547 27.3949 26.4986 -0.0117362 6.8116 74.1259
1406383 9.29907 10.0421 27.6804 27.0539 0.0393331 7.16696 74.0754
1406394 9.12345 9.61069 27.8969 27.4923 0.0278503 7.41772 74.1233
1406403 9.12345 9.61069 27.8969 27.4923 0.0278503 7.41772 74.1233
1406417 8.94783 9.26188 27.9757 27.7943 0.0448227 7.61565 73.9797
1406426 8.70196 8.94978 28.1135 28.1352 0.0911921 7.83425 73.9005
1406433 8.70196 8.94978 28.1135 28.1352 0.0911921 7.83425 73.9005
1406443 8.57903 8.60097 28.2218 28.4567 0.0869572 8.02179 73.8585
1406453 8.57903 8.60097 28.2218 28.4567 0.0869572 8.02179 73.8585
1406463 8.37707 8.26134 28.4088 28.8562 0.112185 8.24588 73.9034
1406473 8.23657 7.87581 28.5269 29.2166 0.111341 8.45521 73.8559
1406493 8.00826 7.61879 28.6647 29.5966 0.183505 8.65514 73.8884
1406504 7.86777 7.37095 28.8222 29.9473 0.212213 8.82283 74.0082
1406526 7.72727 7.16901 29.0093 30.2395 0.226584 8.97278 74.1451
1406535 7.72727 7.16901 29.0093 30.2395 0.226584 8.97278 74.1451
1406548 7.49019 6.9946 29.1175 30.6195 0.338966 9.14534 74.2218
1406555 7.30579 6.80184 29.275 30.9702 0.400525 9.30784 74.3529
1406572 7.30579 6.80184 29.275 30.9702 0.400525 9.30784 74.3529
1406575 7.10382 6.52646 29.4522 31.3794 0.453177 9.50849 74.4619
1406586 6.94576 6.30616 29.5999 31.7788 0.515643 9.673 74.6306
1406605 6.65599 6.07667 29.7869 32.149 0.596893 9.88433 74.6686
1406617 6.42769 5.83801 29.8263 32.4802 0.692034 10.0656 74.5722
1406627 6.42769 5.83801 29.8263 32.4802 0.692034 10.0656 74.5722
1406639 6.21694 5.70032 30.0035 32.8115 0.766525 10.216 74.7322
1406658 5.97107 5.41577 30.2003 33.0063 0.754306 10.4204 74.5935
1406666 5.6813 5.19546 30.4071 33.1914 0.771567 10.6186 74.4752
1406680 5.6813 5.19546 30.4071 33.1914 0.771567 10.6186 74.4752
1406686 5.48812 5.10367 30.5153 33.3668 0.828132 10.7334 74.4739
1406701 5.33884 4.87419 30.6138 33.357 0.767887 10.8698 74.1838
1406707 5.33884 4.87419 30.6138 33.357 0.767887 10.8698 74.1838
1406721 5.20713 4.86501 30.663 33.4057 0.809476 10.9245 74.1409
1406737 5.172 4.80076 30.6433 33.5324 0.84891 10.9651 74.1485
1406750 5.19835 4.82829 30.663 33.4642 0.819623 10.9436 74.1538
1406758 5.19835 4.82829 30.663 33.4642 0.819623 10.9436 74.1538
1406768 5.20713 4.80076 30.6728 33.5032 0.816864 10.9528 74.1839
1406778 5.2686 4.94762 30.5646 33.5421 0.893596 10.8763 74.3229
1406788 5.2686 4.94762 30.5646 33.5421 0.893596 10.8763 74.3229
1406798 5.36519 4.94762 30.6236 33.5616 0.845799 10.8471 74.498
1406808 5.36519 4.94762 30.6236 33.5616 0.845799 10.8471 74.498
1406818 5.33884 5.0486 30.476 33.5129 0.923234 10.8102 74.3763
1406830 5.48812 5.14957 30.4268 33.5129 0.921053 10.7208 74.5773
1406852 5.50568 5.25054 30.2693 33.4447 0.980359 10.6669 74.4702
1406859 5.56715 5.33315 30.1019 33.3862 1.02514 10.604 74.3885
1406869 5.56715 5.33315 30.1019 33.3862 1.02514 10.604 74.3885
1406879 5.6813 5.4892 29.9247 33.3668 1.09114 10.4995 74.462
1406899 5.77789 5.5351 29.6589 33.3375 1.15591 10.4328 74.3095
1406910 5.88326 5.61771 29.4424 33.3083 1.21222 10.3532 74.2517
1406919 5.88326 5.61771 29.4424 33.3083 1.21222 10.3532 74.2517
1406929 6.03254 5.62689 29.275 33.2791 1.21217 10.2868 74.2136
1406940 6.08523 5.7554 29.1668 33.2791 1.27294 10.2183 74.2865
1406949 6.08523 5.7554 29.1668 33.2791 1.27294 10.2183 74.2865
1406963 6.2345 5.86555 29.1175 33.3278 1.28824 10.1305 74.5454
1406971 6.2345 5.86555 29.1175 33.3278 1.28824 10.1305 74.5454
1406984 6.25207 5.89309 28.9108 33.2304 1.33287 10.0953 74.2864
1406989 6.33988 6.06749 28.773 33.1135 1.36891 9.98988 74.2939
1407000 6.33988 6.06749 28.773 33.1135 1.36891 9.98988 74.2939
1407009 6.3311 6.12257 28.7533 33.1135 1.39652 9.97299 74.3205
1407025 6.3311 6.12257 28.7533 33.1135 1.39652 9.97299 74.3205
1407029 6.32231 6.08585 28.6451 33.1135 1.4265 9.98097 74.1667
1407040 6.18182 6.04914 28.7435 33.1232 1.43292 10.048 74.0976
1407049 6.18182 6.04914 28.7435 33.1232 1.43292 10.048 74.0976
1407059 6.15548 5.96652 28.8124 33.1329 1.39454 10.0901 74.0673
1407069 6.15548 5.96652 28.8124 33.1329 1.39454 10.0901 74.0673
1407079 6.15548 5.96652 28.8124 33.1329 1.39454 10.0901 74.0673
1407090 6.10279 6.01242 28.96 33.1037 1.36606 10.1003 74.179
1407099 6.10279 6.01242 28.96 33.1037 1.36606 10.1003 74.179
1407112 6.02376 5.92981 29.0979 33.0648 1.30638 10.1616 74.1162
1407119 6.04132 5.93898 29.1274 33.0355 1.28326 10.1525 74.1432
1407134 6.04132 5.93898 29.1274 33.0355 1.28326 10.1525 74.1432
1407139 6.09401 6.0216 29.2061 32.8991 1.21953 10.1029 74.2209
1407150 6.10279 5.9757 29.2849 32.7725 1.13323 10.1123 74.1359
1407159 6.10279 5.9757 29.2849 32.7725 1.13323 10.1123 74.1359
1407169 6.17304 5.9757 29.2652 32.7238 1.09972 10.084 74.1377
1407208 6.13791 6.01242 29.3341 32.4802 1.02097 10.0718 73.9647
1407210 6.24329 6.01242 29.3243 32.3926 0.958946 10.0296 73.9725
1407210 6.24329 6.01242 29.3243 32.3926 0.958946 10.0296 73.9725
1407221 6.42769 6.17765 29.3046 32.0613 0.847191 9.88774 73.9712
1407231 6.53306 6.35205 29.2258 31.6814 0.77059 9.7616 73.7923
1407242 6.53306 6.35205 29.2258 31.6814 0.77059 9.7616 73.7923
1407250 6.78771 6.57235 29.1077 31.243 0.651169 9.56251 73.7107
1407260 6.78771 6.57235 29.1077 31.243 0.651169 9.56251 73.7107
1407270 7.04236 6.83855 28.9207 30.7754 0.560936 9.34025 73.5769
1407280 7.34969 7.09557 28.773 30.4246 0.47442 9.11542 73.6429
1407292 7.34969 7.09557 28.773 30.4246 0.47442 9.11542 73.6429
1407301 7.63068 7.34341 28.5958 30.1324 0.423759 8.9049 73.7023
1407311 7.90289 7.51782 28.4186 29.7622 0.325558 8.71451 73.6015
1407332 8.21901 7.82073 28.2218 29.5089 0.301218 8.47716 73.7704
1407341 8.21901 7.82073 28.2218 29.5089 0.301218 8.47716 73.7704
1407354 8.5 8.03186 27.9068 29.1582 0.26606 8.26118 73.5968
1407362 8.75465 8.32559 27.6016 28.7587 0.247845 8.02284 73.4406
1407371 8.75465 8.32559 27.6016 28.7587 0.247845 8.02284 73.4406
1407382 9.09711 8.61015 27.3654 28.408 0.189063 7.77065 73.4807
1407391 9.38688 8.7662 27.0602 28.0281 0.118506 7.56442 73.2414
1407402 9.38688 8.7662 27.0602 28.0281 0.118506 7.56442 73.2414
1407412 9.69421 9.05076 26.8535 27.7845 0.0979692 7.33679 73.383
1407421 9.69421 9.05076 26.8535 27.7845 0.0979692 7.33679 73.383
1407439 9.92252 9.2527 26.5287 27.4143 0.0737995 7.13251 73.1182
1407442 10.2123 9.5189 26.2727 27.0734 0.0366837 6.89987 73.0773
1407452 10.2123 9.5189 26.2727 27.0734 0.0366837 6.89987 73.0773
1407462 10.4845 9.93197 25.8101 26.4888 0.0433922 6.57683 72.7154
1407472 10.4845 9.93197 25.8101 26.4888 0.0433922 6.57683 72.7154
1407482 11.0114 10.5011 25.2588 25.8458 0.0264168 6.11266 72.6171
1407492 11.5294 11.1528 24.619 25.1444 0.0513434 5.6072 72.4457
1407506 11.5294 11.1528 24.619 25.1444 0.0513434 5.6072 72.4457
1407512 12.03 11.8137 24.1268 24.4917 0.0512809 5.1285 72.4622
1407522 12.4251 12.3645 23.5854 23.9169 0.0936717 4.71271 72.2919
1407531 12.4251 12.3645 23.5854 23.9169 0.0936717 4.71271 72.2919
1407542 12.9256 13.0346 23.0243 23.235 0.110629 4.21613 72.2195
1407552 12.9256 13.0346 23.0243 23.235 0.110629 4.21613 72.2195
1407562 13.5139 13.7689 22.3451 22.4069 0.10992 3.63764 72.0348
1407572 14.2691 14.7511 21.41 21.384 0.15873 2.87696 71.8141
1407582 14.2691 14.7511 21.41 21.384 0.15873 2.87696 71.8141
1407593 15.0945 15.669 20.4453 20.3805 0.178 2.10833 71.5893
1407602 15.8409 16.6328 19.6873 19.4355 0.188601 1.39304 71.5966
1407614 15.8409 16.6328 19.6873 19.4355 0.188601 1.39304 71.5966
1407623 16.4029 17.5057 18.9687 18.6075 0.259337 0.769583 71.4848
1407634 16.4029 17.5057 18.9687 18.6075 0.259337 0.769583 71.4848
1407643 16.9649 18.3518 18.2501 17.7209 0.300798 0.137687 71.2878
1407657 17.4783 19.0812 17.63 17.1461 0.392184 -0.375007 71.3357
1407663 17.4783 19.0812 17.63 17.1461 0.392184 -0.375007 71.3357
1407673 18.1559 19.9468 17.0787 16.4599 0.40898 -0.955615 71.6413
1407683 18.7737 20.7637 16.4742 15.8818 0.485992 -1.49834 71.8935
1407693 18.7737 20.7637 16.4742 15.8818 0.485992 -1.49834 71.8935
1407705 19.3019 21.4931 15.7938 15.2659 0.578713 -2.03229 71.8547
1407713 19.3019 21.4931 15.7938 15.2659 0.578713 -2.03229 71.8547
1407723 19.6905 22.0183 15.1753 14.7258 0.655743 -2.47336 71.6098
1407733 20.0692 22.5143 14.701 14.3278 0.72329 -2.83918 71.6123
1407745 20.0692 22.5143 14.701 14.3278 0.72329 -2.83918 71.6123
1407753 20.4877 23.0297 14.2268 13.9392 0.786266 -3.21233 71.6835
1407768 20.8664 23.5646 13.7629 13.5033 0.850365 -3.59109 71.6972
1407773 20.8664 23.5646 13.7629 13.5033 0.850365 -3.59109 71.6972
1407788 21.3646 24.119 13.2887 13.1527 0.910139 -3.97126 71.925
1407793 21.3646 24.119 13.2887 13.1527 0.910139 -3.97126 71.925
1407804 21.5938 24.3232 12.866 12.7453 0.911778 -4.25827 71.5283
1407813 21.9525 24.7998 12.4536 12.4989 1.00849 -4.56032 71.7048
1407823 21.9525 24.7998 12.4536 12.4989 1.00849 -4.56032 71.7048
1407834 22.2515 25.111 12.1649 12.2809 1.03592 -4.78703 71.8083
1407846 22.5006 25.4805 11.8969 12.1009 1.10586 -4.99799 71.9789
1407857 22.5006 25.4805 11.8969 12.1009 1.10586 -4.99799 71.9789
1407864 22.68 25.7237 11.7423 11.845 1.09268 -5.17072 71.9909
1407876 22.68 25.7237 11.7423 11.845 1.09268 -5.17072 71.9909
1407884 22.8593 25.8112 11.4948 11.5987 1.0645 -5.34607 71.764
1407899 23.0985 26.0154 11.3711 11.3807 1.01806 -5.50236 71.8658
1407904 23.0985 26.0154 11.3711 11.3807 1.01806 -5.50236 71.8658
1407914 23.4472 26.2683 11.1134 11.1628 0.996789 -5.7172 71.9917
1407925 23.4472 26.2683 11.1134 11.1628 0.996789 -5.7172 71.9917
1407934 23.7761 26.5114 10.866 10.8785 0.953692 -5.94383 72.032
1407944 24.1448 26.8713 10.5773 10.6037 0.953245 -6.19867 72.1971
1407954 24.1448 26.8713 10.5773 10.6037 0.953245 -6.19867 72.1971
1407964 24.6131 27.1339 10.2165 10.2341 0.87896 -6.50224 72.1976
1407975 24.9719 27.4645 9.79381 9.81717 0.873044 -6.83413 72.0474
1407984 24.9719 27.4645 9.79381 9.81717 0.873044 -6.83413 72.0474
1407994 25.2011 27.659 9.50515 9.50446 0.854772 -7.06497 71.8697
1408006 25.2011 27.659 9.50515 9.50446 0.854772 -7.06497 71.8697
1408015 25.2608 27.7757 9.30928 9.23913 0.853792 -7.22669 71.585
1408027 25.3804 27.9022 9.12371 8.98328 0.83392 -7.39091 71.3896
1408035 25.3804 27.9022 9.12371 8.98328 0.83392 -7.39091 71.3896
1408044 25.6096 28.0967 8.97938 8.84114 0.820962 -7.52566 71.5268
1408054 25.8388 28.3204 8.86598 8.70847 0.809962 -7.65012 71.7336
1408065 25.8388 28.3204 8.86598 8.70847 0.809962 -7.65012 71.7336
1408075 26.078 28.583 8.68041 8.51895 0.815308 -7.81966 71.8603
1408084 26.078 28.583 8.68041 8.51895 0.815308 -7.81966 71.8603
1408094 26.337 28.7288 8.57732 8.32943 0.744691 -7.95284 71.9726
1408104 26.5064 29.0206 8.38144 8.15886 0.794938 -8.11465 72.0674
1408124 26.7755 29.2929 8.20619 7.91249 0.770119 -8.30129 72.1871
1408134 27.0445 29.5555 7.97938 7.79877 0.804916 -8.46012 72.3782
1408144 27.0445 29.5555 7.97938 7.79877 0.804916 -8.46012 72.3782
1408154 27.483 29.9445 7.71134 7.56187 0.795054 -8.6975 72.7007
1408164 27.483 29.9445 7.71134 7.56187 0.795054 -8.6975 72.7007
1408174 27.762 30.2071 7.4433 7.32497 0.79971 -8.90893 72.7374
1408184 27.9513 30.353 7.2268 7.05964 0.769541 -9.09576 72.5908
1408194 27.9513 30.353 7.2268 7.05964 0.769541 -9.09576 72.5908
1408205 28.0012 30.4308 6.98969 6.87012 0.798857 -9.24838 72.2918
1408214 27.9314 30.4308 6.80412 6.73746 0.845817 -9.35012 71.9038
1408227 27.9314 30.46 6.80412 6.73746 0.855613 -9.35242 71.933
1408235 27.8517 30.4211 6.69072 6.6427 0.880277 -9.41385 71.6062
1408249 27.8517 30.4211 6.69072 6.6427 0.880277 -9.41385 71.6062
1408255 27.8118 30.3627 6.56701 6.56689 0.894263 -9.47447 71.3084
1408265 27.7819 30.353 6.47423 6.48161 0.90673 -9.53269 71.0908
1408275 27.7819 30.353 6.47423 6.48161 0.90673 -9.53269 71.0908
1408285 27.7819 30.3043 6.52577 6.49108 0.874683 -9.5079 71.1031
1408295 27.7819 30.3043 6.52577 6.49108 0.874683 -9.5079 71.1031
1408306 27.6325 30.3141 6.46392 6.36789 0.913262 -9.56113 70.7784
1408315 27.5528 30.3141 6.57732 6.53846 0.958851 -9.45676 70.9826
1408325 27.5528 30.3141 6.57732 6.53846 0.958851 -9.45676 70.9826
1408338 27.483 30.2752 6.52577 6.51003 0.980464 -9.47588 70.794
1408345 27.5428 30.4405 6.58763 6.55741 1.00786 -9.45578 71.1283
1408366 27.6125 30.5864 6.63918 6.6806 1.05401 -9.41274 71.5187
1408377 27.6923 30.7712 6.69072 6.69008 1.07116 -9.41258 71.8442
1408387 27.6923 30.7712 6.69072 6.69008 1.07116 -9.41258 71.8442
1408397 27.772 30.9268 6.74227 6.73746 1.09104 -9.39734 72.1785
1408417 27.8617 31.0532 6.75258 6.82274 1.12488 -9.38187 72.4902
1408426 28.0012 31.238 6.81443 6.77536 1.09769 -9.40203 72.8289
1408449 28.1008 31.5686 6.69072 6.80379 1.22359 -9.46674 73.164
1408457 28.1008 31.5686 6.57732 6.80379 1.2643 -9.50472 73.0506
1408467 28.2005 31.6076 6.57732 6.74693 1.22268 -9.53418 73.1323
1408477 28.1208 31.7632 6.49485 6.62375 1.2915 -9.60898 73.0025
1408495 28.1208 31.7632 6.49485 6.62375 1.2915 -9.60898 73.0025
1408497 28.1706 31.8312 6.36082 6.48161 1.29779 -9.711 72.8442
1408507 28.041 31.8896 6.27835 6.48161 1.39351 -9.73386 72.6906
1408516 28.041 31.8896 6.27835 6.48161 1.39351 -9.73386 72.6906
1408527 27.9115 31.8896 6.18557 6.31104 1.41898 -9.81452 72.2977
1408553 27.6225 31.6562 6.08247 6.34894 1.49914 -9.7993 71.7101
1408560 27.4033 31.4617 6.10309 6.32051 1.49947 -9.77184 71.2886
1408577 27.0844 31.3255 6.08247 6.29208 1.57192 -9.75539 70.7845
1408588 26.9449 31.1116 6.2268 6.32999 1.5117 -9.66525 70.6133
1408608 26.7257 30.9073 6.23711 6.39632 1.54442 -9.6062 70.2664
1408629 26.5264 30.7614 6.42268 6.51003 1.53887 -9.47482 70.2205
1408638 26.2872 30.5961 6.72165 6.66165 1.5117 -9.28607 70.2666
1408649 26.2872 30.5961 6.72165 6.66165 1.5117 -9.28607 70.2666
1408660 26.0979 30.4211 6.97938 6.86065 1.49392 -9.09882 70.359
1408673 25.9783 30.3043 7.46392 7.0786 1.391 -8.84011 70.8252
1408690 25.9385 30.1876 7.81443 7.28707 1.30631 -8.63947 71.2276
1408700 25.8886 30.1585 8.20619 7.62821 1.28401 -8.39146 71.8815
1408710 25.8886 30.1585 8.20619 7.62821 1.28401 -8.39146 71.8815
1408719 25.9285 30.2071 8.57732 7.89353 1.23778 -8.19446 72.6064
1408741 25.8687 30.2849 8.82474 8.14939 1.27887 -8.03651 73.1277
1408750 25.7192 30.3433 9.13402 8.34838 1.30478 -7.86868 73.5449
1408764 25.7192 30.3433 9.13402 8.34838 1.30478 -7.86868 73.5449
1408771 25.6096 30.2946 9.37113 8.52843 1.30153 -7.72413 73.8038
1408781 25.4502 30.2363 9.53608 8.63266 1.31429 -7.61985 73.8552
1408790 25.4502 30.2363 9.53608 8.63266 1.31429 -7.61985 73.8552
1408800 25.2509 29.9931 9.70103 8.67057 1.26053 -7.51316 73.6156
1408810 25.2509 29.9931 9.70103 8.67057 1.26053 -7.51316 73.6156
1408821 24.932 29.7792 9.84536 8.7369 1.27525 -7.39403 73.2934
1408832 24.663 29.5555 9.85567 8.76533 1.30499 -7.33067 72.8394
1408840 24.663 29.5555 9.85567 8.76533 1.30499 -7.33067 72.8394
1408855 24.4537 29.3318 9.81443 8.74638 1.3166 -7.30335 72.3463
