3266462 4.36522 5.42692 8.05538 8.03687 1.00755 3.65092 25.8844
3266472 4.37391 5.40824 8.01354 8.08365 1.06692 3.66028 25.8793
3266492 4.42609 5.45495 8.12862 8.12108 0.977126 3.65585 26.1307
3266502 4.41739 5.46429 8.11815 7.95267 0.849059 3.5772 25.9525
3266512 4.41739 5.46429 8.11815 7.95267 0.849059 3.5772 25.9525
3266522 4.43478 5.46429 8.08677 8.13043 1.0273 3.62885 26.1163
3266534 4.43478 5.46429 8.08677 8.13043 1.0273 3.62885 26.1163
3266543 4.36522 5.42692 8.05538 8.05559 1.02488 3.65911 25.9031
3266554 4.37391 5.42692 8.08677 8.0743 1.00199 3.67475 25.9619
3266562 4.37391 5.42692 8.08677 8.0743 1.00199 3.67475 25.9619
3266575 4.47826 5.42692 8.06585 8.08365 0.927347 3.59493 26.0547
3266582 4.46087 5.43626 8.06585 8.02752 0.901353 3.57606 25.9905
3266592 4.46087 5.43626 8.06585 8.02752 0.901353 3.57606 25.9905
3266602 4.43478 5.49231 8.04492 8.04623 1.01739 3.5537 26.0182
3266614 4.43478 5.49231 8.04492 8.04623 1.01739 3.5537 26.0182
3266622 4.4087 5.46429 8.01354 8.05559 1.05778 3.58267 25.9421
3266633 4.46087 5.47363 8.06585 8.05559 0.961867 3.56173 26.0559
3266643 4.46087 5.47363 8.06585 8.05559 0.961867 3.56173 26.0559
3266653 4.44348 5.45495 8.09723 8.10237 0.97383 3.62164 26.098
3266663 4.42609 5.4456 8.06585 8.10237 1.01386 3.62704 26.0399
3266683 4.44348 5.43626 8.08677 8.13979 1.00149 3.64672 26.1063
3266703 4.35652 5.37088 8.08677 8.1585 1.04541 3.76427 25.9727
3266713 4.35652 5.34286 8.11815 8.13979 0.970799 3.79001 25.9573
3266724 4.35652 5.34286 8.11815 8.13979 0.970799 3.79001 25.9573
3266733 4.3913 5.3522 8.01354 8.14915 1.05815 3.71679 25.9062
3266746 4.4 5.34286 8.06585 8.16786 1.00559 3.7481 25.9766
3266753 4.4 5.34286 8.06585 8.16786 1.00559 3.7481 25.9766
3266763 4.3913 5.36154 8.07631 8.1585 1.01243 3.74137 25.9877
3266773 4.3913 5.36154 8.07631 8.1585 1.01243 3.74137 25.9877
3266784 4.33043 5.33352 8.12862 8.06494 0.908253 3.78784 25.8575
3266793 4.4 5.37088 8.10769 8.13043 0.955075 3.72981 26.009
3266804 4.4 5.37088 8.10769 8.13043 0.955075 3.72981 26.009
3266813 4.43478 5.45495 8.04492 8.01816 0.956929 3.56803 25.9528
3266823 4.46957 5.40824 8.08677 8.00881 0.828457 3.59085 25.9734
3266844 4.4087 5.47363 8.14954 8.01816 0.895923 3.61922 26.05
3266864 4.47826 5.49231 7.98215 7.99945 0.993505 3.4743 25.9522
3266874 4.46957 5.51099 8.024 7.98074 0.960314 3.47746 25.9853
3266894 4.47826 5.49231 8.00308 7.93396 0.911826 3.45447 25.9076
3266904 4.46957 5.55769 7.97169 7.95267 1.0299 3.40852 25.9516
3266916 4.46957 5.55769 7.97169 7.95267 1.0299 3.40852 25.9516
3266924 4.46087 5.55769 8.00308 7.9246 0.981212 3.41617 25.9462
3266936 4.46087 5.55769 8.00308 7.9246 0.981212 3.41617 25.9462
3266944 4.46087 5.58571 8.03446 7.86846 0.923762 3.38523 25.9495
3266956 4.53043 5.56703 8.06585 7.94331 0.875315 3.39666 26.1066
3266968 4.53043 5.56703 8.06585 7.94331 0.875315 3.39666 26.1066
3266976 4.54783 5.54835 8.04492 7.84975 0.774652 3.34646 25.9909
3266986 4.51304 5.56703 7.99262 7.88718 0.91348 3.35116 25.9599
3266996 4.51304 5.56703 7.99262 7.88718 0.91348 3.35116 25.9599
3267008 4.51304 5.53901 8.01354 7.85911 0.840449 3.36779 25.9247
3267027 4.49565 5.55769 7.97169 7.81233 0.87342 3.32697 25.8374
3267036 4.57391 5.6044 8.00308 7.85911 0.851092 3.27406 26.0405
3267046 4.57391 5.6044 8.00308 7.85911 0.851092 3.27406 26.0405
3267057 4.54783 5.62308 7.92985 7.82168 0.932676 3.22923 25.9224
3267066 4.50435 5.52967 8.01354 7.82168 0.805464 3.36377 25.8692
3267075 4.50435 5.52967 8.01354 7.82168 0.805464 3.36377 25.8692
3267092 4.53913 5.56703 8.07631 7.89653 0.813037 3.37437 26.079
3267097 4.53913 5.56703 8.07631 7.89653 0.813037 3.37437 26.079
3267107 4.51304 5.58571 8.00308 7.83104 0.868237 3.31743 25.9329
3267117 4.51304 5.54835 8.01354 7.84975 0.840434 3.35697 25.9247
3267127 4.51304 5.54835 8.01354 7.84975 0.840434 3.35697 25.9247
3267137 4.53913 5.55769 8.00308 7.84975 0.833574 3.32722 25.9497
3267147 4.54783 5.57637 7.96123 7.85911 0.892699 3.29326 25.9445
3267167 4.54783 5.56703 7.97169 7.84975 0.864875 3.30035 25.9363
3267177 4.54783 5.56703 7.97169 7.84975 0.864875 3.30035 25.9363
3267187 4.50435 5.59506 7.99262 7.87782 0.939468 3.33331 25.9698
3267197 4.54783 5.57637 7.98215 7.83104 0.845721 3.29004 25.9374
3267219 4.5913 5.62308 7.96123 7.81233 0.849307 3.20871 25.9879
3267228 4.53043 5.6044 7.99262 7.87782 0.922087 3.30833 26.0053
3267248 4.6 5.64176 7.96123 7.94331 0.978953 3.24871 26.1463
3267258 4.6 5.64176 7.96123 7.94331 0.978953 3.24871 26.1463
3267269 4.51304 5.61374 7.98215 7.85911 0.941205 3.30088 25.968
3267279 4.58261 5.55769 7.97169 7.88718 0.856343 3.29928 25.9992
3267288 4.58261 5.55769 7.97169 7.88718 0.856343 3.29928 25.9992
3267298 4.53913 5.66978 7.89846 7.84975 1.04205 3.20103 25.9571
3267308 4.56522 5.62308 7.98215 7.93396 0.966945 3.29129 26.1044
3267318 4.56522 5.62308 7.98215 7.93396 0.966945 3.29129 26.1044
3267328 4.56522 5.64176 7.90892 7.90589 1.03135 3.23258 26.0218
3267349 4.50435 5.61374 7.97169 7.87782 0.977677 3.31072 25.9676
3267359 4.57391 5.68846 7.92985 7.80297 0.94986 3.15661 25.9952
3267369 4.57391 5.68846 7.92985 7.80297 0.94986 3.15661 25.9952
3267379 4.58261 5.6511 7.99262 7.84975 0.88743 3.22633 26.0761
3267389 4.57391 5.63242 7.83569 7.81233 1.00093 3.15712 25.8544
3267409 4.53913 5.70714 7.91938 7.76555 0.977755 3.14601 25.9312
3267419 4.53913 5.70714 7.91938 7.76555 0.977755 3.14601 25.9312
3267429 4.62609 5.66044 7.80431 7.72812 0.927776 3.0477 25.819
3267439 4.62609 5.70714 7.888 7.75619 0.913534 3.06668 25.9774
3267449 4.62609 5.70714 7.888 7.75619 0.913534 3.06668 25.9774
3267459 4.62609 5.77253 7.91938 7.85911 1.03732 3.08278 26.1771
3267472 4.64348 5.72582 7.89846 7.80297 0.946325 3.06788 26.0707
3267479 4.64348 5.72582 7.89846 7.80297 0.946325 3.06788 26.0707
3267489 4.66957 5.67912 7.79385 7.81233 0.990218 3.03844 25.9549
3267499 4.66957 5.67912 7.79385 7.81233 0.990218 3.03844 25.9549
3267509 4.6087 5.67912 7.888 7.75619 0.904882 3.09832 25.932
3267519 4.64348 5.73516 7.84615 7.80297 1.0071 3.03742 26.0278
3267529 4.64348 5.73516 7.84615 7.80297 1.0071 3.03742 26.0278
3267539 4.70435 5.75385 7.81477 7.71877 0.917116 2.92902 25.9917
3267549 4.64348 5.74451 7.76246 7.78426 1.08236 2.98369 25.9347
3267559 4.64348 5.74451 7.76246 7.78426 1.08236 2.98369 25.9347
3267569 4.66087 5.73516 7.83569 7.76555 0.965628 3.00332 25.9973
3267591 4.65217 5.71648 7.86708 7.76555 0.925705 3.03675 26.0013
3267601 4.65217 5.72582 7.81477 7.71877 0.943255 2.9845 25.9115
3267610 4.65217 5.72582 7.81477 7.71877 0.943255 2.9845 25.9115
3267620 4.67826 5.81923 7.80431 7.71877 1.01403 2.89708 26.0206
3267630 4.64348 5.76319 7.82523 7.74684 1.00208 2.98248 25.9787
3267650 4.69565 5.74451 7.86708 7.76555 0.908348 2.98729 26.0728
3267661 4.69565 5.74451 7.86708 7.76555 0.908348 2.98729 26.0728
3267670 4.66957 5.79121 7.80431 7.75619 1.0314 2.93974 26.0213
3267681 4.6087 5.74451 7.89846 7.75619 0.955039 3.05761 26.0079
3267692 4.6087 5.74451 7.89846 7.75619 0.955039 3.05761 26.0079
3267702 4.64348 5.76319 7.79385 7.79362 1.07667 2.9896 25.9941
3267712 4.67826 5.78187 7.83569 7.74684 0.974122 2.95039 26.0427
3267730 4.67826 5.78187 7.83569 7.74684 0.974122 2.95039 26.0427
3267732 4.65217 5.76319 7.82523 7.72812 0.976083 2.9678 25.9687
3267742 4.65217 5.76319 7.82523 7.72812 0.976083 2.9678 25.9687
3267752 4.61739 5.80989 7.77292 7.74684 1.12384 2.94396 25.947
3267762 4.63478 5.80055 7.87754 7.79362 1.03599 3.00835 26.1065
3267772 4.63478 5.80055 7.87754 7.79362 1.03599 3.00835 26.1065
3267782 4.6087 5.80989 7.74154 7.72812 1.14703 2.92666 25.8882
3267794 4.65217 5.77253 7.74154 7.73748 1.07735 2.92679 25.9037
3267802 4.65217 5.77253 7.74154 7.73748 1.07735 2.92679 25.9037
3267812 4.63478 5.77253 7.72062 7.68134 1.06403 2.90282 25.8093
3267822 4.63478 5.77253 7.72062 7.68134 1.06403 2.90282 25.8093
3267833 4.6 5.78187 7.69969 7.64392 1.09434 2.89309 25.7255
3267842 4.66957 5.75385 7.752 7.74684 1.04072 2.93691 25.9222
3267863 4.68696 5.76319 7.79385 7.71877 0.964028 2.92485 25.9628
3267873 4.67826 5.81923 7.85662 7.72812 0.970468 2.9257 26.0822
3267883 4.67826 5.81923 7.85662 7.72812 0.970468 2.9257 26.0822
3267894 4.66087 5.82857 7.78338 7.78426 1.12117 2.92331 26.0571
3267904 4.66087 5.82857 7.78338 7.78426 1.12117 2.92331 26.0571
3267913 4.67826 5.80989 7.79385 7.6907 0.989965 2.88557 25.9727
3267923 4.66087 5.75385 7.76246 7.75619 1.0476 2.95215 25.9334
3267934 4.66087 5.75385 7.76246 7.75619 1.0476 2.95215 25.9334
3267943 4.66087 5.77253 7.76246 7.67199 0.986925 2.89996 25.8678
3267953 4.63478 5.80055 7.73108 7.6907 1.08809 2.89269 25.8571
3267974 4.63478 5.80055 7.79385 7.73748 1.0681 2.94377 25.9667
3267984 4.63478 5.80055 7.79385 7.73748 1.0681 2.94377 25.9667
3267994 4.66087 5.72582 7.79385 7.74684 0.981534 2.98178 25.9274
3268006 4.65217 5.73516 7.82523 7.78426 1.00206 3.01315 25.9968
3268016 4.65217 5.73516 7.82523 7.78426 1.00206 3.01315 25.9968
3268026 4.67826 5.77253 7.77292 7.7749 1.05414 2.94076 25.9986
3268035 4.66087 5.75385 7.79385 7.73748 0.998813 2.95803 25.946
3268056 4.67826 5.80055 7.81477 7.65327 0.925732 2.8843 25.9469
3268066 4.67826 5.80055 7.81477 7.65327 0.925732 2.8843 25.9469
3268076 4.65217 5.75385 7.80431 7.68134 0.945002 2.94282 25.8917
3268086 4.66957 5.72582 7.83569 7.75619 0.939649 2.99945 25.9873
3268108 4.66957 5.76319 7.77292 7.76555 1.04563 2.94887 25.9712
3268118 4.72174 5.79121 7.82523 7.66263 0.871962 2.87005 26.0008
3268127 4.72174 5.79121 7.82523 7.66263 0.871962 2.87005 26.0008
3268138 4.66957 5.77253 7.83569 7.72812 0.95689 2.95417 26.0059
3268148 4.66957 5.78187 7.888 7.72812 0.91342 2.97191 26.0676
3268158 4.66957 5.78187 7.888 7.72812 0.91342 2.97191 26.0676
3268168 4.68696 5.76319 7.77292 7.72812 0.993627 2.91946 25.9512
3268178 4.68696 5.76319 7.77292 7.72812 0.993627 2.91946 25.9512
3268189 4.66957 5.76319 7.82523 7.70941 0.941372 2.94709 25.9674
3268198 4.5913 5.78187 7.752 7.75619 1.15407 2.97609 25.8814
3268208 4.5913 5.78187 7.752 7.75619 1.15407 2.97609 25.8814
3268221 4.62609 5.77253 7.84615 7.7749 1.03306 3.01067 26.0197
3268228 4.64348 5.75385 7.83569 7.76555 1.00027 3.00242 25.9986
3268238 4.64348 5.75385 7.83569 7.76555 1.00027 3.00242 25.9986
3268248 4.67826 5.75385 7.85662 7.78426 0.961944 2.99665 26.073
3268258 4.67826 5.75385 7.85662 7.78426 0.961944 2.99665 26.073
3268268 4.62609 5.71648 7.79385 7.82168 1.07696 3.047 25.9581
3268278 4.6087 5.75385 7.87754 7.73748 0.96727 3.03289 25.9776
3268289 4.6087 5.75385 7.87754 7.73748 0.96727 3.03289 25.9776
3268298 4.62609 5.76319 7.82523 7.85911 1.12276 3.04622 26.0736
3268309 4.6087 5.80055 7.81477 7.82168 1.15064 3.01041 26.0457
3268329 4.58261 5.66978 7.87754 7.84975 1.01944 3.16107 25.9797
3268338 4.58261 5.66978 7.87754 7.84975 1.01944 3.16107 25.9797
3268353 4.5913 5.66978 7.83569 7.79362 1.00076 3.11016 25.8904
3268362 4.5913 5.66044 7.82523 7.79362 1.00261 3.1119 25.8706
3268371 4.5913 5.66044 7.82523 7.79362 1.00261 3.1119 25.8706
3268379 4.58261 5.6511 7.87754 7.87782 1.0281 3.18691 25.9891
3268389 4.6087 5.66044 7.83569 7.88718 1.06112 3.14735 25.992
3268399 4.6087 5.66044 7.83569 7.88718 1.06112 3.14735 25.992
3268410 4.64348 5.66044 7.80431 7.85911 1.03184 3.09591 25.9673
3268429 4.56522 5.68846 7.90892 7.82168 0.996763 3.16168 25.9843
3268441 4.52174 5.67912 7.91938 7.84975 1.04712 3.21618 25.97
3268450 4.52174 5.67912 7.91938 7.84975 1.04712 3.21618 25.97
3268459 4.61739 5.66978 7.92985 7.82168 0.906563 3.14783 26.0387
3268470 4.56522 5.66978 7.87754 7.9246 1.10575 3.20723 26.0371
3268490 4.55652 5.62308 7.86708 7.88718 1.04752 3.22435 25.9339
3268500 4.55652 5.62308 7.86708 7.88718 1.04752 3.22435 25.9339
3268510 4.53913 5.6044 7.92985 7.88718 0.984758 3.27815 25.9605
3268520 4.5913 5.57637 7.87754 7.86846 0.941581 3.22898 25.9137
3268548 4.63478 5.59506 7.94031 7.88718 0.870332 3.22231 26.0573
3268550 4.53043 5.61374 7.86708 7.89653 1.07377 3.25352 25.9078
3268571 4.57391 5.55769 7.90892 7.85911 0.901526 3.26439 25.8996
3268581 4.57391 5.55769 7.90892 7.85911 0.901526 3.26439 25.8996
3268591 4.54783 5.52967 7.84615 7.88718 0.990734 3.2869 25.8108
3268601 4.54783 5.62308 7.90892 7.89653 1.02291 3.25366 25.9764
3268622 4.61739 5.56703 7.84615 7.86846 0.938216 3.20293 25.899
3268632 4.54783 5.61374 7.92985 7.84975 0.95005 3.24853 25.9412
3268645 4.54783 5.61374 7.92985 7.84975 0.95005 3.24853 25.9412
3268652 4.6 5.6978 7.90892 7.85911 1.00513 3.14793 26.0658
3268672 4.56522 5.56703 7.91938 7.86846 0.917143 3.2729 25.9201
3268683 4.5913 5.61374 7.87754 7.93396 1.0367 3.23244 26.0165
3268693 4.5913 5.61374 7.87754 7.93396 1.0367 3.23244 26.0165
3268703 4.55652 5.61374 7.97169 7.84975 0.899592 3.26134 25.9917
3268712 4.5913 5.63242 7.92985 7.83104 0.906602 3.19641 25.9846
3268733 4.55652 5.6044 7.84615 7.88718 1.05129 3.22798 25.8942
3268745 4.55652 5.6044 7.84615 7.88718 1.05129 3.22798 25.8942
3268753 4.53043 5.55769 7.96123 7.87782 0.910094 3.32716 25.9272
3268763 4.57391 5.55769 7.91938 7.88718 0.917155 3.28182 25.9382
3268785 4.56522 5.64176 7.94031 7.89653 0.991374 3.24253 26.0438
3268793 4.56522 5.57637 7.888 7.93396 1.01788 3.28174 25.9635
3268805 4.56522 5.57637 7.888 7.93396 1.01788 3.28174 25.9635
3268813 4.5913 5.55769 7.81477 7.90589 1.02196 3.23062 25.8697
3268824 4.5913 5.55769 7.81477 7.90589 1.02196 3.23062 25.8697
3268833 4.57391 5.52967 7.89846 7.91525 0.93812 3.30481 25.9173
3268843 4.5913 5.66978 7.90892 7.91525 1.03967 3.19898 26.0853
3268863 4.56522 5.63242 7.87754 7.84975 1.00233 3.19942 25.9249
3268873 4.52174 5.58571 7.97169 7.94331 0.994906 3.34762 26.0225
3268883 4.52174 5.58571 7.97169 7.94331 0.994906 3.34762 26.0225
3268893 4.55652 5.63242 7.94031 7.89653 0.99144 3.25518 26.0258
3268904 4.55652 5.63242 7.94031 7.89653 0.99144 3.25518 26.0258
3268915 4.54783 5.62308 7.95077 7.87782 0.963768 3.26411 25.9995
3268925 4.56522 5.63242 7.90892 7.90589 1.02275 3.23913 26.0124
3268933 4.56522 5.63242 7.90892 7.90589 1.02275 3.23913 26.0124
3268943 4.6087 5.66978 7.87754 7.90589 1.04505 3.16839 26.0619
3268953 4.6087 5.61374 7.92985 7.84975 0.889304 3.20581 26.002
3268974 4.53043 5.6044 7.90892 7.90589 1.03173 3.28327 25.9496
3268985 4.53043 5.6044 7.90892 7.90589 1.03173 3.28327 25.9496
3268994 4.52174 5.59506 7.92985 7.8404 0.950152 3.27584 25.887
3269010 4.56522 5.62308 7.87754 7.94331 1.08004 3.24841 26.0091
3269025 4.61739 5.64176 7.84615 7.91525 1.05057 3.17187 26.0205
3269034 4.58261 5.58571 7.89846 7.9246 0.989988 3.26343 25.9914
3269046 4.58261 5.58571 7.89846 7.9246 0.989988 3.26343 25.9914
3269054 4.56522 5.63242 7.888 7.94331 1.07814 3.24658 26.0289
3269064 4.56522 5.63242 7.888 7.94331 1.07814 3.24658 26.0289
3269076 4.6 5.57637 7.89846 7.94331 0.981262 3.26622 26.0181
3269087 4.58261 5.66044 7.94031 7.88718 0.982624 3.21307 26.0705
3269096 4.58261 5.66044 7.94031 7.88718 0.982624 3.21307 26.0705
3269108 4.61739 5.57637 7.80431 7.87782 0.997546 3.18155 25.8759
3269115 4.53043 5.63242 7.90892 7.85911 1.0144 3.24238 25.9309
3269136 4.55652 5.62308 7.86708 7.80297 0.969499 3.18599 25.8496
3269147 4.55652 5.62308 7.86708 7.80297 0.969499 3.18599 25.8496
3269155 4.53913 5.58571 7.84615 7.85911 1.02549 3.24065 25.8301
3269168 4.62609 5.59506 7.87754 7.93396 0.984713 3.22116 26.0326
3269177 4.62609 5.59506 7.87754 7.93396 0.984713 3.22116 26.0326
3269186 4.5913 5.63242 7.888 7.86846 0.983036 3.1944 25.9802
3269196 4.58261 5.59506 7.95077 7.9246 0.946414 3.28045 26.053
3269206 4.58261 5.59506 7.95077 7.9246 0.946414 3.28045 26.053
3269216 4.5913 5.66044 7.888 7.86846 1.00891 3.1748 26.0082
3269226 4.5913 5.66044 7.888 7.86846 1.00891 3.1748 26.0082
3269236 4.57391 5.63242 7.89846 7.87782 0.998613 3.21558 25.9826
3269248 4.61739 5.61374 7.85662 7.91525 1.01428 3.19621 26.003
3269267 4.55652 5.59506 7.888 7.87782 0.991952 3.24931 25.9174
3269276 4.54783 5.59506 7.86708 7.88718 1.03035 3.25019 25.8971
3269288 4.54783 5.63242 7.86708 7.88718 1.06488 3.2239 25.9345
3269297 4.58261 5.59506 7.888 7.89653 0.98314 3.23944 25.9622
3269308 4.58261 5.59506 7.888 7.89653 0.98314 3.23944 25.9622
3269318 4.53913 5.50165 7.81477 7.89653 1.01378 3.30295 25.7521
3269328 4.57391 5.53901 7.888 7.99009 1.0265 3.32721 25.991
3269338 4.57391 5.53901 7.888 7.99009 1.0265 3.32721 25.991
3269348 4.57391 5.62308 7.80431 7.91525 1.11907 3.19635 25.9165
3269358 4.6 5.61374 7.83569 7.8404 0.983438 3.16477 25.8898
3269378 4.61739 5.61374 7.89846 7.91525 0.972486 3.21517 26.0448
3269388 4.61739 5.61374 7.89846 7.91525 0.972486 3.21517 26.0448
3269398 4.56522 5.57637 7.84615 7.8404 0.973162 3.2203 25.8281
3269408 4.6087 5.64176 7.86708 7.87782 1.00384 3.17044 25.9954
3269418 4.6087 5.64176 7.86708 7.87782 1.00384 3.17044 25.9954
3269428 4.61739 5.58571 7.84615 7.8404 0.92949 3.17701 25.8897
3269438 4.55652 5.57637 7.888 7.91525 1.0093 3.27941 25.9361
3269448 4.55652 5.57637 7.888 7.91525 1.0093 3.27941 25.9361
3269458 4.5913 5.63242 7.84615 7.89653 1.05087 3.18814 25.9664
3269468 4.5913 5.63242 7.84615 7.89653 1.05087 3.18814 25.9664
3269479 4.6087 5.59506 7.84615 7.8404 0.946882 3.17656 25.8903
3269489 4.62609 5.64176 7.86708 7.86846 0.977814 3.15403 26.0034
3269499 4.62609 5.64176 7.86708 7.86846 0.977814 3.15403 26.0034
3269508 4.6 5.63242 7.87754 7.84975 0.967491 3.17504 25.9597
3269518 4.6087 5.63242 7.84615 7.85911 0.998864 3.15891 25.9464
3269539 4.61739 5.62308 7.888 7.84975 0.93101 3.17417 25.9782
3269559 4.6087 5.6044 7.87754 7.85911 0.941503 3.19284 25.9497
3269569 4.65217 5.66044 7.83569 7.87782 1.00898 3.11278 26.0261
3269579 4.65217 5.66044 7.83569 7.87782 1.00898 3.11278 26.0261
3269589 4.68696 5.6511 7.80431 7.83104 0.95374 3.05926 25.9734
3269601 4.61739 5.6511 7.80431 7.87782 1.06666 3.1292 25.9506
3269609 4.61739 5.6511 7.80431 7.87782 1.06666 3.1292 25.9506
3269619 4.66087 5.70714 7.80431 7.84975 1.04884 3.04706 26.0221
3269647 4.63478 5.63242 7.74154 7.76555 0.990951 3.04948 25.7743
3269654 4.62609 5.73516 7.77292 7.79362 1.08934 3.01141 25.9278
3269660 4.62609 5.73516 7.77292 7.79362 1.08934 3.01141 25.9278
3269671 4.65217 5.72582 7.85662 7.75619 0.936127 3.02115 25.9908
3269680 4.67826 5.75385 7.77292 7.85911 1.11434 2.99257 26.0641
3269690 4.67826 5.75385 7.77292 7.85911 1.11434 2.99257 26.0641
3269702 4.67826 5.72582 7.76246 7.79362 1.03882 2.97687 25.9602
3269712 4.67826 5.72582 7.76246 7.79362 1.03882 2.97687 25.9602
3269722 4.67826 5.71648 7.76246 7.78426 1.02155 2.979 25.9415
3269732 4.73913 5.72582 7.73108 7.7749 0.991994 2.91154 25.9709
3269743 4.73913 5.72582 7.73108 7.7749 0.991994 2.91154 25.9709
3269752 4.69565 5.75385 7.72062 7.71877 1.02008 2.89114 25.8889
3269763 4.71304 5.70714 7.77292 7.70941 0.898162 2.93146 25.9025
3269772 4.71304 5.70714 7.77292 7.70941 0.898162 2.93146 25.9025
3269782 4.73043 5.79121 7.69969 7.70941 1.03207 2.82722 25.9307
3269792 4.73043 5.79121 7.69969 7.70941 1.03207 2.82722 25.9307
3269804 4.73043 5.71648 7.72062 7.70006 0.933108 2.88416 25.8676
3269811 4.73913 5.87527 7.67877 7.71877 1.13039 2.75823 26.0119
3269821 4.73913 5.87527 7.67877 7.71877 1.13039 2.75823 26.0119
3269830 4.75652 5.85659 7.63692 7.6907 1.11201 2.72612 25.9407
3269841 4.75652 5.85659 7.63692 7.6907 1.11201 2.72612 25.9407
3269852 4.76522 5.80055 7.58462 7.64392 1.06092 2.71151 25.7943
3269864 4.78261 5.87527 7.73108 7.61585 0.939673 2.70472 26.0048
3269882 4.76522 5.9033 7.66831 7.56907 1.00251 2.64546 25.9059
3269892 4.73043 5.91264 7.616 7.62521 1.15071 2.66463 25.8843
3269902 4.73043 5.91264 7.616 7.62521 1.15071 2.66463 25.8843
3269913 4.78261 5.97802 7.58462 7.56907 1.13824 2.54283 25.9143
3269922 4.78261 5.95934 7.51138 7.49422 1.1259 2.48392 25.7476
3269932 4.78261 5.95934 7.51138 7.49422 1.1259 2.48392 25.7476
3269942 4.75652 5.96868 7.62646 7.541 1.08786 2.57347 25.8927
3269952 4.75652 5.96868 7.62646 7.541 1.08786 2.57347 25.8927
3269965 4.81739 5.98736 7.54277 7.46615 1.05889 2.44299 25.8137
3269973 4.81739 5.98736 7.54277 7.46615 1.05889 2.44299 25.8137
3269993 4.85217 6.08077 7.59508 7.46615 1.05761 2.38224 25.9942
3270005 4.85217 6.08077 7.59508 7.46615 1.05761 2.38224 25.9942
3270013 4.8 6.07143 7.49046 7.38195 1.12931 2.33123 25.7438
3270025 4.87826 6.12747 7.57415 7.44744 1.07819 2.31441 26.0273
3270033 4.87826 6.12747 7.57415 7.44744 1.07819 2.31441 26.0273
3270045 4.85217 6.09011 7.48 7.44744 1.16485 2.31071 25.8697
3270053 4.86957 6.11813 7.52185 7.49422 1.17381 2.32372 26.0038
3270073 4.92174 6.13681 7.52185 7.41937 1.06982 2.24002 25.9998
3270085 4.92174 6.13681 7.52185 7.41937 1.06982 2.24002 25.9998
3270101 4.86957 6.10879 7.49046 7.41937 1.12806 2.27796 25.8882
3270113 4.88696 6.13681 7.46954 7.38195 1.12295 2.21895 25.8753
3270125 4.89565 6.15549 7.43815 7.34452 1.12857 2.16665 25.8338
3270134 4.92174 6.18352 7.43815 7.37259 1.15394 2.14471 25.916
3270144 4.92174 6.18352 7.43815 7.37259 1.15394 2.14471 25.916
3270154 4.91304 6.18352 7.41723 7.33517 1.14938 2.12146 25.849
3270164 4.90435 6.19286 7.42769 7.27903 1.10433 2.09824 25.8039
3270184 4.93913 6.23022 7.41723 7.32581 1.15743 2.06872 25.9124
3270194 4.93913 6.23022 7.41723 7.32581 1.15743 2.06872 25.9124
3270206 4.93043 6.21154 7.40677 7.26968 1.10775 2.05346 25.8184
3270215 4.96522 6.18352 7.45908 7.26968 0.994006 2.07517 25.8775
3270224 4.96522 6.18352 7.45908 7.26968 0.994006 2.07517 25.8775
3270234 4.98261 6.2489 7.39631 7.18547 1.0222 1.94683 25.8133
3270244 4.97391 6.2489 7.37538 7.18547 1.05209 1.94195 25.7837
3270256 4.97391 6.2956 7.37538 7.14805 1.06071 1.89233 25.7929
3270265 5.03478 6.31429 7.37538 7.12933 0.999326 1.83086 25.8538
3270274 5.03478 6.31429 7.37538 7.12933 0.999326 1.83086 25.8538
3270284 5.02609 6.42637 7.29169 7.01706 1.0924 1.66314 25.7612
3270295 5.02609 6.42637 7.32308 6.99835 1.04327 1.66969 25.7739
3270315 5.12174 6.52912 7.30215 7.04513 1.10619 1.55574 25.9981
3270336 5.12174 6.55714 7.29169 6.97964 1.08221 1.49851 25.9502
3270345 5.06087 6.58517 7.28123 6.95157 1.15407 1.49935 25.8788
3270356 5.06087 6.58517 7.28123 6.95157 1.15407 1.49935 25.8788
3270366 5.09565 6.56648 7.21846 6.88608 1.10457 1.42184 25.7667
3270376 5.11304 6.5011 7.27077 6.93286 1.01688 1.50448 25.8178
3270386 5.11304 6.5011 7.27077 6.93286 1.01688 1.50448 25.8178
3270397 5.11304 6.55714 7.18708 6.82058 1.04916 1.36546 25.6778
3270407 5.11304 6.55714 7.208 6.82058 1.02795 1.37656 25.6988
3270417 5.14783 6.55714 7.208 6.78316 0.957805 1.33455 25.6961
3270427 5.2 6.56648 7.33354 6.89543 0.892827 1.42091 25.9955
3270436 5.2 6.56648 7.33354 6.89543 0.892827 1.42091 25.9955
3270446 5.1913 6.59451 7.23938 6.84865 0.978273 1.33468 25.8738
3270456 5.1913 6.57582 7.19754 6.81123 0.968161 1.3045 25.7759
3270477 5.18261 6.65989 7.21846 6.80187 1.0253 1.26311 25.8628
3270497 5.2087 6.61319 7.14523 6.75509 0.98587 1.21205 25.7222
3270507 5.26087 6.70659 7.17662 6.80187 1.03194 1.16262 25.9459
3270527 5.23478 6.68791 7.10338 6.76445 1.08004 1.13131 25.7905
3270537 5.25217 6.63187 7.15569 6.78316 0.975066 1.1936 25.8229
3270547 5.25217 6.63187 7.15569 6.78316 0.975066 1.1936 25.8229
3270557 5.33043 6.71593 7.14523 6.79252 0.993669 1.09185 25.9841
3270567 5.33043 6.71593 7.14523 6.79252 0.993669 1.09185 25.9841
3270577 5.24348 6.62253 7.16615 6.84865 1.02542 1.2454 25.8808
3270587 5.24348 6.66923 7.12431 6.73638 1.00668 1.13371 25.7734
3270607 5.23478 6.68791 7.15569 6.72702 0.992483 1.13931 25.8054
3270619 5.25217 6.71593 7.09292 6.75509 1.09034 1.09229 25.8161
3270628 5.25217 6.71593 7.09292 6.75509 1.09034 1.09229 25.8161
3270640 5.28696 6.66923 7.12431 6.69895 0.927991 1.08637 25.7794
3270650 5.28696 6.66923 7.12431 6.69895 0.927991 1.08637 25.7794
3270658 5.27826 6.69725 7.16615 6.72702 0.946957 1.11196 25.8687
3270668 5.29565 6.71593 7.18708 6.74573 0.943306 1.11077 25.9444
3270678 5.29565 6.71593 7.18708 6.74573 0.943306 1.11077 25.9444
3270688 5.29565 6.63187 7.13477 6.76445 0.934973 1.14515 25.8267
3270700 5.25217 6.70659 7.11385 6.75509 1.06055 1.10937 25.8277
3270709 5.25217 6.70659 7.11385 6.75509 1.06055 1.10937 25.8277
3270719 5.26087 6.76264 7.15569 6.76445 1.07013 1.09659 25.9436
3270728 5.26087 6.76264 7.15569 6.76445 1.07013 1.09659 25.9436
3270740 5.25217 6.72527 7.10338 6.69895 1.03635 1.06182 25.7798
3270748 5.31304 6.73462 7.09292 6.69895 0.994214 1.01253 25.8395
3270759 5.31304 6.73462 7.09292 6.69895 0.994214 1.01253 25.8395
3270769 5.27826 6.7533 6.99877 6.66153 1.10716 0.950929 25.6919
3270780 5.29565 6.74396 7.072 6.6896 1.0328 1.00111 25.8012
3270789 5.29565 6.74396 7.072 6.6896 1.0328 1.00111 25.8012
3270799 5.36522 6.80934 7.01969 6.6896 1.07599 0.889395 25.8838
3270809 5.36522 6.80934 7.01969 6.6896 1.07599 0.889395 25.8838
3270819 5.24348 6.74396 7.04062 6.68024 1.10869 1.0114 25.7083
3270829 5.28696 6.78132 7.05108 6.71767 1.12334 0.987228 25.837
3270849 5.23478 6.8 7.072 6.7738 1.22391 1.04964 25.8806
3270861 5.21739 6.77198 7.03015 6.80187 1.28411 1.07042 25.8214
3270879 5.28696 6.82802 7.05108 6.75509 1.20083 0.978654 25.9211
3270889 5.28696 6.82802 7.05108 6.75509 1.20083 0.978654 25.9211
3270899 5.24348 6.73462 7.03015 6.73638 1.16273 1.04203 25.7446
3270914 5.28696 6.76264 7.08246 6.78316 1.13484 1.05114 25.9152
3270923 5.28696 6.76264 7.08246 6.78316 1.13484 1.05114 25.9152
3270932 5.25217 6.8 6.98831 6.81123 1.32558 1.01388 25.8517
3270941 5.26957 6.78132 7.03015 6.76445 1.20528 1.012 25.8455
3270953 5.26957 6.78132 7.03015 6.76445 1.20528 1.012 25.8455
3270961 5.28696 6.82802 6.98831 6.74573 1.25584 0.93953 25.849
3270971 5.22609 6.82802 7.05108 6.74573 1.25391 1.0112 25.8509
3270981 5.22609 6.78132 7.05108 6.71767 1.18503 1.02498 25.7761
3270992 5.21739 6.82802 7.072 6.71767 1.21569 1.01272 25.8351
3271003 5.21739 6.82802 7.072 6.71767 1.21569 1.01272 25.8351
3271012 5.24348 6.81868 6.96738 6.72702 1.29563 0.950582 25.7566
3271022 5.22609 6.79066 7.03015 6.7738 1.26664 1.03824 25.8207
3271032 5.22609 6.79066 7.03015 6.7738 1.26664 1.03824 25.8207
3271042 5.28696 6.85604 7.00923 6.78316 1.29458 0.953942 25.9354
3271052 5.28696 6.85604 7.00923 6.78316 1.29458 0.953942 25.9354
3271063 5.2087 6.78132 6.97785 6.85801 1.40633 1.07209 25.8259
3271072 5.1913 6.76264 7.12431 6.89543 1.29213 1.19301 25.9737
3271082 5.1913 6.76264 7.12431 6.89543 1.29213 1.19301 25.9737
3271092 5.2087 6.80934 7.04062 6.84865 1.35935 1.08342 25.9073
3271104 5.17391 6.79066 7.04062 6.7738 1.30914 1.07637 25.779
3271122 5.18261 6.78132 7.03015 6.86736 1.38809 1.12151 25.8614
3271143 5.10435 6.70659 7.072 6.85801 1.34829 1.23484 25.7409
3271152 5.09565 6.69725 7.09292 6.97964 1.43851 1.32203 25.8655
3271163 5.09565 6.69725 7.09292 6.97964 1.43851 1.32203 25.8655
3271173 5.08696 6.71593 7.05108 6.97028 1.49876 1.28859 25.8242
3271183 5.06957 6.59451 7.14523 6.94221 1.28334 1.41159 25.7515
3271203 5.07826 6.59451 7.12431 7.0732 1.41585 1.46389 25.8703
3271214 5.03478 6.60385 7.19754 7.0732 1.39402 1.52384 25.9094
3271224 5.03478 6.60385 7.19754 7.0732 1.39402 1.52384 25.9094
3271234 4.9913 6.58517 7.15569 7.11998 1.50678 1.56614 25.8521
3271244 4.9913 6.58517 7.15569 7.11998 1.50678 1.56614 25.8521
3271254 4.98261 6.51044 7.26031 7.19483 1.40891 1.71231 25.9482
3271263 4.95652 6.44506 7.29169 7.23225 1.37807 1.80654 25.9255
3271273 4.95652 6.44506 7.29169 7.23225 1.37807 1.80654 25.9255
3271284 4.96522 6.40769 7.29169 7.28839 1.38632 1.85364 25.953
3271294 4.96522 6.40769 7.29169 7.28839 1.38632 1.85364 25.953
3271305 4.90435 6.35165 7.344 7.29774 1.35248 1.96103 25.8977
3271314 4.84348 6.27692 7.39631 7.32581 1.31852 2.09058 25.8425
3271334 4.88696 6.25824 7.40677 7.38195 1.29798 2.10739 25.9339
3271344 4.86957 6.23022 7.43815 7.44744 1.31799 2.18535 25.9854
3271365 4.85217 6.23022 7.43815 7.48487 1.36967 2.21528 26.0054
3271375 4.86957 6.23022 7.52185 7.48487 1.26757 2.2448 26.1065
3271385 4.86957 6.10879 7.52185 7.48487 1.15667 2.32539 25.9851
3271395 4.77391 6.09945 7.55323 7.51293 1.23869 2.42456 25.9395
3271405 4.77391 6.09945 7.55323 7.51293 1.23869 2.42456 25.9395
3271415 4.76522 6.02473 7.52185 7.52229 1.21927 2.47011 25.8341
3271426 4.77391 5.96868 7.58462 7.58778 1.15564 2.56404 25.915
3271436 4.77391 5.96868 7.58462 7.58778 1.15564 2.56404 25.915
3271446 4.76522 5.94066 7.55323 7.58778 1.17035 2.57389 25.8469
3271456 4.76522 5.94066 7.55323 7.58778 1.17035 2.57389 25.8469
3271466 4.73043 5.97802 7.68923 7.65327 1.16275 2.66826 26.051
3271477 4.77391 5.89396 7.64738 7.68134 1.10976 2.68931 25.9966
3271486 4.77391 5.89396 7.64738 7.68134 1.10976 2.68931 25.9966
3271496 4.67826 5.85659 7.69969 7.60649 1.04982 2.76962 25.841
3271505 4.70435 5.85659 7.71015 7.64392 1.04766 2.77434 25.915
3271525 4.74783 5.87527 7.68923 7.61585 1.01633 2.70862 25.9282
3271537 4.71304 5.87527 7.73108 7.61585 1.00925 2.75221 25.9352
3271552 4.71304 5.87527 7.73108 7.61585 1.00925 2.75221 25.9352
3271561 4.73913 5.86593 7.81477 7.68134 0.951469 2.81082 26.1012
3271569 4.73913 5.86593 7.81477 7.68134 0.951469 2.81082 26.1012
3271577 4.68696 5.80989 7.81477 7.65327 0.925711 2.87188 25.9649
3271587 4.66957 5.9033 7.76246 7.75619 1.17611 2.84333 26.0915
3271597 4.66957 5.9033 7.76246 7.75619 1.17611 2.84333 26.0915
3271607 4.70435 5.80989 7.81477 7.63456 0.890994 2.85116 25.9636
3271617 4.62609 5.78187 7.83569 7.62521 0.913543 2.92994 25.8689
3271627 4.62609 5.78187 7.83569 7.62521 0.913543 2.92994 25.8689
3271639 4.68696 5.78187 7.79385 7.70006 0.963998 2.90324 25.9627
3271647 4.68696 5.78187 7.79385 7.70006 0.963998 2.90324 25.9627
3271659 4.64348 5.6978 7.80431 7.66263 0.884065 2.97908 25.8082
3271667 4.65217 5.76319 7.86708 7.67199 0.882238 2.96117 25.9544
3271679 4.65217 5.76319 7.86708 7.67199 0.882238 2.96117 25.9544
3271687 4.71304 5.76319 7.89846 7.76555 0.877219 2.97689 26.1402
3271699 4.63478 5.71648 7.94031 7.73748 0.844127 3.06956 26.0291
3271708 4.63478 5.71648 7.94031 7.73748 0.844127 3.06956 26.0291
3271720 4.62609 5.63242 7.94031 7.75619 0.791961 3.14274 25.955
3271728 4.62609 5.63242 7.94031 7.75619 0.791961 3.14274 25.955
3271740 4.63478 5.63242 7.84615 7.79362 0.912011 3.11069 25.907
3271748 4.65217 5.61374 7.85662 7.7749 0.84936 3.1078 25.8974
3271760 4.65217 5.61374 7.85662 7.7749 0.84936 3.1078 25.8974
3271768 4.64348 5.76319 7.89846 7.72812 0.911692 3.00765 26.0332
3271780 4.64348 5.76319 7.89846 7.72812 0.911692 3.00765 26.0332
3271788 4.5913 5.70714 7.80431 7.73748 1.0149 3.04371 25.8402
3271801 4.61739 5.68846 7.92985 7.79362 0.897872 3.12203 26.0293
3271808 4.61739 5.68846 7.92985 7.79362 0.897872 3.12203 26.0293
3271818 4.6087 5.71648 7.86708 7.7749 0.977787 3.07127 25.9672
3271828 4.6087 5.70714 7.91938 7.81233 0.95152 3.11884 26.0476
3271838 4.6087 5.70714 7.91938 7.81233 0.95152 3.11884 26.0476
3271848 4.66957 5.71648 7.84615 7.75619 0.920561 3.01075 25.9884
3271868 4.64348 5.6978 7.83569 7.7749 0.957096 3.04563 25.9519
3271878 4.63478 5.76319 7.89846 7.70941 0.903019 3.00504 26.0058
3271891 4.63478 5.76319 7.89846 7.70941 0.903019 3.00504 26.0058
3271898 4.63478 5.74451 7.78338 7.70006 0.992155 2.96033 25.8627
3271909 4.64348 5.70714 7.80431 7.8404 1.05765 3.05483 25.9953
3271921 4.64348 5.70714 7.80431 7.8404 1.05765 3.05483 25.9953
3271929 4.63478 5.76319 7.86708 7.76555 0.986218 3.01644 26.0306
3271940 4.63478 5.76319 7.86708 7.76555 0.986218 3.01644 26.0306
3271949 4.64348 5.75385 7.83569 7.81233 1.04337 3.02397 26.0453
3271961 4.67826 5.75385 7.80431 7.83104 1.05718 2.9941 26.0675
3271969 4.67826 5.75385 7.80431 7.83104 1.05718 2.9941 26.0675
3271981 4.66087 5.81923 7.77292 7.72812 1.07151 2.8988 25.9811
3271992 4.63478 5.81923 7.752 7.78426 1.17035 2.93316 25.9903
3272001 4.63478 5.81923 7.752 7.78426 1.17035 2.93316 25.9903
3272009 4.66957 5.81923 7.74154 7.70006 1.06842 2.86505 25.9304
3272021 4.66957 5.81923 7.74154 7.70006 1.06842 2.86505 25.9304
3272029 4.62609 5.79121 7.67877 7.66263 1.11514 2.86744 25.7587
3272040 4.65217 5.86593 7.67877 7.6907 1.18367 2.81102 25.8876
3272060 4.69565 5.91264 7.66831 7.67199 1.17604 2.73541 25.9486
3272069 4.72174 5.97802 7.63692 7.66263 1.23272 2.6538 25.9993
3272080 4.72174 5.97802 7.63692 7.66263 1.23272 2.6538 25.9993
3272089 4.71304 5.96868 7.56369 7.65327 1.29854 2.62672 25.8987
3272109 4.70435 5.97802 7.64738 7.58778 1.17109 2.63497 25.9175
3272120 4.70435 6.03407 7.57415 7.58778 1.29665 2.56185 25.9003
3272141 4.7913 6.07143 7.55323 7.57843 1.25538 2.46337 25.9944
3272151 4.7913 6.07143 7.55323 7.51293 1.19541 2.4317 25.9289
3272161 4.7913 6.07143 7.55323 7.51293 1.19541 2.4317 25.9289
3272171 4.81739 6.01538 7.58462 7.55036 1.12037 2.48512 25.9677
3272180 4.81739 6.01538 7.58462 7.55036 1.12037 2.48512 25.9677
3272190 4.73043 5.98736 7.58462 7.541 1.17371 2.55838 25.8434
3272201 4.76522 6.01538 7.55323 7.58778 1.23904 2.52323 25.9216
3272219 4.76522 6.01538 7.55323 7.58778 1.23904 2.52323 25.9216
3272220 4.75652 6.06209 7.56369 7.62521 1.31412 2.52059 26.0075
3272231 4.7913 6.07143 7.58462 7.52229 1.17233 2.45142 25.9696
3272241 4.7913 6.07143 7.58462 7.52229 1.17233 2.45142 25.9696
3272252 4.85217 6.07143 7.49046 7.50358 1.18874 2.35579 25.9176
3272262 4.85217 6.07143 7.49046 7.50358 1.18874 2.35579 25.9176
3272272 4.73913 5.98736 7.58462 7.51293 1.139 2.53895 25.824
3272282 4.7913 6.08077 7.53231 7.48487 1.19936 2.40163 25.8892
3272292 4.7913 6.08077 7.53231 7.48487 1.19936 2.40163 25.8892
3272302 4.82609 6.03407 7.51138 7.47551 1.13369 2.3949 25.847
3272312 4.82609 6.08077 7.55323 7.41937 1.08273 2.35655 25.8795
3272323 4.82609 6.08077 7.55323 7.41937 1.08273 2.35655 25.8795
3272333 4.84348 6.10879 7.53231 7.41002 1.10354 2.31132 25.8946
3272343 4.84348 6.10879 7.53231 7.41002 1.10354 2.31132 25.8946
3272353 4.85217 6.12747 7.50092 7.38195 1.11776 2.26383 25.8625
3272363 4.88696 6.14615 7.54277 7.41937 1.09231 2.26716 25.9953
3272373 4.88696 6.14615 7.54277 7.41937 1.09231 2.26716 25.9953
3272383 4.87826 6.15549 7.55323 7.3913 1.07331 2.25811 25.9783
3272393 4.84348 6.2022 7.48 7.38195 1.2165 2.20954 25.9076
3272405 4.84348 6.2022 7.48 7.38195 1.2165 2.20954 25.9076
3272415 4.90435 6.22088 7.45908 7.26032 1.08124 2.08603 25.8446
3272435 4.89565 6.25824 7.48 7.27903 1.1207 2.08687 25.9129
3272443 4.93043 6.22088 7.50092 7.27903 1.03018 2.09899 25.9313
3272455 4.93043 6.22088 7.50092 7.27903 1.03018 2.09899 25.9313
3272463 4.93043 6.2956 7.48 7.18547 1.03378 1.9926 25.8915
3272475 4.96522 6.30494 7.49046 7.25096 1.05744 2.00176 26.0116
3272494 5 6.32363 7.43815 7.23225 1.07498 1.93128 25.994
3272504 5 6.32363 7.43815 7.23225 1.07498 1.93128 25.994
3272515 4.94783 6.34231 7.43815 7.16676 1.08427 1.92012 25.895
3272523 4.96522 6.41703 7.37538 7.20418 1.23317 1.84732 25.9618
3272535 4.96522 6.41703 7.37538 7.20418 1.23317 1.84732 25.9618
3272543 4.98261 6.37033 7.30215 7.11998 1.16929 1.78614 25.7751
3272555 4.9913 6.38901 7.42769 7.13869 1.06825 1.84189 25.9467
3272564 4.9913 6.38901 7.42769 7.13869 1.06825 1.84189 25.9467
3272575 4.98261 6.39835 7.37538 7.1574 1.15553 1.82441 25.9137
3272584 4.98261 6.39835 7.37538 7.1574 1.15553 1.82441 25.9137
3272595 4.96522 6.40769 7.29169 7.0732 1.18889 1.74373 25.7378
3272604 4.92174 6.36099 7.344 7.11062 1.17132 1.84861 25.7374
3272615 4.92174 6.36099 7.344 7.11062 1.17132 1.84861 25.7374
3272626 4.98261 6.40769 7.38585 7.11998 1.1191 1.80463 25.8961
3272634 5.0087 6.35165 7.42769 7.11062 0.990286 1.84062 25.8987
3272645 5.0087 6.35165 7.42769 7.11062 0.990286 1.84062 25.8987
3272654 5.03478 6.43571 7.39631 7.11998 1.0819 1.75808 25.9868
3272674 5.02609 6.40769 7.40677 7.10127 1.03703 1.77759 25.9418
3272684 4.96522 6.37967 7.38585 7.11998 1.11079 1.83415 25.8507
3272695 4.96522 6.37967 7.38585 7.11998 1.11079 1.83415 25.8507
3272705 5.03478 6.44506 7.38585 7.10127 1.08377 1.73717 25.9669
3272716 5.02609 6.43571 7.38585 7.09191 1.07528 1.74403 25.9396
3272728 5.02609 6.43571 7.38585 7.09191 1.07528 1.74403 25.9396
3272736 5.01739 6.48242 7.38585 7.03577 1.07532 1.69077 25.9214
3272746 5.01739 6.48242 7.38585 7.03577 1.07532 1.69077 25.9214
3272756 5 6.44506 7.39631 7.05449 1.06507 1.74105 25.8958
3272766 5.04348 6.51044 7.344 7.0732 1.15143 1.65373 25.9711
3272786 5.0087 6.53846 7.39631 7.05449 1.14234 1.67531 25.9979
3272796 5.03478 6.51978 7.38585 7.05449 1.10948 1.66519 25.9949
3272816 5.03478 6.5011 7.344 6.98899 1.07398 1.6219 25.8689
3272835 5.03478 6.5011 7.344 6.98899 1.07398 1.6219 25.8689
3272854 4.97391 6.44506 7.344 6.99835 1.09223 1.70219 25.7613
3272856 4.98261 6.4544 7.37538 7.02642 1.08637 1.72113 25.8388
3272857 4.98261 6.4544 7.37538 7.02642 1.08637 1.72113 25.8388
3272867 4.96522 6.46374 7.37538 7.04513 1.12987 1.73595 25.8495
3272877 4.98261 6.44506 7.36492 7.02642 1.08829 1.7218 25.819
3272897 5.01739 6.44506 7.45908 7.0732 1.00192 1.77141 25.9947
3272907 5.01739 6.44506 7.45908 7.0732 1.00192 1.77141 25.9947
3272918 5.01739 6.40769 7.41723 7.06384 1.00064 1.76946 25.9062
3272928 5.02609 6.36099 7.38585 7.04513 0.962684 1.76847 25.8181
3272948 4.95652 6.39835 7.41723 7.08255 1.07056 1.82457 25.8547
3272958 4.97391 6.37033 7.42769 6.98899 0.92943 1.78901 25.7609
3272968 4.97391 6.37033 7.42769 6.98899 0.92943 1.78901 25.7609
3272978 4.97391 6.37967 7.43815 7.11062 1.04066 1.85033 25.9024
3272988 4.97391 6.37967 7.43815 7.11062 1.04066 1.85033 25.9024
3272998 4.96522 6.37033 7.45908 7.14805 1.05433 1.89162 25.9427
3273008 4.97391 6.37967 7.49046 7.16676 1.04001 1.90515 26.0108
3273028 4.94783 6.37033 7.45908 7.08255 1.0112 1.86978 25.8598
3273038 5.01739 6.31429 7.46954 7.18547 0.974369 1.91829 25.9867
3273048 5.01739 6.31429 7.46954 7.18547 0.974369 1.91829 25.9867
3273058 5 6.34231 7.44862 7.14805 1.00403 1.88193 25.939
3273068 5 6.34231 7.44862 7.14805 1.00403 1.88193 25.939
3273079 4.97391 6.30494 7.46954 7.12933 0.957218 1.92444 25.8777
3273089 4.93043 6.32363 7.45908 7.16676 1.06344 1.95428 25.8799
3273109 4.93913 6.31429 7.45908 7.1574 1.03738 1.94999 25.8699
3273119 4.88696 6.30494 7.53231 7.19483 1.0422 2.04593 25.919
3273132 4.88696 6.30494 7.53231 7.19483 1.0422 2.04593 25.919
3273139 4.93913 6.34231 7.48 7.22289 1.10266 1.97511 25.9843
3273152 4.93913 6.34231 7.48 7.22289 1.10266 1.97511 25.9843
3273159 4.92174 6.2489 7.49046 7.20418 1.00606 2.04367 25.8653
3273169 4.94783 6.27692 7.44862 7.27903 1.11696 2.02461 25.9524
3273179 4.94783 6.27692 7.44862 7.27903 1.11696 2.02461 25.9524
3273190 4.89565 6.23956 7.44862 7.25096 1.10922 2.06952 25.8348
3273199 4.85217 6.2489 7.46954 7.28839 1.17519 2.12122 25.859
3273219 4.92174 6.2489 7.42769 7.36324 1.21594 2.09172 25.9616
3273229 4.92174 6.2489 7.42769 7.36324 1.21594 2.09172 25.9616
3273243 4.86957 6.23956 7.49046 7.31646 1.15372 2.14025 25.916
3273251 4.85217 6.23022 7.49046 7.35388 1.19709 2.17649 25.9267
3273270 4.86957 6.21154 7.42769 7.35388 1.22586 2.14622 25.8627
3273282 4.86087 6.23022 7.45908 7.41002 1.27145 2.18296 25.9602
3273301 4.91304 6.19286 7.44862 7.3071 1.10037 2.11693 25.8616
3273315 4.86087 6.19286 7.43815 7.34452 1.19827 2.16494 25.8364
3273323 4.86087 6.23022 7.43815 7.34452 1.23264 2.14015 25.8738
3273334 4.88696 6.2489 7.44862 7.38195 1.24707 2.13432 25.9664
3273342 4.88696 6.2489 7.44862 7.38195 1.24707 2.13432 25.9664
3273351 4.86087 6.23956 7.48 7.34452 1.19886 2.15473 25.925
3273361 4.88696 6.27692 7.41723 7.35388 1.27879 2.08631 25.935
3273374 4.88696 6.27692 7.41723 7.35388 1.27879 2.08631 25.935
3273382 4.91304 6.22088 7.41723 7.37259 1.21819 2.11538 25.9237
3273402 4.87826 6.23956 7.44862 7.40066 1.26443 2.15549 25.9671
3273412 4.89565 6.2956 7.42769 7.28839 1.2165 2.04082 25.9073
3273422 4.89565 6.2956 7.42769 7.28839 1.2165 2.04082 25.9073
3273432 4.82609 6.32363 7.43815 7.26032 1.2764 2.05939 25.8482
3273442 4.86957 6.31429 7.42769 7.28839 1.26006 2.0457 25.8999
3273455 4.86957 6.31429 7.42769 7.28839 1.26006 2.0457 25.8999
3273462 4.89565 6.2956 7.46954 7.25096 1.13981 2.04304 25.9118
3273471 4.89565 6.2956 7.46954 7.25096 1.13981 2.04304 25.9118
3273491 4.89565 6.32363 7.37538 7.22289 1.23509 1.9632 25.8176
3273495 4.88696 6.33297 7.39631 7.26032 1.26565 1.99217 25.8765
3273503 4.88696 6.33297 7.39631 7.26032 1.26565 1.99217 25.8765
3273515 4.89565 6.37033 7.37538 7.26032 1.31228 1.95145 25.9017
3273523 4.87826 6.30494 7.48 7.26968 1.17261 2.0629 25.9329
3273543 4.90435 6.35165 7.40677 7.25096 1.24595 1.96907 25.9137
3273554 4.87826 6.32363 7.50092 7.25096 1.15148 2.05172 25.9538
3273575 4.89565 6.33297 7.43815 7.25096 1.20586 2.00278 25.9177
3273594 4.93043 6.28626 7.44862 7.16676 1.03938 1.97352 25.8321
3273604 4.91304 6.34231 7.39631 7.19483 1.18757 1.93592 25.8465
3273614 4.91304 6.34231 7.39631 7.19483 1.18757 1.93592 25.8465
3273625 4.90435 6.28626 7.38585 7.20418 1.16391 1.97789 25.7806
3273634 4.88696 6.28626 7.46954 7.17611 1.07081 2.01738 25.8189
3273645 4.88696 6.27692 7.46954 7.17611 1.06215 2.02354 25.8095
3273654 4.89565 6.26758 7.48 7.28839 1.13791 2.08538 25.9316
3273664 4.89565 6.26758 7.48 7.28839 1.13791 2.08538 25.9316
3273676 4.90435 6.26758 7.52185 7.25096 1.05257 2.08186 25.9447
3273684 4.86087 6.28626 7.54277 7.22289 1.06658 2.09464 25.9128
3273706 4.89565 6.30494 7.53231 7.27903 1.11104 2.08216 26.0119
3273716 4.86957 6.26758 7.52185 7.20418 1.0443 2.08146 25.8632
3273726 4.86957 6.26758 7.52185 7.20418 1.0443 2.08146 25.8632
3273737 4.88696 6.2956 7.55323 7.23225 1.04712 2.08117 25.968
3273746 4.88696 6.2956 7.55323 7.23225 1.04712 2.08117 25.968
3273757 4.78261 6.25824 7.53231 7.28839 1.19068 2.19235 25.8615
3273766 4.88696 6.27692 7.56369 7.23225 1.01939 2.09866 25.9598
3273777 4.88696 6.27692 7.56369 7.23225 1.01939 2.09866 25.9598
3273787 4.85217 6.21154 7.56369 7.26032 1.01978 2.17881 25.8877
3273798 4.86087 6.23022 7.58462 7.20418 0.955296 2.14319 25.8799
3273817 4.90435 6.26758 7.56369 7.35388 1.10525 2.15353 26.0895
3273838 4.84348 6.2489 7.52185 7.3071 1.14836 2.16225 25.9213
3273848 4.86087 6.22088 7.63692 7.3071 0.989583 2.22603 26.0258
3273859 4.86087 6.22088 7.63692 7.3071 0.989583 2.22603 26.0258
3273868 4.83478 6.2489 7.56369 7.31646 1.12357 2.19332 25.9638
3273880 4.86087 6.2489 7.58462 7.28839 1.05051 2.17254 25.9828
3273889 4.86087 6.2489 7.58462 7.28839 1.05051 2.17254 25.9828
3273899 4.84348 6.18352 7.57415 7.28839 1.01805 2.22226 25.8895
3273908 4.84348 6.18352 7.57415 7.28839 1.01805 2.22226 25.8895
3273919 4.77391 6.16483 7.58462 7.32581 1.09493 2.30472 25.8492
3273928 4.8087 6.17418 7.63692 7.36324 1.05049 2.31918 25.983
3273939 4.8087 6.17418 7.63692 7.36324 1.05049 2.31918 25.983
3273948 4.7913 6.16483 7.59508 7.33517 1.07549 2.30282 25.8864
3273959 4.78261 6.2022 7.56369 7.32581 1.14178 2.26365 25.8743
3273968 4.78261 6.2022 7.56369 7.32581 1.14178 2.26365 25.8743
3273980 4.8 6.22088 7.58462 7.27903 1.07718 2.22687 25.8845
3274000 4.77391 6.19286 7.616 7.37259 1.13226 2.32427 25.9554
3274009 4.7913 6.19286 7.65785 7.34452 1.04692 2.3194 25.9865
3274021 4.7913 6.19286 7.65785 7.34452 1.04692 2.3194 25.9865
3274029 4.76522 6.15549 7.616 7.35388 1.08935 2.34593 25.8906
3274042 4.7913 6.2022 7.62646 7.38195 1.12144 2.31612 26.0019
3274049 4.7913 6.2022 7.62646 7.38195 1.12144 2.31612 26.0019
3274059 4.7913 6.2022 7.60554 7.35388 1.11667 2.29218 25.9529
3274069 4.7913 6.2022 7.60554 7.35388 1.11667 2.29218 25.9529
3274079 4.7913 6.14615 7.63692 7.37259 1.05072 2.35407 25.947
3274091 4.78261 6.18352 7.73108 7.41002 1.03405 2.39874 26.1072
3274103 4.78261 6.18352 7.73108 7.41002 1.03405 2.39874 26.1072
3274109 4.70435 6.08077 7.56369 7.37259 1.15208 2.42084 25.7214
3274129 4.78261 6.09011 7.63692 7.3913 1.02495 2.40658 25.9009
3274131 4.78261 6.09011 7.63692 7.3913 1.02495 2.40658 25.9009
3274142 4.78261 6.08077 7.60554 7.37259 1.03053 2.38846 25.8415
3274151 4.73043 6.08077 7.60554 7.4568 1.16102 2.46456 25.8735
3274162 4.73043 6.08077 7.60554 7.4568 1.16102 2.46456 25.8735
3274171 4.71304 6.2022 7.71015 7.48487 1.21012 2.45868 26.1103
3274190 4.76522 6.11813 7.66831 7.43808 1.07993 2.43733 25.9897
3274203 4.73043 6.02473 7.752 7.50358 1.00523 2.59532 26.0107
3274220 4.76522 6.09945 7.62646 7.49422 1.15641 2.45678 25.9853
3274240 4.73043 6.05275 7.65785 7.43808 1.0651 2.49975 25.8791
3274252 4.73043 6.05275 7.67877 7.41002 1.01805 2.49629 25.872
3274272 4.74783 6.05275 7.64738 7.44744 1.06677 2.48746 25.8954
3274282 4.78261 6.11813 7.66831 7.42873 1.05388 2.42115 25.9978
3274302 4.78261 6.09945 7.68923 7.4568 1.04158 2.45733 26.0281
3274322 4.74783 6.09011 7.64738 7.44744 1.10125 2.46227 25.9328
3274332 4.7913 6.10879 7.71015 7.46615 1.02918 2.45982 26.0764
3274352 4.74783 6.09011 7.616 7.42873 1.11562 2.438 25.8827
3274363 4.8 6.10879 7.60554 7.41937 1.08221 2.38076 25.9337
3274373 4.8 6.10879 7.60554 7.41937 1.08221 2.38076 25.9337
3274383 4.76522 6.14615 7.65785 7.38195 1.06454 2.38626 25.9512
3274393 4.77391 6.14615 7.63692 7.44744 1.13707 2.40207 26.0044
3274404 4.77391 6.11813 7.63692 7.44744 1.11133 2.42084 25.9764
3274413 4.78261 6.10879 7.64738 7.43808 1.07488 2.42181 25.9769
3274423 4.78261 6.10879 7.64738 7.43808 1.07488 2.42181 25.9769
3274433 4.8 6.07143 7.60554 7.42873 1.05635 2.41038 25.9057
3274443 4.72174 6.04341 7.65785 7.4568 1.08252 2.52098 25.8798
3274453 4.72174 6.04341 7.65785 7.4568 1.08252 2.52098 25.8798
3274463 4.78261 6.08077 7.616 7.4568 1.09785 2.43449 25.9362
3274473 4.78261 6.08077 7.57415 7.4568 1.14002 2.41418 25.8943
3274483 4.73913 6.08077 7.57415 7.42873 1.1581 2.42982 25.8228
3274493 4.72174 6.06209 7.68923 7.4568 1.06819 2.52346 25.9299
3274503 4.72174 6.06209 7.68923 7.4568 1.06819 2.52346 25.9299
3274515 4.73913 5.98736 7.62646 7.4568 1.04473 2.53205 25.8098
3274523 4.73913 6.00604 7.616 7.57843 1.18481 2.57285 25.9396
3274534 4.73913 6.00604 7.616 7.57843 1.18481 2.57285 25.9396
3274544 4.68696 6.05275 7.64738 7.52229 1.19715 2.56469 25.9094
3274554 4.68696 6.05275 7.64738 7.52229 1.19715 2.56469 25.9094
3274564 4.71304 5.95934 7.63692 7.51293 1.08657 2.60094 25.8222
3274574 4.72174 6.04341 7.74154 7.58778 1.11893 2.62365 26.0945
3274584 4.72174 6.04341 7.74154 7.58778 1.11893 2.62365 26.0945
3274594 4.69565 5.95 7.69969 7.53165 1.04949 2.65816 25.877
3274604 4.67826 6.06209 7.62646 7.55971 1.27001 2.57217 25.9265
3274617 4.67826 6.06209 7.62646 7.55971 1.27001 2.57217 25.9265
3274624 4.76522 6.09945 7.57415 7.49422 1.20917 2.43148 25.933
3274644 4.69565 6.07143 7.65785 7.53165 1.20353 2.55566 25.9566
3274654 4.73043 6.02473 7.66831 7.47551 1.06326 2.54179 25.899
3274664 4.73043 6.02473 7.66831 7.47551 1.06326 2.54179 25.899
3274674 4.72174 6.01538 7.66831 7.46615 1.05472 2.54952 25.8716
3274684 4.73913 6.03407 7.63692 7.52229 1.13786 2.53699 25.9324
3274694 4.73913 6.03407 7.63692 7.52229 1.13786 2.53699 25.9324
3274704 4.74783 6.03407 7.67877 7.47551 1.04389 2.52874 25.9362
3274714 4.74783 6.03407 7.67877 7.47551 1.04389 2.52874 25.9362
3274724 4.73913 5.9967 7.57415 7.48487 1.13228 2.51398 25.7949
3274734 4.76522 6.00604 7.57415 7.46615 1.09721 2.48089 25.8116
3274744 4.76522 6.00604 7.57415 7.46615 1.09721 2.48089 25.8116
3274754 4.73043 6.03407 7.58462 7.48487 1.16502 2.4996 25.834
3274773 4.74783 6.05275 7.60554 7.53165 1.18652 2.50789 25.9378
3274786 4.75652 6.05275 7.60554 7.541 1.18633 2.50653 25.9558
3274797 4.71304 6.02473 7.68923 7.51293 1.09424 2.58158 25.9399
3274807 4.71304 6.02473 7.68923 7.51293 1.09424 2.58158 25.9399
3274817 4.70435 6.09011 7.64738 7.47551 1.17092 2.50514 25.9174
3274827 4.70435 6.09011 7.64738 7.47551 1.17092 2.50514 25.9174
3274838 4.74783 6.05275 7.68923 7.49422 1.06788 2.53014 25.984
3274847 4.71304 6.05275 7.60554 7.44744 1.14413 2.49074 25.8188
3274857 4.71304 6.05275 7.60554 7.44744 1.14413 2.49074 25.8188
3274867 4.81739 6.04341 7.63692 7.46615 1.01607 2.45087 25.9639
3274877 4.74783 5.98736 7.66831 7.43808 0.97644 2.53731 25.8416
3274887 4.74783 5.98736 7.66831 7.43808 0.97644 2.53731 25.8416
3274897 4.75652 6.02473 7.66831 7.47551 1.03703 2.52414 25.9251
3274918 4.69565 6.02473 7.616 7.50358 1.1771 2.55372 25.84
3274928 4.73913 6.02473 7.66831 7.541 1.11489 2.56734 25.9732
3274938 4.73913 6.02473 7.66831 7.541 1.11489 2.56734 25.9732
3274948 4.68696 6.02473 7.65785 7.47551 1.11765 2.56626 25.845
3274959 4.71304 6.00604 7.63692 7.541 1.15561 2.58264 25.897
3274969 4.71304 6.00604 7.63692 7.541 1.15561 2.58264 25.897
3274979 4.77391 6.06209 7.72062 7.52229 1.04476 2.53475 26.0789
3274990 4.77391 6.06209 7.72062 7.52229 1.04476 2.53475 26.0789
3274999 4.73043 5.96868 7.616 7.47551 1.0641 2.55464 25.7906
3275009 4.76522 6.04341 7.68923 7.541 1.08488 2.54712 26.0389
3275019 4.76522 6.04341 7.68923 7.541 1.08488 2.54712 26.0389
3275029 4.68696 6.01538 7.68923 7.52229 1.12053 2.6101 25.9139
3275041 4.70435 5.96868 7.65785 7.57843 1.14333 2.64186 25.9093
3275051 4.70435 5.96868 7.65785 7.57843 1.14333 2.64186 25.9093
3275061 4.74783 6.06209 7.66831 7.56907 1.16617 2.54967 26.0473
3275071 4.72174 5.97802 7.66831 7.56907 1.11524 2.6242 25.9371
3275081 4.72174 5.97802 7.66831 7.56907 1.11524 2.6242 25.9371
3275091 4.71304 6.01538 7.73108 7.60649 1.12959 2.65239 26.066
3275102 4.71304 6.01538 7.73108 7.60649 1.12959 2.65239 26.066
3275121 4.68696 5.91264 7.67877 7.56907 1.07939 2.69751 25.8474
3275144 4.72174 5.95 7.69969 7.57843 1.06647 2.66266 25.9499
3275153 4.68696 5.92198 7.69969 7.61585 1.11013 2.72326 25.9245
3275165 4.68696 5.92198 7.69969 7.61585 1.11013 2.72326 25.9245
3275173 4.65217 5.88462 7.71015 7.65327 1.1347 2.79533 25.9002
3275193 4.61739 5.91264 7.67877 7.63456 1.21021 2.77632 25.8434
3275203 4.63478 5.91264 7.752 7.65327 1.13585 2.80772 25.9527
3275214 4.63478 5.91264 7.752 7.65327 1.13585 2.80772 25.9527
3275227 4.73913 5.9033 7.752 7.70006 1.06557 2.76474 26.0945
3275234 4.66957 5.9033 7.76246 7.6907 1.11616 2.81274 26.026
3275246 4.66957 5.9033 7.76246 7.6907 1.11616 2.81274 26.026
3275253 4.65217 5.94066 7.69969 7.65327 1.19679 2.75197 25.9458
3275266 4.65217 5.94066 7.69969 7.65327 1.19679 2.75197 25.9458
3275273 4.62609 5.85659 7.80431 7.62521 1.01439 2.86361 25.9122
3275287 4.6087 5.95934 7.74154 7.6907 1.2498 2.80624 26.0003
3275294 4.6087 5.95934 7.74154 7.6907 1.2498 2.80624 26.0003
3275307 4.65217 5.9033 7.76246 7.67199 1.11644 2.81589 25.9899
3275314 4.5913 5.94066 7.67877 7.67199 1.29679 2.79267 25.8827
3275334 4.66087 5.91264 7.76246 7.64392 1.09048 2.79035 25.9799
3275344 4.66087 5.91264 7.76246 7.64392 1.09048 2.79035 25.9799
3275357 4.63478 5.83791 7.72062 7.65327 1.09859 2.8444 25.8466
3275364 4.66087 5.89396 7.71015 7.66263 1.14315 2.78735 25.9276
3275374 4.66087 5.89396 7.71015 7.66263 1.14315 2.78735 25.9276
3275384 4.67826 5.91264 7.69969 7.63456 1.12752 2.74445 25.9252
3275400 4.67826 5.89396 7.72062 7.60649 1.06332 2.75387 25.8993
3275410 4.67826 5.89396 7.72062 7.60649 1.06332 2.75387 25.8993
3275416 4.64348 5.94066 7.752 7.65327 1.15283 2.78256 25.9894
3275426 4.64348 5.94066 7.752 7.65327 1.15283 2.78256 25.9894
3275436 4.69565 5.91264 7.71015 7.64392 1.1081 2.74192 25.9624
3275445 4.66957 5.86593 7.76246 7.65327 1.04733 2.82081 25.9512
3275466 4.64348 5.92198 7.69969 7.61585 1.15399 2.75304 25.881
3275476 4.61739 5.89396 7.67877 7.57843 1.14114 2.76258 25.7685
3275486 4.61739 5.89396 7.67877 7.57843 1.14114 2.76258 25.7685
3275496 4.70435 5.89396 7.77292 7.63456 1.01059 2.77391 26.0058
3275506 4.70435 5.89396 7.77292 7.63456 1.01059 2.77391 26.0058
3275516 4.6087 5.82857 7.76246 7.6907 1.10863 2.90603 25.8904
3275526 4.58261 5.82857 7.752 7.66263 1.11961 2.90608 25.8258
3275546 4.65217 5.79121 7.752 7.70941 1.05815 2.90566 25.9048
3275558 4.63478 5.81923 7.73108 7.73748 1.14847 2.90165 25.9226
3275567 4.63478 5.81923 7.73108 7.73748 1.14847 2.90165 25.9226
3275576 4.66087 5.83791 7.82523 7.76555 1.0707 2.9276 26.0896
3275587 4.66087 5.83791 7.82523 7.76555 1.0707 2.9276 26.0896
3275599 4.63478 5.78187 7.83569 7.78426 1.05203 2.99768 26.0366
3275607 4.58261 5.75385 7.82523 7.83104 1.13209 3.06998 25.9927
3275619 4.58261 5.75385 7.82523 7.83104 1.13209 3.06998 25.9927
3275627 4.6 5.72582 7.82523 7.81233 1.07163 3.06878 25.9634
3275637 4.54783 5.71648 7.84615 7.87782 1.15468 3.15123 25.9883
3275647 4.54783 5.71648 7.84615 7.87782 1.15468 3.15123 25.9883
3275657 4.58261 5.75385 7.81477 7.78426 1.09958 3.04365 25.9355
3275668 4.58261 5.75385 7.81477 7.78426 1.09958 3.04365 25.9355
3275680 4.54783 5.74451 7.85662 7.85911 1.15269 3.12791 26.0081
3275688 4.5913 5.75385 7.81477 7.81233 1.11667 3.05053 25.9722
3275708 4.56522 5.72582 7.86708 7.81233 1.06454 3.11221 25.9704
3275718 4.56522 5.80055 7.83569 7.76555 1.1218 3.0243 25.967
3275738 4.6 5.80055 7.83569 7.75619 1.07825 2.99587 25.9924
3275748 4.6 5.80055 7.73108 7.75619 1.18363 2.94736 25.8878
3275758 4.54783 5.72582 7.73108 7.75619 1.16757 3.03577 25.7609
3275770 4.6 5.79121 7.84615 7.76555 1.06777 3.01149 26.0029
3275779 4.6 5.79121 7.84615 7.76555 1.06777 3.01149 26.0029
3275789 4.63478 5.76319 7.74154 7.79362 1.138 2.9714 25.9331
3275799 4.56522 5.81923 7.89846 7.72812 1.04155 3.02303 26.011
3275809 4.56522 5.81923 7.89846 7.72812 1.04155 3.02303 26.011
3275819 4.64348 5.78187 7.77292 7.71877 1.04587 2.93225 25.917
3275829 4.64348 5.78187 7.77292 7.71877 1.04587 2.93225 25.917
3275839 4.66087 5.80989 7.752 7.73748 1.09254 2.89985 25.9602
3275851 4.61739 5.80055 7.80431 7.71877 1.0578 2.95197 25.941
3275860 4.61739 5.80055 7.80431 7.71877 1.0578 2.95197 25.941
3275872 4.66087 5.77253 7.80431 7.71877 0.988305 2.94128 25.9565
3275879 4.62609 5.79121 7.81477 7.72812 1.03859 2.96161 25.9602
3275899 4.62609 5.81923 7.76246 7.80297 1.18572 2.95269 26.0107
3275919 4.61739 5.74451 7.83569 7.70941 0.965792 3.00104 25.907
3275930 4.63478 5.77253 7.79385 7.72812 1.0336 2.95881 25.9293
3275940 4.63478 5.77253 7.79385 7.72812 1.0336 2.95881 25.9293
3275951 4.62609 5.76319 7.76246 7.71877 1.05661 2.95237 25.8705
3275961 4.62609 5.80055 7.79385 7.74684 1.08545 2.95412 25.9673
3275970 4.62609 5.80055 7.79385 7.74684 1.08545 2.95412 25.9673
3275980 4.64348 5.82857 7.71015 7.67199 1.10903 2.84872 25.8542
3275991 4.66087 5.84725 7.79385 7.72812 1.07631 2.88926 26.0301
3276001 4.66087 5.84725 7.79385 7.72812 1.07631 2.88926 26.0301
3276011 4.67826 5.85659 7.752 7.6907 1.075 2.8339 25.9776
3276040 4.67826 5.85659 7.80431 7.68134 1.01398 2.85398 26.0205
3276048 4.74783 5.87527 7.81477 7.66263 0.934187 2.78977 26.1005
3276054 4.74783 5.87527 7.81477 7.66263 0.934187 2.78977 26.1005
3276062 4.66957 5.89396 7.68923 7.63456 1.12963 2.75827 25.8873
3276072 4.68696 5.83791 7.74154 7.64392 1.01633 2.81389 25.9103
3276092 4.69565 5.92198 7.66831 7.65327 1.16743 2.72018 25.9392
3276104 4.69565 5.92198 7.66831 7.65327 1.16743 2.72018 25.9392
3276113 4.65217 5.9033 7.66831 7.50358 1.05568 2.69154 25.7274
3276126 4.73043 5.9033 7.71015 7.55036 0.978079 2.6802 25.8942
3276133 4.73043 5.9033 7.71015 7.55036 0.978079 2.6802 25.8942
3276147 4.74783 5.91264 7.63692 7.50358 0.999442 2.60458 25.801
3276153 4.73043 5.9967 7.67877 7.56907 1.11316 2.61061 25.975
3276163 4.73043 5.9967 7.67877 7.56907 1.11316 2.61061 25.975
3276173 4.76522 6.01538 7.71015 7.55036 1.04678 2.58048 26.0411
3276182 4.76522 6.01538 7.71015 7.55036 1.04678 2.58048 26.0411
3276193 4.72174 5.97802 7.69969 7.57843 1.09229 2.64361 25.9779
3276206 4.74783 5.95934 7.71015 7.55971 1.02117 2.63466 25.977
3276213 4.74783 5.95934 7.71015 7.55971 1.02117 2.63466 25.977
3276223 4.76522 6.05275 7.68923 7.52229 1.07627 2.53187 26.0295
3276233 4.78261 6.10879 7.60554 7.43808 1.11696 2.40152 25.935
3276247 4.78261 6.10879 7.60554 7.43808 1.11696 2.40152 25.935
3276253 4.77391 6.08077 7.58462 7.46615 1.14686 2.42966 25.9054
3276263 4.77391 6.08077 7.58462 7.46615 1.14686 2.42966 25.9054
3276273 4.7913 6.05275 7.62646 7.44744 1.04409 2.44802 25.918
3276283 4.81739 6.02473 7.63692 7.46615 0.998801 2.46344 25.9452
3276303 4.8 6.08077 7.56369 7.46615 1.14165 2.40196 25.9106
3276323 4.82609 6.08077 7.616 7.40066 1.00231 2.37804 25.9235
3276333 4.85217 6.10879 7.56369 7.40066 1.05455 2.3163 25.9253
3276343 4.85217 6.10879 7.56369 7.40066 1.05455 2.3163 25.9253
3276353 4.82609 6.13681 7.46954 7.38195 1.18455 2.25955 25.8144
3276363 4.81739 6.12747 7.49046 7.31646 1.10291 2.24958 25.7518
3276373 4.81739 6.12747 7.49046 7.31646 1.10291 2.24958 25.7518
3276383 4.89565 6.14615 7.53231 7.32581 1.00773 2.21023 25.8999
3276403 4.77391 6.23022 7.48 7.36324 1.29563 2.22795 25.8474
3276414 4.88696 6.19286 7.50092 7.28839 1.05663 2.15092 25.8691
3276433 4.87826 6.27692 7.45908 7.3071 1.20237 2.08958 25.9214
3276443 4.89565 6.21154 7.49046 7.28839 1.07569 2.12759 25.886
3276453 4.89565 6.21154 7.49046 7.28839 1.07569 2.12759 25.886
3276463 4.87826 6.27692 7.54277 7.26968 1.08363 2.11259 25.9676
3276473 4.87826 6.27692 7.54277 7.26968 1.08363 2.11259 25.9676
3276483 4.85217 6.15549 7.43815 7.27903 1.11196 2.163 25.7249
3276494 4.92174 6.25824 7.39631 7.27903 1.17889 2.02784 25.8553
3276515 4.88696 6.27692 7.48 7.26032 1.12944 2.07096 25.9042
3276523 4.87826 6.22088 7.46954 7.31646 1.14886 2.13647 25.8851
3276544 4.86957 6.21154 7.52185 7.36324 1.13933 2.19746 25.9662
3276554 4.86957 6.21154 7.52185 7.36324 1.13933 2.19746 25.9662
3276565 4.89565 6.22088 7.51138 7.33517 1.10639 2.15499 25.9631
3276574 4.87826 6.18352 7.51138 7.36324 1.11533 2.20511 25.9364
3276584 4.87826 6.18352 7.51138 7.36324 1.11533 2.20511 25.9364
3276597 4.86957 6.23956 7.43815 7.26032 1.15485 2.08622 25.8076
3276607 4.88696 6.19286 7.55323 7.33517 1.04728 2.19995 25.9682
3276617 4.88696 6.19286 7.55323 7.33517 1.04728 2.19995 25.9682
3276626 4.88696 6.18352 7.51138 7.34452 1.08933 2.19011 25.9264
3276638 4.88696 6.18352 7.51138 7.34452 1.08933 2.19011 25.9264
3276646 4.86957 6.18352 7.56369 7.34452 1.05425 2.22743 25.9613
3276656 4.83478 6.17418 7.58462 7.36324 1.0768 2.27622 25.9568
3276665 4.83478 6.17418 7.58462 7.36324 1.0768 2.27622 25.9568
3276675 4.85217 6.18352 7.55323 7.31646 1.05631 2.22 25.9054
3276690 4.82609 6.13681 7.54277 7.32581 1.05856 2.26798 25.8315
3276696 4.82609 6.13681 7.54277 7.32581 1.05856 2.26798 25.8315
3276708 4.84348 6.18352 7.63692 7.33517 0.998387 2.2761 25.9991
3276726 4.8087 6.07143 7.52185 7.36324 1.07133 2.33161 25.7652
3276736 4.8087 6.11813 7.60554 7.34452 1.01289 2.33214 25.8769
3276760 4.84348 6.12747 7.57415 7.43808 1.10449 2.33302 25.9832
3276767 4.87826 6.06209 7.56369 7.41937 1.00248 2.33923 25.9234
3276777 4.87826 6.06209 7.56369 7.41937 1.00248 2.33923 25.9234
3276787 4.77391 6.09011 7.65785 7.41937 1.03862 2.43619 25.9412
3276797 4.81739 6.06209 7.616 7.41002 1.00241 2.40096 25.9055
3276807 4.81739 6.06209 7.616 7.41002 1.00241 2.40096 25.9055
3276821 4.8087 6.00604 7.64738 7.44744 0.962389 2.4779 25.9096
3276828 4.8087 6.00604 7.64738 7.44744 0.962389 2.4779 25.9096
3276841 4.78261 6.02473 7.64738 7.48487 1.04049 2.50095 25.9396
3276848 4.84348 6.04341 7.65785 7.43808 0.943092 2.4299 25.9828
3276858 4.84348 6.04341 7.65785 7.43808 0.943092 2.4299 25.9828
3276868 4.8087 6.02473 7.67877 7.48487 0.982922 2.49848 25.9971
3276878 4.83478 6.00604 7.616 7.47551 0.993714 2.45872 25.9323
3276890 4.83478 6.00604 7.616 7.47551 0.993714 2.45872 25.9323
3276899 4.84348 5.97802 7.68923 7.50358 0.911894 2.52052 26.0143
3276912 4.84348 5.97802 7.68923 7.50358 0.911894 2.52052 26.0143
3276918 4.74783 6.00604 7.56369 7.47551 1.13406 2.49214 25.7931
3276928 4.84348 5.9967 7.62646 7.47551 0.965872 2.46421 25.9422
3276938 4.84348 5.9967 7.62646 7.47551 0.965872 2.46421 25.9422
3276949 4.81739 5.9967 7.57415 7.541 1.10508 2.48815 25.9293
3276959 4.77391 5.98736 7.65785 7.53165 1.04741 2.55959 25.9508
3276970 4.77391 5.98736 7.65785 7.53165 1.04741 2.55959 25.9508
3276979 4.78261 5.89396 7.67877 7.53165 0.931185 2.6271 25.887
3276999 4.74783 5.88462 7.616 7.541 1.02929 2.63164 25.7894
3277010 4.72174 5.96868 7.68923 7.58778 1.10282 2.64943 25.9674
3277030 4.73913 5.94066 7.62646 7.58778 1.1227 2.62674 25.894
3277039 4.73913 5.94066 7.67877 7.56907 1.05277 2.64277 25.9276
3277049 4.73913 5.91264 7.67877 7.56907 1.02686 2.66186 25.8996
3277059 4.72174 6.00604 7.62646 7.57843 1.19181 2.58965 25.9327
3277081 4.74783 5.95934 7.63692 7.57843 1.11198 2.60865 25.9225
3277091 4.72174 5.9033 7.66831 7.61585 1.08948 2.69738 25.9092
3277101 4.72174 5.9033 7.66831 7.61585 1.08948 2.69738 25.9092
3277111 4.73043 5.9033 7.68923 7.62521 1.06832 2.7058 25.9482
3277121 4.72174 5.9033 7.71015 7.63456 1.06467 2.72606 25.9698
3277131 4.72174 5.92198 7.71015 7.63456 1.08187 2.71332 25.9884
3277141 4.73913 5.92198 7.62646 7.65327 1.16579 2.67067 25.9408
3277152 4.73913 5.92198 7.62646 7.65327 1.16579 2.67067 25.9408
3277160 4.76522 5.9033 7.65785 7.55971 1.00435 2.636 25.8861
3277171 4.71304 5.93132 7.64738 7.63456 1.16238 2.68313 25.9263
3277181 4.71304 5.93132 7.64738 7.63456 1.16238 2.68313 25.9263
3277195 4.72174 5.95934 7.66831 7.56907 1.09802 2.6369 25.9185
3277201 4.72174 5.95934 7.66831 7.56907 1.09802 2.6369 25.9185
3277211 4.74783 5.93132 7.59508 7.60649 1.15425 2.62112 25.8807
3277223 4.72174 5.9967 7.66831 7.60649 1.16679 2.62935 25.9932
3277231 4.72174 5.9967 7.66831 7.60649 1.16679 2.62935 25.9932
3277240 4.69565 5.98736 7.60554 7.56907 1.21361 2.60557 25.8576
3277251 4.71304 5.92198 7.62646 7.63456 1.17492 2.67956 25.896
3277261 4.71304 5.92198 7.62646 7.63456 1.17492 2.67956 25.896
3277271 4.74783 5.95934 7.62646 7.59714 1.13976 2.61259 25.9308
3277281 4.74783 5.95934 7.62646 7.59714 1.13976 2.61259 25.9308
3277290 4.67826 5.97802 7.59508 7.541 1.20742 2.6053 25.7924
3277300 4.75652 5.98736 7.65785 7.56907 1.09937 2.58927 25.9708
3277329 4.8 6.02473 7.60554 7.52229 1.09958 2.4871 25.9526
3277336 4.76522 5.95934 7.64738 7.55971 1.0667 2.5929 25.9317
3277341 4.76522 5.95934 7.64738 7.55971 1.0667 2.5929 25.9317
3277352 4.7913 6.05275 7.60554 7.48487 1.09967 2.45601 25.9345
3277362 4.7913 6.05275 7.60554 7.48487 1.09967 2.45601 25.9345
3277372 4.78261 6.06209 7.55323 7.48487 1.16981 2.43022 25.8828
3277382 4.7913 6.13681 7.60554 7.50358 1.19401 2.40866 26.0372
3277392 4.7913 6.13681 7.60554 7.50358 1.19401 2.40866 26.0372
3277402 4.78261 6.06209 7.55323 7.43808 1.12666 2.40747 25.836
3277412 4.83478 6.11813 7.52185 7.41002 1.13147 2.30577 25.8848
3277422 4.83478 6.11813 7.52185 7.41002 1.13147 2.30577 25.8848
3277433 4.78261 6.11813 7.49046 7.32581 1.13823 2.28382 25.717
3277443 4.82609 6.11813 7.54277 7.37259 1.08458 2.30348 25.8596
3277453 4.82609 6.12747 7.54277 7.37259 1.09321 2.29724 25.8689
3277463 4.81739 6.10879 7.55323 7.35388 1.05682 2.31151 25.8333
3277473 4.81739 6.10879 7.55323 7.35388 1.05682 2.31151 25.8333
3277484 4.87826 6.12747 7.55323 7.40066 1.0561 2.28133 25.9596
3277493 4.81739 6.18352 7.54277 7.29774 1.0846 2.22875 25.8414
3277506 4.81739 6.18352 7.54277 7.29774 1.0846 2.22875 25.8414
3277513 4.91304 6.16483 7.59508 7.29774 0.918782 2.20341 25.9707
3277523 4.91304 6.16483 7.59508 7.29774 0.918782 2.20341 25.9707
3277533 4.87826 6.22088 7.49046 7.22289 1.04121 2.10027 25.8125
3277544 4.93913 6.30494 7.48 7.18547 1.03368 1.98077 25.9095
3277553 4.93913 6.30494 7.48 7.18547 1.03368 1.98077 25.9095
3277564 4.93913 6.34231 7.50092 7.16676 1.02991 1.95743 25.9491
3277574 4.92174 6.33297 7.48 7.11062 1.00777 1.93608 25.8453
3277584 4.92174 6.33297 7.48 7.11062 1.00777 1.93608 25.8453
3277594 4.91304 6.41703 7.53231 7.09191 1.02449 1.90381 25.9543
3277604 4.86957 6.33297 7.53231 7.14805 1.04233 2.01551 25.8829
3277625 4.93043 6.36099 7.55323 7.13869 0.977564 1.96308 25.9833
3277646 4.93043 6.2489 7.44862 7.25096 1.08275 2.04041 25.8789
3277655 4.88696 6.26758 7.55323 7.22289 1.01259 2.09496 25.9307
3277665 4.88696 6.26758 7.55323 7.22289 1.01259 2.09496 25.9307
3277676 4.90435 6.25824 7.51138 7.20418 1.01117 2.05944 25.8782
3277686 4.88696 6.18352 7.57415 7.18547 0.878701 2.14236 25.8301
3277697 4.88696 6.18352 7.57415 7.18547 0.878701 2.14236 25.8301
3277705 4.87826 6.2489 7.57415 7.20418 0.965691 2.11413 25.9055
3277719 4.87826 6.2489 7.57415 7.20418 0.965691 2.11413 25.9055
3277726 4.81739 6.19286 7.58462 7.18547 0.946769 2.18762 25.7803
3277737 4.84348 6.15549 7.64738 7.34452 0.970683 2.30443 25.9909
3277757 4.85217 6.16483 7.63692 7.33517 0.972432 2.28274 25.9891
3277767 4.88696 6.09945 7.65785 7.3071 0.830156 2.29961 25.9514
3277777 4.88696 6.09945 7.65785 7.3071 0.830156 2.29961 25.9514
3277787 4.8 6.16483 7.71015 7.36324 0.977328 2.36684 26.0382
3277797 4.8 6.16483 7.71015 7.36324 0.977328 2.36684 26.0382
3277807 4.73043 6.06209 7.66831 7.43808 1.0632 2.49848 25.8989
3277817 4.75652 6.05275 7.64738 7.40066 1.0147 2.45894 25.8573
3277827 4.75652 6.05275 7.64738 7.40066 1.0147 2.45894 25.8573
3277840 4.7913 6.08077 7.69969 7.38195 0.936013 2.43293 25.9537
3277847 4.77391 6.04341 7.67877 7.4568 1.00906 2.49582 25.9529
3277857 4.77391 6.04341 7.67877 7.4568 1.00906 2.49582 25.9529
3277867 4.70435 6.03407 7.74154 7.51293 1.05905 2.60613 25.9929
3277877 4.70435 6.03407 7.74154 7.51293 1.05905 2.60613 25.9929
3277887 4.73913 5.98736 7.72062 7.52229 1.01071 2.60869 25.9694
3277897 4.73913 5.97802 7.69969 7.55036 1.04897 2.61843 25.9672
3277907 4.73913 5.97802 7.69969 7.55036 1.04897 2.61843 25.9672
3277920 4.73043 5.96868 7.67877 7.57843 1.09598 2.63409 25.9563
3277927 4.73043 5.96868 7.67877 7.57843 1.09598 2.63409 25.9563
3277937 4.65217 5.91264 7.74154 7.61585 1.0944 2.77325 25.9222
3277952 4.69565 5.86593 7.80431 7.6907 1.01382 2.84002 26.0566
3277962 4.69565 5.86593 7.80431 7.6907 1.01382 2.84002 26.0566
3277971 4.68696 5.89396 7.80431 7.6907 1.04828 2.8268 26.0759
3277977 4.65217 5.81923 7.84615 7.79362 1.06709 2.96905 26.1112
3277997 4.64348 5.82857 7.87754 7.79362 1.05302 2.98305 26.1432
3278007 4.64348 5.82857 7.87754 7.79362 1.05302 2.98305 26.1432
3278017 4.6087 5.74451 7.78338 7.73748 1.05309 2.99586 25.8741
3278027 4.6087 5.72582 7.81477 7.75619 1.02155 3.03205 25.9055
3278048 4.62609 5.79121 7.78338 7.78426 1.1218 2.97308 25.9849
3278058 4.6087 5.77253 7.80431 7.81233 1.12687 3.02068 25.9979
3278069 4.6087 5.77253 7.80431 7.81233 1.12687 3.02068 25.9979
3278078 4.61739 5.77253 7.79385 7.72812 1.05107 2.97087 25.9119
3278088 4.6 5.6978 7.86708 7.71877 0.917077 3.06451 25.8836
3278098 4.6 5.6978 7.86708 7.71877 0.917077 3.06451 25.8836
3278108 4.6 5.71648 7.90892 7.8404 1.00511 3.12642 26.0658
3278119 4.6 5.71648 7.90892 7.8404 1.00511 3.12642 26.0658
3278129 4.56522 5.77253 7.81477 7.82168 1.16868 3.05998 25.9742
3278139 4.57391 5.74451 7.82523 7.84975 1.14944 3.09111 25.9934
3278151 4.57391 5.74451 7.82523 7.84975 1.14944 3.09111 25.9934
3278159 4.65217 5.75385 7.79385 7.81233 1.07656 2.99868 26.0122
3278172 4.65217 5.75385 7.79385 7.81233 1.07656 2.99868 26.0122
3278181 4.6087 5.68846 7.85662 7.81233 0.996953 3.10315 25.9661
3278189 4.6087 5.70714 7.79385 7.7749 1.04261 3.04404 25.8846
3278199 4.6087 5.70714 7.79385 7.7749 1.04261 3.04404 25.8846
3278209 4.6 5.72582 7.74154 7.81233 1.15594 3.0302 25.8797
3278219 4.63478 5.6978 7.76246 7.86846 1.12564 3.06103 25.9635
3278229 4.63478 5.6978 7.76246 7.86846 1.12564 3.06103 25.9635
3278239 4.5913 5.70714 7.72062 7.83104 1.18594 3.04827 25.8501
3278249 4.6 5.68846 7.66831 7.82168 1.20434 3.02667 25.7785
3278271 4.63478 5.77253 7.77292 7.89653 1.20927 3.02692 26.0768
3278291 4.63478 5.73516 7.76246 7.83104 1.12559 3.01783 25.9634
3278301 4.65217 5.70714 7.77292 7.78426 1.0286 3.00843 25.9165
3278322 4.6087 5.70714 7.752 7.81233 1.11937 3.042 25.8802
3278332 4.6 5.71648 7.71015 7.79362 1.16183 3.0135 25.8203
3278342 4.6 5.71648 7.71015 7.79362 1.16183 3.0135 25.8203
3278352 4.66087 5.80055 7.71015 7.76555 1.15189 2.89987 25.9371
3278362 4.66087 5.80055 7.71015 7.76555 1.15189 2.89987 25.9371
3278372 4.61739 5.71648 7.752 7.81233 1.11921 3.02943 25.8982
3278383 4.66957 5.78187 7.73108 7.7749 1.11349 2.92087 25.9574
3278403 4.5913 5.78187 7.74154 7.75619 1.16464 2.97123 25.8709
3278413 4.63478 5.88462 7.69969 7.71877 1.22303 2.83315 25.9379
3278423 4.63478 5.88462 7.69969 7.71877 1.22303 2.83315 25.9379
3278434 4.64348 5.88462 7.62646 7.68134 1.25409 2.77504 25.8359
3278444 4.67826 5.9033 7.59508 7.6907 1.27638 2.72789 25.8673
3278454 4.67826 5.9033 7.59508 7.6907 1.27638 2.72789 25.8673
3278464 4.70435 5.94066 7.68923 7.67199 1.1719 2.72024 26.0062
3278484 4.68696 5.87527 7.68923 7.66263 1.12074 2.77241 25.9141
3278494 4.76522 5.91264 7.65785 7.63456 1.08214 2.66529 25.9703
3278514 4.71304 6.00604 7.60554 7.65327 1.29027 2.6213 25.9779
3278525 4.73043 6.00604 7.66831 7.64392 1.20085 2.63492 26.0487
3278535 4.73043 5.95934 7.66831 7.64392 1.1581 2.66659 26.002
3278548 4.73043 5.9967 7.59508 7.58778 1.21475 2.57954 25.91
3278564 4.74783 5.93132 7.58462 7.64392 1.19925 2.634 25.9077
3278574 4.76522 5.9967 7.59508 7.56907 1.16242 2.54699 25.9261
3278594 4.74783 6.01538 7.57415 7.61585 1.26117 2.55852 25.9532
3278613 4.74783 6.01538 7.57415 7.61585 1.26117 2.55852 25.9532
3278614 4.75652 6.04341 7.616 7.58778 1.21008 2.54032 26.0037
3278626 4.8 6.06209 7.63692 7.55971 1.13674 2.49507 26.0587
3278636 4.8 6.06209 7.63692 7.55971 1.13674 2.49507 26.0587
3278646 4.76522 5.9967 7.58462 7.4568 1.06931 2.48775 25.8033
3278655 4.8087 6.08077 7.51138 7.49422 1.21153 2.38432 25.8951
3278665 4.8087 6.08077 7.51138 7.49422 1.21153 2.38432 25.8951
3278676 4.7913 6.09945 7.44862 7.46615 1.2843 2.33904 25.8055
3278686 4.7913 6.09945 7.44862 7.46615 1.2843 2.33904 25.8055
3278697 4.75652 6.06209 7.43815 7.3913 1.22691 2.3457 25.6481
3278705 4.81739 6.17418 7.51138 7.40066 1.20259 2.27023 25.9036
3278726 4.83478 6.15549 7.50092 7.34452 1.12665 2.23828 25.8357
3278736 4.82609 6.14615 7.48 7.37259 1.17393 2.25385 25.8248
3278747 4.82609 6.14615 7.48 7.37259 1.17393 2.25385 25.8248
3278757 4.8087 6.16483 7.51138 7.37259 1.17698 2.26846 25.8575
3278767 4.86087 6.23022 7.50092 7.32581 1.15195 2.16201 25.9178
3278780 4.86087 6.23022 7.50092 7.32581 1.15195 2.16201 25.9178
3278787 4.82609 6.23022 7.50092 7.3913 1.24719 2.21742 25.9485
3278796 4.82609 6.23022 7.50092 7.3913 1.24719 2.21742 25.9485
3278807 4.86087 6.11813 7.51138 7.35388 1.06383 2.25559 25.8443
3278817 4.90435 6.18352 7.52185 7.37259 1.08719 2.19759 25.9823
3278827 4.90435 6.18352 7.52185 7.37259 1.08719 2.19759 25.9823
3278837 4.86957 6.23956 7.50092 7.33517 1.16037 2.15471 25.9452
3278857 4.86087 6.15549 7.49046 7.31646 1.08489 2.20182 25.8233
3278867 4.95652 6.2022 7.58462 7.37259 0.989485 2.18171 26.1159
3278877 4.95652 6.2022 7.58462 7.37259 0.989485 2.18171 26.1159
3278887 4.82609 6.17418 7.49046 7.33517 1.15465 2.22182 25.8259
3278903 4.86087 6.21154 7.45908 7.34452 1.19427 2.16292 25.876
3278907 4.86087 6.21154 7.45908 7.34452 1.19427 2.16292 25.876
3278917 4.86957 6.19286 7.43815 7.32581 1.1722 2.14986 25.8264
3278927 4.86957 6.19286 7.43815 7.32581 1.1722 2.14986 25.8264
3278937 4.84348 6.11813 7.45908 7.28839 1.07352 2.20886 25.7091
3278948 4.87826 6.19286 7.50092 7.3071 1.0827 2.16598 25.8791
3278968 4.88696 6.15549 7.51138 7.32581 1.04615 2.19946 25.8796
3278978 4.86087 6.17418 7.50092 7.27903 1.05696 2.17601 25.815
3278988 4.86087 6.17418 7.50092 7.27903 1.05696 2.17601 25.815
3279002 4.89565 6.19286 7.57415 7.36324 1.04347 2.2183 26.0259
3279009 4.88696 6.16483 7.50092 7.34452 1.08262 2.19733 25.8972
3279028 4.86087 6.13681 7.56369 7.3913 1.06305 2.28723 25.9527
3279039 4.86087 6.13681 7.56369 7.3913 1.06305 2.28723 25.9527
3279049 4.85217 6.13681 7.55323 7.38195 1.07367 2.28331 25.9242
3279059 4.85217 6.09945 7.56369 7.37259 1.01995 2.3088 25.8879
3279069 4.85217 6.09945 7.56369 7.37259 1.01995 2.3088 25.8879
3279079 4.87826 6.11813 7.59508 7.35388 0.962284 2.28513 25.9454
3279090 4.87826 6.11813 7.59508 7.35388 0.962284 2.28513 25.9454
3279099 4.8 6.10879 7.57415 7.42873 1.12244 2.37003 25.9117
3279110 4.86087 6.09945 7.57415 7.42873 1.0526 2.33555 25.9632
3279119 4.86087 6.09945 7.57415 7.42873 1.0526 2.33555 25.9632
3279130 4.84348 6.05275 7.62646 7.41937 0.965789 2.39935 25.9421
3279139 4.81739 6.10879 7.65785 7.49422 1.08114 2.43069 26.0782
3279161 4.82609 6.03407 7.55323 7.49422 1.10872 2.42436 25.9076
3279171 4.8 6.01538 7.59508 7.47551 1.05831 2.46574 25.886
3279191 4.85217 6.01538 7.63692 7.47551 0.964007 2.45085 25.98
3279201 4.85217 6.01538 7.63692 7.47551 0.964007 2.45085 25.98
3279217 4.77391 5.98736 7.57415 7.47551 1.07978 2.49219 25.8109
3279223 4.82609 5.94066 7.65785 7.55971 0.977936 2.56933 25.9843
3279232 4.82609 5.94066 7.65785 7.55971 0.977936 2.56933 25.9843
3279250 4.8087 5.97802 7.66831 7.49422 0.958833 2.52944 25.9492
3279252 4.76522 6.01538 7.67877 7.541 1.0696 2.56102 26.0004
3279272 4.82609 5.95934 7.65785 7.55036 0.986555 2.55223 25.9936
3279282 4.82609 5.95934 7.65785 7.55036 0.986555 2.55223 25.9936
3279292 4.78261 5.94066 7.68923 7.49422 0.929338 2.58245 25.9067
3279302 4.71304 5.85659 7.64738 7.55036 1.01536 2.69416 25.7674
3279313 4.71304 5.85659 7.64738 7.55036 1.01536 2.69416 25.7674
3279324 4.75652 5.97802 7.616 7.50358 1.07244 2.5441 25.8541
3279333 4.78261 5.9033 7.68923 7.59714 0.99009 2.65695 25.9723
3279343 4.78261 5.9033 7.68923 7.59714 0.99009 2.65695 25.9723
3279353 4.8087 5.93132 7.69969 7.58778 0.970811 2.62076 26.0275
3279363 4.70435 5.85659 7.68923 7.62521 1.05141 2.75561 25.8754
3279373 4.70435 5.85659 7.68923 7.62521 1.05141 2.75561 25.8754
3279383 4.73043 5.9033 7.69969 7.63456 1.06644 2.71518 25.968
3279393 4.73043 5.9033 7.69969 7.63456 1.06644 2.71518 25.968
3279404 4.71304 5.87527 7.65785 7.58778 1.05691 2.70418 25.8339
3279414 4.74783 5.84725 7.74154 7.65327 0.972649 2.77015 25.9899
3279427 4.74783 5.84725 7.74154 7.65327 0.972649 2.77015 25.9899
3279434 4.77391 5.9033 7.71015 7.60649 0.986505 2.67723 25.9939
3279444 4.71304 5.9033 7.60554 7.56907 1.1184 2.65109 25.7909
3279454 4.71304 5.83791 7.60554 7.56907 1.05771 2.69595 25.7256
3279465 4.75652 5.94066 7.71015 7.67199 1.09854 2.69464 26.0793
3279486 4.76522 5.97802 7.55323 7.57843 1.19614 2.54402 25.8749
3279494 4.78261 6.00604 7.68923 7.58778 1.07612 2.58292 26.0657
3279514 4.75652 5.96868 7.62646 7.58778 1.13098 2.59588 25.9394
3279526 4.78261 5.96868 7.54277 7.57843 1.18053 2.53352 25.8725
3279536 4.78261 5.93132 7.54277 7.57843 1.14608 2.55888 25.8351
3279547 4.76522 5.93132 7.67877 7.58778 1.03523 2.6403 25.9631
3279556 4.76522 5.93132 7.67877 7.58778 1.03523 2.6403 25.9631
3279569 4.74783 5.92198 7.59508 7.58778 1.12837 2.61852 25.8527
3279575 4.72174 5.9033 7.64738 7.59714 1.09328 2.67853 25.8696
3279597 4.71304 5.93132 7.66831 7.59714 1.10683 2.67529 25.9098
3279610 4.69565 5.9033 7.69969 7.64392 1.11002 2.74337 25.9426
3279617 4.69565 5.9033 7.69969 7.64392 1.11002 2.74337 25.9426
3279630 4.69565 5.94066 7.66831 7.70006 1.22743 2.72954 26.0047
3279638 4.71304 5.94066 7.62646 7.70006 1.25211 2.69791 25.9802
3279648 4.71304 5.91264 7.62646 7.6907 1.2179 2.71259 25.9428
3279658 4.70435 5.89396 7.64738 7.68134 1.17982 2.73677 25.927
3279668 4.70435 5.89396 7.64738 7.68134 1.17982 2.73677 25.927
3279678 4.67826 5.92198 7.63692 7.74684 1.30237 2.76142 25.984
3279688 4.67826 5.94066 7.64738 7.66263 1.23187 2.71382 25.9289
3279698 4.67826 5.94066 7.64738 7.66263 1.23187 2.71382 25.9289
3279708 4.65217 5.95934 7.71015 7.68134 1.22905 2.75736 26.003
3279719 4.65217 5.95934 7.71015 7.68134 1.22905 2.75736 26.003
3279728 4.67826 5.89396 7.54277 7.64392 1.27805 2.68711 25.7589
3279741 4.66957 5.94066 7.616 7.71877 1.32382 2.73148 25.945
3279748 4.66957 5.94066 7.616 7.71877 1.32382 2.73148 25.945
3279759 4.69565 5.91264 7.62646 7.70006 1.24406 2.7289 25.9348
3279768 4.69565 5.96868 7.62646 7.60649 1.20965 2.6462 25.8973
3279779 4.69565 5.96868 7.62646 7.60649 1.20965 2.6462 25.8973
3279788 4.70435 6.02473 7.616 7.6907 1.33958 2.63731 26.0358
3279800 4.70435 6.02473 7.616 7.6907 1.33958 2.63731 26.0358
3279808 4.66087 5.93132 7.616 7.60649 1.22115 2.69051 25.8147
3279820 4.68696 5.95 7.57415 7.56907 1.21989 2.62194 25.7802
3279828 4.68696 5.95 7.57415 7.56907 1.21989 2.62194 25.7802
3279841 4.73043 5.9967 7.51138 7.59714 1.30829 2.5438 25.8357
3279851 4.74783 6.05275 7.62646 7.59714 1.2254 2.54938 26.0242
3279862 4.74783 6.05275 7.62646 7.59714 1.2254 2.54938 26.0242
3279868 4.70435 6.00604 7.56369 7.56907 1.26443 2.56685 25.8432
3279878 4.70435 6.00604 7.56369 7.56907 1.26443 2.56685 25.8432
3279888 4.75652 6.04341 7.51138 7.55036 1.28168 2.47189 25.8617
3279904 4.73913 6.13681 7.53231 7.52229 1.33786 2.41722 25.9305
3279909 4.73913 6.13681 7.53231 7.52229 1.33786 2.41722 25.9305
3279919 4.71304 6.03407 7.50092 7.51293 1.29366 2.48443 25.761
3279929 4.74783 6.09011 7.44862 7.49422 1.34586 2.38835 25.7808
3279939 4.74783 6.09011 7.44862 7.49422 1.34586 2.38835 25.7808
3279949 4.8087 6.09945 7.50092 7.51293 1.25643 2.37581 25.922
3279969 4.7913 6.10879 7.56369 7.46615 1.1762 2.38899 25.9299
3279979 4.8 6.07143 7.58462 7.48487 1.12918 2.42747 25.9409
3279990 4.8 6.07143 7.58462 7.48487 1.12918 2.42747 25.9409
3279999 4.81739 6.12747 7.53231 7.47551 1.20727 2.34828 25.9527
3280010 4.74783 6.15549 7.53231 7.4568 1.28624 2.36698 25.8924
3280031 4.81739 6.18352 7.51138 7.48487 1.28822 2.30526 25.9972
3280054 4.81739 6.18352 7.49046 7.40066 1.23235 2.25371 25.892
3280060 4.82609 6.16483 7.45908 7.37259 1.21237 2.23104 25.8226
3280074 4.82609 6.16483 7.45908 7.37259 1.21237 2.23104 25.8226
3280081 4.8 6.19286 7.48 7.40066 1.26917 2.25393 25.8735
3280094 4.78261 6.14615 7.45908 7.3913 1.25661 2.28186 25.7791
3280103 4.78261 6.14615 7.45908 7.3913 1.25661 2.28186 25.7791
3280121 4.84348 6.17418 7.51138 7.40066 1.17623 2.25286 25.9297
3280131 4.83478 6.23956 7.46954 7.34452 1.23585 2.16683 25.8884
3280141 4.84348 6.23956 7.51138 7.27903 1.12444 2.14933 25.8735
3280151 4.84348 6.23956 7.51138 7.27903 1.12444 2.14933 25.8735
3280161 4.84348 6.23022 7.50092 7.24161 1.09178 2.1317 25.8162
3280173 4.84348 6.19286 7.46954 7.27903 1.1236 2.15954 25.7849
3280192 4.81739 6.23022 7.48 7.26968 1.16534 2.15259 25.7973
3280204 4.81739 6.23022 7.48 7.26968 1.16534 2.15259 25.7973
3280212 4.93043 6.25824 7.49046 7.24161 1.04063 2.05051 25.9207
3280224 4.90435 6.2489 7.49046 7.27903 1.09279 2.09251 25.9227
3280232 4.90435 6.2489 7.49046 7.27903 1.09279 2.09251 25.9227
3280244 4.87826 6.23956 7.50092 7.25096 1.07398 2.10714 25.8697
3280253 4.93913 6.2489 7.53231 7.31646 1.05036 2.10898 26.0368
3280266 4.93913 6.2489 7.53231 7.31646 1.05036 2.10898 26.0368
3280276 4.88696 6.17418 7.56369 7.29774 0.984925 2.19903 25.9226
3280287 4.88696 6.17418 7.56369 7.29774 0.984925 2.19903 25.9226
3280293 4.83478 6.18352 7.54277 7.32581 1.093 2.23102 25.8869
3280303 4.87826 6.22088 7.56369 7.33517 1.07132 2.19231 25.998
3280313 4.87826 6.22088 7.56369 7.33517 1.07132 2.19231 25.998
3280323 4.82609 6.19286 7.51138 7.26032 1.0815 2.18263 25.7906
3280333 4.82609 6.2022 7.58462 7.32581 1.07687 2.24499 25.9387
3280343 4.82609 6.2022 7.58462 7.32581 1.07687 2.24499 25.9387
3280353 4.86957 6.23956 7.60554 7.3071 1.02948 2.1925 26.0218
3280368 4.8087 6.23956 7.58462 7.3071 1.11156 2.22251 25.94
3280374 4.8087 6.16483 7.58462 7.3071 1.04254 2.27227 25.8652
3280389 4.82609 6.22088 7.62646 7.33517 1.06071 2.25771 26.0086
3280394 4.82609 6.22088 7.62646 7.33517 1.06071 2.25771 26.0086
3280404 4.8 6.18352 7.58462 7.34452 1.10315 2.28399 25.9127
3280414 4.85217 6.19286 7.65785 7.35388 0.994673 2.28349 26.0568
3280424 4.85217 6.19286 7.65785 7.35388 0.994673 2.28349 26.0568
3280434 4.85217 6.22088 7.65785 7.37259 1.03765 2.27405 26.1035
3280444 4.85217 6.22088 7.65785 7.37259 1.03765 2.27405 26.1035
3280454 4.78261 6.18352 7.60554 7.38195 1.13406 2.32416 25.9536
3280464 4.82609 6.21154 7.60554 7.33517 1.07309 2.25365 25.9783
3280484 4.86087 6.15549 7.616 7.29774 0.941345 2.25455 25.9301
3280496 4.83478 6.21154 7.63692 7.28839 0.989753 2.24032 25.9716
3280505 4.83478 6.21154 7.63692 7.28839 0.989753 2.24032 25.9716
3280515 4.86957 6.19286 7.53231 7.26032 1.01654 2.16411 25.855
3280535 4.76522 6.2022 7.54277 7.21354 1.07659 2.20937 25.7237
3280546 4.78261 6.13681 7.56369 7.33517 1.09 2.31199 25.8183
3280556 4.78261 6.13681 7.56369 7.33517 1.09 2.31199 25.8183
3280566 4.84348 6.11813 7.60554 7.35388 0.986645 2.31346 25.921
3280575 4.82609 6.15549 7.62646 7.3071 0.974378 2.28745 25.9151
3280586 4.82609 6.15549 7.62646 7.3071 0.974378 2.28745 25.9151
3280597 4.87826 6.19286 7.64738 7.41002 1.0307 2.28847 26.1285
3280605 4.87826 6.19286 7.64738 7.41002 1.0307 2.28847 26.1285
3280617 4.84348 6.22088 7.67877 7.3071 0.965184 2.25805 26.0502
3280626 4.83478 6.18352 7.66831 7.31646 0.958428 2.28808 26.0031
3280639 4.83478 6.18352 7.66831 7.31646 0.958428 2.28808 26.0031
3280646 4.7913 6.17418 7.58462 7.33517 1.09466 2.29144 25.8853
3280656 4.84348 6.10879 7.64738 7.32581 0.91005 2.32643 25.9255
3280677 4.8 6.21154 7.69969 7.36324 1.03078 2.33066 26.0745
3280687 4.8 6.10879 7.616 7.36324 1.0198 2.35849 25.888
3280697 4.8 6.10879 7.616 7.36324 1.0198 2.35849 25.888
3280708 4.7913 6.14615 7.67877 7.3913 1.02604 2.38351 26.0075
3280718 4.7913 6.14615 7.67877 7.3913 1.02604 2.38351 26.0075
3280728 4.78261 6.09011 7.60554 7.37259 1.03919 2.38217 25.8508
3280738 4.75652 6.08077 7.68923 7.41937 1.01595 2.46936 25.9459
3280748 4.75652 6.08077 7.68923 7.41937 1.01595 2.46936 25.9459
3280758 4.7913 6.05275 7.67877 7.41937 0.965655 2.45975 25.9422
3280768 4.8 6.06209 7.65785 7.38195 0.951853 2.41935 25.9019
3280778 4.8 6.06209 7.65785 7.38195 0.951853 2.41935 25.9019
3280788 4.7913 6.04341 7.68923 7.41937 0.946531 2.4711 25.9433
3280798 4.7913 6.04341 7.68923 7.41937 0.946531 2.4711 25.9433
3280807 4.75652 6.06209 7.64738 7.42873 1.04935 2.46624 25.8947
3280818 4.73913 6.09945 7.616 7.44744 1.15026 2.44664 25.902
3280829 4.73913 6.09945 7.616 7.44744 1.15026 2.44664 25.902
3280838 4.8087 6.08077 7.62646 7.4568 1.06112 2.42204 25.9727
3280851 4.8087 6.08077 7.62646 7.4568 1.06112 2.42204 25.9727
3280858 4.73913 6.07143 7.66831 7.51293 1.13201 2.52234 25.9918
3280872 4.76522 6.06209 7.67877 7.46615 1.04367 2.4936 25.9722
3280888 4.76522 6.05275 7.66831 7.49422 1.07142 2.50836 25.9805
3280898 4.73043 6.03407 7.62646 7.46615 1.10542 2.51079 25.8571
3280913 4.73043 6.03407 7.62646 7.46615 1.10542 2.51079 25.8571
3280918 4.78261 6.08077 7.60554 7.53165 1.17716 2.4656 26.0006
3280939 4.73913 6.05275 7.57415 7.53165 1.22705 2.49863 25.8977
3280949 4.69565 6.07143 7.62646 7.53165 1.23525 2.5406 25.9252
3280959 4.69565 6.07143 7.62646 7.53165 1.23525 2.5406 25.9252
3280969 4.71304 6.09945 7.50092 7.53165 1.37079 2.44925 25.8451
3280979 4.76522 6.10879 7.71015 7.51293 1.09816 2.49975 26.0971
3280989 4.76522 6.10879 7.71015 7.51293 1.09816 2.49975 26.0971
3280999 4.75652 6.05275 7.60554 7.49422 1.14334 2.48398 25.909
3281009 4.73913 6.09011 7.616 7.53165 1.21899 2.49361 25.9769
3281021 4.73913 6.09011 7.616 7.53165 1.21899 2.49361 25.9769
3281031 4.7913 6.07143 7.63692 7.47551 1.07671 2.45409 25.9752
3281041 4.7913 6.07143 7.63692 7.47551 1.07671 2.45409 25.9752
3281050 4.76522 6.11813 7.616 7.49422 1.18408 2.43918 25.9936
3281061 4.73043 6.07143 7.65785 7.46615 1.10826 2.50067 25.9259
3281071 4.73043 6.07143 7.65785 7.46615 1.10826 2.50067 25.9259
3281084 4.73913 6.13681 7.53231 7.46615 1.28653 2.38992 25.8744
3281092 4.76522 6.09945 7.53231 7.41937 1.18268 2.37467 25.8163
3281112 4.78261 6.11813 7.56369 7.42873 1.15915 2.37033 25.8932
3281126 4.78261 6.11813 7.56369 7.42873 1.15915 2.37033 25.8932
3281132 4.76522 6.10879 7.55323 7.41937 1.17009 2.37861 25.8466
3281142 4.7913 6.22088 7.65785 7.41002 1.13281 2.33263 26.08
3281152 4.7913 6.22088 7.65785 7.41002 1.13281 2.33263 26.08
3281171 4.8087 6.15549 7.57415 7.38195 1.1136 2.31011 25.9203
3281172 4.77391 6.12747 7.59508 7.3913 1.11036 2.36695 25.8878
3281182 4.77391 6.12747 7.59508 7.3913 1.11036 2.36695 25.8878
3281193 4.8087 6.22088 7.616 7.3913 1.1402 2.29159 26.0369
3281203 4.8087 6.22088 7.616 7.3913 1.1402 2.29159 26.0369
3281213 4.76522 6.10879 7.62646 7.34452 1.02693 2.37782 25.845
3281223 4.8087 6.16483 7.58462 7.35388 1.08579 2.29525 25.912
3281243 4.7913 6.14615 7.62646 7.36324 1.05259 2.3444 25.9272
3281253 4.8 6.12747 7.58462 7.32581 1.03401 2.31227 25.8379
3281263 4.8 6.12747 7.58462 7.32581 1.03401 2.31227 25.8379
3281273 4.83478 6.13681 7.62646 7.35388 0.991687 2.31702 25.9519
3281283 4.83478 6.13681 7.62646 7.35388 0.991687 2.31702 25.9519
3281293 4.74783 6.09945 7.58462 7.35388 1.08673 2.37993 25.7858
3281304 4.7913 6.11813 7.54277 7.3913 1.137 2.33597 25.8435
3281324 4.7913 6.13681 7.616 7.36324 1.05447 2.34554 25.9074
3281336 4.73043 6.10879 7.616 7.42873 1.15041 2.43713 25.884
3281358 4.76522 6.17418 7.60554 7.3913 1.1516 2.34659 25.9362
3281366 4.78261 6.12747 7.64738 7.48487 1.13502 2.43191 26.0423
3281379 4.78261 6.12747 7.64738 7.48487 1.13502 2.43191 26.0423
3281385 4.73913 6.14615 7.67877 7.48487 1.16427 2.46364 26.0489
3281396 4.73913 6.14615 7.67877 7.48487 1.16427 2.46364 26.0489
3281406 4.71304 6.09011 7.68923 7.47551 1.11998 2.51941 25.9679
3281415 4.73043 6.00604 7.72062 7.46615 0.984776 2.57508 25.9232
3281426 4.73043 6.00604 7.72062 7.46615 0.984776 2.57508 25.9232
3281440 4.75652 6.07143 7.616 7.52229 1.17575 2.48997 25.9662
3281446 4.75652 6.07143 7.62646 7.52229 1.16521 2.49501 25.9767
3281455 4.70435 5.98736 7.62646 7.52229 1.1405 2.58724 25.8405
3281466 4.66957 5.98736 7.71015 7.541 1.10838 2.65992 25.9081
3281485 4.66957 5.93132 7.66831 7.59714 1.15071 2.705 25.8663
3281496 4.72174 5.92198 7.64738 7.62521 1.13641 2.67913 25.9163
3281507 4.72174 5.92198 7.64738 7.62521 1.13641 2.67913 25.9163
3281517 4.73913 5.93132 7.68923 7.64392 1.10261 2.68965 26.0036
3281527 4.68696 5.95 7.64738 7.58778 1.16287 2.66593 25.8721
3281547 4.67826 5.98736 7.73108 7.59714 1.13024 2.6906 25.9938
3281567 4.73043 5.95934 7.66831 7.61585 1.13234 2.65327 25.9739
3281577 4.67826 5.92198 7.67877 7.59714 1.12274 2.71041 25.8761
3281597 4.70435 5.93132 7.71015 7.58778 1.06483 2.69666 25.9336
3281608 4.65217 5.93132 7.67877 7.60649 1.16634 2.72632 25.8688
3281617 4.65217 5.92198 7.67877 7.60649 1.15773 2.73272 25.8594
3281628 4.68696 5.91264 7.752 7.64392 1.0748 2.76759 25.9955
3281638 4.68696 5.91264 7.752 7.64392 1.0748 2.76759 25.9955
3281650 4.62609 5.89396 7.67877 7.62521 1.17556 2.77877 25.824
3281658 4.66087 5.92198 7.71015 7.61585 1.12588 2.74606 25.9089
3281678 4.67826 5.95934 7.64738 7.62521 1.21468 2.6833 25.9102
3281688 4.66957 5.92198 7.67877 7.60649 1.14015 2.72081 25.8768
3281698 4.66957 5.92198 7.67877 7.60649 1.14015 2.72081 25.8768
3281708 4.66957 5.95934 7.74154 7.57843 1.08546 2.71171 25.9489
3281718 4.66957 5.95934 7.74154 7.57843 1.08546 2.71171 25.9489
3281728 4.63478 5.86593 7.65785 7.59714 1.1361 2.76886 25.7557
3281738 4.69565 5.93132 7.72062 7.55036 1.02847 2.68979 25.8979
3281748 4.69565 5.93132 7.72062 7.55036 1.02847 2.68979 25.8979
3281758 4.68696 5.93132 7.69969 7.541 1.04961 2.68132 25.859
3281768 4.71304 5.93132 7.72062 7.541 1.00234 2.67347 25.906
3281794 4.69565 5.87527 7.73108 7.57843 0.992036 2.74642 25.8804
3281803 4.69565 5.87527 7.73108 7.57843 0.992036 2.74642 25.8804
3281812 4.66957 5.93132 7.68923 7.52229 1.06035 2.67931 25.8124
3281818 4.66957 5.96868 7.66831 7.57843 1.16789 2.67056 25.885
3281839 4.68696 5.95 7.752 7.56907 1.04025 2.70674 25.958
3281850 4.70435 5.95934 7.72062 7.541 1.037 2.66029 25.9253
3281859 4.70435 5.95934 7.72062 7.541 1.037 2.66029 25.9253
3281869 4.72174 5.93132 7.69969 7.55036 1.02328 2.66203 25.9031
3281889 4.74783 5.9967 7.67877 7.53165 1.06122 2.58095 25.9549
3281899 4.69565 5.97802 7.74154 7.55036 1.05061 2.66789 25.9656
3281909 4.69565 5.97802 7.74154 7.55036 1.05061 2.66789 25.9656
3281919 4.7913 5.92198 7.73108 7.55036 0.913605 2.63601 25.9947
3281929 4.70435 5.97802 7.65785 7.541 1.11744 2.61762 25.8812
3281942 4.70435 5.97802 7.65785 7.541 1.11744 2.61762 25.8812
3281949 4.71304 5.96868 7.65785 7.59714 1.15177 2.64486 25.9367
3281959 4.71304 5.96868 7.65785 7.59714 1.15177 2.64486 25.9367
3281970 4.70435 5.97802 7.69969 7.53165 1.06665 2.63314 25.9137
3281981 4.69565 5.97802 7.66831 7.50358 1.08108 2.61063 25.8456
3282000 4.72174 5.9967 7.71015 7.47551 1.00401 2.58678 25.9041
3282011 4.73913 5.94066 7.68923 7.52229 0.998971 2.62543 25.8913
3282030 4.74783 5.9967 7.63692 7.55036 1.12055 2.56987 25.9318
3282052 4.8 5.96868 7.67877 7.52229 0.974405 2.56012 25.9697
3282061 4.76522 6.01538 7.63692 7.52229 1.09439 2.53198 25.9398
3282072 4.76522 6.01538 7.63692 7.52229 1.09439 2.53198 25.9398
3282082 4.8 6.05275 7.616 7.44744 1.04586 2.4371 25.9162
3282095 4.7913 5.9967 7.60554 7.46615 1.03057 2.48476 25.8597
3282102 4.7913 5.9967 7.60554 7.46615 1.03057 2.48476 25.8597
3282112 4.8087 6.09011 7.55323 7.50358 1.18641 2.40295 25.9556
3282122 4.8087 6.09011 7.55323 7.50358 1.18641 2.40295 25.9556
3282132 4.84348 6.06209 7.59508 7.44744 1.03184 2.39148 25.9481
3282142 4.84348 6.08077 7.55323 7.43808 1.0825 2.35403 25.9156
3282152 4.84348 6.08077 7.55323 7.43808 1.0825 2.35403 25.9156
3282163 4.82609 6.15549 7.60554 7.41937 1.099 2.33211 26.0065
3282173 4.82609 6.14615 7.50092 7.34452 1.12681 2.25032 25.8177
3282183 4.82609 6.14615 7.50092 7.34452 1.12681 2.25032 25.8177
3282193 4.87826 6.13681 7.48 7.40066 1.13842 2.23913 25.8957
3282205 4.87826 6.13681 7.48 7.40066 1.13842 2.23913 25.8957
3282213 4.82609 6.07143 7.48 7.37259 1.10479 2.30392 25.7501
3282227 4.85217 6.09945 7.51138 7.38195 1.0813 2.2877 25.845
3282233 4.85217 6.09945 7.51138 7.38195 1.0813 2.2877 25.845
3282244 4.88696 6.15549 7.48 7.41937 1.16406 2.23014 25.9418
3282257 4.87826 6.2022 7.616 7.40066 1.06199 2.26243 26.0971
3282274 4.86957 6.18352 7.55323 7.36324 1.082 2.23149 25.9695
3282285 4.81739 6.22088 7.53231 7.34452 1.17278 2.22181 25.9151
3282296 4.81739 6.22088 7.53231 7.34452 1.17278 2.22181 25.9151
3282305 4.85217 6.23022 7.51138 7.26968 1.0984 2.14511 25.8635
3282316 4.85217 6.23022 7.51138 7.26968 1.0984 2.14511 25.8635
3282326 4.86087 6.23956 7.48 7.29774 1.15584 2.13152 25.8782
3282336 4.93913 6.27692 7.51138 7.31646 1.09706 2.08021 26.0439
3282345 4.93913 6.27692 7.51138 7.31646 1.09706 2.08021 26.0439
3282358 4.94783 6.32363 7.41723 7.28839 1.20006 1.983 25.9771
3282367 4.88696 6.25824 7.42769 7.22289 1.1305 2.03835 25.7958
3282377 4.88696 6.25824 7.42769 7.22289 1.1305 2.03835 25.7958
3282388 4.93043 6.37033 7.39631 7.26032 1.25582 1.93925 25.9574
3282398 4.90435 6.38901 7.38585 7.20418 1.25853 1.91049 25.8834
3282408 4.90435 6.38901 7.38585 7.20418 1.25853 1.91049 25.8834
3282419 4.92174 6.36099 7.344 7.19483 1.24903 1.8915 25.8216
3282428 4.92174 6.36099 7.344 7.19483 1.24903 1.8915 25.8216
3282448 4.89565 6.42637 7.28123 7.17611 1.38251 1.82432 25.7794
3282449 4.91304 6.46374 7.30215 7.21354 1.41168 1.81843 25.8925
3282461 4.91304 6.46374 7.30215 7.21354 1.41168 1.81843 25.8925
3282469 5.0087 6.43571 7.29169 7.14805 1.23953 1.73581 25.8841
3282483 4.94783 6.5011 7.29169 7.25096 1.45484 1.78542 25.9916
3282499 4.95652 6.39835 7.29169 7.26032 1.36108 1.85113 25.9069
3282509 4.95652 6.39835 7.29169 7.26032 1.36108 1.85113 25.9069
3282520 4.86087 6.39835 7.29169 7.22289 1.42459 1.89458 25.7738
3282529 4.90435 6.39835 7.29169 7.19483 1.35438 1.85183 25.7892
3282539 4.90435 6.39835 7.29169 7.19483 1.35438 1.85183 25.7892
3282549 4.91304 6.38901 7.35446 7.22289 1.29872 1.8984 25.8794
3282562 4.89565 6.33297 7.40677 7.21354 1.20322 1.96818 25.8489
3282569 4.89565 6.33297 7.40677 7.21354 1.20322 1.96818 25.8489
3282579 4.91304 6.33297 7.42769 7.26032 1.20744 1.99082 25.934
3282592 4.91304 6.33297 7.42769 7.26032 1.20744 1.99082 25.934
3282599 4.92174 6.34231 7.40677 7.20418 1.17679 1.94023 25.875
3282614 4.91304 6.37033 7.39631 7.26032 1.27342 1.95061 25.94
3282620 4.91304 6.37033 7.39631 7.26032 1.27342 1.95061 25.94
3282631 4.92174 6.31429 7.43815 7.26968 1.17953 2.0073 25.9439
3282641 4.91304 6.34231 7.46954 7.28839 1.1995 2.01969 26.0133
3282650 4.91304 6.34231 7.46954 7.28839 1.1995 2.01969 26.0133
3282660 4.88696 6.27692 7.41723 7.26032 1.19291 2.03956 25.8414
3282672 4.88696 6.27692 7.41723 7.26032 1.19291 2.03956 25.8414
3282681 4.90435 6.2022 7.46954 7.23225 1.02735 2.08958 25.8083
3282691 4.92174 6.26758 7.51138 7.22289 1.01968 2.0512 25.9236
3282711 4.90435 6.28626 7.44862 7.34452 1.22945 2.07968 25.9838
3282721 4.83478 6.25824 7.44862 7.3071 1.23985 2.12546 25.8487
3282731 4.83478 6.25824 7.44862 7.3071 1.23985 2.12546 25.8487
3282742 4.92174 6.2489 7.46954 7.31646 1.13081 2.08927 25.9566
3282751 4.92174 6.2489 7.46954 7.31646 1.13081 2.08927 25.9566
3282763 4.87826 6.2022 7.45908 7.27903 1.10762 2.12501 25.8186
3282773 4.86957 6.23022 7.42769 7.26032 1.15683 2.08716 25.7878
3282785 4.86957 6.23022 7.42769 7.26032 1.15683 2.08716 25.7878
3282792 4.84348 6.23956 7.49046 7.3071 1.17146 2.15288 25.8806
3282802 4.87826 6.23022 7.49046 7.21354 1.0412 2.08941 25.8125
3282812 4.87826 6.23022 7.49046 7.21354 1.0412 2.08941 25.8125
3282822 4.86087 6.27692 7.52185 7.26032 1.11355 2.10902 25.92
3282842 4.85217 6.22088 7.46954 7.33517 1.19247 2.16305 25.8778
3282852 4.87826 6.16483 7.51138 7.35388 1.08948 2.2129 25.9084
3282863 4.87826 6.16483 7.51138 7.35388 1.08948 2.2129 25.9084
3282876 4.82609 6.23956 7.51138 7.36324 1.21946 2.20254 25.9403
3282883 4.85217 6.23956 7.52185 7.40066 1.21683 2.20885 26.0142
3282894 4.85217 6.23956 7.52185 7.40066 1.21683 2.20885 26.0142
3282904 4.86087 6.15549 7.49046 7.37259 1.13677 2.22958 25.8794
3282914 4.82609 6.15549 7.45908 7.37259 1.20376 2.23727 25.8133
3282924 4.82609 6.18352 7.45908 7.34452 1.20372 2.20468 25.8132
3282934 4.82609 6.10879 7.53231 7.41002 1.12108 2.32296 25.8772
3282944 4.82609 6.10879 7.53231 7.41002 1.12108 2.32296 25.8772
3282954 4.7913 6.11813 7.55323 7.4568 1.18675 2.37308 25.9195
3282964 4.81739 6.11813 7.616 7.41002 1.05421 2.36339 25.9615
3282986 4.77391 6.16483 7.616 7.43808 1.16667 2.37489 25.9928
3282996 4.78261 6.05275 7.58462 7.44744 1.09497 2.43358 25.8674
3283017 4.78261 6.08077 7.55323 7.49422 1.19559 2.4222 25.9108
3283036 4.76522 6.08077 7.60554 7.4568 1.1259 2.44112 25.9083
3283045 4.76522 6.04341 7.58462 7.48487 1.13845 2.46977 25.8781
3283059 4.76522 6.04341 7.58462 7.48487 1.13845 2.46977 25.8781
3283074 4.75652 6.15549 7.52185 7.47551 1.30516 2.36517 25.9094
3283084 4.76522 6.07143 7.60554 7.50358 1.16035 2.47004 25.9458
3283093 4.76522 6.07143 7.60554 7.50358 1.16035 2.47004 25.9458
3283101 4.73913 6.11813 7.58462 7.48487 1.23352 2.43699 25.9267
3283108 4.73913 6.06209 7.60554 7.541 1.21246 2.51196 25.9478
3283128 4.76522 5.97802 7.60554 7.58778 1.1519 2.57363 25.9366
3283149 4.75652 5.9967 7.67877 7.51293 1.03521 2.56609 25.9449
3283159 4.66087 6.02473 7.74154 7.58778 1.16289 2.67754 26.0149
3283169 4.66087 6.02473 7.74154 7.58778 1.16289 2.67754 26.0149
3283180 4.71304 5.94066 7.616 7.51293 1.09041 2.60363 25.7826
3283191 4.68696 5.96868 7.69969 7.60649 1.1445 2.68695 25.9618
3283199 4.68696 5.96868 7.69969 7.60649 1.1445 2.68695 25.9618
3283210 4.66087 5.98736 7.66831 7.65327 1.26249 2.6993 25.9698
3283231 4.66087 5.91264 7.72062 7.60649 1.09809 2.75299 25.9006
3283239 4.64348 5.89396 7.71015 7.67199 1.1693 2.8037 25.9196
3283253 4.64348 5.89396 7.71015 7.67199 1.1693 2.8037 25.9196
3283260 4.67826 5.89396 7.68923 7.71877 1.19825 2.792 25.9802
3283274 4.66957 5.9033 7.68923 7.71877 1.21557 2.79156 25.9809
3283281 4.66957 5.9033 7.68923 7.71877 1.21557 2.79156 25.9809
3283295 4.62609 5.94066 7.74154 7.62521 1.15511 2.77633 25.9335
3283301 4.62609 5.94066 7.74154 7.62521 1.15511 2.77633 25.9335
3283311 4.66957 5.92198 7.68923 7.64392 1.16405 2.74349 25.9247
3283321 4.68696 5.86593 7.80431 7.64392 0.97937 2.82411 26.0011
3283341 4.71304 5.93132 7.79385 7.6907 1.06695 2.77864 26.1289
3283350 4.65217 5.9033 7.72062 7.66263 1.14996 2.79184 25.9387
3283361 4.65217 5.9033 7.72062 7.66263 1.14996 2.79184 25.9387
3283370 4.67826 5.9033 7.76246 7.68134 1.09885 2.80241 26.0254
3283382 4.67826 5.9033 7.76246 7.68134 1.09885 2.80241 26.0254
3283391 4.61739 5.81923 7.76246 7.59714 1.00452 2.86262 25.7962
3283404 4.64348 5.85659 7.77292 7.68134 1.0803 2.86322 25.9543
3283411 4.64348 5.85659 7.77292 7.68134 1.0803 2.86322 25.9543
3283421 4.63478 5.82857 7.78338 7.59714 0.974643 2.85397 25.8439
3283440 4.61739 5.86593 7.85662 7.62521 0.979325 2.88762 25.9651
3283451 4.63478 5.89396 7.85662 7.6907 1.04814 2.88689 26.0761
3283462 4.63478 5.89396 7.85662 7.6907 1.04814 2.88689 26.0761
3283521 4.62609 5.85659 7.87754 7.71877 1.02739 2.94123 26.079
3283522 4.66957 5.93132 7.85662 7.70006 1.05629 2.84189 26.1576
3283523 4.66957 5.93132 7.85662 7.70006 1.05629 2.84189 26.1576
3283524 4.70435 5.88462 7.80431 7.70941 1.03952 2.83003 26.1027
3283525 4.62609 5.82857 7.80431 7.66263 1.02309 2.90045 25.9216
3283526 4.62609 5.82857 7.80431 7.66263 1.02309 2.90045 25.9216
3283533 4.64348 5.84725 7.87754 7.64392 0.932401 2.90098 26.0122
3283545 4.64348 5.84725 7.87754 7.64392 0.932401 2.90098 26.0122
3283553 4.62609 5.81923 7.79385 7.65327 1.01629 2.89764 25.8924
3283566 4.63478 5.82857 7.81477 7.65327 0.995216 2.89496 25.9314
3283583 4.6 5.79121 7.74154 7.63456 1.05194 2.90187 25.7673
3283593 4.58261 5.84725 7.80431 7.66263 1.08408 2.91759 25.8968
3283619 4.65217 5.83791 7.84615 7.74684 1.04131 2.93461 26.0831
3283623 4.65217 5.83791 7.84615 7.74684 1.04131 2.93461 26.0831
3283633 4.62609 5.83791 7.89846 7.68134 0.95484 2.94646 26.0438
3283643 4.61739 5.86593 7.90892 7.71877 1.01335 2.95528 26.111
3283653 4.61739 5.86593 7.90892 7.71877 1.01335 2.95528 26.111
3283663 4.6 5.80989 7.78338 7.67199 1.06174 2.92602 25.8653
3283673 4.56522 5.78187 7.85662 7.72812 1.04906 3.02967 25.9318
3283683 4.56522 5.78187 7.85662 7.72812 1.04906 3.02967 25.9318
3283694 4.62609 5.85659 7.84615 7.74684 1.08452 2.9397 26.0757
3283732 4.54783 5.80989 7.82523 7.72812 1.12399 3.00777 25.9111
3283733 4.53043 5.80989 7.888 7.75619 1.10416 3.06175 25.9845
3283744 4.6087 5.80055 7.81477 7.71877 1.05603 2.96284 25.9428
3283754 4.6087 5.80055 7.81477 7.70941 1.04739 2.9585 25.9334
3283774 4.5913 5.82857 7.85662 7.78426 1.11749 3.00509 26.0608
3283784 4.5913 5.82857 7.85662 7.78426 1.11749 3.00509 26.0608
3283794 4.6 5.80055 7.80431 7.73748 1.09254 2.97269 25.9423
3283804 4.56522 5.79121 7.83569 7.72812 1.07871 3.01351 25.9202
3283814 4.56522 5.79121 7.83569 7.72812 1.07871 3.01351 25.9202
3283827 4.57391 5.83791 7.78338 7.70006 1.13985 2.93777 25.8953
3283834 4.6087 5.85659 7.74154 7.7749 1.23285 2.91618 25.9817
3283849 4.6087 5.85659 7.74154 7.7749 1.23285 2.91618 25.9817
3283855 4.57391 5.88462 7.80431 7.74684 1.20458 2.93695 26.0097
3283866 4.57391 5.88462 7.80431 7.74684 1.20458 2.93695 26.0097
3283875 4.61739 5.82857 7.752 7.75619 1.17069 2.92567 25.9542
3283886 4.6 5.79121 7.73108 7.79362 1.20944 2.97124 25.9159
3283905 4.55652 5.88462 7.69969 7.7749 1.35372 2.91336 25.9157
3283916 4.5913 5.85659 7.77292 7.75619 1.2016 2.93406 25.977
3283928 4.5913 5.85659 7.77292 7.75619 1.2016 2.93406 25.977
3283937 4.62609 5.92198 7.80431 7.73748 1.17772 2.87107 26.0899
3283946 4.62609 5.92198 7.80431 7.73748 1.17772 2.87107 26.0899
3283958 4.62609 5.9033 7.80431 7.73748 1.16065 2.88388 26.0712
3283967 4.61739 5.89396 7.80431 7.73748 1.16084 2.89626 26.0531
3283977 4.61739 5.89396 7.80431 7.73748 1.16084 2.89626 26.0531
3283987 4.66957 5.87527 7.67877 7.62521 1.11431 2.76171 25.8488
3283997 4.6087 5.92198 7.74154 7.65327 1.18129 2.8143 25.9255
3284007 4.6087 5.92198 7.74154 7.65327 1.18129 2.8143 25.9255
3284017 4.64348 5.95 7.68923 7.61585 1.19036 2.72888 25.8986
3284038 4.66087 5.91264 7.69969 7.59714 1.11055 2.73865 25.8703
3284048 4.64348 5.89396 7.69969 7.65327 1.16265 2.78995 25.8904
3284068 4.64348 5.96868 7.69969 7.62521 1.20553 2.72549 25.9371
3284078 4.65217 6.01538 7.68923 7.55971 1.19007 2.65162 25.9165
3284090 4.65217 6.01538 7.68923 7.55971 1.19007 2.65162 25.9165
3284098 4.71304 6.07143 7.66831 7.541 1.18401 2.5534 25.9938
3284118 4.73913 5.9967 7.616 7.44744 1.05527 2.51612 25.7993
3284132 4.8 6.09011 7.616 7.52229 1.14913 2.4482 26.0284
3284139 4.8 6.09011 7.616 7.52229 1.14913 2.4482 26.0284
3284149 4.76522 6.11813 7.58462 7.43808 1.16419 2.39675 25.906
3284159 4.75652 6.06209 7.66831 7.43808 1.03697 2.48088 25.925
3284169 4.75652 6.06209 7.66831 7.43808 1.03697 2.48088 25.925
3284179 4.8 6.08077 7.616 7.41002 1.03717 2.40009 25.9068
3284200 4.76522 6.07143 7.65785 7.41002 1.02143 2.45009 25.9045
3284209 4.7913 6.16483 7.57415 7.46615 1.21702 2.35657 25.9964
3284220 4.7913 6.16483 7.57415 7.46615 1.21702 2.35657 25.9964
3284229 4.7913 6.09011 7.66831 7.40066 0.993395 2.42051 25.9504
3284242 4.7913 6.09945 7.57415 7.40066 1.09668 2.36843 25.8656
3284250 4.7913 6.09945 7.57415 7.40066 1.09668 2.36843 25.8656
3284262 4.82609 6.09011 7.58462 7.40066 1.04248 2.35647 25.9015
3284271 4.78261 6.14615 7.56369 7.44744 1.2021 2.36067 25.9399
3284290 4.84348 6.15549 7.63692 7.41002 1.04153 2.33125 26.0459
3284305 4.84348 6.15549 7.63692 7.41002 1.04153 2.33125 26.0459
3284311 4.85217 6.18352 7.63692 7.38195 1.0328 2.29318 26.0546
3284322 4.82609 6.11813 7.56369 7.37259 1.06349 2.31375 25.8805
3284332 4.82609 6.11813 7.56369 7.37259 1.06349 2.31375 25.8805
3284342 4.90435 6.13681 7.54277 7.34452 0.997183 2.22504 25.9285
3284352 4.85217 6.09945 7.55323 7.31646 0.978363 2.27606 25.8213
3284361 4.85217 6.09945 7.55323 7.31646 0.978363 2.27606 25.8213
3284377 4.92174 6.23956 7.55323 7.28839 1.01237 2.12302 26.0029
3284382 4.92174 6.23956 7.55323 7.28839 1.01237 2.12302 26.0029
3284392 4.84348 6.21154 7.50092 7.24161 1.07447 2.14411 25.7975
3284402 4.89565 6.2022 7.55323 7.32581 1.03855 2.1834 25.9769
3284412 4.89565 6.2022 7.55323 7.32581 1.03855 2.1834 25.9769
3284422 4.89565 6.2489 7.56369 7.20418 0.95875 2.09744 25.9124
3284433 4.91304 6.23022 7.45908 7.29774 1.11568 2.09279 25.9001
3284455 4.90435 6.26758 7.45908 7.25096 1.11576 2.05053 25.882
3284464 4.90435 6.26758 7.45908 7.25096 1.11576 2.05053 25.882
3284476 4.90435 6.26758 7.42769 7.26968 1.16472 2.04418 25.8693
3284483 4.89565 6.33297 7.44862 7.25096 1.19528 2.00802 25.9282
3284493 4.89565 6.33297 7.44862 7.25096 1.19528 2.00802 25.9282
3284503 4.93043 6.36099 7.42769 7.26032 1.21556 1.96112 25.9794
3284513 4.98261 6.2956 7.48 7.24161 1.03328 1.98659 25.9998
3284523 4.98261 6.2956 7.48 7.24161 1.03328 1.98659 25.9998
3284533 5 6.2956 7.42769 7.26032 1.08552 1.95839 25.9836
3284543 5 6.2956 7.42769 7.26032 1.08552 1.95839 25.9836
3284553 4.90435 6.28626 7.45908 7.21354 1.09845 2.01947 25.8632
3284565 4.95652 6.30494 7.45908 7.23225 1.08042 1.98237 25.9528
3284573 4.95652 6.30494 7.45908 7.23225 1.08042 1.98237 25.9528
3284587 4.94783 6.32363 7.45908 7.25096 1.12357 1.98521 25.9815
3284593 4.87826 6.2956 7.39631 7.18547 1.17111 1.98476 25.7556
3284603 4.87826 6.2956 7.39631 7.18547 1.17111 1.98476 25.7556
3284613 4.90435 6.26758 7.46954 7.23225 1.08793 2.0464 25.8737
3284634 4.90435 6.26758 7.45908 7.22289 1.08983 2.03647 25.8539
3284644 4.93043 6.37033 7.50092 7.26968 1.15898 1.99635 26.0714
3284654 4.93043 6.37033 7.50092 7.26968 1.15898 1.99635 26.0714
3284664 4.92174 6.26758 7.44862 7.22289 1.08283 2.01977 25.8608
3284676 4.90435 6.25824 7.41723 7.23225 1.13214 2.02631 25.8121
3284684 4.90435 6.25824 7.41723 7.23225 1.13214 2.02631 25.8121
3284695 4.92174 6.31429 7.43815 7.20418 1.11925 1.97442 25.8784
3284704 4.92174 6.31429 7.43815 7.20418 1.11925 1.97442 25.8784
3284716 4.89565 6.26758 7.48 7.21354 1.06884 2.048 25.8568
3284724 4.95652 6.30494 7.42769 7.24161 1.12062 1.97131 25.9308
3284739 4.95652 6.30494 7.42769 7.24161 1.12062 1.97131 25.9308
3284746 5 6.33297 7.44862 7.1574 1.00404 1.89274 25.939
3284756 4.92174 6.32363 7.42769 7.19483 1.1298 1.95831 25.8679
3284766 4.92174 6.32363 7.42769 7.19483 1.1298 1.95831 25.8679
3284777 4.89565 6.34231 7.45908 7.23225 1.17611 1.99776 25.9293
3284786 4.89565 6.34231 7.45908 7.23225 1.17611 1.99776 25.9293
3284796 4.89565 6.26758 7.49046 7.26968 1.11014 2.08127 25.9234
3284806 4.88696 6.30494 7.43815 7.26032 1.1975 2.03159 25.8904
3284816 4.88696 6.30494 7.43815 7.26032 1.1975 2.03159 25.8904
3284827 4.91304 6.23956 7.40677 7.27903 1.15988 2.05113 25.8384
3284837 4.93043 6.32363 7.46954 7.25096 1.13055 2.00183 25.9746
3284850 4.93043 6.32363 7.46954 7.25096 1.13055 2.00183 25.9746
3284857 4.89565 6.34231 7.52185 7.28839 1.16438 2.05711 26.0482
3284867 4.89565 6.34231 7.52185 7.28839 1.16438 2.05711 26.0482
3284877 4.88696 6.2489 7.44862 7.25096 1.12664 2.06909 25.8354
3284887 4.89565 6.28626 7.45908 7.26968 1.15899 2.05331 25.9107
3284897 4.89565 6.28626 7.45908 7.26968 1.15899 2.05331 25.9107
3284907 4.85217 6.26758 7.42769 7.20418 1.15711 2.04576 25.7516
3284917 4.86087 6.2489 7.44862 7.27903 1.17896 2.10037 25.8374
3284938 4.92174 6.32363 7.46954 7.28839 1.17364 2.02622 26.0033
3284961 4.85217 6.18352 7.44862 7.29774 1.14467 2.15887 25.782
3284967 4.91304 6.22088 7.51138 7.35388 1.10612 2.15276 25.9992
3284984 4.91304 6.22088 7.51138 7.35388 1.10612 2.15276 25.9992
3284993 4.92174 6.25824 7.48 7.32581 1.13746 2.09297 25.9858
3285011 4.84348 6.25824 7.49046 7.31646 1.19724 2.14515 25.9086
3285018 4.85217 6.23022 7.49046 7.33517 1.1799 2.16722 25.908
3285028 4.86957 6.28626 7.51138 7.33517 1.19266 2.12907 26.0024
3285039 4.86957 6.28626 7.51138 7.33517 1.19266 2.12907 26.0024
3285049 4.90435 6.30494 7.52185 7.36324 1.1899 2.11298 26.0944
3285059 4.90435 6.30494 7.52185 7.36324 1.1899 2.11298 26.0944
3285070 4.88696 6.27692 7.54277 7.33517 1.13506 2.13929 26.0418
3285079 4.82609 6.2489 7.56369 7.32581 1.14092 2.20369 25.9645
3285092 4.82609 6.2489 7.56369 7.32581 1.14092 2.20369 25.9645
3285103 4.93043 6.23022 7.51138 7.37259 1.11443 2.14439 26.0446
3285119 4.81739 6.23956 7.50092 7.32581 1.20448 2.18465 25.8837
3285129 4.83478 6.23022 7.52185 7.40066 1.22583 2.22655 25.9875
3285139 4.83478 6.23022 7.52185 7.40066 1.22583 2.22655 25.9875
3285150 4.8 6.19286 7.42769 7.32581 1.25355 2.19098 25.7464
3285161 4.8087 6.16483 7.49046 7.32581 1.155 2.23503 25.7898
3285169 4.8087 6.16483 7.49046 7.32581 1.155 2.23503 25.7898
3285179 4.88696 6.2022 7.45908 7.34452 1.15929 2.15182 25.8928
3285199 4.81739 6.16483 7.46954 7.3913 1.22781 2.25125 25.8431
3285209 4.88696 6.19286 7.52185 7.33517 1.07879 2.18446 25.9368
3285219 4.88696 6.19286 7.52185 7.33517 1.07879 2.18446 25.9368
3285229 4.85217 6.22088 7.52185 7.40066 1.19974 2.22122 25.9956
3285241 4.81739 6.22088 7.56369 7.42873 1.2183 2.27855 26.0307
3285251 4.81739 6.22088 7.56369 7.42873 1.2183 2.27855 26.0307
3285260 4.85217 6.25824 7.45908 7.37259 1.27166 2.15167 25.9421
3285271 4.81739 6.22088 7.44862 7.42873 1.33472 2.22206 25.9156
3285281 4.81739 6.22088 7.44862 7.42873 1.33472 2.22206 25.9156
3285293 4.82609 6.26758 7.52185 7.40066 1.26874 2.20757 26.0162
3285311 4.76522 6.22088 7.44862 7.3913 1.35363 2.23834 25.826
3285322 4.74783 6.15549 7.44862 7.42873 1.34576 2.31221 25.7807
3285334 4.74783 6.15549 7.44862 7.42873 1.34576 2.31221 25.7807
3285342 4.86087 6.21154 7.53231 7.4568 1.22322 2.2543 26.0615
3285357 4.86087 6.10879 7.43815 7.41937 1.18977 2.25801 25.8272
3285362 4.86087 6.10879 7.43815 7.41937 1.18977 2.25801 25.8272
3285372 4.78261 6.19286 7.63692 7.49422 1.21382 2.38772 26.1066
3285382 4.78261 6.19286 7.63692 7.49422 1.21382 2.38772 26.1066
3285391 4.76522 6.16483 7.55323 7.42873 1.23024 2.34558 25.912
3285403 4.8 6.18352 7.59508 7.4568 1.19572 2.34394 26.0354
3285412 4.8 6.18352 7.59508 7.4568 1.19572 2.34394 26.0354
3285422 4.73043 6.15549 7.60554 7.50358 1.27245 2.43692 25.995
3285432 4.69565 6.12747 7.52185 7.46615 1.33289 2.42039 25.8111
3285452 4.77391 6.14615 7.58462 7.4568 1.19834 2.38123 25.9615
3285464 4.77391 6.14615 7.58462 7.4568 1.19834 2.38123 25.9615
3285473 4.78261 6.10879 7.55323 7.46615 1.19555 2.38973 25.9108
3285486 4.74783 6.10879 7.60554 7.51293 1.22075 2.46112 25.9751
3285493 4.74783 6.10879 7.60554 7.51293 1.22075 2.46112 25.9751
3285503 4.75652 6.09011 7.69969 7.46615 1.05723 2.49066 26.0125
3285513 4.74783 6.09011 7.57415 7.53165 1.25249 2.46757 25.9437
3285523 4.74783 6.08077 7.57415 7.53165 1.24394 2.47386 25.9344
3285533 4.7913 6.03407 7.55323 7.50358 1.15244 2.45233 25.8822
3285543 4.7913 6.03407 7.55323 7.50358 1.15244 2.45233 25.8822
3285553 4.73043 5.9967 7.66831 7.51293 1.07194 2.57876 25.9084
3285563 4.70435 6.02473 7.63692 7.53165 1.17299 2.57137 25.8976
3285573 4.70435 6.02473 7.63692 7.53165 1.17299 2.57137 25.8976
3285583 4.74783 6.05275 7.63692 7.52229 1.14628 2.51849 25.9598
3285595 4.74783 6.05275 7.63692 7.52229 1.14628 2.51849 25.9598
3285603 4.72174 6.04341 7.63692 7.52229 1.164 2.54244 25.9244
3285615 4.73913 5.95934 7.73108 7.59714 1.04342 2.66827 26.0267
3285623 4.73913 5.95934 7.73108 7.59714 1.04342 2.66827 26.0267
3285633 4.73043 5.96868 7.66831 7.541 1.07199 2.61123 25.9084
3285651 4.74783 5.95934 7.66831 7.58778 1.08903 2.62809 25.9633
3285653 4.74783 5.95934 7.66831 7.58778 1.08903 2.62809 25.9633
3285664 4.70435 6.00604 7.65785 7.55971 1.16049 2.60751 25.928
3285674 4.70435 6.00604 7.65785 7.55971 1.16049 2.60751 25.928
3285684 4.73913 5.9967 7.63692 7.52229 1.10343 2.56229 25.895
3285694 4.8 6.01538 7.69969 7.541 1.01387 2.54757 26.0561
3285704 4.8 6.01538 7.69969 7.541 1.01387 2.54757 26.0561
3285714 4.73043 6.00604 7.62646 7.51293 1.12275 2.55233 25.8759
3285724 4.73043 5.95934 7.65785 7.52229 1.05658 2.60362 25.8699
3285734 4.73043 5.95934 7.65785 7.52229 1.05658 2.60362 25.8699
3285748 4.82609 6.05275 7.63692 7.48487 1.03325 2.4478 26.0006
3285754 4.82609 6.05275 7.63692 7.48487 1.03325 2.4478 26.0006
3285764 4.77391 6.02473 7.65785 7.4568 1.01277 2.49834 25.9133
3285774 4.8 6.06209 7.63692 7.49422 1.07661 2.46356 25.9932
3285784 4.8 6.06209 7.63692 7.49422 1.07661 2.46356 25.9932
3285794 4.76522 6.09945 7.59508 7.43808 1.13643 2.41439 25.8978
3285804 4.8 6.06209 7.68923 7.50358 1.03285 2.49323 26.0549
3285824 4.83478 6.12747 7.62646 7.46615 1.08654 2.37788 26.0549
3285834 4.83478 6.12747 7.62646 7.46615 1.08654 2.37788 26.0549
3285844 4.7913 6.09011 7.62646 7.43808 1.06994 2.41837 25.946
3285855 4.7913 6.03407 7.64738 7.43808 0.997132 2.46621 25.9108
3285874 4.7913 6.08077 7.58462 7.46615 1.12932 2.41796 25.9228
3285885 4.77391 6.02473 7.616 7.47551 1.07215 2.48716 25.8901
3285895 4.77391 6.02473 7.616 7.47551 1.07215 2.48716 25.8901
3285906 4.73913 6.05275 7.66831 7.46615 1.07175 2.51245 25.9263
3285917 4.73913 6.05275 7.66831 7.46615 1.07175 2.51245 25.9263
3285925 4.78261 6.02473 7.65785 7.47551 1.02135 2.50149 25.9407
3285936 4.75652 6.04341 7.616 7.4568 1.08964 2.47725 25.8727
3285945 4.75652 6.04341 7.616 7.4568 1.08964 2.47725 25.8727
3285955 4.7913 6.10879 7.66831 7.4568 1.06241 2.43515 26.0252
3285969 4.73043 6.06209 7.66831 7.43808 1.0632 2.49848 25.8989
3285977 4.73043 6.06209 7.66831 7.43808 1.0632 2.49848 25.8989
3285990 4.82609 6.06209 7.64738 7.46615 1.01413 2.43755 26.0017
3285997 4.82609 6.06209 7.64738 7.46615 1.01413 2.43755 26.0017
3286007 4.77391 6.07143 7.64738 7.38195 0.997192 2.42553 25.8747
3286017 4.77391 6.09011 7.67877 7.47551 1.06938 2.4734 26.0183
3286028 4.77391 6.09011 7.67877 7.47551 1.06938 2.4734 26.0183
3286037 4.75652 6.02473 7.66831 7.49422 1.05432 2.53314 25.9438
3286047 4.78261 6.05275 7.616 7.52229 1.13233 2.48498 25.9736
3286067 4.7913 6.07143 7.66831 7.4568 1.028 2.46021 25.9878
3286080 4.7913 6.07143 7.66831 7.4568 1.028 2.46021 25.9878
3286088 4.71304 6.02473 7.69969 7.55036 1.11817 2.60446 25.9878
3286101 4.73043 6.04341 7.67877 7.55036 1.13887 2.57006 26.003
3286108 4.73043 6.04341 7.67877 7.55036 1.13887 2.57006 26.003
3286118 4.72174 6.00604 7.68923 7.59714 1.14573 2.62852 26.0142
3286129 4.75652 5.97802 7.67877 7.63456 1.12993 2.63675 26.0479
3286138 4.75652 5.97802 7.67877 7.63456 1.12993 2.63675 26.0479
3286148 4.66087 5.95934 7.67877 7.61585 1.19193 2.70564 25.9148
3286158 4.66087 5.95934 7.68923 7.58778 1.15555 2.69728 25.8972
3286178 4.68696 5.93132 7.72062 7.57843 1.06316 2.70906 25.9173
3286192 4.68696 5.93132 7.72062 7.57843 1.06316 2.70906 25.9173
3286199 4.65217 5.9033 7.67877 7.55971 1.09722 2.72332 25.794
3286209 4.66087 5.93132 7.65785 7.61585 1.18733 2.71487 25.8659
3286222 4.66087 5.93132 7.65785 7.61585 1.18733 2.71487 25.8659
3286229 4.66957 5.91264 7.64738 7.62521 1.18053 2.72119 25.8548
3286239 4.66087 5.91264 7.77292 7.64392 1.07998 2.79527 25.9903
3286249 4.66087 5.91264 7.77292 7.64392 1.07998 2.79527 25.9903
3286259 4.75652 5.95934 7.73108 7.68134 1.10329 2.69625 26.1283
3286274 4.75652 5.95934 7.73108 7.68134 1.10329 2.69625 26.1283
3286283 4.70435 5.92198 7.752 7.59714 1.02286 2.72727 25.9755
3286292 4.66087 5.97802 7.67877 7.61585 1.20908 2.69288 25.9335
3286301 4.66087 5.97802 7.67877 7.61585 1.20908 2.69288 25.9335
3286311 4.66957 5.91264 7.69969 7.55971 1.06717 2.71493 25.8416
3286324 4.63478 5.89396 7.65785 7.56907 1.13606 2.7362 25.7557
3286332 4.63478 5.89396 7.65785 7.56907 1.13606 2.7362 25.7557
3286341 4.66087 5.93132 7.66831 7.59714 1.1595 2.71096 25.8576
3286362 4.67826 5.86593 7.67877 7.541 1.01877 2.72216 25.764
3286372 4.75652 5.91264 7.68923 7.57843 1.00755 2.65944 25.9368
3286382 4.75652 5.91264 7.68923 7.57843 1.00755 2.65944 25.9368
3286392 4.68696 5.88462 7.71015 7.59714 1.04781 2.74494 25.8789
3286402 4.68696 5.97802 7.73108 7.60649 1.12151 2.69546 26.0026
3286422 4.68696 5.95934 7.72062 7.65327 1.1578 2.72534 26.0202
3286436 4.68696 5.95934 7.72062 7.65327 1.1578 2.72534 26.0202
3286442 4.71304 5.93132 7.71015 7.59714 1.06473 2.69516 25.9517
3286452 4.72174 5.91264 7.74154 7.65327 1.05904 2.74333 26.0292
3286473 4.69565 5.9033 7.66831 7.62521 1.12441 2.71965 25.8925
3286483 4.72174 5.91264 7.69969 7.58778 1.04062 2.69257 25.9219
3286493 4.72174 5.91264 7.69969 7.58778 1.04062 2.69257 25.9219
3286503 4.69565 5.95 7.67877 7.58778 1.12241 2.67494 25.9122
3286513 4.66087 5.89396 7.68923 7.59714 1.10385 2.74651 25.8412
3286525 4.66087 5.89396 7.68923 7.59714 1.10385 2.74651 25.8412
3286533 4.67826 5.95934 7.752 7.57843 1.06622 2.71073 25.968
3286544 4.67826 5.95934 7.752 7.57843 1.06622 2.71073 25.968
3286553 4.66087 5.9033 7.68923 7.541 1.0605 2.71342 25.7944
3286564 4.71304 5.98736 7.67877 7.53165 1.08757 2.61088 25.9108
3286585 4.71304 5.98736 7.67877 7.55036 1.10483 2.61982 25.9295
3286594 4.66087 5.95 7.66831 7.56907 1.15084 2.68481 25.8482
3286609 4.66087 5.95 7.66831 7.56907 1.15084 2.68481 25.8482
3286614 4.67826 6.01538 7.74154 7.58778 1.13685 2.67207 26.023
3286624 4.67826 6.01538 7.74154 7.58778 1.13685 2.67207 26.023
3286634 4.65217 5.97802 7.66831 7.58778 1.20268 2.68051 25.8863
3286644 4.69565 5.98736 7.71015 7.62521 1.15953 2.68215 26.0184
3286656 4.69565 5.98736 7.71015 7.62521 1.15953 2.68215 26.0184
3286664 4.65217 5.9967 7.62646 7.55971 1.23648 2.63439 25.8351
3286675 4.67826 5.96868 7.62646 7.59714 1.21866 2.65359 25.8705
3286685 4.67826 5.96868 7.62646 7.59714 1.21866 2.65359 25.8705
3286697 4.65217 5.9967 7.752 7.60649 1.15258 2.71632 26.0074
3286706 4.65217 5.9967 7.752 7.60649 1.15258 2.71632 26.0074
3286719 4.71304 5.98736 7.68923 7.55971 1.10292 2.62928 25.9494
3286726 4.68696 5.98736 7.69969 7.63456 1.18737 2.68754 26.0086
3286736 4.68696 5.98736 7.69969 7.63456 1.18737 2.68754 26.0086
3286746 4.68696 5.98736 7.68923 7.57843 1.14641 2.65593 25.942
3286756 4.68696 5.98736 7.71015 7.57843 1.12533 2.66588 25.9629
3286766 4.66957 5.93132 7.71015 7.57843 1.0912 2.71599 25.8895
3286776 4.69565 5.98736 7.73108 7.64392 1.15564 2.70089 26.058
3286785 4.69565 5.98736 7.73108 7.64392 1.15564 2.70089 26.058
3286795 4.63478 5.9967 7.66831 7.541 1.19444 2.65732 25.8408
3286808 4.69565 5.95934 7.64738 7.58778 1.16269 2.65362 25.8902
3286829 4.67826 6.00604 7.78338 7.55036 1.05192 2.68051 26.018
3286836 4.67826 6.00604 7.78338 7.55036 1.05192 2.68051 26.018
3286846 4.69565 5.96868 7.77292 7.66263 1.11374 2.74209 26.0999
3286858 4.66087 5.97802 7.74154 7.55036 1.08555 2.69159 25.9308
3286875 4.69565 5.97802 7.69969 7.59714 1.13573 2.67024 25.9705
3286887 4.66087 5.92198 7.73108 7.55036 1.04429 2.72495 25.8643
3286896 4.66087 5.92198 7.73108 7.55036 1.04429 2.72495 25.8643
3286915 4.67826 6.01538 7.76246 7.56907 1.09868 2.67311 26.0252
3286931 4.65217 5.91264 7.74154 7.55036 1.03385 2.74228 25.8567
3286937 4.67826 5.98736 7.71015 7.541 1.09962 2.65399 25.9168
3286947 4.67826 5.98736 7.71015 7.541 1.09962 2.65399 25.9168
3286959 4.67826 5.95934 7.752 7.541 1.03168 2.69299 25.9306
3286967 4.65217 5.93132 7.78338 7.53165 0.991765 2.74043 25.8985
3286987 4.67826 5.97802 7.72062 7.56907 1.10635 2.67868 25.946
3286997 4.65217 5.91264 7.77292 7.56907 1.01963 2.76598 25.9068
3287008 4.65217 5.91264 7.77292 7.56907 1.01963 2.76598 25.9068
3287018 4.65217 5.88462 7.83569 7.56907 0.930765 2.81477 25.9416
3287029 4.65217 5.88462 7.83569 7.56907 0.930765 2.81477 25.9416
3287038 4.68696 5.92198 7.77292 7.541 0.967389 2.7225 25.9229
3287048 4.72174 5.92198 7.77292 7.59714 0.984532 2.72529 26.0138
3287068 4.68696 5.94066 7.73108 7.52229 1.00935 2.68098 25.881
3287078 4.68696 5.95 7.77292 7.53165 0.984684 2.69892 25.9415
3287098 4.66087 5.93132 7.79385 7.56907 1.00719 2.7571 25.9551
3287111 4.66087 5.93132 7.79385 7.56907 1.00719 2.7571 25.9551
3287119 4.64348 5.97802 7.78338 7.56907 1.07823 2.73214 25.974
3287135 4.68696 5.96868 7.82523 7.58778 1.00147 2.73741 26.0687
3287139 4.68696 5.96868 7.82523 7.58778 1.00147 2.73741 26.0687
3287149 4.66087 5.95934 7.79385 7.55036 1.0158 2.72912 25.9644
3287159 4.65217 5.91264 7.74154 7.55036 1.03385 2.74228 25.8567
3287171 4.65217 5.91264 7.74154 7.55036 1.03385 2.74228 25.8567
3287179 4.66087 5.88462 7.72062 7.62521 1.0895 2.78105 25.8913
3287202 4.62609 5.95934 7.77292 7.541 1.06309 2.73858 25.8994
3287209 4.66087 5.88462 7.81477 7.56907 0.942993 2.79897 25.9293
3287223 4.66087 5.88462 7.81477 7.56907 0.942993 2.79897 25.9293
3287229 4.72174 5.95 7.84615 7.56907 0.911543 2.7275 26.087
3287239 4.63478 5.9033 7.79385 7.57843 1.01609 2.79861 25.9104
3287251 4.63478 5.9033 7.79385 7.57843 1.01609 2.79861 25.9104
3287261 4.65217 5.95934 7.81477 7.59714 1.04669 2.76696 26.0234
3287272 4.65217 5.95934 7.81477 7.59714 1.04669 2.76696 26.0234
3287281 4.61739 5.92198 7.78338 7.57843 1.06137 2.79279 25.9012
3287291 4.70435 5.95 7.752 7.60649 1.05731 2.71259 26.0128
3287310 4.66087 5.93132 7.77292 7.59714 1.05409 2.76047 25.9622
3287321 4.69565 5.91264 7.73108 7.59714 1.04394 2.7297 25.9365
3287330 4.69565 5.91264 7.73108 7.59714 1.04394 2.7297 25.9365
3287342 4.69565 5.95934 7.78338 7.60649 1.0432 2.72696 26.0449
3287356 4.69565 5.95934 7.78338 7.60649 1.0432 2.72696 26.0449
3287362 4.61739 5.94066 7.74154 7.541 1.08621 2.74248 25.8406
3287374 4.68696 6.00604 7.74154 7.55036 1.08516 2.65475 25.9849
3287382 4.68696 6.00604 7.74154 7.55036 1.08516 2.65475 25.9849
3287394 4.68696 5.96868 7.71015 7.55971 1.0909 2.66971 25.9255
3287403 4.71304 6.03407 7.69969 7.53165 1.10955 2.5892 25.9784
3287426 4.73043 6.06209 7.752 7.55036 1.0826 2.59237 26.0949
3287433 4.64348 6.04341 7.74154 7.46615 1.08569 2.61877 25.8946
3287445 4.64348 6.04341 7.74154 7.46615 1.08569 2.61877 25.8946
3287454 4.72174 6.08077 7.73108 7.541 1.12078 2.57122 26.0746
3287467 4.72174 6.08077 7.73108 7.541 1.12078 2.57122 26.0746
3287474 4.71304 6.03407 7.67877 7.50358 1.10476 2.56575 25.9295
3287490 4.67826 6.07143 7.72062 7.47551 1.10621 2.57061 25.9458
3287504 4.69565 6.07143 7.616 7.42873 1.15113 2.48587 25.8118
3287515 4.76522 6.06209 7.67877 7.42873 1.0091 2.47555 25.9348
3287524 4.76522 6.06209 7.67877 7.42873 1.0091 2.47555 25.9348
3287535 4.74783 6.08077 7.64738 7.47551 1.1185 2.48211 25.9515
3287558 4.70435 6.05275 7.65785 7.41937 1.07408 2.50836 25.8343
3287573 4.75652 6.02473 7.74154 7.47551 0.963694 2.55928 25.9983
3287578 4.75652 6.02473 7.74154 7.47551 0.963694 2.55928 25.9983
3287587 4.73913 6.11813 7.66831 7.43808 1.10614 2.45485 25.9637
3287600 4.76522 6.09945 7.64738 7.4568 1.10098 2.44881 25.9688
3287606 4.76522 6.09945 7.64738 7.4568 1.10098 2.44881 25.9688
3287616 4.76522 6.11813 7.752 7.37259 0.935778 2.44612 26.0079
3287636 4.72174 6.09011 7.66831 7.3913 1.05461 2.46281 25.8715
3287646 4.72174 6.10879 7.76246 7.43808 1.02059 2.51815 26.0311
3287656 4.72174 6.10879 7.76246 7.43808 1.02059 2.51815 26.0311
3287666 4.78261 6.12747 7.616 7.3913 1.08052 2.37132 25.9174
3287676 4.75652 6.10879 7.67877 7.37259 1.00909 2.42279 25.9167
3287695 4.76522 6.11813 7.64738 7.36324 1.03187 2.39087 25.894
3287717 4.74783 6.09011 7.62646 7.36324 1.04448 2.41123 25.8276
3287727 4.73043 6.12747 7.62646 7.3913 1.12256 2.41145 25.8757
3287747 4.75652 6.12747 7.62646 7.37259 1.07897 2.3848 25.883
3287758 4.78261 6.15549 7.62646 7.41002 1.11305 2.36676 25.9746
3287768 4.78261 6.15549 7.62646 7.41002 1.11305 2.36676 25.9746
3287779 4.7913 6.13681 7.616 7.35388 1.04582 2.34097 25.898
3287789 4.7913 6.13681 7.616 7.35388 1.04582 2.34097 25.898
3287802 4.75652 6.16483 7.65785 7.36324 1.07324 2.37047 25.9424
3287808 4.78261 6.21154 7.65785 7.32581 1.05561 2.30361 25.9778
