4201556 5.78466 6.72137 8.04267 6.88938 -0.197347 1.32627 27.4381
4201566 5.8192 6.78689 8.01113 6.80559 -0.216836 1.20919 27.4228
4201576 5.80193 6.79626 8.03216 6.908 -0.11787 1.27566 27.5383
4201587 5.80193 6.79626 8.03216 6.908 -0.11787 1.27566 27.5383
4201596 5.8451 6.74009 7.97959 6.88007 -0.186318 1.24311 27.4448
4201616 5.77603 6.69328 8.07421 6.88938 -0.243852 1.36384 27.4329
4201628 5.78466 6.712 8.03216 6.92662 -0.162263 1.34515 27.4554
4201637 5.78466 6.712 8.03216 6.92662 -0.162263 1.34515 27.4554
4201647 5.78466 6.61839 8.10575 6.93593 -0.306155 1.44215 27.4447
4201658 5.73286 6.59967 8.11626 6.97317 -0.251886 1.50804 27.422
4201668 5.73286 6.59967 8.11626 6.97317 -0.251886 1.50804 27.422
4201678 5.7933 6.59031 8.15832 7.05695 -0.275692 1.53901 27.5989
4201688 5.7933 6.59031 8.15832 7.05695 -0.275692 1.53901 27.5989
4201698 5.69832 6.48733 8.21088 7.01972 -0.366718 1.66595 27.4163
4201709 5.71559 6.4967 8.24242 7.14074 -0.290424 1.72359 27.5955
4201718 5.71559 6.4967 8.24242 7.14074 -0.290424 1.72359 27.5955
4201728 5.71559 6.48733 8.2214 7.12212 -0.297253 1.71016 27.5464
4201738 5.71559 6.39372 8.2214 7.08489 -0.417994 1.74917 27.4156
4201748 5.71559 6.39372 8.2214 7.08489 -0.417994 1.74917 27.4156
4201758 5.69832 6.42181 8.2214 7.14074 -0.324909 1.76951 27.4823
4201780 5.61199 6.30011 8.28448 7.17798 -0.382076 1.94544 27.3746
4201789 5.60335 6.27203 8.38961 7.27108 -0.408418 2.06201 27.5361
4201799 5.60335 6.27203 8.38961 7.27108 -0.408418 2.06201 27.5361
4201809 5.62062 6.2533 8.41064 7.36418 -0.374129 2.11631 27.6487
4201820 5.57745 6.2533 8.42115 7.36418 -0.345008 2.14798 27.6161
4201830 5.57745 6.2533 8.42115 7.36418 -0.345008 2.14798 27.6161
4201840 5.56882 6.26267 8.41064 7.29901 -0.379227 2.11221 27.5411
4201850 5.54292 6.24394 8.36858 7.35487 -0.284149 2.14643 27.5103
4201860 5.54292 6.24394 8.36858 7.35487 -0.284149 2.14643 27.5103
4201877 5.56018 6.2065 8.34756 7.3828 -0.289522 2.16224 27.497
4201884 5.56018 6.2065 8.34756 7.3828 -0.289522 2.16224 27.497
4201893 5.49975 6.14097 8.41064 7.37349 -0.360914 2.26624 27.4248
4201899 5.53428 6.15033 8.33704 7.42004 -0.274172 2.22607 27.4417
4201909 5.53428 6.15033 8.33704 7.42004 -0.274172 2.22607 27.4417
4201920 5.51701 6.18778 8.3791 7.4759 -0.210841 2.25884 27.5598
4201930 5.52565 6.12225 8.40012 7.41073 -0.35762 2.27412 27.4588
4201940 5.52565 6.12225 8.40012 7.41073 -0.35762 2.27412 27.4588
4201950 5.53428 6.19714 8.45269 7.50383 -0.258239 2.28896 27.6879
4201960 5.53428 6.19714 8.45269 7.50383 -0.258239 2.28896 27.6879
4201970 5.45658 6.17841 8.44218 7.42935 -0.26447 2.31029 27.5065
4201980 5.45658 6.14097 8.3791 7.45728 -0.216356 2.31766 27.4339
4201992 5.45658 6.14097 8.3791 7.45728 -0.216356 2.31766 27.4339
4202001 5.52565 6.17841 8.35807 7.42935 -0.250943 2.22798 27.4915
4202013 5.48248 6.14097 8.44218 7.43866 -0.313605 2.32185 27.5043
4202021 5.48248 6.14097 8.44218 7.43866 -0.313605 2.32185 27.5043
4202032 5.48248 6.16905 8.43166 7.4759 -0.244188 2.3165 27.5591
4202042 5.48248 6.16905 8.43166 7.4759 -0.244188 2.3165 27.5591
4202053 5.53428 6.15033 8.40012 7.46659 -0.288083 2.2769 27.5513
4202062 5.49975 6.10352 8.47372 7.4759 -0.357527 2.36619 27.5529
4202072 5.49975 6.10352 8.47372 7.4759 -0.357527 2.36619 27.5529
4202082 5.59472 6.23458 8.49474 7.44797 -0.366291 2.22171 27.772
4202093 5.53428 6.13161 8.41064 7.34556 -0.426432 2.23742 27.4221
4202103 5.53428 6.13161 8.41064 7.34556 -0.426432 2.23742 27.4221
4202113 5.57745 6.18778 8.43166 7.34556 -0.431857 2.18499 27.5425
4202123 5.57745 6.18778 8.43166 7.34556 -0.431857 2.18499 27.5425
4202132 5.56882 6.18778 8.34756 7.34556 -0.348853 2.15113 27.4497
4202142 5.60335 6.26267 8.36858 7.34556 -0.329681 2.09288 27.5802
4202153 5.60335 6.26267 8.36858 7.34556 -0.329681 2.09288 27.5802
4202162 5.61199 6.28139 8.3055 7.32694 -0.28079 2.03758 27.5258
4202182 5.58608 6.30011 8.27396 7.27108 -0.263251 2.00074 27.4312
4202193 5.63789 6.41245 8.20037 7.28039 -0.132051 1.86903 27.5311
4202202 5.63789 6.41245 8.20037 7.28039 -0.132051 1.86903 27.5311
4202214 5.61199 6.44053 8.1478 7.1966 -0.111926 1.80234 27.3969
4202223 5.60335 6.44989 8.09524 7.20591 -0.0391036 1.78102 27.3544
4202235 5.60335 6.44989 8.09524 7.20591 -0.0391036 1.78102 27.3544
4202243 5.69832 6.46861 8.03216 7.16867 -0.0851318 1.66285 27.3678
4202255 5.69832 6.46861 8.07421 7.16867 -0.123358 1.68331 27.4098
4202263 5.61199 6.48733 8.07421 7.13143 -0.0617355 1.70646 27.305
4202273 5.73286 6.52478 8.07421 7.16867 -0.103284 1.62829 27.5005
4202283 5.73286 6.52478 8.07421 7.16867 -0.103284 1.62829 27.5005
4202293 5.68969 6.56222 8.05318 7.11281 -0.0618547 1.59426 27.4179
4202303 5.67242 6.50606 8.0637 7.17798 -0.0474811 1.6757 27.4202
4202324 5.70696 6.59031 8.10575 7.15005 -0.0656426 1.61064 27.5531
4202337 5.62925 6.58095 8.15832 7.27108 0.0583053 1.74706 27.6396
4202344 5.62925 6.58095 8.15832 7.27108 0.0583053 1.74706 27.6396
4202354 5.65515 6.59967 8.17934 7.22453 -0.00930578 1.70781 27.6587
4202364 5.65515 6.59967 8.17934 7.22453 -0.00930578 1.70781 27.6587
4202374 5.58608 6.57159 8.15832 7.25246 0.0722289 1.77002 27.5685
4202384 5.56018 6.48733 8.21088 7.26177 -0.0199467 1.86689 27.5202
4202394 5.56018 6.48733 8.21088 7.26177 -0.0199467 1.86689 27.5202
4202404 5.56018 6.47797 8.13729 7.1966 -0.0209123 1.80608 27.3721
4202414 5.56018 6.47797 8.13729 7.1966 -0.0209123 1.80608 27.3721
4202426 5.53428 6.44989 8.12678 7.24315 0.0292331 1.85663 27.3541
4202434 5.55155 6.43117 8.21088 7.27108 -0.0547796 1.91114 27.4647
4202444 5.55155 6.43117 8.21088 7.27108 -0.0547796 1.91114 27.4647
4202455 5.51701 6.43117 8.20037 7.24315 -0.0393018 1.91409 27.3917
4202465 5.55155 6.44989 8.21088 7.28039 -0.0292331 1.90405 27.4927
4202475 5.55155 6.44989 8.21088 7.28039 -0.0292331 1.90405 27.4927
4202485 5.51701 6.44053 8.21088 7.27108 -0.0148371 1.92665 27.4395
4202495 5.51701 6.44989 8.23191 7.24315 -0.0509068 1.91759 27.442
4202505 5.51701 6.44989 8.23191 7.24315 -0.0509068 1.91759 27.442
4202515 5.55155 6.4967 8.21088 7.26177 -0.00359863 1.86644 27.5209
4202532 5.55155 6.4967 8.21088 7.26177 -0.00359863 1.86644 27.5209
4202536 5.56882 6.51542 8.26345 7.18729 -0.117627 1.83394 27.535
4202546 5.56018 6.43117 8.20037 7.22453 -0.0956103 1.87857 27.4163
4202558 5.56018 6.43117 8.20037 7.22453 -0.0956103 1.87857 27.4163
4202566 5.56882 6.48733 8.1478 7.20591 -0.0213176 1.80459 27.4099
4202578 5.58608 6.47797 8.17934 7.18729 -0.0912845 1.80596 27.4307
4202586 5.58608 6.47797 8.17934 7.18729 -0.0912845 1.80596 27.4307
4202597 5.58608 6.59967 8.16883 7.20591 0.0459641 1.73563 27.5605
4202606 5.58608 6.59967 8.16883 7.20591 0.0459641 1.73563 27.5605
4202618 5.56882 6.51542 8.13729 7.10351 -0.0797659 1.73279 27.325
4202626 5.65515 6.5435 8.1478 7.15005 -0.0994682 1.69069 27.4965
4202637 5.65515 6.5435 8.1478 7.15005 -0.0994682 1.69069 27.4965
4202646 5.57745 6.56222 8.10575 7.13143 0.00954866 1.69715 27.3769
4202657 5.57745 6.56222 8.10575 7.13143 0.00954866 1.69715 27.3769
4202666 5.65515 6.55286 8.12678 7.13143 -0.088869 1.66579 27.4662
4202676 5.75876 6.55286 8.11626 7.06627 -0.232682 1.56628 27.4942
4202686 5.75876 6.55286 8.11626 7.06627 -0.232682 1.56628 27.4942
4202697 5.67242 6.62775 8.10575 7.02903 -0.11062 1.54981 27.435
4202706 5.69832 6.55286 8.13729 7.08489 -0.180054 1.62211 27.4734
4202716 5.69832 6.55286 8.13729 7.08489 -0.180054 1.62211 27.4734
4202726 5.73286 6.56222 8.09524 7.09419 -0.156158 1.57962 27.4845
4202736 5.73286 6.56222 8.09524 7.09419 -0.156158 1.57962 27.4845
4202747 5.68106 6.52478 8.18986 7.07557 -0.246221 1.67062 27.4713
4202757 5.66379 6.48733 8.17934 7.09419 -0.238474 1.70781 27.4247
4202766 5.66379 6.48733 8.17934 7.09419 -0.238474 1.70781 27.4247
4202776 5.73286 6.41245 8.17934 7.06627 -0.395654 1.69781 27.3909
4202786 5.64652 6.43117 8.2214 7.10351 -0.304028 1.7775 27.4026
4202797 5.64652 6.43117 8.2214 7.10351 -0.304028 1.7775 27.4026
4202807 5.65515 6.40308 8.17934 7.14074 -0.265419 1.7871 27.3783
4202818 5.65515 6.40308 8.17934 7.14074 -0.265419 1.7871 27.3783
4202828 5.66379 6.40308 8.21088 7.09419 -0.344691 1.77456 27.372
4202837 5.70696 6.43117 8.27396 7.17798 -0.336871 1.80164 27.5901
4202848 5.70696 6.43117 8.27396 7.17798 -0.336871 1.80164 27.5901
4202859 5.63789 6.41245 8.34756 7.09419 -0.435403 1.8504 27.4921
4202867 5.64652 6.43117 8.32653 7.1966 -0.312743 1.87247 27.6008
4202877 5.64652 6.43117 8.32653 7.1966 -0.312743 1.87247 27.6008
4202888 5.64652 6.42181 8.3055 7.12212 -0.371049 1.83262 27.496
4202898 5.64652 6.42181 8.3055 7.12212 -0.371049 1.83262 27.496
4202908 5.64652 6.39372 8.27396 7.17798 -0.317161 1.86146 27.4922
4202919 5.62925 6.30011 8.32653 7.15005 -0.461231 1.94149 27.4059
4202929 5.62925 6.30011 8.32653 7.15005 -0.461231 1.94149 27.4059
4202939 5.61199 6.30947 8.33704 7.13143 -0.463787 1.94251 27.3899
4202949 5.56882 6.2533 8.26345 7.21522 -0.333084 2.00904 27.3008
4202959 5.56882 6.2533 8.26345 7.21522 -0.333084 2.00904 27.3008
4202969 5.61199 6.30947 8.32653 7.17798 -0.411162 1.95967 27.426
4202979 5.61199 6.30947 8.32653 7.17798 -0.411162 1.95967 27.426
4202989 5.58608 6.30947 8.28448 7.21522 -0.315624 1.97341 27.3953
4202999 5.57745 6.31883 8.29499 7.20591 -0.31727 1.97354 27.3972
4203019 5.64652 6.38436 8.3055 7.24315 -0.294156 1.91325 27.5795
4203029 5.58608 6.30947 8.41064 7.26177 -0.385843 2.05502 27.568
4203040 5.58608 6.30947 8.41064 7.26177 -0.385843 2.05502 27.568
4203049 5.60335 6.32819 8.35807 7.22453 -0.371349 1.99046 27.5142
4203059 5.60335 6.32819 8.35807 7.22453 -0.371349 1.99046 27.5142
4203070 5.52565 6.32819 8.36858 7.24315 -0.293899 2.05233 27.4656
4203079 5.51701 6.27203 8.3055 7.2897 -0.238079 2.08487 27.3842
4203091 5.51701 6.27203 8.3055 7.2897 -0.238079 2.08487 27.3842
4203100 5.59472 6.30947 8.40012 7.27108 -0.375596 2.04912 27.5754
4203110 5.50838 6.29075 8.32653 7.31763 -0.20636 2.10163 27.4433
4203120 5.50838 6.29075 8.32653 7.31763 -0.20636 2.10163 27.4433
4203130 5.53428 6.28139 8.3791 7.34556 -0.260009 2.12906 27.5403
4203140 5.53428 6.28139 8.3791 7.34556 -0.260009 2.12906 27.5403
4203150 5.49111 6.2065 8.43166 7.37349 -0.311588 2.24026 27.5028
4203160 5.44794 6.23458 8.45269 7.39211 -0.248787 2.26808 27.5273
4203170 5.44794 6.23458 8.45269 7.39211 -0.248787 2.26808 27.5273
4203184 5.40477 6.28139 8.44218 7.41073 -0.140554 2.26955 27.5391
4203191 5.31844 6.28139 8.43166 7.48521 0.0149935 2.35333 27.5167
4203201 5.31844 6.28139 8.43166 7.48521 0.0149935 2.35333 27.5167
4203211 5.32707 6.2533 8.41064 7.55038 0.0598937 2.38585 27.5414
4203221 5.24937 6.2533 8.45269 7.51314 0.0586033 2.43724 27.4685
4203241 5.26663 6.24394 8.5368 7.569 0.00861585 2.49592 27.6164
4203251 5.26663 6.24394 8.5368 7.569 0.00861585 2.49592 27.6164
4203263 5.2062 6.23458 8.52628 7.59693 0.0898242 2.54813 27.564
4203273 5.17166 6.26267 8.4632 7.63417 0.237885 2.54055 27.5317
4203284 5.17166 6.26267 8.4632 7.63417 0.237885 2.54055 27.5317
4203293 5.24937 6.2533 8.48423 7.61555 0.122505 2.49821 27.6025
4203303 5.18893 6.23458 8.47372 7.57831 0.136712 2.52689 27.4755
4203313 5.18893 6.23458 8.47372 7.57831 0.136712 2.52689 27.4755
4203323 5.17166 6.19714 8.48423 7.51314 0.0496864 2.53702 27.3662
4203332 5.17166 6.19714 8.48423 7.51314 0.0496864 2.53702 27.3662
4203343 5.26663 6.15969 8.61039 7.58762 -0.117387 2.59102 27.6243
4203353 5.30117 6.22522 8.57885 7.55038 -0.0943854 2.49652 27.6556
4203363 5.30117 6.22522 8.57885 7.55038 -0.0943854 2.49652 27.6556
4203373 5.3357 6.2065 8.54731 7.55969 -0.105628 2.47645 27.6492
4203384 5.26663 6.15969 8.57885 7.49452 -0.173883 2.53478 27.4997
4203394 5.26663 6.15969 8.57885 7.49452 -0.173883 2.53478 27.4997
4203405 5.32707 6.15969 8.64193 7.51314 -0.267859 2.53329 27.6418
4203424 5.27527 6.04736 8.59988 7.4759 -0.32108 2.60224 27.3984
4203434 5.30117 6.02863 8.65244 7.48521 -0.400259 2.62557 27.4675
4203445 5.30117 6.02863 8.65244 7.48521 -0.400259 2.62557 27.4675
4203454 5.3616 6.11289 8.67347 7.33625 -0.532974 2.47518 27.4842
4203467 5.3616 6.06608 8.70501 7.44797 -0.500859 2.5699 27.5807
4203474 5.3616 6.06608 8.70501 7.44797 -0.500859 2.5699 27.5807
4203484 5.37024 6.05672 8.6945 7.42004 -0.533715 2.55301 27.5415
4203494 5.37024 6.05672 8.6945 7.42004 -0.533715 2.55301 27.5415
4203504 5.34434 6.00991 8.74706 7.42004 -0.600846 2.62316 27.5214
4203514 5.39614 6.05672 8.74706 7.39211 -0.62914 2.54765 27.592
4203524 5.39614 6.05672 8.74706 7.39211 -0.62914 2.54765 27.592
4203534 5.40477 6.00055 8.79963 7.40142 -0.72667 2.60577 27.6064
4203545 5.39614 6.00991 8.86271 7.31763 -0.843987 2.596 27.5864
4203555 5.39614 6.00991 8.86271 7.31763 -0.843987 2.596 27.5864
4203565 5.39614 6.01927 8.89425 7.33625 -0.845388 2.61255 27.6459
4203575 5.39614 6.01927 8.89425 7.33625 -0.845388 2.61255 27.6459
4203585 5.39614 5.98183 8.84168 7.26177 -0.904447 2.57928 27.4814
4203595 5.41341 6.04736 8.87322 7.13143 -1.00839 2.48161 27.4654
4203605 5.41341 6.04736 8.87322 7.13143 -1.00839 2.48161 27.4654
4203616 5.49975 6.14097 8.79963 7.11281 -0.948702 2.32554 27.5532
4203628 5.48248 6.15033 8.76809 7.12212 -0.888449 2.32028 27.523
4203636 5.48248 6.15033 8.76809 7.12212 -0.888449 2.32028 27.523
4203648 5.50838 6.23458 8.74706 7.05695 -0.874785 2.21134 27.547
4203656 5.50838 6.23458 8.74706 7.05695 -0.874785 2.21134 27.547
4203667 5.50838 6.16905 8.76809 7.01041 -0.998883 2.24053 27.4559
4203676 5.55155 6.27203 8.73655 7.05695 -0.86823 2.15623 27.6171
4203688 5.55155 6.27203 8.73655 7.05695 -0.86823 2.15623 27.6171
4203698 5.50838 6.34692 8.63142 7.03834 -0.685325 2.07872 27.525
4203707 5.52565 6.38436 8.65244 6.99179 -0.727606 2.03284 27.5542
4203716 5.52565 6.38436 8.65244 6.99179 -0.727606 2.03284 27.5542
4203728 5.47384 6.375 8.54731 7.04765 -0.545213 2.04752 27.4438
4203749 5.47384 6.35628 8.54731 6.98248 -0.623542 2.02833 27.3599
4203758 5.50838 6.40308 8.61039 7.03834 -0.614429 2.03405 27.5602
4203778 5.49111 6.43117 8.5368 7.04765 -0.499055 1.99705 27.5067
4203787 5.53428 6.41245 8.49474 7.03834 -0.526062 1.95763 27.4798
4203797 5.53428 6.41245 8.49474 7.03834 -0.526062 1.95763 27.4798
4203815 5.54292 6.44989 8.5368 7.02903 -0.545019 1.94477 27.5586
4203818 5.54292 6.44989 8.5368 7.02903 -0.545019 1.94477 27.5586
4203828 5.55155 6.43117 8.47372 7.04765 -0.4967 1.92989 27.5041
4203839 5.49111 6.43117 8.47372 7.04765 -0.442739 1.96717 27.4436
4203859 5.52565 6.40308 8.54731 7.09419 -0.522012 2.01999 27.5702
4203869 5.51701 6.41245 8.51577 7.07557 -0.494865 1.99588 27.5208
4203889 5.49975 6.44053 8.44218 7.13143 -0.336157 1.98082 27.5139
4203899 5.49975 6.42181 8.49474 7.13143 -0.400439 2.0172 27.5477
4203910 5.49975 6.42181 8.49474 7.13143 -0.400439 2.0172 27.5477
4203920 5.43931 6.38436 8.51577 7.18729 -0.348228 2.11398 27.5267
4203930 5.43931 6.38436 8.51577 7.18729 -0.348228 2.11398 27.5267
4203942 5.40477 6.32819 8.52628 7.16867 -0.395754 2.16677 27.4279
4203950 5.42204 6.30947 8.56834 7.24315 -0.397335 2.22197 27.543
4203963 5.42204 6.30947 8.56834 7.24315 -0.397335 2.22197 27.543
4203970 5.42204 6.28139 8.56834 7.23384 -0.431864 2.23523 27.5056
4203980 5.42204 6.28139 8.56834 7.23384 -0.431864 2.23523 27.5056
4203990 5.41341 6.22522 8.55782 7.25246 -0.449514 2.27968 27.4489
4204002 5.35297 6.18778 8.67347 7.30832 -0.481734 2.42041 27.5225
4204011 5.35297 6.18778 8.67347 7.30832 -0.481734 2.42041 27.5225
4204021 5.39614 6.18778 8.59988 7.28039 -0.480486 2.34652 27.4642
4204030 5.41341 6.27203 8.63142 7.28039 -0.446062 2.29717 27.5972
4204041 5.41341 6.27203 8.63142 7.28039 -0.446062 2.29717 27.5972
4204050 5.44794 6.24394 8.63142 7.21522 -0.563024 2.26306 27.5385
4204063 5.43068 6.24394 8.61039 7.21522 -0.528994 2.26416 27.5002
4204070 5.43068 6.18778 8.61039 7.26177 -0.537924 2.321 27.4906
4204082 5.43931 6.2065 8.64193 7.22453 -0.590834 2.30115 27.5123
4204102 5.46521 6.2065 8.66296 7.20591 -0.649728 2.28599 27.5406
4204111 5.53428 6.27203 8.67347 7.15005 -0.71089 2.18091 27.6298
4204123 5.53428 6.27203 8.67347 7.15005 -0.71089 2.18091 27.6298
4204133 5.51701 6.28139 8.61039 7.15936 -0.622685 2.16084 27.5682
4204142 5.51701 6.21586 8.6209 7.17798 -0.675648 2.21527 27.5318
4204153 5.51701 6.21586 8.6209 7.17798 -0.675648 2.21527 27.5318
4204163 5.52565 6.23458 8.66296 7.15005 -0.728939 2.20474 27.5732
4204173 5.52565 6.23458 8.66296 7.15005 -0.728939 2.20474 27.5732
4204183 5.49975 6.14097 8.73655 7.13143 -0.875989 2.30505 27.5087
4204194 5.47384 6.19714 8.75758 7.17798 -0.775449 2.31716 27.6065
4204204 5.47384 6.19714 8.75758 7.17798 -0.775449 2.31716 27.6065
4204215 5.47384 6.15033 8.71552 7.14074 -0.817212 2.31006 27.4804
4204224 5.50838 6.21586 8.73655 7.24315 -0.70921 2.30407 27.7039
4204234 5.50838 6.21586 8.73655 7.24315 -0.70921 2.30407 27.7039
4204244 5.44794 6.17841 8.71552 7.1966 -0.71577 2.33442 27.5385
4204254 5.44794 6.17841 8.71552 7.1966 -0.71577 2.33442 27.5385
4204264 5.40477 6.13161 8.70501 7.24315 -0.668578 2.40778 27.4845
4204274 5.43068 6.15033 8.79963 7.23384 -0.766021 2.41855 27.6145
4204284 5.43068 6.15033 8.79963 7.23384 -0.766021 2.41855 27.6145
4204294 5.38751 6.15033 8.68398 7.28039 -0.582466 2.41428 27.5022
4204304 5.31844 6.19714 8.6945 7.2897 -0.478266 2.43745 27.4998
4204314 5.31844 6.19714 8.6945 7.2897 -0.478266 2.43745 27.4998
4204325 5.41341 6.19714 8.6209 7.27108 -0.51458 2.33512 27.5025
4204335 5.40477 6.16905 8.66296 7.2897 -0.55308 2.38616 27.5265
4204345 5.40477 6.16905 8.66296 7.2897 -0.55308 2.38616 27.5265
4204355 5.37024 6.19714 8.70501 7.33625 -0.490661 2.4307 27.6086
4204365 5.37024 6.19714 8.70501 7.33625 -0.490661 2.4307 27.6086
4204376 5.32707 6.24394 8.75758 7.32694 -0.464427 2.44807 27.6555
4204387 5.35297 6.23458 8.73655 7.2897 -0.511733 2.41113 27.6138
4204396 5.35297 6.23458 8.73655 7.2897 -0.511733 2.41113 27.6138
4204406 5.34434 6.24394 8.70501 7.26177 -0.493221 2.3835 27.5551
4204416 5.3098 6.17841 8.78912 7.22453 -0.632657 2.46825 27.5019
4204427 5.3098 6.17841 8.78912 7.22453 -0.632657 2.46825 27.5019
4204436 5.30117 6.26267 8.76809 7.26177 -0.493607 2.42774 27.5937
4204454 5.30117 6.26267 8.76809 7.26177 -0.493607 2.42774 27.5937
4204458 5.27527 6.15033 8.83117 7.36418 -0.535753 2.59029 27.621
4204467 5.22346 6.05672 8.86271 7.29901 -0.665444 2.6683 27.4419
4204479 5.22346 6.05672 8.86271 7.29901 -0.665444 2.6683 27.4419
4204489 5.22346 6.0848 8.92579 7.32694 -0.668977 2.69101 27.561
4204500 5.2321 6.15969 8.94682 7.34556 -0.608341 2.65527 27.6842
4204509 5.2321 6.15969 8.94682 7.34556 -0.608341 2.65527 27.6842
4204519 5.258 6.0848 8.92579 7.40142 -0.630252 2.70207 27.67
4204529 5.258 6.0848 8.92579 7.40142 -0.630252 2.70207 27.67
4204540 5.2062 6.04736 8.91528 7.39211 -0.618628 2.75054 27.5609
4204549 5.21483 6.05672 8.9363 7.41073 -0.61886 2.75656 27.6186
4204559 5.21483 6.05672 8.9363 7.41073 -0.61886 2.75656 27.6186
4204569 5.18893 6.02863 8.91528 7.37349 -0.638103 2.76548 27.5063
4204580 5.18893 6.01927 8.9363 7.39211 -0.648086 2.78913 27.5366
4204589 5.18893 6.01927 8.9363 7.39211 -0.648086 2.78913 27.5366
4204600 5.22346 6.13161 8.90476 7.32694 -0.60688 2.65162 27.5868
4204610 5.19756 6.01927 8.89425 7.35487 -0.65323 2.74829 27.466
4204620 5.19756 6.01927 8.89425 7.35487 -0.65323 2.74829 27.466
4204630 5.2839 6.11289 8.96784 7.30832 -0.750312 2.64485 27.673
4204643 5.2839 6.11289 8.96784 7.30832 -0.750312 2.64485 27.673
4204651 5.19756 6.07544 8.92579 7.26177 -0.715694 2.68452 27.4606
4204660 5.32707 6.15033 8.86271 7.28039 -0.687037 2.53383 27.6205
4204671 5.32707 6.15033 8.86271 7.28039 -0.687037 2.53383 27.6205
4204681 5.29253 6.19714 8.81014 7.26177 -0.583933 2.49382 27.5616
4204691 5.27527 6.19714 8.79963 7.20591 -0.611258 2.47461 27.4779
4204701 5.27527 6.19714 8.79963 7.20591 -0.611258 2.47461 27.4779
4204711 5.34434 6.2533 8.82066 7.20591 -0.638726 2.40492 27.6242
4204721 5.34434 6.2533 8.82066 7.20591 -0.638726 2.40492 27.6242
4204731 5.3357 6.23458 8.73655 7.08489 -0.687057 2.32798 27.3917
4204741 5.37024 6.24394 8.83117 7.15936 -0.722794 2.37805 27.6047
4204754 5.37024 6.24394 8.83117 7.15936 -0.722794 2.37805 27.6047
4204762 5.41341 6.22522 8.81014 7.16867 -0.751026 2.35731 27.6174
4204771 5.38751 6.21586 8.75758 7.15005 -0.708053 2.34684 27.511
4204784 5.38751 6.21586 8.75758 7.15005 -0.708053 2.34684 27.511
4204791 5.39614 6.28139 8.86271 7.15936 -0.738366 2.35268 27.6996
4204801 5.39614 6.28139 8.86271 7.15936 -0.738366 2.35268 27.6996
4204811 5.38751 6.30011 8.81014 7.08489 -0.736561 2.28807 27.5826
4204821 5.44794 6.28139 8.76809 7.10351 -0.752817 2.25115 27.6009
4204831 5.44794 6.28139 8.76809 7.10351 -0.752817 2.25115 27.6009
4204841 5.47384 6.29075 8.79963 7.04765 -0.846629 2.2179 27.6119
4204856 5.47384 6.29075 8.79963 7.04765 -0.846629 2.2179 27.6119
4204861 5.45658 6.30947 8.76809 7.05695 -0.777642 2.20669 27.5911
4204871 5.43068 6.31883 8.76809 7.01041 -0.789675 2.19539 27.528
4204881 5.43068 6.31883 8.76809 7.01041 -0.789675 2.19539 27.528
4204891 5.49111 6.30011 8.67347 6.99179 -0.794607 2.11646 27.4565
4204903 5.48248 6.36564 8.73655 7.01972 -0.755019 2.12366 27.6044
4204924 5.53428 6.35628 8.73655 6.97317 -0.852697 2.07561 27.6003
4204934 5.53428 6.35628 8.71552 6.97317 -0.834288 2.06576 27.5792
4204942 5.53428 6.27203 8.71552 7.01972 -0.869651 2.13982 27.5415
4204955 5.55155 6.32819 8.67347 6.92662 -0.882655 2.03077 27.4798
4204963 5.55155 6.32819 8.67347 6.92662 -0.882655 2.03077 27.4798
4204975 5.49975 6.21586 8.70501 6.96386 -0.935787 2.16542 27.3845
4204983 5.50838 6.26267 8.79963 6.95455 -0.990728 2.17063 27.5252
4205004 5.54292 6.23458 8.76809 6.93593 -1.03751 2.14318 27.4815
4205014 5.53428 6.24394 8.81014 6.97317 -1.02255 2.17971 27.5615
4205024 5.53428 6.24394 8.81014 6.97317 -1.02255 2.17971 27.5615
4205035 5.56018 6.24394 8.94682 7.0011 -1.13682 2.23972 27.752
4205044 5.56018 6.24394 8.94682 7.0011 -1.13682 2.23972 27.752
4205057 5.51701 6.2065 8.86271 7.01972 -1.04462 2.25979 27.6059
4205064 5.52565 6.17841 8.86271 7.04765 -1.05226 2.28484 27.6144
4205077 5.52565 6.17841 8.86271 7.04765 -1.05226 2.28484 27.6144
4205084 5.48248 6.17841 8.84168 7.12212 -0.926363 2.33645 27.6247
4205100 5.47384 6.23458 8.79963 7.04765 -0.899312 2.25299 27.5557
4205105 5.47384 6.23458 8.79963 7.04765 -0.899312 2.25299 27.5557
4205115 5.46521 6.2065 8.82066 7.06627 -0.919046 2.29432 27.5586
4205125 5.46521 6.2065 8.82066 7.06627 -0.919046 2.29432 27.5586
4205135 5.46521 6.10352 8.79963 7.02903 -1.03321 2.3323 27.3974
4205145 5.51701 6.19714 8.83117 7.08489 -0.96467 2.28115 27.6302
4205160 5.51701 6.19714 8.83117 7.08489 -0.96467 2.28115 27.6302
4205175 5.55155 6.27203 8.68398 7.0011 -0.874643 2.10561 27.5087
4205185 5.55155 6.27203 8.68398 7.0011 -0.874643 2.10561 27.5087
4205195 5.54292 6.22522 8.71552 7.04765 -0.894956 2.17663 27.5313
4205205 5.54292 6.22522 8.71552 7.04765 -0.894956 2.17663 27.5313
4205215 5.47384 6.2065 8.6945 7.03834 -0.842212 2.21745 27.4132
4205225 5.51701 6.27203 8.71552 7.06627 -0.810862 2.17227 27.5708
4205235 5.51701 6.27203 8.71552 7.06627 -0.810862 2.17227 27.5708
4205246 5.54292 6.26267 8.72604 7.0011 -0.912723 2.13649 27.5327
4205257 5.46521 6.21586 8.74706 7.03834 -0.872046 2.24146 27.4665
4205269 5.46521 6.21586 8.74706 7.03834 -0.872046 2.24146 27.4665
4205277 5.46521 6.28139 8.73655 7.04765 -0.792502 2.19986 27.5308
4205297 5.45658 6.22522 8.76809 7.14074 -0.778073 2.29808 27.5906
4205306 5.45658 6.23458 8.72604 7.15936 -0.71498 2.28142 27.5766
4205318 5.45658 6.23458 8.72604 7.15936 -0.71498 2.28142 27.5766
4205328 5.45658 6.24394 8.79963 7.07557 -0.849198 2.27085 27.5757
4205339 5.44794 6.22522 8.68398 7.09419 -0.739956 2.24307 27.4513
4205348 5.44794 6.22522 8.68398 7.09419 -0.739956 2.24307 27.4513
4205360 5.49975 6.27203 8.70501 7.16867 -0.690942 2.22563 27.6455
4205370 5.49975 6.27203 8.70501 7.16867 -0.690942 2.22563 27.6455
4205380 5.41341 6.21586 8.75758 7.14074 -0.739604 2.32624 27.5276
4205387 5.43068 6.21586 8.6945 7.22453 -0.621045 2.32491 27.5656
4205401 5.43068 6.21586 8.6945 7.22453 -0.621045 2.32491 27.5656
4205408 5.42204 6.2065 8.66296 7.21522 -0.602831 2.31742 27.5067
4205418 5.37887 6.21586 8.76809 7.21522 -0.648956 2.387 27.578
4205428 5.37887 6.21586 8.76809 7.21522 -0.648956 2.387 27.578
4205438 5.38751 6.27203 8.79963 7.26177 -0.589205 2.38188 27.7209
4205448 5.38751 6.27203 8.79963 7.26177 -0.589205 2.38188 27.7209
4205458 5.34434 6.21586 8.72604 7.25246 -0.546549 2.4066 27.5387
4205468 5.32707 6.16905 8.78912 7.27108 -0.613332 2.48441 27.5563
4205479 5.32707 6.16905 8.78912 7.27108 -0.613332 2.48441 27.5563
4205489 5.3616 6.19714 8.71552 7.27108 -0.552639 2.41122 27.5453
4205499 5.27527 6.14097 8.66296 7.32694 -0.429019 2.50327 27.4061
4205519 5.32707 6.14097 8.73655 7.24315 -0.618899 2.46559 27.4477
4205539 5.31844 6.16905 8.6945 7.31763 -0.478411 2.46802 27.4996
4205549 5.29253 6.14097 8.72604 7.3828 -0.449124 2.54626 27.5423
4205559 5.29253 6.14097 8.72604 7.3828 -0.449124 2.54626 27.5423
4205570 5.35297 6.15969 8.72604 7.37349 -0.494185 2.49176 27.6122
4205579 5.27527 6.18778 8.79963 7.37349 -0.464632 2.55648 27.6362
4205589 5.27527 6.18778 8.79963 7.37349 -0.464632 2.55648 27.6362
4205600 5.32707 6.18778 8.68398 7.32694 -0.45079 2.45011 27.5258
4205610 5.32707 6.18778 8.68398 7.32694 -0.45079 2.45011 27.5258
4205620 5.2839 6.18778 8.72604 7.33625 -0.441191 2.50088 27.534
4205630 5.30117 6.15033 8.75758 7.40142 -0.459056 2.55745 27.6105
4205640 5.30117 6.15033 8.75758 7.40142 -0.459056 2.55745 27.6105
4205650 5.3098 6.19714 8.76809 7.34556 -0.484414 2.50178 27.6206
4205660 5.29253 6.17841 8.71552 7.42004 -0.370926 2.53452 27.6065
4205670 5.29253 6.17841 8.71552 7.42004 -0.370926 2.53452 27.6065
4205680 5.3357 6.16905 8.76809 7.40142 -0.481781 2.52839 27.6743
4205691 5.3357 6.16905 8.76809 7.40142 -0.481781 2.52839 27.6743
4205700 5.27527 6.15033 8.74706 7.36418 -0.461031 2.55239 27.5368
4205710 5.30117 6.17841 8.76809 7.31763 -0.519866 2.50649 27.5653
4205721 5.30117 6.17841 8.76809 7.31763 -0.519866 2.50649 27.5653
4205735 5.30117 6.14097 8.74706 7.40142 -0.458343 2.55867 27.5906
4205740 5.26663 6.13161 8.72604 7.3828 -0.434667 2.56876 27.5071
4205751 5.26663 6.13161 8.72604 7.3828 -0.434667 2.56876 27.5071
4205761 5.27527 6.0848 8.79963 7.48521 -0.456579 2.67216 27.6449
4205771 5.27527 6.0848 8.79963 7.48521 -0.456579 2.67216 27.6449
4205781 5.27527 6.06608 8.82066 7.40142 -0.569978 2.65609 27.5634
4205794 5.18893 6.06608 8.79963 7.42935 -0.448558 2.71466 27.484
4205802 5.18893 6.06608 8.79963 7.42935 -0.448558 2.71466 27.484
4205811 5.24073 6.0848 8.86271 7.42004 -0.542043 2.69333 27.6083
4205822 5.24937 6.038 8.86271 7.43866 -0.575791 2.72612 27.5887
4205831 5.24937 6.038 8.86271 7.43866 -0.575791 2.72612 27.5887
4205843 5.26663 6.038 8.90476 7.4759 -0.593725 2.75022 27.6853
4205851 5.26663 6.038 8.90476 7.4759 -0.593725 2.75022 27.6853
4205862 5.18893 6.04736 8.8522 7.3828 -0.556004 2.72942 27.4713
4205871 5.24073 6.038 8.88374 7.35487 -0.664668 2.70369 27.5173
4205882 5.24073 6.038 8.88374 7.35487 -0.664668 2.70369 27.5173
4205891 5.258 6.07544 8.8522 7.41073 -0.565311 2.67942 27.5964
4205905 5.2062 6.01927 8.92579 7.39211 -0.65406 2.77331 27.5434
4205912 5.2062 6.01927 8.92579 7.39211 -0.65406 2.77331 27.5434
4205921 5.24937 6.00991 8.94682 7.44797 -0.667438 2.78558 27.6541
4205941 5.2062 5.94438 9.02041 7.49452 -0.711806 2.90851 27.6655
4205951 5.21483 6.038 9.02041 7.40142 -0.718907 2.80166 27.6747
4205961 5.21483 6.038 9.02041 7.40142 -0.718907 2.80166 27.6747
4205971 5.24937 6.00055 9.0099 7.40142 -0.774808 2.7989 27.6612
4205981 5.18029 6.00055 9.03092 7.40142 -0.732659 2.85271 27.6132
4205991 5.18029 5.97247 9.03092 7.44797 -0.715461 2.89132 27.6317
4206003 5.19756 5.95374 9.07297 7.45728 -0.776246 2.91473 27.6816
4206014 5.19756 5.95374 9.07297 7.45728 -0.776246 2.91473 27.6816
4206023 5.15439 5.88822 8.99938 7.44797 -0.743532 2.94912 27.49
4206032 5.2062 5.9163 9.02041 7.46659 -0.763969 2.91449 27.6095
4206043 5.2062 5.9163 9.02041 7.46659 -0.763969 2.91449 27.6095
4206052 5.12849 5.92566 9.05195 7.44797 -0.732018 2.96459 27.5541
4206062 5.17166 5.80396 9.094 7.45728 -0.91221 3.0383 27.5269
4206073 5.17166 5.80396 9.094 7.45728 -0.91221 3.0383 27.5269
4206082 5.12849 5.83205 9.04143 7.45728 -0.801729 3.02531 27.4593
4206093 5.12849 5.83205 9.04143 7.45728 -0.801729 3.02531 27.4593
4206106 5.12849 5.85077 9.10451 7.53176 -0.769921 3.07274 27.6155
4206112 5.10259 5.78524 9.05195 7.569 -0.727308 3.12616 27.5088
4206126 5.10259 5.78524 9.05195 7.569 -0.727308 3.12616 27.5088
4206133 5.13713 5.87885 9.10451 7.61555 -0.673521 3.08484 27.736
4206145 5.13713 5.87885 9.10451 7.61555 -0.673521 3.08484 27.736
4206153 5.11122 5.85077 9.12554 7.58762 -0.721198 3.11715 27.6752
4206165 5.14576 5.83205 9.10451 7.64348 -0.698574 3.12174 27.7258
4206172 5.14576 5.83205 9.10451 7.64348 -0.698574 3.12174 27.7258
4206182 5.06805 5.81333 9.10451 7.60624 -0.682259 3.16904 27.5921
4206194 5.09396 5.81333 8.99938 7.60624 -0.612231 3.10673 27.5129
4206207 5.09396 5.81333 8.99938 7.60624 -0.612231 3.10673 27.5129
4206214 5.06805 5.83205 9.11503 7.61555 -0.665455 3.16522 27.6307
4206224 5.06805 5.83205 9.11503 7.61555 -0.665455 3.16522 27.6307
4206234 5.05942 5.87885 9.06246 7.69003 -0.499259 3.14954 27.6908
4206246 5.11122 5.82269 9.13605 7.59693 -0.747877 3.14405 27.6669
4206254 5.11122 5.82269 9.13605 7.59693 -0.747877 3.14405 27.6669
4206265 5.04215 5.85077 9.094 7.63417 -0.589414 3.16891 27.6211
4206274 5.08532 5.82269 9.23067 7.64348 -0.764722 3.22121 27.7822
4206284 5.08532 5.82269 9.23067 7.64348 -0.764722 3.22121 27.7822
4206294 5.05942 5.81333 9.10451 7.59693 -0.683317 3.17074 27.5742
4206304 5.05942 5.81333 9.10451 7.59693 -0.683317 3.17074 27.5742
4206314 5.01625 5.81333 9.13605 7.64348 -0.629772 3.23261 27.6091
4206327 5.06805 5.83205 9.17811 7.68072 -0.660498 3.2199 27.7589
4206334 5.06805 5.83205 9.17811 7.68072 -0.660498 3.2199 27.7589
4206344 5.03352 5.82269 9.06246 7.64348 -0.571261 3.18357 27.5621
4206354 5.07669 5.81333 9.06246 7.61555 -0.644109 3.1493 27.568
4206372 5.07669 5.81333 9.06246 7.61555 -0.644109 3.1493 27.568
4206375 5.07669 5.86949 9.14657 7.65279 -0.631608 3.16439 27.7455
4206388 5.05079 5.77588 9.13605 7.61555 -0.721046 3.22261 27.5783
4206395 5.05079 5.77588 9.13605 7.61555 -0.721046 3.22261 27.5783
4206408 5.00762 5.80396 9.12554 7.62486 -0.63886 3.23207 27.562
4206428 5.05942 5.76652 9.12554 7.57831 -0.762926 3.20266 27.5298
4206438 5.05079 5.82269 9.11503 7.60624 -0.667596 3.17876 27.5947
4206447 5.05079 5.82269 9.11503 7.60624 -0.667596 3.17876 27.5947
4206456 5.11986 5.83205 9.05195 7.57831 -0.690158 3.08806 27.5822
4206467 5.11986 5.85077 9.05195 7.55969 -0.690062 3.06774 27.5823
4206476 5.11986 5.85077 9.05195 7.55969 -0.690062 3.06774 27.5823
4206487 5.18029 5.84141 9.13605 7.569 -0.816841 3.07466 27.7268
4206496 5.18029 5.84141 9.13605 7.569 -0.816841 3.07466 27.7268
4206508 5.09396 5.75716 9.05195 7.59693 -0.71983 3.16242 27.5
4206516 5.12849 5.82269 9.04143 7.51314 -0.75811 3.05576 27.5058
4206526 5.12849 5.82269 9.04143 7.51314 -0.75811 3.05576 27.5058
4206538 5.17166 5.86949 9.05195 7.54107 -0.735541 3.01359 27.6342
4206548 5.18893 5.86949 9.06246 7.46659 -0.829457 2.97452 27.5875
4206558 5.18893 5.86949 9.06246 7.46659 -0.829457 2.97452 27.5875
4206569 5.18893 5.9163 9.03092 7.55969 -0.671454 2.97087 27.6958
4206577 5.18893 5.9163 9.03092 7.55969 -0.671454 2.97087 27.6958
4206589 5.18893 5.86949 9.11503 7.43866 -0.901598 2.98525 27.6121
4206599 5.24073 5.92566 8.97836 7.43866 -0.774705 2.85532 27.5834
4206611 5.24073 5.92566 8.97836 7.43866 -0.774705 2.85532 27.5834
4206617 5.258 5.89758 9.04143 7.42935 -0.880049 2.88594 27.6264
4206629 5.26663 5.90694 8.94682 7.3828 -0.839637 2.81206 27.5032
4206640 5.26663 5.90694 8.94682 7.3828 -0.839637 2.81206 27.5032
4206652 5.31844 5.92566 8.96784 7.30832 -0.955926 2.74274 27.5203
4206659 5.3098 5.95374 8.92579 7.27108 -0.920199 2.69479 27.4604
4206672 5.3098 5.95374 8.92579 7.27108 -0.920199 2.69479 27.4604
4206680 5.37024 5.97247 8.9363 7.24315 -0.990945 2.6361 27.5222
4206693 5.37024 5.97247 8.9363 7.24315 -0.990945 2.6361 27.5222
4206700 5.37024 5.99119 8.90476 7.26177 -0.92818 2.61831 27.528
4206713 5.41341 6.04736 8.9363 7.33625 -0.870883 2.60253 27.7333
4206720 5.41341 6.04736 8.9363 7.33625 -0.870883 2.60253 27.7333
4206730 5.42204 6.11289 8.88374 7.32694 -0.780256 2.52783 27.7456
4206744 5.42204 6.11289 8.88374 7.32694 -0.780256 2.52783 27.7456
4206750 5.37024 6.05672 8.91528 7.34556 -0.797492 2.61878 27.6878
4206760 5.35297 6.07544 8.89425 7.29901 -0.789927 2.58756 27.6217
4206770 5.35297 6.07544 8.89425 7.29901 -0.789927 2.58756 27.6217
4206780 5.26663 5.99119 8.82066 7.28039 -0.745374 2.65539 27.3589
4206790 5.258 5.98183 8.88374 7.35487 -0.73242 2.72875 27.4784
4206800 5.258 5.98183 8.88374 7.35487 -0.73242 2.72875 27.4784
4206813 5.35297 5.97247 8.90476 7.3828 -0.817062 2.69554 27.613
4206820 5.35297 5.97247 8.90476 7.3828 -0.817062 2.69554 27.613
4206833 5.24937 5.92566 8.86271 7.36418 -0.750157 2.76543 27.4019
4206841 5.27527 5.97247 8.97836 7.43866 -0.761341 2.80282 27.6648
4206855 5.27527 5.97247 8.97836 7.43866 -0.761341 2.80282 27.6648
4206861 5.30117 5.93502 8.94682 7.50383 -0.730608 2.82506 27.6868
4206871 5.21483 5.92566 8.98887 7.44797 -0.752488 2.88082 27.5773
4206881 5.21483 5.92566 8.98887 7.44797 -0.752488 2.88082 27.5773
4206891 5.15439 5.93502 8.92579 7.52245 -0.565322 2.919 27.5377
4206901 5.19756 5.89758 8.95733 7.49452 -0.692262 2.91686 27.547
4206915 5.19756 5.89758 8.95733 7.49452 -0.692262 2.91686 27.547
4206923 5.14576 5.97247 9.04143 7.51314 -0.633819 2.94676 27.6728
4206933 5.14576 5.97247 9.04143 7.51314 -0.633819 2.94676 27.6728
4206943 5.05942 5.85077 8.97836 7.55038 -0.580035 3.07148 27.4389
4206953 5.10259 5.86013 8.98887 7.65279 -0.523952 3.08589 27.6044
4206962 5.10259 5.86013 8.98887 7.65279 -0.523952 3.08589 27.6044
4206972 5.11122 5.89758 8.97836 7.61555 -0.522093 3.03509 27.6027
4206982 5.04215 5.89758 8.99938 7.63417 -0.46221 3.09747 27.5733
4206992 5.04215 5.90694 8.99938 7.63417 -0.453569 3.09132 27.5826
4207004 5.08532 5.90694 8.99938 7.67141 -0.457606 3.07913 27.6631
4207016 5.08532 5.90694 8.99938 7.67141 -0.457606 3.07913 27.6631
4207023 5.05942 5.86013 8.94682 7.63417 -0.465384 3.088 27.5005
4207033 5.09396 5.98183 8.95733 7.64348 -0.384779 2.99442 27.6766
4207042 5.09396 5.98183 8.95733 7.64348 -0.384779 2.99442 27.6766
4207054 5.05079 5.94438 8.94682 7.569 -0.440022 3.01006 27.511
4207062 5.09396 5.94438 8.89425 7.59693 -0.405826 2.97109 27.5295
4207073 5.09396 5.94438 8.89425 7.59693 -0.405826 2.97109 27.5295
4207084 5.14576 5.9163 8.9363 7.65279 -0.463787 2.99827 27.6512
4207094 5.14576 5.9163 8.9363 7.65279 -0.463787 2.99827 27.6512
4207104 5.09396 5.99119 8.81014 7.55969 -0.321634 2.88728 27.455
4207114 5.08532 6.06608 8.82066 7.48521 -0.322944 2.8159 27.4573
4207124 5.08532 6.06608 8.82066 7.48521 -0.322944 2.8159 27.4573
4207134 5.10259 6.11289 8.84168 7.55038 -0.254461 2.8126 27.6075
4207144 5.10259 6.11289 8.84168 7.55038 -0.254461 2.8126 27.6075
4207154 5.2062 6.12225 8.83117 7.50383 -0.371687 2.71472 27.6634
4207164 5.18893 6.13161 8.75758 7.50383 -0.281946 2.68701 27.5819
4207184 5.22346 6.07544 8.82066 7.46659 -0.455017 2.71242 27.5862
4207194 5.21483 6.17841 8.81014 7.44797 -0.360367 2.63904 27.6514
4207214 5.24073 6.2065 8.66296 7.41073 -0.260217 2.52161 27.5209
4207224 5.24073 6.2065 8.66296 7.41073 -0.260217 2.52161 27.5209
4207234 5.2062 6.15033 8.65244 7.43866 -0.245596 2.58743 27.4476
4207244 5.29253 6.21586 8.68398 7.35487 -0.368261 2.46692 27.5472
4207254 5.29253 6.21586 8.68398 7.35487 -0.368261 2.46692 27.5472
4207264 5.3098 6.23458 8.5368 7.28039 -0.303 2.34241 27.3616
4207275 5.29253 6.2065 8.59988 7.29901 -0.353035 2.40886 27.3979
4207285 5.29253 6.2065 8.59988 7.29901 -0.353035 2.40886 27.3979
4207295 5.3098 6.32819 8.63142 7.30832 -0.27622 2.33979 27.5777
4207305 5.3098 6.32819 8.63142 7.30832 -0.27622 2.33979 27.5777
4207315 5.3616 6.30011 8.52628 7.27108 -0.288332 2.25917 27.4591
4207325 5.3357 6.30947 8.58936 7.26177 -0.321698 2.29447 27.4963
4207335 5.3357 6.30947 8.58936 7.26177 -0.321698 2.29447 27.4963
4207345 5.35297 6.23458 8.58936 7.24315 -0.423594 2.32219 27.4201
4207355 5.43068 6.31883 8.65244 7.25246 -0.462694 2.25392 27.6544
4207365 5.43068 6.31883 8.65244 7.25246 -0.462694 2.25392 27.6544
4207375 5.43931 6.30947 8.56834 7.29901 -0.361347 2.23705 27.6161
4207386 5.43931 6.30947 8.56834 7.29901 -0.361347 2.23705 27.6161
4207395 5.41341 6.27203 8.52628 7.22453 -0.403781 2.22263 27.4363
4207406 5.44794 6.32819 8.48423 7.25246 -0.319409 2.1593 27.5128
4207415 5.44794 6.32819 8.48423 7.25246 -0.319409 2.1593 27.5128
4207425 5.47384 6.32819 8.59988 7.16867 -0.52307 2.15801 27.5706
4207435 5.42204 6.36564 8.51577 7.1966 -0.341423 2.14074 27.5001
4207445 5.42204 6.36564 8.51577 7.1966 -0.341423 2.14074 27.5001
4207456 5.42204 6.29075 8.52628 7.21522 -0.402808 2.20114 27.4543
4207467 5.42204 6.29075 8.52628 7.21522 -0.402808 2.20114 27.4543
4207476 5.47384 6.34692 8.50526 7.14074 -0.447305 2.08902 27.4668
4207488 5.45658 6.30011 8.55782 7.1966 -0.470433 2.1797 27.5111
4207496 5.45658 6.30011 8.55782 7.1966 -0.470433 2.1797 27.5111
4207509 5.48248 6.29075 8.56834 7.27108 -0.442715 2.20887 27.6126
4207516 5.47384 6.27203 8.54731 7.17798 -0.519766 2.17287 27.4712
4207526 5.47384 6.27203 8.54731 7.17798 -0.519766 2.17287 27.4712
4207536 5.47384 6.30011 8.5368 7.23384 -0.432649 2.17648 27.5446
4207549 5.47384 6.30011 8.5368 7.23384 -0.432649 2.17648 27.5446
4207556 5.44794 6.2533 8.58936 7.15005 -0.577563 2.2074 27.4407
4207569 5.46521 6.29075 8.58936 7.26177 -0.454639 2.22507 27.6071
4207576 5.46521 6.29075 8.58936 7.26177 -0.454639 2.22507 27.6071
4207586 5.43068 6.30011 8.61039 7.28039 -0.416848 2.2591 27.6216
4207596 5.39614 6.29075 8.5368 7.22453 -0.380401 2.22662 27.4482
4207608 5.39614 6.29075 8.5368 7.22453 -0.380401 2.22662 27.4482
4207618 5.41341 6.27203 8.64193 7.22453 -0.507022 2.27627 27.5519
4207629 5.41341 6.27203 8.64193 7.22453 -0.507022 2.27627 27.5519
4207637 5.41341 6.17841 8.6209 7.25246 -0.549272 2.33835 27.4652
4207653 5.38751 6.31883 8.66296 7.2897 -0.399442 2.30286 27.659
4207671 5.40477 6.27203 8.64193 7.27108 -0.45632 2.30314 27.5898
4207677 5.41341 6.26267 8.67347 7.28039 -0.492054 2.32237 27.6299
4207690 5.41341 6.26267 8.67347 7.28039 -0.492054 2.32237 27.6299
4207698 5.41341 6.24394 8.66296 7.24315 -0.534464 2.31217 27.5635
4207711 5.40477 6.16905 8.64193 7.27108 -0.551687 2.36796 27.4868
4207719 5.40477 6.16905 8.64193 7.27108 -0.551687 2.36796 27.4868
4207729 5.49111 6.26267 8.68398 7.2897 -0.561467 2.28289 27.7275
4207739 5.49111 6.26267 8.68398 7.2897 -0.561467 2.28289 27.7275
4207749 5.35297 6.23458 8.65244 7.25246 -0.471374 2.35557 27.4925
4207759 5.42204 6.28139 8.59988 7.28039 -0.417036 2.27136 27.5837
4207770 5.42204 6.28139 8.59988 7.28039 -0.417036 2.27136 27.5837
4207781 5.41341 6.19714 8.61039 7.15936 -0.609286 2.27858 27.3803
4207793 5.43068 6.17841 8.66296 7.23384 -0.619298 2.33825 27.5059
4207801 5.43068 6.17841 8.66296 7.23384 -0.619298 2.33825 27.5059
4207810 5.42204 6.21586 8.6209 7.2897 -0.487667 2.32646 27.5485
4207820 5.42204 6.21586 8.6209 7.2897 -0.487667 2.32646 27.5485
4207830 5.39614 6.17841 8.68398 7.20591 -0.633357 2.35687 27.4645
4207840 5.42204 6.21586 8.61039 7.21522 -0.547408 2.28724 27.4635
4207853 5.42204 6.21586 8.61039 7.21522 -0.547408 2.28724 27.4635
4207860 5.44794 6.21586 8.68398 7.22453 -0.627019 2.30923 27.5723
4207870 5.37887 6.18778 8.68398 7.25246 -0.565951 2.38326 27.5031
4207880 5.37887 6.18778 8.68398 7.25246 -0.565951 2.38326 27.5031
4207890 5.43931 6.18778 8.6945 7.21522 -0.663482 2.33286 27.5368
4207911 5.43068 6.2065 8.68398 7.27108 -0.577223 2.34734 27.5922
4207921 5.43931 6.23458 8.66296 7.28039 -0.531633 2.31891 27.6172
4207931 5.43931 6.23458 8.66296 7.28039 -0.531633 2.31891 27.6172
4207941 5.48248 6.27203 8.64193 7.22453 -0.568271 2.23306 27.621
4207951 5.49111 6.24394 8.67347 7.1966 -0.655705 2.24688 27.6051
4207961 5.49111 6.24394 8.67347 7.1966 -0.655705 2.24688 27.6051
4207972 5.44794 6.23458 8.61039 7.22453 -0.544399 2.26351 27.5175
4207981 5.44794 6.23458 8.61039 7.22453 -0.544399 2.26351 27.5175
4207992 5.50838 6.23458 8.59988 7.16867 -0.640643 2.19486 27.5115
4208001 5.46521 6.2533 8.61039 7.13143 -0.628965 2.1977 27.4603
4208011 5.46521 6.2533 8.61039 7.13143 -0.628965 2.1977 27.4603
4208021 5.50838 6.23458 8.59988 7.1966 -0.614637 2.20784 27.5394
4208032 5.50838 6.23458 8.59988 7.1966 -0.614637 2.20784 27.5394
4208041 5.52565 6.26267 8.70501 7.13143 -0.757073 2.1981 27.6248
4208054 5.45658 6.27203 8.61039 7.18729 -0.551876 2.21738 27.5263
4208061 5.45658 6.27203 8.61039 7.18729 -0.551876 2.21738 27.5263
4208074 5.49975 6.23458 8.5368 7.10351 -0.637868 2.14029 27.3746
4208081 5.52565 6.30011 8.55782 7.1966 -0.531861 2.13668 27.5802
4208091 5.52565 6.30011 8.55782 7.1966 -0.531861 2.13668 27.5802
4208101 5.53428 6.31883 8.56834 7.11281 -0.609213 2.08542 27.5343
4208111 5.53428 6.31883 8.56834 7.11281 -0.609213 2.08542 27.5343
4208121 5.50838 6.27203 8.55782 7.10351 -0.629215 2.12136 27.4417
4208131 5.49975 6.30011 8.64193 7.11281 -0.661185 2.15294 27.5546
4208141 5.49975 6.30011 8.64193 7.11281 -0.661185 2.15294 27.5546
4208151 5.53428 6.26267 8.55782 7.15005 -0.617516 2.13286 27.5048
4208161 5.56018 6.30011 8.56834 7.11281 -0.649562 2.08097 27.5414
4208171 5.56018 6.30011 8.56834 7.11281 -0.649562 2.08097 27.5414
4208181 5.54292 6.24394 8.5368 7.11281 -0.658752 2.11184 27.4365
4208191 5.54292 6.24394 8.5368 7.11281 -0.658752 2.11184 27.4365
4208201 5.56018 6.27203 8.57885 7.15005 -0.65033 2.12076 27.5611
4208211 5.55155 6.26267 8.57885 7.21522 -0.590864 2.16232 27.6083
4208231 5.49975 6.2533 8.55782 7.15936 -0.586909 2.1646 27.4702
4208242 5.49975 6.2533 8.58936 7.15005 -0.623581 2.17498 27.4925
4208251 5.49975 6.2533 8.58936 7.15005 -0.623581 2.17498 27.4925
4208261 5.51701 6.27203 8.56834 7.18729 -0.568193 2.16009 27.5447
4208276 5.51701 6.27203 8.56834 7.18729 -0.568193 2.16009 27.5447
4208285 5.49111 6.2533 8.63142 7.18729 -0.618516 2.21725 27.5631
4208294 5.52565 6.27203 8.56834 7.1966 -0.56721 2.15905 27.5626
4208302 5.52565 6.27203 8.56834 7.1966 -0.56721 2.15905 27.5626
4208314 5.49975 6.29075 8.58936 7.26177 -0.485305 2.20355 27.6416
4208323 5.46521 6.22522 8.61039 7.27108 -0.52526 2.28006 27.5719
4208333 5.46521 6.22522 8.61039 7.27108 -0.52526 2.28006 27.5719
4208343 5.49975 6.2533 8.64193 7.20591 -0.618148 2.22536 27.6009
4208353 5.49975 6.2533 8.64193 7.20591 -0.618148 2.22536 27.6009
4208363 5.49975 6.24394 8.58936 7.22453 -0.563031 2.21547 27.5576
4208372 5.46521 6.21586 8.67347 7.1966 -0.65897 2.28067 27.5511
4208384 5.46521 6.21586 8.67347 7.1966 -0.65897 2.28067 27.5511
4208392 5.39614 6.19714 8.64193 7.18729 -0.595896 2.31705 27.4225
4208404 5.39614 6.19714 8.64193 7.18729 -0.595896 2.31705 27.4225
4208412 5.48248 6.2065 8.57885 7.26177 -0.538562 2.2621 27.5296
4208421 5.45658 6.2065 8.6945 7.29901 -0.583552 2.34868 27.6566
4208433 5.45658 6.2065 8.6945 7.29901 -0.583552 2.34868 27.6566
4208445 5.41341 6.2065 8.63142 7.21522 -0.567147 2.3083 27.4665
4208453 5.40477 6.2065 8.67347 7.26177 -0.553583 2.35455 27.5465
4208463 5.40477 6.2065 8.67347 7.26177 -0.553583 2.35455 27.5465
4208473 5.38751 6.23458 8.68398 7.25246 -0.530185 2.34829 27.5585
4208483 5.38751 6.23458 8.68398 7.25246 -0.530185 2.34829 27.5585
4208493 5.39614 6.2065 8.66296 7.26177 -0.536579 2.35516 27.5274
4208503 5.37024 6.22522 8.71552 7.32694 -0.482668 2.41354 27.6379
4208513 5.37024 6.22522 8.71552 7.32694 -0.482668 2.41354 27.6379
4208525 5.40477 6.21586 8.63142 7.26177 -0.507523 2.32932 27.5138
4208533 5.38751 6.26267 8.67347 7.25246 -0.494856 2.3258 27.5761
4208543 5.38751 6.26267 8.67347 7.25246 -0.494856 2.3258 27.5761
4208553 5.43068 6.24394 8.68398 7.29901 -0.516766 2.33663 27.6576
4208562 5.43068 6.24394 8.68398 7.29901 -0.516766 2.33663 27.6576
4208575 5.37887 6.19714 8.68398 7.26177 -0.548604 2.38161 27.5218
4208582 5.41341 6.24394 8.68398 7.25246 -0.544493 2.32612 27.5938
4208594 5.41341 6.24394 8.68398 7.25246 -0.544493 2.32612 27.5938
4208603 5.42204 6.27203 8.58936 7.16867 -0.519729 2.22058 27.4521
4208613 5.37024 6.21586 8.61039 7.16867 -0.544576 2.29834 27.3652
4208623 5.37024 6.21586 8.61039 7.16867 -0.544576 2.29834 27.3652
4208634 5.38751 6.16905 8.63142 7.25246 -0.544275 2.36548 27.4404
4208644 5.38751 6.16905 8.63142 7.25246 -0.544275 2.36548 27.4404
4208654 5.43931 6.24394 8.61039 7.22453 -0.528035 2.26305 27.5182
4208664 5.35297 6.27203 8.64193 7.31763 -0.367272 2.35706 27.5846
4208674 5.35297 6.27203 8.64193 7.31763 -0.367272 2.35706 27.5846
4208684 5.40477 6.21586 8.63142 7.29901 -0.473046 2.34644 27.5511
4208694 5.39614 6.24394 8.57885 7.28039 -0.409694 2.30142 27.4993
4208704 5.39614 6.24394 8.57885 7.28039 -0.409694 2.30142 27.4993
4208714 5.43931 6.23458 8.72604 7.31763 -0.553016 2.36481 27.7176
4208724 5.43931 6.23458 8.72604 7.31763 -0.553016 2.36481 27.7176
4208734 5.3098 6.17841 8.55782 7.29901 -0.356735 2.39639 27.3451
4208745 5.37024 6.22522 8.64193 7.31763 -0.425798 2.37567 27.555
4208755 5.37024 6.22522 8.64193 7.31763 -0.425798 2.37567 27.555
4208764 5.38751 6.18778 8.61039 7.2897 -0.473529 2.3611 27.4754
4208777 5.38751 6.18778 8.61039 7.2897 -0.473529 2.3611 27.4754
4208784 5.3616 6.16905 8.64193 7.3828 -0.409792 2.44639 27.5554
4208794 5.3098 6.27203 8.59988 7.42004 -0.197098 2.41185 27.6017
4208814 5.3098 6.18778 8.55782 7.3828 -0.270651 2.42894 27.4382
4208825 5.31844 6.2065 8.65244 7.45728 -0.277819 2.48861 27.6347
4208835 5.31844 6.2065 8.65244 7.45728 -0.277819 2.48861 27.6347
4208846 5.258 6.2065 8.64193 7.42935 -0.23976 2.50953 27.5358
4208855 5.21483 6.16905 8.71552 7.44797 -0.28435 2.60258 27.5474
4208875 5.258 6.21586 8.71552 7.50383 -0.229144 2.57039 27.6932
4208885 5.258 6.21586 8.71552 7.50383 -0.229144 2.57039 27.6932
4208895 5.13713 6.14097 8.71552 7.49452 -0.197501 2.69132 27.4881
4208907 5.22346 6.11289 8.78912 7.45728 -0.400984 2.67017 27.5827
4208915 5.22346 6.11289 8.78912 7.45728 -0.400984 2.67017 27.5827
4208934 5.24937 6.14097 8.71552 7.44797 -0.3411 2.59846 27.5538
4208935 5.2839 6.12225 8.71552 7.42004 -0.414945 2.57578 27.5417
4208947 5.2839 6.12225 8.71552 7.42004 -0.414945 2.57578 27.5417
4208955 5.27527 6.15033 8.78912 7.37349 -0.489844 2.57556 27.5882
4208966 5.27527 6.15033 8.78912 7.37349 -0.489844 2.57556 27.5882
4208976 5.26663 6.14097 8.74706 7.31763 -0.505139 2.54279 27.4723
4208986 5.29253 6.11289 8.7786 7.37349 -0.530489 2.58369 27.5575
4209007 5.30117 6.07544 8.72604 7.36418 -0.534807 2.57417 27.4668
4209016 5.29253 6.07544 8.7786 7.33625 -0.599869 2.59083 27.4828
4209026 5.29253 6.07544 8.7786 7.33625 -0.599869 2.59083 27.4828
4209036 5.31844 6.12225 8.84168 7.35487 -0.617822 2.58123 27.6372
4209049 5.31844 6.12225 8.84168 7.35487 -0.617822 2.58123 27.6372
4209059 5.35297 6.09416 8.7786 7.31763 -0.653313 2.53188 27.5434
4209066 5.38751 6.13161 8.82066 7.28039 -0.720632 2.48836 27.6202
4209079 5.38751 6.13161 8.82066 7.28039 -0.720632 2.48836 27.6202
4209088 5.44794 6.15969 8.84168 7.25246 -0.791889 2.42936 27.7018
4209098 5.37024 6.16905 8.75758 7.20591 -0.684336 2.41296 27.5028
4209108 5.37024 6.16905 8.75758 7.20591 -0.684336 2.41296 27.5028
4209118 5.42204 6.11289 8.86271 7.31763 -0.770544 2.51418 27.7153
4209138 5.32707 6.06608 8.87322 7.22453 -0.827254 2.567 27.4909
4209148 5.41341 6.0848 8.90476 7.20591 -0.930366 2.50597 27.6089
4209161 5.41341 6.0848 8.90476 7.20591 -0.930366 2.50597 27.6089
4209169 5.46521 6.11289 8.86271 7.22453 -0.895074 2.44484 27.6653
4209179 5.40477 6.06608 8.90476 7.15005 -0.993076 2.49801 27.5257
4209200 5.46521 6.0848 8.92579 7.16867 -1.02871 2.46584 27.6445
4209209 5.46521 6.0848 8.92579 7.16867 -1.02871 2.46584 27.6445
4209220 5.42204 6.0848 8.8522 7.15005 -0.94458 2.45123 27.5091
4209229 5.37887 6.05672 8.92579 7.20591 -0.944988 2.55526 27.5673
4209249 5.43068 6.09416 8.83117 7.17798 -0.898612 2.44297 27.534
4209259 5.40477 6.10352 8.89425 7.22453 -0.878637 2.50324 27.6271
4209270 5.40477 6.10352 8.89425 7.22453 -0.878637 2.50324 27.6271
4209280 5.43068 6.14097 8.86271 7.15936 -0.899707 2.41926 27.5937
4209290 5.43068 6.14097 8.86271 7.15936 -0.899707 2.41926 27.5937
4209300 5.39614 6.13161 8.79963 7.21522 -0.770567 2.44373 27.5426
4209310 5.45658 6.14097 8.74706 7.15005 -0.829811 2.34568 27.4947
4209320 5.45658 6.14097 8.74706 7.15005 -0.829811 2.34568 27.4947
4209330 5.42204 6.19714 8.79963 7.15005 -0.792997 2.35619 27.5689
4209340 5.43068 6.27203 8.73655 7.1966 -0.631963 2.29617 27.6359
4209350 5.43068 6.27203 8.73655 7.1966 -0.631963 2.29617 27.6359
4209360 5.48248 6.27203 8.64193 7.09419 -0.689495 2.17253 27.4906
4209371 5.48248 6.27203 8.64193 7.09419 -0.689495 2.17253 27.4906
4209382 5.42204 6.29075 8.59988 7.13143 -0.546324 2.19638 27.4441
4209390 5.47384 6.28139 8.63142 7.11281 -0.646427 2.17586 27.4995
4209403 5.47384 6.28139 8.63142 7.11281 -0.646427 2.17586 27.4995
4209410 5.42204 6.31883 8.5368 7.08489 -0.507189 2.12744 27.3626
4209420 5.48248 6.33755 8.48423 7.13143 -0.453532 2.0752 27.4357
4209441 5.48248 6.33755 8.4632 7.07557 -0.486638 2.03887 27.3588
4209450 5.48248 6.33755 8.4632 7.07557 -0.486638 2.03887 27.3588
4209462 5.45658 6.31883 8.50526 7.12212 -0.475204 2.10853 27.4028
4209473 5.53428 6.38436 8.50526 7.07557 -0.52692 1.9976 27.4995
4209483 5.53428 6.38436 8.50526 7.07557 -0.52692 1.9976 27.4995
4209491 5.51701 6.44053 8.4632 7.15005 -0.353302 1.98891 27.5708
4209501 5.48248 6.44053 8.48423 7.09419 -0.392693 1.99376 27.5014
4209521 5.53428 6.44989 8.34756 7.13143 -0.273561 1.90882 27.4632
4209531 5.53428 6.44989 8.34756 7.13143 -0.273561 1.90882 27.4632
4209541 5.48248 6.39372 8.45269 7.13143 -0.373276 2.02543 27.4603
4209552 5.53428 6.39372 8.4632 7.18729 -0.37753 2.02467 27.5785
4209566 5.53428 6.39372 8.4632 7.18729 -0.37753 2.02467 27.5785
4209575 5.43931 6.43117 8.3791 7.16867 -0.199287 2.01178 27.4182
4209586 5.47384 6.39372 8.38961 7.11281 -0.326011 1.99207 27.37
4209601 5.46521 6.44053 8.45269 7.26177 -0.195144 2.06844 27.6202
4209613 5.46521 6.44053 8.45269 7.26177 -0.195144 2.06844 27.6202
4209622 5.44794 6.38436 8.38961 7.1966 -0.233953 2.05367 27.4185
4209632 5.44794 6.41245 8.51577 7.1966 -0.321569 2.09554 27.5728
4209645 5.44794 6.41245 8.51577 7.1966 -0.321569 2.09554 27.5728
4209652 5.43931 6.46861 8.43166 7.21522 -0.169785 2.03538 27.5548
4209665 5.42204 6.38436 8.43166 7.23384 -0.214309 2.10712 27.4719
4209682 5.44794 6.43117 8.51577 7.24315 -0.261769 2.10569 27.638
4209694 5.44794 6.43117 8.51577 7.24315 -0.261769 2.10569 27.638
4209702 5.39614 6.30947 8.4632 7.26177 -0.262572 2.19793 27.4306
4209712 5.43931 6.39372 8.45269 7.18729 -0.282988 2.07856 27.473
4209724 5.43931 6.39372 8.45269 7.18729 -0.282988 2.07856 27.473
4209734 5.46521 6.38436 8.4632 7.23384 -0.281529 2.09507 27.5466
4209744 5.43931 6.39372 8.41064 7.1966 -0.236531 2.06314 27.4403
4209754 5.43931 6.39372 8.41064 7.1966 -0.236531 2.06314 27.4403
4209764 5.45658 6.375 8.48423 7.1966 -0.335488 2.09865 27.5124
4209774 5.45658 6.375 8.48423 7.1966 -0.335488 2.09865 27.5124
4209785 5.41341 6.33755 8.42115 7.23384 -0.240056 2.13678 27.406
4209795 5.44794 6.38436 8.55782 7.22453 -0.359292 2.14563 27.6147
4209805 5.44794 6.38436 8.55782 7.22453 -0.359292 2.14563 27.6147
4209814 5.51701 6.43117 8.40012 7.22453 -0.23704 2.00005 27.5728
4209826 5.43931 6.375 8.4632 7.23384 -0.266859 2.11698 27.5114
4209834 5.43931 6.375 8.4632 7.23384 -0.266859 2.11698 27.5114
4209846 5.51701 6.47797 8.48423 7.23384 -0.261092 2.01516 27.7131
4209855 5.51701 6.47797 8.48423 7.23384 -0.261092 2.01516 27.7131
4209867 5.48248 6.40308 8.45269 7.27108 -0.236334 2.08528 27.6093
4209875 5.50838 6.36564 8.44218 7.25246 -0.301479 2.07879 27.5687
4209885 5.50838 6.36564 8.44218 7.25246 -0.301479 2.07879 27.5687
4209894 5.44794 6.38436 8.40012 7.17798 -0.260594 2.04984 27.4104
4209905 5.49975 6.42181 8.41064 7.1966 -0.265151 2.00827 27.5288
4209915 5.49975 6.42181 8.41064 7.1966 -0.265151 2.00827 27.5288
4209925 5.52565 6.48733 8.43166 7.15936 -0.281309 1.94431 27.604
4209935 5.52565 6.48733 8.43166 7.15936 -0.281309 1.94431 27.604
4209945 5.49111 6.43117 8.36858 7.13143 -0.270849 1.95702 27.4223
4209955 5.51701 6.44989 8.34756 7.11281 -0.275153 1.91058 27.4273
4209965 5.51701 6.44989 8.34756 7.11281 -0.275153 1.91058 27.4273
4209975 5.51701 6.44053 8.40012 7.11281 -0.331077 1.94139 27.4705
4209985 5.48248 6.51542 8.35807 7.05695 -0.244571 1.86981 27.4129
4209995 5.48248 6.51542 8.35807 7.05695 -0.244571 1.86981 27.4129
4210005 5.58608 6.58095 8.32653 7.10351 -0.20669 1.77356 27.5971
4210015 5.58608 6.58095 8.32653 7.10351 -0.20669 1.77356 27.5971
4210025 5.55155 6.51542 8.34756 7.08489 -0.271644 1.83575 27.4994
4210035 5.57745 6.60903 8.31602 7.08489 -0.180835 1.74777 27.5874
4210045 5.57745 6.60903 8.31602 7.08489 -0.180835 1.74777 27.5874
4210055 5.53428 6.56222 8.28448 7.01041 -0.224639 1.75149 27.3914
4210065 5.53428 6.56222 8.28448 7.01041 -0.224639 1.75149 27.3914
4210075 5.57745 6.57159 8.2214 6.97317 -0.232317 1.6707 27.3436
4210085 5.60335 6.61839 8.26345 7.02903 -0.19934 1.67408 27.5142
4210097 5.60335 6.61839 8.26345 7.02903 -0.19934 1.67408 27.5142
4210104 5.59472 6.60903 8.2214 6.99179 -0.196318 1.64648 27.4169
4210116 5.60335 6.62775 8.18986 7.0011 -0.149843 1.61905 27.4221
4210125 5.60335 6.62775 8.18986 7.0011 -0.149843 1.61905 27.4221
4210137 5.64652 6.56222 8.33704 6.99179 -0.389971 1.69954 27.5376
4210145 5.64652 6.56222 8.33704 6.99179 -0.389971 1.69954 27.5376
4210163 5.63789 6.53414 8.18986 7.01041 -0.258653 1.65947 27.3723
4210178 5.61199 6.58095 8.21088 7.02903 -0.194018 1.66606 27.4328
4210185 5.65515 6.62775 8.13729 7.05695 -0.0980258 1.58932 27.4772
4210214 5.66379 6.67456 8.16883 6.89869 -0.236605 1.49375 27.4059
4210218 5.66379 6.67456 8.16883 6.89869 -0.236605 1.49375 27.4059
4210225 5.69832 6.712 8.03216 6.89869 -0.109535 1.38281 27.3412
4210238 5.74149 6.79626 8.0637 6.85214 -0.142786 1.29933 27.4536
4210246 5.75876 6.8337 8.01113 6.82421 -0.102071 1.22661 27.4278
4210259 5.75876 6.8337 8.01113 6.82421 -0.102071 1.22661 27.4278
4210266 5.8192 6.87115 7.93754 6.79628 -0.0814199 1.1177 27.4242
4210276 5.86237 6.92731 7.80087 6.78697 0.0466138 0.985199 27.3775
4210296 5.8451 6.9554 7.80087 6.74973 0.0540763 0.959796 27.3511
4210308 5.8451 6.9554 7.80087 6.74973 0.0540763 0.959796 27.3511
4210316 5.83647 6.96476 7.82189 6.73111 0.0342786 0.960606 27.3542
4210327 5.90554 6.94604 7.86395 6.77766 -0.0416368 0.976623 27.4932
4210337 5.90554 6.94604 7.86395 6.77766 -0.0416368 0.976623 27.4932
4210347 5.88827 6.90859 7.82189 6.7218 -0.0729442 0.958375 27.3405
4210357 5.83647 6.88987 7.87446 6.74973 -0.0651985 1.04085 27.3505
4210377 5.80193 6.78689 7.95857 6.74042 -0.213635 1.15994 27.2878
4210388 5.82783 6.712 8.0637 6.92662 -0.229664 1.33516 27.5301
4210399 5.82783 6.712 8.0637 6.92662 -0.229664 1.33516 27.5301
4210409 5.80193 6.62775 8.11626 6.93593 -0.322498 1.4314 27.4819
4210419 5.80193 6.62775 8.11626 6.93593 -0.322498 1.4314 27.4819
4210429 5.77603 6.59031 8.12678 7.01972 -0.266041 1.51574 27.5128
4210439 5.73286 6.59031 8.13729 7.01041 -0.245202 1.54229 27.4709
4210449 5.73286 6.59031 8.13729 7.01041 -0.245202 1.54229 27.4709
4210459 5.76739 6.61839 8.12678 6.98248 -0.266689 1.4858 27.495
4210471 5.66379 6.57159 8.13729 6.94524 -0.26014 1.56334 27.3179
4210479 5.66379 6.57159 8.13729 6.94524 -0.26014 1.56334 27.3179
4210489 5.72423 6.5435 8.10575 6.95455 -0.303651 1.53281 27.328
4210499 5.72423 6.5435 8.10575 6.95455 -0.303651 1.53281 27.328
4210510 5.68106 6.55286 8.18986 7.0011 -0.288931 1.61735 27.4249
4210520 5.68969 6.56222 8.16883 7.11281 -0.166599 1.65057 27.5336
4210531 5.68969 6.56222 8.16883 7.11281 -0.166599 1.65057 27.5336
4210539 5.65515 6.53414 8.21088 7.07557 -0.233227 1.69085 27.4758
4210552 5.65515 6.56222 8.17934 7.04765 -0.204623 1.64493 27.4444
4210572 5.73286 6.58095 8.20037 7.05695 -0.267789 1.60141 27.5711
4210579 5.73286 6.58095 8.20037 7.05695 -0.267789 1.60141 27.5711
4210589 5.67242 6.59967 8.17934 7.05695 -0.177348 1.61635 27.5084
4210600 5.68969 6.59031 8.18986 7.05695 -0.210963 1.61669 27.5268
4210613 5.68969 6.59031 8.18986 7.05695 -0.210963 1.61669 27.5268
4210621 5.62925 6.59967 8.13729 7.09419 -0.0661671 1.64012 27.4604
4210633 5.63789 6.63711 8.17934 7.02903 -0.137439 1.60099 27.4834
4210654 5.64652 6.63711 8.11626 7.0011 -0.113659 1.55125 27.401
4210661 5.64652 6.63711 8.11626 7.0011 -0.113659 1.55125 27.401
4210671 5.66379 6.52478 8.17934 7.01041 -0.281197 1.64428 27.3783
4210681 5.67242 6.65584 8.08472 7.03834 -0.0573516 1.52714 27.4513
4210691 5.67242 6.65584 8.08472 7.03834 -0.0573516 1.52714 27.4513
4210701 5.65515 6.64648 8.11626 7.02903 -0.0873655 1.55409 27.4469
4210711 5.68969 6.65584 8.09524 7.01972 -0.0995755 1.51277 27.4605
4210721 5.68969 6.65584 8.09524 7.01972 -0.0995755 1.51277 27.4605
4210731 5.72423 6.63711 8.08472 6.87076 -0.275545 1.42447 27.3168
4210751 5.68969 6.67456 8.02164 7.01041 -0.0240624 1.46067 27.3963
4210761 5.69832 6.70264 8.11626 6.97317 -0.126207 1.46695 27.4904
4210771 5.69832 6.70264 8.11626 6.97317 -0.126207 1.46695 27.4904
4210781 5.7933 6.75881 8.0637 6.92662 -0.155729 1.32788 27.5424
4210791 5.73286 6.75881 8.01113 6.92662 -0.053376 1.33766 27.4294
4210801 5.73286 6.68392 8.01113 6.88938 -0.156215 1.36382 27.3173
4210811 5.77603 6.82434 8.08472 6.88007 -0.141799 1.28664 27.5652
4210821 5.77603 6.82434 8.08472 6.88007 -0.141799 1.28664 27.5652
4210831 5.76739 6.75881 7.95857 6.82421 -0.130856 1.23946 27.309
4210843 5.7933 6.74945 8.03216 6.88007 -0.178419 1.29456 27.455
4210863 5.83647 6.72137 8.02164 6.79628 -0.310922 1.23837 27.3758
4210873 5.7933 6.76817 7.97959 6.76835 -0.216381 1.20094 27.3094
4210883 5.7933 6.76817 7.97959 6.76835 -0.216381 1.20094 27.3094
4210893 5.80193 6.76817 8.04267 6.83352 -0.221263 1.26033 27.4463
4210902 5.80193 6.76817 8.04267 6.83352 -0.221263 1.26033 27.4463
4210912 5.83647 6.74009 8.00062 6.8149 -0.257464 1.22606 27.3921
4210922 5.8192 6.80562 8.08472 6.78697 -0.283073 1.22572 27.4965
4210935 5.8192 6.80562 8.08472 6.78697 -0.283073 1.22572 27.4965
4210943 5.871 6.72137 8.07421 6.79628 -0.389226 1.24429 27.4629
4210953 5.871 6.72137 8.07421 6.79628 -0.389226 1.24429 27.4629
4210964 5.85373 6.82434 8.05318 6.70318 -0.345735 1.13632 27.4344
4210972 5.85373 6.74945 8.13729 6.71249 -0.481814 1.22751 27.453
4210985 5.85373 6.74945 8.13729 6.71249 -0.481814 1.22751 27.453
4210992 5.86237 6.74009 8.05318 6.69387 -0.440225 1.17622 27.3495
4211005 5.82783 6.74009 8.15832 6.74973 -0.451608 1.27755 27.476
4211013 5.82783 6.74009 8.15832 6.74973 -0.451608 1.27755 27.476
4211025 5.871 6.81498 8.10575 6.70318 -0.416984 1.15819 27.4949
4211042 5.8451 6.73073 8.12678 6.63801 -0.551507 1.20094 27.3406
4211053 5.8192 6.67456 8.18986 6.76835 -0.515583 1.3466 27.452
4211063 5.8192 6.67456 8.18986 6.76835 -0.515583 1.3466 27.452
4211073 5.90554 6.712 8.12678 6.73111 -0.536118 1.2231 27.4754
4211083 5.87963 6.70264 8.15832 6.74973 -0.532535 1.26905 27.4903
4211092 5.87963 6.70264 8.15832 6.74973 -0.532535 1.26905 27.4903
4211103 5.8451 6.73073 8.15832 6.74973 -0.475697 1.27287 27.4839
4211113 5.8451 6.73073 8.15832 6.74973 -0.475697 1.27287 27.4839
4211123 5.85373 6.63711 8.18986 6.73111 -0.615947 1.32978 27.4118
4211133 5.87963 6.62775 8.16883 6.76835 -0.594258 1.32802 27.4446
4211142 5.87963 6.62775 8.16883 6.76835 -0.594258 1.32802 27.4446
4211153 5.85373 6.64648 8.13729 6.75904 -0.534296 1.31191 27.3965
4211163 5.85373 6.64648 8.12678 6.75904 -0.524904 1.30665 27.386
4211173 5.85373 6.68392 8.12678 6.7218 -0.52471 1.26574 27.3862
4211183 5.8969 6.72137 8.04267 6.74973 -0.427279 1.18975 27.4107
4211193 5.8969 6.72137 8.04267 6.74973 -0.427279 1.18975 27.4107
4211203 5.83647 6.6652 8.11626 6.76835 -0.473948 1.30519 27.3863
4211214 5.86237 6.64648 8.08472 6.80559 -0.451683 1.30376 27.3992
4211223 5.86237 6.64648 8.08472 6.80559 -0.451683 1.30376 27.3992
4211235 5.88827 6.73073 8.11626 6.77766 -0.450835 1.24029 27.5129
4211242 5.88827 6.73073 8.11626 6.77766 -0.450835 1.24029 27.5129
4211257 5.83647 6.70264 8.10575 6.77766 -0.421111 1.28232 27.4225
4211262 5.86237 6.77753 8.07421 6.77766 -0.346822 1.20689 27.4918
4211277 5.86237 6.77753 8.07421 6.77766 -0.346822 1.20689 27.4918
4211284 5.8192 6.76817 8.08472 6.76835 -0.334729 1.23852 27.4404
4211294 5.83647 6.74945 8.04267 6.83352 -0.269619 1.25096 27.4621
4211304 5.83647 6.74945 8.04267 6.83352 -0.269619 1.25096 27.4621
4211314 5.86237 6.80562 8.03216 6.87076 -0.197811 1.21592 27.5709
4211324 5.86237 6.80562 8.03216 6.87076 -0.197811 1.21592 27.5709
4211337 5.8192 6.74009 8.03216 6.80559 -0.278938 1.24747 27.397
4211344 5.8451 6.75881 8.09524 6.88007 -0.273268 1.28977 27.5792
4211354 5.8451 6.75881 8.09524 6.88007 -0.273268 1.28977 27.5792
4211364 5.8451 6.77753 7.99011 6.87076 -0.170027 1.22159 27.4835
4211374 5.82783 6.78689 8.09524 6.85214 -0.257635 1.26949 27.5621
4211384 5.82783 6.78689 8.09524 6.85214 -0.257635 1.26949 27.5621
4211394 5.82783 6.70264 7.99011 6.80559 -0.283344 1.24343 27.3262
4211404 5.82783 6.70264 7.99011 6.80559 -0.283344 1.24343 27.3262
4211414 5.78466 6.70264 8.02164 6.84283 -0.23841 1.30366 27.3518
4211424 5.77603 6.70264 8.01113 6.83352 -0.229657 1.29888 27.3233
4211434 5.77603 6.70264 8.01113 6.83352 -0.229657 1.29888 27.3233
4211444 5.82783 6.70264 8.00062 6.87076 -0.232697 1.28143 27.4018
4211454 5.78466 6.72137 8.0637 6.88007 -0.224891 1.33211 27.4498
4211464 5.78466 6.72137 8.0637 6.88007 -0.224891 1.33211 27.4498
4211474 5.8192 6.712 8.02164 6.85214 -0.25242 1.2822 27.405
4211492 5.8192 6.712 8.02164 6.85214 -0.25242 1.2822 27.405
4211494 5.77603 6.62775 8.01113 6.83352 -0.298999 1.34367 27.2484
4211506 5.77603 6.6652 8.0637 6.89869 -0.251648 1.38001 27.4036
4211514 5.77603 6.6652 8.0637 6.89869 -0.251648 1.38001 27.4036
4211527 5.77603 6.68392 8.01113 6.908 -0.178276 1.34729 27.3791
4211534 5.78466 6.6652 8.05318 6.96386 -0.19004 1.40197 27.4669
4211544 5.78466 6.6652 8.05318 6.96386 -0.19004 1.40197 27.4669
4211554 5.71559 6.61839 8.07421 7.02903 -0.12974 1.51396 27.4372
4211565 5.71559 6.61839 8.07421 7.02903 -0.12974 1.51396 27.4372
4211575 5.75013 6.56222 8.13729 6.99179 -0.303744 1.53968 27.4414
4211585 5.68969 6.62775 8.18986 7.04765 -0.185221 1.58958 27.5549
4211595 5.68969 6.62775 8.18986 7.04765 -0.185221 1.58958 27.5549
4211605 5.70696 6.53414 8.13729 7.11281 -0.179414 1.6418 27.4912
4211615 5.66379 6.57159 8.1478 7.15936 -0.073196 1.67294 27.5425
4211625 5.66379 6.57159 8.1478 7.15936 -0.073196 1.67294 27.5425
4211635 5.66379 6.55286 8.1478 7.15005 -0.0987411 1.67977 27.5145
4211645 5.66379 6.55286 8.1478 7.15005 -0.0987411 1.67977 27.5145
4211655 5.60335 6.53414 8.15832 7.17798 -0.045082 1.74647 27.4738
4211666 5.64652 6.59967 8.17934 7.22453 -0.00150353 1.71303 27.6501
4211676 5.64652 6.59967 8.17934 7.22453 -0.00150353 1.71303 27.6501
4211686 5.59472 6.55286 8.07421 7.20591 0.0818938 1.71316 27.4277
4211697 5.62925 6.55286 8.08472 7.16867 0.0068903 1.67918 27.4355
4211706 5.62925 6.55286 8.08472 7.16867 0.0068903 1.67918 27.4355
4211720 5.62925 6.52478 8.09524 7.15936 -0.0367999 1.69686 27.4086
4211736 5.60335 6.47797 8.09524 7.17798 -0.0389621 1.75029 27.3545
4211746 5.62925 6.47797 8.1478 7.21522 -0.0763193 1.77781 27.4703
4211756 5.62925 6.47797 8.1478 7.21522 -0.0763193 1.77781 27.4703
4211766 5.59472 6.50606 8.12678 7.18729 -0.0256643 1.75815 27.4148
4211776 5.64652 6.5435 8.13729 7.15936 -0.0736207 1.69535 27.4867
4211786 5.64652 6.5435 8.13729 7.15936 -0.0736207 1.69535 27.4867
4211796 5.63789 6.57159 8.13729 7.10351 -0.0911519 1.65644 27.4503
4211816 5.61199 6.50606 8.1478 7.10351 -0.137222 1.71721 27.3694
4211830 5.68106 6.63711 8.12678 7.13143 -0.0356153 1.59922 27.5764
4211838 5.68106 6.63711 8.12678 7.13143 -0.0356153 1.59922 27.5764
4211851 5.74149 6.55286 8.15832 7.03834 -0.280648 1.58359 27.491
4211857 5.71559 6.62775 8.15832 7.01041 -0.214225 1.54044 27.5121
4211873 5.71559 6.62775 8.15832 7.01041 -0.214225 1.54044 27.5121
4211879 5.78466 6.62775 8.12678 6.91731 -0.3336 1.43773 27.4565
4211888 5.78466 6.62775 8.12678 6.91731 -0.3336 1.43773 27.4565
4211898 5.76739 6.60903 8.07421 6.87076 -0.331078 1.41018 27.3214
4211907 5.7933 6.60903 8.12678 6.94524 -0.332862 1.45755 27.4743
4211918 5.7933 6.60903 8.12678 6.94524 -0.332862 1.45755 27.4743
4211928 5.8192 6.59967 8.18986 6.88007 -0.481395 1.44662 27.4888
4211939 5.8451 6.58095 8.16883 6.88938 -0.494473 1.43655 27.4843
4211948 5.8451 6.58095 8.16883 6.88938 -0.494473 1.43655 27.4843
4211957 5.86237 6.59031 8.2214 6.82421 -0.608446 1.41441 27.4983
4211967 5.86237 6.59031 8.2214 6.82421 -0.608446 1.41441 27.4983
4211979 5.82783 6.5435 8.2214 6.80559 -0.638853 1.45391 27.3983
4211987 5.871 6.46861 8.3055 6.80559 -0.821751 1.51443 27.4507
4211997 5.871 6.46861 8.3055 6.80559 -0.821751 1.51443 27.4507
4212007 5.87963 6.45925 8.33704 6.88938 -0.787269 1.57129 27.5653
4212017 5.85373 6.4967 8.33704 6.86145 -0.755598 1.55073 27.5489
4212029 5.85373 6.4967 8.33704 6.86145 -0.755598 1.55073 27.5489
4212037 5.82783 6.44053 8.26345 6.83352 -0.7466 1.55047 27.3653
4212050 5.82783 6.44053 8.26345 6.83352 -0.7466 1.55047 27.3653
4212057 5.8192 6.44989 8.29499 6.86145 -0.731848 1.5792 27.4255
4212068 5.78466 6.40308 8.38961 6.84283 -0.846422 1.66557 27.4202
4212079 5.78466 6.40308 8.38961 6.84283 -0.846422 1.66557 27.4202
4212089 5.85373 6.41245 8.42115 6.86145 -0.908381 1.64241 27.5488
4212099 5.81056 6.41245 8.33704 6.80559 -0.849219 1.60034 27.3656
4212117 5.81056 6.41245 8.33704 6.80559 -0.849219 1.60034 27.3656
4212123 5.82783 6.36564 8.44218 6.88007 -0.930654 1.70563 27.5157
4212131 5.82783 6.36564 8.44218 6.88007 -0.930654 1.70563 27.5157
4212139 5.81056 6.34692 8.3791 6.94524 -0.816457 1.72852 27.4818
4212149 5.78466 6.40308 8.41064 6.94524 -0.768761 1.72533 27.5436
4212159 5.78466 6.40308 8.41064 6.94524 -0.768761 1.72533 27.5436
4212169 5.80193 6.46861 8.42115 6.95455 -0.723356 1.68476 27.6462
4212180 5.80193 6.46861 8.42115 6.95455 -0.723356 1.68476 27.6462
4212189 5.76739 6.36564 8.26345 7.01041 -0.597297 1.719 27.4069
4212202 5.7933 6.48733 8.36858 6.91731 -0.686738 1.63528 27.5665
4212209 5.7933 6.48733 8.36858 6.91731 -0.686738 1.63528 27.5665
4212219 5.76739 6.45925 8.33704 6.87076 -0.705713 1.62997 27.4344
4212229 5.81056 6.45925 8.3055 6.95455 -0.637735 1.62927 27.5299
4212239 5.81056 6.45925 8.3055 6.95455 -0.637735 1.62927 27.5299
4212249 5.7933 6.43117 8.28448 6.97317 -0.612618 1.65554 27.4821
4212259 5.7933 6.43117 8.28448 6.97317 -0.612618 1.65554 27.4821
4212270 5.74149 6.45925 8.24242 7.0011 -0.47694 1.66307 27.4443
4212280 5.74149 6.51542 8.23191 6.92662 -0.484556 1.58758 27.4154
4212292 5.74149 6.51542 8.23191 6.92662 -0.484556 1.58758 27.4154
4212300 5.75013 6.45925 8.17934 6.98248 -0.44549 1.618 27.3712
4212310 5.71559 6.51542 8.20037 7.0011 -0.364029 1.62424 27.4325
4212320 5.71559 6.51542 8.20037 7.0011 -0.364029 1.62424 27.4325
4212330 5.76739 6.56222 8.13729 6.94524 -0.362274 1.5064 27.4121
4212340 5.76739 6.56222 8.13729 6.94524 -0.362274 1.5064 27.4121
4212350 5.73286 6.5435 8.10575 6.92662 -0.337338 1.5138 27.3087
4212361 5.72423 6.61839 8.12678 6.96386 -0.244918 1.50256 27.4333
4212370 5.72423 6.61839 8.12678 6.96386 -0.244918 1.50256 27.4333
4212381 5.73286 6.59967 8.09524 6.95455 -0.250055 1.48851 27.3823
4212391 5.70696 6.6652 8.10575 7.0011 -0.133204 1.49279 27.479
4212401 5.70696 6.6652 8.10575 7.0011 -0.133204 1.49279 27.479
4212410 5.74149 6.68392 8.11626 6.93593 -0.216459 1.43396 27.4776
4212423 5.74149 6.68392 8.11626 6.93593 -0.216459 1.43396 27.4776
4212430 5.69832 6.65584 8.08472 6.88938 -0.217572 1.43804 27.3283
4212440 5.74149 6.712 8.02164 6.96386 -0.07952 1.38416 27.439
4212450 5.74149 6.712 8.02164 6.96386 -0.07952 1.38416 27.439
4212460 5.7933 6.78689 8.05318 6.86145 -0.180162 1.27357 27.4948
4212471 5.77603 6.78689 8.01113 6.88938 -0.100945 1.27674 27.4634
4212480 5.77603 6.78689 8.01113 6.88938 -0.100945 1.27674 27.4634
4212492 5.81056 6.80562 7.95857 6.79628 -0.152749 1.17204 27.371
4212500 5.81056 6.80562 7.95857 6.79628 -0.152749 1.17204 27.371
4212511 5.76739 6.81498 7.96908 6.8149 -0.0973806 1.20674 27.3663
4212521 5.82783 6.74009 7.906 6.87076 -0.11244 1.21166 27.3447
4212535 5.82783 6.74009 7.906 6.87076 -0.11244 1.21166 27.3447
4212541 5.871 6.82434 7.91651 6.73111 -0.212181 1.071 27.343
4212555 5.83647 6.78689 7.91651 6.77766 -0.172442 1.13708 27.3175
4212561 5.83647 6.78689 7.91651 6.77766 -0.172442 1.13708 27.3175
4212571 5.87963 6.81498 7.96908 6.73111 -0.276172 1.09815 27.3948
4212581 5.87963 6.81498 7.96908 6.73111 -0.276172 1.09815 27.3948
4212594 5.85373 6.84306 7.86395 6.70318 -0.157204 1.02901 27.2639
4212601 5.871 6.87115 7.93754 6.74042 -0.179592 1.05897 27.4201
4212611 5.871 6.87115 7.93754 6.74042 -0.179592 1.05897 27.4201
4212621 5.87963 6.8337 7.94805 6.7218 -0.248499 1.07174 27.3832
4212634 5.87963 6.8337 7.94805 6.7218 -0.248499 1.07174 27.3832
4212641 5.8969 6.82434 8.01113 6.75904 -0.295235 1.11794 27.4914
4212653 5.9228 6.75881 8.00062 6.74042 -0.386719 1.12649 27.4226
4212661 5.9228 6.75881 8.00062 6.74042 -0.386719 1.12649 27.4226
4212671 5.88827 6.86178 7.94805 6.73111 -0.221871 1.05496 27.4292
4212681 5.88827 6.76817 8.03216 6.78697 -0.332376 1.18069 27.4756
4212694 5.88827 6.76817 8.03216 6.78697 -0.332376 1.18069 27.4756
4212701 5.88827 6.78689 8.0637 6.7218 -0.403555 1.15274 27.4607
4212711 5.88827 6.78689 8.0637 6.7218 -0.403555 1.15274 27.4607
4212721 5.83647 6.77753 8.07421 6.77766 -0.323573 1.22217 27.4659
4212731 5.85373 6.73073 8.10575 6.75904 -0.427806 1.24611 27.4492
4212741 5.85373 6.73073 8.10575 6.75904 -0.427806 1.24611 27.4492
4212757 5.88827 6.75881 8.09524 6.76835 -0.414704 1.20853 27.5107
4212765 5.86237 6.69328 8.10575 6.84283 -0.392677 1.30503 27.5042
4212777 5.86237 6.69328 8.10575 6.84283 -0.392677 1.30503 27.5042
4212782 5.85373 6.73073 8.10575 6.76835 -0.419188 1.25078 27.4586
4212791 5.85373 6.73073 8.10575 6.76835 -0.419188 1.25078 27.4586
4212802 5.86237 6.72137 8.09524 6.84283 -0.357366 1.28316 27.5218
4212813 5.83647 6.70264 8.20037 6.84283 -0.445364 1.36179 27.5823
4212832 5.81056 6.65584 8.09524 6.79628 -0.414586 1.32966 27.3579
4212843 5.871 6.74009 8.11626 6.8149 -0.392379 1.26355 27.5422
4212854 5.871 6.74009 8.11626 6.8149 -0.392379 1.26355 27.5422
4212864 5.8451 6.67456 8.21088 6.85214 -0.479729 1.38313 27.5827
4212874 5.76739 6.65584 8.1478 6.82421 -0.397107 1.39556 27.3952
4212884 5.76739 6.65584 8.1478 6.82421 -0.397107 1.39556 27.3952
4212894 5.8192 6.64648 8.1478 6.83352 -0.443591 1.37482 27.447
4212904 5.8192 6.64648 8.1478 6.83352 -0.443591 1.37482 27.447
4212914 5.75013 6.60903 8.1478 6.77766 -0.468437 1.41085 27.2846
4212926 5.82783 6.65584 8.23191 6.85214 -0.500377 1.4149 27.5677
4212934 5.82783 6.65584 8.23191 6.85214 -0.500377 1.4149 27.5677
4212947 5.7933 6.70264 8.18986 6.75904 -0.475019 1.34066 27.4448
4212955 5.7933 6.70264 8.18986 6.75904 -0.475019 1.34066 27.4448
4212964 5.7933 6.62775 8.09524 6.78697 -0.433846 1.35212 27.3033
4212974 5.83647 6.67456 8.16883 6.83352 -0.451797 1.35824 27.5134
4212984 5.83647 6.67456 8.16883 6.83352 -0.451797 1.35824 27.5134
4212994 5.80193 6.72137 8.11626 6.78697 -0.373602 1.30162 27.4265
4213009 5.78466 6.6652 8.12678 6.83352 -0.376433 1.37381 27.4102
4213014 5.78466 6.6652 8.12678 6.83352 -0.376433 1.37381 27.4102
4213024 5.77603 6.67456 8.1478 6.80559 -0.404766 1.36995 27.404
4213034 5.77603 6.67456 8.1478 6.80559 -0.404766 1.36995 27.404
4213044 5.83647 6.67456 8.07421 6.80559 -0.392951 1.29721 27.3908
4213054 5.86237 6.69328 8.09524 6.84283 -0.383267 1.29979 27.4937
4213064 5.86237 6.69328 8.09524 6.84283 -0.383267 1.29979 27.4937
4213074 5.90554 6.6652 8.12678 6.82421 -0.493163 1.29729 27.5217
4213084 5.7933 6.69328 8.10575 6.83352 -0.339322 1.34145 27.4258
4213095 5.7933 6.69328 8.10575 6.83352 -0.339322 1.34145 27.4258
4213104 5.8969 6.67456 8.10575 6.85214 -0.432226 1.3003 27.5293
4213124 5.86237 6.61839 8.08472 6.86145 -0.425908 1.34835 27.4269
4213137 5.82783 6.67456 8.12678 6.87076 -0.372088 1.36099 27.4999
4213145 5.82783 6.67456 8.12678 6.87076 -0.372088 1.36099 27.4999
4213157 5.8451 6.712 8.09524 6.80559 -0.384904 1.28035 27.4579
4213165 5.8451 6.73073 8.10575 6.83352 -0.351268 1.28844 27.5151
4213176 5.8451 6.73073 8.10575 6.83352 -0.351268 1.28844 27.5151
4213185 5.871 6.74945 8.03216 6.83352 -0.291231 1.22529 27.4861
4213196 5.871 6.74945 8.03216 6.83352 -0.291231 1.22529 27.4861
4213205 5.85373 6.74945 8.00062 6.8149 -0.264423 1.2103 27.4187
4213218 5.85373 6.69328 8.07421 6.84283 -0.356683 1.29443 27.4641
4213235 5.83647 6.77753 8.04267 6.79628 -0.278047 1.21569 27.4529
4213245 5.871 6.73073 8.10575 6.82421 -0.38303 1.26848 27.5317
4213255 5.871 6.73073 8.10575 6.82421 -0.38303 1.26848 27.5317
4213265 5.88827 6.77753 8.05318 6.78697 -0.342612 1.18575 27.506
4213275 5.88827 6.77753 8.05318 6.78697 -0.342612 1.18575 27.506
4213285 5.871 6.712 8.03216 6.77766 -0.377378 1.21938 27.3928
4213295 5.8969 6.73073 8.10575 6.75904 -0.466391 1.22061 27.4924
4213305 5.8969 6.73073 8.10575 6.75904 -0.466391 1.22061 27.4924
4213315 5.90554 6.77753 8.07421 6.82421 -0.342628 1.2048 27.5815
4213326 5.871 6.68392 8.08472 6.79628 -0.433306 1.27173 27.4359
4213336 5.871 6.68392 8.08472 6.79628 -0.433306 1.27173 27.4359
4213346 5.85373 6.76817 8.08472 6.82421 -0.314265 1.24607 27.5308
4213356 5.85373 6.76817 8.08472 6.82421 -0.314265 1.24607 27.5308
4213366 5.80193 6.712 8.05318 6.80559 -0.308269 1.28495 27.3727
4213380 5.85373 6.6652 8.07421 6.78697 -0.434424 1.28318 27.3801
4213386 5.85373 6.6652 8.07421 6.78697 -0.434424 1.28318 27.3801
4213396 5.81056 6.72137 8.09524 6.77766 -0.371085 1.28133 27.4048
4213413 5.871 6.62775 8.02164 6.8149 -0.411549 1.28284 27.3353
4213421 5.871 6.62775 8.02164 6.8149 -0.411549 1.28284 27.3353
4213427 5.82783 6.70264 8.05318 6.74973 -0.392054 1.24707 27.3334
4213437 5.82783 6.70264 8.05318 6.74973 -0.392054 1.24707 27.3334
4213447 5.82783 6.70264 8.03216 6.80559 -0.321323 1.26457 27.3682
4213457 5.871 6.69328 8.09524 6.86145 -0.373815 1.30395 27.521
4213468 5.871 6.69328 8.09524 6.86145 -0.373815 1.30395 27.521
4213477 5.88827 6.712 8.11626 6.75904 -0.485425 1.24203 27.4756
4213487 5.87963 6.712 8.10575 6.76835 -0.459696 1.24653 27.4657
4213497 5.87963 6.712 8.10575 6.76835 -0.459696 1.24653 27.4657
4213507 5.86237 6.75881 8.1478 6.8149 -0.39558 1.27331 27.5839
4213517 5.86237 6.75881 8.1478 6.8149 -0.39558 1.27331 27.5839
4213530 5.85373 6.76817 8.09524 6.75904 -0.383751 1.21871 27.4762
4213536 5.8451 6.74945 8.13729 6.75904 -0.430964 1.25593 27.4909
4213547 5.8451 6.74945 8.13729 6.75904 -0.430964 1.25593 27.4909
4213558 5.9228 6.75881 8.10575 6.7218 -0.497967 1.17012 27.5092
4213568 5.9228 6.75881 8.10575 6.7218 -0.497967 1.17012 27.5092
4213577 5.87963 6.76817 8.0637 6.76835 -0.370103 1.19228 27.4799
4213587 5.9228 6.73073 8.04267 6.75904 -0.433171 1.17364 27.4552
4213598 5.9228 6.73073 8.04267 6.75904 -0.433171 1.17364 27.4552
4213608 5.86237 6.712 8.13729 6.74042 -0.498357 1.25856 27.4521
4213617 5.8969 6.74009 8.08472 6.76835 -0.430331 1.20921 27.4901
4213628 5.8969 6.74009 8.08472 6.76835 -0.430331 1.20921 27.4901
4213637 5.91417 6.75881 8.11626 6.74042 -0.482397 1.18982 27.5297
4213648 5.91417 6.75881 8.11626 6.74042 -0.482397 1.18982 27.5297
4213657 5.82783 6.68392 8.13729 6.8149 -0.42447 1.33289 27.4639
4213667 5.8451 6.64648 8.21088 6.74973 -0.600848 1.34909 27.4522
4213678 5.8451 6.64648 8.21088 6.74973 -0.600848 1.34909 27.4522
4213688 5.85373 6.64648 8.13729 6.88938 -0.41339 1.37672 27.5269
4213698 5.78466 6.63711 8.17934 6.8149 -0.466874 1.40746 27.416
4213708 5.78466 6.63711 8.17934 6.8149 -0.466874 1.40746 27.416
4213717 5.85373 6.68392 8.26345 6.74973 -0.62025 1.34779 27.5508
4213730 5.85373 6.68392 8.26345 6.74973 -0.62025 1.34779 27.5508
4213738 5.8192 6.62775 8.21088 6.84283 -0.508626 1.42184 27.5007
4213749 5.77603 6.60903 8.23191 6.88938 -0.463104 1.49214 27.5063
4213759 5.77603 6.60903 8.23191 6.88938 -0.463104 1.49214 27.5063
4213769 5.72423 6.57159 8.20037 6.85214 -0.457865 1.51199 27.3483
4213779 5.75013 6.62775 8.20037 6.93593 -0.351472 1.50382 27.5142
4213799 5.8192 6.59967 8.32653 6.86145 -0.619967 1.50458 27.6068
4213819 5.75013 6.50606 8.28448 6.95455 -0.52191 1.62729 27.4952
4213829 5.75876 6.5435 8.26345 6.89869 -0.527976 1.56195 27.4644
4213840 5.75876 6.5435 8.26345 6.89869 -0.527976 1.56195 27.4644
4213851 5.73286 6.58095 8.16883 6.908 -0.376722 1.51312 27.3906
4213861 5.73286 6.53414 8.28448 6.97317 -0.463247 1.6298 27.5246
4213880 5.78466 6.61839 8.28448 6.95455 -0.448775 1.53894 27.6421
4213890 5.78466 6.61839 8.28448 6.95455 -0.448775 1.53894 27.6421
4213901 5.75876 6.59031 8.25294 7.0011 -0.380658 1.57861 27.6031
4213910 5.75876 6.57159 8.26345 6.99179 -0.415833 1.59044 27.5856
4213922 5.75876 6.57159 8.26345 6.99179 -0.415833 1.59044 27.5856
4213930 5.75013 6.5435 8.17934 6.908 -0.436409 1.53047 27.381
4213943 5.72423 6.63711 8.09524 6.94524 -0.216331 1.46658 27.4018
4213963 5.70696 6.60903 8.11626 6.96386 -0.228442 1.51343 27.3961
4213984 5.68106 6.55286 8.11626 6.99179 -0.231029 1.57677 27.342
4213990 5.68106 6.5435 8.16883 7.06627 -0.218612 1.64452 27.4597
4214001 5.68106 6.5435 8.16883 7.06627 -0.218612 1.64452 27.4597
4214011 5.65515 6.56222 8.17934 6.96386 -0.281811 1.60403 27.3606
4214021 5.78466 6.55286 8.20037 7.01972 -0.374177 1.56902 27.5576
4214038 5.78466 6.55286 8.20037 7.01972 -0.374177 1.56902 27.5576
4214042 5.74149 6.56222 8.20037 7.02903 -0.318359 1.5939 27.5331
4214054 5.74149 6.56222 8.20037 7.02903 -0.318359 1.5939 27.5331
4214064 5.76739 6.62775 8.12678 6.93593 -0.30091 1.45726 27.4579
4214077 5.75876 6.59967 8.20037 6.92662 -0.393705 1.51092 27.4854
4214091 5.78466 6.59967 8.13729 6.86145 -0.420733 1.43213 27.3831
4214101 5.80193 6.55286 8.20037 6.87076 -0.527495 1.48564 27.4259
4214111 5.80193 6.55286 8.20037 6.87076 -0.527495 1.48564 27.4259
4214122 5.8192 6.61839 8.20037 6.84283 -0.507945 1.42223 27.4808
4214131 5.8192 6.61839 8.20037 6.84283 -0.507945 1.42223 27.4808
4214143 5.8192 6.57159 8.15832 6.88007 -0.479291 1.44787 27.4292
4214151 5.85373 6.59031 8.12678 6.76835 -0.568652 1.34482 27.3392
4214165 5.85373 6.59031 8.12678 6.76835 -0.568652 1.34482 27.3392
4214173 5.85373 6.56222 8.16883 6.78697 -0.615026 1.39186 27.3718
4214181 5.88827 6.59031 8.08472 6.78697 -0.544529 1.31248 27.3503
4214193 5.88827 6.59031 8.08472 6.78697 -0.544529 1.31248 27.3503
4214202 5.9228 6.59031 8.09524 6.73111 -0.637014 1.26917 27.3395
4214229 5.83647 6.65584 8.08472 6.76835 -0.45438 1.29497 27.3454
4214233 5.91417 6.63711 8.10575 6.79628 -0.534117 1.2844 27.4533
4214243 5.91417 6.63711 8.10575 6.79628 -0.534117 1.2844 27.4533
4214253 5.90554 6.67456 8.09524 6.80559 -0.473627 1.26673 27.4809
4214263 5.94007 6.62775 8.0637 6.79628 -0.528423 1.25355 27.4278
4214274 5.94007 6.62775 8.0637 6.79628 -0.528423 1.25355 27.4278
4214283 5.9487 6.78689 8.05318 6.75904 -0.413789 1.13074 27.5478
4214294 5.9487 6.78689 8.02164 6.75904 -0.385608 1.11484 27.5163
4214304 5.87963 6.68392 8.02164 6.78697 -0.393094 1.2303 27.3722
4214316 5.90554 6.74945 8.04267 6.77766 -0.383164 1.18216 27.4753
4214324 5.90554 6.74945 8.04267 6.77766 -0.383164 1.18216 27.4753
4214334 5.94007 6.712 8.04267 6.75904 -0.465965 1.1745 27.4538
4214344 5.96597 6.70264 8.0637 6.73111 -0.542466 1.16128 27.4634
4214354 5.96597 6.70264 8.0637 6.73111 -0.542466 1.16128 27.4634
4214364 5.94007 6.74945 7.99011 6.80559 -0.34122 1.14944 27.4852
4214374 5.94007 6.74945 7.99011 6.80559 -0.34122 1.14944 27.4852
4214384 5.871 6.73073 7.97959 6.80559 -0.286889 1.19589 27.3869
4214394 5.8969 6.75881 8.02164 6.82421 -0.305009 1.19455 27.5016
4214404 5.8969 6.75881 8.02164 6.82421 -0.305009 1.19455 27.5016
4214414 5.87963 6.74009 8.0637 6.8149 -0.353065 1.23219 27.4983
4214424 5.86237 6.70264 7.94805 6.88938 -0.199251 1.24391 27.4024
4214434 5.86237 6.70264 7.94805 6.88938 -0.199251 1.24391 27.4024
4214444 5.93144 6.75881 8.09524 6.84283 -0.384603 1.22039 27.6283
4214454 5.93144 6.75881 8.09524 6.84283 -0.384603 1.22039 27.6283
4214464 5.8451 6.75881 8.04267 6.89869 -0.208996 1.27288 27.5453
4214474 5.80193 6.69328 8.08472 6.95455 -0.216845 1.38593 27.5345
4214486 5.80193 6.69328 8.08472 6.95455 -0.216845 1.38593 27.5345
4214495 5.87963 6.72137 8.03216 6.908 -0.256371 1.274 27.5412
4214509 5.7933 6.59031 8.02164 6.95455 -0.246793 1.42138 27.3598
4214515 5.7933 6.59031 8.02164 6.95455 -0.246793 1.42138 27.3598
4214525 5.8192 6.65584 8.03216 6.89869 -0.270775 1.34413 27.4059
4214535 5.8192 6.65584 8.03216 6.89869 -0.270775 1.34413 27.4059
4214545 5.76739 6.61839 8.08472 6.99179 -0.220247 1.46968 27.4623
4214555 5.8192 6.62775 8.09524 7.01972 -0.242153 1.452 27.5619
4214565 5.8192 6.62775 8.09524 7.01972 -0.242153 1.452 27.5619
4214575 5.75876 6.65584 8.03216 6.97317 -0.147627 1.41725 27.4199
4214585 5.70696 6.65584 8.0637 7.01041 -0.095138 1.4823 27.4369
4214595 5.70696 6.65584 8.0637 7.01041 -0.095138 1.4823 27.4369
4214605 5.76739 6.70264 8.05318 7.06627 -0.0468209 1.44045 27.5895
4214615 5.76739 6.70264 8.05318 7.06627 -0.0468209 1.44045 27.5895
4214625 5.68106 6.61839 8.04267 7.08489 -0.0186399 1.54671 27.427
4214635 5.70696 6.62775 8.08472 7.01041 -0.139923 1.50953 27.4298
4214655 5.75013 6.59967 7.99011 7.01041 -0.118971 1.45376 27.3503
4214666 5.73286 6.59967 8.0637 7.08489 -0.10189 1.53708 27.4811
4214695 5.69832 6.59967 8.02164 7.04765 -0.0663698 1.51895 27.3673
4214696 5.69832 6.59967 8.02164 7.04765 -0.0663698 1.51895 27.3673
4214706 5.65515 6.56222 8.0637 7.05695 -0.0911504 1.59299 27.338
4214717 5.68969 6.60903 8.13729 7.12212 -0.0869304 1.61152 27.5581
4214727 5.68969 6.60903 8.13729 7.12212 -0.0869304 1.61152 27.5581
4214737 5.71559 6.53414 8.09524 7.07557 -0.18336 1.59793 27.4205
4214747 5.66379 6.52478 8.13729 7.12212 -0.140424 1.67818 27.448
4214758 5.66379 6.52478 8.13729 7.12212 -0.140424 1.67818 27.448
4214767 5.70696 6.52478 8.17934 7.15005 -0.191815 1.68589 27.5611
4214780 5.70696 6.52478 8.17934 7.15005 -0.191815 1.68589 27.5611
4214789 5.66379 6.47797 8.20037 7.08489 -0.274637 1.7192 27.427
4214798 5.69832 6.45925 8.25294 7.15005 -0.310186 1.76634 27.5606
4214818 5.67242 6.44989 8.31602 7.22453 -0.283788 1.85352 27.6629
4214827 5.65515 6.35628 8.31602 7.15005 -0.422928 1.88589 27.4775
4214838 5.65515 6.35628 8.31602 7.15005 -0.422928 1.88589 27.4775
4214848 5.70696 6.36564 8.31602 7.1966 -0.417554 1.87058 27.5852
4214858 5.70696 6.36564 8.31602 7.1966 -0.417554 1.87058 27.5852
4214868 5.68106 6.35628 8.33704 7.18729 -0.430425 1.89775 27.5617
4214877 5.68969 6.33755 8.24242 7.17798 -0.379427 1.85435 27.4477
4214899 5.72423 6.40308 8.24242 7.12212 -0.40143 1.76629 27.4919
4214909 5.65515 6.42181 8.27396 7.12212 -0.350514 1.81221 27.473
4214919 5.65515 6.42181 8.27396 7.12212 -0.350514 1.81221 27.473
4214930 5.62062 6.40308 8.2214 7.13143 -0.280805 1.82408 27.3765
4214939 5.62062 6.40308 8.2214 7.13143 -0.280805 1.82408 27.3765
4214949 5.68106 6.375 8.2214 7.09419 -0.39572 1.78627 27.3716
4214959 5.67242 6.34692 8.26345 7.10351 -0.443153 1.83355 27.3863
4214979 5.68106 6.35628 8.29499 7.06627 -0.505048 1.81976 27.3986
4214991 5.71559 6.46861 8.23191 7.08489 -0.358173 1.70862 27.501
4214999 5.71559 6.46861 8.23191 7.08489 -0.358173 1.70862 27.501
4215011 5.73286 6.4967 8.25294 7.01041 -0.43529 1.65522 27.4929
4215019 5.73286 6.4967 8.25294 7.01041 -0.43529 1.65522 27.4929
4215032 5.74149 6.44053 8.27396 7.01041 -0.513831 1.69426 27.4664
4215039 5.73286 6.48733 8.33704 7.01972 -0.510259 1.70608 27.577
4215049 5.73286 6.48733 8.33704 7.01972 -0.510259 1.70608 27.577
4215059 5.76739 6.45925 8.21088 7.01972 -0.454628 1.64107 27.4572
4215069 5.77603 6.46861 8.27396 6.94524 -0.579077 1.62462 27.4638
4215079 5.77603 6.46861 8.27396 6.94524 -0.579077 1.62462 27.4638
4215089 5.80193 6.4967 8.23191 6.908 -0.573234 1.55326 27.4385
4215099 5.80193 6.4967 8.23191 6.908 -0.573234 1.55326 27.4385
4215110 5.75013 6.46861 8.20037 6.908 -0.525019 1.58613 27.3271
4215120 5.8192 6.47797 8.2214 6.88938 -0.614096 1.53985 27.4079
4215130 5.8192 6.47797 8.2214 6.88938 -0.614096 1.53985 27.4079
4215140 5.76739 6.56222 8.16883 6.86145 -0.468346 1.48063 27.3599
4215150 5.76739 6.52478 8.25294 6.85214 -0.587119 1.54006 27.3972
4215165 5.76739 6.52478 8.25294 6.85214 -0.587119 1.54006 27.3972
4215181 5.81056 6.53414 8.23191 6.87076 -0.580727 1.50723 27.4474
4215190 5.86237 6.5435 8.18986 6.86145 -0.58935 1.44522 27.4572
4215201 5.82783 6.51542 8.29499 6.86145 -0.678152 1.53448 27.4997
4215211 5.82783 6.51542 8.29499 6.86145 -0.678152 1.53448 27.4997
4215222 5.87963 6.52478 8.2214 6.91731 -0.598104 1.48909 27.5431
4215230 5.87963 6.5435 8.2214 6.84283 -0.650032 1.44125 27.4874
4215244 5.87963 6.5435 8.2214 6.84283 -0.650032 1.44125 27.4874
4215250 5.871 6.4967 8.29499 6.85214 -0.742474 1.51524 27.5148
4215270 5.8192 6.45925 8.28448 6.93593 -0.644118 1.60477 27.4989
4215280 5.80193 6.43117 8.3055 6.99179 -0.621568 1.66953 27.5304
4215290 5.80193 6.43117 8.3055 6.99179 -0.621568 1.66953 27.5304
4215300 5.7933 6.50606 8.34756 6.97317 -0.598866 1.64086 27.6201
4215327 5.76739 6.38436 8.3055 7.01041 -0.617211 1.72793 27.4677
4215333 5.75013 6.40308 8.26345 6.95455 -0.599121 1.67957 27.3712
4215340 5.75013 6.40308 8.26345 6.95455 -0.599121 1.67957 27.3712
4215351 5.78466 6.40308 8.27396 6.98248 -0.613123 1.67724 27.4442
4215360 5.7933 6.39372 8.29499 7.02903 -0.604795 1.7104 27.511
4215370 5.7933 6.39372 8.29499 7.02903 -0.604795 1.7104 27.511
4215380 5.80193 6.44989 8.36858 7.02903 -0.62533 1.70661 27.6494
4215391 5.80193 6.44989 8.36858 7.02903 -0.62533 1.70661 27.6494
4215400 5.75013 6.38436 8.33704 6.97317 -0.664648 1.7357 27.4447
4215414 5.77603 6.41245 8.24242 7.01972 -0.53395 1.67956 27.4506
4215423 5.77603 6.41245 8.24242 7.01972 -0.53395 1.67956 27.4506
4215430 5.70696 6.375 8.26345 7.03834 -0.508581 1.76373 27.3837
4215441 5.71559 6.40308 8.29499 7.03834 -0.518325 1.75651 27.452
4215454 5.71559 6.40308 8.29499 7.03834 -0.518325 1.75651 27.452
4215461 5.76739 6.40308 8.31602 7.02903 -0.591761 1.7306 27.5155
4215471 5.76739 6.40308 8.31602 7.02903 -0.591761 1.7306 27.5155
4215481 5.74149 6.43117 8.21088 7.09419 -0.388511 1.70998 27.4777
4215491 5.73286 6.43117 8.25294 7.05695 -0.45286 1.71756 27.4739
4215515 5.76739 6.41245 8.3055 7.02903 -0.573727 1.71984 27.5144
4215524 5.71559 6.44989 8.28448 7.03834 -0.465511 1.72291 27.4883
4215543 5.72423 6.40308 8.26345 7.04765 -0.489229 1.74051 27.4384
4215553 5.68969 6.40308 8.32653 7.09419 -0.471534 1.81436 27.5135
4215572 5.70696 6.39372 8.32653 7.11281 -0.478351 1.81844 27.54
4215582 5.70696 6.39372 8.32653 7.11281 -0.478351 1.81844 27.54
4215595 5.69832 6.35628 8.33704 7.10351 -0.523353 1.84721 27.4952
4215604 5.71559 6.40308 8.33704 7.10351 -0.495338 1.80804 27.5592
4215614 5.71559 6.40308 8.33704 7.10351 -0.495338 1.80804 27.5592
4215624 5.69832 6.43117 8.34756 7.15005 -0.420474 1.82871 27.6271
4215634 5.74149 6.41245 8.28448 7.1966 -0.377168 1.80594 27.635
4215644 5.74149 6.41245 8.28448 7.1966 -0.377168 1.80594 27.635
4215655 5.67242 6.36564 8.24242 7.15005 -0.363785 1.83432 27.4305
4215678 5.65515 6.42181 8.27396 7.08489 -0.384924 1.79431 27.4358
4215685 5.67242 6.44053 8.24242 7.13143 -0.31186 1.77953 27.4868
4215698 5.67242 6.44053 8.24242 7.13143 -0.31186 1.77953 27.4868
4215705 5.64652 6.44053 8.18986 7.15936 -0.215486 1.7835 27.4363
4215718 5.65515 6.42181 8.2214 7.06627 -0.354911 1.75995 27.3646
4215725 5.65515 6.42181 8.2214 7.06627 -0.354911 1.75995 27.3646
4215740 5.73286 6.48733 8.16883 7.08489 -0.299802 1.65622 27.4739
4215746 5.73286 6.48733 8.16883 7.08489 -0.299802 1.65622 27.4739
4215756 5.63789 6.51542 8.16883 7.08489 -0.188285 1.69687 27.407
4215766 5.74149 6.4967 8.24242 7.13143 -0.32213 1.70342 27.612
4215786 5.71559 6.53414 8.10575 7.05695 -0.209984 1.59397 27.4124
4215796 5.71559 6.52478 8.1478 7.13143 -0.188214 1.65638 27.5196
4215806 5.71559 6.52478 8.1478 7.13143 -0.188214 1.65638 27.5196
4215816 5.73286 6.5435 8.12678 6.98248 -0.304593 1.55167 27.3856
4215826 5.73286 6.5435 8.12678 6.98248 -0.304593 1.55167 27.3856
4215839 5.71559 6.50606 8.10575 6.97317 -0.313289 1.5699 27.3006
4215846 5.80193 6.59031 8.07421 7.0011 -0.259158 1.46522 27.4675
4215857 5.80193 6.59031 8.07421 7.0011 -0.259158 1.46522 27.4675
4215866 5.77603 6.56222 8.07421 7.01041 -0.253081 1.50223 27.4229
4215876 5.75876 6.5435 8.09524 7.02903 -0.256568 1.5434 27.4265
4215888 5.75876 6.5435 8.09524 7.02903 -0.256568 1.5434 27.4265
4215896 5.75876 6.60903 8.1478 7.03834 -0.235176 1.53427 27.5539
4215916 5.77603 6.55286 8.15832 7.03834 -0.311662 1.56278 27.5255
4215929 5.81056 6.53414 8.2214 7.07557 -0.38189 1.60207 27.6417
4215938 5.81056 6.53414 8.2214 7.07557 -0.38189 1.60207 27.6417
4215947 5.80193 6.53414 8.29499 6.97317 -0.533988 1.59328 27.6042
4215957 5.72423 6.44053 8.17934 7.04765 -0.379124 1.67691 27.3917
4215975 5.72423 6.44053 8.17934 7.04765 -0.379124 1.67691 27.3917
4215979 5.70696 6.50606 8.23191 7.04765 -0.350246 1.67311 27.4926
4215989 5.74149 6.44989 8.25294 7.02903 -0.469108 1.6874 27.4733
4215999 5.74149 6.44989 8.25294 7.02903 -0.469108 1.6874 27.4733
4216009 5.69832 6.47797 8.31602 7.07557 -0.41787 1.74948 27.5679
4216019 5.69832 6.47797 8.31602 7.07557 -0.41787 1.74948 27.5679
4216029 5.72423 6.41245 8.23191 7.04765 -0.452329 1.71954 27.4162
4216039 5.72423 6.51542 8.24242 7.04765 -0.3665 1.66207 27.5297
4216051 5.72423 6.51542 8.24242 7.04765 -0.3665 1.66207 27.5297
4216059 5.74149 6.4967 8.24242 7.01972 -0.425 1.64941 27.5003
4216069 5.74149 6.4967 8.24242 7.01972 -0.425 1.64941 27.5003
4216079 5.76739 6.51542 8.2214 7.04765 -0.386299 1.62579 27.5519
4216089 5.76739 6.44989 8.2214 7.04765 -0.44682 1.66542 27.4863
4216099 5.76739 6.44989 8.2214 7.04765 -0.44682 1.66542 27.4863
4216109 5.75013 6.44989 8.20037 7.02903 -0.429817 1.65664 27.4294
4216120 5.75876 6.4967 8.17934 7.01972 -0.383995 1.60826 27.4545
4216129 5.75876 6.4967 8.17934 7.01972 -0.383995 1.60826 27.4545
4216142 5.78466 6.51542 8.16883 6.99179 -0.406298 1.56252 27.4607
4216149 5.78466 6.51542 8.16883 6.99179 -0.406298 1.56252 27.4607
4216159 5.81056 6.5435 8.21088 6.95455 -0.475481 1.53239 27.5195
4216169 5.82783 6.47797 8.24242 6.99179 -0.545113 1.59499 27.54
4216179 5.82783 6.47797 8.24242 6.99179 -0.545113 1.59499 27.54
4216189 5.77603 6.58095 8.13729 6.97317 -0.326939 1.50368 27.4674
4216199 5.871 6.55286 8.12678 6.89869 -0.497489 1.42167 27.4493
4216209 5.871 6.55286 8.12678 6.89869 -0.497489 1.42167 27.4493
4216219 5.8192 6.51542 8.08472 6.95455 -0.396325 1.48206 27.3739
4216239 5.81056 6.57159 8.10575 6.85214 -0.450431 1.41317 27.34
4216249 5.82783 6.56222 8.12678 6.88938 -0.458845 1.43732 27.4062
4216260 5.82783 6.56222 8.12678 6.88938 -0.458845 1.43732 27.4062
4216271 5.88827 6.55286 8.04267 6.84283 -0.489679 1.34175 27.3266
4216280 5.871 6.55286 8.0637 6.83352 -0.501736 1.35793 27.3211
4216290 5.871 6.55286 8.0637 6.83352 -0.501736 1.35793 27.3211
4216300 5.9228 6.62775 8.07421 6.86145 -0.461882 1.30162 27.4862
4216310 5.9228 6.62775 8.07421 6.86145 -0.461882 1.30162 27.4862
4216320 5.871 6.59967 8.09524 6.88938 -0.434518 1.37348 27.4553
4216330 5.90554 6.59967 8.0637 6.88007 -0.445826 1.3326 27.449
4216340 5.90554 6.59967 8.0637 6.88007 -0.445826 1.3326 27.449
4216351 5.93144 6.64648 8.05318 6.85214 -0.442098 1.27027 27.4832
4216360 5.871 6.59967 8.05318 6.8149 -0.46602 1.31539 27.3387
4216373 5.871 6.59967 8.05318 6.8149 -0.46602 1.31539 27.3387
4216380 5.94007 6.67456 8.04267 6.89869 -0.371514 1.26654 27.556
4216392 5.94007 6.67456 8.04267 6.89869 -0.371514 1.26654 27.556
4216400 5.9228 6.61839 8.07421 6.87076 -0.46193 1.31181 27.4862
4216414 5.8969 6.58095 8.08472 6.908 -0.448371 1.37322 27.4706
4216420 5.8969 6.58095 8.08472 6.908 -0.448371 1.37322 27.4706
4216430 5.85373 6.4967 8.1478 6.86145 -0.587906 1.4577 27.3597
4216440 5.8969 6.44989 8.12678 6.97317 -0.547081 1.50463 27.4467
4216450 5.8969 6.44989 8.12678 6.97317 -0.547081 1.50463 27.4467
4216460 5.88827 6.48733 8.12678 7.01041 -0.470059 1.50562 27.5128
4216470 5.88827 6.48733 8.12678 7.01041 -0.470059 1.50562 27.5128
4216483 5.88827 6.47797 8.13729 6.94524 -0.548615 1.48437 27.4488
4216490 5.85373 6.46861 8.17934 6.94524 -0.564027 1.53145 27.4469
4216501 5.85373 6.46861 8.17934 6.94524 -0.564027 1.53145 27.4469
4216515 5.81056 6.50606 8.13729 7.02903 -0.375481 1.55535 27.4829
4216521 5.8192 6.48733 8.09524 6.99179 -0.397278 1.52253 27.3936
4216541 5.78466 6.46861 8.1478 7.02903 -0.396307 1.59873 27.4301
4216551 5.78466 6.46861 8.1478 7.02903 -0.396307 1.59873 27.4301
4216561 5.76739 6.41245 8.18986 7.06627 -0.436054 1.68189 27.436
4216571 5.7933 6.38436 8.20037 7.07557 -0.48603 1.69283 27.4536
4216581 5.7933 6.38436 8.20037 7.07557 -0.48603 1.69283 27.4536
4216591 5.83647 6.42181 8.23191 7.05695 -0.535096 1.65022 27.5471
4216601 5.73286 6.38436 8.18986 7.13143 -0.370756 1.75159 27.4385
4216631 5.72423 6.42181 8.21088 7.10351 -0.373082 1.73068 27.4604
4216632 5.72423 6.42181 8.21088 7.10351 -0.373082 1.73068 27.4604
4216643 5.81056 6.42181 8.23191 7.1966 -0.38327 1.73321 27.6609
4216653 5.77603 6.39372 8.2214 7.08489 -0.472064 1.71233 27.476
4216662 5.77603 6.39372 8.2214 7.08489 -0.472064 1.71233 27.476
4216673 5.77603 6.43117 8.2214 7.02903 -0.489148 1.6625 27.4576
4216683 5.72423 6.43117 8.16883 7.02903 -0.395623 1.66843 27.3532
4216695 5.72423 6.375 8.16883 7.14074 -0.344151 1.75693 27.4088
4216703 5.75876 6.42181 8.21088 7.15936 -0.352506 1.73662 27.5508
4216723 5.76739 6.38436 8.18986 7.09419 -0.436197 1.71252 27.4358
4216733 5.82783 6.40308 8.16883 7.03834 -0.505905 1.62707 27.4381
4216753 5.8451 6.44053 8.09524 7.08489 -0.377673 1.58078 27.4657
4216766 5.77603 6.43117 8.15832 7.04765 -0.415432 1.64087 27.4132
4216774 5.77603 6.43117 8.15832 7.04765 -0.415432 1.64087 27.4132
4216784 5.83647 6.36564 8.1478 7.09419 -0.477731 1.6615 27.4441
4216796 5.83647 6.36564 8.1478 7.09419 -0.477731 1.6615 27.4441
4216804 5.81056 6.31883 8.10575 7.06627 -0.486438 1.67168 27.3014
4216814 5.80193 6.35628 8.12678 7.01041 -0.514762 1.63708 27.2954
4216824 5.80193 6.35628 8.12678 7.01041 -0.514762 1.63708 27.2954
4216834 5.7933 6.40308 8.10575 7.09419 -0.366627 1.64451 27.3963
4216844 5.81056 6.39372 8.13729 7.10351 -0.410482 1.65959 27.4451
4216864 5.80193 6.44989 8.11626 7.08489 -0.34916 1.61148 27.453
4216884 5.83647 6.36564 8.1478 7.14074 -0.434589 1.68409 27.4907
4216896 5.76739 6.39372 8.11626 7.09419 -0.361454 1.67108 27.3716
4216905 5.76739 6.39372 8.11626 7.09419 -0.361454 1.67108 27.3716
4216917 5.77603 6.43117 8.12678 7.13143 -0.309664 1.66629 27.4654
4216925 5.82783 6.39372 8.0637 7.05695 -0.403087 1.59045 27.3422
4216939 5.82783 6.39372 8.0637 7.05695 -0.403087 1.59045 27.3422
4216945 5.7933 6.44989 8.11626 7.14074 -0.28993 1.64389 27.5002
4216955 5.7933 6.44989 8.11626 7.14074 -0.28993 1.64389 27.5002
4216965 5.77603 6.41245 8.10575 7.14074 -0.299425 1.67197 27.435
4216975 5.7933 6.46861 8.12678 7.14074 -0.282168 1.63767 27.5294
4216985 5.7933 6.46861 8.12678 7.14074 -0.282168 1.63767 27.5294
4216998 5.81056 6.47797 8.10575 7.12212 -0.287297 1.60232 27.5164
4217006 5.81056 6.47797 8.10575 7.12212 -0.287297 1.60232 27.5164
4217015 5.80193 6.375 8.04267 7.09419 -0.343604 1.62552 27.3138
4217029 5.73286 6.42181 8.10575 7.16867 -0.226155 1.70609 27.4291
4217045 5.80193 6.40308 8.03216 7.09419 -0.30808 1.60329 27.3314
4217056 5.69832 6.39372 8.15832 7.17798 -0.259708 1.77422 27.4283
4217065 5.69832 6.39372 8.15832 7.17798 -0.259708 1.77422 27.4283
4217075 5.8192 6.47797 8.1478 7.15005 -0.307095 1.6311 27.595
4217085 5.8192 6.47797 8.1478 7.15005 -0.307095 1.6311 27.595
4217095 5.75876 6.45925 8.12678 7.11281 -0.285415 1.65068 27.4576
4217106 5.72423 6.45925 8.15832 7.13143 -0.265583 1.69598 27.4732
4217117 5.72423 6.45925 8.15832 7.13143 -0.265583 1.69598 27.4732
4217126 5.71559 6.44053 8.09524 7.17798 -0.175284 1.70462 27.4293
4217139 5.75876 6.44053 8.08472 7.13143 -0.247598 1.65064 27.4154
4217146 5.75876 6.44053 8.08472 7.13143 -0.247598 1.65064 27.4154
4217161 5.75013 6.45925 8.11626 7.15005 -0.23392 1.6689 27.4757
4217167 5.75013 6.45925 8.11626 7.15005 -0.23392 1.6689 27.4757
4217176 5.76739 6.44053 8.15832 7.18729 -0.270283 1.70814 27.5535
4217187 5.73286 6.41245 8.12678 7.23384 -0.19391 1.75343 27.5059
4217196 5.73286 6.41245 8.12678 7.23384 -0.19391 1.75343 27.5059
4217207 5.71559 6.40308 8.17934 7.17798 -0.285584 1.76808 27.476
4217217 5.70696 6.42181 8.13729 7.16867 -0.231248 1.73714 27.4347
4217228 5.70696 6.42181 8.13729 7.16867 -0.231248 1.73714 27.4347
4217236 5.68106 6.41245 8.2214 7.17798 -0.283733 1.80367 27.4929
4217253 5.68106 6.41245 8.2214 7.17798 -0.283733 1.80367 27.4929
4217256 5.68106 6.34692 8.2214 7.1966 -0.326946 1.85275 27.446
4217272 5.65515 6.33755 8.2214 7.25246 -0.260802 1.90112 27.4666
4217278 5.65515 6.33755 8.2214 7.25246 -0.260802 1.90112 27.4666
4217288 5.68106 6.29075 8.25294 7.20591 -0.398576 1.90683 27.4307
4217298 5.59472 6.35628 8.33704 7.26177 -0.284676 1.98612 27.5498
4217307 5.59472 6.35628 8.33704 7.26177 -0.284676 1.98612 27.5498
4217320 5.63789 6.35628 8.34756 7.23384 -0.3584 1.95131 27.5756
4217328 5.61199 6.29075 8.29499 7.26177 -0.322704 1.99605 27.4595
4217341 5.61199 6.29075 8.29499 7.26177 -0.322704 1.99605 27.4595
4217349 5.52565 6.2533 8.36858 7.26177 -0.345825 2.10772 27.4093
4217359 5.52565 6.2533 8.36858 7.26177 -0.345825 2.10772 27.4093
4217369 5.53428 6.21586 8.40012 7.32694 -0.356299 2.17103 27.4772
4217379 5.45658 6.18778 8.55782 7.30832 -0.471003 2.30192 27.5105
4217389 5.45658 6.18778 8.55782 7.30832 -0.471003 2.30192 27.5105
4217399 5.47384 6.18778 8.51577 7.34556 -0.41445 2.28884 27.523
4217409 5.3616 6.19714 8.63142 7.42935 -0.331768 2.44503 27.6195
4217429 5.37024 6.2065 8.66296 7.42004 -0.367551 2.44377 27.6597
4217439 5.37024 6.2065 8.66296 7.42004 -0.367551 2.44377 27.6597
4217449 5.3616 6.17841 8.61039 7.39211 -0.364406 2.43032 27.5425
4217459 5.35297 6.15033 8.63142 7.3828 -0.409968 2.45894 27.5175
4217469 5.35297 6.15033 8.63142 7.3828 -0.409968 2.45894 27.5175
4217479 5.38751 6.16905 8.59988 7.36418 -0.412551 2.40229 27.5206
4217499 5.39614 6.17841 8.63142 7.37349 -0.431161 2.40959 27.5795
4217512 5.39614 6.13161 8.64193 7.41073 -0.449349 2.46094 27.5804
4217520 5.39614 6.13161 8.64193 7.41073 -0.449349 2.46094 27.5804
4217532 5.40477 6.23458 8.68398 7.36418 -0.442429 2.38852 27.6875
4217540 5.39614 6.17841 8.65244 7.3828 -0.441298 2.42343 27.6098
4217560 5.45658 6.22522 8.72604 7.29901 -0.594057 2.35136 27.7068
4217570 5.43068 6.12225 8.64193 7.30832 -0.583601 2.39827 27.5032
4217581 5.43068 6.12225 8.64193 7.30832 -0.583601 2.39827 27.5032
4217590 5.45658 6.2065 8.67347 7.28039 -0.582209 2.33052 27.6169
4217600 5.45658 6.2065 8.67347 7.28039 -0.582209 2.33052 27.6169
4217610 5.43931 6.16905 8.63142 7.26177 -0.581691 2.33705 27.5016
4217620 5.46521 6.13161 8.66296 7.27108 -0.658782 2.3631 27.5309
4217630 5.46521 6.13161 8.66296 7.27108 -0.658782 2.3631 27.5309
4217641 5.52565 6.2065 8.57885 7.22453 -0.611451 2.21781 27.5355
4217650 5.52565 6.2065 8.57885 7.22453 -0.611451 2.21781 27.5355
4217663 5.45658 6.18778 8.59988 7.16867 -0.63839 2.25671 27.4129
4217670 5.58608 6.21586 8.54731 7.17798 -0.671652 2.13789 27.5272
4217680 5.58608 6.21586 8.54731 7.17798 -0.671652 2.13789 27.5272
4217690 5.55155 6.18778 8.58936 7.14074 -0.739361 2.17921 27.4694
4217700 5.55155 6.2065 8.55782 7.05695 -0.772591 2.11344 27.3728
4217720 5.56882 6.22522 8.5368 7.14074 -0.673103 2.12047 27.4716
4217730 5.56882 6.22522 8.5368 7.14074 -0.673103 2.12047 27.4716
4217741 5.54292 6.19714 8.58936 7.13143 -0.731684 2.17441 27.4608
4217751 5.50838 6.18778 8.61039 7.16867 -0.693645 2.22905 27.4752
4217761 5.50838 6.18778 8.61039 7.16867 -0.693645 2.22905 27.4752
4217771 5.54292 6.19714 8.61039 7.24315 -0.645997 2.23611 27.5936
4217782 5.53428 6.21586 8.63142 7.24315 -0.639541 2.23953 27.6247
4217791 5.53428 6.21586 8.63142 7.24315 -0.639541 2.23953 27.6247
4217801 5.52565 6.27203 8.68398 7.22453 -0.643422 2.22559 27.7062
4217811 5.52565 6.27203 8.68398 7.22453 -0.643422 2.22559 27.7062
4217826 5.52565 6.2065 8.71552 7.27108 -0.688693 2.3023 27.7188
4217832 5.43068 6.15969 8.75758 7.32694 -0.6338 2.43587 27.6749
4217841 5.43068 6.15969 8.75758 7.32694 -0.6338 2.43587 27.6749
4217851 5.39614 6.17841 8.73655 7.31763 -0.576068 2.43205 27.6287
4217861 5.3616 6.16905 8.72604 7.31763 -0.544851 2.45501 27.5743
4217871 5.3616 6.16905 8.72604 7.31763 -0.544851 2.45501 27.5743
4217891 5.35297 6.038 8.76809 7.34556 -0.670341 2.57558 27.5046
4217892 5.35297 6.038 8.76809 7.34556 -0.670341 2.57558 27.5046
4217903 5.27527 6.00991 8.8522 7.31763 -0.72839 2.66872 27.455
4217912 5.24937 6.05672 8.89425 7.45728 -0.569113 2.73638 27.6576
4217922 5.24937 6.05672 8.89425 7.45728 -0.569113 2.73638 27.6576
4217932 5.18893 5.96311 8.95733 7.42004 -0.692993 2.84714 27.5294
4217942 5.2062 5.99119 8.90476 7.51314 -0.549175 2.83567 27.6153
4217954 5.2062 5.99119 8.90476 7.51314 -0.549175 2.83567 27.6153
4217964 5.24073 6.04736 8.90476 7.49452 -0.545028 2.76906 27.6874
4217974 5.16303 6.04736 8.9363 7.49452 -0.504185 2.83297 27.6412
4217984 5.16303 5.98183 8.9363 7.54107 -0.521706 2.89578 27.6222
4217994 5.19756 6.01927 8.91528 7.57831 -0.464854 2.85637 27.7104
4218004 5.19756 6.01927 8.91528 7.57831 -0.464854 2.85637 27.7104
4218014 5.15439 6.00991 8.79963 7.48521 -0.417952 2.79819 27.4491
4218024 5.2062 6.06608 8.81014 7.51314 -0.396001 2.74556 27.5956
4218034 5.2062 6.06608 8.81014 7.51314 -0.396001 2.74556 27.5956
4218044 5.24937 6.09416 8.7786 7.49452 -0.397661 2.67751 27.6167
4218056 5.24937 6.09416 8.7786 7.49452 -0.397661 2.67751 27.6167
4218064 5.22346 6.14097 8.66296 7.51314 -0.210878 2.62068 27.5405
4218074 5.22346 6.07544 8.79963 7.51314 -0.393412 2.72378 27.6117
4218084 5.22346 6.07544 8.79963 7.51314 -0.393412 2.72378 27.6117
4218095 5.21483 6.09416 8.71552 7.49452 -0.310391 2.67145 27.519
4218104 5.19756 6.19714 8.67347 7.44797 -0.205263 2.57671 27.5161
4218117 5.19756 6.19714 8.67347 7.44797 -0.205263 2.57671 27.5161
4218125 5.2321 6.2065 8.74706 7.39211 -0.344975 2.55672 27.5778
4218134 5.2321 6.2065 8.74706 7.39211 -0.344975 2.55672 27.5778
4218144 5.2321 6.16905 8.70501 7.39211 -0.341783 2.5616 27.4983
4218159 5.2062 6.2065 8.78912 7.45728 -0.299656 2.6214 27.6591
4218174 5.258 6.18778 8.6945 7.40142 -0.32977 2.5326 27.5417
4218184 5.2062 6.22522 8.6945 7.36418 -0.283091 2.52487 27.4901
4218195 5.2062 6.22522 8.6945 7.36418 -0.283091 2.52487 27.4901
4218205 5.21483 6.28139 8.64193 7.39211 -0.166415 2.47246 27.5303
4218216 5.21483 6.28139 8.64193 7.39211 -0.166415 2.47246 27.5303
4218225 5.16303 6.24394 8.68398 7.37349 -0.208972 2.53992 27.4644
4218271 5.21483 6.2065 8.66296 7.39211 -0.254013 2.52966 27.4764
4218279 5.21483 6.2065 8.66296 7.39211 -0.254013 2.52966 27.4764
4218280 5.2321 6.28139 8.66296 7.42004 -0.175405 2.48375 27.5965
4218281 5.2321 6.29075 8.58936 7.33625 -0.177112 2.40602 27.4485
4218282 5.2321 6.29075 8.58936 7.33625 -0.177112 2.40602 27.4485
4218285 5.24937 6.34692 8.54731 7.34556 -0.0947595 2.34452 27.4892
4218295 5.24937 6.34692 8.54731 7.34556 -0.0947595 2.34452 27.4892
4218305 5.21483 6.30011 8.55782 7.42004 -0.0477389 2.43496 27.4928
4218315 5.24073 6.32819 8.57885 7.42004 -0.0646979 2.4104 27.5678
4218325 5.24073 6.32819 8.57885 7.42004 -0.0646979 2.4104 27.5678
4218335 5.27527 6.41245 8.51577 7.39211 0.0122488 2.29394 27.5956
4218345 5.2321 6.33755 8.51577 7.45728 0.0426352 2.39813 27.5427
4218355 5.2321 6.33755 8.51577 7.45728 0.0426352 2.39813 27.5427
4218365 5.2839 6.39372 8.48423 7.41073 0.0329375 2.29431 27.5726
4218375 5.2839 6.39372 8.48423 7.41073 0.0329375 2.29431 27.5726
4218385 5.24937 6.35628 8.56834 7.42935 -0.0290453 2.38669 27.6033
4218395 5.32707 6.39372 8.59988 7.40142 -0.118858 2.31612 27.7221
4218415 5.3098 6.43117 8.47372 7.3828 0.027585 2.23691 27.5975
4218425 5.2839 6.41245 8.52628 7.35487 -0.0388592 2.27621 27.5775
4218436 5.2839 6.41245 8.52628 7.35487 -0.0388592 2.27621 27.5775
4218446 5.26663 6.32819 8.48423 7.40142 -0.0193268 2.34211 27.4805
4218456 5.26663 6.32819 8.48423 7.40142 -0.0193268 2.34211 27.4805
4218467 5.258 6.41245 8.42115 7.36418 0.0887603 2.2481 27.4558
4218476 5.258 6.34692 8.44218 7.39211 0.0353992 2.31204 27.4392
4218486 5.258 6.34692 8.44218 7.39211 0.0353992 2.31204 27.4392
4218497 5.2321 6.40308 8.43166 7.42004 0.144947 2.30102 27.4869
4218507 5.2321 6.40308 8.43166 7.42004 0.144947 2.30102 27.4869
4218516 5.24073 6.375 8.44218 7.42935 0.110456 2.32242 27.4873
4218533 5.22346 6.43117 8.4632 7.43866 0.166172 2.31192 27.5565
4218538 5.22346 6.43117 8.4632 7.43866 0.166172 2.31192 27.5565
4218551 5.26663 6.39372 8.48423 7.40142 0.0401914 2.30086 27.546
4218557 5.3098 6.40308 8.40012 7.40142 0.085938 2.22901 27.5144
4218568 5.3098 6.40308 8.40012 7.40142 0.085938 2.22901 27.5144
4218579 5.30117 6.45925 8.44218 7.36418 0.0726342 2.20153 27.5668
4218588 5.30117 6.47797 8.44218 7.37349 0.0979573 2.19418 27.5948
4218608 5.37887 6.4967 8.35807 7.31763 0.0702202 2.06894 27.5513
4218618 5.37887 6.4967 8.35807 7.31763 0.0702202 2.06894 27.5513
4218627 5.38751 6.44989 8.35807 7.24315 -0.047864 2.05759 27.4386
4218638 5.41341 6.46861 8.28448 7.20591 -0.0213325 1.97738 27.3724
4218648 5.41341 6.46861 8.28448 7.20591 -0.0213325 1.97738 27.3724
4218663 5.49111 6.52478 8.25294 7.16867 -0.0460997 1.8619 27.4375
4218669 5.51701 6.52478 8.21088 7.18729 -0.0144169 1.83476 27.44
4218680 5.51701 6.52478 8.21088 7.18729 -0.0144169 1.83476 27.44
4218695 5.56882 6.63711 8.16883 7.06627 -0.0312194 1.65582 27.441
4218699 5.56882 6.63711 8.16883 7.06627 -0.0312194 1.65582 27.441
4218709 5.56018 6.63711 8.20037 7.01041 -0.103103 1.64923 27.4081
4218723 5.59472 6.62775 8.25294 6.99179 -0.207625 1.65047 27.4672
4218734 5.59472 6.62775 8.25294 6.99179 -0.207625 1.65047 27.4672
4218739 5.61199 6.712 8.18986 6.98248 -0.0976175 1.55385 27.4963
4218749 5.62062 6.72137 8.2214 6.96386 -0.142401 1.54934 27.5272
4218759 5.62062 6.72137 8.2214 6.96386 -0.142401 1.54934 27.5272
4218769 5.64652 6.68392 8.23191 6.94524 -0.226551 1.55232 27.5076
4218789 5.70696 6.64648 8.15832 6.89869 -0.291964 1.47949 27.4104
4218801 5.66379 6.74945 8.25294 6.93593 -0.20954 1.50838 27.6021
4218810 5.66379 6.74945 8.25294 6.93593 -0.20954 1.50838 27.6021
4218823 5.63789 6.712 8.21088 6.87076 -0.242433 1.49376 27.4315
4218831 5.68106 6.69328 8.13729 6.87076 -0.232184 1.44274 27.3824
4218843 5.68106 6.69328 8.13729 6.87076 -0.232184 1.44274 27.3824
4218850 5.68106 6.68392 8.12678 6.80559 -0.291537 1.41079 27.2973
4218860 5.68106 6.68392 8.12678 6.80559 -0.291537 1.41079 27.2973
4218870 5.69832 6.6652 8.1478 6.8149 -0.334872 1.42675 27.3262
4218880 5.77603 6.69328 8.1478 6.85214 -0.344399 1.38189 27.4692
4218890 5.77603 6.69328 8.1478 6.85214 -0.344399 1.38189 27.4692
4218900 5.78466 6.62775 8.11626 6.80559 -0.427656 1.37708 27.3343
4218910 5.69832 6.62775 8.13729 6.80559 -0.368804 1.43944 27.269
4218920 5.69832 6.65584 8.13729 6.8149 -0.334062 1.42716 27.3063
4218930 5.74149 6.68392 8.16883 6.88007 -0.315148 1.43233 27.4743
4218940 5.74149 6.68392 8.16883 6.88007 -0.315148 1.43233 27.4743
4218950 5.72423 6.6652 8.17934 6.8149 -0.386611 1.42685 27.3837
4218960 5.75013 6.79626 8.18986 6.82421 -0.289838 1.34306 27.5604
4218970 5.75013 6.79626 8.18986 6.82421 -0.289838 1.34306 27.5604
4218980 5.80193 6.74945 8.23191 6.85214 -0.391033 1.37469 27.6354
4218990 5.80193 6.74945 8.23191 6.85214 -0.391033 1.37469 27.6354
4219000 5.75013 6.73073 8.18986 6.87076 -0.307266 1.40502 27.5415
4219010 5.77603 6.74945 8.12678 6.8149 -0.308059 1.3195 27.4672
4219031 5.75013 6.73073 8.08472 6.77766 -0.298493 1.30646 27.3432
4219040 5.75013 6.76817 8.09524 6.75904 -0.29058 1.2801 27.3726
4219053 5.75013 6.76817 8.09524 6.75904 -0.29058 1.2801 27.3726
4219060 5.75013 6.79626 8.09524 6.78697 -0.238933 1.2774 27.4286
4219070 5.75013 6.79626 8.09524 6.78697 -0.238933 1.2774 27.4286
4219080 5.72423 6.74945 8.05318 6.79628 -0.211987 1.30427 27.3231
4219091 5.73286 6.76817 8.05318 6.80559 -0.193976 1.29263 27.3598
4219100 5.73286 6.76817 8.05318 6.80559 -0.193976 1.29263 27.3598
4219110 5.73286 6.76817 8.11626 6.83352 -0.225344 1.33808 27.4508
4219120 5.73286 6.82434 8.10575 6.86145 -0.138809 1.31338 27.5244
4219130 5.73286 6.82434 8.10575 6.86145 -0.138809 1.31338 27.5244
4219140 5.72423 6.80562 8.12678 6.83352 -0.192678 1.32618 27.4901
4219164 5.69832 6.77753 8.13729 6.85214 -0.187458 1.37277 27.4653
4219172 5.69832 6.75881 8.17934 6.88007 -0.216953 1.41857 27.5165
4219182 5.69832 6.75881 8.17934 6.88007 -0.216953 1.41857 27.5165
4219191 5.71559 6.712 8.11626 6.908 -0.192934 1.41885 27.4519
4219204 5.70696 6.76817 8.08472 6.88938 -0.122167 1.36559 27.4492
4219211 5.70696 6.76817 8.08472 6.88938 -0.122167 1.36559 27.4492
4219221 5.76739 6.73073 8.07421 6.88938 -0.201648 1.34667 27.4617
4219231 5.76739 6.73073 8.07421 6.88938 -0.201648 1.34667 27.4617
4219241 5.73286 6.73073 8.11626 6.86145 -0.234091 1.37427 27.4413
4219251 5.68969 6.74009 8.09524 6.94524 -0.0906482 1.42556 27.4703
4219271 5.69832 6.80562 8.07421 6.88007 -0.0790775 1.33858 27.4582
4219282 5.68106 6.77753 8.07421 6.88007 -0.0890732 1.36561 27.4129
4219292 5.68106 6.77753 8.07421 6.88007 -0.0890732 1.36561 27.4129
4219304 5.70696 6.78689 8.10575 6.93593 -0.0816122 1.38793 27.5355
4219312 5.70696 6.78689 8.10575 6.93593 -0.0816122 1.38793 27.5355
4219322 5.68969 6.712 8.1478 6.908 -0.198029 1.44993 27.4575
4219332 5.70696 6.74945 8.08472 6.97317 -0.0627577 1.41825 27.5143
4219352 5.72423 6.80562 8.08472 6.94524 -0.0527009 1.36074 27.5598
4219363 5.66379 6.74945 8.04267 6.99179 0.0316739 1.43248 27.4477
4219374 5.66379 6.74945 8.04267 6.99179 0.0316739 1.43248 27.4477
4219384 5.67242 6.79626 8.02164 6.908 0.00929236 1.34733 27.3983
4219396 5.67242 6.79626 8.02164 6.908 0.00929236 1.34733 27.3983
4219405 5.62062 6.73073 8.07421 6.95455 -0.0087291 1.4668 27.3801
4219414 5.67242 6.76817 8.07421 6.99179 0.0121117 1.4317 27.5066
4219424 5.67242 6.76817 8.07421 6.99179 0.0121117 1.4317 27.5066
4219434 5.69832 6.74945 8.08472 6.98248 -0.0464514 1.428 27.515
4219445 5.67242 6.72137 8.07421 6.96386 -0.0559688 1.44592 27.4319
4219454 5.67242 6.72137 8.07421 6.96386 -0.0559688 1.44592 27.4319
4219464 5.69832 6.77753 8.0637 6.94524 -0.0357047 1.38244 27.4848
4219474 5.69832 6.77753 8.0637 6.94524 -0.0357047 1.38244 27.4848
4219484 5.68106 6.74009 8.08472 6.93593 -0.0817806 1.42092 27.4418
4219494 5.68969 6.78689 8.09524 6.91731 -0.073418 1.3838 27.4891
4219505 5.68969 6.78689 8.09524 6.91731 -0.073418 1.3838 27.4891
4219515 5.75876 6.78689 8.02164 6.89869 -0.086312 1.29688 27.466
4219525 5.74149 6.82434 8.08472 6.93593 -0.0597686 1.33479 27.5865
4219535 5.74149 6.82434 8.08472 6.93593 -0.0597686 1.33479 27.5865
4219545 5.72423 6.86178 8.07421 6.96386 0.0246197 1.33148 27.6241
4219556 5.72423 6.86178 8.07421 6.96386 0.0246197 1.33148 27.6241
4219565 5.71559 6.74945 8.01113 6.88007 -0.0888377 1.33031 27.3562
4219577 5.77603 6.82434 8.00062 6.87076 -0.0742152 1.24 27.4717
4219585 5.77603 6.82434 8.00062 6.87076 -0.0742152 1.24 27.4717
4219595 5.70696 6.77753 7.95857 6.79628 -0.0841752 1.25022 27.2393
4219606 5.70696 6.79626 7.93754 6.76835 -0.0734091 1.2143 27.2091
4219615 5.70696 6.79626 7.93754 6.76835 -0.0734091 1.2143 27.2091
4219625 5.77603 6.81498 8.01113 6.85214 -0.109313 1.24148 27.4543
4219635 5.77603 6.81498 8.01113 6.85214 -0.109313 1.24148 27.4543
4219645 5.7933 6.78689 7.96908 6.77766 -0.180979 1.18924 27.3269
4219657 5.81056 6.82434 8.10575 6.84283 -0.225814 1.25818 27.5835
4219667 5.81056 6.82434 8.10575 6.84283 -0.225814 1.25818 27.5835
4219676 5.77603 6.80562 8.05318 6.86145 -0.147431 1.27271 27.4963
4219687 5.83647 6.8337 7.95857 6.82421 -0.124872 1.15431 27.4529
4219696 5.83647 6.8337 7.95857 6.82421 -0.124872 1.15431 27.4529
4219706 5.8451 6.82434 7.91651 6.8149 -0.111653 1.12878 27.4008
4219717 5.8451 6.82434 7.91651 6.8149 -0.111653 1.12878 27.4008
4219727 5.8451 6.82434 7.95857 6.79628 -0.166869 1.14063 27.4243
4219736 5.8451 6.82434 7.97959 6.8149 -0.168817 1.16064 27.4639
4219751 5.8451 6.82434 7.97959 6.8149 -0.168817 1.16064 27.4639
4219756 5.8451 6.85242 7.93754 6.7218 -0.190462 1.07568 27.3569
4219766 5.88827 6.88987 7.94805 6.74042 -0.187533 1.04327 27.4666
4219776 5.88827 6.88987 7.94805 6.74042 -0.187533 1.04327 27.4666
4219786 5.87963 6.91795 7.906 6.77766 -0.0818968 1.02947 27.4812
4219813 5.88827 6.88051 7.89549 6.74973 -0.140002 1.02672 27.414
4219819 5.88827 6.87115 7.93754 6.76835 -0.16959 1.06305 27.4653
4219827 5.88827 6.87115 7.93754 6.76835 -0.16959 1.06305 27.4653
4219839 5.9228 6.84306 7.92703 6.75904 -0.225605 1.04921 27.4519
4219848 5.85373 6.82434 7.91651 6.74042 -0.187935 1.08589 27.335
4219860 5.85373 6.82434 7.91651 6.74042 -0.187935 1.08589 27.335
4219868 5.91417 6.91795 7.906 6.76835 -0.121671 1.00461 27.5065
4219880 5.91417 6.91795 7.906 6.76835 -0.121671 1.00461 27.5065
4219887 5.8192 6.82434 7.93754 6.73111 -0.18425 1.1122 27.3122
4219897 5.871 6.87115 7.92703 6.78697 -0.127397 1.07727 27.4561
4219918 5.8451 6.89923 7.91651 6.74042 -0.111277 1.047 27.4013
4219929 5.8969 6.84306 7.85343 6.78697 -0.109847 1.04113 27.3804
4219937 5.8969 6.84306 7.85343 6.78697 -0.109847 1.04113 27.3804
4219948 5.87963 6.90859 7.95857 6.76835 -0.146522 1.05688 27.5151
4219967 5.8192 6.82434 8.00062 6.73111 -0.241432 1.1442 27.3753
4219977 5.83647 6.80562 7.95857 6.74973 -0.219087 1.13319 27.3504
4219989 5.83647 6.80562 7.95857 6.74973 -0.219087 1.13319 27.3504
4219999 5.88827 6.8337 8.01113 6.85214 -0.193547 1.16437 27.5852
4220012 5.83647 6.8337 7.99011 6.79628 -0.179005 1.15613 27.4565
4220029 5.871 6.77753 7.97959 6.78697 -0.26089 1.15886 27.4151
4220039 5.871 6.77753 7.97959 6.78697 -0.26089 1.15886 27.4151
4220049 5.81056 6.70264 7.97959 6.80559 -0.258188 1.24841 27.2984
4220059 5.83647 6.75881 8.05318 6.86145 -0.244816 1.26465 27.5099
4220069 5.83647 6.75881 8.05318 6.86145 -0.244816 1.26465 27.5099
4220079 5.87963 6.74945 8.01113 6.83352 -0.280087 1.20964 27.4737
4220089 5.88827 6.77753 8.03216 6.83352 -0.280932 1.19856 27.5315
4220109 5.80193 6.77753 7.96908 6.88938 -0.0948519 1.2459 27.4379
4220121 5.80193 6.77753 7.96908 6.88938 -0.0948519 1.2459 27.4379
4220129 5.83647 6.73073 7.97959 6.82421 -0.238504 1.22572 27.371
4220141 5.8451 6.81498 7.96908 6.80559 -0.176433 1.15615 27.4347
4220149 5.8451 6.81498 7.96908 6.80559 -0.176433 1.15615 27.4347
4220161 5.80193 6.76817 7.96908 6.78697 -0.197496 1.19992 27.3261
4220179 5.76739 6.712 8.01113 6.78697 -0.256215 1.27506 27.2775
4220189 5.83647 6.75881 7.99011 6.79628 -0.24787 1.20031 27.3817
4220199 5.83647 6.75881 7.99011 6.79628 -0.24787 1.20031 27.3817
4220209 5.8451 6.76817 8.00062 6.83352 -0.222269 1.2137 27.4474
4220219 5.82783 6.77753 8.02164 6.8149 -0.234173 1.21958 27.4419
4220229 5.82783 6.77753 8.02164 6.8149 -0.234173 1.21958 27.4419
4220240 5.80193 6.78689 7.97959 6.80559 -0.172648 1.20353 27.374
4220250 5.8192 6.70264 8.02164 6.83352 -0.278229 1.27844 27.377
4220260 5.8192 6.70264 8.02164 6.83352 -0.278229 1.27844 27.377
4220273 5.8192 6.80562 8.03216 6.83352 -0.192997 1.22271 27.4905
4220280 5.8192 6.80562 8.03216 6.83352 -0.192997 1.22271 27.4905
4220290 5.77603 6.78689 8.05318 6.79628 -0.224392 1.25119 27.4124
4220300 5.77603 6.75881 8.04267 6.86145 -0.180805 1.29521 27.439
4220310 5.77603 6.75881 8.04267 6.86145 -0.180805 1.29521 27.439
4220320 5.8192 6.74945 8.00062 6.83352 -0.216083 1.2401 27.4028
4220330 5.8192 6.74945 8.00062 6.83352 -0.216083 1.2401 27.4028
4220340 5.80193 6.712 8.05318 6.87076 -0.248156 1.31752 27.4379
4220350 5.75876 6.73073 8.07421 6.94524 -0.142689 1.37953 27.5089
4220361 5.75876 6.73073 8.07421 6.94524 -0.142689 1.37953 27.5089
4220370 5.76739 6.72137 8.08472 6.87076 -0.236842 1.34822 27.4442
4220382 5.78466 6.73073 8.11626 6.86145 -0.280756 1.34342 27.4931
4220404 5.7933 6.73073 8.10575 6.96386 -0.185247 1.38379 27.5936
4220410 5.7933 6.73073 8.10575 6.96386 -0.185247 1.38379 27.5936
4220420 5.73286 6.63711 8.11626 6.92662 -0.260273 1.46258 27.4129
4220435 5.71559 6.68392 8.1478 7.02903 -0.136396 1.51071 27.5763
4220447 5.71559 6.68392 8.1478 7.02903 -0.136396 1.51071 27.5763
4220454 5.70696 6.6652 8.15832 6.94524 -0.231878 1.49117 27.4757
4220460 5.72423 6.65584 8.10575 6.99179 -0.16591 1.48347 27.4776
4220480 5.72423 6.67456 8.16883 6.98248 -0.214174 1.49864 27.5501
4220493 5.72423 6.67456 8.16883 6.98248 -0.214174 1.49864 27.5501
4220502 5.68106 6.56222 8.11626 6.99179 -0.222394 1.57109 27.3513
4220515 5.69832 6.60903 8.13729 7.01041 -0.196846 1.55181 27.455
4220532 5.72423 6.61839 8.08472 6.98248 -0.189789 1.49103 27.4098
4220541 5.68106 6.59031 8.12678 7.01041 -0.188918 1.56839 27.4085
4220561 5.70696 6.62775 8.16883 6.98248 -0.241542 1.53711 27.486
4220571 5.70696 6.62775 8.16883 6.98248 -0.241542 1.53711 27.486
4220582 5.72423 6.63711 8.15832 6.92662 -0.290398 1.4885 27.4463
4220591 5.74149 6.62775 8.13729 6.98248 -0.24424 1.50088 27.489
4220604 5.74149 6.62775 8.13729 6.98248 -0.24424 1.50088 27.489
4220611 5.75013 6.60903 8.15832 6.99179 -0.279567 1.52182 27.5093
4220625 5.72423 6.64648 8.15832 7.01041 -0.204852 1.52401 27.5394
4220631 5.72423 6.64648 8.15832 7.01041 -0.204852 1.52401 27.5394
4220641 5.73286 6.64648 8.1478 7.08489 -0.135177 1.55006 27.612
4220661 5.75013 6.61839 8.07421 6.97317 -0.212267 1.46568 27.4159
4220672 5.63789 6.67456 8.0637 6.99179 -0.0321895 1.50342 27.3679
4220682 5.63789 6.67456 8.0637 6.99179 -0.0321895 1.50342 27.3679
4220692 5.70696 6.60903 8.09524 7.01041 -0.166619 1.52598 27.4216
4220702 5.66379 6.56222 8.16883 6.99179 -0.254329 1.60732 27.3866
4220723 5.64652 6.62775 8.11626 7.07557 -0.0541195 1.59336 27.4661
4220742 5.64652 6.60903 8.07421 7.03834 -0.0670195 1.56587 27.3681
4220753 5.67242 6.62775 8.10575 7.05695 -0.0850841 1.56349 27.4629
4220772 5.74149 6.63711 8.09524 7.01041 -0.172108 1.48833 27.4843
4220785 5.70696 6.67456 8.08472 6.99179 -0.114116 1.47224 27.458
4220794 5.70696 6.67456 8.08472 6.99179 -0.114116 1.47224 27.458
4220804 5.68106 6.6652 8.08472 7.0011 -0.0906646 1.49801 27.4321
4220824 5.65515 6.64648 8.04267 7.01041 -0.0374183 1.50876 27.3547
4220834 5.75013 6.69328 8.08472 6.97317 -0.153087 1.42601 27.5013
4220844 5.75013 6.69328 8.08472 6.97317 -0.153087 1.42601 27.5013
4220854 5.74149 6.712 8.00062 6.94524 -0.0774369 1.36446 27.3993
4220866 5.75876 6.61839 8.01113 6.98248 -0.154385 1.43389 27.3708
4220874 5.75876 6.61839 8.01113 6.98248 -0.154385 1.43389 27.3708
4220884 5.72423 6.63711 8.01113 6.95455 -0.131461 1.42954 27.327
4220894 5.72423 6.63711 8.01113 6.95455 -0.131461 1.42954 27.327
4220905 5.76739 6.712 8.04267 6.92662 -0.156149 1.36066 27.4487
4220915 5.75013 6.74009 8.03216 6.95455 -0.079751 1.36286 27.4769
4220924 5.75013 6.74009 8.03216 6.95455 -0.079751 1.36286 27.4769
4220936 5.78466 6.73073 7.97959 6.95455 -0.0719339 1.32174 27.4495
4220944 5.72423 6.69328 8.03216 6.88938 -0.158861 1.37387 27.339
4220964 5.76739 6.75881 8.03216 6.98248 -0.0528917 1.35531 27.5408
4220978 5.76739 6.75881 8.03216 6.98248 -0.0528917 1.35531 27.5408
4220985 5.71559 6.72137 7.93754 6.97317 0.037846 1.35683 27.3477
4220998 5.78466 6.77753 8.01113 6.97317 -0.040926 1.31892 27.5465
4221005 5.78466 6.77753 8.01113 6.97317 -0.040926 1.31892 27.5465
4221015 5.77603 6.73073 7.96908 6.96386 -0.0460327 1.32628 27.4397
4221025 5.80193 6.80562 7.95857 6.93593 -0.0172272 1.24733 27.502
4221035 5.80193 6.80562 7.95857 6.93593 -0.0172272 1.24733 27.502
4221045 5.83647 6.76817 8.02164 6.91731 -0.15669 1.27125 27.5436
4221055 5.83647 6.76817 8.02164 6.91731 -0.15669 1.27125 27.5436
4221065 5.77603 6.712 8.01113 6.91731 -0.143938 1.33518 27.4165
4221078 5.78466 6.77753 8.02164 6.95455 -0.067386 1.31489 27.5384
4221095 5.78466 6.77753 8.02164 6.95455 -0.067386 1.31489 27.5384
4221099 5.75876 6.70264 7.99011 6.97317 -0.0665978 1.3684 27.4247
4221105 5.75013 6.69328 8.0637 6.96386 -0.142595 1.41102 27.471
4221115 5.75013 6.69328 8.0637 6.96386 -0.142595 1.41102 27.471
4221125 5.78466 6.68392 8.11626 7.03834 -0.161704 1.45857 27.6232
4221135 5.78466 6.68392 8.11626 7.03834 -0.161704 1.45857 27.6232
4221145 5.71559 6.69328 8.05318 7.03834 -0.0337824 1.46324 27.5004
