581577 6.54783 8.96703 12.3028 13.1172 1.97488 3.6296 40.9349
581598 6.61739 8.97637 12.2818 13.1172 1.94812 3.58794 40.9928
581609 6.61739 8.97637 12.2818 13.1172 1.94812 3.58794 40.9928
581618 6.55652 8.92033 12.1982 13.0798 1.99084 3.60734 40.7548
581628 6.55652 9.0044 12.24 13.0611 2 3.57551 40.862
581647 6.55652 9.0044 12.24 13.0611 2 3.57551 40.862
581651 6.57391 9.06044 12.24 13.1172 2.05149 3.55788 40.9916
581659 6.6087 8.93901 12.2818 13.0892 1.91699 3.60103 40.9187
581669 6.6087 8.93901 12.2818 13.0892 1.91699 3.60103 40.9187
581679 6.58261 8.98571 12.2191 13.0985 2.00714 3.57676 40.8859
581698 6.57391 8.95769 12.1877 13.0704 2.00205 3.57683 40.7897
581709 6.61739 9.03242 12.2505 13.0704 1.97397 3.54073 40.9707
581728 6.6 9.06978 12.1668 13.1172 2.08786 3.52137 40.9538
581740 6.6 8.97637 12.1668 13.1172 2.03549 3.56371 40.8604
581752 6.6 8.97637 12.1668 13.1172 2.03549 3.56371 40.8604
581760 6.63478 9.01374 12.1772 13.0424 1.98449 3.51292 40.8681
581780 6.55652 8.96703 12.1668 13.0892 2.04324 3.57988 40.7795
581790 6.58261 8.93901 12.24 13.1453 1.99336 3.61687 40.9069
581800 6.58261 8.93901 12.24 13.1453 1.99336 3.61687 40.9069
581810 6.57391 8.95769 12.1877 13.1359 2.03892 3.59514 40.8552
581820 6.56522 8.94835 12.1982 13.1453 2.03776 3.60888 40.857
581830 6.56522 8.94835 12.1982 13.1453 2.03776 3.60888 40.857
581840 6.57391 8.96703 12.2191 13.1079 2.00763 3.59182 40.8679
581850 6.57391 8.96703 12.2191 13.1079 2.00763 3.59182 40.8679
581860 6.55652 8.90165 12.1563 13.1359 2.03971 3.61987 40.7504
581871 6.47826 8.87363 12.24 13.2295 2.07297 3.71776 40.8214
581881 6.47826 8.87363 12.24 13.2295 2.07297 3.71776 40.8214
581891 6.49565 8.85495 12.2086 13.2014 2.05597 3.7019 40.7606
581901 6.48696 8.86429 12.2609 13.2201 2.04284 3.72125 40.8323
581911 6.48696 8.86429 12.2609 13.2201 2.04284 3.72125 40.8323
581922 6.48696 8.86429 12.24 13.3137 2.10918 3.74128 40.9049
581932 6.48696 8.86429 12.24 13.3137 2.10918 3.74128 40.9049
581941 6.41739 8.85495 12.2609 13.2576 2.10476 3.76781 40.7908
581951 6.46087 8.82692 12.24 13.3043 2.10031 3.76782 40.8321
581963 6.46087 8.82692 12.24 13.3043 2.10031 3.76782 40.8321
581971 6.41739 8.81758 12.3237 13.2295 2.02632 3.79456 40.7882
581981 6.45217 8.7989 12.3028 13.3231 2.05924 3.80707 40.8769
581991 6.45217 8.7989 12.3028 13.3231 2.05924 3.80707 40.8769
582001 6.47826 8.81758 12.3446 13.3137 2.01958 3.79539 40.9542
582022 6.3913 8.80824 12.3028 13.3324 2.11008 3.83337 40.8347
582032 6.44348 8.76154 12.3132 13.3792 2.0686 3.84648 40.8974
582042 6.44348 8.76154 12.3132 13.3792 2.0686 3.84648 40.8974
582052 6.4 8.73352 12.2818 13.2763 2.04462 3.84278 40.6916
582065 6.41739 8.7989 12.3342 13.3605 2.08248 3.84189 40.9109
582072 6.41739 8.7989 12.3342 13.3605 2.08248 3.84189 40.9109
582082 6.41739 8.81758 12.3028 13.3137 2.08752 3.81192 40.8514
582092 6.41739 8.81758 12.3028 13.3137 2.08752 3.81192 40.8514
582102 6.45217 8.78956 12.3237 13.3418 2.05066 3.82221 40.9072
582112 6.43478 8.78022 12.3655 13.3605 2.03975 3.85104 40.941
582122 6.43478 8.78022 12.3655 13.3605 2.03975 3.85104 40.941
582132 6.45217 8.88297 12.3237 13.3511 2.10817 3.78189 41.01
582142 6.47826 8.86429 12.2923 13.295 2.06983 3.75451 40.9298
582152 6.47826 8.86429 12.2923 13.295 2.06983 3.75451 40.9298
582162 6.46087 8.88297 12.2295 13.3698 2.17521 3.75723 40.9432
582174 6.46087 8.88297 12.2295 13.3698 2.17521 3.75723 40.9432
582183 6.47826 8.83626 12.2191 13.3137 2.11313 3.75236 40.8473
582192 6.46957 8.82692 12.24 13.3324 2.11027 3.77155 40.8689
582202 6.46957 8.82692 12.24 13.3324 2.11027 3.77155 40.8689
582212 6.49565 8.91099 12.2609 13.3231 2.1209 3.72427 40.9906
582222 6.48696 8.85495 12.24 13.3231 2.10919 3.74814 40.905
582232 6.48696 8.85495 12.24 13.3231 2.10919 3.74814 40.905
582242 6.4087 8.82692 12.24 13.3418 2.15594 3.80211 40.8174
582252 6.4087 8.82692 12.24 13.3418 2.15594 3.80211 40.8174
582262 6.46957 8.80824 12.2086 13.3324 2.12064 3.7715 40.8188
582290 6.45217 8.82692 12.2923 13.3698 2.10807 3.80413 40.9412
582291 6.45217 8.82692 12.2923 13.3698 2.10807 3.80413 40.9412
582293 6.42609 8.92033 12.2086 13.3792 2.23824 3.75287 40.9342
582304 6.44348 8.92033 12.24 13.3231 2.17456 3.7381 40.9269
582314 6.44348 8.87363 12.24 13.3231 2.14848 3.75951 40.8802
582323 6.46087 8.87363 12.2191 13.3605 2.17173 3.75607 40.9141
582333 6.46087 8.87363 12.2191 13.3605 2.17173 3.75607 40.9141
582345 6.3913 8.8456 12.2609 13.3698 2.17973 3.81494 40.8677
582353 6.46087 8.86429 12.1982 13.3605 2.18042 3.7546 40.8838
582373 6.52174 8.87363 12.2191 13.426 2.16785 3.74619 41.0404
582393 6.4087 8.90165 12.24 13.4073 2.23415 3.78571 40.9576
582404 6.4087 8.78956 12.1877 13.4073 2.20652 3.82295 40.7932
582413 6.4087 8.78956 12.1877 13.4073 2.20652 3.82295 40.7932
582423 6.41739 8.88297 12.2086 13.4073 2.23886 3.7817 40.9162
582434 6.41739 8.86429 12.3132 13.3979 2.15378 3.81633 40.9928
582443 6.41739 8.86429 12.3132 13.3979 2.15378 3.81633 40.9928
582454 6.44348 8.87363 12.2505 13.4728 2.22491 3.80338 41.0403
582463 6.44348 8.87363 12.2505 13.4728 2.22491 3.80338 41.0403
582473 6.45217 8.85495 12.1982 13.3792 2.19143 3.76802 40.8845
582486 6.4087 8.8456 12.2818 13.3418 2.13858 3.80499 40.8779
582505 6.3913 8.83626 12.1982 13.3792 2.22155 3.80461 40.8049
582515 6.42609 8.90165 12.24 13.4166 2.22779 3.7803 40.9844
582535 6.46087 8.92033 12.2714 13.3792 2.17348 3.75418 41.0318
582545 6.46087 8.92033 12.2714 13.3792 2.17348 3.75418 41.0318
582555 6.42609 8.86429 12.2191 13.4166 2.22092 3.79171 40.9261
582565 6.3913 8.86429 12.2295 13.3792 2.21626 3.80031 40.8643
582585 6.43478 8.87363 12.1668 13.3043 2.19254 3.73817 40.7795
582595 6.45217 8.86429 12.1458 13.3324 2.20536 3.73644 40.7947
582615 6.49565 8.88297 12.1772 13.3418 2.17119 3.71918 40.8976
582625 6.49565 8.88297 12.1772 13.3418 2.17119 3.71918 40.8976
582636 6.43478 8.93901 12.1354 13.2669 2.22911 3.68912 40.7761
582646 6.45217 8.89231 12.1458 13.3605 2.23666 3.73133 40.8508
582667 6.49565 8.92967 12.1563 13.3605 2.22155 3.69722 40.9421
582676 6.45217 8.87363 12.1877 13.3792 2.20881 3.75657 40.8927
582696 6.44348 8.97637 12.1458 13.3792 2.29958 3.702 40.9449
582707 6.44348 8.97637 12.1668 13.3792 2.28564 3.70777 40.9658
582716 6.46087 8.85495 12.1668 13.3418 2.18563 3.74509 40.8244
582727 6.44348 8.92967 12.24 13.3511 2.1954 3.74155 40.9643
582737 6.44348 8.92967 12.24 13.3511 2.1954 3.74155 40.9643
582748 6.46087 8.89231 12.1249 13.3137 2.21872 3.70863 40.7918
582757 6.41739 8.90165 12.24 13.3605 2.20233 3.7689 40.9195
582768 6.41739 8.90165 12.24 13.3605 2.20233 3.7689 40.9195
582777 6.48696 8.90165 12.1877 13.3418 2.18044 3.7175 40.9181
582787 6.48696 8.90165 12.1877 13.3418 2.18044 3.7175 40.9181
582797 6.46087 8.86429 12.2295 13.3137 2.13342 3.75036 40.8684
582809 6.42609 8.90165 12.2086 13.454 2.26943 3.78196 40.9904
582817 6.42609 8.90165 12.2086 13.454 2.26943 3.78196 40.9904
582827 6.41739 8.78022 12.24 13.3886 2.1502 3.83245 40.8262
582837 6.37391 8.81758 12.24 13.4166 2.2157 3.84294 40.8481
582847 6.37391 8.81758 12.24 13.4166 2.2157 3.84294 40.8481
582857 6.4 8.82692 12.2923 13.426 2.174 3.84344 40.9452
582867 6.4 8.82692 12.2923 13.426 2.174 3.84344 40.9452
582877 6.35652 8.70549 12.2818 13.4634 2.16293 3.92696 40.8073
582889 6.36522 8.70549 12.3551 13.5476 2.15555 3.96549 40.9734
582898 6.36522 8.70549 12.3551 13.5476 2.15555 3.96549 40.9734
582909 6.33913 8.69615 12.3132 13.5289 2.185 3.96558 40.8774
582920 6.37391 8.70549 12.3655 13.557 2.14807 3.9668 41.0019
582928 6.37391 8.70549 12.3655 13.557 2.14807 3.9668 41.0019
582938 6.3913 8.60275 12.3655 13.5289 2.06342 3.99882 40.8885
582950 6.33043 8.60275 12.3446 13.5289 2.11766 4.02152 40.8067
582959 6.33043 8.60275 12.3446 13.585 2.1491 4.0366 40.8628
582969 6.35652 8.63077 12.2818 13.5944 2.19437 3.99707 40.8635
582979 6.35652 8.63077 12.2818 13.5944 2.19437 3.99707 40.8635
582988 6.31304 8.58407 12.4178 13.585 2.1016 4.07302 40.9
582998 6.34783 8.62143 12.376 13.6225 2.14807 4.03825 40.9677
583018 6.3913 8.57473 12.3446 13.585 2.09303 4.02131 40.8957
583039 6.34783 8.62143 12.3342 13.557 2.13924 4.00946 40.8604
583050 6.35652 8.67747 12.4074 13.6037 2.14234 4.01161 41.0451
583062 6.35652 8.67747 12.4074 13.6037 2.14234 4.01161 41.0451
583070 6.37391 8.64011 12.3655 13.585 2.12726 4.00463 40.9646
583081 6.37391 8.62143 12.3655 13.5663 2.10636 4.00828 40.9272
583100 6.3913 8.66813 12.3237 13.4821 2.10157 3.94456 40.8652
583110 6.3913 8.66813 12.3237 13.4821 2.10157 3.94456 40.8652
583122 6.34783 8.61209 12.2714 13.4353 2.10751 3.96399 40.6666
583130 6.35652 8.69615 12.2818 13.454 2.15246 3.92875 40.7886
583143 6.35652 8.69615 12.2818 13.454 2.15246 3.92875 40.7886
583150 6.38261 8.64945 12.3342 13.454 2.07418 3.9525 40.8203
583160 6.37391 8.67747 12.2295 13.5102 2.19668 3.93039 40.7911
583170 6.37391 8.67747 12.2295 13.5102 2.19668 3.93039 40.7911
583180 6.37391 8.72418 12.3132 13.5008 2.16186 3.92889 40.9121
583190 6.37391 8.72418 12.3132 13.5008 2.16186 3.92889 40.9121
583201 6.34783 8.70549 12.3237 13.5195 2.17226 3.95751 40.8966
583210 6.42609 8.72418 12.2609 13.6037 2.21926 3.91848 41.0149
583220 6.42609 8.72418 12.2609 13.6037 2.21926 3.91848 41.0149
583231 6.43478 8.69615 12.3028 13.5102 2.11801 3.91341 40.9439
583242 6.35652 8.69615 12.2818 13.454 2.15246 3.92875 40.7886
583251 6.35652 8.69615 12.2818 13.454 2.15246 3.92875 40.7886
583262 6.43478 8.77088 12.2086 13.4821 2.20655 3.84572 40.8964
583271 6.43478 8.77088 12.2086 13.4821 2.20655 3.84572 40.8964
583282 6.35652 8.68681 12.3028 13.454 2.13331 3.93877 40.8001
583291 6.41739 8.7522 12.2818 13.454 2.14336 3.87465 40.9055
583302 6.41739 8.7522 12.2818 13.454 2.14336 3.87465 40.9055
583311 6.42609 8.78956 12.2191 13.5195 2.2366 3.85417 40.9543
583322 6.42609 8.7989 12.1982 13.454 2.21927 3.82629 40.8772
583331 6.42609 8.7989 12.1982 13.454 2.21927 3.82629 40.8772
583343 6.46957 8.7989 12.1877 13.4353 2.18687 3.7983 40.8915
583351 6.46957 8.7989 12.1877 13.4353 2.18687 3.7983 40.8915
583362 6.4087 8.78956 12.2295 13.3511 2.14722 3.81904 40.7789
583371 6.41739 8.83626 12.1877 13.3231 2.17974 3.77428 40.7644
583383 6.41739 8.83626 12.1877 13.3231 2.17974 3.77428 40.7644
583391 6.46957 8.85495 12.2295 13.3792 2.15903 3.76866 40.9332
583403 6.46957 8.85495 12.2295 13.3792 2.15903 3.76866 40.9332
583411 6.50435 8.81758 12.1877 13.3511 2.12714 3.75063 40.8608
583423 6.53913 8.90165 12.1249 13.295 2.16136 3.66335 40.8607
583441 6.46957 8.87363 12.1563 13.2856 2.16586 3.71413 40.7851
583451 6.53913 8.92033 12.1145 13.3137 2.1892 3.65711 40.8876
583462 6.53913 8.92033 12.1145 13.3137 2.1892 3.65711 40.8876
583471 6.51304 8.97637 12.1249 13.2201 2.17865 3.62034 40.8345
583491 6.50435 8.90165 12.0935 13.2389 2.17401 3.65493 40.7384
583501 6.57391 8.92967 12.1145 13.2669 2.14517 3.624 40.885
583511 6.57391 8.92967 12.1145 13.2669 2.14517 3.624 40.885
583521 6.56522 8.99506 12.0831 13.2201 2.18221 3.5764 40.8635
583531 6.58261 8.99506 12.1458 13.2763 2.1603 3.60165 40.9998
583543 6.58261 8.99506 12.1458 13.2763 2.1603 3.60165 40.9998
583551 6.54783 9.06978 12.0412 13.2108 2.2581 3.53603 40.8696
583570 6.54783 9.06978 12.0412 13.2108 2.2581 3.53603 40.8696
583571 6.57391 9.02308 12.0622 13.2014 2.19554 3.54862 40.8606
583583 6.6087 9.04176 12.0726 13.1734 2.16022 3.51945 40.8964
583592 6.6087 9.04176 12.0726 13.1734 2.16022 3.51945 40.8964
583604 6.62609 9.07912 12.0517 13.1547 2.17298 3.48354 40.9116
583612 6.58261 9.03242 12.0726 13.1827 2.17756 3.53813 40.8704
583624 6.58261 9.03242 12.0726 13.1827 2.17756 3.53813 40.8704
583632 6.61739 9.06978 12.0726 13.1079 2.1335 3.48441 40.8677
583642 6.61739 9.06978 12.0726 13.1079 2.1335 3.48441 40.8677
583654 6.6087 9.03242 11.9889 13.0517 2.14257 3.46576 40.6818
583665 6.6087 9.13517 12.0308 13.0611 2.1775 3.43376 40.8357
583672 6.6087 9.13517 12.0308 13.0611 2.1775 3.43376 40.8357
583682 6.6 9.10714 12.0098 13.0143 2.15535 3.43115 40.7313
583692 6.67826 9.11648 12.0098 12.9582 2.07699 3.37561 40.7628
583703 6.67826 9.11648 12.0098 12.9582 2.07699 3.37561 40.7628
583712 6.66957 9.10714 11.9994 13.005 2.11075 3.39409 40.781
583722 6.66957 9.10714 11.9994 13.005 2.11075 3.39409 40.781
583732 6.65217 9.08846 12.0622 12.9114 2.01744 3.40161 40.7142
583742 6.67826 9.12582 11.9785 12.9769 2.11361 3.36778 40.7594
583752 6.67826 9.12582 11.9785 12.9769 2.11361 3.36778 40.7594
583763 6.72174 9.17253 12.0726 13.0143 2.06954 3.36471 40.9812
583772 6.69565 9.19121 12.0412 12.9395 2.07609 3.33779 40.8676
583785 6.69565 9.19121 12.0412 12.9395 2.07609 3.33779 40.8676
583792 6.73913 9.10714 12.0098 12.9114 2.005 3.33904 40.7675
583802 6.73913 9.10714 12.0098 12.9114 2.005 3.33904 40.7675
583812 6.71304 9.11648 11.9889 12.8459 2.00447 3.32181 40.6644
583825 6.73913 9.19121 12.0831 12.9395 2.01968 3.33024 40.9529
583833 6.73913 9.19121 12.0831 12.9395 2.01968 3.33024 40.9529
583842 6.76522 9.10714 11.9994 12.9301 2.0052 3.32968 40.8018
583852 6.76522 9.10714 11.9994 12.9301 2.0052 3.32968 40.8018
583865 6.71304 9.06044 11.9471 13.005 2.09038 3.38064 40.7255
583872 6.70435 9.06044 12.0517 12.9488 1.99509 3.39838 40.7653
583884 6.70435 9.06044 12.0517 12.9488 1.99509 3.39838 40.7653
583892 6.66957 9.11648 11.9994 12.9862 2.10549 3.38455 40.7717
583905 6.72174 9.13517 12.0726 13.0237 2.05385 3.38412 40.9532
583913 6.72174 9.13517 12.0726 13.0237 2.05385 3.38412 40.9532
583923 6.67826 9.0978 12.0726 13.0424 2.07215 3.42579 40.8911
583946 6.61739 9.01374 12.104 13.0704 2.06025 3.5081 40.8056
583954 6.65217 9.01374 12.0517 13.1266 2.10339 3.49341 40.8442
583966 6.65217 9.01374 12.0517 13.1266 2.10339 3.49341 40.8442
583973 6.61739 9.06044 12.0203 13.1079 2.16304 3.47388 40.806
583986 6.66087 9.06044 12.104 13.1079 2.07865 3.47782 40.9332
583994 6.66087 9.06044 12.104 13.1079 2.07865 3.47782 40.9332
584005 6.66087 9.0978 12.0831 13.0704 2.09247 3.44452 40.9122
584014 6.66087 9.0978 12.0831 13.0704 2.09247 3.44452 40.9122
584025 6.66087 9.0044 12.1145 13.0611 2.01401 3.49294 40.8408
584033 6.6087 9.04176 12.1249 13.1266 2.09936 3.521 40.902
584053 6.64348 9.02308 12.1145 13.1079 2.0623 3.50552 40.8889
584065 6.64348 9.02308 12.0935 13.1079 2.07615 3.49963 40.868
584085 6.63478 9.08846 12.0726 13.1547 2.15853 3.48128 40.9505
584105 6.5913 9.0044 12.0517 13.0892 2.11761 3.51471 40.7365
584115 6.61739 9.03242 12.0726 13.0798 2.09683 3.49342 40.8022
584125 6.61739 9.03242 12.0726 13.0798 2.09683 3.49342 40.8022
584135 6.6087 9.06044 12.0203 13.0798 2.15312 3.46989 40.7692
584145 6.63478 9.07912 11.9785 13.0892 2.17932 3.44042 40.7815
584155 6.63478 9.07912 11.9785 13.0892 2.17932 3.44042 40.7815
584167 6.62609 9.0978 12.0412 13.0985 2.15901 3.45632 40.8636
584175 6.62609 9.0978 12.0412 13.0985 2.15901 3.45632 40.8636
584185 6.64348 9.08846 11.9471 13.1266 2.22058 3.43398 40.8056
584195 6.65217 9.10714 11.9262 13.033 2.18687 3.38907 40.7185
584210 6.65217 9.10714 11.9262 13.033 2.18687 3.38907 40.7185
584216 6.66087 9.16319 11.9994 13.1079 2.2054 3.40199 40.9313
584227 6.66087 9.10714 11.9785 13.0985 2.18284 3.41864 40.845
584236 6.66087 9.10714 11.9785 13.0985 2.18284 3.41864 40.845
584246 6.63478 9.18187 11.968 13.0424 2.21756 3.37781 40.827
584256 6.63478 9.18187 11.968 13.0424 2.21756 3.37781 40.827
584266 6.61739 9.13517 11.968 13.005 2.18213 3.39605 40.7255
584276 6.65217 9.10714 11.8948 12.9675 2.17109 3.36138 40.6216
584286 6.65217 9.10714 11.8948 12.9675 2.17109 3.36138 40.6216
584296 6.67826 9.07912 11.9471 12.9862 2.11352 3.38257 40.6907
584306 6.66957 9.17253 11.9471 13.0517 2.20834 3.36307 40.8409
584326 6.69565 9.06978 11.9575 13.0798 2.14225 3.40856 40.8028
584336 6.69565 9.06978 11.9575 13.0798 2.14225 3.40856 40.8028
584346 6.67826 9.12582 11.9366 13.0611 2.18865 3.37986 40.8018
584356 6.66957 9.14451 11.9994 13.0798 2.17356 3.39852 40.8933
584366 6.66957 9.14451 11.9994 13.0798 2.17356 3.39852 40.8933
584376 6.71304 9.12582 11.968 13.1172 2.17598 3.38909 40.9241
584386 6.71304 9.12582 11.968 13.1172 2.17598 3.38909 40.9241
584396 6.6087 9.0978 11.9471 13.0892 2.22812 3.43487 40.7427
584406 6.65217 9.15385 11.968 13.0424 2.19033 3.38259 40.8164
584416 6.65217 9.15385 11.968 13.0424 2.19033 3.38259 40.8164
584426 6.5913 9.14451 11.9785 13.0237 2.20826 3.41192 40.7379
584436 6.65217 9.20055 11.9471 13.0892 2.25639 3.36895 40.889
584446 6.65217 9.20055 11.9471 13.0892 2.25639 3.36895 40.889
584456 6.64348 9.14451 11.9785 13.1266 2.23091 3.4176 40.893
584466 6.64348 9.14451 11.9785 13.1266 2.23091 3.4176 40.893
584478 6.67826 9.18187 12.0726 13.0892 2.14529 3.40122 41.0219
584486 6.68696 9.17253 11.968 13.0892 2.20371 3.37186 40.9166
584496 6.68696 9.17253 11.968 13.0892 2.20371 3.37186 40.9166
584506 6.63478 9.11648 11.9785 13.0517 2.17928 3.41292 40.7815
584516 6.63478 9.10714 11.9575 13.0611 2.19324 3.41385 40.7606
584526 6.63478 9.10714 11.9575 13.0611 2.19324 3.41385 40.7606
584536 6.66957 9.15385 11.9575 13.0237 2.17525 3.36645 40.8046
584556 6.58261 9.12582 11.9366 12.9582 2.19488 3.3937 40.6032
584567 6.65217 9.18187 11.9575 13.0985 2.24423 3.38298 40.8901
584587 6.67826 9.15385 11.9889 13.0704 2.17473 3.38479 40.8915
584597 6.66087 9.0978 12.0098 13.1266 2.17243 3.43969 40.8951
584607 6.66087 9.0978 12.0098 13.1266 2.17243 3.43969 40.8951
584619 6.69565 9.12582 12.0098 13.0798 2.13886 3.39816 40.9111
584627 6.69565 9.12582 12.0098 13.0798 2.13886 3.39816 40.9111
584637 6.54783 9.08846 12.0098 13.0517 2.20068 3.47388 40.6979
584647 6.68696 9.10714 12.0517 13.0798 2.10644 3.42233 40.9256
584657 6.68696 9.10714 12.0517 13.0798 2.10644 3.42233 40.9256
584667 6.66087 9.07912 12.0412 13.0798 2.11499 3.44376 40.861
584678 6.65217 9.07912 12.0622 13.0517 2.09115 3.44567 40.8452
584698 6.64348 9.08846 12.0098 13.0517 2.1369 3.43056 40.7935
584707 6.64348 9.08846 12.0098 13.0517 2.1369 3.43056 40.7935
584720 6.58261 9.08846 11.9575 13.0892 2.23334 3.45388 40.7178
584727 6.62609 9.0044 12.0517 13.1079 2.10498 3.50419 40.79
584739 6.62609 9.0044 12.0517 13.1079 2.10498 3.50419 40.79
584747 6.5913 9.04176 12.0831 13.0798 2.11245 3.50396 40.7959
584758 6.6087 8.96703 12.0098 13.164 2.15493 3.53309 40.7496
584778 6.6 8.95769 12.0831 13.1827 2.11725 3.5671 40.8235
584791 6.6 8.95769 12.0831 13.1827 2.11725 3.5671 40.8235
584799 6.54783 8.93901 12.1145 13.1827 2.12059 3.60816 40.784
584809 6.58261 8.99506 12.0831 13.2014 2.16019 3.56326 40.8622
584839 6.64348 8.93901 12.1563 13.2856 2.08709 3.60497 41.0244
584840 6.57391 8.91099 12.2086 13.2576 2.06712 3.65605 40.9511
584851 6.57391 8.91099 12.2086 13.2576 2.06712 3.65605 40.9511
584859 6.6087 8.85495 12.2505 13.2482 1.97987 3.67473 40.9623
584869 6.6087 8.85495 12.2505 13.2482 1.97987 3.67473 40.9623
584879 6.54783 8.8456 12.2086 13.2669 2.05295 3.7004 40.869
584888 6.49565 8.82692 12.1877 13.2389 2.07516 3.71933 40.7491
584900 6.49565 8.82692 12.1877 13.2389 2.07516 3.71933 40.7491
584909 6.50435 8.82692 12.1458 13.2576 2.10772 3.70893 40.7347
584919 6.46957 8.78022 12.1982 13.2201 2.04868 3.75055 40.6681
584929 6.46957 8.78022 12.1982 13.2201 2.04868 3.75055 40.6681
584938 6.56522 8.77088 12.1982 13.3043 2.0274 3.73412 40.8386
584948 6.56522 8.77088 12.1982 13.3043 2.0274 3.73412 40.8386
584959 6.46087 8.85495 12.2086 13.2763 2.12113 3.73857 40.8007
584969 6.51304 8.88297 12.2714 13.295 2.07113 3.72428 40.9624
584979 6.51304 8.88297 12.2714 13.295 2.07113 3.72428 40.9624
584989 6.53043 8.88297 12.2295 13.3324 2.10823 3.71512 40.9754
585010 6.51304 8.83626 12.2609 13.3511 2.08332 3.75821 40.9614
585020 6.51304 8.85495 12.2818 13.3231 2.06424 3.74769 40.9729
585030 6.51304 8.85495 12.2818 13.3231 2.06424 3.74769 40.9729
585040 6.50435 8.8456 12.2505 13.2576 2.04878 3.72929 40.858
585050 6.46957 8.78956 12.3551 13.3137 2.00268 3.81512 40.9279
585060 6.46957 8.78956 12.3551 13.3137 2.00268 3.81512 40.9279
585070 6.47826 8.82692 12.2923 13.3324 2.06986 3.78191 40.9299
585080 6.47826 8.82692 12.2923 13.3324 2.06986 3.78191 40.9299
585090 6.53043 8.80824 12.2191 13.2389 2.02075 3.72062 40.7966
585106 6.53913 8.88297 12.2818 13.3418 2.07315 3.72811 41.0457
585120 6.49565 8.83626 12.2818 13.3137 2.06003 3.76164 40.9275
585130 6.47826 8.88297 12.2191 13.2576 2.10784 3.71546 40.8379
585150 6.53043 8.92033 12.2191 13.3043 2.12034 3.68744 40.9742
585160 6.53043 8.92033 12.2191 13.3043 2.12034 3.68744 40.9742
585170 6.52174 8.81758 12.1563 13.2482 2.07869 3.70554 40.7438
585180 6.50435 8.8456 12.1563 13.1921 2.07442 3.68507 40.6983
585200 6.50435 8.93901 12.1668 13.2669 2.16186 3.66599 40.8771
585211 6.50435 8.91099 12.1877 13.2856 2.14276 3.68977 40.8887
585231 6.53043 8.92033 12.1668 13.2856 2.14455 3.6678 40.9032
585241 6.53043 8.92033 12.1668 13.2856 2.14455 3.6678 40.9032
585251 6.52174 8.94835 12.0831 13.3137 2.23729 3.64355 40.8669
585263 6.54783 8.93901 12.1354 13.2389 2.13813 3.62964 40.8611
585271 6.54783 8.93901 12.1354 13.2389 2.13813 3.62964 40.8611
585283 6.51304 8.99506 12.0935 13.2014 2.19953 3.59784 40.8031
585291 6.54783 9.01374 12.0098 13.2014 2.2426 3.55005 40.7728
585302 6.54783 9.01374 12.0098 13.2014 2.2426 3.55005 40.7728
585312 6.56522 9.10714 12.0831 13.2389 2.25501 3.53082 40.9943
585322 6.56522 9.10714 12.0831 13.2389 2.25501 3.53082 40.9943
585332 6.57391 9.03242 12.0412 13.1734 2.19902 3.53064 40.8209
585343 6.61739 9.0044 12.0308 13.2389 2.19795 3.53907 40.8914
585363 6.57391 9.06978 12.0517 13.1827 2.21812 3.51926 40.8781
585372 6.55652 9.04176 12.0935 13.2108 2.20187 3.55945 40.9026
585392 6.6 9.13517 12.0517 13.2108 2.25273 3.4858 40.9976
585402 6.6 9.13517 12.0517 13.2108 2.25273 3.4858 40.9976
585415 6.57391 9.07912 12.0203 13.1359 2.21815 3.49303 40.8093
585422 6.6087 9.11648 12.0517 13.1453 2.20015 3.47189 40.9222
585443 6.5913 9.10714 12.0203 13.1827 2.24824 3.48566 40.9015
585454 6.58261 9.12582 11.9785 13.1827 2.29234 3.46936 40.8696
585463 6.58261 9.12582 11.9785 13.1827 2.29234 3.46936 40.8696
585473 6.57391 9.14451 12.0308 13.1266 2.24241 3.46376 40.8758
585489 6.57391 9.14451 12.0308 13.1266 2.24241 3.46376 40.8758
585494 6.5913 9.12582 11.9471 13.1453 2.28668 3.44598 40.8095
585504 6.62609 9.10714 11.9785 13.1359 2.22689 3.44494 40.8476
585514 6.62609 9.10714 11.9785 13.1359 2.22689 3.44494 40.8476
585525 6.55652 9.0978 11.9471 13.1547 2.29957 3.47705 40.7561
585534 6.56522 9.08846 11.9471 13.1547 2.28854 3.47735 40.7554
585543 6.56522 9.08846 11.9471 13.1547 2.28854 3.47735 40.7554
585554 6.6 9.15385 11.9575 13.1359 2.28427 3.42971 40.8473
585563 6.6 9.15385 11.9575 13.1359 2.28427 3.42971 40.8473
585573 6.58261 9.08846 11.9471 13.2108 2.30814 3.48532 40.8289
585584 6.61739 9.0978 12.0412 13.2014 2.22217 3.48925 40.9579
585594 6.61739 9.0978 12.0412 13.2014 2.22217 3.48925 40.9579
585603 6.62609 9.15385 11.9785 13.1359 2.2529 3.42387 40.8943
585614 6.63478 9.08846 11.968 13.1453 2.22287 3.44913 40.8365
585624 6.63478 9.08846 11.968 13.1453 2.22287 3.44913 40.8365
585634 6.58261 9.10714 11.9889 13.1266 2.2437 3.4649 40.8053
585644 6.58261 9.10714 11.9889 13.1266 2.2437 3.4649 40.8053
585653 6.56522 9.06978 12.0203 13.1359 2.21873 3.50121 40.7912
585664 6.66087 9.0978 11.9889 13.0985 2.17066 3.42582 40.8461
585674 6.66087 9.0978 11.9889 13.0985 2.17066 3.42582 40.8461
585685 6.61739 9.08846 11.9889 13.1172 2.20485 3.45498 40.812
585693 6.5913 9.10714 11.9471 13.0985 2.25019 3.44117 40.744
585714 6.58261 9.06978 12.0203 13.0985 2.18621 3.48276 40.7712
585725 6.58261 9.06978 12.0203 13.0985 2.18621 3.48276 40.7712
585736 6.55652 9.06978 12.0412 13.1172 2.20012 3.50578 40.7848
585745 6.65217 9.06044 12.0726 13.0985 2.09996 3.47027 40.8837
585755 6.65217 9.06044 12.0726 13.0985 2.09996 3.47027 40.8837
585765 6.64348 9.07912 12.0098 13.164 2.19445 3.46653 40.8965
585777 6.62609 9.06978 12.0203 13.1266 2.17295 3.471 40.8428
585785 6.62609 9.06978 12.0203 13.1266 2.17295 3.471 40.8428
585795 6.63478 9.0511 12.0517 13.1172 2.13062 3.48173 40.8548
585805 6.63478 9.0511 12.0517 13.1172 2.13062 3.48173 40.8548
585817 6.61739 9.06044 12.0935 13.0985 2.10915 3.49189 40.8699
585825 6.65217 9.07912 12.0412 13.0985 2.13123 3.45298 40.871
585846 6.62609 9.0511 12.0517 13.0892 2.12068 3.47775 40.818
585857 6.67826 9.03242 11.9785 13.0517 2.10319 3.43126 40.7409
585866 6.67826 9.03242 11.9785 13.0517 2.10319 3.43126 40.7409
585877 6.64348 9.07912 12.0203 13.1172 2.16137 3.45628 40.8601
585886 6.64348 9.07912 12.0203 13.1172 2.16137 3.45628 40.8601
585898 6.63478 9.06978 12.0203 13.0611 2.1305 3.44855 40.786
585906 6.70435 8.99506 12.0517 13.0611 2.02152 3.45977 40.8122
585916 6.70435 8.99506 12.0517 13.0611 2.02152 3.45977 40.8122
585926 6.66087 9.0978 12.0308 13.0704 2.12715 3.42972 40.8599
585939 6.66087 9.0978 12.0308 13.0704 2.12715 3.42972 40.8599
585946 6.70435 9.10714 12.0098 13.0143 2.08596 3.38405 40.8356
585956 6.69565 9.07912 12.0203 13.0143 2.06905 3.40357 40.8094
585966 6.69565 9.07912 12.0203 13.0143 2.06905 3.40357 40.8094
585976 6.65217 9.04176 12.0308 13.005 2.06469 3.44041 40.7297
585986 6.68696 9.13517 11.9889 13.0237 2.13235 3.37598 40.8347
585996 6.68696 9.13517 11.9889 13.0237 2.13235 3.37598 40.8347
586006 6.72174 9.17253 11.9785 13.0143 2.13187 3.33792 40.887
586016 6.72174 9.17253 11.9785 13.0143 2.13187 3.33792 40.887
586026 6.67826 9.0978 11.9785 13.033 2.12939 3.39641 40.7875
586037 6.67826 9.14451 11.968 12.9862 2.1363 3.35905 40.777
586046 6.67826 9.14451 11.968 12.9862 2.1363 3.35905 40.777
586056 6.66957 9.19121 11.9262 12.9582 2.18042 3.32195 40.7451
586066 6.71304 9.23791 11.9575 12.9956 2.17761 3.3012 40.9041
586086 6.73043 9.24725 11.9471 12.9675 2.16255 3.27822 40.8923
586103 6.73043 9.24725 11.9471 12.9675 2.16255 3.27822 40.8923
586112 6.73913 9.19121 11.9052 12.9301 2.13228 3.27665 40.7657
586130 6.73043 9.25659 11.9262 12.8459 2.11358 3.23303 40.7591
586134 6.73043 9.25659 11.9262 12.8459 2.11358 3.23303 40.7591
586137 6.8087 9.24725 11.8529 12.8833 2.12599 3.1919 40.7922
586147 6.78261 9.25659 11.8529 12.7804 2.09077 3.16951 40.6725
586158 6.78261 9.25659 11.8529 12.7804 2.09077 3.16951 40.6725
586167 6.7913 9.22857 11.8215 12.8553 2.13223 3.19077 40.6967
586177 6.7913 9.22857 11.8215 12.8553 2.13223 3.19077 40.6967
586187 6.81739 9.27527 11.8111 12.8833 2.16376 3.1634 40.7871
586197 6.82609 9.32198 11.8215 12.902 2.18757 3.14724 40.8716
586207 6.82609 9.32198 11.8215 12.902 2.18757 3.14724 40.8716
586217 6.84348 9.29396 11.832 12.902 2.15341 3.15499 40.8715
586227 6.84348 9.27527 11.8948 12.8085 2.04884 3.15436 40.822
586237 6.84348 9.27527 11.8948 12.8085 2.04884 3.15436 40.822
586247 6.84348 9.33132 11.8215 12.9114 2.18644 3.13809 40.9077
586257 6.84348 9.33132 11.8215 12.9114 2.18644 3.13809 40.9077
586268 6.78261 9.25659 11.8006 12.8365 2.15722 3.17062 40.6764
586279 6.8 9.25659 11.8425 12.874 2.13873 3.18587 40.773
586288 6.8 9.25659 11.8425 12.874 2.13873 3.18587 40.773
586298 6.83478 9.36868 11.8529 12.8553 2.16089 3.1182 40.9116
586308 6.7913 9.35 11.7797 12.8272 2.21249 3.1163 40.7482
586318 6.7913 9.35 11.7797 12.8272 2.21249 3.1163 40.7482
586329 6.81739 9.35934 11.7378 12.902 2.27 3.11019 40.8166
586339 6.81739 9.35934 11.7378 12.902 2.27 3.11019 40.8166
586348 6.8 9.35 11.7483 12.8833 2.259 3.11965 40.7816
586359 6.82609 9.32198 11.7797 12.8365 2.17883 3.11603 40.7643
586371 6.82609 9.32198 11.7797 12.8365 2.17883 3.11603 40.7643
586378 6.77391 9.40604 11.7588 12.8365 2.27461 3.09576 40.7753
586389 6.77391 9.40604 11.7588 12.8365 2.27461 3.09576 40.7753
586398 6.7913 9.37802 11.7065 12.8459 2.28758 3.08793 40.7217
586409 6.82609 9.44341 11.7378 12.902 2.3109 3.06912 40.9094
586428 6.78261 9.35934 11.7169 12.7991 2.24982 3.08946 40.658
586439 6.8 9.40604 11.6855 12.8272 2.30096 3.06002 40.7188
586458 6.88696 9.47143 11.7065 12.8365 2.27043 3.00159 40.9014
586469 6.88696 9.47143 11.7065 12.8365 2.27043 3.00159 40.9014
586480 6.85217 9.47143 11.6646 12.8365 2.32162 3.00463 40.8248
586490 6.81739 9.46209 11.7065 12.8646 2.32729 3.04461 40.8506
586500 6.81739 9.46209 11.7065 12.8646 2.32729 3.04461 40.8506
586510 6.82609 9.37802 11.7274 12.8833 2.27116 3.08954 40.8148
586520 6.86957 9.49011 11.7169 12.8365 2.28543 3.00409 40.9131
586530 6.86957 9.49011 11.7169 12.8365 2.28543 3.00409 40.9131
586540 6.86957 9.51813 11.6123 12.7617 2.32936 2.9389 40.7617
586550 6.86957 9.51813 11.6123 12.7617 2.32936 2.9389 40.7617
586560 6.81739 9.44341 11.5286 12.7617 2.37915 2.97014 40.5511
586570 6.89565 9.50879 11.6542 12.7149 2.25262 2.93007 40.7735
586590 6.87826 9.53681 11.5809 12.6868 2.31331 2.89533 40.6828
586600 6.90435 9.52747 11.56 12.7056 2.31507 2.88731 40.6974
586610 6.90435 9.52747 11.56 12.7056 2.31507 2.88731 40.6974
586620 6.95652 9.50879 11.5705 12.6494 2.2313 2.85899 40.6852
586641 6.92174 9.52747 11.5705 12.6681 2.2755 2.87164 40.6878
586650 6.91304 9.55549 11.5809 12.7243 2.32123 2.88298 40.7737
586670 6.96522 9.53681 11.5495 12.7056 2.28648 2.85339 40.7571
586680 7 9.54615 11.6855 12.6868 2.16739 2.86896 40.9185
586690 7 9.54615 11.6855 12.6868 2.16739 2.86896 40.9185
586700 6.94783 9.58352 11.6123 12.743 2.30293 2.87036 40.8866
586710 6.94783 9.58352 11.6123 12.743 2.30293 2.87036 40.8866
586722 6.93043 9.54615 11.5495 12.6494 2.28368 2.84779 40.6755
586730 6.95652 9.55549 11.5495 12.6868 2.29228 2.84344 40.7484
586740 6.95652 9.55549 11.5495 12.6868 2.29228 2.84344 40.7484
586768 6.93043 9.51813 11.6228 12.6775 2.23468 2.89028 40.7488
586770 6.91304 9.50879 11.5391 12.612 2.26054 2.85754 40.5729
586772 6.91304 9.50879 11.5391 12.612 2.26054 2.85754 40.5729
586781 6.87826 9.45275 11.5914 12.7336 2.28547 2.94938 40.656
586791 6.87826 9.45275 11.5914 12.7336 2.28547 2.94938 40.656
586802 6.86087 9.49945 11.6542 12.7149 2.27068 2.9495 40.7294
586811 6.87826 9.54615 11.696 12.743 2.27274 2.94196 40.8634
586821 6.87826 9.54615 11.696 12.743 2.27274 2.94196 40.8634
586831 6.91304 9.53681 11.6542 12.7523 2.27746 2.9212 40.8563
586842 6.93913 9.55549 11.6542 12.6588 2.21833 2.87385 40.8076
586851 6.93913 9.55549 11.6542 12.6588 2.21833 2.87385 40.8076
586863 6.93913 9.52747 11.6018 12.7056 2.26373 2.88449 40.774
586871 6.93913 9.52747 11.6018 12.7056 2.26373 2.88449 40.774
586882 6.96522 9.53681 11.5914 12.6868 2.24806 2.86028 40.7803
586891 6.93043 9.58352 11.6228 12.6681 2.26594 2.85883 40.8049
586903 6.93043 9.58352 11.6228 12.6681 2.26594 2.85883 40.8049
586911 6.94783 9.54615 11.5705 12.6681 2.26846 2.852 40.7326
586922 6.88696 9.53681 11.6751 12.6214 2.20783 2.90003 40.7202
586943 6.96522 9.58352 11.6542 12.6401 2.20614 2.84461 40.843
586952 6.96522 9.58352 11.6542 12.6401 2.20614 2.84461 40.843
586962 6.89565 9.54615 11.6228 12.612 2.23699 2.87375 40.6766
586972 6.86087 9.54615 11.6332 12.6307 2.26375 2.89774 40.671
586984 6.86087 9.54615 11.6332 12.6307 2.26375 2.89774 40.671
586992 6.91304 9.49011 11.6228 12.6588 2.22017 2.90468 40.6847
587005 6.87826 9.49945 11.6437 12.6401 2.2242 2.91654 40.6615
587012 6.87826 9.49945 11.6437 12.6401 2.2242 2.91654 40.6615
587023 6.89565 9.52747 11.7274 12.612 2.15666 2.91307 40.7625
587032 6.89565 9.52747 11.7274 12.612 2.15666 2.91307 40.7625
587045 6.84348 9.46209 11.696 12.6588 2.20201 2.96943 40.6603
587052 6.87826 9.42473 11.696 12.6494 2.15254 2.96781 40.6484
587065 6.87826 9.42473 11.696 12.6494 2.15254 2.96781 40.6484
587072 6.86087 9.45275 11.7483 12.7243 2.18692 3.00063 40.7862
587085 6.86087 9.45275 11.7483 12.7243 2.18692 3.00063 40.7862
587092 6.85217 9.38736 11.7588 12.7243 2.14911 3.03646 40.7226
587104 6.83478 9.43407 11.7483 12.7617 2.2148 3.03141 40.7789
587115 6.83478 9.43407 11.7483 12.7617 2.2148 3.03141 40.7789
587124 6.86087 9.35934 11.8006 12.7523 2.11548 3.06553 40.7732
587132 6.83478 9.37802 11.8006 12.7898 2.16428 3.07975 40.8032
587143 6.83478 9.37802 11.8006 12.7898 2.16428 3.07975 40.8032
587152 6.87826 9.35 11.8006 12.8085 2.13016 3.07837 40.8374
587163 6.87826 9.35 11.8006 12.8085 2.13016 3.07837 40.8374
587172 6.81739 9.31264 11.8738 12.874 2.13769 3.16227 40.8778
587184 6.8087 9.32198 11.8738 12.9114 2.16959 3.17281 40.9159
587192 6.8087 9.32198 11.8738 12.9114 2.16959 3.17281 40.9159
587202 6.8087 9.28462 11.8111 12.9114 2.19047 3.17126 40.8158
587212 6.7913 9.22857 11.8948 12.9582 2.1412 3.24167 40.8728
587224 6.7913 9.22857 11.8948 12.9582 2.1412 3.24167 40.8728
587233 6.76522 9.16319 11.9994 12.9769 2.06301 3.31791 40.9047
587244 6.76522 9.16319 11.9994 12.9769 2.06301 3.31791 40.9047
587254 6.72174 9.21923 11.9262 13.005 2.18749 3.29937 40.8721
587264 6.72174 9.12582 11.9889 13.033 2.10927 3.3672 40.8695
587273 6.72174 9.12582 11.9889 13.033 2.10927 3.3672 40.8695
587284 6.61739 9.08846 12.0308 13.0985 2.16652 3.46152 40.8351
587293 6.66087 9.0978 12.0726 13.0424 2.08367 3.43362 40.8737
587304 6.66087 9.0978 12.0726 13.0424 2.08367 3.43362 40.8737
587314 6.68696 9.06044 12.0726 13.0985 2.07692 3.45457 40.9185
587324 6.68696 9.06044 12.0726 13.0985 2.07692 3.45457 40.9185
587335 6.61739 8.97637 12.1145 13.0892 2.04283 3.53326 40.7974
587344 6.61739 8.92033 12.0098 13.1453 2.1124 3.54512 40.6929
587364 6.52174 8.90165 12.0831 13.2295 2.16414 3.64145 40.736
587375 6.49565 8.82692 12.1249 13.295 2.14846 3.7175 40.7425
587390 6.49565 8.82692 12.1249 13.295 2.14846 3.7175 40.7425
587399 6.52174 8.81758 12.1982 13.4073 2.14005 3.76096 40.9447
587407 6.52174 8.81758 12.1982 13.4073 2.14005 3.76096 40.9447
587416 6.50435 8.74286 12.2609 13.4634 2.09962 3.83575 40.9715
587444 6.46087 8.71484 12.3342 13.4728 2.06951 3.89112 40.9826
587447 6.46087 8.71484 12.3342 13.4728 2.06951 3.89112 40.9826
587449 6.41739 8.70549 12.2609 13.4915 2.15206 3.90071 40.8753
587455 6.41739 8.71484 12.2923 13.5289 2.15735 3.91505 40.9534
587469 6.41739 8.71484 12.2923 13.5289 2.15735 3.91505 40.9534
587475 6.4 8.72418 12.3342 13.5382 2.15156 3.93261 40.9966
587495 6.4 8.66813 12.2923 13.5382 2.14804 3.94723 40.8987
587505 6.3913 8.70549 12.2923 13.6225 2.22153 3.95668 41.0116
587515 6.3913 8.70549 12.2923 13.6225 2.22153 3.95668 41.0116
587525 6.33913 8.66813 12.2818 13.6037 2.23199 3.9903 40.8929
587535 6.29565 8.61209 12.4178 13.6505 2.16536 4.08554 40.9761
587546 6.29565 8.61209 12.4178 13.6505 2.16536 4.08554 40.9761
587556 6.26087 8.5467 12.3655 13.6973 2.21285 4.13084 40.8704
587566 6.26087 8.5467 12.3655 13.6973 2.21285 4.13084 40.8704
587577 6.1913 8.50934 12.3655 13.7067 2.24362 4.1835 40.7728
587586 6.23478 8.50934 12.3865 13.8564 2.28393 4.20818 40.9869
587596 6.23478 8.50934 12.3865 13.8564 2.28393 4.20818 40.9869
587606 6.18261 8.44396 12.4492 13.847 2.23538 4.27744 40.9228
587616 6.23478 8.38791 12.4074 13.847 2.19729 4.26829 40.8771
587626 6.23478 8.38791 12.4074 13.847 2.19729 4.26829 40.8771
587636 6.23478 8.43462 12.4597 13.8096 2.1677 4.25021 40.9387
587656 6.23478 8.40659 12.4283 13.8096 2.17291 4.25516 40.8793
587666 6.1913 8.41593 12.4597 13.8096 2.18617 4.27949 40.8765
587676 6.1913 8.41593 12.4597 13.8096 2.18617 4.27949 40.8765
587686 6.24348 8.51868 12.4388 13.7909 2.21221 4.19626 40.9918
587698 6.24348 8.51868 12.4388 13.7909 2.21221 4.19626 40.9918
587707 6.22609 8.49066 12.4806 13.7909 2.18039 4.22856 40.9882
587719 6.24348 8.49066 12.3655 13.7534 2.22448 4.18016 40.8531
587726 6.24348 8.49066 12.3655 13.7534 2.22448 4.18016 40.8531
587738 6.28696 8.51868 12.3865 13.7815 2.21287 4.15963 40.9736
587748 6.21739 8.50934 12.3446 13.7534 2.26625 4.17809 40.8248
587756 6.21739 8.50934 12.3446 13.7534 2.26625 4.17809 40.8248
587766 6.24348 8.51868 12.2818 13.7534 2.29597 4.14479 40.7974
587776 6.24348 8.51868 12.2818 13.7534 2.29597 4.14479 40.7974
587786 6.28696 8.55604 12.3237 13.716 2.23897 4.10811 40.8827
587799 6.27826 8.62143 12.2714 13.7067 2.31082 4.06518 40.8777
587819 6.34783 8.70549 12.2818 13.6131 2.25218 3.97146 40.9483
587826 6.35652 8.76154 12.2609 13.585 2.27585 3.92829 40.964
587839 6.35652 8.76154 12.2609 13.585 2.27585 3.92829 40.964
587846 6.37391 8.74286 12.2609 13.5289 2.2227 3.91369 40.9066
587859 6.37391 8.74286 12.2609 13.5289 2.2227 3.91369 40.9066
587866 6.37391 8.80824 12.1458 13.4447 2.28901 3.82917 40.7727
587878 6.4 8.89231 12.1354 13.4073 2.30451 3.76528 40.835
587887 6.4 8.89231 12.1354 13.4073 2.30451 3.76528 40.835
587898 6.46957 8.85495 12.0517 13.3231 2.2462 3.70409 40.6993
587908 6.46957 8.92967 12.0726 13.3698 2.29994 3.68859 40.8417
587919 6.46957 8.92967 12.0726 13.3698 2.29994 3.68859 40.8417
587927 6.46087 9.0044 12.0935 13.295 2.2917 3.64346 40.8538
587947 6.43478 8.97637 12.0203 13.2856 2.33742 3.6452 40.7171
587957 6.47826 9.02308 12.0308 13.3137 2.34281 3.61474 40.8458
587968 6.47826 9.02308 12.0308 13.3137 2.34281 3.61474 40.8458
587978 6.56522 9.06978 11.9366 13.3418 2.38902 3.53554 40.9134
587988 6.43478 9.0511 11.9262 13.3231 2.463 3.59518 40.7351
588001 6.43478 9.0511 11.9262 13.3231 2.463 3.59518 40.7351
588009 6.52174 9.12582 11.9575 13.3043 2.41441 3.52522 40.9095
588018 6.52174 9.12582 11.9575 13.3043 2.41441 3.52522 40.9095
588028 6.49565 9.04176 11.9366 13.2763 2.38389 3.5615 40.7503
588047 6.53043 9.08846 11.9889 13.3418 2.38761 3.55747 40.9496
588048 6.53043 9.08846 11.9889 13.3418 2.38761 3.55747 40.9496
588059 6.53913 9.06044 11.9471 13.2763 2.35806 3.53617 40.8229
588069 6.47826 9.02308 11.9889 13.3137 2.37085 3.60307 40.804
588080 6.47826 9.02308 11.9889 13.3137 2.37085 3.60307 40.804
588089 6.55652 9.03242 12.0831 13.3231 2.26605 3.59209 40.9951
588100 6.55652 9.03242 12.0831 13.3231 2.26605 3.59209 40.9951
588108 6.48696 9.0044 12.0412 13.3043 2.31442 3.6196 40.8369
588119 6.52174 9.0044 12.1249 13.2669 2.21459 3.61664 40.918
588128 6.52174 9.0044 12.1249 13.2669 2.21459 3.61664 40.918
588140 6.53043 8.99506 12.0935 13.2576 2.21927 3.60559 40.8766
588148 6.54783 8.94835 12.1354 13.2482 2.14859 3.62799 40.8798
588161 6.54783 8.94835 12.1354 13.2482 2.14859 3.62799 40.8798
588169 6.5913 8.94835 12.1458 13.2108 2.09187 3.60069 40.8963
588183 6.5913 8.94835 12.1458 13.2108 2.09187 3.60069 40.8963
588190 6.56522 8.96703 12.104 13.1453 2.1107 3.57406 40.7815
588200 6.55652 8.96703 12.1458 13.1172 2.07292 3.58188 40.7866
588220 6.58261 8.96703 12.1668 13.1921 2.08375 3.59676 40.9085
588230 6.6 8.93901 12.1982 13.2201 2.05153 3.61814 40.9573
588250 6.61739 8.94835 12.2295 13.1453 1.98258 3.5939 40.9406
588270 6.61739 8.93901 12.1354 13.1359 2.03426 3.56924 40.8277
588283 6.66087 8.88297 12.1458 13.0985 1.94588 3.5674 40.7882
588291 6.66087 8.88297 12.1458 13.0985 1.94588 3.5674 40.7882
588302 6.66087 9.0044 12.1982 13.1266 1.99558 3.53481 40.99
588311 6.6087 8.99506 12.1982 13.0143 1.96155 3.53121 40.8162
588323 6.6087 8.99506 12.1982 13.0143 1.96155 3.53121 40.8162
588331 6.66957 9.0044 12.2086 13.0892 1.96195 3.52334 40.9717
588341 6.66957 9.0044 12.2086 13.0892 1.96195 3.52334 40.9717
588351 6.61739 8.95769 12.1354 13.005 1.97092 3.52394 40.7154
588361 6.66087 8.97637 12.2086 13.0517 1.93081 3.52946 40.8976
588371 6.66087 8.97637 12.2086 13.0517 1.93081 3.52946 40.8976
588384 6.71304 8.98571 12.2086 13.0704 1.91232 3.50689 40.9778
588391 6.66957 8.96703 12.2295 13.1079 1.93769 3.55133 40.974
588402 6.66957 8.96703 12.2295 13.1079 1.93769 3.55133 40.974
588411 6.70435 8.93901 12.1249 13.0237 1.92036 3.49526 40.7919
588423 6.70435 8.93901 12.1249 13.0237 1.92036 3.49526 40.7919
588431 6.61739 8.99506 12.104 12.9582 1.9864 3.48487 40.6746
588442 6.67826 8.95769 12.1458 13.033 1.93962 3.50715 40.8148
588451 6.67826 8.95769 12.1458 13.033 1.93962 3.50715 40.8148
588463 6.69565 9.03242 12.1249 13.0517 1.99462 3.46485 40.9047
588482 6.61739 8.94835 12.0622 13.0424 2.03539 3.51809 40.6703
588492 6.64348 8.95769 12.1458 13.0611 1.97844 3.53083 40.8081
588512 6.65217 8.91099 12.1877 13.1172 1.95039 3.57556 40.8681
588522 6.66087 8.96703 12.1563 13.1359 2.00744 3.54263 40.9202
588533 6.66087 8.96703 12.1563 13.1359 2.00744 3.54263 40.9202
588543 6.61739 8.92967 12.1354 13.1359 2.02901 3.57349 40.8184
588552 6.61739 8.92967 12.1877 13.1827 2.02072 3.60116 40.9175
588572 6.66087 8.85495 12.1668 13.1827 1.96379 3.60954 40.8653
588584 6.66087 8.85495 12.1668 13.1827 1.96379 3.60954 40.8653
588594 6.6087 8.90165 12.1249 13.1359 2.02592 3.58728 40.7712
588603 6.56522 8.90165 12.1877 13.1453 2.01841 3.62726 40.7999
588614 6.56522 8.90165 12.1877 13.1453 2.01841 3.62726 40.7999
588623 6.61739 8.94835 12.1772 13.1921 2.04336 3.59236 40.935
588634 6.58261 8.85495 12.1668 13.2108 2.03133 3.65306 40.8151
588644 6.58261 8.85495 12.1668 13.2108 2.03133 3.65306 40.8151
588654 6.55652 8.89231 12.24 13.295 2.06836 3.69152 40.9838
588683 6.52174 8.7989 12.1772 13.2856 2.07533 3.73027 40.7835
588686 6.51304 8.8456 12.2295 13.3231 2.0936 3.73759 40.9112
588693 6.51304 8.8456 12.2295 13.3231 2.0936 3.73759 40.9112
588705 6.46957 8.78956 12.2923 13.3043 2.0389 3.79537 40.8558
588715 6.45217 8.74286 12.2714 13.3979 2.09058 3.84477 40.8643
588725 6.45217 8.74286 12.2714 13.3979 2.09058 3.84477 40.8643
588735 6.47826 8.74286 12.2923 13.3605 2.03845 3.82824 40.8739
588745 6.47826 8.74286 12.2923 13.3605 2.03845 3.82824 40.8739
588755 6.45217 8.68681 12.24 13.4353 2.10096 3.8723 40.8143
588765 6.47826 8.64011 12.2295 13.4915 2.09588 3.89427 40.8394
588775 6.47826 8.64011 12.2295 13.4915 2.09588 3.89427 40.8394
588786 6.41739 8.64011 12.3237 13.4821 2.06857 3.94546 40.8633
588795 6.38261 8.64011 12.3237 13.5102 2.10737 3.96918 40.8566
588807 6.38261 8.64011 12.3237 13.5102 2.10737 3.96918 40.8566
588815 6.42609 8.5467 12.3969 13.5663 2.00924 4.02718 40.936
588835 6.44348 8.5467 12.2923 13.585 2.07741 3.99602 40.8675
588848 6.42609 8.57473 12.2505 13.5289 2.10094 3.96463 40.7802
588855 6.42609 8.57473 12.2505 13.5289 2.10094 3.96463 40.7802
588868 6.47826 8.61209 12.2818 13.6131 2.11361 3.95432 40.9853
588876 6.4 8.60275 12.2086 13.6318 2.21943 3.98023 40.8432
588885 6.4 8.60275 12.2086 13.6318 2.21943 3.98023 40.8432
588895 6.4087 8.60275 12.2191 13.6505 2.2171 3.98406 40.881
588905 6.4087 8.60275 12.2191 13.6505 2.2171 3.98406 40.881
588916 6.3913 8.60275 12.2714 13.557 2.14161 3.98101 40.8224
588925 6.42609 8.63077 12.2295 13.6131 2.19333 3.95571 40.8995
588935 6.42609 8.63077 12.2295 13.6131 2.19333 3.95571 40.8995
588945 6.4 8.66813 12.2923 13.6131 2.18978 3.96742 40.9735
588965 6.42609 8.63077 12.2609 13.5102 2.11493 3.93636 40.828
588976 6.46087 8.72418 12.1982 13.4447 2.14917 3.84215 40.8279
588996 6.41739 8.7522 12.1354 13.4166 2.21998 3.82441 40.7216
589006 6.43478 8.7522 12.1668 13.4073 2.18217 3.82242 40.761
589017 6.43478 8.7522 12.1668 13.4073 2.18217 3.82242 40.761
589026 6.46957 8.78956 12.1354 13.4166 2.20603 3.78311 40.8111
589037 6.43478 8.78022 12.1877 13.4073 2.18391 3.81523 40.81
589058 6.49565 8.78956 12.1982 13.4634 2.17304 3.80116 40.9468
589067 6.49565 8.78956 12.1982 13.4634 2.17304 3.80116 40.9468
589078 6.46957 8.78956 12.1668 13.4447 2.2008 3.79943 40.8706
589087 6.46957 8.81758 12.2505 13.4166 2.14519 3.80178 40.9542
589099 6.46957 8.81758 12.2505 13.4166 2.14519 3.80178 40.9542
589107 6.45217 8.82692 12.2191 13.3792 2.16188 3.78664 40.8774
589118 6.45217 8.82692 12.2191 13.3792 2.16188 3.78664 40.8774
589127 6.49565 8.7522 12.2086 13.3979 2.10861 3.80327 40.8544
589138 6.45217 8.7522 12.1877 13.4634 2.18804 3.83549 40.8555
589147 6.45217 8.7522 12.1877 13.4634 2.18804 3.83549 40.8555
589160 6.47826 8.73352 12.1772 13.4353 2.15151 3.82154 40.8243
589167 6.47826 8.73352 12.24 13.4821 2.13599 3.85146 40.9339
589177 6.47826 8.73352 12.24 13.4821 2.13599 3.85146 40.9339
589187 6.46957 8.72418 12.2505 13.4166 2.09294 3.84476 40.8608
589199 6.46957 8.72418 12.2505 13.4166 2.09294 3.84476 40.8608
589207 6.42609 8.67747 12.2818 13.4447 2.09051 3.90263 40.8301
589219 6.42609 8.7522 12.2609 13.4634 2.1567 3.86749 40.9026
589228 6.42609 8.7522 12.2609 13.4634 2.1567 3.86749 40.9026
589238 6.44348 8.67747 12.1772 13.4353 2.14326 3.86351 40.7335
589247 6.49565 8.74286 12.1772 13.4353 2.14517 3.80922 40.8511
589260 6.49565 8.74286 12.1772 13.4353 2.14517 3.80922 40.8511
589267 6.48696 8.71484 12.2609 13.4353 2.07974 3.84901 40.898
589277 6.48696 8.71484 12.2609 13.4353 2.07974 3.84901 40.898
589287 6.45217 8.7522 12.2295 13.4821 2.17067 3.85202 40.916
589297 6.44348 8.70549 12.2191 13.4634 2.14684 3.86963 40.8315
589321 6.48696 8.78956 12.2295 13.5008 2.17884 3.82394 41.0069
589331 6.47826 8.80824 12.2505 13.4634 2.1603 3.81485 41.0004
589340 6.47826 8.80824 12.2505 13.4634 2.1603 3.81485 41.0004
589348 6.47826 8.65879 12.2714 13.426 2.04186 3.87919 40.8344
589358 6.47826 8.65879 12.2714 13.426 2.04186 3.87919 40.8344
589369 6.44348 8.7522 12.2086 13.4915 2.19556 3.85287 40.8958
589382 6.3913 8.7522 12.2609 13.4353 2.16413 3.87591 40.8398
589389 6.3913 8.7522 12.2609 13.4353 2.16413 3.87591 40.8398
589398 6.46087 8.67747 12.1982 13.454 2.12825 3.86629 40.7905
589408 6.4087 8.70549 12.2714 13.4915 2.15089 3.90757 40.877
589421 6.4087 8.70549 12.2714 13.4915 2.15089 3.90757 40.877
589429 6.47826 8.72418 12.2191 13.4166 2.10799 3.83218 40.8381
589443 6.47826 8.72418 12.2191 13.4166 2.10799 3.83218 40.8381
589449 6.36522 8.76154 12.1877 13.3886 2.20941 3.85088 40.703
589458 6.48696 8.81758 12.2086 13.4447 2.17706 3.79003 40.9578
589469 6.48696 8.81758 12.2086 13.4447 2.17706 3.79003 40.9578
589479 6.44348 8.77088 12.2191 13.3886 2.14154 3.819 40.822
589488 6.43478 8.77088 12.2505 13.4353 2.15263 3.84437 40.8915
589499 6.43478 8.7989 12.2505 13.4353 2.16828 3.83147 40.9195
589508 6.53043 8.80824 12.24 13.426 2.11182 3.77785 41.0047
589521 6.53043 8.80824 12.24 13.426 2.11182 3.77785 41.0047
589528 6.45217 8.77088 12.1982 13.3886 2.14967 3.80926 40.8098
589539 6.48696 8.78956 12.2191 13.3418 2.09692 3.77754 40.8374
589558 6.46087 8.74286 12.2295 13.3511 2.08632 3.81651 40.7844
589570 6.45217 8.67747 12.1877 13.3792 2.09895 3.84698 40.6965
589582 6.45217 8.67747 12.1877 13.3792 2.09895 3.84698 40.6965
589590 6.43478 8.71484 12.2505 13.426 2.11603 3.86768 40.8261
589601 6.43478 8.71484 12.2505 13.426 2.11603 3.86768 40.8261
589610 6.42609 8.72418 12.2714 13.4166 2.1079 3.87054 40.8383
589622 6.36522 8.71484 12.2505 13.426 2.16232 3.89989 40.7565
589630 6.36522 8.71484 12.2505 13.426 2.16232 3.89989 40.7565
589641 6.41739 8.74286 12.3028 13.5008 2.15038 3.89734 40.9638
589651 6.41739 8.74286 12.3028 13.5008 2.15038 3.89734 40.9638
589663 6.38261 8.67747 12.24 13.4821 2.16821 3.92158 40.7822
589670 6.44348 8.73352 12.2714 13.4821 2.13824 3.87602 40.9305
589682 6.44348 8.73352 12.2714 13.4821 2.13824 3.87602 40.9305
589690 6.43478 8.73352 12.2191 13.454 2.16306 3.85815 40.8414
589700 6.4 8.74286 12.2923 13.4821 2.15842 3.89746 40.9173
589720 6.47826 8.74286 12.2923 13.4353 2.08042 3.84866 40.9488
589731 6.4087 8.64011 12.2505 13.4353 2.09667 3.91694 40.7346
589741 6.4087 8.64011 12.2505 13.4353 2.09667 3.91694 40.7346
589752 6.41739 8.7522 12.2086 13.4447 2.18681 3.85215 40.8229
589761 6.41739 8.7522 12.2086 13.4447 2.18681 3.85215 40.8229
589771 6.41739 8.67747 12.2818 13.4634 2.10677 3.91174 40.8401
589781 6.3913 8.76154 12.2505 13.4728 2.19721 3.87894 40.8761
589801 6.4 8.68681 12.2923 13.5102 2.14279 3.93098 40.8893
589812 6.34783 8.65879 12.2818 13.557 2.19491 3.97799 40.8454
589824 6.34783 8.65879 12.2818 13.557 2.19491 3.97799 40.8454
589832 6.3913 8.69615 12.3132 13.5195 2.14512 3.93887 40.9202
589852 6.37391 8.59341 12.3342 13.585 2.12195 4.0179 40.8865
589862 6.36522 8.61209 12.3237 13.585 2.14511 4.01045 40.886
589872 6.36522 8.61209 12.3237 13.585 2.14511 4.01045 40.886
589882 6.36522 8.62143 12.2923 13.5663 2.16073 3.99262 40.8453
589892 6.36522 8.62143 12.2923 13.5663 2.16073 3.99262 40.8453
589902 6.36522 8.63077 12.3342 13.5195 2.11197 3.98695 40.8497
589912 6.36522 8.64011 12.3132 13.5289 2.13633 3.97949 40.8475
589922 6.36522 8.64011 12.3132 13.5289 2.13633 3.97949 40.8475
589932 6.35652 8.67747 12.2714 13.5757 2.21695 3.96751 40.8811
589942 6.42609 8.64945 12.3132 13.5382 2.10642 3.94945 40.927
589952 6.42609 8.64945 12.3132 13.5382 2.10642 3.94945 40.927
589971 6.3913 8.73352 12.2818 13.5476 2.20244 3.9207 40.9543
589973 6.41739 8.70549 12.2609 13.5195 2.16774 3.90833 40.9033
589993 6.42609 8.65879 12.2505 13.4915 2.1271 3.91546 40.8268
590014 6.44348 8.69615 12.2818 13.5757 2.16265 3.92145 40.9972
590023 6.44348 8.72418 12.2609 13.557 2.18171 3.8978 40.9855
590034 6.44348 8.72418 12.2609 13.557 2.18171 3.8978 40.9855
590043 6.47826 8.7989 12.2295 13.4073 2.13763 3.79808 40.914
590055 6.43478 8.7522 12.2295 13.4447 2.16132 3.84983 40.8612
590065 6.43478 8.7522 12.2295 13.4447 2.16132 3.84983 40.8612
590075 6.47826 8.7522 12.2505 13.454 2.12381 3.83806 40.935
590085 6.47826 8.7522 12.2505 13.454 2.12381 3.83806 40.935
590101 6.48696 8.77088 12.2505 13.426 2.1128 3.8178 40.9343
590116 6.45217 8.73352 12.1877 13.3792 2.13045 3.82106 40.7526
590125 6.46957 8.74286 12.1877 13.3043 2.08205 3.78814 40.7045
590135 6.51304 8.78956 12.2086 13.2856 2.05502 3.74722 40.7969
590155 6.47826 8.80824 12.1877 13.3511 2.13925 3.7669 40.8253
590165 6.47826 8.80824 12.1877 13.3511 2.13925 3.7669 40.8253
590175 6.51304 8.78022 12.1877 13.3137 2.07943 3.75348 40.7947
590185 6.48696 8.89231 12.2818 13.295 2.08668 3.73482 40.9561
590196 6.48696 8.89231 12.2818 13.295 2.08668 3.73482 40.9561
590205 6.49565 8.89231 12.1563 13.295 2.16418 3.6962 40.8393
590216 6.53043 8.85495 12.1668 13.2295 2.07645 3.68213 40.7816
590235 6.55652 8.94835 12.1877 13.2669 2.11859 3.64375 40.9595
590246 6.55652 8.94835 12.1877 13.2669 2.11859 3.64375 40.9595
590260 6.54783 8.92033 12.1249 13.2295 2.12938 3.63265 40.8226
590266 6.51304 8.96703 12.0935 13.2295 2.19956 3.61846 40.8031
590276 6.51304 8.96703 12.0935 13.2295 2.19956 3.61846 40.8031
590286 6.5913 9.0044 12.104 13.1734 2.13004 3.55307 40.8731
590296 6.55652 8.95769 12.104 13.2201 2.15319 3.6032 40.8384
590306 6.55652 8.95769 12.104 13.2201 2.15319 3.6032 40.8384
590316 6.61739 9.01374 12.1668 13.2856 2.13906 3.58584 41.0835
590326 6.61739 9.01374 12.1668 13.2856 2.13906 3.58584 41.0835
590336 6.57391 8.93901 12.1249 13.164 2.0858 3.59396 40.8019
590347 6.6 8.96703 12.1249 13.1921 2.09996 3.57718 40.884
590366 6.56522 8.95769 12.1563 13.2014 2.10222 3.60861 40.8806
590386 6.55652 8.98571 12.0203 13.1453 2.18273 3.54601 40.7078
590398 6.55652 9.03242 12.1249 13.1827 2.16014 3.56461 40.8966
590407 6.55652 9.03242 12.1249 13.1827 2.16014 3.56461 40.8966
590417 6.53913 8.93901 12.0622 13.2669 2.20834 3.62103 40.8072
590427 6.54783 9.0044 12.1668 13.1734 2.11724 3.59037 40.8924
590447 6.55652 8.94835 12.2505 13.2014 2.04045 3.643 40.9568
590457 6.53913 8.94835 12.2295 13.2014 2.06576 3.64511 40.9185
590469 6.53913 8.87363 12.2295 13.1921 2.01854 3.67663 40.8344
590477 6.53913 8.91099 12.1772 13.2295 2.0952 3.65543 40.8568
590487 6.53913 8.91099 12.1772 13.2295 2.0952 3.65543 40.8568
590497 6.52174 8.86429 12.1982 13.2576 2.0824 3.69831 40.8417
590508 6.54783 8.92033 12.1458 13.295 2.15212 3.65666 40.909
590517 6.54783 8.92033 12.1458 13.295 2.15212 3.65666 40.909
590529 6.56522 8.93901 12.2505 13.2014 2.02946 3.64329 40.9561
590550 6.51304 8.88297 12.1877 13.2576 2.10559 3.69084 40.8413
590559 6.53913 8.91099 12.2295 13.2295 2.06055 3.66993 40.9092
590578 6.46957 8.81758 12.24 13.4166 2.15212 3.79892 40.9438
590591 6.50435 8.87363 12.3342 13.4073 2.09292 3.78049 41.1194
590611 6.50435 8.87363 12.3342 13.4073 2.09292 3.78049 41.1194
590619 6.46087 8.7989 12.2714 13.3698 2.10049 3.80729 40.901
590629 6.46087 8.7989 12.2714 13.3698 2.10049 3.80729 40.901
590638 6.43478 8.78956 12.2818 13.3886 2.11609 3.83156 40.8947
590648 6.43478 8.78956 12.2818 13.3886 2.11609 3.83156 40.8947
590659 6.46087 8.78956 12.2714 13.4073 2.11621 3.82182 40.9291
590673 6.42609 8.77088 12.2818 13.3511 2.09042 3.83395 40.8299
590679 6.42609 8.77088 12.2818 13.3511 2.09042 3.83395 40.8299
590688 6.45217 8.71484 12.1877 13.3605 2.10944 3.82455 40.7152
590698 6.45217 8.71484 12.1877 13.3605 2.10944 3.82455 40.7152
590709 6.43478 8.68681 12.1668 13.3231 2.09813 3.82955 40.6114
590718 6.46957 8.73352 12.2295 13.3511 2.0753 3.81681 40.7837
590728 6.46957 8.73352 12.2295 13.3511 2.0753 3.81681 40.7837
590738 6.46957 8.72418 12.3551 13.4073 2.0185 3.87071 40.9561
590749 6.45217 8.73352 12.2505 13.3324 2.06243 3.82544 40.7686
590758 6.45217 8.73352 12.2505 13.3324 2.06243 3.82544 40.7686
590768 6.43478 8.70549 12.3132 13.3979 2.05341 3.88145 40.8514
590780 6.43478 8.70549 12.3132 13.3979 2.05341 3.88145 40.8514
590788 6.47826 8.73352 12.1982 13.3511 2.09037 3.80418 40.7611
590800 6.47826 8.77088 12.2505 13.3418 2.07139 3.79876 40.8414
590810 6.47826 8.77088 12.2505 13.3418 2.07139 3.79876 40.8414
590820 6.48696 8.78956 12.2505 13.3137 2.06035 3.77846 40.8407
590830 6.53043 8.85495 12.2818 13.3137 2.04752 3.73717 40.9809
590840 6.53043 8.85495 12.2818 13.3137 2.04752 3.73717 40.9809
590850 6.52174 8.88297 12.1982 13.2482 2.08763 3.68717 40.8511
590860 6.52174 8.88297 12.1982 13.2482 2.08763 3.68717 40.8511
590870 6.53913 8.82692 12.24 13.2763 2.03271 3.72419 40.8823
590881 6.55652 8.85495 12.1249 13.2201 2.08166 3.65595 40.7565
590890 6.55652 8.85495 12.1249 13.2201 2.08166 3.65595 40.7565
590900 6.54783 8.94835 12.1145 13.1921 2.13107 3.60651 40.8027
590910 6.53043 8.90165 12.1772 13.2295 2.09573 3.66367 40.8388
590930 6.55652 8.95769 12.1458 13.2108 2.12016 3.61226 40.8708
590940 6.55652 8.95769 12.1458 13.2108 2.12016 3.61226 40.8708
590950 6.56522 8.97637 12.1145 13.1453 2.10899 3.57274 40.8013
590960 6.58261 8.99506 12.0935 13.1266 2.11132 3.54521 40.7978
590970 6.58261 8.99506 12.0935 13.1266 2.11132 3.54521 40.7978
590980 6.64348 9.0044 12.104 13.1453 2.07973 3.52155 40.8972
590991 6.58261 9.0044 12.104 13.1266 2.10961 3.54391 40.8176
591004 6.58261 9.0044 12.104 13.1266 2.10961 3.54391 40.8176
591011 6.65217 9.0511 12.1249 13.0892 2.05485 3.48659 40.9174
591021 6.65217 9.0511 12.1249 13.0892 2.05485 3.48659 40.9174
591031 6.65217 8.99506 12.0412 13.1266 2.09986 3.49892 40.815
591044 6.5913 9.07912 12.0517 13.0798 2.15427 3.47817 40.8019
591064 6.64348 9.07912 12.1145 13.033 2.05175 3.45909 40.8701
591071 6.64348 9.10714 11.9889 13.0517 2.16129 3.41618 40.7913
591081 6.64348 9.10714 11.9889 13.0517 2.16129 3.41618 40.7913
591094 6.63478 9.06978 12.104 13.0985 2.09591 3.48275 40.9071
591105 6.63478 9.06978 12.104 13.0985 2.09591 3.48275 40.9071
591111 6.71304 9.04176 12.0935 12.9862 1.97223 3.4254 40.8346
591121 6.64348 9.13517 11.9262 13.033 2.20836 3.38035 40.7378
591131 6.64348 9.13517 11.9262 13.033 2.20836 3.38035 40.7378
591141 6.66957 9.08846 12.0726 13.0237 2.06217 3.42862 40.8543
591161 6.64348 9.08846 12.0308 13.033 2.1125 3.43119 40.7957
591172 6.66957 9.04176 12.0622 13.0892 2.07965 3.46526 40.8626
591185 6.66957 9.04176 12.0622 13.0892 2.07965 3.46526 40.8626
591194 6.67826 9.15385 12.0308 13.005 2.11032 3.37807 40.8678
591202 6.66087 9.0511 12.0726 13.0892 2.08372 3.46793 40.8737
591212 6.66087 9.0511 12.0726 13.0892 2.08372 3.46793 40.8737
591222 6.68696 9.08846 12.104 13.0237 2.0299 3.42966 40.9031
591232 6.66957 9.08846 12.0622 13.0237 2.06911 3.42565 40.8438
591248 6.66957 9.08846 12.0622 13.0237 2.06911 3.42565 40.8438
591253 6.67826 9.06978 11.9889 12.9956 2.08567 3.40139 40.7326
591274 6.66087 9.03242 11.9785 12.9675 2.06735 3.41518 40.6393
591284 6.68696 9.01374 12.0098 13.0611 2.07131 3.44734 40.7716
591293 6.68696 9.01374 12.0098 13.0611 2.07131 3.44734 40.7716
591303 6.70435 9.0511 11.968 13.0143 2.08226 3.39741 40.7378
591314 6.66957 9.06978 11.9785 12.9582 2.07735 3.39167 40.676
591334 6.67826 9.0978 11.9889 13.0424 2.12767 3.40205 40.8074
591355 6.67826 9.0511 12.0517 13.0704 2.07556 3.44888 40.8515
591365 6.67826 9.12582 12.0203 13.0798 2.14346 3.40895 40.9042
591375 6.67826 9.12582 12.0203 13.0798 2.14346 3.40895 40.9042
591385 6.68696 9.12582 11.968 13.033 2.14627 3.37689 40.8138
591395 6.63478 9.11648 11.968 13.0892 2.20718 3.42058 40.8084
591405 6.63478 9.11648 11.968 13.0892 2.20718 3.42058 40.8084
591415 6.73043 9.13517 11.9994 13.033 2.10179 3.36207 40.898
591425 6.73043 9.13517 11.9994 13.033 2.10179 3.36207 40.898
591435 6.66087 9.0978 11.9366 13.0237 2.1636 3.38968 40.719
591445 6.66087 9.12582 12.0726 13.033 2.09413 3.41834 40.8923
591465 6.66957 9.17253 11.9262 13.0237 2.20661 3.34909 40.7919
591476 6.66087 9.11648 11.968 13.0237 2.15315 3.39019 40.769
591486 6.66087 9.11648 11.968 13.0237 2.15315 3.39019 40.769
591496 6.69565 9.15385 11.9994 13.0517 2.14578 3.37463 40.9006
591506 6.69565 9.15385 11.9994 13.0517 2.14578 3.37463 40.9006
591516 6.66957 9.06978 11.9575 13.0892 2.16486 3.42299 40.786
591526 6.66087 9.11648 11.968 13.0892 2.1898 3.40881 40.8345
591536 6.66087 9.11648 11.968 13.0892 2.1898 3.40881 40.8345
591546 6.69565 9.11648 11.9889 13.1079 2.16321 3.40439 40.9089
591558 6.65217 9.11648 11.9889 13.1079 2.19211 3.42397 40.8654
591578 6.5913 9.0978 11.9575 13.1266 2.25365 3.45632 40.7732
591596 6.65217 9.14451 11.9575 13.1266 2.23905 3.40775 40.8808
591606 6.64348 9.0978 11.9889 13.033 2.14558 3.41509 40.7632
591617 6.64348 9.0978 11.9889 13.033 2.14558 3.41509 40.7632
591627 6.66087 9.11648 11.9471 13.164 2.24547 3.4241 40.8884
591637 6.66087 9.10714 12.0203 13.1266 2.17069 3.43843 40.9149
591647 6.66087 9.10714 12.0203 13.1266 2.17069 3.43843 40.9149
591657 6.64348 9.16319 11.9994 13.1453 2.23779 3.42041 40.9513
591677 6.61739 9.08846 11.968 13.1359 2.22925 3.45435 40.8098
591687 6.66957 9.12582 11.968 13.1359 2.21531 3.41395 40.8993
591697 6.66957 9.12582 11.968 13.1359 2.21531 3.41395 40.8993
591707 6.63478 9.07912 11.9366 13.0985 2.21247 3.43121 40.749
591719 6.61739 9.13517 11.9785 13.1266 2.24309 3.43357 40.8576
591737 6.66087 9.08846 11.9575 13.1359 2.20723 3.43175 40.8428
591749 6.66087 9.08846 11.9575 13.1359 2.20723 3.43175 40.8428
591759 6.64348 9.12582 11.9471 13.1734 2.26746 3.43037 40.8897
591769 6.64348 9.15385 11.968 13.1172 2.23787 3.40778 40.8825
591779 6.64348 9.15385 11.968 13.1172 2.23787 3.40778 40.8825
591789 6.65217 9.14451 11.8948 13.1547 2.29656 3.3979 40.8461
591798 6.64348 9.13517 11.9366 13.0985 2.23796 3.40197 40.8138
591808 6.64348 9.13517 11.9366 13.0985 2.23796 3.40197 40.8138
591820 6.67826 9.12582 11.9575 13.0798 2.18517 3.39114 40.8414
591829 6.67826 9.12582 11.9575 13.0798 2.18517 3.39114 40.8414
591838 6.61739 9.10714 11.9262 13.1172 2.25718 3.42874 40.7679
591851 6.66957 9.11648 11.8948 13.0798 2.22761 3.3814 40.7606
591858 6.66957 9.11648 11.8948 13.0798 2.22761 3.3814 40.7606
591868 6.66957 9.11648 11.9157 13.0611 2.20318 3.38203 40.7628
591887 6.64348 9.13517 11.968 13.0237 2.17521 3.38961 40.7703
591891 6.64348 9.13517 11.968 13.0237 2.17521 3.38961 40.7703
591900 6.68696 9.12582 11.9471 13.1359 2.21767 3.40019 40.8958
591912 6.68696 9.12582 11.9471 13.1359 2.21767 3.40019 40.8958
591920 6.63478 9.06978 11.968 13.0704 2.17058 3.43637 40.743
591932 6.69565 9.11648 11.9785 13.0892 2.15971 3.39611 40.8798
591940 6.69565 9.11648 11.9785 13.0892 2.15971 3.39611 40.8798
591950 6.72174 9.17253 11.9575 13.0517 2.16667 3.34262 40.9035
591960 6.62609 9.12582 11.9471 13.0611 2.21647 3.40637 40.7601
591970 6.62609 9.12582 11.9471 13.0611 2.21647 3.40637 40.7601
591980 6.69565 9.13517 11.9575 13.0424 2.15791 3.36845 40.8307
591990 6.69565 9.13517 11.9575 13.0424 2.15791 3.36845 40.8307
592000 6.66957 9.16319 11.9366 13.0424 2.20487 3.36162 40.8117
592010 6.73913 9.18187 11.9575 13.0237 2.14467 3.32263 40.9022
592020 6.73913 9.18187 11.9575 13.0237 2.14467 3.32263 40.9022
592030 6.70435 9.12582 12.0308 13.005 2.07732 3.37894 40.8659
592050 6.68696 9.13517 11.9889 13.0424 2.14282 3.3813 40.8534
592060 6.61739 9.13517 12.0517 13.0517 2.15257 3.43311 40.856
592070 6.61739 9.13517 12.0517 13.0517 2.15257 3.43311 40.856
592080 6.68696 9.13517 12.0098 13.0517 2.13416 3.38991 40.8837
592090 6.68696 9.0978 11.968 13.0704 2.15153 3.40016 40.8232
592110 6.64348 9.07912 12.0098 13.0798 2.14739 3.44273 40.8122
592121 6.64348 9.07912 12.0098 13.0798 2.14739 3.44273 40.8122
592130 6.57391 9.06978 11.9889 13.1172 2.22343 3.48313 40.7498
592141 6.6 9.0511 12.0622 13.164 2.17294 3.51359 40.8773
592161 6.58261 9.02308 12.0098 13.1547 2.19846 3.51684 40.7702
592171 6.65217 9.0044 12.0412 13.1453 2.11559 3.49996 40.8431
592191 6.5913 8.98571 12.104 13.2108 2.14052 3.57202 40.8918
592203 6.6087 8.95769 12.0726 13.1734 2.11317 3.55759 40.8124
592211 6.6087 8.95769 12.0726 13.1734 2.11317 3.55759 40.8124
592224 6.61739 9.0044 12.1458 13.2389 2.12163 3.57123 41.0065
592231 6.61739 9.0044 12.1458 13.2389 2.12163 3.57123 41.0065
592244 6.57391 8.93901 12.1145 13.1827 2.10325 3.59626 40.8101
592251 6.54783 8.88297 12.1145 13.2014 2.09962 3.63898 40.7467
592265 6.54783 8.88297 12.1145 13.2014 2.09962 3.63898 40.7467
592272 6.52174 8.93901 12.1668 13.2763 2.15554 3.66065 40.9038
592282 6.50435 8.7989 12.1877 13.3231 2.10094 3.75147 40.814
592292 6.50435 8.7989 12.1877 13.3231 2.10094 3.75147 40.814
592302 6.54783 8.83626 12.1145 13.3231 2.14166 3.69416 40.8216
592313 6.54783 8.83626 12.1145 13.3231 2.14166 3.69416 40.8216
592322 6.51304 8.8456 12.1982 13.3324 2.11965 3.73152 40.8892
592332 6.51304 8.85495 12.1563 13.3418 2.15788 3.71828 40.8661
592342 6.51304 8.85495 12.1563 13.3418 2.15788 3.71828 40.8661
592352 6.52174 8.82692 12.2191 13.3231 2.08431 3.73928 40.8908
592362 6.52174 8.82692 12.2191 13.3231 2.08431 3.73928 40.8908
592372 6.51304 8.77088 12.2086 13.3418 2.07607 3.77126 40.8343
592382 6.52174 8.7989 12.2191 13.3605 2.08958 3.76242 40.9002
592402 6.52174 8.82692 12.2295 13.3324 2.08263 3.74473 40.9106
592412 6.53043 8.8456 12.1668 13.3137 2.11845 3.70973 40.8565
592432 6.53913 8.83626 12.1354 13.2856 2.11255 3.69357 40.7964
592452 6.53043 8.8456 12.1249 13.2295 2.09901 3.67479 40.7305
592462 6.54783 8.85495 12.1145 13.2576 2.11542 3.66743 40.7748
592473 6.54783 8.85495 12.1145 13.2576 2.11542 3.66743 40.7748
592482 6.51304 8.86429 12.1354 13.1921 2.09308 3.66669 40.7048
592493 6.52174 8.89231 12.1877 13.2295 2.08932 3.67481 40.8312
592502 6.52174 8.89231 12.1877 13.2295 2.08932 3.67481 40.8312
592512 6.52174 8.93901 12.104 13.2295 2.17112 3.6302 40.7943
592533 6.53913 8.96703 12.1145 13.2108 2.15779 3.60718 40.8314
592542 6.53043 8.96703 12.0622 13.1827 2.18272 3.58868 40.7423
592563 6.5913 8.95769 12.1145 13.1827 2.10218 3.57984 40.8462
592575 6.6 8.99506 12.0517 13.1734 2.1538 3.5387 40.8201
592583 6.6 8.99506 12.0517 13.1734 2.1538 3.5387 40.8201
592595 6.6 9.0511 12.0203 13.1734 2.20601 3.50445 40.8448
592603 6.6 9.0511 12.0203 13.1734 2.20601 3.50445 40.8448
592616 6.6 9.02308 12.0098 13.1734 2.19733 3.51421 40.8063
592624 6.62609 9.06044 12.0935 13.1079 2.10862 3.4906 40.8879
592636 6.62609 9.06044 12.0935 13.1079 2.10862 3.4906 40.8879
592643 6.66957 9.08846 12.0308 13.1079 2.13709 3.4406 40.8967
592653 6.6087 9.0511 11.968 13.0517 2.16702 3.45134 40.6795
592665 6.6087 9.0511 11.968 13.0517 2.16702 3.45134 40.6795
592678 6.63478 9.0511 11.9994 13.0892 2.14969 3.45903 40.7744
592695 6.58261 9.02308 11.9471 13.0985 2.20897 3.48325 40.6513
592705 6.65217 9.07912 12.0517 13.1359 2.14522 3.46649 40.9189
592715 6.65217 9.07912 12.0517 13.1359 2.14522 3.46649 40.9189
592725 6.62609 9.07912 12.0308 13.0892 2.15028 3.45916 40.8251
592735 6.61739 9.08846 12.0726 13.0704 2.12301 3.46541 40.8489
592745 6.61739 9.08846 12.0726 13.0704 2.12301 3.46541 40.8489
592755 6.61739 9.0511 12.0622 13.1547 2.15616 3.50309 40.8853
592765 6.61739 9.0511 12.0622 13.1547 2.15616 3.50309 40.8853
592775 6.58261 8.95769 12.0831 13.1079 2.08678 3.55402 40.7312
592785 6.6 9.0511 12.0935 13.1453 2.14164 3.51715 40.8899
592795 6.6 9.0511 12.0935 13.1453 2.14164 3.51715 40.8899
592805 6.56522 9.03242 12.0412 13.1266 2.17865 3.52143 40.7654
592815 6.61739 9.01374 12.0517 13.1172 2.12125 3.50654 40.8
592825 6.61739 9.01374 12.0517 13.1172 2.12125 3.50654 40.8
592835 6.64348 9.02308 12.104 13.1547 2.09544 3.51572 40.9252
592845 6.64348 9.02308 12.104 13.1547 2.09544 3.51572 40.9252
592855 6.55652 9.04176 12.1145 13.1266 2.14092 3.54172 40.8393
592866 6.58261 8.99506 12.0622 13.1453 2.14269 3.54166 40.7851
592875 6.58261 8.99506 12.0622 13.1453 2.14269 3.54166 40.7851
592888 6.62609 8.97637 12.0412 13.1827 2.13818 3.53502 40.8264
592896 6.56522 8.96703 12.104 13.1734 2.12645 3.58192 40.8096
592908 6.56522 8.96703 12.104 13.1734 2.12645 3.58192 40.8096
592916 6.63478 8.97637 12.0935 13.1547 2.08196 3.53788 40.8593
592929 6.63478 8.97637 12.0935 13.1547 2.08196 3.53788 40.8593
592936 6.6087 8.94835 12.1877 13.2014 2.04744 3.60183 40.9462
592946 6.66087 8.99506 12.1354 13.1827 2.06321 3.53718 40.974
592956 6.66087 8.99506 12.1354 13.1827 2.06321 3.53718 40.974
592966 6.64348 9.01374 12.2191 13.0892 1.97748 3.53384 40.9655
592979 6.62609 8.99506 12.1458 13.0704 2.01627 3.5244 40.8374
592996 6.64348 9.03242 12.0622 13.0424 2.06543 3.46807 40.7804
593017 6.5913 9.0044 12.0412 13.0517 2.10353 3.5012 40.6887
593027 6.64348 9.04176 11.9994 13.033 2.10714 3.44341 40.7176
593037 6.64348 9.04176 11.9994 13.033 2.10714 3.44341 40.7176
593047 6.69565 9.06044 12.0831 13.0424 2.03276 3.43775 40.8815
593057 6.6087 9.03242 12.0726 13.0611 2.0921 3.49208 40.7748
593067 6.6087 9.03242 12.0726 13.0611 2.0921 3.49208 40.7748
593080 6.62609 8.98571 12.0935 13.1547 2.09297 3.53759 40.86
593097 6.5913 9.08846 12.1772 13.1172 2.09714 3.51978 40.9742
593109 6.63478 9.0511 12.1354 13.1079 2.06992 3.50265 40.9291
593128 6.64348 9.0978 12.0098 13.0611 2.14738 3.42899 40.8122
593139 6.61739 9.11648 11.9471 13.0985 2.23797 3.42515 40.7795
593148 6.61739 9.11648 11.9471 13.0985 2.23797 3.42515 40.7795
593168 6.68696 9.12582 11.9994 13.1079 2.16725 3.40706 40.92
593180 6.62609 9.0978 11.8843 13.0704 2.24802 3.40383 40.6786
593190 6.64348 9.13517 12.0098 13.0985 2.18917 3.42274 40.887
593201 6.64348 9.13517 12.0098 13.0985 2.18917 3.42274 40.887
593210 6.64348 9.12582 12.0098 13.0611 2.16306 3.41635 40.8402
593221 6.66957 9.0978 11.9785 13.1172 2.18229 3.42424 40.8631
593230 6.66957 9.0978 11.9785 13.1172 2.18229 3.42424 40.8631
593241 6.66957 9.12582 11.9262 13.0611 2.20142 3.3808 40.7826
593250 6.66957 9.12582 11.9262 13.0611 2.20142 3.3808 40.7826
593261 6.66087 9.11648 11.9575 13.0798 2.19154 3.40318 40.8147
593270 6.62609 9.18187 11.9889 13.0798 2.23028 3.39831 40.8767
593282 6.62609 9.18187 11.9889 13.0798 2.23028 3.39831 40.8767
593290 6.66957 9.17253 11.8948 13.0798 2.25888 3.35616 40.8167
593303 6.66957 9.15385 11.8738 12.9862 2.21016 3.33182 40.6835
593310 6.66957 9.15385 11.8738 12.9862 2.21016 3.33182 40.6835
593320 6.64348 9.19121 11.9889 13.0704 2.21869 3.38362 40.8941
593340 6.63478 9.16319 11.9052 13.033 2.24382 3.36566 40.7362
593350 6.66087 9.16319 11.9262 13.0517 2.22287 3.36522 40.8019
593360 6.66087 9.16319 11.9262 13.0517 2.22287 3.36522 40.8019
593370 6.66087 9.20055 11.9575 13.0985 2.24883 3.37067 40.9175
593390 6.64348 9.13517 11.9575 13.0424 2.19265 3.39196 40.7786
593400 6.66957 9.15385 11.9889 13.1453 2.22221 3.40992 40.9576
593410 6.66957 9.15385 11.9889 13.1453 2.22221 3.40992 40.9576
593420 6.69565 9.15385 11.9052 13.0704 2.21886 3.35315 40.8252
593430 6.70435 9.20989 11.9052 13.0611 2.23909 3.32141 40.8806
593440 6.70435 9.20989 11.9052 13.0611 2.23909 3.32141 40.8806
593450 6.66087 9.20989 11.9262 13.0611 2.25412 3.34689 40.858
593470 6.6087 9.16319 11.9052 13.0892 2.29259 3.39343 40.7663
593481 6.67826 9.20989 11.8948 13.0892 2.27908 3.33814 40.8721
593491 6.67826 9.20989 11.8948 13.0892 2.27908 3.33814 40.8721
593501 6.66957 9.17253 11.9575 13.1266 2.24307 3.38733 40.9262
593511 6.67826 9.19121 11.9157 13.0704 2.24431 3.34716 40.8556
593521 6.67826 9.19121 11.9157 13.0704 2.24431 3.34716 40.8556
593531 6.68696 9.18187 11.9052 13.0517 2.22985 3.33912 40.8258
593541 6.68696 9.18187 11.9052 13.0517 2.22985 3.33912 40.8258
593551 6.63478 9.20055 11.8215 13.005 2.3051 3.31681 40.6618
593561 6.67826 9.20989 11.9157 12.9956 2.21298 3.31737 40.7994
593571 6.67826 9.20989 11.9157 12.9956 2.21298 3.31737 40.7994
593581 6.65217 9.24725 11.8215 13.0704 2.35588 3.30678 40.7914
593593 6.65217 9.17253 11.8634 13.033 2.26541 3.34165 40.7211
593601 6.65217 9.17253 11.8634 13.033 2.26541 3.34165 40.7211
593611 6.65217 9.21923 11.8634 13.0798 2.31748 3.33402 40.8146
593621 6.65217 9.21923 11.8634 13.0798 2.31748 3.33402 40.8146
593631 6.68696 9.20055 11.8948 13.033 2.23681 3.32239 40.8153
593641 6.69565 9.22857 11.8738 13.0424 2.2658 3.30261 40.8404
593652 6.69565 9.22857 11.8738 13.0424 2.2658 3.30261 40.8404
593661 6.68696 9.25659 11.8843 12.9582 2.23331 3.27279 40.786
593672 6.71304 9.21923 11.832 12.9862 2.24563 3.27087 40.7505
593681 6.71304 9.21923 11.832 12.9862 2.24563 3.27087 40.7505
593694 6.74783 9.20055 11.8529 13.0237 2.2189 3.28042 40.825
593701 6.74783 9.20055 11.8529 13.0237 2.2189 3.28042 40.825
593711 6.65217 9.22857 11.8843 13.0143 2.27223 3.31707 40.7794
593721 6.71304 9.22857 11.9052 12.9769 2.19675 3.28504 40.8237
593731 6.71304 9.22857 11.9052 12.9769 2.19675 3.28504 40.8237
593741 6.69565 9.22857 11.8738 12.9956 2.23973 3.28919 40.7937
593751 6.69565 9.28462 11.8529 13.0143 2.29533 3.26347 40.8475
593771 6.66957 9.21923 11.8948 12.9675 2.22229 3.30304 40.7511
593781 6.66957 9.21923 11.8948 12.9675 2.22229 3.30304 40.7511
593799 6.68696 9.20055 11.9157 13.0517 2.23329 3.33372 40.8549
593807 6.71304 9.17253 11.9052 12.9862 2.17064 3.31286 40.777
593818 6.71304 9.17253 11.9052 12.9862 2.17064 3.31286 40.777
593822 6.70435 9.20055 11.8948 12.9675 2.18862 3.29581 40.7672
593832 6.66957 9.20055 11.8634 13.0424 2.27462 3.3239 40.7759
593843 6.66957 9.17253 11.8634 13.0424 2.25899 3.33649 40.7479
593852 6.71304 9.17253 11.9785 13.0517 2.15856 3.35248 40.9158
593862 6.71304 9.17253 11.9785 13.0517 2.15856 3.35248 40.9158
593872 6.70435 9.15385 11.8738 13.033 2.21309 3.32957 40.7651
593882 6.69565 9.17253 11.968 13.0892 2.19792 3.36796 40.9253
593892 6.69565 9.17253 11.968 13.0892 2.19792 3.36796 40.9253
593904 6.67826 9.15385 12.0203 13.1172 2.17997 3.40695 40.9696
593912 6.67826 9.15385 12.0203 13.1172 2.17997 3.40695 40.9696
593924 6.63478 9.12582 11.9575 13.1079 2.22981 3.4187 40.826
593932 6.63478 9.12582 12.0203 13.1079 2.18801 3.43648 40.8888
593943 6.63478 9.12582 12.0203 13.1079 2.18801 3.43648 40.8888
593952 6.58261 9.06044 12.0726 13.1172 2.15662 3.50702 40.8329
593964 6.63478 9.04176 12.0203 13.1547 2.16719 3.48766 40.8515
593973 6.63478 9.04176 12.0203 13.1547 2.16719 3.48766 40.8515
593985 6.61739 9.10714 12.0726 13.2201 2.21692 3.4991 41.0173
593994 6.61739 9.10714 12.0726 13.2201 2.21692 3.4991 41.0173
594005 6.62609 9.0511 11.9575 13.1453 2.21479 3.46701 40.78
594014 6.58261 9.07912 12.0412 13.2295 2.25053 3.52129 40.9325
594033 6.63478 9.01374 12.0726 13.2201 2.15338 3.53344 40.9413
594047 6.5913 9.0511 11.9889 13.1266 2.2066 3.48635 40.7579
594053 6.5913 9.0511 11.9889 13.1266 2.2066 3.48635 40.7579
594064 6.61739 9.06044 12.0098 13.164 2.20138 3.48677 40.8517
594073 6.61739 9.06044 12.0098 13.164 2.20138 3.48677 40.8517
594084 6.56522 8.99506 11.9889 13.1079 2.18214 3.5184 40.6571
594094 6.63478 8.98571 11.9994 13.1734 2.16023 3.51244 40.7932
594104 6.63478 8.98571 11.9994 13.1734 2.16023 3.51244 40.7932
594115 6.62609 9.06044 11.9785 13.1266 2.1956 3.46341 40.7916
594125 6.62609 9.0511 12.0098 13.0985 2.15375 3.46857 40.7855
594135 6.62609 9.0511 12.0098 13.0985 2.15375 3.46857 40.7855
594145 6.62609 9.06978 11.968 13.1079 2.19733 3.45092 40.7717
594155 6.62609 9.06978 11.968 13.1079 2.19733 3.45092 40.7717
594165 6.53913 8.99506 11.968 13.1172 2.21886 3.52702 40.6194
594175 6.63478 9.12582 11.9994 13.164 2.2332 3.44643 40.924
594185 6.63478 9.12582 11.9994 13.164 2.2332 3.44643 40.924
594195 6.65217 9.08846 12.0308 13.1172 2.15387 3.45109 40.8886
594206 6.65217 9.0978 11.9889 13.1547 2.20778 3.44563 40.8936
594215 6.65217 9.0978 11.9889 13.1547 2.20778 3.44563 40.8936
594225 6.68696 9.06044 11.9471 13.0798 2.14976 3.41373 40.7743
594235 6.68696 9.06044 11.9471 13.0798 2.14976 3.41373 40.7743
594245 6.71304 9.07912 11.9994 13.1172 2.12908 3.41899 40.9088
594255 6.66087 9.13517 11.9889 13.1547 2.2228 3.42488 40.9396
594265 6.66087 9.13517 11.9889 13.1547 2.2228 3.42488 40.9396
594275 6.61739 9.11648 11.9471 13.1079 2.24319 3.4278 40.7888
594285 6.67826 9.11648 11.9575 13.0892 2.18518 3.398 40.8414
594295 6.67826 9.11648 11.9575 13.0892 2.18518 3.398 40.8414
594305 6.65217 9.12582 12.0098 13.0237 2.13633 3.4018 40.8115
594316 6.65217 9.12582 12.0098 13.0237 2.13633 3.4018 40.8115
594326 6.61739 9.10714 11.8843 13.0237 2.23289 3.39018 40.6325
594336 6.67826 9.13517 11.8738 13.0611 2.23576 3.35775 40.7484
594346 6.67826 9.13517 11.8738 13.0611 2.23576 3.35775 40.7484
594356 6.64348 9.17253 11.9366 13.0237 2.21704 3.36382 40.7763
594366 6.66957 9.11648 11.9262 13.0424 2.18573 3.37967 40.7546
594386 6.71304 9.20055 11.9575 12.9862 2.15151 3.31526 40.8574
594398 6.71304 9.20055 11.9575 12.9862 2.15151 3.31526 40.8574
594406 6.65217 9.19121 11.832 12.9675 2.26027 3.30543 40.6429
594418 6.69565 9.20989 11.9575 12.9769 2.16307 3.31619 40.84
594426 6.69565 9.20989 11.9575 12.9769 2.16307 3.31619 40.84
594439 6.74783 9.24725 11.8948 13.0143 2.21186 3.26886 40.9042
594446 6.73043 9.23791 11.9262 12.9207 2.14508 3.26296 40.8153
594459 6.73043 9.23791 11.9262 12.9207 2.14508 3.26296 40.8153
594467 6.75652 9.26593 11.8215 12.8927 2.19738 3.20047 40.7367
594480 6.75652 9.26593 11.8215 12.8927 2.19738 3.20047 40.7367
594487 6.73913 9.26593 11.9366 12.874 2.12183 3.23608 40.8156
594500 6.75652 9.31264 11.9262 12.9207 2.16951 3.21796 40.9161
594507 6.75652 9.31264 11.9262 12.9207 2.16951 3.21796 40.9161
594521 6.82609 9.32198 11.832 12.8646 2.15971 3.13941 40.8447
594527 6.75652 9.36868 11.8111 12.874 2.2513 3.14621 40.8102
594547 6.8087 9.34066 11.7692 12.8272 2.20263 3.10967 40.7458
594557 6.8087 9.34066 11.7692 12.8272 2.20263 3.10967 40.7458
594567 6.83478 9.29396 11.8215 12.8553 2.13996 3.14224 40.8055
594577 6.83478 9.37802 11.7692 12.8365 2.21134 3.08425 40.8186
594587 6.83478 9.37802 11.7692 12.8365 2.21134 3.08425 40.8186
594597 6.83478 9.37802 11.8006 12.8178 2.17998 3.08794 40.8313
594607 6.83478 9.35934 11.7274 12.743 2.17644 3.05288 40.6645
594617 6.83478 9.35934 11.7274 12.743 2.17644 3.05288 40.6645
594627 6.84348 9.37802 11.7483 12.743 2.16714 3.04688 40.7128
594649 6.84348 9.3967 11.7902 12.7056 2.12873 3.0399 40.7359
594659 6.89565 9.42473 11.8006 12.6868 2.09231 3.00203 40.8078
594669 6.89565 9.42473 11.8006 12.6868 2.09231 3.00203 40.8078
594679 6.91304 9.38736 11.6646 12.6494 2.12925 2.95965 40.6144
594689 6.89565 9.44341 11.7169 12.7149 2.17419 2.97741 40.7709
594710 6.88696 9.43407 11.7169 12.7149 2.17475 2.98537 40.7529
594720 6.88696 9.43407 11.7169 12.7149 2.17475 2.98537 40.7529
594732 6.89565 9.47143 11.6855 12.7056 2.20557 2.95303 40.7582
594740 6.94783 9.44341 11.7378 12.7523 2.1465 2.97162 40.8814
594760 6.87826 9.43407 11.696 12.7523 2.21546 2.99407 40.7607
594770 6.91304 9.45275 11.7065 12.743 2.19049 2.97082 40.8152
594780 6.91304 9.45275 11.7065 12.743 2.19049 2.97082 40.8152
594790 6.92174 9.40604 11.696 12.7711 2.18125 2.99276 40.7948
594800 6.92174 9.40604 11.696 12.7711 2.18125 2.99276 40.7948
594810 6.88696 9.35934 11.7483 12.743 2.12768 3.03589 40.7376
594820 6.84348 9.36868 11.7902 12.8178 2.17594 3.08518 40.8201
594840 6.86957 9.33132 11.7797 12.874 2.17603 3.10349 40.8545
594851 6.83478 9.25659 11.7797 12.9114 2.17833 3.16302 40.7825
594871 6.72174 9.28462 11.832 12.9956 2.28148 3.24041 40.834
594881 6.72174 9.28462 11.9157 12.9582 2.20483 3.25372 40.8802
594891 6.72174 9.20989 11.9157 12.9582 2.16309 3.28715 40.8055
594901 6.73913 9.19121 11.9575 13.005 2.13943 3.31311 40.8928
594911 6.73913 9.19121 11.9575 13.005 2.13943 3.31311 40.8928
594921 6.78261 9.19121 11.8948 13.0424 2.17314 3.2864 40.911
594931 6.71304 9.19121 11.9157 13.0424 2.20548 3.32353 40.8623
594941 6.71304 9.19121 11.9157 13.0424 2.20548 3.32353 40.8623
594951 6.74783 9.18187 11.832 13.1079 2.26936 3.30692 40.8696
594961 6.74783 9.18187 11.832 13.1079 2.26936 3.30692 40.8696
594971 6.68696 9.12582 11.8843 13.0517 2.21252 3.35835 40.7488
594982 6.75652 9.12582 11.9366 13.0611 2.1366 3.34467 40.8801
594992 6.75652 9.12582 11.9366 13.0611 2.1366 3.34467 40.8801
595002 6.70435 9.16319 11.8425 13.0424 2.24451 3.31906 40.7524
595012 6.71304 9.19121 11.9052 13.0143 2.19678 3.31251 40.8238
595022 6.71304 9.19121 11.9052 13.0143 2.19678 3.31251 40.8238
595032 6.71304 9.22857 11.9262 13.0704 2.23497 3.3178 40.9382
595042 6.71304 9.22857 11.9262 13.0704 2.23497 3.3178 40.9382
595052 6.72174 9.20055 11.8215 13.033 2.26249 3.28579 40.7768
595062 6.67826 9.25659 11.8948 13.1453 2.3361 3.33321 40.9749
595072 6.67826 9.25659 11.8948 13.1453 2.3361 3.33321 40.9749
595088 6.73043 9.21923 11.8111 13.0143 2.26366 3.26513 40.7751
595093 6.72174 9.21923 11.7797 13.1359 2.35809 3.29494 40.8566
595104 6.72174 9.21923 11.7797 13.1359 2.35809 3.29494 40.8566
595124 6.72174 9.20989 11.8425 13.0517 2.26414 3.29298 40.8258
595134 6.70435 9.20055 11.832 13.0611 2.28277 3.30465 40.798
595143 6.77391 9.22857 11.8948 13.0704 2.21536 3.28163 40.9677
595155 6.77391 9.22857 11.8948 13.0704 2.21536 3.28163 40.9677
595163 6.68696 9.22857 11.8006 13.033 2.3154 3.28281 40.7492
595174 6.75652 9.16319 11.8425 12.9956 2.18351 3.2822 40.7578
595183 6.75652 9.16319 11.8425 12.9956 2.18351 3.2822 40.7578
595194 6.74783 9.18187 11.8425 13.0143 2.21023 3.2831 40.7865
595214 6.71304 9.22857 11.7692 13.005 2.30331 3.25398 40.7158
595225 6.73043 9.19121 11.8425 12.9956 2.21659 3.28133 40.7597
595235 6.73043 9.19121 11.8425 12.9956 2.21659 3.28133 40.7597
595245 6.65217 9.23791 11.7588 12.9956 2.35122 3.2714 40.6445
595255 6.69565 9.19121 11.8425 13.0143 2.25029 3.30232 40.7436
595265 6.69565 9.19121 11.8425 13.0143 2.25029 3.30232 40.7436
595275 6.73043 9.25659 11.8215 13.1079 2.32944 3.27829 40.9164
595285 6.73043 9.25659 11.8215 13.1079 2.32944 3.27829 40.9164
595295 6.68696 9.21923 11.7902 13.0611 2.33283 3.29206 40.7574
595305 6.67826 9.20055 11.9157 13.0704 2.24951 3.34296 40.8649
595315 6.67826 9.20055 11.9157 13.0704 2.24951 3.34296 40.8649
595325 6.73913 9.21923 11.8006 13.0143 2.26484 3.25822 40.7733
595336 6.68696 9.23791 11.8634 13.0611 2.2942 3.30468 40.8493
595345 6.68696 9.23791 11.8634 13.0611 2.2942 3.30468 40.8493
595357 6.72174 9.22857 11.9052 13.0611 2.2379 3.30526 40.9166
595365 6.72174 9.22857 11.9052 13.0611 2.2379 3.30526 40.9166
595377 6.67826 9.15385 11.9366 13.0517 2.19908 3.36458 40.8205
595385 6.67826 9.15385 11.9785 13.1079 2.20255 3.39244 40.9184
595398 6.67826 9.15385 11.9785 13.1079 2.20255 3.39244 40.9184
595405 6.69565 9.17253 11.8948 13.0611 2.23103 3.33909 40.824
595415 6.74783 9.20055 11.968 13.0424 2.15284 3.3187 40.9588
595425 6.74783 9.20055 11.968 13.0424 2.15284 3.3187 40.9588
595435 6.64348 9.18187 11.968 13.0704 2.22742 3.38188 40.8638
595445 6.64348 9.18187 11.968 13.0704 2.22742 3.38188 40.8638
595455 6.67826 9.12582 11.8738 13.0517 2.22532 3.35928 40.7297
595465 6.66957 9.0978 11.9157 13.1172 2.22411 3.40643 40.8003
595475 6.66957 9.0978 11.9157 13.1172 2.22411 3.40643 40.8003
595485 6.67826 9.16319 11.9471 13.0798 2.21299 3.37135 40.8683
595495 6.66957 9.07912 11.9262 13.0517 2.17004 3.39921 40.7266
595505 6.66957 9.07912 11.9262 13.0517 2.17004 3.39921 40.7266
595515 6.66087 9.13517 12.0098 13.1266 2.19327 3.42285 40.9325
595525 6.66087 9.13517 12.0098 13.1266 2.19327 3.42285 40.9325
595535 6.65217 9.06044 11.9889 13.1734 2.19738 3.46778 40.8749
595545 6.66087 9.06044 12.0935 13.2014 2.13785 3.50117 41.0163
595565 6.65217 9.10714 11.968 13.1079 2.20082 3.42225 40.8352
595576 6.65217 9.10714 11.968 13.1079 2.20082 3.42225 40.8352
595586 6.6087 8.99506 12.0098 13.1266 2.14966 3.50981 40.7402
595596 6.58261 9.03242 12.0412 13.2201 2.21933 3.53982 40.8764
595607 6.58261 9.03242 12.0412 13.2201 2.21933 3.53982 40.8764
595616 6.57391 9.0044 12.0203 13.1547 2.18683 3.53223 40.7533
595628 6.58261 9.02308 12.0308 13.164 2.18975 3.52536 40.8005
595636 6.58261 9.02308 12.0308 13.164 2.18975 3.52536 40.8005
595648 6.5913 9.01374 11.9994 13.2295 2.23622 3.53524 40.8339
595656 6.5913 9.01374 11.9994 13.2295 2.23622 3.53524 40.8339
595669 6.6 8.99506 12.0412 13.164 2.15552 3.53313 40.8003
595677 6.6 9.01374 12.1249 13.1359 2.09467 3.54026 40.8746
595686 6.6 9.01374 12.1249 13.1359 2.09467 3.54026 40.8746
595696 6.6 8.99506 12.1249 13.2389 2.14178 3.57751 40.9588
595713 6.56522 8.95769 12.1145 13.1547 2.10376 3.58386 40.792
595720 6.56522 8.95769 12.1145 13.1547 2.10376 3.58386 40.792
595729 6.57391 8.98571 12.1458 13.1453 2.08763 3.57332 40.8508
595736 6.57391 8.98571 12.1458 13.1453 2.08763 3.57332 40.8508
595746 6.57391 9.01374 12.0412 13.1172 2.15715 3.52333 40.7461
595757 6.5913 9.0044 12.104 13.1547 2.11957 3.54783 40.8544
595766 6.5913 9.0044 12.104 13.1547 2.11957 3.54783 40.8544
595778 6.5913 8.93901 12.0622 13.0892 2.07385 3.54742 40.6816
595787 6.6 8.97637 12.104 13.1266 2.08234 3.54874 40.807
595799 6.6 8.97637 12.104 13.1266 2.08234 3.54874 40.807
595807 6.66957 9.03242 12.1249 13.1547 2.06958 3.50557 40.9816
595827 6.55652 8.99506 12.1145 13.164 2.13573 3.57343 40.83
595837 6.66957 8.95769 12.1249 13.1547 2.02769 3.53938 40.9068
595847 6.66957 8.95769 12.1249 13.1547 2.02769 3.53938 40.9068
595857 6.61739 9.06044 12.0935 13.0985 2.10915 3.49189 40.8699
595867 6.6087 8.99506 12.1145 13.0892 2.0591 3.52873 40.8074
595887 6.70435 9.0511 12.1354 13.0985 2.01874 3.46863 40.9893
595899 6.70435 9.0511 12.1354 13.0985 2.01874 3.46863 40.9893
595908 6.61739 9.01374 12.104 13.0517 2.04973 3.50282 40.7869
595919 6.62609 9.0511 12.0831 13.0611 2.0841 3.47869 40.8214
595929 6.62609 9.0511 12.0831 13.0611 2.0841 3.47869 40.8214
595938 6.67826 9.0511 12.1249 13.1079 2.04811 3.48008 40.9622
595949 6.63478 9.0978 12.0935 13.0892 2.11329 3.46452 40.9153
595970 6.61739 9.08846 12.1145 13.0517 2.08476 3.47194 40.872
595991 6.62609 9.01374 12.0726 13.0517 2.06478 3.49002 40.7642
596000 6.64348 9.07912 12.0726 13.0798 2.1057 3.46048 40.875
596012 6.64348 9.07912 12.0726 13.0798 2.1057 3.46048 40.875
596020 6.65217 9.06044 12.0935 13.033 2.04935 3.45769 40.8392
596030 6.68696 9.06978 11.9889 12.9769 2.06936 3.39213 40.7225
596050 6.69565 9.12582 12.0935 12.9769 2.02578 3.39271 40.8919
596060 6.69565 9.12582 12.0935 12.9769 2.02578 3.39271 40.8919
596070 6.65217 9.10714 12.0098 12.9862 2.10485 3.39959 40.7554
596080 6.70435 9.10714 12.0622 13.0611 2.07753 3.41217 40.9347
596090 6.70435 9.10714 12.0622 13.0611 2.07753 3.41217 40.9347
596102 6.66957 9.13517 11.9575 12.9301 2.11229 3.34814 40.6924
596110 6.70435 9.15385 11.9471 12.9488 2.11711 3.32643 40.7541
596120 6.70435 9.15385 11.9471 12.9488 2.11711 3.32643 40.7541
596130 6.72174 9.19121 12.0203 12.9956 2.10412 3.33614 40.9289
596150 6.68696 9.07912 11.9471 13.0143 2.1235 3.38665 40.7275
596161 6.71304 9.16319 11.9994 13.005 2.1133 3.34931 40.8806
596171 6.71304 9.16319 11.9994 13.005 2.1133 3.34931 40.8806
596181 6.72174 9.13517 12.0308 13.005 2.07104 3.36692 40.8926
596191 6.72174 9.12582 12.0098 13.0611 2.1111 3.38112 40.9185
596201 6.72174 9.12582 12.0098 13.0611 2.1111 3.38112 40.9185
596213 6.72174 9.17253 11.9157 13.005 2.16836 3.31731 40.8149
596221 6.72174 9.17253 11.9157 13.005 2.16836 3.31731 40.8149
596231 6.72174 9.14451 11.9366 13.0798 2.1806 3.35723 40.8827
596243 6.66087 9.13517 11.9052 13.0798 2.23686 3.37987 40.7811
596251 6.66087 9.13517 11.9052 13.0798 2.23686 3.37987 40.7811
596264 6.73913 9.15385 11.9575 12.9956 2.11328 3.32718 40.8461
596271 6.66957 9.12582 11.9785 13.0517 2.16135 3.39302 40.8256
596291 6.66957 9.17253 11.9575 12.9956 2.17 3.35004 40.7952
596308 6.66957 9.17253 11.9575 12.9956 2.17 3.35004 40.7952
596312 6.61739 9.15385 12.0098 13.0611 2.19608 3.41548 40.8422
596322 6.67826 9.07912 11.9785 13.0892 2.15037 3.42079 40.825
596333 6.67826 9.07912 11.9785 13.0892 2.15037 3.42079 40.825
596342 6.65217 9.06978 11.8948 13.033 2.18689 3.39701 40.6497
596352 6.66087 9.11648 11.9994 13.0704 2.15846 3.41241 40.8472
596370 6.66087 9.11648 11.9994 13.0704 2.15846 3.41241 40.8472
596372 6.68696 9.11648 11.9262 13.1079 2.21074 3.39048 40.8375
596392 6.64348 9.11648 11.9366 13.0798 2.21709 3.40508 40.7764
596404 6.68696 9.13517 11.9889 13.1827 2.22107 3.42108 40.9938
596414 6.68696 9.13517 11.9889 13.1827 2.22107 3.42108 40.9938
596424 6.66087 9.11648 12.0098 13.1079 2.17241 3.42597 40.8951
596433 6.61739 9.20989 11.9994 13.1359 2.27589 3.40849 40.9626
596443 6.61739 9.20989 11.9994 13.1359 2.27589 3.40849 40.9626
596455 6.71304 9.20989 11.9366 13.1547 2.26439 3.35311 41.0142
596464 6.71304 9.20989 11.9366 13.1547 2.26439 3.35311 41.0142
596473 6.65217 9.14451 11.9575 13.1172 2.23384 3.4051 40.8714
596484 6.69565 9.20055 11.9262 13.1266 2.26216 3.35413 40.9489
596494 6.69565 9.20055 11.9262 13.1266 2.26216 3.35413 40.9489
596504 6.66087 9.16319 11.9052 13.0985 2.26292 3.37259 40.8278
596513 6.69565 9.17253 11.9575 13.1266 2.22571 3.37561 40.9523
596525 6.69565 9.17253 11.9575 13.1266 2.22571 3.37561 40.9523
596535 6.69565 9.17253 11.9157 13.1079 2.24315 3.3584 40.8917
596544 6.69565 9.17253 11.9157 13.1079 2.24315 3.3584 40.8917
596554 6.64348 9.16319 11.8843 13.1172 2.29894 3.37979 40.8082
596564 6.66087 9.17253 11.8634 13.1921 2.34804 3.3831 40.8889
596574 6.66087 9.17253 11.8634 13.1921 2.34804 3.3831 40.8889
596585 6.66087 9.17253 11.832 13.1921 2.36905 3.37417 40.8575
596593 6.58261 9.15385 11.9366 13.1547 2.32028 3.43693 40.8277
596613 6.64348 9.18187 11.9157 13.1453 2.30395 3.38829 40.8863
596635 6.61739 9.0978 11.8948 13.2389 2.34064 3.45852 40.8488
596648 6.6 9.07912 11.9471 13.2389 2.30692 3.48959 40.8651
596655 6.6 9.07912 11.9471 13.2389 2.30692 3.48959 40.8651
596665 6.65217 9.12582 11.8529 13.2389 2.3609 3.41834 40.8698
596675 6.61739 9.04176 11.8948 13.2014 2.28868 3.47331 40.7553
596685 6.61739 9.04176 11.8948 13.2014 2.28868 3.47331 40.7553
596695 6.63478 9.10714 11.8843 13.2295 2.336 3.44085 40.8557
596705 6.63478 9.10714 11.8843 13.2295 2.336 3.44085 40.8557
596715 6.57391 9.07912 11.8738 13.164 2.33183 3.45955 40.6909
596727 6.62609 9.12582 11.8843 13.1827 2.32622 3.42309 40.8189
596735 6.62609 9.12582 11.8843 13.1827 2.32622 3.42309 40.8189
596745 6.6 9.10714 11.9157 13.2201 2.33308 3.46279 40.843
596755 6.56522 9.0511 11.9366 13.2482 2.32682 3.51774 40.8011
596765 6.56522 9.0511 11.9366 13.2482 2.32682 3.51774 40.8011
596776 6.63478 9.06044 11.968 13.2763 2.28015 3.49872 40.9395
596796 6.54783 9.06978 11.9262 13.2108 2.33507 3.50366 40.7545
596805 6.58261 9.08846 11.9366 13.295 2.36185 3.50608 40.9027
596826 6.5913 9.12582 12.0203 13.2389 2.28978 3.49301 40.9763
596838 6.62609 9.06044 11.9366 13.2482 2.2913 3.48593 40.8714
596846 6.62609 9.06044 11.9366 13.2482 2.2913 3.48593 40.8714
596860 6.55652 9.06044 11.9994 13.2482 2.29585 3.53508 40.8646
596866 6.55652 9.06044 11.9994 13.2482 2.29585 3.53508 40.8646
596876 6.52174 8.99506 11.9471 13.2389 2.31255 3.56333 40.7027
596886 6.58261 9.04176 11.9157 13.2389 2.31879 3.50555 40.7789
596896 6.58261 9.04176 11.9157 13.2389 2.31879 3.50555 40.7789
596906 6.53043 9.0511 11.9575 13.1921 2.30487 3.52362 40.7311
596916 6.56522 8.98571 11.968 13.2763 2.28506 3.56415 40.7952
596926 6.56522 8.98571 11.968 13.2763 2.28506 3.56415 40.7952
596936 6.56522 8.97637 12.0098 13.2389 2.23103 3.56964 40.7903
596947 6.56522 8.97637 12.0098 13.2389 2.23103 3.56964 40.7903
596956 6.52174 9.01374 11.968 13.2482 2.31414 3.56331 40.7517
596967 6.57391 9.03242 12.0412 13.3137 2.27714 3.56993 40.9613
596977 6.57391 9.03242 12.0412 13.3137 2.27714 3.56993 40.9613
596992 6.61739 9.01374 12.0098 13.2856 2.24312 3.54208 40.9266
597001 6.56522 9.01374 12.0517 13.2482 2.22917 3.56699 40.8789
597010 6.56522 9.01374 12.0517 13.2482 2.22917 3.56699 40.8789
597017 6.56522 9.0511 12.0203 13.2856 2.29167 3.55172 40.9223
597028 6.56522 9.0511 12.0203 13.2856 2.29167 3.55172 40.9223
597037 6.53913 8.93901 11.9785 13.295 2.27992 3.60549 40.7516
597048 6.53913 8.94835 12.0412 13.2669 2.22751 3.61093 40.7956
597057 6.53913 8.94835 12.0412 13.2669 2.22751 3.61093 40.7956
597069 6.56522 8.92033 12.0622 13.295 2.1962 3.62547 40.8427
597077 6.53913 8.92967 12.104 13.2669 2.17525 3.63695 40.8397
597097 6.53043 8.92967 12.0203 13.3605 2.28901 3.64366 40.8409
597111 6.53043 8.92967 12.0203 13.3605 2.28901 3.64366 40.8409
597119 6.54783 8.92967 12.0935 13.2856 2.18688 3.63527 40.8567
597130 6.53913 8.94835 12.0726 13.3231 2.23788 3.63531 40.8832
597139 6.53913 8.94835 12.0726 13.3231 2.23788 3.63531 40.8832
597152 6.56522 8.89231 12.104 13.295 2.1527 3.64989 40.8565
597158 6.5913 8.90165 12.104 13.2482 2.11442 3.62072 40.8452
597169 6.5913 8.90165 12.104 13.2482 2.11442 3.62072 40.8452
597179 6.56522 9.0044 12.104 13.2763 2.2048 3.59366 40.9499
597189 6.56522 9.0044 12.104 13.2763 2.2048 3.59366 40.9499
597198 6.55652 8.92967 12.0412 13.2201 2.17931 3.59844 40.7476
597209 6.53043 8.95769 12.0831 13.2108 2.17925 3.60664 40.782
597228 6.5913 8.95769 12.0726 13.2482 2.16662 3.58645 40.8698
597240 6.61739 8.96703 12.0622 13.2201 2.14577 3.55957 40.8667
597251 6.61739 8.96703 12.0622 13.2201 2.14577 3.55957 40.8667
597261 6.64348 8.95769 12.1354 13.2201 2.07473 3.57244 40.9567
597283 6.55652 8.99506 12.1354 13.2389 2.16367 3.60017 40.9258
597290 6.6087 8.96703 12.1563 13.1359 2.04192 3.56631 40.868
597310 6.65217 9.0511 12.1145 13.1734 2.10889 3.5073 40.9911
597321 6.66087 9.02308 12.0935 13.0611 2.03837 3.47858 40.8386
597331 6.66087 9.02308 12.0935 13.0611 2.03837 3.47858 40.8386
597341 6.67826 9.12582 12.0517 13.0985 2.1331 3.42313 40.9543
597352 6.67826 9.12582 12.0517 13.0985 2.1331 3.42313 40.9543
597361 6.70435 9.06978 12.0308 13.0611 2.07737 3.4201 40.866
597371 6.71304 9.07912 12.0831 13.005 2.01072 3.41089 40.8802
597381 6.71304 9.07912 12.0831 13.005 2.01072 3.41089 40.8802
597392 6.69565 9.11648 12.0308 12.9862 2.06734 3.38173 40.8291
597401 6.69565 9.11648 12.0203 13.005 2.08478 3.38408 40.8374
597414 6.69565 9.11648 12.0203 13.005 2.08478 3.38408 40.8374
597421 6.66087 9.10714 12.0517 12.9675 2.06077 3.40225 40.7872
597441 6.68696 9.07912 12.0726 12.9207 1.98745 3.39576 40.7594
597457 6.66957 9.06978 12.0831 12.9582 2.00789 3.42144 40.7806
597462 6.66957 9.06978 12.0831 12.9582 2.00789 3.42144 40.7806
597472 6.69565 9.17253 11.9262 12.902 2.12105 3.30251 40.6964
597482 6.70435 9.10714 11.9994 12.9956 2.08239 3.37575 40.8065
597492 6.70435 9.10714 11.9994 12.9956 2.08239 3.37575 40.8065
597502 6.71304 9.12582 12.0098 13.0424 2.1064 3.37972 40.8911
597512 6.71304 9.12582 12.0098 13.0424 2.1064 3.37972 40.8911
597522 6.69565 9.0978 12.0098 12.9956 2.07598 3.38685 40.7989
597532 6.68696 9.08846 11.9889 13.0704 2.13239 3.41031 40.8348
597543 6.68696 9.08846 11.9889 13.0704 2.13239 3.41031 40.8348
597555 6.69565 9.16319 12.0622 13.033 2.09894 3.38294 40.954
597563 6.68696 9.14451 11.9994 13.033 2.13586 3.37741 40.8639
597572 6.68696 9.14451 11.9994 13.033 2.13586 3.37741 40.8639
597583 6.66957 9.17253 12.0831 13.1079 2.14934 3.41756 41.033
597593 6.66957 9.17253 12.0831 13.1079 2.14934 3.41756 41.033
597602 6.67826 9.06978 12.0935 13.0424 2.04259 3.44434 40.884
597612 6.66087 9.0978 12.0935 13.0424 2.06982 3.43954 40.8946
597623 6.66087 9.0978 12.0935 13.0424 2.06982 3.43954 40.8946
597632 6.66087 9.10714 12.0412 13.0517 2.11496 3.42317 40.861
597648 6.62609 9.04176 12.0098 13.0892 2.14328 3.47016 40.7668
597654 6.62609 9.04176 12.0098 13.0892 2.14328 3.47016 40.7668
597664 6.6 9.08846 12.0412 13.0985 2.17114 3.47234 40.8282
597674 6.6 9.08846 12.0412 13.0985 2.17114 3.47234 40.8282
597687 6.63478 9.06044 11.9471 13.0892 2.18979 3.43998 40.7315
597693 6.64348 9.06978 12.0726 13.1547 2.14234 3.48579 40.9405
597707 6.64348 9.06978 12.0726 13.1547 2.14234 3.48579 40.9405
597714 6.65217 9.0511 11.9575 13.0798 2.16073 3.43664 40.7406
597724 6.68696 9.0511 12.1458 13.1172 2.0338 3.48467 41.0011
597734 6.68696 9.08846 12.1458 13.1172 2.05471 3.46784 41.0385
597744 6.6 9.0044 12.104 13.164 2.11903 3.5465 40.8724
597754 6.6 9.0044 12.104 13.164 2.11903 3.5465 40.8724
597764 6.6 9.04176 12.0726 13.2014 2.18166 3.53126 40.9158
597775 6.6087 9.06978 12.0308 13.1453 2.18801 3.4871 40.8545
597783 6.6087 9.06978 12.0308 13.1453 2.18801 3.4871 40.8545
597794 6.6087 9.07912 11.9785 13.164 2.23851 3.4734 40.8303
597804 6.6087 9.07912 11.9785 13.164 2.23851 3.4734 40.8303
597816 6.55652 9.02308 12.0308 13.1921 2.22282 3.5451 40.8024
597823 6.57391 9.04176 12.0308 13.2295 2.2425 3.53922 40.8759
597844 6.56522 9.06044 11.9785 13.2389 2.29881 3.52263 40.843
597854 6.57391 8.97637 12.0412 13.1547 2.15718 3.55086 40.7462
597874 6.54783 9.0511 12.0412 13.2201 2.25291 3.54713 40.8603
597885 6.54783 9.0511 12.0412 13.2201 2.25291 3.54713 40.8603
597893 6.54783 9.01374 11.9994 13.164 2.22869 3.53659 40.725
597905 6.5913 9.0978 11.9575 13.2856 2.34204 3.50117 40.9323
597915 6.5913 9.0978 11.9575 13.2856 2.34204 3.50117 40.9323
597925 6.53913 9.03242 11.9994 13.2856 2.31269 3.56619 40.8566
597935 6.58261 9.02308 11.9471 13.2295 2.28218 3.52024 40.7823
597955 6.56522 9.03242 12.0412 13.2482 2.24654 3.55558 40.8871
597975 6.58261 8.99506 11.9889 13.2482 2.24902 3.54999 40.8148
597985 6.48696 8.94835 11.9471 13.2295 2.30463 3.59794 40.6119
597995 6.48696 8.94835 11.9471 13.2295 2.30463 3.59794 40.6119
598005 6.53043 8.94835 12.0098 13.1547 2.19146 3.57465 40.6433
598015 6.52174 9.01374 12.0203 13.2482 2.27913 3.57797 40.804
598035 6.57391 9.04176 11.9157 13.2014 2.30379 3.49894 40.7328
598046 6.57391 9.04176 11.9157 13.2014 2.30379 3.49894 40.7328
598057 6.53043 9.01374 12.0203 13.2856 2.29414 3.58448 40.8501
598066 6.55652 8.99506 12.0412 13.2482 2.23153 3.5765 40.841
598076 6.55652 8.99506 12.0412 13.2482 2.23153 3.5765 40.841
598087 6.6087 9.0511 12.0098 13.2295 2.23847 3.51336 40.8991
598098 6.56522 9.02308 12.0098 13.2482 2.26227 3.55102 40.8464
598106 6.56522 9.02308 12.0098 13.2482 2.26227 3.55102 40.8464
598116 6.58261 9.03242 12.0412 13.2482 2.23496 3.54769 40.9045
598136 6.55652 9.04176 12.0517 13.2108 2.22973 3.54773 40.8608
598146 6.56522 8.97637 12.0726 13.2576 2.19963 3.59243 40.8718
598156 6.56522 8.97637 12.0726 13.2576 2.19963 3.59243 40.8718
598166 6.58261 9.01374 12.0098 13.2389 2.24026 3.54475 40.845
598176 6.5913 8.99506 11.9994 13.2295 2.2258 3.54372 40.8152
598186 6.5913 8.99506 11.9994 13.2295 2.2258 3.54372 40.8152
598196 6.58261 9.0044 11.9575 13.2014 2.24911 3.52377 40.746
598208 6.58261 9.0044 11.9575 13.2014 2.24911 3.52377 40.746
598218 6.56522 8.98571 12.0098 13.2108 2.22057 3.55752 40.7716
598227 6.61739 8.99506 12.0935 13.2295 2.14583 3.55825 40.9355
598237 6.61739 8.99506 12.0935 13.2295 2.14583 3.55825 40.9355
598247 6.58261 9.06044 12.0203 13.1921 2.23324 3.51336 40.8554
598257 6.58261 9.02308 12.0098 13.1734 2.20892 3.52211 40.7889
598272 6.58261 9.02308 12.0098 13.1734 2.20892 3.52211 40.7889
598281 6.5913 9.02308 12.0203 13.2669 2.24832 3.54736 40.9016
598297 6.61739 8.99506 12.0412 13.2014 2.16489 3.53574 40.8551
598307 6.62609 8.99506 12.0412 13.1734 2.14341 3.52392 40.8357
598327 6.61739 9.0511 12.104 13.2014 2.1545 3.52795 40.9739
598337 6.61739 9.03242 12.0517 13.1827 2.16835 3.51649 40.8842
598347 6.61739 9.03242 12.0517 13.1827 2.16835 3.51649 40.8842
598357 6.61739 9.0044 12.0622 13.2482 2.1823 3.55048 40.9322
598377 6.53043 8.95769 12.0098 13.2201 2.23338 3.58877 40.7181
598388 6.56522 9.02308 12.0308 13.2295 2.23789 3.55165 40.8486
598401 6.56522 9.02308 12.0308 13.2295 2.23789 3.55165 40.8486
598408 6.58261 8.97637 12.0308 13.1827 2.17409 3.55185 40.7725
598419 6.66087 9.04176 11.9994 13.1827 2.17943 3.47788 40.8847
598428 6.66087 9.04176 11.9994 13.1827 2.17943 3.47788 40.8847
598441 6.58261 9.04176 12.0726 13.1547 2.1671 3.52601 40.8516
598449 6.58261 9.04176 12.0726 13.1547 2.1671 3.52601 40.8516
598462 6.56522 9.0044 12.104 13.2014 2.16306 3.57277 40.875
598469 6.63478 9.06978 12.104 13.1547 2.1273 3.49854 40.9632
598478 6.63478 9.06978 12.104 13.1547 2.1273 3.49854 40.9632
598489 6.5913 9.04176 12.1249 13.1827 2.14227 3.54461 40.9407
598498 6.58261 8.98571 12.0935 13.0892 2.08505 3.53895 40.751
598510 6.58261 8.98571 12.0935 13.0892 2.08505 3.53895 40.751
598520 6.64348 9.02308 12.1145 13.0985 2.05705 3.50288 40.8795
598530 6.64348 9.02308 12.1145 13.0985 2.05705 3.50288 40.8795
598540 6.67826 9.02308 11.9994 13.0424 2.07876 3.43878 40.7431
598550 6.64348 9.07912 12.0517 13.0517 2.10386 3.44663 40.826
598572 6.64348 9.01374 11.9785 13.0517 2.11585 3.45548 40.6874
598580 6.6087 9.06044 12.0412 13.0798 2.13919 3.4758 40.7902
598594 6.6087 9.06044 12.0412 13.0798 2.13919 3.4758 40.7902
598600 6.66957 9.11648 12.0831 13.1547 2.14418 3.45593 41.0238
598615 6.66957 9.11648 12.0831 13.1547 2.14418 3.45593 41.0238
598621 6.62609 9.01374 12.0517 13.1079 2.11022 3.49996 40.7994
598631 6.67826 9.06978 12.0517 13.0704 2.08604 3.44044 40.8702
598641 6.67826 9.06978 12.0517 13.0704 2.08604 3.44044 40.8702
598651 6.64348 9.08846 11.968 13.1453 2.21708 3.44521 40.8452
598661 6.62609 9.08846 12.104 13.1172 2.12259 3.48351 40.9358
598681 6.70435 9.12582 12.0308 13.1359 2.15056 3.41607 40.9969
598691 6.70435 9.12582 12.0308 13.1359 2.15056 3.41607 40.9969
598701 6.6087 9.04176 11.9575 13.005 2.14247 3.43931 40.6129
598711 6.63478 9.0511 12.0308 13.0892 2.1288 3.46791 40.8058
598724 6.63478 9.0511 12.0308 13.0892 2.1288 3.46791 40.8058
598731 6.66957 9.04176 12.0517 13.1266 2.10755 3.47287 40.8896
598744 6.56522 8.99506 12.0831 13.1172 2.1246 3.54756 40.7606
598751 6.56522 8.99506 12.0831 13.1172 2.1246 3.54756 40.7606
598761 6.66957 9.02308 12.0308 13.1453 2.12145 3.48069 40.8687
598771 6.66957 9.02308 12.0308 13.1453 2.12145 3.48069 40.8687
598781 6.58261 9.03242 12.0308 13.1453 2.1845 3.51585 40.7911
598791 6.58261 9.03242 12.0622 13.1827 2.18452 3.53519 40.8599
598801 6.58261 9.03242 12.0622 13.1827 2.18452 3.53519 40.8599
598811 6.5913 9.01374 12.0726 13.164 2.15088 3.53741 40.8417
598822 6.5913 8.91099 12.0831 13.1827 2.09682 3.59233 40.7681
598835 6.5913 8.91099 12.0831 13.1827 2.09682 3.59233 40.7681
598842 6.58261 8.98571 12.104 13.1734 2.12536 3.56551 40.8457
598856 6.58261 8.98571 12.104 13.1734 2.12536 3.56551 40.8457
598862 6.54783 8.97637 12.1145 13.2108 2.15723 3.59896 40.8494
598872 6.5913 8.91099 12.1458 13.2482 2.0919 3.62811 40.8964
598882 6.5913 8.91099 12.1458 13.2482 2.0919 3.62811 40.8964
598892 6.57391 8.92033 12.0935 13.2108 2.12242 3.60677 40.7986
598902 6.56522 8.92033 12.0622 13.2763 2.18575 3.62025 40.824
598912 6.56522 8.92033 12.0622 13.2763 2.18575 3.62025 40.824
598929 6.57391 8.97637 12.0622 13.2763 2.21124 3.59077 40.8887
598934 6.57391 8.97637 12.0622 13.2763 2.21124 3.59077 40.8887
598944 6.53913 9.01374 12.1249 13.2669 2.20823 3.60449 40.9447
598954 6.56522 8.91099 12.1145 13.3231 2.17187 3.65207 40.9137
598973 6.53913 8.98571 12.0726 13.2669 2.22742 3.60266 40.8644
598983 6.54783 8.94835 12.0622 13.2295 2.18685 3.60235 40.7878
598994 6.54783 8.94835 12.0622 13.2295 2.18685 3.60235 40.7878
599004 6.5913 8.97637 12.1145 13.2856 2.17015 3.60006 40.9678
599014 6.5913 8.97637 12.1145 13.2856 2.17015 3.60006 40.9678
599024 6.55652 8.92033 12.1458 13.3324 2.16724 3.66306 40.9551
599035 6.56522 8.94835 12.0726 13.3043 2.21009 3.61822 40.8905
599044 6.56522 8.94835 12.0726 13.3043 2.21009 3.61822 40.8905
599055 6.56522 8.92967 12.0726 13.3043 2.19967 3.62673 40.8719
599065 6.53913 8.92033 11.9785 13.295 2.26949 3.61403 40.7329
599085 6.54783 8.97637 12.0308 13.2856 2.25475 3.5965 40.8406
599095 6.54783 8.97637 12.0308 13.2856 2.25475 3.5965 40.8406
599105 6.54783 8.92033 12.0098 13.2763 2.23224 3.6136 40.7543
599115 6.51304 8.91099 12.0308 13.2669 2.23106 3.637 40.7217
599141 6.51304 8.91099 12.0308 13.2856 2.24152 3.64222 40.7404
599145 6.47826 8.94835 12.0412 13.3137 2.29428 3.65177 40.7815
599167 6.52174 9.0511 12.0308 13.3231 2.33445 3.58482 40.9267
599176 6.52174 9.0511 12.0308 13.3231 2.33445 3.58482 40.9267
599190 6.53043 8.95769 12.0517 13.3792 2.29402 3.6448 40.919
599196 6.53913 8.92033 12.0726 13.3511 2.2379 3.65588 40.8832
599206 6.53913 8.92033 12.0726 13.3511 2.2379 3.65588 40.8832
599216 6.50435 9.0044 12.0726 13.3137 2.28703 3.62302 40.8951
599226 6.48696 8.89231 12.0308 13.3418 2.27987 3.67834 40.7518
599238 6.48696 8.89231 12.0308 13.3418 2.27987 3.67834 40.7518
599246 6.57391 8.98571 12.0308 13.3418 2.27377 3.59604 40.9322
599257 6.57391 8.98571 12.0308 13.3418 2.27377 3.59604 40.9322
599266 6.53043 8.88297 12.0517 13.3605 2.24205 3.67372 40.8256
599277 6.51304 8.97637 12.0308 13.3511 2.31439 3.6306 40.8713
599286 6.51304 8.97637 12.0308 13.3511 2.31439 3.6306 40.8713
599298 6.55652 8.98571 11.9785 13.3324 2.31509 3.58674 40.8531
599306 6.51304 8.93901 12.0098 13.2856 2.27115 3.62357 40.7475
599319 6.51304 8.93901 12.0098 13.2856 2.27115 3.62357 40.7475
599326 6.52174 8.98571 12.0098 13.3231 2.31217 3.60873 40.8404
599336 6.52174 8.98571 12.0098 13.3231 2.31217 3.60873 40.8404
599347 6.55652 8.95769 12.0308 13.2576 2.22288 3.5932 40.8026
599356 6.52174 8.96703 12.0726 13.295 2.24424 3.62691 40.8564
599366 6.52174 8.96703 12.0726 13.295 2.24424 3.62691 40.8564
599376 6.53913 8.97637 12.0412 13.3418 2.28479 3.61902 40.8985
599396 6.52174 8.94835 12.0935 13.3511 2.25115 3.65684 40.9148
599406 6.54783 9.01374 12.0726 13.3137 2.26324 3.599 40.9479
599416 6.54783 9.01374 12.0726 13.3137 2.26324 3.599 40.9479
599427 6.52174 8.93901 12.0412 13.3231 2.26521 3.63878 40.825
599436 6.55652 9.0044 12.0308 13.3043 2.27495 3.58502 40.896
599457 6.49565 8.94835 12.0308 13.3137 2.28964 3.64091 40.7885
599471 6.51304 8.92033 12.0517 13.3137 2.24841 3.65159 40.7988
599477 6.51304 8.92033 12.0517 13.3137 2.24841 3.65159 40.7988
599487 6.51304 8.96703 12.1249 13.3511 2.24642 3.66098 40.9561
599497 6.51304 8.96703 12.1249 13.3511 2.24642 3.66098 40.9561
599507 6.53043 8.88297 12.0412 13.3605 2.24904 3.67081 40.8151
599517 6.48696 8.92033 12.0308 13.3698 2.3111 3.6733 40.8079
599537 6.53043 8.93901 12.0517 13.3511 2.26805 3.64552 40.8723
599547 6.53043 8.93901 12.0517 13.3511 2.26805 3.64552 40.8723
599557 6.49565 8.85495 12.0726 13.3511 2.23045 3.70569 40.7743
599579 6.52174 8.86429 12.1668 13.3979 2.1817 3.72838 40.9507
599588 6.50435 8.92967 12.1249 13.3979 2.25744 3.69492 40.9568
599600 6.42609 8.87363 12.0517 13.3792 2.31708 3.73104 40.7306
599609 6.42609 8.87363 12.0517 13.3792 2.31708 3.73104 40.7306
599623 6.52174 8.93901 12.0517 13.3698 2.28425 3.65468 40.8823
599629 6.46957 8.80824 12.0203 13.3137 2.23585 3.71427 40.6118
599638 6.46957 8.80824 12.0203 13.3137 2.23585 3.71427 40.6118
599650 6.44348 8.85495 12.1354 13.3137 2.20245 3.73667 40.7475
599660 6.44348 8.85495 12.1354 13.3137 2.20245 3.73667 40.7475
599670 6.48696 8.82692 12.0935 13.3231 2.19092 3.72058 40.7305
599680 6.50435 8.92033 12.1354 13.3605 2.22448 3.69174 40.9205
599690 6.50435 8.92033 12.1354 13.3605 2.22448 3.69174 40.9205
599700 6.51304 8.89231 12.0831 13.3886 2.25356 3.69387 40.877
599710 6.50435 8.92033 12.1772 13.3605 2.19667 3.70329 40.9624
599720 6.50435 8.92033 12.1772 13.3605 2.19667 3.70329 40.9624
599732 6.49565 8.89231 12.104 13.3324 2.21992 3.69208 40.8244
599753 6.49565 8.86429 12.1458 13.295 2.15546 3.70614 40.8008
599761 6.50435 8.88297 12.0412 13.3418 2.25603 3.67756 40.7703
599770 6.50435 8.88297 12.0412 13.3418 2.25603 3.67756 40.7703
599780 6.53043 8.86429 12.0935 13.3043 2.17237 3.6783 40.7926
599790 6.50435 8.91099 12.1458 13.2482 2.14963 3.6678 40.8094
599800 6.50435 8.91099 12.1458 13.2482 2.14963 3.6678 40.8094
599810 6.53913 8.89231 12.1458 13.3043 2.14747 3.67601 40.8816
599820 6.53913 8.89231 12.1458 13.3043 2.14747 3.67601 40.8816
599830 6.53043 8.92967 12.1249 13.295 2.18279 3.65453 40.88
599840 6.50435 8.86429 12.1772 13.2201 2.08682 3.69011 40.766
599850 6.50435 8.86429 12.1772 13.2201 2.08682 3.69011 40.766
599862 6.50435 8.90165 12.1668 13.2856 2.15144 3.68825 40.8584
599871 6.54783 8.91099 12.1249 13.2389 2.12939 3.63951 40.8226
599883 6.54783 8.91099 12.1249 13.2389 2.12939 3.63951 40.8226
599891 6.56522 8.92033 12.1563 13.2669 2.11796 3.64385 40.9088
599905 6.56522 8.92033 12.1563 13.2669 2.11796 3.64385 40.9088
599911 6.51304 8.94835 12.1458 13.2295 2.15428 3.64155 40.8367
599921 6.54783 8.87363 12.0831 13.2295 2.13104 3.64233 40.734
599931 6.54783 8.87363 12.0831 13.2295 2.13104 3.64233 40.734
599941 6.56522 8.90165 12.1772 13.2482 2.08316 3.65298 40.8923
599961 6.53043 8.8456 12.1563 13.2856 2.10967 3.69907 40.818
599972 6.52174 8.87363 12.1668 13.2763 2.11896 3.69053 40.8384
599981 6.52174 8.87363 12.1668 13.2763 2.11896 3.69053 40.8384
599991 6.47826 8.88297 12.1458 13.295 2.17749 3.70555 40.8021
600001 6.53913 8.8456 12.1982 13.3698 2.12328 3.72988 40.9527
600022 6.51304 8.8456 12.1877 13.3511 2.13705 3.73379 40.8975
600032 6.51304 8.86429 12.2505 13.2763 2.06401 3.72191 40.9041
600042 6.51304 8.86429 12.2505 13.2763 2.06401 3.72191 40.9041
600052 6.51304 8.92967 12.1772 13.3137 2.17004 3.68214 40.9336
600062 6.51304 8.92967 12.1772 13.3137 2.17004 3.68214 40.9336
600073 6.50435 8.90165 12.2086 13.295 2.12889 3.70241 40.9096
600084 6.48696 8.89231 12.24 13.3231 2.13008 3.73103 40.9423
600093 6.48696 8.89231 12.24 13.3231 2.13008 3.73103 40.9423
600105 6.52174 8.85495 12.24 13.2856 2.06519 3.7219 40.9023
600123 6.50435 8.88297 12.2609 13.3137 2.09426 3.73053 40.9619
600134 6.49565 8.85495 12.1772 13.2482 2.10312 3.70616 40.776
600144 6.49565 8.85495 12.1772 13.2482 2.10312 3.70616 40.776
600154 6.50435 8.85495 12.2505 13.1921 2.01719 3.70691 40.8018
600164 6.47826 8.83626 12.1877 13.2295 2.08671 3.72044 40.7317
600185 6.50435 8.83626 12.2714 13.2108 2.00337 3.72643 40.8228
600197 6.44348 8.85495 12.2609 13.295 2.10842 3.76612 40.8543
600205 6.44348 8.85495 12.2609 13.295 2.10842 3.76612 40.8543
600215 6.47826 8.87363 12.2714 13.3231 2.10461 3.75219 40.9463
600225 6.47826 8.87363 12.2714 13.3231 2.10461 3.75219 40.9463
600235 6.44348 8.80824 12.24 13.3792 2.14331 3.80496 40.8709
600245 6.47826 8.91099 12.2609 13.3605 2.15327 3.7425 41.0107
600255 6.47826 8.91099 12.2609 13.3605 2.15327 3.7425 41.0107
600265 6.46957 8.86429 12.2609 13.3324 2.1173 3.76015 40.9272
600276 6.48696 8.76154 12.2714 13.3418 2.04652 3.80479 40.8616
600286 6.48696 8.76154 12.2714 13.3418 2.04652 3.80479 40.8616
600296 6.47826 8.82692 12.2295 13.295 2.09046 3.75438 40.8297
600306 6.47826 8.82692 12.2295 13.295 2.09046 3.75438 40.8297
600316 6.50435 8.83626 12.2609 13.3792 2.10476 3.76988 40.9807
600327 6.48696 8.80824 12.2818 13.3231 2.05531 3.78106 40.9001
600336 6.48696 8.80824 12.2818 13.3231 2.05531 3.78106 40.9001
600349 6.47826 8.80824 12.2923 13.3043 2.04364 3.78279 40.8832
600356 6.44348 8.82692 12.2086 13.3324 2.14845 3.77491 40.8114
600370 6.44348 8.82692 12.2086 13.3324 2.14845 3.77491 40.8114
600376 6.48696 8.87363 12.2505 13.3137 2.10747 3.73988 40.9248
600386 6.48696 8.87363 12.2505 13.3137 2.10747 3.73988 40.9248
600396 6.46087 8.82692 12.2505 13.3418 2.11433 3.78098 40.88
600407 6.42609 8.8456 12.2505 13.3231 2.13741 3.78325 40.8452
600416 6.42609 8.8456 12.2505 13.3231 2.13741 3.78325 40.8452
600427 6.49565 8.8456 12.3028 13.3137 2.05144 3.76311 40.9577
600436 6.4087 8.86429 12.2295 13.2763 2.14715 3.76403 40.7788
600446 6.4087 8.86429 12.2295 13.2763 2.14715 3.76403 40.7788
600456 6.44348 8.77088 12.3028 13.3605 2.07027 3.83421 40.8776
600466 6.44348 8.77088 12.3028 13.3605 2.07027 3.83421 40.8776
600480 6.4087 8.74286 12.3132 13.3324 2.05489 3.85839 40.7972
600486 6.3913 8.81758 12.3132 13.3511 2.11885 3.83704 40.8732
600496 6.3913 8.81758 12.3132 13.3511 2.11885 3.83704 40.8732
600506 6.51304 8.80824 12.2818 13.3324 2.04332 3.77165 40.9355
600516 6.46087 8.80824 12.1982 13.3511 2.14385 3.77777 40.8184
600526 6.46087 8.80824 12.1982 13.3511 2.14385 3.77777 40.8184
600536 6.42609 8.81758 12.2609 13.3979 2.15664 3.81951 40.9025
600547 6.42609 8.81758 12.2609 13.3979 2.15664 3.81951 40.9025
600556 6.42609 8.78956 12.2505 13.4073 2.15316 3.83211 40.8734
600569 6.46957 8.78022 12.2818 13.3605 2.0721 3.81218 40.8921
600576 6.46957 8.78022 12.2818 13.3605 2.0721 3.81218 40.8921
600591 6.51304 8.8456 12.2505 13.3792 2.11115 3.75876 40.9883
600596 6.51304 8.8456 12.2505 13.3792 2.11115 3.75876 40.9883
600607 6.41739 8.83626 12.2818 13.3137 2.11187 3.79759 40.8492
600617 6.46957 8.78956 12.3132 13.3418 2.04608 3.81135 40.9141
600627 6.46957 8.78956 12.3132 13.3418 2.04608 3.81135 40.9141
600637 6.47826 8.86429 12.2086 13.3324 2.14623 3.74178 40.8836
600647 6.44348 8.82692 12.2714 13.3511 2.11723 3.79728 40.8929
600658 6.44348 8.82692 12.2714 13.3511 2.11723 3.79728 40.8929
600667 6.44348 8.90165 12.2818 13.3043 2.12592 3.75302 40.9313
600677 6.44348 8.90165 12.2818 13.3043 2.12592 3.75302 40.9313
600690 6.42609 8.82692 12.2191 13.3418 2.15829 3.78836 40.8139
600699 6.47826 8.90165 12.1877 13.295 2.1601 3.70857 40.8626
600707 6.47826 8.90165 12.1877 13.295 2.1601 3.70857 40.8626
600721 6.43478 8.85495 12.1458 13.2201 2.14881 3.71766 40.6557
600728 6.46087 8.88297 12.1145 13.2856 2.20479 3.70224 40.7439
600737 6.46087 8.88297 12.1145 13.2856 2.20479 3.70224 40.7439
600747 6.48696 8.95769 12.1249 13.2576 2.20648 3.65119 40.8271
600757 6.48696 8.95769 12.1249 13.2576 2.20648 3.65119 40.8271
600767 6.48696 8.90165 12.1249 13.2763 2.18563 3.68202 40.7898
600777 6.47826 8.92967 12.1458 13.2389 2.17222 3.66859 40.7926
600807 6.53043 8.94835 12.1145 13.2576 2.17929 3.6327 40.8508
600809 6.52174 8.95769 12.1877 13.2295 2.12595 3.64496 40.8966
600817 6.52174 8.95769 12.1877 13.2295 2.12595 3.64496 40.8966
600832 6.58261 9.0044 12.1563 13.2576 2.14815 3.59512 41.0009
600852 6.51304 8.93901 12.1668 13.1827 2.10894 3.63862 40.8015
600859 6.51304 8.93901 12.104 13.2856 2.20829 3.64979 40.8417
600869 6.51304 8.93901 12.104 13.2856 2.20829 3.64979 40.8417
600879 6.51304 8.93901 12.1249 13.2108 2.1525 3.63478 40.7878
600889 6.49565 8.94835 12.0831 13.2482 2.21815 3.63723 40.7753
600899 6.49565 8.94835 12.0831 13.2482 2.21815 3.63723 40.7753
600910 6.53913 8.98571 12.1145 13.2856 2.21 3.61952 40.9249
600920 6.53913 8.98571 12.1145 13.2856 2.21 3.61952 40.9249
600930 6.52174 8.90165 12.104 13.2763 2.17639 3.66029 40.8037
600940 6.53913 8.86429 12.1982 13.3231 2.10757 3.70845 40.9246
600950 6.53913 8.86429 12.1982 13.3231 2.10757 3.70845 40.9246
600962 6.45217 8.89231 12.1354 13.2201 2.16517 3.68958 40.7
600970 6.51304 8.92033 12.1563 13.295 2.16828 3.67543 40.8847
600983 6.51304 8.92033 12.1563 13.295 2.16828 3.67543 40.8847
600990 6.48696 8.92033 12.1772 13.2295 2.13508 3.675 40.814
601000 6.48696 8.92033 12.1772 13.2295 2.13508 3.675 40.814
601011 6.46087 8.83626 12.1145 13.2763 2.17338 3.72111 40.6879
601020 6.46957 8.87363 12.1458 13.3886 2.2303 3.73966 40.8776
601030 6.46957 8.87363 12.1458 13.3886 2.2303 3.73966 40.8776
601040 6.43478 8.87363 12.1772 13.3324 2.20125 3.7488 40.8181
601050 6.46957 8.85495 12.1145 13.3231 2.20425 3.72148 40.762
601060 6.46957 8.85495 12.1145 13.3231 2.20425 3.72148 40.762
601070 6.48696 8.91099 12.1563 13.3605 2.21693 3.70973 40.9147
601080 6.48696 8.91099 12.1563 13.3605 2.21693 3.70973 40.9147
601090 6.49565 8.8456 12.1458 13.2856 2.13975 3.71212 40.7727
601100 6.54783 8.89231 12.1249 13.4353 2.22857 3.70245 41.0004
601111 6.54783 8.89231 12.1249 13.4353 2.22857 3.70245 41.0004
601120 6.44348 8.87363 12.1458 13.3698 2.23726 3.74647 40.8328
601134 6.43478 8.85495 12.2295 13.3231 2.15076 3.7692 40.8423
601150 6.48696 8.83626 12.1354 13.3511 2.18395 3.73561 40.8097
601161 6.48696 8.83626 12.1354 13.3511 2.18395 3.73561 40.8097
601171 6.50435 8.80824 12.1668 13.3043 2.10959 3.73625 40.7837
601181 6.50435 8.81758 12.1354 13.3605 2.16715 3.73879 40.8178
601201 6.53913 8.88297 12.1563 13.3231 2.14576 3.68835 40.9015
601211 6.53913 8.87363 12.1145 13.3043 2.15788 3.67585 40.8316
601223 6.53913 8.87363 12.1145 13.3043 2.15788 3.67585 40.8316
601231 6.53043 8.85495 12.1354 13.3231 2.14977 3.69936 40.8438
601242 6.53043 8.85495 12.1354 13.3231 2.14977 3.69936 40.8438
601251 6.47826 8.80824 12.0098 13.2856 2.22129 3.69954 40.582
601264 6.48696 8.86429 12.0726 13.3231 2.2258 3.69762 40.7469
601281 6.51304 8.86429 12.1354 13.295 2.15085 3.69528 40.8077
601292 6.50435 8.92033 12.1458 13.3418 2.2071 3.68946 40.9123
601302 6.50435 8.92033 12.1458 13.3418 2.2071 3.68946 40.9123
601312 6.54783 8.88297 12.1772 13.3605 2.14701 3.7005 40.9685
601324 6.54783 8.88297 12.1772 13.3605 2.14701 3.7005 40.9685
601332 6.48696 8.91099 12.0831 13.3231 2.24488 3.67911 40.8041
601342 6.48696 8.92967 12.0726 13.3043 2.25185 3.66247 40.7936
601352 6.48696 8.92967 12.0726 13.3043 2.25185 3.66247 40.7936
601362 6.55652 8.94835 12.1249 13.2576 2.15499 3.62372 40.8874
601373 6.52174 8.92967 12.1354 13.3043 2.18684 3.66399 40.8911
601382 6.52174 8.92967 12.1354 13.3043 2.18684 3.66399 40.8911
601395 6.51304 8.92033 12.0726 13.2856 2.21878 3.6496 40.7916
601416 6.54783 8.90165 12.0935 13.2482 2.15028 3.63765 40.7912
601423 6.51304 8.94835 12.1145 13.2856 2.20653 3.64844 40.8615
601434 6.51304 8.94835 12.1145 13.2856 2.20653 3.64844 40.8615
601443 6.53043 8.91099 12.1249 13.3043 2.17759 3.66565 40.8707
601454 6.53043 8.92033 12.0831 13.2669 2.18975 3.63936 40.8008
601464 6.53043 8.92033 12.0831 13.2669 2.18975 3.63936 40.8008
601473 6.48696 8.92033 12.1145 13.3324 2.23437 3.68613 40.8542
601488 6.48696 8.92033 12.1145 13.3324 2.23437 3.68613 40.8542
601494 6.52174 8.90165 12.0622 13.3231 2.23042 3.66166 40.8086
601504 6.50435 8.88297 12.0726 13.3137 2.21939 3.67848 40.7736
601514 6.50435 8.88297 12.0726 13.3137 2.21939 3.67848 40.7736
601527 6.53913 8.92967 12.104 13.3137 2.20136 3.64995 40.8865
601535 6.51304 8.92967 12.0412 13.3137 2.26061 3.64441 40.7976
601543 6.51304 8.92033 12.0412 13.3231 2.26062 3.65128 40.7977
601554 6.53913 8.95769 12.1249 13.3698 2.23429 3.65853 40.9916
601563 6.53913 8.95769 12.1249 13.3698 2.23429 3.65853 40.9916
601574 6.52174 8.92967 12.1877 13.2482 2.12074 3.66293 40.8873
601584 6.56522 8.97637 12.1145 13.2576 2.17181 3.60409 40.9136
601604 6.57391 8.97637 12.0622 13.2482 2.19558 3.58294 40.8607
601615 6.52174 8.91099 12.0412 13.2295 2.19731 3.62549 40.7035
601625 6.52174 8.91099 12.0412 13.2295 2.19731 3.62549 40.7035
601635 6.57391 8.99506 12.1458 13.2669 2.16085 3.603 40.9817
601645 6.57391 8.99506 12.1458 13.2669 2.16085 3.603 40.9817
601655 6.55652 8.92967 12.0412 13.2389 2.18978 3.60367 40.7663
601665 6.57391 8.99506 12.0308 13.2763 2.24255 3.57352 40.876
601677 6.57391 8.99506 12.0308 13.2763 2.24255 3.57352 40.876
601685 6.54783 9.06978 12.0622 13.2108 2.24415 3.54189 40.8905
601695 6.54783 9.06978 12.0622 13.2108 2.24415 3.54189 40.8905
601705 6.55652 9.01374 12.0831 13.2389 2.20885 3.57709 40.8922
601715 6.57391 8.96703 12.0517 13.2014 2.17119 3.57117 40.7941
601725 6.57391 8.96703 12.0517 13.2014 2.17119 3.57117 40.7941
601735 6.6 9.03242 11.9575 13.1734 2.23745 3.49523 40.7633
601746 6.61739 8.97637 12.0098 13.1734 2.15961 3.52752 40.777
601755 6.61739 8.97637 12.0098 13.1734 2.15961 3.52752 40.777
601765 6.64348 9.03242 11.9889 13.1266 2.16136 3.47118 40.7914
601775 6.64348 9.03242 11.9889 13.1266 2.16136 3.47118 40.7914
601785 6.5913 9.06978 11.9889 13.1359 2.22227 3.48053 40.7859
601795 6.64348 8.98571 12.0412 13.1359 2.10564 3.50974 40.8064
601815 6.6087 9.03242 12.0203 13.0985 2.1479 3.48788 40.7599
601829 6.63478 9.06978 11.9994 13.1734 2.2072 3.47437 40.8773
601836 6.63478 9.06978 11.9994 13.1734 2.2072 3.47437 40.8773
601849 6.6 9.07912 12.0412 13.1921 2.21813 3.50292 40.9124
601856 6.6 9.07912 12.0412 13.1921 2.21813 3.50292 40.9124
601869 6.61739 9.06044 12.0935 13.1734 2.15099 3.51293 40.9447
601876 6.6087 9.01374 12.0517 13.2295 2.18981 3.54202 40.9036
601886 6.6087 9.01374 12.0517 13.2295 2.18981 3.54202 40.9036
601896 6.63478 9.0044 12.0098 13.1266 2.13752 3.49372 40.7756
601906 6.6 9.04176 11.9889 13.0985 2.17986 3.47871 40.7292
601917 6.6 9.04176 11.9889 13.0985 2.17986 3.47871 40.7292
601926 6.64348 9.03242 12.0203 13.1172 2.13524 3.4774 40.8134
601936 6.64348 9.03242 12.0203 13.1172 2.13524 3.4774 40.8134
601946 6.58261 9.02308 12.0622 13.1734 2.17408 3.53681 40.8412
601958 6.5913 9.0978 12.0831 13.1359 2.17522 3.49438 40.9081
601967 6.5913 9.0978 12.0831 13.1359 2.17522 3.49438 40.9081
601977 6.5913 9.02308 12.0098 13.1266 2.17696 3.50498 40.7508
601987 6.61739 9.01374 12.0935 13.1266 2.09871 3.52094 40.8512
601999 6.61739 9.01374 12.0935 13.1266 2.09871 3.52094 40.8512
602007 6.65217 9.10714 12.0203 13.164 2.19733 3.45292 40.9436
602021 6.65217 9.10714 12.0203 13.164 2.19733 3.45292 40.9436
602027 6.5913 9.02308 12.0726 13.1266 2.13516 3.52266 40.8136
602042 6.58261 9.06044 12.0831 13.1172 2.14967 3.50997 40.8433
602047 6.58261 9.06044 12.0831 13.1172 2.14967 3.50997 40.8433
602059 6.63478 9.06044 12.0203 13.1266 2.16194 3.47129 40.8421
602067 6.61739 9.07912 12.0517 13.1734 2.18919 3.49273 40.9216
602088 6.69565 9.04176 12.0308 13.164 2.12507 3.46574 40.9322
602098 6.69565 9.04176 12.0308 13.164 2.12507 3.46574 40.9322
602110 6.65217 9.04176 12.0308 13.0892 2.11201 3.46426 40.8139
602132 6.61739 9.06978 12.0622 13.0985 2.13521 3.47882 40.8478
602140 6.6 9.06978 12.0308 13.1359 2.18858 3.4884 40.8365
602153 6.6087 9.06044 11.9785 13.1359 2.21243 3.47393 40.7835
602161 6.6087 9.06044 11.9785 13.1359 2.21243 3.47393 40.7835
602170 6.56522 9.06044 12.0098 13.0985 2.19957 3.49194 40.734
602180 6.63478 9.06978 12.0622 13.1453 2.14982 3.48414 40.912
602190 6.63478 9.06978 12.0622 13.1453 2.14982 3.48414 40.912
602201 6.61739 9.07912 12.0308 13.0892 2.15606 3.46309 40.8164
602211 6.61739 9.07912 12.0308 13.0892 2.15606 3.46309 40.8164
602222 6.55652 9.06044 12.0098 13.1734 2.24719 3.51699 40.8002
602230 6.5913 9.04176 12.0831 13.1453 2.14914 3.52238 40.8614
602240 6.5913 9.04176 12.0831 13.1453 2.14914 3.52238 40.8614
602250 6.62609 9.0511 12.0622 13.2763 2.21814 3.53326 41.0156
602261 6.58261 9.0044 12.0622 13.1734 2.16363 3.54529 40.8225
602270 6.58261 9.0044 12.0622 13.1734 2.16363 3.54529 40.8225
602283 6.6 9.0044 12.0726 13.2389 2.1817 3.55867 40.9159
602290 6.6 9.0044 12.0726 13.2389 2.1817 3.55867 40.9159
602300 6.53043 9.0044 12.104 13.1359 2.14955 3.57026 40.7748
602310 6.56522 8.96703 12.0203 13.2201 2.20837 3.57158 40.7727
602320 6.56522 8.96703 12.0203 13.2201 2.20837 3.57158 40.7727
602330 6.55652 8.98571 12.0935 13.2295 2.18104 3.59014 40.8653
602340 6.55652 8.98571 12.0935 13.2295 2.18104 3.59014 40.8653
602350 6.53913 8.90165 12.0412 13.2201 2.17521 3.61919 40.7022
602360 6.50435 8.93901 12.1145 13.3605 2.2488 3.67742 40.9183
602371 6.50435 8.93901 12.1145 13.3605 2.2488 3.67742 40.9183
602381 6.54783 8.86429 12.0831 13.2576 2.14154 3.65443 40.7528
602395 6.42609 8.92967 12.1982 13.3605 2.23999 3.74057 40.9144
602401 6.42609 8.92967 12.1982 13.3605 2.23999 3.74057 40.9144
602411 6.50435 8.91099 12.1249 13.3979 2.24706 3.70345 40.9382
602421 6.50435 8.91099 12.1249 13.3979 2.24706 3.70345 40.9382
602431 6.46087 8.87363 12.1249 13.3605 2.2344 3.73013 40.8199
602441 6.52174 8.89231 12.1458 13.3886 2.20599 3.70723 40.9484
602451 6.52174 8.89231 12.1458 13.3886 2.20599 3.70723 40.9484
602462 6.51304 8.93901 12.1563 13.2763 2.16826 3.66172 40.8846
602471 6.46957 8.91099 12.1354 13.3231 2.22159 3.70157 40.839
602482 6.46957 8.91099 12.1354 13.3231 2.22159 3.70157 40.839
602491 6.50435 8.86429 12.1563 13.3231 2.15842 3.71281 40.848
602511 6.48696 8.89231 12.1877 13.3231 2.16478 3.71661 40.89
602525 6.51304 8.92967 12.1145 13.4166 2.269 3.69323 40.9738
602541 6.46957 8.8456 12.0831 13.3511 2.23567 3.72486 40.7494
602552 6.45217 8.82692 12.1877 13.3137 2.1461 3.76 40.7805
602567 6.45217 8.82692 12.1877 13.3137 2.1461 3.76 40.7805
602572 6.48696 8.82692 12.1668 13.3698 2.1683 3.75371 40.8505
602588 6.48696 8.82692 12.1668 13.3698 2.1683 3.75371 40.8505
602592 6.43478 8.85495 12.1877 13.4073 2.22561 3.78084 40.8847
602602 6.46087 8.88297 12.2714 13.3605 2.14224 3.76615 40.9757
602624 6.45217 8.87363 12.1982 13.3605 2.19141 3.7543 40.8844
602634 6.46957 8.81758 12.1982 13.3698 2.15377 3.77462 40.8551
602654 6.50435 8.85495 12.2086 13.3418 2.12893 3.73668 40.9097
602664 6.50435 8.85495 12.2086 13.3418 2.12893 3.73668 40.9097
602676 6.4087 8.8456 12.1668 13.3511 2.22043 3.77595 40.7722
602684 6.42609 8.88297 12.2191 13.3979 2.2209 3.77801 40.926
602699 6.42609 8.88297 12.2191 13.3979 2.2209 3.77801 40.926
602703 6.43478 8.80824 12.2086 13.4073 2.18564 3.80805 40.8589
602714 6.46087 8.7989 12.2505 13.3605 2.10912 3.799 40.8707
602724 6.46087 8.7989 12.2505 13.3605 2.10912 3.799 40.8707
602734 6.51304 8.83626 12.1563 13.3043 2.12648 3.7165 40.81
602743 6.51304 8.83626 12.1563 13.3043 2.12648 3.7165 40.81
602753 6.46957 8.83626 12.24 13.3324 2.1155 3.76726 40.8782
