2738374 4.66957 5.38956 7.85662 7.28839 0.150537 3.02681 25.2041
2738384 4.69565 5.50165 7.85662 7.26032 0.207099 2.91514 25.3142
2738404 4.73043 5.51099 7.90892 7.25096 0.120655 2.90445 25.4013
2738414 4.73043 5.51099 7.90892 7.25096 0.120655 2.90445 25.4013
2738424 4.74783 5.47363 7.86708 7.24161 0.0990212 2.89412 25.3301
2738435 4.77391 5.52967 7.87754 7.3071 0.181767 2.87254 25.4882
2738451 4.77391 5.52967 7.87754 7.3071 0.181767 2.87254 25.4882
2738457 4.7913 5.48297 7.86708 7.23225 0.0559986 2.85241 25.3736
2738465 4.8 5.50165 7.87754 7.25096 0.0738025 2.84712 25.4302
2738475 4.8 5.50165 7.87754 7.25096 0.0738025 2.84712 25.4302
2738485 4.81739 5.61374 7.888 7.1574 0.064519 2.71678 25.4765
2738505 4.8 5.52967 7.80431 7.17611 0.100234 2.75626 25.3101
2738515 4.81739 5.54835 7.79385 7.20418 0.139269 2.73951 25.3638
2738525 4.81739 5.54835 7.79385 7.20418 0.139269 2.73951 25.3638
2738535 4.84348 5.52967 7.84615 7.26968 0.10761 2.79102 25.489
2738548 4.88696 5.54835 7.78338 7.11998 -0.00198483 2.645 25.3387
2738558 4.88696 5.54835 7.78338 7.11998 -0.00198483 2.645 25.3387
2738567 4.83478 5.6044 7.73108 7.17611 0.211716 2.64417 25.3464
2738575 4.83478 5.6044 7.73108 7.17611 0.211716 2.64417 25.3464
2738585 4.82609 5.52967 7.78338 7.08255 0.00272989 2.68232 25.2217
2738596 4.88696 5.57637 7.752 7.08255 0.0197381 2.59185 25.2979
2738606 4.88696 5.57637 7.752 7.08255 0.0197381 2.59185 25.2979
2738615 4.87826 5.6044 7.76246 7.0732 0.0364095 2.57897 25.3183
2738627 4.89565 5.64176 7.752 7.06384 0.057143 2.53129 25.3533
2738635 4.89565 5.64176 7.752 7.06384 0.057143 2.53129 25.3533
2738648 4.93043 5.61374 7.76246 7.11062 0.0309438 2.55471 25.4173
2738658 4.93043 5.61374 7.76246 7.11062 0.0309438 2.55471 25.4173
2738665 4.85217 5.52967 7.74154 7.12933 0.0646383 2.66646 25.2527
2738675 4.91304 5.66978 7.74154 7.11998 0.132817 2.52239 25.4443
2738696 4.92174 5.58571 7.752 7.16676 0.0774145 2.60242 25.4262
2738706 4.86087 5.58571 7.68923 7.14805 0.181597 2.60484 25.2839
2738717 4.86087 5.58571 7.68923 7.14805 0.181597 2.60484 25.2839
2738726 4.87826 5.6044 7.76246 7.21354 0.174019 2.64744 25.4587
2738736 4.87826 5.6044 7.76246 7.21354 0.174019 2.64744 25.4587
2738747 4.84348 5.58571 7.77292 7.12933 0.0973552 2.64872 25.3314
2738756 4.86957 5.57637 7.80431 7.16676 0.0681221 2.67053 25.417
2738768 4.86957 5.57637 7.80431 7.16676 0.0681221 2.67053 25.417
2738778 4.87826 5.57637 7.73108 7.18547 0.150275 2.63798 25.3712
2738788 4.7913 5.51099 7.79385 7.23225 0.156039 2.79753 25.3284
2738798 4.7913 5.51099 7.79385 7.23225 0.156039 2.79753 25.3284
2738808 4.78261 5.52033 7.83569 7.19483 0.095582 2.79921 25.3335
2738818 4.78261 5.52033 7.83569 7.19483 0.095582 2.79921 25.3335
2738828 4.76522 5.48297 7.91938 7.26968 0.0668705 2.91357 25.4372
2738838 4.75652 5.52967 7.90892 7.31646 0.177059 2.90409 25.5116
2738848 4.75652 5.52967 7.90892 7.31646 0.177059 2.90409 25.5116
2738858 4.73913 5.48297 7.91938 7.3071 0.129232 2.9497 25.4486
2738869 4.69565 5.49231 7.94031 7.36324 0.215349 3.01017 25.4915
2738881 4.69565 5.49231 7.94031 7.36324 0.215349 3.01017 25.4915
2738889 4.70435 5.46429 7.888 7.26968 0.139788 2.95486 25.3263
2738900 4.66087 5.46429 7.89846 7.35388 0.254986 3.03055 25.3775
2738909 4.66087 5.4456 7.89846 7.35388 0.236756 3.04383 25.3588
2738920 4.71304 5.42692 7.888 7.36324 0.186202 3.01951 25.3912
2738929 4.71304 5.42692 7.888 7.36324 0.186202 3.01951 25.3912
2738939 4.67826 5.45495 7.82523 7.35388 0.301567 2.99019 25.3123
2738949 4.70435 5.43626 7.80431 7.3071 0.232366 2.95271 25.252
2738959 4.70435 5.43626 7.80431 7.3071 0.232366 2.95271 25.252
2738970 4.73043 5.54835 7.83569 7.37259 0.348035 2.90118 25.4871
2738980 4.73043 5.54835 7.83569 7.37259 0.348035 2.90118 25.4871
2738989 4.70435 5.46429 7.888 7.29774 0.167313 2.96819 25.3544
2739000 4.71304 5.49231 7.94031 7.29774 0.134316 2.967 25.4434
2739009 4.71304 5.49231 7.94031 7.29774 0.134316 2.967 25.4434
2739019 4.72174 5.52033 7.86708 7.29774 0.225586 2.90635 25.4069
2739029 4.77391 5.49231 7.82523 7.27903 0.169683 2.86043 25.3705
2739039 4.77391 5.49231 7.82523 7.27903 0.169683 2.86043 25.3705
2739049 4.76522 5.57637 7.87754 7.21354 0.144652 2.80121 25.4327
2739059 4.76522 5.57637 7.87754 7.21354 0.144652 2.80121 25.4327
2739069 4.78261 5.50165 7.82523 7.19483 0.0875711 2.80731 25.3043
2739080 4.77391 5.55769 7.86708 7.25096 0.164703 2.82112 25.4496
2739090 4.77391 5.55769 7.86708 7.25096 0.164703 2.82112 25.4496
2739100 4.76522 5.53901 7.84615 7.24161 0.166637 2.82581 25.392
2739110 4.76522 5.57637 7.84615 7.28839 0.248656 2.82202 25.4761
2739120 4.76522 5.57637 7.84615 7.28839 0.248656 2.82202 25.4761
2739130 4.87826 5.58571 7.80431 7.12933 0.031969 2.63981 25.3976
2739150 4.8087 5.50165 7.77292 7.11998 0.0396848 2.72736 25.2032
2739161 4.78261 5.56703 7.81477 7.16676 0.134629 2.7428 25.3312
2739181 4.82609 5.54835 7.80431 7.0732 -0.00875741 2.67488 25.2519
2739192 4.77391 5.51099 7.89846 7.18547 0.0237346 2.83755 25.3688
2739202 4.77391 5.51099 7.89846 7.18547 0.0237346 2.83755 25.3688
2739212 4.82609 5.54835 7.94031 7.18547 -0.0319347 2.79488 25.5002
2739221 4.82609 5.54835 7.94031 7.18547 -0.0319347 2.79488 25.5002
2739231 4.7913 5.50165 7.95077 7.21354 -0.0264034 2.87031 25.4573
2739241 4.77391 5.48297 8.00308 7.25096 -0.0421956 2.93825 25.5109
2739253 4.77391 5.48297 8.00308 7.25096 -0.0421956 2.93825 25.5109
2739261 4.75652 5.4456 7.92985 7.27903 0.0376493 2.95546 25.411
2739272 4.71304 5.34286 8.00308 7.25096 -0.120802 3.08069 25.3099
2739284 4.71304 5.34286 8.00308 7.25096 -0.120802 3.08069 25.3099
2739293 4.73043 5.40824 8.00308 7.25096 -0.0731587 3.02175 25.3927
2739303 4.66957 5.3989 8.01354 7.28839 0.00412464 3.09423 25.3704
2739313 4.66957 5.3989 8.01354 7.28839 0.00412464 3.09423 25.3704
2739323 4.64348 5.38956 8.07631 7.31646 -0.0135392 3.16198 25.4258
2739333 4.64348 5.38956 8.07631 7.31646 -0.0135392 3.16198 25.4258
2739343 4.70435 5.38022 8.01354 7.25096 -0.0855088 3.06516 25.3491
2739353 4.65217 5.38022 8.07631 7.32581 -0.0220656 3.16679 25.4345
2739373 4.69565 5.40824 8.08677 7.32581 -0.0473872 3.12074 25.5165
2739383 4.5913 5.3522 8.12862 7.33517 -0.0320315 3.25908 25.4073
2739393 4.5913 5.3522 8.12862 7.33517 -0.0320315 3.25908 25.4073
2739403 4.5913 5.37088 8.13908 7.44744 0.0860482 3.30212 25.5487
2739413 4.5913 5.37088 8.13908 7.44744 0.0860482 3.30212 25.5487
2739423 4.5913 5.31484 8.10769 7.38195 -0.00218004 3.29789 25.3958
2739433 4.52174 5.32418 8.14954 7.33517 -0.0117764 3.33912 25.3306
2739454 4.53043 5.29615 8.16 7.41937 0.0246912 3.39652 25.406
2739465 4.53043 5.29615 8.16 7.41937 0.0246912 3.39652 25.406
2739474 4.46087 5.26813 8.23323 7.44744 0.0211239 3.51343 25.4097
2739484 4.43478 5.28681 8.27508 7.41937 -0.00361353 3.52505 25.416
2739495 4.43478 5.28681 8.27508 7.41937 -0.00361353 3.52505 25.416
2739504 4.3913 5.30549 8.27508 7.41937 0.057587 3.54314 25.3912
2739514 4.37391 5.20275 8.32738 7.41937 -0.078167 3.65478 25.3234
2739524 4.37391 5.20275 8.32738 7.41937 -0.078167 3.65478 25.3234
2739534 4.48696 5.24945 8.33785 7.41002 -0.162193 3.53833 25.4843
2739544 4.46087 5.24945 8.35877 7.41002 -0.15716 3.56672 25.4791
2739554 4.46087 5.20275 8.35877 7.42873 -0.184828 3.6092 25.4511
2739564 4.4 5.19341 8.36923 7.4568 -0.117064 3.67787 25.4194
2739574 4.4 5.19341 8.36923 7.4568 -0.117064 3.67787 25.4194
2739584 4.4 5.24011 8.41108 7.42873 -0.139558 3.64976 25.4799
2739596 4.4087 5.25879 8.28554 7.52229 0.0852257 3.61547 25.4753
2739604 4.4087 5.25879 8.28554 7.52229 0.0852257 3.61547 25.4753
2739614 4.38261 5.22143 8.42154 7.53165 -0.0499576 3.72643 25.5572
2739624 4.38261 5.22143 8.42154 7.53165 -0.0499576 3.72643 25.5572
2739634 4.36522 5.23077 8.33785 7.49422 0.021559 3.67866 25.4281
2739644 4.42609 5.23077 8.42154 7.4568 -0.156704 3.65465 25.5352
2739654 4.42609 5.23077 8.42154 7.4568 -0.156704 3.65465 25.5352
2739664 4.4 5.23077 8.35877 7.44744 -0.0791788 3.64161 25.437
2739674 4.42609 5.20275 8.40062 7.44744 -0.17321 3.66169 25.4769
2739684 4.42609 5.20275 8.40062 7.44744 -0.17321 3.66169 25.4769
2739694 4.35652 5.15604 8.41108 7.44744 -0.161712 3.75188 25.3711
2739704 4.35652 5.15604 8.41108 7.44744 -0.161712 3.75188 25.3711
2739714 4.4087 5.11868 8.35877 7.42873 -0.217317 3.70935 25.3149
2739733 4.4087 5.11868 8.44246 7.48487 -0.243188 3.77138 25.4547
2739734 4.4087 5.11868 8.44246 7.48487 -0.243188 3.77138 25.4547
2739744 4.37391 5.1467 8.432 7.541 -0.115921 3.79647 25.4936
2739754 4.36522 5.1467 8.47385 7.52229 -0.166683 3.81304 25.5081
2739766 4.36522 5.1467 8.47385 7.52229 -0.166683 3.81304 25.5081
2739774 4.33043 5.17473 8.42154 7.62521 0.0469238 3.84018 25.5519
2739785 4.33043 5.17473 8.42154 7.62521 0.0469238 3.84018 25.5519
2739794 4.32174 5.1467 8.46338 7.61585 -0.0220865 3.88144 25.5477
2739805 4.35652 5.08132 8.42154 7.53165 -0.162554 3.849 25.391
2739815 4.35652 5.08132 8.42154 7.53165 -0.162554 3.849 25.391
2739826 4.38261 5.22143 8.36923 7.49422 -0.0355259 3.68671 25.4675
2739836 4.38261 5.22143 8.36923 7.49422 -0.0355259 3.68671 25.4675
2739847 4.30435 5.19341 8.32738 7.52229 0.0828117 3.75891 25.3474
2739855 4.38261 5.21209 8.33785 7.48487 -0.0231162 3.67544 25.4174
2739875 4.4087 5.19341 8.296 7.46615 -0.0444874 3.64295 25.3643
2739885 4.35652 5.28681 8.40062 7.4568 -0.013262 3.65523 25.5007
2739895 4.35652 5.28681 8.40062 7.4568 -0.013262 3.65523 25.5007
2739905 4.3913 5.30549 8.28554 7.47551 0.102288 3.57311 25.4578
2739916 4.3913 5.30549 8.28554 7.47551 0.102288 3.57311 25.4578
2739926 4.37391 5.25879 8.30646 7.4568 0.0346661 3.62098 25.396
2739936 4.4087 5.37088 8.24369 7.4568 0.171986 3.48561 25.4801
2739946 4.4087 5.37088 8.24369 7.4568 0.171986 3.48561 25.4801
2739956 4.4 5.38956 8.22277 7.43808 0.201249 3.46043 25.4504
2739966 4.4087 5.4456 8.19138 7.41937 0.260058 3.3908 25.4651
2739976 4.4087 5.4456 8.19138 7.41937 0.260058 3.3908 25.4651
2739986 4.45217 5.38022 8.17046 7.40066 0.155732 3.38854 25.4035
2739996 4.45217 5.38022 8.17046 7.40066 0.155732 3.38854 25.4035
2740006 4.34783 5.40824 8.17046 7.43808 0.323325 3.46101 25.3646
2740017 4.41739 5.3989 8.26462 7.47551 0.188217 3.47692 25.5564
2740026 4.41739 5.3989 8.26462 7.47551 0.188217 3.47692 25.5564
2740036 4.42609 5.37088 8.17046 7.47551 0.245488 3.44831 25.4429
2740046 4.3913 5.3989 8.12862 7.4568 0.330809 3.42566 25.3756
2740058 4.3913 5.3989 8.12862 7.4568 0.330809 3.42566 25.3756
2740066 4.4 5.43626 8.11815 7.42873 0.341603 3.37465 25.3831
2740078 4.4 5.43626 8.11815 7.42873 0.341603 3.37465 25.3831
2740086 4.4087 5.38022 8.17046 7.48487 0.280938 3.45839 25.4442
2740100 4.4087 5.38022 8.22277 7.52229 0.265378 3.49895 25.534
2740117 4.4 5.36154 8.07631 7.51293 0.392655 3.44824 25.3508
2740127 4.33913 5.3522 8.23323 7.55036 0.324038 3.58721 25.4749
2740136 4.33913 5.3522 8.23323 7.55036 0.324038 3.58721 25.4749
2740147 4.35652 5.26813 8.26462 7.62521 0.266716 3.6833 25.5145
2740156 4.35652 5.26813 8.26462 7.62521 0.266716 3.6833 25.5145
2740166 4.26957 5.24011 8.19138 7.64392 0.417319 3.74372 25.345
2740176 4.34783 5.28681 8.31692 7.68134 0.295916 3.7239 25.6329
2740186 4.34783 5.28681 8.31692 7.68134 0.295916 3.7239 25.6329
2740196 4.33043 5.27747 8.24369 7.59714 0.295186 3.67381 25.4487
2740206 4.28696 5.24945 8.22277 7.541 0.277397 3.69209 25.3002
2740216 4.28696 5.24945 8.22277 7.541 0.277397 3.69209 25.3002
2740228 4.33913 5.26813 8.25415 7.62521 0.294325 3.69141 25.4866
2740238 4.33913 5.26813 8.25415 7.62521 0.294325 3.69141 25.4866
2740248 4.28696 5.23077 8.21231 7.61585 0.342613 3.73459 25.3459
2740258 4.27826 5.20275 8.28554 7.68134 0.314653 3.82303 25.4479
2740268 4.27826 5.20275 8.28554 7.68134 0.314653 3.82303 25.4479
2740278 4.33043 5.25879 8.26462 7.61585 0.274438 3.70513 25.4697
2740288 4.35652 5.24945 8.25415 7.6907 0.322372 3.72134 25.5508
2740308 4.27826 5.22143 8.37969 7.71877 0.275648 3.86675 25.5981
2740318 4.27826 5.22143 8.37969 7.71877 0.275648 3.86675 25.5981
2740328 4.32174 5.18407 8.32738 7.70006 0.230089 3.83126 25.5332
2740339 4.27826 5.18407 8.30646 7.68134 0.275722 3.84604 25.4501
2740348 4.27826 5.18407 8.30646 7.68134 0.275722 3.84604 25.4501
2740357 4.26957 5.15604 8.40062 7.73748 0.218415 3.93868 25.5637
2740367 4.25217 5.09066 8.32738 7.67199 0.180614 3.93999 25.3422
2740379 4.25217 5.09066 8.32738 7.67199 0.180614 3.93999 25.3422
2740392 4.30435 5.1467 8.35877 7.70006 0.17997 3.88542 25.5099
2740448 4.30435 5.1467 8.35877 7.70006 0.17997 3.88542 25.5099
2740451 4.25217 5.0533 8.40062 7.64392 0.0438124 3.98761 25.35
2740453 4.25217 5.11868 8.39015 7.73748 0.209653 3.97481 25.4985
2740454 4.25217 5.11868 8.39015 7.73748 0.209653 3.97481 25.4985
2740455 4.26957 5.1 8.40062 7.70941 0.136611 3.96815 25.4796
2740457 4.28696 5.08132 8.41108 7.6907 0.0726223 3.96554 25.47
2740472 4.28696 5.11868 8.46338 7.7749 0.139648 3.99665 25.6439
2740479 4.28696 5.11868 8.46338 7.7749 0.139648 3.99665 25.6439
2740489 4.29565 5.06264 8.48431 7.70941 -0.00774115 4.01265 25.552
2740499 4.31304 5.16538 8.34831 7.6907 0.190783 3.85653 25.5174
2740509 4.31304 5.16538 8.34831 7.6907 0.190783 3.85653 25.5174
2740519 4.31304 5.16538 8.40062 7.63456 0.0845522 3.85485 25.5136
2740529 4.25217 5.1467 8.32738 7.64392 0.207984 3.88592 25.3702
2740540 4.25217 5.1467 8.32738 7.64392 0.207984 3.88592 25.3702
2740552 4.36522 5.22143 8.36923 7.67199 0.155076 3.77787 25.6279
2740571 4.33043 5.19341 8.296 7.55971 0.124791 3.74231 25.3796
2740580 4.34783 5.22143 8.33785 7.58778 0.12114 3.73979 25.4949
2740600 4.35652 5.18407 8.30646 7.56907 0.0886768 3.73874 25.4161
2740610 4.41739 5.22143 8.296 7.49422 0.00222325 3.62857 25.429
2740620 4.41739 5.22143 8.296 7.49422 0.00222325 3.62857 25.429
2740630 4.34783 5.20275 8.31692 7.56907 0.105232 3.73601 25.4366
2740641 4.34783 5.20275 8.31692 7.56907 0.105232 3.73601 25.4366
2740651 4.37391 5.20275 8.32738 7.48487 -0.0134751 3.68404 25.3889
2740661 4.41739 5.20275 8.27508 7.55036 0.0595778 3.65798 25.4456
2740673 4.41739 5.20275 8.27508 7.55036 0.0595778 3.65798 25.4456
2740681 4.41739 5.22143 8.31692 7.46615 -0.0459552 3.62537 25.4219
2740691 4.41739 5.17473 8.35877 7.49422 -0.105338 3.69081 25.4451
2740701 4.41739 5.17473 8.35877 7.49422 -0.105338 3.69081 25.4451
2740711 4.41739 5.21209 8.41108 7.51293 -0.101206 3.69491 25.5535
2740721 4.41739 5.21209 8.41108 7.51293 -0.101206 3.69491 25.5535
2740731 4.38261 5.17473 8.432 7.55971 -0.0784472 3.77766 25.549
2740744 4.36522 5.1 8.41108 7.43808 -0.235251 3.7828 25.3144
2740761 4.37391 5.12802 8.49477 7.46615 -0.269516 3.80495 25.4629
2740771 4.4 5.11868 8.50523 7.40066 -0.379443 3.76833 25.4246
2740791 4.38261 5.1 8.57846 7.43808 -0.414705 3.84362 25.4992
2740811 4.33913 5.08132 8.59938 7.44744 -0.402237 3.90288 25.4673
2740821 4.33043 5.08132 8.58892 7.3913 -0.439838 3.88025 25.392
2740831 4.33043 5.08132 8.58892 7.3913 -0.439838 3.88025 25.392
2740841 4.37391 5.09066 8.65169 7.44744 -0.476757 3.89296 25.5637
2740853 4.26957 5.1 8.65169 7.41002 -0.404267 3.94719 25.4313
2740863 4.26957 5.1 8.65169 7.41002 -0.404267 3.94719 25.4313
2740873 4.32174 5.11868 8.64123 7.44744 -0.388622 3.90628 25.5291
2740883 4.32174 5.11868 8.64123 7.44744 -0.388622 3.90628 25.5291
2740893 4.29565 5.09066 8.63077 7.3913 -0.437312 3.91746 25.4084
2740903 4.32174 5.1 8.65169 7.43808 -0.42662 3.9206 25.5115
2740923 4.31304 5.15604 8.53662 7.42873 -0.260362 3.83118 25.4344
2740934 4.28696 5.15604 8.48431 7.42873 -0.183873 3.82751 25.356
2740943 4.28696 5.19341 8.48431 7.47551 -0.100577 3.8204 25.4402
2740954 4.33913 5.22143 8.46338 7.56907 -0.0117376 3.79316 25.593
2740963 4.33913 5.22143 8.46338 7.56907 -0.0117376 3.79316 25.593
2740974 4.32174 5.1467 8.48431 7.55036 -0.106835 3.86201 25.5031
2740983 4.25217 5.15604 8.36923 7.49422 0.0285476 3.83151 25.2717
2740994 4.25217 5.15604 8.36923 7.49422 0.0285476 3.83151 25.2717
2741010 4.28696 5.23077 8.36923 7.57843 0.150213 3.78745 25.4654
2741015 4.24348 5.25879 8.32738 7.57843 0.262076 3.78042 25.4081
2741024 4.24348 5.25879 8.32738 7.57843 0.262076 3.78042 25.4081
2741034 4.30435 5.19341 8.28554 7.60649 0.206789 3.77767 25.3898
2741054 4.28696 5.33352 8.28554 7.61585 0.369167 3.69149 25.5219
2741065 4.27826 5.29615 8.19138 7.63456 0.453803 3.6918 25.4004
2741074 4.27826 5.29615 8.19138 7.63456 0.453803 3.6918 25.4004
2741084 4.31304 5.31484 8.26462 7.65327 0.382107 3.69338 25.5458
2741096 4.33043 5.32418 8.20185 7.60649 0.391144 3.62511 25.463
2741105 4.33043 5.32418 8.20185 7.60649 0.391144 3.62511 25.463
2741115 4.26957 5.29615 8.26462 7.58778 0.344002 3.70996 25.4181
2741125 4.26957 5.29615 8.26462 7.58778 0.344002 3.70996 25.4181
2741135 4.30435 5.38022 8.28554 7.62521 0.405875 3.64882 25.5953
2741145 4.26957 5.32418 8.22277 7.67199 0.494173 3.70815 25.4885
2741155 4.26957 5.32418 8.22277 7.67199 0.494173 3.70815 25.4885
2741165 4.31304 5.30549 8.24369 7.59714 0.339654 3.66601 25.4594
2741176 4.27826 5.28681 8.20185 7.61585 0.416186 3.695 25.3828
2741185 4.27826 5.28681 8.20185 7.61585 0.416186 3.695 25.3828
2741197 4.27826 5.30549 8.22277 7.66263 0.458491 3.71134 25.4692
2741205 4.27826 5.30549 8.22277 7.66263 0.458491 3.71134 25.4692
2741215 4.26957 5.30549 8.09723 7.59714 0.530121 3.63244 25.2694
2741225 4.31304 5.3522 8.19138 7.63456 0.473037 3.6252 25.4912
2741235 4.31304 5.3522 8.19138 7.63456 0.473037 3.6252 25.4912
2741245 4.36522 5.32418 8.19138 7.61585 0.375956 3.59921 25.4966
2741255 4.36522 5.32418 8.19138 7.61585 0.375956 3.59921 25.4966
2741266 4.38261 5.30549 8.16 7.51293 0.271893 3.53978 25.361
2741276 4.3913 5.27747 8.24369 7.57843 0.216645 3.62091 25.4909
2741285 4.3913 5.27747 8.24369 7.57843 0.216645 3.62091 25.4909
2741295 4.31304 5.36154 8.16 7.52229 0.405002 3.55389 25.3569
2741305 4.3913 5.34286 8.14954 7.4568 0.255334 3.47596 25.3405
2741315 4.3913 5.34286 8.14954 7.4568 0.255334 3.47596 25.3405
2741325 4.4087 5.34286 8.23323 7.43808 0.136706 3.49278 25.4229
2741335 4.4087 5.34286 8.23323 7.43808 0.136706 3.49278 25.4229
2741345 4.4 5.29615 8.18092 7.44744 0.160587 3.51372 25.3245
2741355 4.47826 5.33352 8.22277 7.42873 0.0601023 3.44008 25.4633
2741377 4.46957 5.40824 8.19138 7.37259 0.117803 3.35246 25.4418
2741387 4.49565 5.32418 8.20185 7.40066 0.0268817 3.41197 25.4223
2741396 4.49565 5.32418 8.20185 7.40066 0.0268817 3.41197 25.4223
2741406 4.51304 5.36154 8.26462 7.38195 -0.0334755 3.39247 25.5211
2741416 4.51304 5.36154 8.26462 7.38195 -0.0334755 3.39247 25.5211
2741426 4.50435 5.34286 8.20185 7.35388 -0.00930727 3.37078 25.4029
2741436 4.51304 5.31484 8.23323 7.36324 -0.0670642 3.40338 25.4243
2741457 4.56522 5.38022 8.20185 7.36324 -0.0231355 3.30431 25.5105
2741469 4.56522 5.31484 8.17046 7.26968 -0.149257 3.29386 25.3202
2741478 4.56522 5.31484 8.17046 7.26968 -0.149257 3.29386 25.3202
2741488 4.53043 5.34286 8.19138 7.28839 -0.0893131 3.31704 25.3531
2741498 4.55652 5.27747 8.26462 7.33517 -0.20494 3.40047 25.4338
2741508 4.55652 5.27747 8.26462 7.33517 -0.20494 3.40047 25.4338
2741518 4.55652 5.27747 8.296 7.33517 -0.235498 3.41477 25.4652
2741538 4.52174 5.31484 8.296 7.36324 -0.136952 3.42566 25.4958
2741549 4.58261 5.27747 8.33785 7.29774 -0.338525 3.39794 25.4957
2741559 4.58261 5.27747 8.33785 7.29774 -0.338525 3.39794 25.4957
2741569 4.57391 5.26813 8.32738 7.37259 -0.255045 3.44017 25.542
2741579 4.51304 5.25879 8.34831 7.34452 -0.253329 3.48777 25.4647
2741599 4.52174 5.22143 8.34831 7.34452 -0.298883 3.50861 25.436
2741612 4.52174 5.22143 8.34831 7.34452 -0.298883 3.50861 25.436
2741619 4.51304 5.19341 8.31692 7.34452 -0.287801 3.52118 25.3679
2741634 4.49565 5.24945 8.40062 7.3913 -0.250138 3.5518 25.537
2741643 4.49565 5.24945 8.40062 7.3913 -0.250138 3.5518 25.537
2741651 4.46957 5.28681 8.35877 7.42873 -0.110389 3.54162 25.5439
2741660 4.46957 5.23077 8.31692 7.49422 -0.0602633 3.59298 25.5115
2741680 4.46087 5.25879 8.32738 7.48487 -0.0436708 3.5794 25.5319
2741693 4.46087 5.25879 8.32738 7.48487 -0.0436708 3.5794 25.5319
2741700 4.42609 5.19341 8.30646 7.46615 -0.0718638 3.63486 25.3921
2741712 4.41739 5.20275 8.24369 7.50358 0.0445843 3.62303 25.3674
2741732 4.4087 5.22143 8.296 7.48487 0.00157058 3.63076 25.411
2741740 4.3913 5.21209 8.30646 7.49422 0.00840724 3.65923 25.4041
2741750 4.3913 5.21209 8.30646 7.49422 0.00840724 3.65923 25.4041
2741760 4.37391 5.17473 8.35877 7.57843 0.0200808 3.76006 25.4858
2741774 4.37391 5.17473 8.35877 7.57843 0.0200808 3.76006 25.4858
2741780 4.33913 5.16538 8.37969 7.64392 0.0886083 3.83054 25.5281
2741790 4.37391 5.24011 8.35877 7.58778 0.0931203 3.71619 25.5606
2741800 4.37391 5.24011 8.35877 7.58778 0.0931203 3.71619 25.5606
2741810 4.3913 5.24011 8.33785 7.59714 0.105703 3.69835 25.5664
2741820 4.35652 5.18407 8.23323 7.55971 0.152001 3.70202 25.3335
2741830 4.35652 5.18407 8.23323 7.55971 0.152001 3.70202 25.3335
2741840 4.4 5.23077 8.27508 7.58778 0.140697 3.66685 25.4936
2741850 4.4 5.23077 8.27508 7.58778 0.140697 3.66685 25.4936
2741860 4.37391 5.21209 8.26462 7.55036 0.12196 3.67839 25.401
2741871 4.34783 5.24945 8.20185 7.57843 0.274068 3.6546 25.3775
2741882 4.34783 5.24945 8.20185 7.57843 0.274068 3.6546 25.3775
2741892 4.3913 5.28681 8.19138 7.58778 0.286663 3.59487 25.4573
2741901 4.3913 5.28681 8.19138 7.58778 0.286663 3.59487 25.4573
2741913 4.41739 5.29615 8.14954 7.541 0.265929 3.52915 25.4041
2741921 4.4087 5.36154 8.16 7.50358 0.291365 3.47569 25.4338
2741932 4.4087 5.36154 8.16 7.50358 0.291365 3.47569 25.4338
2741941 4.33043 5.37088 8.08677 7.47551 0.424707 3.47989 25.2636
2741951 4.45217 5.41758 8.03446 7.49422 0.418499 3.34209 25.3984
2741961 4.45217 5.41758 8.03446 7.49422 0.418499 3.34209 25.3984
2741973 4.50435 5.49231 8.06585 7.47551 0.389245 3.25673 25.538
2741983 4.50435 5.49231 8.06585 7.47551 0.389245 3.25673 25.538
2741992 4.42609 5.38022 8.07631 7.4568 0.330141 3.39005 25.3394
2742003 4.48696 5.47363 8.05538 7.41937 0.344655 3.25188 25.4353
2742013 4.48696 5.47363 8.05538 7.41937 0.344655 3.25188 25.4353
2742023 4.45217 5.43626 7.99262 7.41937 0.40597 3.27478 25.3004
2742033 4.46957 5.49231 8.05538 7.41002 0.371033 3.24663 25.4273
2742043 4.46957 5.49231 8.05538 7.41002 0.371033 3.24663 25.4273
2742053 4.53913 5.51099 8.024 7.43808 0.378194 3.18199 25.5122
2742063 4.45217 5.48297 8.024 7.48487 0.483081 3.28588 25.444
2742073 4.45217 5.48297 8.024 7.48487 0.483081 3.28588 25.444
2742084 4.49565 5.45495 8.05538 7.44744 0.34509 3.27199 25.4534
2742103 4.49565 5.4456 8.08677 7.41002 0.268495 3.27592 25.438
2742115 4.48696 5.45495 8.08677 7.43808 0.313452 3.28838 25.4668
2742124 4.48696 5.45495 8.08677 7.43808 0.313452 3.28838 25.4668
2742134 4.48696 5.47363 8.024 7.48487 0.439286 3.26761 25.4694
2742144 4.52174 5.47363 8.05538 7.41937 0.310043 3.22695 25.4701
2742154 4.52174 5.47363 8.05538 7.41937 0.310043 3.22695 25.4701
2742164 4.48696 5.38022 8.14954 7.46615 0.205901 3.38375 25.4829
2742184 4.46957 5.42692 8.03446 7.47551 0.392032 3.31421 25.4065
2742195 4.49565 5.42692 8.09723 7.48487 0.312597 3.32852 25.5047
2742204 4.49565 5.42692 8.09723 7.48487 0.312597 3.32852 25.5047
2742214 4.49565 5.43626 8.09723 7.48487 0.321636 3.32181 25.514
2742224 4.46957 5.42692 8.09723 7.41937 0.274956 3.31726 25.4131
2742234 4.46957 5.42692 8.09723 7.41937 0.274956 3.31726 25.4131
2742244 4.50435 5.38022 8.12862 7.43808 0.182053 3.34883 25.4513
2742254 4.50435 5.38022 8.12862 7.43808 0.182053 3.34883 25.4513
2742264 4.47826 5.3522 8.14954 7.36324 0.0864476 3.36321 25.3432
2742274 4.50435 5.31484 8.12862 7.41937 0.0997752 3.38753 25.3672
2742290 4.50435 5.31484 8.12862 7.41937 0.0997752 3.38753 25.3672
2742295 4.50435 5.31484 8.18092 7.46615 0.0939667 3.43271 25.4663
2742305 4.47826 5.34286 8.23323 7.4568 0.0863969 3.45079 25.5111
2742327 4.54783 5.38956 8.23323 7.46615 0.0728041 3.37133 25.6368
2742335 4.54783 5.38956 8.23323 7.46615 0.0728041 3.37133 25.6368
2742347 4.46957 5.38022 8.17046 7.48487 0.220603 3.41434 25.5051
2742355 4.48696 5.28681 8.19138 7.4568 0.0641882 3.46615 25.4219
2742376 4.47826 5.30549 8.22277 7.47551 0.0784636 3.48158 25.482
2742389 4.44348 5.29615 8.24369 7.4568 0.0646412 3.51464 25.4401
2742396 4.44348 5.29615 8.24369 7.4568 0.0646412 3.51464 25.4401
2742408 4.48696 5.26813 8.23323 7.48487 0.0321984 3.51134 25.4732
2742416 4.48696 5.26813 8.23323 7.48487 0.0321984 3.51134 25.4732
2742426 4.48696 5.26813 8.17046 7.48487 0.0940323 3.48296 25.4104
2742436 4.45217 5.26813 8.28554 7.52229 0.0516176 3.57695 25.5281
2742447 4.45217 5.26813 8.28554 7.52229 0.0516176 3.57695 25.5281
2742457 4.46957 5.29615 8.32738 7.55971 0.0574172 3.57936 25.6528
2742468 4.44348 5.26813 8.296 7.50358 0.0315845 3.57959 25.5112
2742476 4.44348 5.26813 8.296 7.50358 0.0315845 3.57959 25.5112
2742489 4.43478 5.25879 8.30646 7.55971 0.0755697 3.62245 25.5597
2742498 4.43478 5.25879 8.30646 7.55971 0.0755697 3.62245 25.5597
2742509 4.45217 5.28681 8.26462 7.44744 0.0171572 3.52033 25.451
2742518 4.44348 5.17473 8.33785 7.4568 -0.147368 3.64566 25.4128
2742529 4.44348 5.17473 8.33785 7.4568 -0.147368 3.64566 25.4128
2742538 4.45217 5.18407 8.26462 7.50358 -0.0286847 3.6206 25.4044
2742550 4.42609 5.17473 8.30646 7.52229 -0.0349343 3.67364 25.4296
2742558 4.42609 5.17473 8.30646 7.52229 -0.0349343 3.67364 25.4296
2742569 4.4 5.24011 8.31692 7.541 0.0629336 3.65782 25.498
2742578 4.4 5.24011 8.31692 7.541 0.0629336 3.65782 25.498
2742590 4.42609 5.17473 8.22277 7.55971 0.0842899 3.653 25.3833
2742598 4.46957 5.21209 8.36923 7.52229 -0.102079 3.64241 25.5732
2742610 4.46957 5.21209 8.36923 7.52229 -0.102079 3.64241 25.5732
2742619 4.42609 5.23077 8.24369 7.46615 0.0267506 3.57929 25.3667
2742630 4.4087 5.18407 8.30646 7.53165 0.000542402 3.68372 25.4309
2742639 4.4087 5.18407 8.30646 7.53165 0.000542402 3.68372 25.4309
2742649 4.46087 5.24011 8.31692 7.55971 0.0215352 3.62172 25.5776
2742659 4.46087 5.24011 8.31692 7.55971 0.0215352 3.62172 25.5776
2742670 4.4087 5.17473 8.35877 7.55036 -0.0415638 3.72209 25.4925
2742679 4.4 5.20275 8.27508 7.57843 0.104198 3.68323 25.4562
2742691 4.4 5.20275 8.27508 7.57843 0.104198 3.68323 25.4562
2742699 4.38261 5.18407 8.30646 7.55036 0.0445962 3.71122 25.4235
2742710 4.35652 5.18407 8.26462 7.51293 0.0749081 3.69515 25.3181
2742719 4.35652 5.18407 8.26462 7.51293 0.0749081 3.69515 25.3181
2742730 4.45217 5.25879 8.34831 7.56907 0.0267118 3.63255 25.6283
2742739 4.45217 5.25879 8.34831 7.56907 0.0267118 3.63255 25.6283
2742749 4.43478 5.20275 8.26462 7.55036 0.0527531 3.64057 25.4525
2742759 4.42609 5.24945 8.22277 7.52229 0.120851 3.58146 25.4206
2742779 4.47826 5.19341 8.24369 7.51293 -0.0153512 3.58948 25.4283
2742789 4.43478 5.23077 8.20185 7.51293 0.105467 3.57515 25.3803
2742799 4.43478 5.23077 8.20185 7.51293 0.105467 3.57515 25.3803
2742810 4.43478 5.27747 8.20185 7.49422 0.132897 3.53259 25.4083
2742819 4.43478 5.27747 8.20185 7.49422 0.132897 3.53259 25.4083
2742829 4.47826 5.24011 8.22277 7.43808 -0.0224933 3.51221 25.3792
2742839 4.48696 5.33352 8.23323 7.43808 0.0504225 3.44278 25.4918
2742849 4.48696 5.33352 8.23323 7.43808 0.0504225 3.44278 25.4918
2742859 4.50435 5.36154 8.25415 7.44744 0.0493556 3.42371 25.5675
2742869 4.50435 5.36154 8.25415 7.44744 0.0493556 3.42371 25.5675
2742879 4.48696 5.27747 8.28554 7.42873 -0.065048 3.50283 25.4787
2742889 4.47826 5.34286 8.19138 7.41002 0.0818461 3.41053 25.4225
2742899 4.47826 5.34286 8.19138 7.41002 0.0818461 3.41053 25.4225
2742914 4.47826 5.27747 8.09723 7.38195 0.0831485 3.4021 25.2349
2742923 4.51304 5.34286 8.13908 7.38195 0.071606 3.34859 25.3769
2742931 4.51304 5.34286 8.13908 7.38195 0.071606 3.34859 25.3769
2742940 4.50435 5.36154 8.18092 7.38195 0.0572324 3.36056 25.4288
2742950 4.50435 5.36154 8.18092 7.38195 0.0572324 3.36056 25.4288
2742960 4.50435 5.3989 8.13908 7.34452 0.0984758 3.29719 25.3869
2742971 4.53913 5.38022 8.22277 7.3913 0.00942647 3.34545 25.5334
2742991 4.54783 5.43626 8.17046 7.34452 0.0612736 3.25359 25.4991
2743000 4.52174 5.43626 8.11815 7.32581 0.120249 3.23949 25.402
2743013 4.52174 5.43626 8.11815 7.32581 0.120249 3.23949 25.402
2743020 4.58261 5.50165 8.12862 7.27903 0.0681162 3.1324 25.4919
2743030 4.58261 5.50165 8.12862 7.27903 0.0681162 3.1324 25.4919
2743040 4.53043 5.47363 8.18092 7.27903 0.0405461 3.21389 25.464
2743050 4.58261 5.43626 8.06585 7.22289 0.0105739 3.12349 25.3076
2743060 4.58261 5.43626 8.06585 7.22289 0.0105739 3.12349 25.3076
2743070 4.58261 5.50165 8.06585 7.21354 0.0657737 3.07238 25.3636
2743080 4.61739 5.49231 8.04492 7.28839 0.116321 3.0796 25.443
2743102 4.67826 5.48297 8.06585 7.19483 -0.065212 3.00889 25.4219
2743112 4.67826 5.48297 8.06585 7.19483 -0.065212 3.00889 25.4219
2743121 4.64348 5.51099 8.08677 7.19483 -0.0240117 3.02354 25.4361
2743131 4.64348 5.52033 8.05538 7.22289 0.0435889 3.01536 25.4421
2743141 4.64348 5.52033 8.05538 7.22289 0.0435889 3.01536 25.4421
2743151 4.72174 5.53901 8.01354 7.1574 -0.0382051 2.89611 25.4317
2743161 4.62609 5.48297 7.97169 7.23225 0.115988 3.01914 25.313
2743173 4.62609 5.48297 7.97169 7.23225 0.115988 3.01914 25.313
2743181 4.65217 5.50165 8.09723 7.24161 -0.0060305 3.05089 25.4927
2743192 4.65217 5.50165 8.09723 7.24161 -0.0060305 3.05089 25.4927
2743202 4.64348 5.49231 8.10769 7.18547 -0.0721544 3.04223 25.4289
2743216 4.6 5.52967 8.05538 7.19483 0.0680774 3.02634 25.3799
2743221 4.6 5.52967 8.05538 7.19483 0.0680774 3.02634 25.3799
2743232 4.66957 5.50165 8.05538 7.24161 0.0179708 3.01893 25.4682
2743241 4.63478 5.47363 8.08677 7.22289 -0.0246197 3.06942 25.4181
2743253 4.63478 5.47363 8.08677 7.22289 -0.0246197 3.06942 25.4181
2743261 4.66957 5.48297 8.09723 7.26032 -0.0230402 3.06056 25.5101
2743272 4.66957 5.48297 8.09723 7.26032 -0.0230402 3.06056 25.5101
2743281 4.62609 5.48297 8.10769 7.19483 -0.0550792 3.06561 25.4116
2743292 4.61739 5.50165 8.11815 7.3071 0.0716418 3.11589 25.5443
2743311 4.61739 5.52033 8.06585 7.25096 0.0864834 3.05196 25.4545
2743323 4.61739 5.52967 8.03446 7.25096 0.126591 3.03059 25.4325
2743332 4.61739 5.52967 8.03446 7.25096 0.126591 3.03059 25.4325
2743341 4.6087 5.52967 8.04492 7.28839 0.161394 3.05925 25.4717
2743352 4.6087 5.52967 8.04492 7.28839 0.161394 3.05925 25.4717
2743361 4.58261 5.51099 8.03446 7.16676 0.0599682 3.02885 25.2948
2743373 4.67826 5.57637 8.00308 7.21354 0.106564 2.92211 25.4713
2743382 4.67826 5.57637 8.00308 7.21354 0.106564 2.92211 25.4713
2743393 4.69565 5.51099 7.98215 7.21354 0.045982 2.94602 25.4023
2743402 4.69565 5.51099 7.98215 7.21354 0.045982 2.94602 25.4023
2743412 4.62609 5.50165 8.00308 7.25096 0.12159 3.02952 25.3818
2743423 4.70435 5.52033 8.07631 7.19483 -0.0642225 2.96899 25.4958
2743433 4.70435 5.52033 8.07631 7.19483 -0.0642225 2.96899 25.4958
2743443 4.61739 5.50165 8.07631 7.24161 0.0487059 3.06574 25.437
2743453 4.62609 5.46429 8.01354 7.19483 0.0192583 3.03453 25.2987
2743463 4.62609 5.46429 8.01354 7.19483 0.0192583 3.03453 25.2987
2743473 4.66087 5.58571 7.95077 7.1574 0.129637 2.87614 25.3548
2743493 4.63478 5.4456 7.99262 7.22289 0.0406206 3.04503 25.2959
2743503 4.64348 5.49231 8.10769 7.22289 -0.0353098 3.0598 25.4664
2743523 4.62609 5.53901 8.05538 7.16676 0.0239283 2.98795 25.3872
2743534 4.66957 5.53901 8.12862 7.21354 -0.0446483 3.01376 25.5507
2743544 4.66957 5.53901 8.12862 7.21354 -0.0446483 3.01376 25.5507
2743555 4.64348 5.52967 8.05538 7.28839 0.11678 3.03953 25.5169
2743570 4.64348 5.52967 8.05538 7.28839 0.11678 3.03953 25.5169
2743575 4.62609 5.48297 8.14954 7.23225 -0.059247 3.10272 25.4908
2743584 4.63478 5.43626 8.06585 7.20418 -0.0593752 3.0774 25.3411
2743596 4.63478 5.43626 8.06585 7.20418 -0.0593752 3.0774 25.3411
2743604 4.6 5.46429 8.09723 7.23225 -0.000683963 3.11013 25.3938
2743615 4.62609 5.47363 8.10769 7.21354 -0.0458434 3.08103 25.4209
2743624 4.62609 5.47363 8.10769 7.21354 -0.0458434 3.08103 25.4209
2743635 4.61739 5.52967 8.09723 7.23225 0.0464141 3.05129 25.4765
2743644 4.61739 5.52967 8.08677 7.23225 0.0567049 3.04638 25.4661
2743654 4.6 5.51099 8.08677 7.1574 -0.0181183 3.03677 25.3552
2743664 4.6 5.42692 8.08677 7.25096 -0.00875443 3.14067 25.3647
2743675 4.6 5.42692 8.08677 7.25096 -0.00875443 3.14067 25.3647
2743684 4.62609 5.47363 8.00308 7.17611 0.020349 3.01406 25.2789
2743695 4.6087 5.53901 8.05538 7.22289 0.096187 3.02677 25.426
2743716 4.65217 5.57637 8.00308 7.22289 0.141448 2.94491 25.4545
2743725 4.65217 5.57637 8.00308 7.22289 0.141448 2.94491 25.4545
2743736 4.66957 5.47363 7.99262 7.20418 0.0154197 2.99148 25.34
2743745 4.66957 5.50165 8.07631 7.25096 0.00660717 3.03315 25.4985
2743757 4.66957 5.50165 8.07631 7.25096 0.00660717 3.03315 25.4985
2743765 4.64348 5.50165 8.024 7.20418 0.0377893 3.00496 25.3733
2743776 4.61739 5.53901 8.08677 7.17611 0.0107855 3.01335 25.4193
2743785 4.61739 5.53901 8.08677 7.17611 0.0107855 3.01335 25.4193
2743797 4.61739 5.53901 8.06585 7.23225 0.0864536 3.02993 25.4545
2743805 4.61739 5.53901 8.06585 7.23225 0.0864536 3.02993 25.4545
2743815 4.64348 5.47363 7.98215 7.21354 0.0607699 3.0095 25.3128
2743825 4.62609 5.45495 8.06585 7.23225 -0.00466406 3.08348 25.3791
2743840 4.62609 5.45495 8.06585 7.23225 -0.00466406 3.08348 25.3791
2743845 4.6 5.55769 8.01354 7.26968 0.210124 3.02201 25.4409
2743855 4.6 5.42692 8.06585 7.26968 0.0303119 3.13964 25.3624
2743865 4.6 5.42692 8.06585 7.26968 0.0303119 3.13964 25.3624
2743875 4.6087 5.49231 8.05538 7.27903 0.105423 3.08629 25.4354
2743886 4.6087 5.49231 8.05538 7.27903 0.105423 3.08629 25.4354
2743895 4.56522 5.42692 8.024 7.27903 0.115374 3.14935 25.2952
2743906 4.56522 5.51099 8.07631 7.27903 0.145975 3.11373 25.4315
2743915 4.56522 5.51099 8.07631 7.27903 0.145975 3.11373 25.4315
2743925 4.57391 5.43626 8.06585 7.26968 0.065276 3.15163 25.3457
2743935 4.6 5.43626 8.04492 7.29774 0.0877559 3.13631 25.3789
2743947 4.6 5.43626 8.04492 7.29774 0.0877559 3.13631 25.3789
2743956 4.56522 5.52033 8.12862 7.32581 0.149092 3.15322 25.54
2743966 4.56522 5.52033 8.12862 7.32581 0.149092 3.15322 25.54
2743976 4.53043 5.4456 8.06585 7.22289 0.07146 3.15422 25.2648
2743987 4.57391 5.52033 8.03446 7.29774 0.206181 3.09007 25.4264
2744008 4.57391 5.52967 8.03446 7.26968 0.187904 3.07026 25.4077
2744016 4.62609 5.4456 8.024 7.25096 0.0458449 3.07927 25.3467
2744026 4.62609 5.4456 8.024 7.25096 0.0458449 3.07927 25.3467
2744036 4.5913 5.47363 8.05538 7.28839 0.113469 3.11636 25.4087
2744050 4.5913 5.47363 8.05538 7.28839 0.113469 3.11636 25.4087
2744056 4.55652 5.50165 8.06585 7.27903 0.155801 3.1217 25.403
2744068 4.6087 5.52033 8.07631 7.36324 0.19415 3.11546 25.5686
2744078 4.6087 5.52033 8.07631 7.36324 0.19415 3.11546 25.5686
2744090 4.56522 5.47363 8.09723 7.38195 0.189206 3.19794 25.518
2744098 4.56522 5.4456 8.05538 7.40066 0.221524 3.20724 25.4669
2744118 4.55652 5.4456 8.06585 7.38195 0.201556 3.20964 25.4499
2744139 4.53913 5.40824 8.04492 7.34452 0.16647 3.22184 25.3368
2744149 4.54783 5.41758 8.06585 7.36324 0.164551 3.22728 25.3945
2744159 4.54783 5.41758 8.06585 7.36324 0.164551 3.22728 25.3945
2744169 4.53043 5.37088 8.10769 7.41002 0.140414 3.31429 25.419
2744179 4.50435 5.37088 8.05538 7.44744 0.254735 3.32626 25.3781
2744194 4.50435 5.37088 8.05538 7.44744 0.254735 3.32626 25.3781
2744203 4.54783 5.36154 8.14954 7.41002 0.072825 3.3277 25.4689
2744219 4.47826 5.29615 8.19138 7.46615 0.0910878 3.46992 25.432
2744229 4.47826 5.28681 8.16 7.44744 0.0945836 3.45395 25.3725
2744239 4.47826 5.28681 8.16 7.44744 0.0945836 3.45395 25.3725
2744249 4.49565 5.26813 8.25415 7.49422 0.0122935 3.51867 25.5122
2744262 4.48696 5.24011 8.26462 7.46615 -0.0444919 3.53744 25.4578
2744269 4.48696 5.24011 8.26462 7.46615 -0.0444919 3.53744 25.4578
2744279 4.51304 5.19341 8.25415 7.49422 -0.0781476 3.56038 25.4548
2744289 4.51304 5.19341 8.25415 7.49422 -0.0781476 3.56038 25.4548
2744300 4.4087 5.23077 8.19138 7.53165 0.160015 3.59797 25.3625
2744309 4.43478 5.24011 8.20185 7.53165 0.132951 3.57673 25.4084
2744331 4.46957 5.23077 8.17046 7.60649 0.193539 3.57767 25.4773
2744341 4.43478 5.17473 8.22277 7.61585 0.130683 3.67165 25.4481
2744360 4.41739 5.32418 8.21231 7.57843 0.267211 3.55383 25.5323
2744372 4.41739 5.32418 8.21231 7.57843 0.267211 3.55383 25.5323
2744380 4.43478 5.23077 8.18092 7.56907 0.181121 3.59098 25.4155
2744390 4.43478 5.26813 8.14954 7.55971 0.239578 3.54535 25.4122
2744400 4.43478 5.26813 8.14954 7.55971 0.239578 3.54535 25.4122
2744410 4.4087 5.25879 8.22277 7.55036 0.174609 3.59994 25.4406
2744420 4.45217 5.24945 8.21231 7.541 0.123718 3.56612 25.4549
2744430 4.45217 5.24945 8.21231 7.541 0.123718 3.56612 25.4549
2744440 4.46957 5.22143 8.20185 7.541 0.0894636 3.56917 25.4338
2744450 4.46957 5.22143 8.20185 7.541 0.0894636 3.56917 25.4338
2744460 4.45217 5.25879 8.19138 7.53165 0.144374 3.54569 25.434
2744473 4.46957 5.26813 8.19138 7.56907 0.172812 3.54306 25.4981
2744481 4.46957 5.26813 8.19138 7.56907 0.172812 3.54306 25.4981
2744490 4.44348 5.28681 8.16 7.53165 0.211412 3.51745 25.4219
2744500 4.41739 5.23077 8.20185 7.53165 0.141025 3.5963 25.3817
2744510 4.41739 5.23077 8.20185 7.53165 0.141025 3.5963 25.3817
2744522 4.51304 5.27747 8.16 7.53165 0.1335 3.47368 25.4822
2744530 4.51304 5.27747 8.16 7.53165 0.1335 3.47368 25.4822
2744542 4.4087 5.20275 8.17046 7.59714 0.217432 3.63853 25.379
2744550 4.43478 5.21209 8.21231 7.55971 0.122657 3.61453 25.4189
2744561 4.43478 5.21209 8.21231 7.55971 0.122657 3.61453 25.4189
2744570 4.46087 5.25879 8.24369 7.56907 0.120726 3.57962 25.5324
2744583 4.4087 5.21209 8.24369 7.52229 0.0807405 3.63095 25.3868
2744603 4.41739 5.20275 8.22277 7.55036 0.111195 3.63462 25.3933
2744624 4.37391 5.19341 8.25415 7.55036 0.114003 3.68747 25.3718
2744631 4.41739 5.15604 8.32738 7.55971 -0.028494 3.71968 25.4605
2744641 4.41739 5.15604 8.32738 7.55971 -0.028494 3.71968 25.4605
2744651 4.41739 5.17473 8.26462 7.56907 0.060755 3.68223 25.4258
2744665 4.36522 5.17473 8.20185 7.67199 0.275099 3.73846 25.4138
2744671 4.36522 5.17473 8.20185 7.67199 0.275099 3.73846 25.4138
2744685 4.41739 5.15604 8.26462 7.55971 0.0332206 3.6918 25.3978
2744691 4.41739 5.15604 8.26462 7.55971 0.0332206 3.6918 25.3978
2744701 4.3913 5.13736 8.24369 7.58778 0.0888675 3.72798 25.3601
2744712 4.36522 5.13736 8.31692 7.68134 0.133881 3.82086 25.5008
2744721 4.36522 5.13736 8.31692 7.68134 0.133881 3.82086 25.5008
2744731 4.4087 5.1 8.33785 7.66263 0.0157684 3.81732 25.5092
2744741 4.4087 5.1 8.33785 7.66263 0.0157684 3.81732 25.5092
2744751 4.34783 5.0533 8.36923 7.59714 -0.065659 3.88208 25.3675
2744761 4.45217 5.02527 8.36923 7.70941 -0.0848323 3.87453 25.5561
2744781 4.3913 5.10934 8.28554 7.65327 0.0842929 3.79617 25.4395
2744791 4.37391 5.08132 8.35877 7.67199 0.0202298 3.87008 25.486
2744801 4.37391 5.08132 8.35877 7.67199 0.0202298 3.87008 25.486
2744812 4.34783 5.1 8.31692 7.66263 0.0962347 3.85316 25.4274
2744822 4.34783 5.1 8.31692 7.66263 0.0962347 3.85316 25.4274
2744833 4.30435 5.04396 8.37969 7.63456 -0.00544488 3.9424 25.3626
2744851 4.36522 5.0533 8.44246 7.70006 -0.0531361 3.94585 25.561
2744853 4.36522 5.0533 8.44246 7.70006 -0.0531361 3.94585 25.561
2744863 4.34783 5.12802 8.40062 7.67199 0.0504613 3.87308 25.5485
2744873 4.27826 5.07198 8.34831 7.70941 0.152335 3.95987 25.408
2744884 4.27826 5.07198 8.34831 7.70941 0.152335 3.95987 25.408
2744894 4.31304 5.00659 8.46338 7.66263 -0.105327 4.0123 25.4457
2744904 4.28696 5.00659 8.41108 7.66263 -0.0283912 4.0092 25.3673
2744914 4.28696 5.01593 8.41108 7.64392 -0.0376403 3.99408 25.3579
2744924 4.30435 4.98791 8.53662 7.7749 -0.0763074 4.11224 25.6038
2744934 4.30435 4.98791 8.53662 7.7749 -0.0763074 4.11224 25.6038
2744944 4.23478 4.93187 8.54708 7.70941 -0.138241 4.1831 25.4231
2744954 4.24348 4.99725 8.55754 7.76555 -0.0373721 4.15569 25.5638
2744964 4.24348 4.99725 8.55754 7.76555 -0.0373721 4.15569 25.5638
2744974 4.28696 4.95989 8.55754 7.76555 -0.116403 4.15111 25.5699
2744984 4.28696 4.95989 8.55754 7.76555 -0.116403 4.15111 25.5699
2744994 4.21739 4.93187 8.58892 7.78426 -0.0883415 4.24563 25.5224
2745004 4.26957 4.94121 8.58892 7.8404 -0.0749663 4.223 25.6401
2745014 4.26957 4.94121 8.58892 7.8404 -0.0749663 4.223 25.6401
2745024 4.21739 4.97857 8.50523 7.7749 0.0302762 4.17107 25.4761
2745034 4.24348 4.95055 8.59938 7.79362 -0.0964314 4.22029 25.587
2745044 4.24348 4.95055 8.59938 7.79362 -0.0964314 4.22029 25.587
2745055 4.2087 4.95055 8.59938 7.83104 -0.0258788 4.26218 25.5897
2745064 4.2087 4.95055 8.59938 7.83104 -0.0258788 4.26218 25.5897
2745076 4.16522 4.89451 8.57846 7.8404 -0.00861287 4.33254 25.4786
2745084 4.18261 4.95055 8.58892 7.86846 0.0463843 4.29313 25.5905
2745105 4.18261 4.95055 8.58892 7.86846 0.0463843 4.29313 25.5905
2745106 4.2087 4.88516 8.568 7.84975 -0.0409424 4.30621 25.5116
2745124 4.17391 4.83846 8.63077 7.90589 -0.0590354 4.41755 25.549
2745134 4.17391 4.86648 8.60985 7.93396 0.0163019 4.39924 25.5842
2745145 4.17391 4.86648 8.60985 7.93396 0.0163019 4.39924 25.5842
2745155 4.15652 4.89451 8.704 7.97138 0.00521243 4.44544 25.7264
2745165 4.12174 4.82912 8.66215 7.98074 0.0253618 4.50815 25.5938
2745175 4.12174 4.82912 8.66215 7.98074 0.0253618 4.50815 25.5938
2745185 4.15652 4.86648 8.58892 7.85911 -0.0194862 4.37263 25.471
2745195 4.2 4.81044 8.58892 7.81233 -0.163463 4.36265 25.4117
2745215 4.16522 4.8011 8.57846 7.79362 -0.146973 4.38412 25.3384
2745225 4.16522 4.8011 8.57846 7.79362 -0.146973 4.38412 25.3384
2745235 4.1913 4.79176 8.66215 7.74684 -0.310005 4.38676 25.3921
2745246 4.16522 4.81044 8.67262 7.83104 -0.19266 4.43183 25.4793
2745267 4.1913 4.83846 8.704 7.83104 -0.220814 4.40368 25.5648
2745277 4.23478 4.85714 8.73538 7.86846 -0.237939 4.38511 25.6958
2745287 4.23478 4.85714 8.73538 7.86846 -0.237939 4.38511 25.6958
2745296 4.23478 4.81044 8.73538 7.82168 -0.330091 4.40108 25.6023
2745308 4.23478 4.81044 8.73538 7.82168 -0.330091 4.40108 25.6023
2745318 4.2 4.82912 8.704 7.80297 -0.266199 4.39252 25.5361
2745328 4.22609 4.82912 8.73538 7.79362 -0.330999 4.38188 25.5842
2745336 4.22609 4.82912 8.73538 7.79362 -0.330999 4.38188 25.5842
2745348 4.21739 4.85714 8.704 7.75619 -0.301605 4.3386 25.5347
2745356 4.18261 4.83846 8.66215 7.79362 -0.208704 4.37733 25.4768
2745369 4.18261 4.83846 8.66215 7.79362 -0.208704 4.37733 25.4768
2745376 4.32174 4.8478 8.66215 7.83104 -0.297172 4.28071 25.6627
2745386 4.32174 4.8478 8.66215 7.83104 -0.297172 4.28071 25.6627
2745396 4.22609 4.81978 8.57846 7.78426 -0.197284 4.31952 25.4086
2745406 4.23478 4.85714 8.57846 7.81233 -0.14105 4.29636 25.4827
2745416 4.23478 4.85714 8.57846 7.81233 -0.14105 4.29636 25.4827
2745430 4.2087 4.8478 8.568 7.83104 -0.0960991 4.32669 25.4555
2745438 4.16522 4.88516 8.57846 7.90589 0.0463814 4.36697 25.5347
2745450 4.16522 4.88516 8.57846 7.90589 0.0463814 4.36697 25.5347
2745457 4.17391 4.89451 8.60985 7.99009 0.0982165 4.40125 25.6684
2745473 4.17391 4.89451 8.60985 7.99009 0.0982165 4.40125 25.6684
2745481 4.16522 4.81978 8.62031 7.88718 -0.0770494 4.4263 25.4925
2745491 4.1913 4.8011 8.59938 7.90589 -0.0820681 4.41974 25.4977
2745498 4.1913 4.8011 8.59938 7.90589 -0.0820681 4.41974 25.4977
2745508 4.14783 4.86648 8.59938 7.98074 0.097689 4.43406 25.5944
2745518 4.16522 4.82912 8.54708 7.93396 0.0498384 4.40819 25.4754
2745538 4.13043 4.83846 8.66215 7.96203 0.00771582 4.48673 25.5931
2745548 4.13043 4.83846 8.66215 7.96203 0.00771582 4.48673 25.5931
2745558 4.14783 4.82912 8.66215 7.93396 -0.0458509 4.46906 25.5731
2745570 4.11304 4.83846 8.68308 7.96203 0.00426471 4.50856 25.5966
2745578 4.11304 4.83846 8.68308 7.96203 0.00426471 4.50856 25.5966
2745589 4.13913 4.79176 8.64123 7.95267 -0.035198 4.50327 25.5248
2745598 4.12174 4.77308 8.72492 7.89653 -0.173472 4.54218 25.5163
2745609 4.12174 4.77308 8.72492 7.89653 -0.173472 4.54218 25.5163
2745618 4.16522 4.72637 8.74585 7.98074 -0.199029 4.58756 25.6182
2745639 4.07826 4.72637 8.75631 7.87782 -0.226399 4.61667 25.4388
2745649 4.02609 4.73571 8.78769 7.95267 -0.122926 4.69287 25.5022
2745659 4.02609 4.73571 8.78769 7.95267 -0.122926 4.69287 25.5022
2745669 4.08696 4.73571 8.85046 7.88718 -0.307634 4.64488 25.5603
2745679 4.01739 4.7544 8.85046 7.9246 -0.184813 4.69917 25.5469
2745691 4.01739 4.7544 8.85046 7.9246 -0.184813 4.69917 25.5469
2745699 4.06957 4.70769 8.81908 7.96203 -0.214142 4.69739 25.5584
2745712 4.06957 4.70769 8.81908 7.96203 -0.214142 4.69739 25.5584
2745719 4.01739 4.69835 8.80862 7.96203 -0.162467 4.74071 25.4864
2745732 4.07826 4.79176 8.85046 7.86846 -0.262322 4.60095 25.5889
2745739 4.07826 4.79176 8.85046 7.86846 -0.262322 4.60095 25.5889
2745749 4.10435 4.78242 8.82954 7.88718 -0.258064 4.58724 25.6035
2745771 4.06957 4.7544 8.72492 7.89653 -0.141047 4.5966 25.4454
2745779 4.08696 4.79176 8.82954 7.88718 -0.232033 4.5934 25.5954
2745792 4.08696 4.79176 8.82954 7.88718 -0.232033 4.5934 25.5954
2745799 4.07826 4.7544 8.75631 7.87782 -0.198646 4.59509 25.4668
2745812 4.10435 4.81044 8.76677 7.87782 -0.178856 4.53638 25.5594
2745819 4.10435 4.81044 8.76677 7.87782 -0.178856 4.53638 25.5594
2745829 4.15652 4.81978 8.80862 7.87782 -0.260627 4.50661 25.6627
2745840 4.10435 4.81978 8.75631 7.90589 -0.131892 4.53645 25.5863
2745850 4.10435 4.7544 8.75631 7.90589 -0.196283 4.5865 25.5209
2745860 4.13043 4.7544 8.80862 7.88718 -0.290728 4.5802 25.5806
2745880 4.12174 4.72637 8.84 7.87782 -0.349629 4.6173 25.5659
2745890 4.10435 4.8011 8.75631 7.85911 -0.196356 4.53157 25.5209
2745900 4.10435 4.8011 8.75631 7.85911 -0.196356 4.53157 25.5209
2745910 4.18261 4.81044 8.77723 7.85911 -0.283162 4.47336 25.6294
2745930 4.08696 4.67967 8.77723 7.81233 -0.36696 4.62782 25.3562
2745943 4.13913 4.83846 8.73538 7.88718 -0.145389 4.47945 25.6002
2745950 4.13913 4.83846 8.73538 7.88718 -0.145389 4.47945 25.6002
2745960 4.10435 4.73571 8.78769 7.82168 -0.328733 4.57926 25.4494
2745970 4.13043 4.79176 8.80862 7.91525 -0.226203 4.56308 25.6461
2745980 4.13043 4.79176 8.80862 7.91525 -0.226203 4.56308 25.6461
2745990 4.12174 4.78242 8.78769 7.85911 -0.262128 4.54541 25.551
2746000 4.12174 4.78242 8.78769 7.85911 -0.262128 4.54541 25.551
2746010 4.12174 4.81978 8.74585 7.83104 -0.212361 4.48815 25.5184
2746020 4.13043 4.87582 8.80862 7.87782 -0.180407 4.48387 25.6927
2746030 4.13043 4.87582 8.80862 7.87782 -0.180407 4.48387 25.6927
2746040 4.12174 4.8478 8.73538 7.84975 -0.156105 4.47018 25.5547
2746053 4.14783 4.82912 8.68308 7.88718 -0.112152 4.4584 25.5472
2746060 4.14783 4.82912 8.68308 7.88718 -0.112152 4.4584 25.5472
2746070 4.14783 4.87582 8.66215 7.87782 -0.0550941 4.41036 25.5636
2746092 4.12174 4.83846 8.67262 7.87782 -0.07651 4.46298 25.5106
2746101 4.14783 4.8478 8.63077 7.88718 -0.042738 4.42254 25.5136
2746111 4.14783 4.8478 8.63077 7.88718 -0.042738 4.42254 25.5136
2746121 4.13913 4.86648 8.67262 7.8404 -0.102735 4.41289 25.5186
2746135 4.17391 4.90385 8.568 7.84975 0.011459 4.3184 25.4955
2746143 4.17391 4.90385 8.568 7.84975 0.011459 4.3184 25.4955
2746153 4.25217 4.89451 8.50523 7.83104 -0.0312522 4.232 25.4829
2746164 4.25217 4.89451 8.50523 7.83104 -0.0312522 4.232 25.4829
2746173 4.1913 4.89451 8.568 7.86846 0.00359118 4.32014 25.5223
2746183 4.21739 4.96923 8.55754 7.72812 -0.0761375 4.18045 25.4723
2746203 4.17391 4.95989 8.50523 7.74684 0.0271618 4.20604 25.3859
2746213 4.27826 4.94121 8.53662 7.72812 -0.142777 4.14684 25.4842
2746223 4.27826 4.94121 8.53662 7.72812 -0.142777 4.14684 25.4842
2746233 4.26087 5.00659 8.53662 7.81233 0.0209212 4.14665 25.6164
2746253 4.25217 5.03462 8.46338 7.75619 0.0737578 4.07709 25.5064
2746263 4.30435 5.01593 8.48431 7.73748 -0.0344947 4.05302 25.5421
2746273 4.30435 5.01593 8.48431 7.73748 -0.0344947 4.05302 25.5421
2746285 4.27826 4.99725 8.39015 7.73748 0.0652611 4.04602 25.4031
2746293 4.28696 5.07198 8.48431 7.70941 0.00990629 4.01218 25.5527
2746304 4.28696 5.07198 8.48431 7.70941 0.00990629 4.01218 25.5527
2746313 4.36522 5.06264 8.40062 7.68134 -0.0214159 3.91267 25.5098
2746328 4.36522 5.06264 8.40062 7.68134 -0.0214159 3.91267 25.5098
2746333 4.33043 5.09066 8.46338 7.63456 -0.0672042 3.92463 25.519
2746343 4.33043 5.1 8.42154 7.64392 -0.0079006 3.90358 25.4959
2746364 4.33043 5.08132 8.41108 7.58778 -0.071241 3.8884 25.4106
2746374 4.31304 5.0533 8.37969 7.59714 -0.0417277 3.91259 25.3432
2746384 4.31304 5.0533 8.37969 7.59714 -0.0417277 3.91259 25.3432
2746394 4.35652 5.1 8.33785 7.59714 0.00272691 3.82714 25.3915
2746407 4.35652 5.1 8.33785 7.59714 0.00272691 3.82714 25.3915
2746414 4.34783 5.00659 8.40062 7.60649 -0.133425 3.93471 25.3615
2746424 4.34783 5.10934 8.46338 7.64392 -0.0566721 3.90198 25.5645
2746434 4.34783 5.10934 8.46338 7.64392 -0.0566721 3.90198 25.5645
2746444 4.44348 5.11868 8.42154 7.59714 -0.145809 3.78595 25.5808
2746454 4.37391 5.13736 8.33785 7.55971 -0.0144452 3.77012 25.4088
2746464 4.37391 5.13736 8.33785 7.55971 -0.0144452 3.77012 25.4088
2746474 4.4 5.12802 8.432 7.60649 -0.0953242 3.81973 25.5665
2746484 4.4 5.12802 8.432 7.60649 -0.0953242 3.81973 25.5665
2746494 4.42609 5.08132 8.37969 7.53165 -0.189638 3.77906 25.4187
2746504 4.42609 5.1467 8.39015 7.53165 -0.135219 3.7355 25.4946
2746514 4.42609 5.1467 8.39015 7.53165 -0.135219 3.7355 25.4946
2746527 4.45217 5.19341 8.35877 7.56907 -0.0473797 3.68484 25.5734
2746534 4.46087 5.09066 8.30646 7.49422 -0.179915 3.6974 25.3522
2746547 4.46087 5.09066 8.30646 7.49422 -0.179915 3.6974 25.3522
2746555 4.46087 5.21209 8.432 7.52229 -0.154614 3.67656 25.6272
2746566 4.46087 5.21209 8.432 7.52229 -0.154614 3.67656 25.6272
2746576 4.41739 5.15604 8.32738 7.50358 -0.0837982 3.69475 25.4044
2746586 4.46957 5.22143 8.31692 7.46615 -0.0970662 3.58722 25.4741
2746595 4.46957 5.22143 8.31692 7.46615 -0.0970662 3.58722 25.4741
2746606 4.47826 5.22143 8.34831 7.47551 -0.126973 3.59911 25.5235
2746615 4.52174 5.23077 8.32738 7.46615 -0.148949 3.54714 25.546
2746626 4.52174 5.23077 8.32738 7.46615 -0.148949 3.54714 25.546
2746635 4.46957 5.22143 8.32738 7.47551 -0.0980765 3.5961 25.4939
2746646 4.46957 5.22143 8.32738 7.47551 -0.0980765 3.5961 25.4939
2746655 4.46957 5.16538 8.26462 7.3913 -0.175451 3.57103 25.2909
2746666 4.51304 5.26813 8.24369 7.41937 -0.0680238 3.46752 25.4442
2746678 4.51304 5.26813 8.24369 7.41937 -0.0680238 3.46752 25.4442
2746686 4.55652 5.25879 8.26462 7.40066 -0.158636 3.44377 25.4806
2746695 4.55652 5.25879 8.22277 7.3913 -0.127013 3.42051 25.4294
2746706 4.55652 5.25879 8.22277 7.3913 -0.127013 3.42051 25.4294
2746715 4.47826 5.26813 8.24369 7.44744 -0.0062719 3.50549 25.4375
2746736 4.48696 5.25879 8.23323 7.41002 -0.0505924 3.48428 25.389
2746747 4.51304 5.25879 8.24369 7.41002 -0.0864565 3.47006 25.4255
2746771 4.51304 5.25879 8.24369 7.41002 -0.0864565 3.47006 25.4255
2746774 4.51304 5.17473 8.25415 7.41937 -0.170635 3.54029 25.3613
2746776 4.47826 5.25879 8.26462 7.44744 -0.0359967 3.52174 25.4491
2746791 4.47826 5.25879 8.26462 7.44744 -0.0359967 3.52174 25.4491
2746796 4.55652 5.24945 8.30646 7.42873 -0.18089 3.48215 25.5412
2746818 4.50435 5.24011 8.28554 7.43808 -0.109638 3.52157 25.4681
2746828 4.53043 5.26813 8.26462 7.41937 -0.105511 3.46438 25.4826
2746838 4.53043 5.26813 8.26462 7.41937 -0.105511 3.46438 25.4826
2746848 4.47826 5.27747 8.20185 7.42873 0.0256985 3.47127 25.3863
2746858 4.51304 5.28681 8.25415 7.47551 -0.00477433 3.48409 25.5295
2746871 4.51304 5.28681 8.25415 7.47551 -0.00477433 3.48409 25.5295
2746878 4.57391 5.23077 8.32738 7.46615 -0.1996 3.50934 25.5982
2746888 4.57391 5.23077 8.32738 7.46615 -0.1996 3.50934 25.5982
2746898 4.46957 5.25879 8.22277 7.49422 0.0596166 3.53029 25.4453
2746908 4.54783 5.25879 8.28554 7.51293 -0.0601828 3.51015 25.6051
2746918 4.54783 5.25879 8.28554 7.51293 -0.0601828 3.51015 25.6051
2746932 4.49565 5.33352 8.21231 7.4568 0.0807434 3.43549 25.4983
2746938 4.49565 5.22143 8.25415 7.41937 -0.10733 3.51889 25.3906
2746948 4.49565 5.22143 8.25415 7.41937 -0.10733 3.51889 25.3906
2746958 4.55652 5.22143 8.34831 7.42873 -0.249141 3.52128 25.555
2746968 4.55652 5.22143 8.34831 7.42873 -0.249141 3.52128 25.555
2746978 4.49565 5.20275 8.23323 7.38195 -0.1424 3.50609 25.3136
2746988 4.48696 5.16538 8.25415 7.41937 -0.154343 3.56623 25.3259
2746998 4.48696 5.16538 8.25415 7.41937 -0.154343 3.56623 25.3259
2747008 4.52174 5.27747 8.23323 7.47551 -0.00194907 3.47511 25.508
2747018 4.52174 5.27747 8.23323 7.47551 -0.00194907 3.47511 25.508
2747028 4.44348 5.18407 8.25415 7.40066 -0.111647 3.57597 25.2824
2747038 4.48696 5.28681 8.32738 7.41937 -0.105949 3.5107 25.5205
2747048 4.48696 5.28681 8.32738 7.41937 -0.105949 3.5107 25.5205
2747058 4.50435 5.21209 8.296 7.41937 -0.16602 3.53825 25.4318
2747068 4.50435 5.24011 8.24369 7.3913 -0.114881 3.48148 25.3795
2747088 4.51304 5.24945 8.24369 7.42873 -0.0772148 3.48532 25.4349
2747114 4.50435 5.26813 8.33785 7.33517 -0.23471 3.47834 25.4455
2747118 4.52174 5.33352 8.23323 7.37259 -0.0479773 3.38786 25.4611
2747128 4.52174 5.33352 8.23323 7.37259 -0.0479773 3.38786 25.4611
2747138 4.56522 5.27747 8.24369 7.34452 -0.183748 3.38891 25.4309
2747149 4.55652 5.28681 8.28554 7.40066 -0.151381 3.433 25.5295
2747159 4.55652 5.28681 8.28554 7.40066 -0.151381 3.433 25.5295
2747169 4.57391 5.33352 8.26462 7.31646 -0.184941 3.33894 25.4885
2747179 4.57391 5.33352 8.26462 7.31646 -0.184941 3.33894 25.4885
2747189 4.55652 5.24945 8.19138 7.3913 -0.105511 3.41297 25.3887
2747200 4.6 5.36154 8.18092 7.40066 -0.018324 3.30033 25.5431
2747219 4.61739 5.32418 8.19138 7.33517 -0.146683 3.2894 25.4681
2747229 4.5913 5.31484 8.19138 7.28839 -0.176738 3.29334 25.3859
2747239 4.5913 5.31484 8.19138 7.28839 -0.176738 3.29334 25.3859
2747249 4.61739 5.40824 8.20185 7.28839 -0.120129 3.21247 25.5159
2747259 4.61739 5.40824 8.20185 7.28839 -0.120129 3.21247 25.5159
2747269 4.58261 5.33352 8.16 7.29774 -0.109708 3.27598 25.3739
2747279 4.6087 5.40824 8.21231 7.35388 -0.0575393 3.25366 25.5831
2747289 4.6087 5.40824 8.21231 7.35388 -0.0575393 3.25366 25.5831
2747299 4.66087 5.38956 8.21231 7.33517 -0.144981 3.22119 25.5979
2747309 4.57391 5.34286 8.13908 7.32581 -0.0436544 3.27882 25.3817
2747322 4.57391 5.34286 8.13908 7.32581 -0.0436544 3.27882 25.3817
2747329 4.6 5.37088 8.11815 7.36324 0.015682 3.24756 25.4523
2747340 4.6 5.37088 8.11815 7.36324 0.015682 3.24756 25.4523
2747350 4.5913 5.33352 8.18092 7.28839 -0.147989 3.27506 25.3941
2747360 4.65217 5.3522 8.17046 7.28839 -0.178739 3.21315 25.4632
2747370 4.65217 5.3522 8.17046 7.28839 -0.178739 3.21315 25.4632
2747380 4.65217 5.38022 8.14954 7.3071 -0.112198 3.1921 25.489
2747390 4.64348 5.34286 8.21231 7.33517 -0.174043 3.26693 25.5338
2747410 4.64348 5.34286 8.21231 7.33517 -0.174043 3.26693 25.5338
2747411 4.61739 5.41758 8.16 7.33517 -0.024128 3.20809 25.5301
2747438 4.54783 5.32418 8.21231 7.31646 -0.117616 3.34051 25.4008
2747441 4.5913 5.36154 8.17046 7.38195 -0.0179186 3.29318 25.5053
2747453 4.5913 5.36154 8.17046 7.38195 -0.0179186 3.29318 25.5053
2747463 4.54783 5.33352 8.12862 7.37259 0.0292212 3.3211 25.3825
2747473 4.6087 5.33352 8.24369 7.35388 -0.161505 3.3215 25.5398
2747483 4.6087 5.33352 8.24369 7.35388 -0.161505 3.3215 25.5398
2747493 4.57391 5.34286 8.25415 7.41002 -0.0734851 3.37013 25.5809
2747503 4.53913 5.29615 8.23323 7.3913 -0.0833705 3.41082 25.4598
2747513 4.53913 5.29615 8.23323 7.3913 -0.0833705 3.41082 25.4598
2747523 4.57391 5.28681 8.22277 7.35388 -0.153306 3.37058 25.4374
2747535 4.57391 5.28681 8.22277 7.35388 -0.153306 3.37058 25.4374
2747543 4.49565 5.21209 8.18092 7.40066 -0.0630975 3.48399 25.2893
2747554 4.53913 5.21209 8.26462 7.41937 -0.16934 3.49875 25.4352
2747564 4.53913 5.21209 8.26462 7.41937 -0.16934 3.49875 25.4352
2747574 4.55652 5.24011 8.20185 7.34452 -0.171383 3.40315 25.343
2747584 4.52174 5.19341 8.25415 7.46615 -0.114341 3.54141 25.4355
2747594 4.52174 5.19341 8.25415 7.46615 -0.114341 3.54141 25.4355
2747604 4.47826 5.25879 8.33785 7.41002 -0.144497 3.53786 25.4849
2747614 4.47826 5.25879 8.33785 7.41002 -0.144497 3.53786 25.4849
2747624 4.49565 5.23077 8.28554 7.46615 -0.0826851 3.54732 25.4781
2747634 4.49565 5.20275 8.39015 7.47551 -0.20297 3.61871 25.5641
2747644 4.49565 5.20275 8.39015 7.47551 -0.20297 3.61871 25.5641
2747654 4.52174 5.24945 8.32738 7.46615 -0.13057 3.53359 25.5647
2747664 4.50435 5.24011 8.36923 7.42873 -0.200392 3.55497 25.5424
2747674 4.50435 5.24011 8.36923 7.42873 -0.200392 3.55497 25.5424
2747684 4.53043 5.19341 8.35877 7.50358 -0.187819 3.59872 25.5862
2747704 4.45217 5.23077 8.31692 7.3913 -0.144757 3.55948 25.3912
2747715 4.47826 5.22143 8.31692 7.41002 -0.160992 3.55567 25.4266
2747724 4.47826 5.22143 8.31692 7.41002 -0.160992 3.55567 25.4266
2747736 4.46957 5.23077 8.31692 7.44744 -0.106305 3.57202 25.4647
2747744 4.52174 5.17473 8.31692 7.42873 -0.231121 3.56644 25.4421
2747755 4.52174 5.17473 8.31692 7.42873 -0.231121 3.56644 25.4421
2747765 4.45217 5.1467 8.39015 7.43808 -0.253215 3.67483 25.4271
2747775 4.45217 5.1467 8.39015 7.43808 -0.253215 3.67483 25.4271
2747785 4.42609 5.17473 8.32738 7.44744 -0.129361 3.64957 25.3756
2747795 4.50435 5.18407 8.33785 7.47551 -0.179029 3.60266 25.5018
2747805 4.50435 5.18407 8.33785 7.47551 -0.179029 3.60266 25.5018
2747818 4.50435 5.24945 8.296 7.43808 -0.11065 3.51949 25.4879
2747825 4.50435 5.24945 8.296 7.43808 -0.11065 3.51949 25.4879
2747836 4.51304 5.20275 8.27508 7.46615 -0.117078 3.55036 25.457
2747845 4.53913 5.19341 8.35877 7.40066 -0.29797 3.54635 25.492
2747860 4.53913 5.19341 8.35877 7.40066 -0.29797 3.54635 25.492
2747865 4.47826 5.15604 8.27508 7.44744 -0.147744 3.60152 25.3568
2747875 4.47826 5.18407 8.32738 7.50358 -0.115721 3.62956 25.4933
2747895 4.51304 5.23077 8.27508 7.42873 -0.12636 3.51309 25.4476
2747905 4.51304 5.23077 8.27508 7.42873 -0.12636 3.51309 25.4476
2747915 4.49565 5.21209 8.27508 7.43808 -0.11856 3.54359 25.4209
2747925 4.49565 5.16538 8.24369 7.42873 -0.143319 3.55935 25.3335
2747935 4.49565 5.16538 8.24369 7.42873 -0.143319 3.55935 25.3335
2747946 4.53043 5.17473 8.30646 7.44744 -0.210859 3.5638 25.4591
2747955 4.51304 5.20275 8.28554 7.4568 -0.136536 3.55086 25.4581
2747976 4.53043 5.23077 8.35877 7.40066 -0.252515 3.52552 25.5206
2747989 4.46957 5.23077 8.28554 7.41937 -0.103289 3.54528 25.4052
2747996 4.46957 5.25879 8.28554 7.41937 -0.0756323 3.52484 25.4333
2748006 4.53913 5.24945 8.296 7.43808 -0.14457 3.49425 25.5227
2748016 4.53913 5.24945 8.296 7.43808 -0.14457 3.49425 25.5227
2748032 4.51304 5.17473 8.25415 7.36324 -0.226472 3.51487 25.3052
2748040 4.54783 5.22143 8.28554 7.41937 -0.188981 3.4951 25.4742
2748052 4.54783 5.22143 8.28554 7.41937 -0.188981 3.4951 25.4742
2748056 4.49565 5.23077 8.23323 7.43808 -0.0590876 3.51108 25.3977
2748066 4.49565 5.23077 8.23323 7.43808 -0.0590876 3.51108 25.3977
2748078 4.53043 5.23077 8.35877 7.46615 -0.187875 3.55489 25.5861
2748088 4.52174 5.23077 8.31692 7.46615 -0.138766 3.54245 25.5356
2748098 4.52174 5.23077 8.31692 7.46615 -0.138766 3.54245 25.5356
2748108 4.53043 5.22143 8.26462 7.43808 -0.133117 3.50674 25.4546
2748118 4.44348 5.16538 8.33785 7.37259 -0.240278 3.61478 25.3193
2748128 4.44348 5.16538 8.33785 7.37259 -0.240278 3.61478 25.3193
2748138 4.52174 5.15604 8.26462 7.43808 -0.189343 3.56076 25.3805
2748148 4.52174 5.15604 8.26462 7.43808 -0.189343 3.56076 25.3805
2748158 4.46087 5.12802 8.31692 7.47551 -0.171645 3.6662 25.3813
2748168 4.43478 5.12802 8.39015 7.541 -0.152893 3.74698 25.494
2748179 4.43478 5.12802 8.39015 7.541 -0.152893 3.74698 25.494
2748189 4.46957 5.21209 8.28554 7.52229 -0.0203311 3.60512 25.4895
2748201 4.4087 5.15604 8.39015 7.51293 -0.127485 3.73315 25.4678
2748222 4.4 5.16538 8.32738 7.541 -0.0206396 3.7173 25.4338
2748229 4.4 5.13736 8.37969 7.50358 -0.136456 3.74454 25.4206
2748239 4.4 5.13736 8.37969 7.50358 -0.136456 3.74454 25.4206
2748249 4.4 5.20275 8.39015 7.62521 0.0368863 3.75473 25.6181
2748269 4.3913 5.16538 8.39015 7.52229 -0.0920564 3.74321 25.4691
2748282 4.4 5.1 8.35877 7.64392 -0.0145584 3.82471 25.5027
2748289 4.4 5.1 8.35877 7.64392 -0.0145584 3.82471 25.5027
2748299 4.43478 5.13736 8.35877 7.62521 -0.030309 3.76338 25.5561
2748309 4.4 5.1 8.30646 7.59714 -0.00917464 3.78112 25.4036
2748319 4.4 5.1 8.30646 7.59714 -0.00917464 3.78112 25.4036
2748331 4.36522 5.1 8.39015 7.62521 -0.0295952 3.85596 25.4806
2748339 4.36522 5.1 8.39015 7.62521 -0.0295952 3.85596 25.4806
2748352 4.34783 5.09066 8.432 7.64392 -0.0443369 3.90217 25.5144
2748359 4.32174 5.07198 8.48431 7.59714 -0.134377 3.93779 25.4752
2748380 4.37391 5.1 8.42154 7.64392 -0.0504449 3.8714 25.5394
2748394 4.33043 5.00659 8.47385 7.67199 -0.123321 4.00787 25.4829
2748400 4.33043 5.00659 8.47385 7.67199 -0.123321 4.00787 25.4829
2748411 4.33043 4.98791 8.50523 7.66263 -0.18159 4.03131 25.4862
2748421 4.33043 4.98791 8.50523 7.66263 -0.18159 4.03131 25.4862
2748434 4.34783 4.95989 8.48431 7.6907 -0.178105 4.04232 25.4827
2748441 4.28696 5.06264 8.46338 7.75619 0.0669628 4.03023 25.5692
2748451 4.28696 5.06264 8.46338 7.75619 0.0669628 4.03023 25.5692
2748461 4.33043 5.06264 8.50523 7.70941 -0.062108 3.99581 25.6077
2748471 4.28696 4.98791 8.49477 7.72812 -0.0644073 4.08743 25.4978
2748495 4.38261 5.07198 8.46338 7.63456 -0.136438 3.89982 25.5525
2748503 4.38261 5.07198 8.46338 7.63456 -0.136438 3.89982 25.5525
2748512 4.26957 5.01593 8.52615 7.74684 -0.0322297 4.10088 25.5585
2748521 4.29565 5.03462 8.48431 7.76555 0.019744 4.0576 25.5801
2748531 4.29565 5.03462 8.48431 7.76555 0.019744 4.0576 25.5801
2748541 4.31304 5.01593 8.47385 7.68134 -0.0879109 4.01791 25.4842
2748552 4.33043 4.97857 8.49477 7.6907 -0.152908 4.04585 25.4945
2748561 4.33043 4.97857 8.49477 7.6907 -0.152908 4.04585 25.4945
2748571 4.26957 4.99725 8.50523 7.73748 -0.039266 4.10193 25.5095
2748582 4.26957 4.99725 8.50523 7.73748 -0.039266 4.10193 25.5095
2748594 4.29565 5.00659 8.49477 7.65327 -0.128244 4.03481 25.4503
2748601 4.28696 4.98791 8.51569 7.71877 -0.0940546 4.09238 25.5093
2748611 4.28696 4.98791 8.51569 7.71877 -0.0940546 4.09238 25.5093
2748622 4.31304 4.98791 8.54708 7.70006 -0.168461 4.07829 25.5481
2748631 4.27826 4.98791 8.54708 7.70006 -0.134607 4.1043 25.5133
2748643 4.27826 4.95055 8.54708 7.70006 -0.171468 4.13232 25.4759
2748651 4.30435 4.96923 8.53662 7.75619 -0.112982 4.11824 25.5664
2748664 4.30435 4.96923 8.53662 7.75619 -0.112982 4.11824 25.5664
2748672 4.26957 4.96923 8.49477 7.63456 -0.158213 4.07433 25.3681
2748690 4.30435 4.92253 8.55754 7.67199 -0.262576 4.12626 25.4564
2748694 4.30435 4.92253 8.55754 7.67199 -0.262576 4.12626 25.4564
2748703 4.25217 4.93187 8.63077 7.70006 -0.245953 4.20154 25.5149
2748713 4.25217 4.93187 8.63077 7.70006 -0.245953 4.20154 25.5149
2748723 4.25217 4.92253 8.62031 7.71877 -0.226532 4.21206 25.5138
2748733 4.3913 4.95055 8.59938 7.66263 -0.368604 4.05417 25.6039
2748753 4.31304 4.95055 8.57846 7.70006 -0.235789 4.11962 25.5421
2748763 4.29565 4.93187 8.568 7.63456 -0.292195 4.11425 25.4301
2748773 4.29565 4.93187 8.568 7.63456 -0.292195 4.11425 25.4301
2748783 4.3913 4.92253 8.54708 7.66263 -0.345978 4.05266 25.5235
2748795 4.3913 4.92253 8.54708 7.66263 -0.345978 4.05266 25.5235
2748803 4.31304 4.88516 8.568 7.66263 -0.327629 4.1483 25.4288
2748815 4.38261 4.99725 8.54708 7.60649 -0.319129 3.97932 25.5334
2748823 4.38261 4.99725 8.54708 7.60649 -0.319129 3.97932 25.5334
2748836 4.3913 4.94121 8.53662 7.57843 -0.401106 3.99795 25.4476
2748843 4.38261 4.93187 8.52615 7.56907 -0.401247 4.00285 25.4097
2748853 4.38261 4.93187 8.52615 7.56907 -0.401247 4.00285 25.4097
2748863 4.4 5.0533 8.60985 7.55971 -0.387189 3.9318 25.6229
2748873 4.4 5.0533 8.60985 7.55971 -0.387189 3.9318 25.6229
2748883 4.44348 5.00659 8.59938 7.56907 -0.455922 3.9337 25.6185
2748893 4.4 4.95055 8.59938 7.55036 -0.488697 3.99948 25.5003
2748904 4.4 4.95055 8.59938 7.55036 -0.488697 3.99948 25.5003
2748914 4.42609 4.98791 8.568 7.56907 -0.427677 3.94684 25.5511
2748926 4.41739 4.95989 8.59938 7.541 -0.505419 3.97554 25.5177
2748934 4.41739 4.95989 8.59938 7.541 -0.505419 3.97554 25.5177
2748944 4.3913 4.93187 8.58892 7.541 -0.498328 4.01135 25.4531
2748954 4.3913 4.93187 8.58892 7.541 -0.498328 4.01135 25.4531
2748964 4.37391 5.02527 8.60985 7.53165 -0.417802 3.95974 25.5407
2748974 4.38261 5.02527 8.568 7.52229 -0.395171 3.93111 25.4982
2748984 4.38261 5.02527 8.568 7.52229 -0.395171 3.93111 25.4982
2748994 4.3913 4.98791 8.58892 7.55036 -0.432977 3.97363 25.5185
2749004 4.3913 4.91319 8.63077 7.47551 -0.623138 4.0151 25.4108
2749015 4.3913 4.91319 8.63077 7.47551 -0.623138 4.0151 25.4108
2749025 4.38261 5.02527 8.63077 7.51293 -0.464913 3.95425 25.5516
2749036 4.38261 5.02527 8.63077 7.51293 -0.464913 3.95425 25.5516
2749045 4.4 4.95989 8.64123 7.44744 -0.622728 3.96611 25.4486
2749057 4.3913 5.04396 8.69354 7.56907 -0.459003 3.98516 25.6979
2749065 4.3913 5.04396 8.69354 7.56907 -0.459003 3.98516 25.6979
2749076 4.3913 4.92253 8.67262 7.48487 -0.644378 4.03021 25.4713
2749086 4.44348 4.98791 8.60985 7.43808 -0.615525 3.89524 25.4793
2749098 4.44348 4.98791 8.60985 7.43808 -0.615525 3.89524 25.4793
2749105 4.46957 5.00659 8.67262 7.4568 -0.662735 3.89754 25.6056
2749125 4.42609 4.94121 8.60985 7.49422 -0.58939 3.96726 25.4714
2749135 4.43478 4.95055 8.73538 7.46615 -0.736181 3.99592 25.5869
2749146 4.43478 4.95055 8.73538 7.46615 -0.736181 3.99592 25.5869
2749156 4.47826 4.95055 8.64123 7.41937 -0.735177 3.90267 25.4894
2749166 4.49565 4.85714 8.63077 7.42873 -0.82691 3.95874 25.4123
2749176 4.49565 4.85714 8.63077 7.42873 -0.82691 3.95874 25.4123
2749187 4.44348 4.91319 8.71446 7.49422 -0.733933 4.0203 25.5653
2749206 4.38261 4.94121 8.67262 7.3071 -0.797237 3.94563 25.3035
2749216 4.46957 4.92253 8.66215 7.43808 -0.756216 3.94715 25.4923
2749226 4.46957 4.92253 8.66215 7.43808 -0.756216 3.94715 25.4923
2749237 4.44348 4.91319 8.64123 7.43808 -0.720863 3.96446 25.436
2749246 4.45217 4.90385 8.67262 7.46615 -0.740142 3.99067 25.4948
2749256 4.45217 4.90385 8.67262 7.46615 -0.740142 3.99067 25.4948
2749266 4.47826 4.90385 8.66215 7.43808 -0.78337 3.95458 25.4823
2749277 4.47826 4.90385 8.66215 7.43808 -0.78337 3.95458 25.4823
2749287 4.41739 4.92253 8.65169 7.47551 -0.658739 3.99767 25.4671
2749296 4.50435 4.93187 8.65169 7.47551 -0.732164 3.92611 25.5634
2749312 4.50435 4.93187 8.65169 7.47551 -0.732164 3.92611 25.5634
2749321 4.45217 5.00659 8.57846 7.46615 -0.546877 3.87352 25.5034
2749330 4.51304 4.90385 8.55754 7.44744 -0.707357 3.88726 25.4219
2749338 4.51304 4.90385 8.55754 7.44744 -0.707357 3.88726 25.4219
2749348 4.46957 5.01593 8.54708 7.48487 -0.505383 3.84822 25.5174
2749358 4.46957 5.01593 8.54708 7.48487 -0.505383 3.84822 25.5174
2749368 4.47826 4.95989 8.57846 7.52229 -0.562419 3.91321 25.5389
2749378 4.41739 5.00659 8.53662 7.47551 -0.463814 3.88511 25.4361
2749388 4.41739 5.00659 8.53662 7.47551 -0.463814 3.88511 25.4361
2749398 4.3913 4.99725 8.47385 7.55971 -0.303066 3.9208 25.4221
2749409 4.41739 5.03462 8.49477 7.541 -0.330105 3.87466 25.4878
2749418 4.41739 5.03462 8.49477 7.541 -0.330105 3.87466 25.4878
2749430 4.4 5.1 8.37969 7.57843 -0.0994444 3.80514 25.4581
2749439 4.4 5.1 8.37969 7.57843 -0.0994444 3.80514 25.4581
2749451 4.4087 5.11868 8.33785 7.62521 -0.00260174 3.78711 25.4904
2749459 4.3913 5.15604 8.31692 7.68134 0.126401 3.78788 25.5456
2749471 4.3913 5.15604 8.31692 7.68134 0.126401 3.78788 25.5456
2749479 4.36522 5.13736 8.35877 7.65327 0.0653058 3.8269 25.5146
2749489 4.37391 5.11868 8.30646 7.70941 0.144774 3.83595 25.5085
2749509 4.32174 5.16538 8.23323 7.72812 0.332573 3.81608 25.4485
2749519 4.32174 5.16538 8.23323 7.72812 0.332573 3.81608 25.4485
2749529 4.36522 5.1 8.21231 7.70941 0.228351 3.81486 25.3869
2749540 4.36522 5.24011 8.28554 7.70941 0.291759 3.74388 25.6003
2749550 4.36522 5.24011 8.28554 7.70941 0.291759 3.74388 25.6003
2749559 4.32174 5.18407 8.27508 7.70006 0.281882 3.80833 25.4809
2749569 4.33043 5.16538 8.19138 7.72812 0.365618 3.79123 25.4153
2749580 4.33043 5.16538 8.19138 7.72812 0.365618 3.79123 25.4153
2749589 4.35652 5.24945 8.22277 7.71877 0.380594 3.71987 25.5475
2749600 4.35652 5.24945 8.22277 7.71877 0.380594 3.71987 25.5475
2749609 4.32174 5.19341 8.16 7.72812 0.43281 3.76308 25.4033
2749619 4.32174 5.21209 8.09723 7.70006 0.486729 3.70895 25.3311
2749640 4.37391 5.31484 8.09723 7.71877 0.551328 3.60359 25.5047
2749651 4.4 5.30549 8.12862 7.71877 0.484923 3.6054 25.5529
2749660 4.4 5.30549 8.12862 7.71877 0.484923 3.6054 25.5529
2749671 4.34783 5.25879 8.10769 7.74684 0.540143 3.68085 25.4611
2749691 4.38261 5.23077 8.21231 7.67199 0.301829 3.68911 25.4977
2749704 4.31304 5.25879 8.13908 7.70006 0.498533 3.69956 25.411
2749711 4.31304 5.25879 8.13908 7.70006 0.498533 3.69956 25.411
2749725 4.37391 5.23077 8.18092 7.66263 0.3326 3.67739 25.4482
2749731 4.35652 5.23077 8.20185 7.61585 0.283656 3.67865 25.405
2749741 4.35652 5.23077 8.20185 7.61585 0.283656 3.67865 25.405
2749753 4.44348 5.19341 8.22277 7.61585 0.140342 3.65159 25.4755
2749765 4.4 5.19341 8.28554 7.57843 0.0847429 3.69474 25.4574
2749773 4.4 5.19341 8.28554 7.57843 0.0847429 3.69474 25.4574
2749783 4.41739 5.22143 8.21231 7.61585 0.203773 3.64551 25.467
2749793 4.41739 5.22143 8.21231 7.61585 0.203773 3.64551 25.467
2749803 4.4 5.23077 8.296 7.56907 0.10182 3.66783 25.4958
2749813 4.4087 5.17473 8.30646 7.61585 0.0739217 3.72792 25.5057
2749823 4.4087 5.17473 8.30646 7.61585 0.0739217 3.72792 25.5057
2749833 4.41739 5.1467 8.30646 7.541 -0.0355631 3.70896 25.4116
2749843 4.44348 5.12802 8.33785 7.50358 -0.147294 3.70083 25.4129
2749854 4.44348 5.12802 8.33785 7.50358 -0.147294 3.70083 25.4129
2749863 4.46957 5.13736 8.35877 7.49422 -0.193197 3.67994 25.4599
2749873 4.46957 5.13736 8.35877 7.49422 -0.193197 3.67994 25.4599
2749883 4.3913 5.08132 8.40062 7.51293 -0.194663 3.80577 25.3862
2749893 4.3913 5.04396 8.42154 7.55036 -0.215027 3.85913 25.4072
2749904 4.3913 5.04396 8.42154 7.55036 -0.215027 3.85913 25.4072
2749913 4.3913 5.1467 8.46338 7.541 -0.163439 3.79744 25.5424
2749933 4.4087 5.07198 8.36923 7.48487 -0.218163 3.77352 25.3348
2749943 4.46087 4.99725 8.51569 7.57843 -0.392221 3.89555 25.5522
2749970 4.46087 4.99725 8.51569 7.57843 -0.392221 3.89555 25.5522
2749974 4.38261 5.03462 8.54708 7.49422 -0.393629 3.90286 25.4585
2749994 4.36522 4.98791 8.51569 7.55971 -0.327666 3.96539 25.4285
2750007 4.36522 4.98791 8.51569 7.55971 -0.327666 3.96539 25.4285
2750014 4.4087 4.99725 8.50523 7.52229 -0.387661 3.90523 25.4335
2750024 4.44348 5.04396 8.54708 7.51293 -0.424373 3.85904 25.5474
2750034 4.44348 5.04396 8.54708 7.51293 -0.424373 3.85904 25.5474
2750044 4.44348 5.02527 8.50523 7.541 -0.374714 3.86683 25.515
2750054 4.37391 5.06264 8.53662 7.44744 -0.393824 3.8635 25.4206
2750064 4.37391 5.06264 8.53662 7.44744 -0.393824 3.8635 25.4206
2750074 4.45217 5.06264 8.52615 7.4568 -0.449935 3.80512 25.4978
2750084 4.45217 5.06264 8.52615 7.4568 -0.449935 3.80512 25.4978
2750094 4.41739 5.02527 8.45292 7.47551 -0.364125 3.83454 25.3711
2750105 4.4087 5.04396 8.44246 7.48487 -0.317511 3.82664 25.38
2750125 4.4 5.08132 8.47385 7.44744 -0.33962 3.80274 25.4026
2750135 4.48696 5.11868 8.47385 7.49422 -0.340095 3.73182 25.5737
2750155 4.49565 5.15604 8.48431 7.49422 -0.321588 3.70276 25.6302
2750169 4.4 5.15604 8.44246 7.53165 -0.151558 3.77087 25.5302
2750175 4.4 5.10934 8.44246 7.53165 -0.197653 3.80527 25.4834
2750185 4.46087 5.16538 8.44246 7.55971 -0.173864 3.73175 25.6284
2750206 4.45217 5.13736 8.36923 7.52229 -0.158699 3.70981 25.4811
2750216 4.45217 5.11868 8.39015 7.59714 -0.123747 3.76579 25.5581
2750226 4.45217 5.11868 8.39015 7.59714 -0.123747 3.76579 25.5581
2750237 4.44348 5.18407 8.33785 7.53165 -0.0643343 3.67216 25.497
2750247 4.44348 5.18407 8.33785 7.53165 -0.0643343 3.67216 25.497
2750256 4.4087 5.17473 8.27508 7.51293 0.0038296 3.66825 25.3714
2750266 4.44348 5.1467 8.27508 7.59714 0.0248283 3.70077 25.4624
2750278 4.44348 5.1467 8.27508 7.59714 0.0248283 3.70077 25.4624
2750287 4.42609 5.12802 8.37969 7.59714 -0.0789419 3.77349 25.5309
2750297 4.44348 5.17473 8.41108 7.61585 -0.0623703 3.74851 25.6451
2750307 4.44348 5.17473 8.41108 7.61585 -0.0623703 3.74851 25.6451
2750316 4.3913 5.22143 8.44246 7.59714 -0.0148132 3.75806 25.6523
2750326 4.3913 5.10934 8.44246 7.67199 -0.0511795 3.87299 25.6151
2750337 4.3913 5.10934 8.44246 7.67199 -0.0511795 3.87299 25.6151
2750346 4.36522 5.11868 8.42154 7.64392 -0.0236377 3.86402 25.5494
2750358 4.36522 5.11868 8.42154 7.64392 -0.0236377 3.86402 25.5494
2750366 4.37391 5.07198 8.41108 7.59714 -0.113806 3.86715 25.4541
2750379 4.4087 5.07198 8.44246 7.63456 -0.14146 3.87145 25.5577
2750388 4.4087 5.07198 8.44246 7.63456 -0.14146 3.87145 25.5577
2750400 4.37391 5.04396 8.45292 7.57843 -0.200845 3.89805 25.4492
2750408 4.37391 5.04396 8.45292 7.57843 -0.200845 3.89805 25.4492
2750421 4.36522 4.99725 8.45292 7.62521 -0.192292 3.95961 25.4406
2750428 4.36522 4.99725 8.45292 7.57843 -0.238702 3.93927 25.3938
2750438 4.36522 4.99725 8.45292 7.57843 -0.238702 3.93927 25.3938
2750448 4.42609 4.93187 8.47385 7.63456 -0.327396 3.9761 25.4664
2750458 4.35652 4.90385 8.48431 7.66263 -0.269952 4.0657 25.4073
2750468 4.35652 4.90385 8.48431 7.66263 -0.269952 4.0657 25.4073
2750478 4.32174 4.96923 8.58892 7.67199 -0.263625 4.09164 25.5519
2750489 4.32174 4.96923 8.58892 7.67199 -0.263625 4.09164 25.5519
2750498 4.34783 4.86648 8.60985 7.59714 -0.485863 4.12607 25.4213
2750509 4.33913 4.86648 8.68308 7.66263 -0.482453 4.19162 25.5513
2750518 4.33913 4.86648 8.68308 7.66263 -0.482453 4.19162 25.5513
2750529 4.36522 4.89451 8.58892 7.64392 -0.407685 4.10303 25.4926
2750538 4.32174 4.89451 8.59938 7.68134 -0.338544 4.15607 25.497
2750551 4.32174 4.89451 8.59938 7.68134 -0.338544 4.15607 25.497
2750558 4.35652 4.89451 8.65169 7.65327 -0.450417 4.14028 25.556
2750568 4.35652 4.89451 8.65169 7.65327 -0.450417 4.14028 25.556
2750577 4.34783 4.86648 8.65169 7.67199 -0.451334 4.17576 25.538
2750593 4.30435 4.87582 8.704 7.75619 -0.366934 4.25892 25.6404
2750601 4.30435 4.87582 8.704 7.75619 -0.366934 4.25892 25.6404
2750614 4.31304 4.90385 8.704 7.68134 -0.421695 4.1999 25.6022
2750619 4.33043 4.86648 8.68308 7.6907 -0.446145 4.21001 25.5707
2750629 4.33043 4.86648 8.68308 7.6907 -0.446145 4.21001 25.5707
2750640 4.31304 4.90385 8.67262 7.70006 -0.372964 4.19455 25.5896
2750659 4.29565 4.83846 8.68308 7.6907 -0.440617 4.25731 25.5079
2750669 4.31304 4.92253 8.68308 7.63456 -0.429527 4.15725 25.5532
2750680 4.31304 4.92253 8.68308 7.63456 -0.429527 4.15725 25.5532
2750689 4.31304 4.78242 8.67262 7.70941 -0.484575 4.29 25.4775
2750700 4.26087 4.81044 8.704 7.67199 -0.473964 4.30577 25.4473
2750710 4.26087 4.81044 8.704 7.67199 -0.473964 4.30577 25.4473
2750720 4.27826 4.85714 8.69354 7.71877 -0.3874 4.27254 25.5477
2750730 4.27826 4.85714 8.69354 7.71877 -0.3874 4.27254 25.5477
2750740 4.26957 4.88516 8.67262 7.75619 -0.293961 4.2649 25.5835
2750750 4.22609 4.89451 8.73538 7.72812 -0.331105 4.30517 25.5841
2750760 4.22609 4.89451 8.73538 7.72812 -0.331105 4.30517 25.5841
2750771 4.23478 4.92253 8.66215 7.70006 -0.268769 4.23493 25.5195
2750780 4.26087 4.85714 8.62031 7.70006 -0.318396 4.24694 25.4384
2750790 4.26087 4.85714 8.62031 7.70006 -0.318396 4.24694 25.4384
2750802 4.26087 5.00659 8.62031 7.74684 -0.124587 4.15435 25.6346
2750812 4.26087 5.00659 8.62031 7.74684 -0.124587 4.15435 25.6346
2750820 4.22609 4.89451 8.59938 7.70941 -0.217815 4.2401 25.4294
2750833 4.26957 4.92253 8.60985 7.68134 -0.270316 4.17868 25.4833
2750840 4.26957 4.92253 8.60985 7.68134 -0.270316 4.17868 25.4833
2750853 4.26957 4.96923 8.57846 7.73748 -0.13825 4.15411 25.5547
2750860 4.26957 4.88516 8.60985 7.72812 -0.260979 4.22664 25.4927
2750870 4.26957 4.88516 8.60985 7.72812 -0.260979 4.22664 25.4927
2750880 4.28696 4.98791 8.59938 7.74684 -0.147919 4.13996 25.6211
2750890 4.28696 4.98791 8.59938 7.74684 -0.147919 4.13996 25.6211
2750900 4.26087 4.92253 8.57846 7.75619 -0.157353 4.20365 25.5181
2750914 4.26087 4.96923 8.60985 7.72812 -0.169511 4.16997 25.5681
2750922 4.26087 4.96923 8.60985 7.72812 -0.169511 4.16997 25.5681
2750935 4.30435 4.97857 8.57846 7.70941 -0.190479 4.10915 25.5708
2750941 4.29565 4.95989 8.62031 7.72812 -0.22257 4.15534 25.604
2750954 4.29565 4.95989 8.62031 7.72812 -0.22257 4.15534 25.604
2750961 4.21739 4.95055 8.60985 7.8404 -0.0354156 4.26395 25.6182
2750972 4.21739 4.95055 8.60985 7.8404 -0.0354156 4.26395 25.6182
2750981 4.26087 4.83846 8.64123 7.7749 -0.282903 4.30139 25.5155
2750991 4.24348 4.89451 8.60985 7.76555 -0.189383 4.25507 25.5134
2751001 4.24348 4.89451 8.60985 7.76555 -0.189383 4.25507 25.5134
2751011 4.27826 4.95989 8.58892 7.73748 -0.166065 4.15903 25.5646
2751023 4.25217 4.87582 8.63077 7.71877 -0.282946 4.25171 25.4775
2751041 4.27826 4.89451 8.73538 7.76555 -0.344314 4.28152 25.6737
2751051 4.27826 4.89451 8.73538 7.76555 -0.344314 4.28152 25.6737
2751063 4.21739 4.87582 8.66215 7.72812 -0.270371 4.29517 25.4835
2751071 4.17391 4.81978 8.73538 7.78426 -0.299115 4.42472 25.5133
2751083 4.17391 4.81978 8.73538 7.78426 -0.299115 4.42472 25.5133
2751091 4.26087 4.82912 8.63077 7.82168 -0.23572 4.32366 25.5424
2751101 4.22609 4.81978 8.704 7.76555 -0.337794 4.36423 25.5154
2751111 4.22609 4.81978 8.704 7.76555 -0.337794 4.36423 25.5154
2751121 4.26957 4.87582 8.71446 7.82168 -0.278917 4.31677 25.6815
2751131 4.26957 4.87582 8.71446 7.82168 -0.278917 4.31677 25.6815
2751141 4.2087 4.81044 8.68308 7.80297 -0.272849 4.39141 25.5052
2751151 4.24348 4.81978 8.68308 7.80297 -0.297272 4.35792 25.5493
2751163 4.24348 4.81978 8.68308 7.80297 -0.297272 4.35792 25.5493
2751171 4.23478 4.8478 8.64123 7.83104 -0.19289 4.33754 25.5549
2751183 4.23478 4.8478 8.64123 7.83104 -0.19289 4.33754 25.5549
2751193 4.2 4.86648 8.66215 7.83104 -0.161023 4.35845 25.5597
2751203 4.23478 4.81044 8.704 7.83104 -0.290558 4.39195 25.5803
2751213 4.23478 4.81044 8.704 7.83104 -0.290558 4.39195 25.5803
2751223 4.2087 4.8478 8.69354 7.83104 -0.218318 4.37906 25.5811
2751233 4.23478 4.82912 8.704 7.79362 -0.309104 4.36225 25.5615
2751252 4.23478 4.82912 8.704 7.79362 -0.309104 4.36225 25.5615
2751254 4.26957 4.83846 8.69354 7.84975 -0.267911 4.34788 25.6513
2751264 4.23478 4.8011 8.63077 7.86846 -0.191881 4.38417 25.5351
2751274 4.23478 4.8011 8.63077 7.86846 -0.191881 4.38417 25.5351
2751284 4.21739 4.81978 8.68308 7.8404 -0.235021 4.39326 25.5606
2751304 4.2087 4.77308 8.72492 7.76555 -0.387672 4.42169 25.4722
2751315 4.18261 4.78242 8.68308 7.78426 -0.293925 4.42486 25.4324
2751325 4.18261 4.78242 8.68308 7.78426 -0.293925 4.42486 25.4324
2751335 4.18261 4.7544 8.704 7.73748 -0.388847 4.43553 25.3785
2751344 4.17391 4.67967 8.75631 7.81233 -0.430943 4.55215 25.4222
2751357 4.17391 4.67967 8.75631 7.81233 -0.430943 4.55215 25.4222
2751364 4.18261 4.78242 8.72492 7.85911 -0.260288 4.47316 25.5491
2751374 4.18261 4.78242 8.72492 7.85911 -0.260288 4.47316 25.5491
2751384 4.16522 4.81044 8.67262 7.8404 -0.183411 4.43571 25.4887
2751394 4.18261 4.83846 8.69354 7.87782 -0.156166 4.42531 25.5924
2751404 4.18261 4.83846 8.69354 7.87782 -0.156166 4.42531 25.5924
2751414 4.21739 4.86648 8.66215 7.94331 -0.0678763 4.39185 25.6893
2751425 4.14783 4.86648 8.67262 7.94331 -0.0103816 4.44882 25.6302
2751434 4.14783 4.82912 8.67262 7.94331 -0.0468954 4.47721 25.5929
2751446 4.2087 4.83846 8.64123 7.88718 -0.121494 4.38773 25.5756
2751455 4.2087 4.83846 8.64123 7.88718 -0.121494 4.38773 25.5756
2751465 4.13913 4.78242 8.57846 7.86846 -0.0657424 4.44964 25.3685
2751475 4.14783 4.82912 8.62031 7.93396 -0.00494868 4.4518 25.5312
2751486 4.14783 4.82912 8.62031 7.93396 -0.00494868 4.4518 25.5312
2751495 4.17391 4.8478 8.60985 7.93396 -0.00195503 4.41342 25.5655
2751506 4.17391 4.8478 8.60985 7.93396 -0.00195503 4.41342 25.5655
2751515 4.21739 4.8011 8.52615 7.9246 -0.0175148 4.3772 25.4692
2751528 4.1913 4.83846 8.58892 7.89653 -0.0443205 4.38308 25.5152
2751535 4.1913 4.83846 8.58892 7.89653 -0.0443205 4.38308 25.5152
2751548 4.2 4.79176 8.60985 7.93396 -0.0823647 4.43619 25.5356
2751555 4.17391 4.8478 8.568 7.85911 -0.0343829 4.36487 25.4488
2751568 4.17391 4.8478 8.568 7.85911 -0.0343829 4.36487 25.4488
2751575 4.24348 4.81044 8.66215 7.90589 -0.184709 4.39903 25.622
2751585 4.24348 4.81044 8.66215 7.90589 -0.184709 4.39903 25.622
2751595 4.16522 4.8011 8.58892 7.84975 -0.101644 4.41194 25.405
2751605 4.18261 4.78242 8.64123 7.94331 -0.0959992 4.47337 25.5496
2751615 4.18261 4.78242 8.64123 7.94331 -0.0959992 4.47337 25.5496
2751625 4.17391 4.81044 8.63077 7.87782 -0.11417 4.42725 25.4929
2751635 4.18261 4.83846 8.57846 7.91525 -0.00721812 4.39312 25.5148
2751645 4.18261 4.83846 8.57846 7.91525 -0.00721812 4.39312 25.5148
2751657 4.15652 4.83846 8.74585 7.93396 -0.126532 4.48971 25.6748
2751666 4.15652 4.83846 8.74585 7.93396 -0.126532 4.48971 25.6748
2751676 4.2 4.8011 8.71446 7.89653 -0.211647 4.45682 25.6121
2751686 4.18261 4.79176 8.67262 7.89653 -0.163381 4.45991 25.5435
2751706 4.13913 4.81978 8.67262 7.89653 -0.0934601 4.47169 25.5281
2751721 4.1913 4.71703 8.64123 7.88718 -0.224404 4.49354 25.4367
2751728 4.1913 4.71703 8.64123 7.88718 -0.224404 4.49354 25.4367
2751736 4.14783 4.8011 8.68308 7.89653 -0.130512 4.48362 25.5285
2751747 4.14783 4.8011 8.68308 7.89653 -0.130512 4.48362 25.5285
2751756 4.14783 4.78242 8.704 7.86846 -0.196981 4.49495 25.5027
2751768 4.1913 4.7544 8.71446 7.89653 -0.249285 4.499 25.5567
2751776 4.1913 4.7544 8.71446 7.89653 -0.249285 4.499 25.5567
2751786 4.18261 4.74505 8.74585 7.88718 -0.289726 4.5218 25.5607
2751796 4.17391 4.76374 8.73538 7.90589 -0.234249 4.51756 25.5789
2751818 4.1913 4.81044 8.73538 7.88718 -0.223492 4.46109 25.6243
2751829 4.1913 4.81044 8.73538 7.88718 -0.223492 4.46109 25.6243
2751838 4.17391 4.7544 8.71446 7.87782 -0.250934 4.50458 25.5206
2751850 4.14783 4.81978 8.71446 7.84975 -0.18874 4.46302 25.5318
2751859 4.14783 4.81978 8.71446 7.84975 -0.18874 4.46302 25.5318
2751869 4.17391 4.68901 8.71446 7.80297 -0.390449 4.52388 25.3804
2751877 4.2 4.81978 8.64123 7.82168 -0.195982 4.38129 25.4827
2751891 4.2 4.81978 8.64123 7.82168 -0.195982 4.38129 25.4827
2751899 4.21739 4.83846 8.66215 7.87782 -0.159463 4.38594 25.5958
2751909 4.21739 4.83846 8.66215 7.87782 -0.159463 4.38594 25.5958
2751919 4.1913 4.7544 8.65169 7.80297 -0.281127 4.43436 25.4004
2751929 4.2087 4.76374 8.67262 7.9246 -0.188673 4.47295 25.5696
2751939 4.2087 4.76374 8.67262 7.9246 -0.188673 4.47295 25.5696
2751949 4.16522 4.74505 8.68308 7.90589 -0.193487 4.51701 25.4992
2751960 4.2 4.82912 8.65169 7.84975 -0.169228 4.39022 25.5306
2751969 4.2 4.82912 8.65169 7.84975 -0.169228 4.39022 25.5306
2751980 4.1913 4.81044 8.67262 7.86846 -0.181085 4.42747 25.5428
2751991 4.14783 4.79176 8.62031 7.88718 -0.0876337 4.46097 25.4471
2752002 4.14783 4.79176 8.62031 7.88718 -0.0876337 4.46097 25.4471
2752010 4.1913 4.81044 8.63077 7.93396 -0.0759542 4.43725 25.5665
2752021 4.1913 4.81044 8.63077 7.93396 -0.0759542 4.43725 25.5665
2752030 4.15652 4.81978 8.63077 7.91525 -0.0511959 4.44888 25.5223
2752042 4.16522 4.85714 8.73538 7.94331 -0.0974134 4.4685 25.7011
2752050 4.16522 4.85714 8.73538 7.94331 -0.0974134 4.4685 25.7011
2752066 4.17391 4.83846 8.60985 7.91525 -0.0294209 4.41276 25.5375
2752070 4.17391 4.81978 8.59938 7.94331 -0.00998974 4.43426 25.5364
2752081 4.17391 4.81978 8.59938 7.94331 -0.00998974 4.43426 25.5364
2752090 4.18261 4.83846 8.65169 7.89653 -0.0970975 4.41574 25.5693
2752100 4.18261 4.83846 8.65169 7.89653 -0.0970975 4.41574 25.5693
2752112 4.17391 4.81978 8.58892 7.85911 -0.0824913 4.39495 25.4417
2752120 4.17391 4.87582 8.66215 7.95267 -0.00737756 4.42152 25.6646
2752130 4.17391 4.87582 8.66215 7.95267 -0.00737756 4.42152 25.6646
2752140 4.17391 4.92253 8.55754 7.89653 0.0857204 4.31946 25.5505
2752161 4.13043 4.79176 8.59938 7.93396 -0.00403076 4.48496 25.4555
2752173 4.18261 4.88516 8.57846 7.9246 0.0476062 4.36158 25.5708
2752181 4.18261 4.88516 8.57846 7.9246 0.0476062 4.36158 25.5708
2752194 4.14783 4.81044 8.59938 7.84975 -0.0856221 4.42245 25.4074
2752201 4.18261 4.86648 8.62031 7.90589 -0.029856 4.38535 25.5753
2752211 4.18261 4.86648 8.62031 7.90589 -0.029856 4.38535 25.5753
2752221 4.15652 4.79176 8.51569 7.89653 0.0158459 4.41471 25.3605
2752231 4.16522 4.83846 8.54708 7.87782 0.00391901 4.37768 25.4286
2752241 4.16522 4.83846 8.54708 7.87782 0.00391901 4.37768 25.4286
2752251 4.21739 4.86648 8.60985 7.88718 -0.071907 4.34688 25.5809
2752264 4.21739 4.86648 8.60985 7.88718 -0.071907 4.34688 25.5809
2752271 4.15652 4.82912 8.55754 7.83104 -0.0531033 4.37625 25.3742
2752282 4.2087 4.82912 8.58892 7.87782 -0.0888839 4.36918 25.5046
2752291 4.2087 4.82912 8.58892 7.87782 -0.0888839 4.36918 25.5046
2752301 4.24348 4.94121 8.57846 7.82168 -0.0576973 4.23031 25.5848
2752314 4.24348 4.94121 8.57846 7.82168 -0.0576973 4.23031 25.5848
2752321 4.15652 4.85714 8.62031 7.86846 -0.0502139 4.3967 25.5024
2752331 4.2087 4.8478 8.53662 7.89653 -0.000956655 4.34097 25.4896
2752343 4.2087 4.8478 8.53662 7.89653 -0.000956655 4.34097 25.4896
2752353 4.27826 4.87582 8.58892 7.86846 -0.119962 4.27736 25.6115
2752365 4.2 4.86648 8.53662 7.81233 -0.0568599 4.29805 25.4154
2752374 4.2 4.86648 8.53662 7.81233 -0.0568599 4.29805 25.4154
2752382 4.26957 4.88516 8.54708 7.81233 -0.116749 4.2357 25.5141
2752391 4.26957 4.88516 8.54708 7.81233 -0.116749 4.2357 25.5141
2752402 4.24348 4.8478 8.57846 7.75619 -0.214294 4.27322 25.4259
2752411 4.2087 4.83846 8.62031 7.76555 -0.221165 4.32825 25.433
2752422 4.2087 4.83846 8.62031 7.76555 -0.221165 4.32825 25.433
2752432 4.23478 4.82912 8.63077 7.78426 -0.247431 4.32777 25.4789
2752441 4.25217 4.83846 8.62031 7.7749 -0.254178 4.2992 25.4858
2752453 4.25217 4.83846 8.62031 7.7749 -0.254178 4.2992 25.4858
2752461 4.31304 4.92253 8.63077 7.75619 -0.258654 4.18658 25.6225
2752473 4.31304 4.92253 8.63077 7.75619 -0.258654 4.18658 25.6225
2752483 4.29565 4.8478 8.57846 7.7749 -0.246511 4.24165 25.4968
2752494 4.28696 4.88516 8.64123 7.76555 -0.271194 4.24255 25.5789
2752503 4.28696 4.88516 8.64123 7.76555 -0.271194 4.24255 25.5789
2752516 4.30435 4.88516 8.65169 7.74684 -0.316595 4.226 25.588
2752530 4.21739 4.86648 8.54708 7.73748 -0.158174 4.25766 25.3684
2752534 4.21739 4.86648 8.54708 7.73748 -0.158174 4.25766 25.3684
2752544 4.24348 4.83846 8.69354 7.71877 -0.372426 4.31295 25.4942
2752564 4.26087 4.81978 8.60985 7.70006 -0.345485 4.27083 25.3906
2752574 4.31304 4.89451 8.66215 7.78426 -0.288875 4.2326 25.654
2752585 4.31304 4.89451 8.66215 7.78426 -0.288875 4.2326 25.654
2752595 4.31304 4.85714 8.66215 7.73748 -0.372095 4.241 25.5698
2752604 4.26087 4.90385 8.64123 7.71877 -0.27374 4.22842 25.5247
2752615 4.26087 4.90385 8.64123 7.71877 -0.27374 4.22842 25.5247
2752625 4.31304 4.90385 8.64123 7.73748 -0.305668 4.1971 25.5956
2752634 4.31304 4.90385 8.64123 7.73748 -0.305668 4.1971 25.5956
2752644 4.24348 4.8478 8.62031 7.76555 -0.245745 4.29478 25.4771
2752655 4.28696 4.8478 8.60985 7.7749 -0.268517 4.26144 25.5195
2752665 4.28696 4.8478 8.60985 7.7749 -0.268517 4.26144 25.5195
2752674 4.23478 4.83846 8.59938 7.74684 -0.244763 4.29178 25.4195
2752689 4.28696 4.81044 8.65169 7.74684 -0.373957 4.29547 25.4959
2752694 4.28696 4.81044 8.65169 7.74684 -0.373957 4.29547 25.4959
2752704 4.27826 4.89451 8.66215 7.73748 -0.301526 4.23906 25.5724
2752714 4.27826 4.89451 8.66215 7.73748 -0.301526 4.23906 25.5724
2752724 4.25217 4.8478 8.62031 7.68134 -0.337908 4.25269 25.4016
2752734 4.29565 4.90385 8.57846 7.76555 -0.200367 4.19549 25.5435
2752755 4.35652 4.93187 8.59938 7.71877 -0.29804 4.11795 25.6065
2752765 4.32174 4.82912 8.53662 7.75619 -0.268279 4.21045 25.4437
2752775 4.32174 4.82912 8.53662 7.75619 -0.268279 4.21045 25.4437
2752785 4.30435 4.91319 8.57846 7.72812 -0.236543 4.16609 25.5241
2752797 4.30435 4.91319 8.57846 7.72812 -0.236543 4.16609 25.5241
2752805 4.24348 4.91319 8.55754 7.74684 -0.138441 4.21097 25.461
2752817 4.31304 4.88516 8.62031 7.75619 -0.285433 4.21019 25.5747
2752826 4.31304 4.88516 8.62031 7.75619 -0.285433 4.21019 25.5747
2752839 4.31304 4.93187 8.55754 7.75619 -0.178531 4.14859 25.5586
2752848 4.31304 4.89451 8.57846 7.76555 -0.226457 4.18945 25.5516
2752860 4.31304 4.89451 8.57846 7.76555 -0.226457 4.18945 25.5516
2752867 4.27826 4.93187 8.53662 7.71877 -0.16124 4.14988 25.4655
2752886 4.29565 4.8478 8.55754 7.74684 -0.254004 4.22094 25.4478
2752902 4.35652 4.94121 8.59938 7.73748 -0.270355 4.11893 25.6346
2752906 4.35652 4.94121 8.59938 7.73748 -0.270355 4.11893 25.6346
2752917 4.28696 4.85714 8.51569 7.71877 -0.223356 4.19076 25.3786
2752927 4.29565 4.83846 8.568 7.70941 -0.310667 4.21657 25.4115
2752948 4.27826 4.81978 8.55754 7.81233 -0.199947 4.28293 25.4679
2752968 4.25217 4.82912 8.54708 7.8404 -0.127347 4.30302 25.4688
2752978 4.22609 4.87582 8.568 7.7749 -0.140852 4.26864 25.4448
2752998 4.2 4.91319 8.568 7.82168 -0.0324756 4.27981 25.5029
2753009 4.23478 4.83846 8.568 7.8404 -0.121582 4.3179 25.4816
2753018 4.23478 4.83846 8.568 7.8404 -0.121582 4.3179 25.4816
2753031 4.1913 4.86648 8.58892 7.85911 -0.0535518 4.34621 25.5058
2753038 4.1913 4.86648 8.58892 7.85911 -0.0535518 4.34621 25.5058
2753048 4.23478 4.79176 8.49477 7.83104 -0.105266 4.31869 25.3523
2753058 4.27826 4.86648 8.59938 7.81233 -0.194505 4.26524 25.5565
2753068 4.27826 4.86648 8.59938 7.81233 -0.194505 4.26524 25.5565
2753078 4.2087 4.88516 8.52615 7.76555 -0.0828594 4.25311 25.3856
2753088 4.1913 4.8478 8.54708 7.85911 -0.0309184 4.34289 25.4453
2753098 4.1913 4.8478 8.54708 7.85911 -0.0309184 4.34289 25.4453
2753108 4.25217 4.91319 8.568 7.81233 -0.092636 4.23651 25.5457
2753118 4.25217 4.91319 8.568 7.81233 -0.092636 4.23651 25.5457
2753128 4.24348 4.88516 8.60985 7.82168 -0.143267 4.2857 25.5602
2753137 4.18261 4.83846 8.60985 7.8404 -0.111496 4.37502 25.4713
2753161 4.2 4.93187 8.58892 7.83104 -0.0254512 4.27842 25.5518
2753180 4.2 4.83846 8.58892 7.82168 -0.126506 4.34523 25.4491
2753188 4.16522 4.93187 8.59938 7.90589 0.0714332 4.34033 25.6024
2753201 4.16522 4.93187 8.59938 7.90589 0.0714332 4.34033 25.6024
2753209 4.18261 4.8478 8.51569 7.87782 0.0268638 4.3442 25.4239
2753223 4.25217 4.8478 8.62031 7.90589 -0.115889 4.34686 25.6262
2753229 4.25217 4.8478 8.62031 7.90589 -0.115889 4.34686 25.6262
2753239 4.21739 4.82912 8.63077 7.91525 -0.10139 4.39552 25.5925
2753249 4.18261 4.82912 8.60985 7.91525 -0.0470787 4.41325 25.5368
2753259 4.18261 4.88516 8.60985 7.86846 -0.0379965 4.35127 25.5461
2753269 4.2 4.90385 8.60985 7.8404 -0.0641808 4.31226 25.5541
2753279 4.2 4.90385 8.60985 7.8404 -0.0641808 4.31226 25.5541
2753290 4.18261 4.81978 8.50523 7.82168 -0.0457719 4.33758 25.3293
2753299 4.23478 4.89451 8.54708 7.85911 -0.0276521 4.27458 25.5355
2753319 4.2087 4.86648 8.65169 7.87782 -0.113341 4.36697 25.6047
2753333 4.2087 4.86648 8.65169 7.87782 -0.113341 4.36697 25.6047
2753339 4.2 4.81044 8.58892 7.88718 -0.0895619 4.39389 25.4865
2753349 4.18261 4.8478 8.59938 7.85911 -0.07364 4.37136 25.4889
2753359 4.18261 4.8478 8.59938 7.85911 -0.07364 4.37136 25.4889
2753369 4.24348 4.85714 8.55754 7.85911 -0.0830457 4.30063 25.5173
2753379 4.22609 4.87582 8.58892 7.84975 -0.0875413 4.30888 25.5406
2753389 4.22609 4.87582 8.58892 7.84975 -0.0875413 4.30888 25.5406
2753399 4.26957 4.92253 8.62031 7.84975 -0.11456 4.25411 25.6622
2753409 4.26957 4.92253 8.62031 7.84975 -0.11456 4.25411 25.6622
2753419 4.26957 4.82912 8.568 7.76555 -0.238769 4.26714 25.4322
2753430 4.26087 4.86648 8.58892 7.79362 -0.185904 4.2661 25.5099
2753439 4.26087 4.86648 8.58892 7.79362 -0.185904 4.2661 25.5099
2753449 4.27826 4.85714 8.568 7.80297 -0.18245 4.25515 25.5064
2753460 4.26087 4.87582 8.55754 7.76555 -0.173841 4.23397 25.4598
2753480 4.28696 4.88516 8.55754 7.75619 -0.199266 4.20328 25.4859
2753490 4.28696 4.88516 8.55754 7.75619 -0.199266 4.20328 25.4859
2753500 4.28696 4.90385 8.54708 7.74684 -0.179866 4.18081 25.4847
2753510 4.29565 4.91319 8.57846 7.70941 -0.246614 4.16467 25.4967
2753521 4.29565 4.91319 8.57846 7.70941 -0.246614 4.16467 25.4967
2753531 4.33043 4.90385 8.568 7.75619 -0.233187 4.161 25.5585
2753543 4.31304 4.90385 8.52615 7.73748 -0.194141 4.14831 25.4805
2753565 4.34783 4.95055 8.54708 7.73748 -0.202161 4.0962 25.5829
2753571 4.34783 4.95055 8.54708 7.73748 -0.202161 4.0962 25.5829
2753581 4.33043 4.89451 8.568 7.70941 -0.288717 4.14813 25.5024
2753592 4.33043 4.91319 8.48431 7.71877 -0.179578 4.10237 25.4467
2753601 4.33043 4.91319 8.48431 7.71877 -0.179578 4.10237 25.4467
2753612 4.33913 4.95989 8.49477 7.71877 -0.152121 4.06536 25.5126
2753621 4.33043 4.89451 8.50523 7.66263 -0.27422 4.10131 25.3928
2753634 4.33043 4.89451 8.50523 7.66263 -0.27422 4.10131 25.3928
2753642 4.3913 4.92253 8.52615 7.67199 -0.316462 4.04769 25.512
2753653 4.3913 4.92253 8.52615 7.67199 -0.316462 4.04769 25.512
2753661 4.34783 4.93187 8.54708 7.64392 -0.313219 4.07015 25.4707
2753675 4.32174 4.95055 8.49477 7.65327 -0.209168 4.05724 25.4203
2753681 4.32174 4.95055 8.49477 7.65327 -0.209168 4.05724 25.4203
2753691 4.33913 4.96923 8.53662 7.64392 -0.257559 4.04422 25.4889
2753701 4.32174 4.89451 8.49477 7.70006 -0.218356 4.11941 25.4111
2753711 4.32174 4.89451 8.49477 7.70006 -0.218356 4.11941 25.4111
2753721 4.37391 4.95055 8.52615 7.73748 -0.207166 4.06781 25.5881
2753731 4.37391 4.95055 8.52615 7.73748 -0.207166 4.06781 25.5881
2753741 4.34783 4.89451 8.57846 7.6907 -0.334243 4.13157 25.5115
2753751 4.35652 4.95989 8.54708 7.6907 -0.247523 4.06276 25.5542
2753763 4.35652 4.95989 8.54708 7.6907 -0.247523 4.06276 25.5542
2753773 4.34783 4.90385 8.52615 7.71877 -0.24647 4.11422 25.4966
2753783 4.33913 4.91319 8.51569 7.67199 -0.264984 4.08925 25.44
2753792 4.33913 4.91319 8.51569 7.67199 -0.264984 4.08925 25.44
2753810 4.33913 4.95055 8.52615 7.6907 -0.219586 4.07376 25.5065
2753813 4.33913 4.95055 8.52615 7.6907 -0.219586 4.07376 25.5065
2753825 4.32174 4.91319 8.568 7.70941 -0.261775 4.14064 25.5123
2753834 4.34783 4.89451 8.53662 7.67199 -0.312313 4.10571 25.4509
2753847 4.34783 4.89451 8.53662 7.67199 -0.312313 4.10571 25.4509
2753853 4.32174 4.87582 8.53662 7.67199 -0.30558 4.13937 25.4062
2753863 4.36522 4.91319 8.57846 7.74684 -0.276966 4.12844 25.6037
2753873 4.36522 4.91319 8.57846 7.74684 -0.276966 4.12844 25.6037
2753883 4.32174 4.91319 8.54708 7.75619 -0.195235 4.15163 25.5382
2753893 4.32174 4.91319 8.54708 7.75619 -0.195235 4.15163 25.5382
2753903 4.29565 4.94121 8.54708 7.75619 -0.142255 4.15018 25.5401
2753913 4.27826 4.94121 8.54708 7.81233 -0.070177 4.18701 25.5789
2753934 4.30435 4.92253 8.51569 7.79362 -0.101717 4.16023 25.5362
2753946 4.32174 4.87582 8.54708 7.80297 -0.185947 4.1995 25.5476
2753957 4.32174 4.87582 8.54708 7.80297 -0.185947 4.1995 25.5476
2753964 4.30435 4.94121 8.49477 7.7749 -0.081329 4.12937 25.5152
2753974 4.30435 4.94121 8.49477 7.7749 -0.081329 4.12937 25.5152
2753984 4.26957 4.81978 8.44246 7.80297 -0.0880942 4.23692 25.3348
2753994 4.29565 4.89451 8.47385 7.73748 -0.135343 4.14612 25.4015
2754014 4.26957 4.91319 8.49477 7.78426 -0.0656739 4.18055 25.4618
2754026 4.26957 4.95055 8.52615 7.7749 -0.0688314 4.16181 25.5212
2754035 4.26957 4.95055 8.52615 7.7749 -0.0688314 4.16181 25.5212
2754046 4.26957 5.01593 8.49477 7.75619 0.00762641 4.09148 25.5365
2754055 4.26957 5.01593 8.49477 7.75619 0.00762641 4.09148 25.5365
2754068 4.25217 4.91319 8.49477 7.78426 -0.0486314 4.19366 25.4444
2754074 4.30435 4.95989 8.51569 7.80297 -0.0558764 4.13622 25.5829
2754084 4.30435 4.95989 8.51569 7.80297 -0.0558764 4.13622 25.5829
2754094 4.30435 4.95055 8.48431 7.72812 -0.107963 4.09792 25.4673
2754104 4.29565 4.96923 8.45292 7.71877 -0.0595376 4.07296 25.4366
2754115 4.29565 4.96923 8.45292 7.71877 -0.0595376 4.07296 25.4366
2754125 4.30435 5.00659 8.46338 7.73748 -0.0231877 4.05102 25.5118
2754136 4.30435 5.00659 8.46338 7.73748 -0.0231877 4.05102 25.5118
2754145 4.33043 5.00659 8.39015 7.70941 -0.00450611 3.98788 25.4366
2754159 4.35652 5.01593 8.432 7.71877 -0.0527158 3.98362 25.5232
2754166 4.35652 5.01593 8.432 7.71877 -0.0527158 3.98362 25.5232
2754175 4.30435 5.00659 8.41108 7.59714 -0.110286 3.96771 25.3192
2754185 4.30435 5.00659 8.40062 7.59714 -0.0999972 3.96315 25.3087
2754195 4.29565 4.98791 8.40062 7.6907 -0.0173956 4.0243 25.3749
2754205 4.35652 5.02527 8.42154 7.72812 -0.0241473 3.97619 25.5315
2754215 4.35652 5.02527 8.42154 7.72812 -0.0241473 3.97619 25.5315
2754225 4.33913 5.0533 8.37969 7.70006 0.0338882 3.93801 25.4722
2754235 4.34783 5.02527 8.44246 7.65327 -0.109683 3.95933 25.4688
2754245 4.34783 5.02527 8.44246 7.65327 -0.109683 3.95933 25.4688
2754255 4.37391 5.0533 8.47385 7.65327 -0.138125 3.93274 25.5543
2754267 4.37391 5.0533 8.47385 7.65327 -0.138125 3.93274 25.5543
2754275 4.35652 4.99725 8.432 7.6907 -0.0986874 3.9854 25.4765
2754288 4.37391 5.09066 8.39015 7.67199 -0.00139028 3.87686 25.5267
2754297 4.37391 5.09066 8.39015 7.67199 -0.00139028 3.87686 25.5267
2754308 4.4087 5.09066 8.432 7.72812 -0.0213489 3.89375 25.6595
2754316 4.35652 5.10934 8.39015 7.6907 0.0522226 3.88406 25.5467
2754337 4.34783 5.08132 8.37969 7.64392 -0.00224262 3.8863 25.4528
2754346 4.37391 5.04396 8.432 7.58778 -0.171177 3.893 25.4377
2754358 4.37391 5.04396 8.432 7.58778 -0.171177 3.893 25.4377
2754372 4.42609 5.04396 8.39015 7.63456 -0.135049 3.85648 25.4948
2754379 4.42609 5.04396 8.39015 7.63456 -0.135049 3.85648 25.4948
2754388 4.36522 5.01593 8.46338 7.63456 -0.174758 3.9543 25.4791
2754398 4.37391 5.06264 8.42154 7.60649 -0.124015 3.88273 25.4646
2754408 4.37391 5.06264 8.42154 7.60649 -0.124015 3.88273 25.4646
2754418 4.4 5.01593 8.40062 7.63456 -0.147457 3.90115 25.4511
2754435 4.41739 5.1 8.36923 7.62521 -0.0601843 3.80826 25.5118
2754451 4.4087 5.1 8.42154 7.59714 -0.130345 3.8253 25.5274
2754458 4.4087 5.1 8.42154 7.59714 -0.130345 3.8253 25.5274
2754467 4.34783 5.0533 8.37969 7.65327 -0.0205889 3.91119 25.4341
2754479 4.42609 5.08132 8.45292 7.65327 -0.140958 3.86442 25.6136
2754489 4.42609 5.08132 8.45292 7.65327 -0.140958 3.86442 25.6136
2754499 4.4 5.07198 8.48431 7.63456 -0.173661 3.89606 25.5908
2754509 4.37391 5.0533 8.46338 7.53165 -0.248165 3.87524 25.4222
2754529 4.42609 5.07198 8.432 7.63456 -0.148199 3.85405 25.5646
2754541 4.42609 5.07198 8.432 7.63456 -0.148199 3.85405 25.5646
2754550 4.35652 5.02527 8.46338 7.58778 -0.203329 3.9335 25.433
2754561 4.36522 5.02527 8.44246 7.59714 -0.182132 3.92199 25.4301
2754570 4.36522 5.02527 8.44246 7.59714 -0.182132 3.92199 25.4301
2754583 4.4087 5.02527 8.45292 7.57843 -0.253206 3.8861 25.4653
2754589 4.4087 5.08132 8.45292 7.52229 -0.253297 3.82003 25.4652
2754610 4.42609 5.03462 8.44246 7.60649 -0.222896 3.87398 25.5097
2754620 4.42609 5.03462 8.44246 7.60649 -0.222896 3.87398 25.5097
2754630 4.4 5.04396 8.46338 7.55036 -0.264232 3.871 25.4577
2754641 4.45217 5.10934 8.44246 7.55971 -0.220606 3.77919 25.5637
2754650 4.45217 5.10934 8.44246 7.55971 -0.220606 3.77919 25.5637
2754660 4.4 5.03462 8.44246 7.47551 -0.327718 3.83591 25.3526
2754671 4.45217 5.07198 8.432 7.51293 -0.293751 3.78151 25.4691
2754694 4.43478 5.09066 8.41108 7.4568 -0.293781 3.74652 25.3933
2754700 4.43478 5.09066 8.41108 7.4568 -0.293781 3.74652 25.3933
2754710 4.45217 5.08132 8.45292 7.48487 -0.332642 3.77148 25.4713
2754720 4.50435 5.01593 8.48431 7.3913 -0.572354 3.75376 25.3959
2754735 4.50435 5.01593 8.48431 7.3913 -0.572354 3.75376 25.3959
2754742 4.48696 5.08132 8.45292 7.38195 -0.469048 3.70029 25.4031
2754751 4.53913 5.09066 8.45292 7.37259 -0.519343 3.65094 25.4553
2754761 4.53913 5.09066 8.45292 7.37259 -0.519343 3.65094 25.4553
2754772 4.48696 5.15604 8.41108 7.36324 -0.372535 3.61839 25.4173
2754784 4.48696 5.15604 8.41108 7.36324 -0.372535 3.61839 25.4173
2754792 4.57391 5.10934 8.39015 7.28839 -0.55826 3.54586 25.3618
2754801 4.5913 5.11868 8.45292 7.35388 -0.560088 3.584 25.5168
2754812 4.5913 5.11868 8.45292 7.35388 -0.560088 3.584 25.5168
2754821 4.6087 5.10934 8.41108 7.3071 -0.592984 3.53835 25.4362
2754832 4.61739 5.1467 8.37969 7.26032 -0.580674 3.46947 25.4041
2754851 4.6087 5.19341 8.40062 7.31646 -0.489286 3.47678 25.5192
2754864 4.6087 5.19341 8.40062 7.31646 -0.489286 3.47678 25.5192
2754872 4.6087 5.18407 8.34831 7.28839 -0.476365 3.44714 25.4295
2754885 4.62609 5.19341 8.33785 7.3071 -0.454976 3.43152 25.4644
2754893 4.62609 5.19341 8.33785 7.3071 -0.454976 3.43152 25.4644
2754901 4.66087 5.22143 8.33785 7.26968 -0.497855 3.36912 25.4898
2754913 4.52174 5.20275 8.39015 7.26032 -0.442193 3.50305 25.375
2754923 4.52174 5.20275 8.39015 7.26032 -0.442193 3.50305 25.375
2754933 4.67826 5.26813 8.35877 7.29774 -0.460058 3.3454 25.6029
2754943 4.67826 5.26813 8.35877 7.29774 -0.460058 3.3454 25.6029
2754953 4.65217 5.20275 8.28554 7.26968 -0.457782 3.36497 25.4101
2754963 4.63478 5.30549 8.24369 7.26968 -0.2979 3.28426 25.4536
2754983 4.65217 5.24011 8.23323 7.22289 -0.416593 3.29242 25.3484
2754994 4.62609 5.27747 8.19138 7.22289 -0.313124 3.26492 25.3178
2755014 4.63478 5.29615 8.21231 7.26968 -0.276694 3.27651 25.4129
2755023 4.63478 5.29615 8.21231 7.26968 -0.276694 3.27651 25.4129
2755036 4.58261 5.23077 8.09723 7.26968 -0.178109 3.30826 25.1803
2755043 4.62609 5.29615 8.21231 7.3071 -0.231057 3.3 25.4416
2755057 4.62609 5.29615 8.21231 7.3071 -0.231057 3.3 25.4416
2755064 4.62609 5.36154 8.22277 7.29774 -0.185797 3.2536 25.5081
2755074 4.64348 5.32418 8.08677 7.28839 -0.116093 3.20061 25.3428
2755090 4.64348 5.32418 8.08677 7.28839 -0.116093 3.20061 25.3428
2755101 4.64348 5.3522 8.14954 7.3071 -0.131342 3.21835 25.4523
2755114 4.65217 5.33352 8.05538 7.23225 -0.140259 3.14676 25.2733
2755126 4.6087 5.32418 8.06585 7.26032 -0.0891224 3.20279 25.259
2755147 4.64348 5.40824 8.13908 7.31646 -0.0567064 3.17781 25.5073
2755155 4.65217 5.3989 8.08677 7.36324 0.0227362 3.17571 25.5011
2755169 4.65217 5.3989 8.08677 7.36324 0.0227362 3.17571 25.5011
2755175 4.64348 5.42692 8.16 7.33517 -0.0404745 3.18285 25.5656
2755195 4.62609 5.3522 8.10769 7.33517 -0.0456467 3.22443 25.4211
2755205 4.64348 5.43626 8.08677 7.35388 0.0586748 3.15096 25.5204
2755216 4.64348 5.43626 8.08677 7.35388 0.0586748 3.15096 25.5204
2755230 4.62609 5.3989 8.11815 7.28839 -0.0559866 3.17414 25.4315
2755236 4.58261 5.4456 8.06585 7.26968 0.0658661 3.13872 25.3637
2755246 4.58261 5.4456 8.06585 7.26968 0.0658661 3.13872 25.3637
2755256 4.6087 5.38022 8.07631 7.26032 -0.0438929 3.16738 25.3255
2755266 4.6087 5.38022 8.07631 7.26032 -0.0438929 3.16738 25.3255
2755276 4.6087 5.40824 8.09723 7.29774 5.96046e-05 3.17452 25.4119
2755286 4.61739 5.3989 8.13908 7.34452 -0.0127867 3.21608 25.4999
2755300 4.61739 5.3989 8.13908 7.34452 -0.0127867 3.21608 25.4999
2755308 4.62609 5.38956 8.08677 7.34452 0.0208527 3.19232 25.4469
2755317 4.6 5.38022 8.17046 7.34452 -0.0448287 3.25636 25.4952
2755327 4.6 5.38022 8.17046 7.34452 -0.0448287 3.25636 25.4952
2755336 4.56522 5.3522 8.19138 7.31646 -0.0864774 3.29815 25.4253
2755346 4.56522 5.3522 8.19138 7.31646 -0.0864774 3.29815 25.4253
2755356 4.5913 5.30549 8.16 7.34452 -0.0996858 3.31148 25.4013
2755366 4.52174 5.33352 8.14954 7.41937 0.0802517 3.371 25.4242
2755377 4.52174 5.33352 8.14954 7.41937 0.0802517 3.371 25.4242
2755387 4.57391 5.30549 8.14954 7.35388 -0.0631109 3.32351 25.3828
2755396 4.58261 5.36154 8.12862 7.41002 0.0591874 3.2931 25.4828
2755411 4.58261 5.36154 8.12862 7.41002 0.0591874 3.2931 25.4828
2755416 4.56522 5.37088 8.17046 7.41937 0.0534475 3.32235 25.5259
2755429 4.56522 5.37088 8.17046 7.41937 0.0534475 3.32235 25.5259
2755438 4.50435 5.32418 8.13908 7.37259 0.0526249 3.36411 25.3402
2755451 4.6 5.36154 8.18092 7.31646 -0.101075 3.26163 25.4589
2755458 4.6 5.36154 8.18092 7.31646 -0.101075 3.26163 25.4589
2755468 4.6087 5.32418 8.19138 7.38195 -0.0920907 3.31711 25.5062
2755478 4.53043 5.41758 8.17046 7.33517 0.0509292 3.27514 25.4536
2755488 4.53043 5.41758 8.17046 7.33517 0.0509292 3.27514 25.4536
2755498 4.61739 5.42692 8.17046 7.36324 0.00225604 3.2192 25.578
2755510 4.61739 5.42692 8.17046 7.36324 0.00225604 3.2192 25.578
2755518 4.53913 5.37088 8.13908 7.23225 -0.0742421 3.24033 25.2813
2755528 4.61739 5.38956 8.14954 7.28839 -0.0874266 3.20161 25.4449
2755538 4.61739 5.38956 8.14954 7.28839 -0.0874266 3.20161 25.4449
2755548 4.58261 5.42692 8.06585 7.3071 0.084278 3.16956 25.3825
2755558 4.6 5.32418 8.14954 7.3071 -0.116488 3.26967 25.3808
2755568 4.6 5.32418 8.14954 7.3071 -0.116488 3.26967 25.3808
2755579 4.64348 5.3989 8.11815 7.26968 -0.0914827 3.15301 25.4302
2755588 4.64348 5.3989 8.11815 7.26968 -0.0914827 3.15301 25.4302
2755601 4.6087 5.40824 8.11815 7.24161 -0.0758573 3.15811 25.3767
2755610 4.62609 5.3989 8.10769 7.27903 -0.0549421 3.16492 25.4117
2755618 4.62609 5.3989 8.10769 7.27903 -0.0549421 3.16492 25.4117
2755628 4.70435 5.42692 8.12862 7.23225 -0.170435 3.07718 25.4921
2755638 4.65217 5.40824 8.10769 7.26032 -0.0897661 3.1309 25.4284
2755648 4.65217 5.40824 8.10769 7.26032 -0.0897661 3.1309 25.4284
2755658 4.72174 5.4456 8.20185 7.17611 -0.295423 3.05963 25.5453
2755668 4.72174 5.4456 8.20185 7.17611 -0.295423 3.05963 25.5453
2755678 4.66087 5.38022 8.12862 7.23225 -0.174212 3.14136 25.402
2755688 4.65217 5.41758 8.16 7.19483 -0.196427 3.11809 25.4246
2755714 4.70435 5.47363 8.11815 7.16676 -0.178806 3.00846 25.4629
2755733 4.66087 5.47363 8.11815 7.16676 -0.13635 3.03926 25.4194
2755734 4.66087 5.38022 8.11815 7.23225 -0.163986 3.13647 25.3915
2755739 4.68696 5.40824 8.08677 7.12933 -0.233245 3.03475 25.3113
2755750 4.68696 5.40824 8.08677 7.12933 -0.233245 3.03475 25.3113
2755759 4.67826 5.3989 8.07631 7.22289 -0.130804 3.08675 25.3764
2755771 4.66087 5.42692 8.17046 7.23225 -0.168845 3.12759 25.4905
2755779 4.66087 5.42692 8.17046 7.23225 -0.168845 3.12759 25.4905
2755789 4.76522 5.48297 8.09723 7.17611 -0.199212 2.95348 25.5215
2755799 4.73043 5.48297 8.19138 7.16676 -0.266013 3.01785 25.5715
2755811 4.73043 5.3522 8.19138 7.16676 -0.395885 3.11046 25.4408
2755819 4.73043 5.37088 8.13908 7.20418 -0.289305 3.09022 25.4446
2755830 4.73043 5.37088 8.13908 7.20418 -0.289305 3.09022 25.4446
2755840 4.72174 5.34286 8.14954 7.11998 -0.403056 3.08177 25.3341
2755850 4.69565 5.37088 8.18092 7.12933 -0.370774 3.09952 25.3768
2755860 4.69565 5.37088 8.18092 7.12933 -0.370774 3.09952 25.3768
2755870 4.70435 5.33352 8.24369 7.1574 -0.449233 3.16241 25.439
2755881 4.70435 5.33352 8.24369 7.1574 -0.449233 3.16241 25.439
2755891 4.66087 5.33352 8.18092 7.20418 -0.299549 3.18607 25.3795
2755904 4.74783 5.32418 8.25415 7.17611 -0.491811 3.15164 25.5023
2755910 4.74783 5.32418 8.25415 7.17611 -0.491811 3.15164 25.5023
2755919 4.68696 5.38022 8.20185 7.18547 -0.317343 3.13509 25.4545
2755929 4.68696 5.32418 8.19138 7.16676 -0.381766 3.16151 25.3693
2755939 4.68696 5.32418 8.19138 7.16676 -0.381766 3.16151 25.3693
2755950 4.68696 5.32418 8.22277 7.16676 -0.412187 3.17613 25.4007
2755960 4.68696 5.32418 8.22277 7.16676 -0.412187 3.17613 25.4007
2755971 4.64348 5.29615 8.10769 7.25096 -0.201648 3.21308 25.2983
2755980 4.63478 5.24945 8.24369 7.27903 -0.344387 3.32891 25.407
2755993 4.63478 5.24945 8.24369 7.27903 -0.344387 3.32891 25.407
2756000 4.66087 5.34286 8.23323 7.18547 -0.359695 3.195 25.4224
2756015 4.58261 5.30549 8.25415 7.21354 -0.313272 3.30078 25.3558
2756023 4.58261 5.30549 8.25415 7.21354 -0.313272 3.30078 25.3558
2756030 4.66957 5.34286 8.23323 7.26032 -0.293677 3.22344 25.506
2756040 4.66957 5.34286 8.23323 7.26032 -0.293677 3.22344 25.506
2756056 4.67826 5.25879 8.19138 7.22289 -0.382584 3.24079 25.3513
2756062 4.69565 5.36154 8.18092 7.23225 -0.277561 3.15425 25.4704
2756072 4.69565 5.36154 8.18092 7.23225 -0.277561 3.15425 25.4704
2756081 4.63478 5.33352 8.16 7.17611 -0.281721 3.18194 25.3044
2756092 4.66087 5.34286 8.07631 7.13869 -0.253412 3.09964 25.2187
2756101 4.66087 5.34286 8.07631 7.13869 -0.253412 3.09964 25.2187
2756111 4.68696 5.3989 8.12862 7.1574 -0.25547 3.07437 25.3719
2756122 4.68696 5.3989 8.12862 7.1574 -0.25547 3.07437 25.3719
2756130 4.69565 5.37088 8.07631 7.22289 -0.175615 3.09434 25.3657
2756141 4.73043 5.38022 8.14954 7.23225 -0.262335 3.10159 25.4924
2756163 4.71304 5.43626 8.17046 7.16676 -0.275129 3.05333 25.4865
2756172 4.70435 5.41758 8.10769 7.19483 -0.196296 3.05646 25.4244
2756185 4.70435 5.41758 8.10769 7.19483 -0.196296 3.05646 25.4244
2756192 4.75652 5.46429 8.01354 7.20418 -0.0998423 2.94646 25.4385
2756202 4.75652 5.46429 8.01354 7.20418 -0.0998423 2.94646 25.4385
2756211 4.64348 5.43626 7.99262 7.23225 0.0320315 3.04991 25.3046
2756223 4.67826 5.47363 8.03446 7.20418 -0.0343755 3.00511 25.3905
2756234 4.67826 5.47363 8.03446 7.20418 -0.0343755 3.00511 25.3905
2756243 4.65217 5.52967 7.97169 7.18547 0.0900537 2.94525 25.339
2756254 4.66957 5.51099 7.96123 7.21354 0.092417 2.95454 25.3553
2756263 4.66957 5.51099 7.96123 7.21354 0.092417 2.95454 25.3553
2756273 4.75652 5.52033 7.99262 7.1574 -0.0702053 2.87481 25.4269
2756293 4.73043 5.41758 7.98215 7.12933 -0.163971 2.94749 25.2595
2756304 4.69565 5.47363 7.94031 7.22289 0.0597686 2.95703 25.3325
2756314 4.69565 5.47363 7.94031 7.22289 0.0597686 2.95703 25.3325
2756324 4.66087 5.45495 7.94031 7.16676 0.020346 2.96829 25.2229
2756334 4.70435 5.50165 8.024 7.18547 -0.040555 2.95301 25.4155
2756343 4.70435 5.50165 8.024 7.18547 -0.040555 2.95301 25.4155
2756356 4.67826 5.50165 7.96123 7.20418 0.065437 2.95055 25.3453
2756370 4.67826 5.50165 7.96123 7.20418 0.065437 2.95055 25.3453
2756378 4.70435 5.52967 7.91938 7.16676 0.0717789 2.87446 25.3202
2756384 4.71304 5.57637 7.99262 7.1574 0.0276327 2.86598 25.4394
2756394 4.71304 5.57637 7.99262 7.1574 0.0276327 2.86598 25.4394
2756404 4.73043 5.48297 7.94031 7.12933 -0.0577867 2.88113 25.283
2756414 4.73043 5.59506 7.87754 7.17611 0.160757 2.79452 25.3791
2756424 4.73043 5.59506 7.87754 7.17611 0.160757 2.79452 25.3791
2756434 4.75652 5.59506 7.91938 7.14805 0.0660866 2.78287 25.419
2756444 4.75652 5.59506 7.91938 7.14805 0.0660866 2.78287 25.419
2756454 4.72174 5.53901 7.94031 7.13869 0.0154436 2.85219 25.3397
2756465 4.7913 5.6044 7.92985 7.16676 0.0490367 2.76607 25.4923
2756486 4.78261 5.52033 7.89846 7.10127 -0.0587642 2.78436 25.3027
2756495 4.7913 5.54835 7.89846 7.13869 -0.0026837 2.77665 25.3768
2756507 4.7913 5.54835 7.89846 7.13869 -0.0026837 2.77665 25.3768
2756515 4.81739 5.59506 7.95077 7.11998 -0.0521213 2.74198 25.4832
2756525 4.81739 5.59506 7.95077 7.11998 -0.0521213 2.74198 25.4832
2756538 4.77391 5.59506 7.89846 7.11062 0.0328064 2.74259 25.3781
2756545 4.73043 5.53901 7.91938 7.10127 -0.00943244 2.81802 25.2901
2756555 4.73043 5.53901 7.91938 7.10127 -0.00943244 2.81802 25.2901
2756571 4.8087 5.53901 7.89846 7.10127 -0.0659645 2.75295 25.3474
2756577 4.8 5.58571 7.99262 7.13869 -0.0668302 2.78966 25.517
2756587 4.8 5.58571 7.99262 7.13869 -0.0668302 2.78966 25.517
2756598 4.8 5.59506 7.95077 7.03577 -0.118138 2.71347 25.3816
2756607 4.8 5.59506 7.95077 7.03577 -0.118138 2.71347 25.3816
2756617 4.76522 5.54835 7.92985 7.11998 -0.0263527 2.80104 25.3634
2756626 4.81739 5.52967 7.97169 7.08255 -0.174063 2.77969 25.4013
2756636 4.81739 5.52967 7.97169 7.08255 -0.174063 2.77969 25.4013
2756645 4.76522 5.51099 7.91938 7.0732 -0.099346 2.79973 25.2688
2756656 4.7913 5.48297 8.01354 7.11998 -0.198656 2.86875 25.4078
2756665 4.7913 5.48297 8.01354 7.11998 -0.198656 2.86875 25.4078
2756675 4.76522 5.49231 8.00308 7.14805 -0.125882 2.88894 25.4086
2756685 4.76522 5.49231 8.00308 7.14805 -0.125882 2.88894 25.4086
2756697 4.76522 5.50165 8.05538 7.05449 -0.260542 2.86266 25.3767
2756706 4.76522 5.4456 8.08677 7.11062 -0.291008 2.94387 25.4082
2756719 4.76522 5.4456 8.08677 7.11062 -0.291008 2.94387 25.4082
2756726 4.75652 5.46429 8.01354 7.08255 -0.220427 2.88856 25.3169
2756740 4.74783 5.43626 8.08677 7.1574 -0.23687 2.98492 25.4283
2756748 4.74783 5.43626 8.08677 7.1574 -0.23687 2.98492 25.4283
2756756 4.78261 5.45495 8.03446 7.09191 -0.266337 2.8912 25.3639
2756766 4.78261 5.45495 8.03446 7.09191 -0.266337 2.8912 25.3639
2756776 4.71304 5.40824 8.06585 7.12933 -0.238298 3.00628 25.3165
2756786 4.74783 5.45495 8.04492 7.13869 -0.196081 2.94302 25.3864
2756807 4.74783 5.40824 8.00308 7.03577 -0.304514 2.907 25.1949
2756817 4.75652 5.4456 8.13908 7.11062 -0.333346 2.97478 25.4518
2756828 4.75652 5.4456 8.13908 7.11062 -0.333346 2.97478 25.4518
2756838 4.8087 5.52033 8.06585 7.12933 -0.220259 2.85973 25.5242
2756850 4.8087 5.52033 8.06585 7.12933 -0.220259 2.85973 25.5242
2756857 4.76522 5.38022 8.12862 7.14805 -0.359496 3.02762 25.4221
2756866 4.75652 5.45495 8.09723 7.1574 -0.236985 2.97052 25.4661
2756876 4.75652 5.45495 8.09723 7.1574 -0.236985 2.97052 25.4661
2756886 4.72174 5.42692 8.11815 7.11062 -0.29785 3.00273 25.3774
2756896 4.69565 5.40824 8.09723 7.09191 -0.289339 3.0158 25.293
2756918 4.74783 5.45495 8.03446 7.0732 -0.251026 2.90684 25.3104
2756928 4.74783 5.45495 8.03446 7.0732 -0.251026 2.90684 25.3104
2756938 4.77391 5.47363 8.06585 7.0732 -0.288473 2.89021 25.3866
2756948 4.75652 5.46429 8.04492 7.19483 -0.139758 2.95689 25.4606
2756959 4.75652 5.46429 8.04492 7.19483 -0.139758 2.95689 25.4606
2756968 4.7913 5.47363 8.024 7.11062 -0.227423 2.87585 25.3996
2756985 4.75652 5.53901 8.13908 7.09191 -0.259218 2.90019 25.5265
2756994 4.75652 5.53901 8.13908 7.09191 -0.259218 2.90019 25.5265
2757011 4.71304 5.47363 8.07631 7.10127 -0.211379 2.95154 25.3642
2757013 4.71304 5.47363 8.07631 7.10127 -0.211379 2.95154 25.3642
2757019 4.75652 5.43626 7.99262 7.09191 -0.218539 2.90285 25.2773
2757030 4.7913 5.52033 8.01354 7.09191 -0.189441 2.82909 25.4171
2757040 4.7913 5.52033 8.01354 7.09191 -0.189441 2.82909 25.4171
2757050 4.82609 5.47363 7.92985 7.06384 -0.21593 2.78372 25.2934
2757063 4.75652 5.53901 8.03446 7.10127 -0.14815 2.85487 25.4313
2757070 4.75652 5.53901 8.03446 7.10127 -0.14815 2.85487 25.4313
2757080 4.78261 5.52033 7.92985 7.10127 -0.0896603 2.7995 25.334
2757092 4.82609 5.52967 7.97169 7.10127 -0.16403 2.7826 25.4287
2757101 4.82609 5.52967 7.97169 7.10127 -0.16403 2.7826 25.4287
2757114 4.82609 5.52033 7.96123 7.05449 -0.209469 2.76158 25.3621
2757122 4.82609 5.52033 7.96123 7.05449 -0.209469 2.76158 25.3621
2757135 4.82609 5.54835 7.94031 7.0732 -0.142631 2.74091 25.3879
2757142 4.78261 5.54835 7.94031 7.06384 -0.109257 2.76683 25.3351
2757152 4.78261 5.54835 7.94031 7.06384 -0.109257 2.76683 25.3351
2757161 4.84348 5.59506 7.85662 7.03577 -0.0683591 2.6374 25.3309
2757173 4.8 5.55769 7.84615 7.04513 -0.0429064 2.69333 25.249
2757181 4.8 5.55769 7.84615 7.04513 -0.0429064 2.69333 25.249
2757191 4.85217 5.6044 7.84615 7.08255 -0.0112072 2.64256 25.3853
2757201 4.85217 5.6044 7.84615 7.08255 -0.0112072 2.64256 25.3853
2757211 4.81739 5.56703 7.81477 7.05449 -0.0105366 2.66387 25.2537
2757224 4.8087 5.53901 7.888 7.12933 -0.0279427 2.76146 25.365
2757232 4.8087 5.53901 7.888 7.12933 -0.0279427 2.76146 25.365
2757242 4.8087 5.66978 7.86708 7.02642 0.0201255 2.61017 25.372
2757251 4.8087 5.66978 7.86708 7.02642 0.0201255 2.61017 25.372
2757261 4.8 5.62308 7.86708 7.11062 0.0655711 2.68965 25.4008
2757274 4.8 5.59506 7.85662 7.0732 0.0114888 2.68595 25.3249
2757281 4.8 5.59506 7.85662 7.0732 0.0114888 2.68595 25.3249
2757293 4.8 5.6044 7.92985 7.0732 -0.0514165 2.71494 25.4074
2757303 4.8087 5.57637 7.86708 7.08255 -0.0166208 2.70255 25.3347
2757313 4.8087 5.57637 7.86708 7.08255 -0.0166208 2.70255 25.3347
2757323 4.8 5.58571 7.89846 7.0732 -0.0389919 2.71279 25.3574
2757335 4.8 5.58571 7.89846 7.0732 -0.0389919 2.71279 25.3574
2757343 4.8 5.59506 7.89846 7.04513 -0.0575006 2.69264 25.3386
2757357 4.8087 5.6044 7.90892 7.11062 -0.00255704 2.71686 25.4326
2757363 4.8087 5.6044 7.90892 7.11062 -0.00255704 2.71686 25.4326
2757373 4.78261 5.66978 7.83569 7.05449 0.104532 2.62668 25.3426
2757384 4.78261 5.58571 7.91938 7.13869 0.0220388 2.76666 25.4264
2757393 4.78261 5.58571 7.91938 7.13869 0.0220388 2.76666 25.4264
2757403 4.8087 5.6511 7.888 7.10127 0.0546843 2.66973 25.4491
2757413 4.8087 5.6511 7.888 7.10127 0.0546843 2.66973 25.4491
2757423 4.81739 5.53901 7.94031 7.0732 -0.14337 2.75352 25.3699
2757433 4.81739 5.55769 7.95077 7.11998 -0.0889048 2.76803 25.4458
2757443 4.81739 5.55769 7.95077 7.11998 -0.0889048 2.76803 25.4458
2757453 4.81739 5.58571 7.90892 7.05449 -0.0848711 2.69665 25.3665
2757463 4.83478 5.52033 7.91938 7.09191 -0.139876 2.75336 25.3664
2757473 4.83478 5.52033 7.91938 7.09191 -0.139876 2.75336 25.3664
2757483 4.83478 5.59506 7.99262 7.10127 -0.128387 2.741 25.5237
2757504 4.76522 5.49231 8.03446 7.11062 -0.19363 2.88606 25.4026
2757513 4.77391 5.51099 7.94031 7.09191 -0.109926 2.81271 25.3171
2757526 4.77391 5.51099 7.94031 7.09191 -0.109926 2.81271 25.3171
2757533 4.8087 5.52033 7.98215 7.16676 -0.101817 2.83768 25.4779
2757543 4.73913 5.46429 7.99262 7.08255 -0.182869 2.89084 25.2786
2757554 4.73913 5.46429 7.99262 7.08255 -0.182869 2.89084 25.2786
2757564 4.77391 5.52033 7.99262 7.11062 -0.133456 2.84024 25.3975
2757584 4.72174 5.48297 8.04492 7.11062 -0.170617 2.92831 25.3603
2757595 4.73913 5.48297 8.11815 7.13869 -0.2312 2.96406 25.4789
2757604 4.73913 5.48297 8.11815 7.13869 -0.2312 2.96406 25.4789
2757615 4.69565 5.46429 8.08677 7.13869 -0.176723 2.99317 25.3854
2757625 4.72174 5.41758 8.07631 7.13869 -0.238396 3.00285 25.3543
2757636 4.72174 5.41758 8.07631 7.13869 -0.238396 3.00285 25.3543
2757651 4.70435 5.41758 8.00308 7.17611 -0.112376 2.99824 25.3011
2757658 4.72174 5.38956 8.10769 7.21354 -0.222485 3.0728 25.4325
2757666 4.72174 5.38956 8.10769 7.21354 -0.222485 3.0728 25.4325
2757681 4.72174 5.36154 8.07631 7.21354 -0.219691 3.078 25.3731
2757696 4.73913 5.41758 7.99262 7.18547 -0.126992 2.97301 25.3348
2757708 4.70435 5.41758 8.08677 7.27903 -0.0926957 3.08612 25.4877
2757717 4.70435 5.41758 8.08677 7.27903 -0.0926957 3.08612 25.4877
2757728 4.75652 5.45495 8.14954 7.23225 -0.213787 3.03028 25.5933
2757738 4.69565 5.3989 8.05538 7.23225 -0.118077 3.06894 25.3822
2757748 4.69565 5.3989 8.05538 7.23225 -0.118077 3.06894 25.3822
2757758 4.67826 5.45495 8.06585 7.23225 -0.0559419 3.04638 25.4313
2757778 4.67826 5.36154 8.09723 7.23225 -0.179057 3.12761 25.3693
2757791 4.63478 5.41758 8.13908 7.3071 -0.0482172 3.17301 25.4985
2757799 4.63478 5.41758 8.13908 7.3071 -0.0482172 3.17301 25.4985
2757813 4.70435 5.33352 8.10769 7.24161 -0.233305 3.13826 25.3872
2757819 4.66087 5.3522 8.10769 7.33517 -0.0797436 3.19952 25.4559
2757829 4.66087 5.3522 8.10769 7.33517 -0.0797436 3.19952 25.4559
2757839 4.65217 5.38022 8.16 7.28839 -0.140858 3.18828 25.4808
2757849 4.6087 5.36154 8.16 7.36324 -0.0430703 3.26731 25.4935
2757859 4.6087 5.36154 8.16 7.36324 -0.0430703 3.26731 25.4935
2757869 4.63478 5.25879 8.14954 7.43808 -0.0857934 3.35191 25.4812
2757890 4.6 5.33352 8.14954 7.3913 -0.0242546 3.30175 25.4744
2757900 4.56522 5.32418 8.18092 7.35388 -0.0669494 3.33073 25.4242
2757911 4.56522 5.32418 8.18092 7.35388 -0.0669494 3.33073 25.4242
2757923 4.6087 5.27747 8.21231 7.35388 -0.186281 3.34744 25.4524
2757930 4.6 5.26813 8.16 7.34452 -0.145181 3.33217 25.3727
2757944 4.6 5.26813 8.16 7.34452 -0.145181 3.33217 25.3727
2757950 4.5913 5.29615 8.13908 7.36324 -0.0699013 3.3172 25.3898
2757960 4.5913 5.29615 8.13908 7.36324 -0.0699013 3.3172 25.3898
2757970 4.58261 5.32418 8.08677 7.33517 -0.00990182 3.26615 25.3287
2757980 4.61739 5.32418 8.24369 7.34452 -0.188392 3.31768 25.5298
2757990 4.61739 5.32418 8.24369 7.34452 -0.188392 3.31768 25.5298
2758000 4.63478 5.3522 8.07631 7.31646 -0.0418022 3.19494 25.3797
2758010 4.63478 5.3522 8.07631 7.31646 -0.0418022 3.19494 25.3797
2758020 4.61739 5.34286 8.05538 7.26032 -0.0688389 3.17819 25.276
2758033 4.66087 5.38956 8.07631 7.28839 -0.0582621 3.13648 25.4151
2758040 4.66087 5.38956 8.07631 7.28839 -0.0582621 3.13648 25.4151
2758054 4.67826 5.3989 8.01354 7.26032 -0.0321284 3.07484 25.351
2758060 4.69565 5.37088 8.05538 7.25096 -0.127296 3.09769 25.3729
2758070 4.69565 5.37088 8.05538 7.25096 -0.127296 3.09769 25.3729
2758080 4.70435 5.43626 8.12862 7.32581 -0.0692382 3.11417 25.595
2758090 4.70435 5.43626 8.12862 7.32581 -0.0692382 3.11417 25.595
2758101 4.69565 5.4456 7.97169 7.29774 0.074774 3.02718 25.4107
2758110 4.73043 5.38022 8.00308 7.18547 -0.165835 3.0107 25.2992
2758130 4.77391 5.49231 7.99262 7.12933 -0.142671 2.86889 25.3882
2758140 4.70435 5.40824 8.01354 7.12933 -0.178486 2.98764 25.2555
2758152 4.70435 5.40824 8.01354 7.12933 -0.178486 2.98764 25.2555
2758164 4.71304 5.46429 7.98215 7.11062 -0.119007 2.91774 25.2701
2758172 4.71304 5.46429 7.98215 7.11062 -0.119007 2.91774 25.2701
2758185 4.71304 5.49231 8.01354 7.13869 -0.0942349 2.92627 25.3576
