1095732 4.92991 5.36399 13.3414 10.6972 -1.60937 6.00509 34.3324
1095744 4.92991 5.36399 13.3414 10.6972 -1.60937 6.00509 34.3324
1095751 4.85221 5.37335 13.2783 10.6413 -1.54917 6.0158 34.1451
1095763 4.90401 5.39207 13.3203 10.6413 -1.59891 5.98357 34.2577
1095773 4.90401 5.39207 13.3203 10.6413 -1.59891 5.98357 34.2577
1095785 4.88674 5.40143 13.3098 10.6227 -1.58711 5.98074 34.2207
1095793 4.82631 5.36399 13.2888 10.6692 -1.52416 6.04762 34.1483
1095804 4.82631 5.36399 13.2888 10.6692 -1.52416 6.04762 34.1483
1095813 4.93855 5.35463 13.2888 10.6785 -1.60111 5.98685 34.2605
1095825 4.93855 5.35463 13.2888 10.6785 -1.60111 5.98685 34.2605
1095833 4.86948 5.36399 13.3098 10.7065 -1.53932 6.03632 34.2498
1095845 4.88674 5.3359 13.2993 10.6506 -1.60916 6.02557 34.1726
1095853 4.88674 5.3359 13.2993 10.6506 -1.60916 6.02557 34.1726
1095863 4.86084 5.37335 13.2783 10.6134 -1.57683 6.00313 34.1258
1095873 4.83494 5.27974 13.2783 10.632 -1.61758 6.08183 34.025
1095883 4.83494 5.27974 13.2783 10.632 -1.61758 6.08183 34.025
1095893 4.85221 5.35463 13.3098 10.6878 -1.54919 6.04782 34.2045
1095903 4.85221 5.35463 13.3098 10.6878 -1.54919 6.04782 34.2045
1095913 4.87811 5.31718 13.3414 10.6972 -1.61036 6.0656 34.2338
1095923 4.86948 5.3359 13.3203 10.7065 -1.5683 6.05633 34.2322
1095933 4.86948 5.3359 13.3203 10.7065 -1.5683 6.05633 34.2322
1095948 4.87811 5.37335 13.3309 10.7065 -1.55237 6.03078 34.2888
1095958 4.86084 5.32654 13.3729 10.7158 -1.59837 6.08353 34.2761
1095977 4.93855 5.34526 13.2573 10.6506 -1.60854 5.97692 34.1917
1095995 4.91265 5.36399 13.3309 10.6227 -1.64829 5.99335 34.2302
1096004 4.92128 5.35463 13.2573 10.6692 -1.57496 5.98668 34.2024
1096016 4.92128 5.35463 13.2573 10.6692 -1.57496 5.98668 34.2024
1096024 4.92128 5.36399 13.2573 10.5389 -1.66929 5.94644 34.0814
1096034 4.93855 5.3359 13.2783 10.6599 -1.62295 5.99066 34.2127
1096045 4.93855 5.3359 13.2783 10.6599 -1.62295 5.99066 34.2127
1096058 4.89538 5.32654 13.2783 10.6785 -1.58622 6.02783 34.1787
1096065 4.89538 5.32654 13.2783 10.6785 -1.58622 6.02783 34.1787
1096075 4.88674 5.35463 13.2993 10.632 -1.60908 6.00916 34.1727
1096085 4.89538 5.40143 13.3203 10.6506 -1.57852 5.98557 34.2678
1096097 4.89538 5.40143 13.3203 10.6506 -1.57852 5.98557 34.2678
1096107 4.90401 5.38271 13.3729 10.6413 -1.64203 6.00311 34.3009
1096117 4.94718 5.39207 13.2888 10.5761 -1.65754 5.93159 34.2042
1096136 4.93855 5.43888 13.3309 10.5854 -1.63667 5.92187 34.2937
1096148 4.93855 5.39207 13.2993 10.5575 -1.67334 5.93473 34.1874
1096158 4.93855 5.39207 13.2993 10.5575 -1.67334 5.93473 34.1874
1096169 4.99898 5.43888 13.2573 10.5016 -1.69295 5.84312 34.1968
1096188 4.96445 5.44824 13.2152 10.4923 -1.64059 5.84471 34.1202
1096198 4.98172 5.48568 13.2573 10.4551 -1.68097 5.81263 34.1798
1096218 4.98172 5.49504 13.2468 10.4551 -1.66649 5.80411 34.1786
1096228 5.00762 5.47632 13.2573 10.4365 -1.72049 5.79756 34.1777
1096238 5.00762 5.47632 13.2573 10.4365 -1.72049 5.79756 34.1777
1096248 5.00762 5.56993 13.2678 10.4923 -1.6113 5.75864 34.3377
1096274 4.99898 5.47632 13.1837 10.3992 -1.6935 5.77288 34.0582
1096279 5.00762 5.56993 13.2047 10.4644 -1.58993 5.73408 34.2467
1096290 5.00762 5.56993 13.2047 10.4644 -1.58993 5.73408 34.2467
1096298 5.01625 5.56057 13.2047 10.3806 -1.66834 5.7118 34.1621
1096310 4.99035 5.58866 13.1311 10.3341 -1.61462 5.6777 34.0442
1096318 4.99035 5.58866 13.1311 10.3341 -1.61462 5.6777 34.0442
1096328 5.01625 5.55121 13.1626 10.4179 -1.61784 5.71617 34.148
1096338 5.01625 5.55121 13.1626 10.4179 -1.61784 5.71617 34.148
1096348 5.00762 5.58866 13.1837 10.4179 -1.59717 5.70442 34.1978
1096358 5.03352 5.52313 13.2047 10.3713 -1.71668 5.72151 34.1327
1096372 5.03352 5.52313 13.2047 10.3713 -1.71668 5.72151 34.1327
1096379 5.08532 5.6261 13.1521 10.3713 -1.6358 5.61358 34.2349
1096389 5.08532 5.6261 13.1521 10.3713 -1.6358 5.61358 34.2349
1096399 5.03352 5.59802 13.1206 10.3713 -1.60065 5.65316 34.1234
1096409 5.05942 5.66355 13.2047 10.3992 -1.60322 5.62866 34.3269
1096419 5.05942 5.66355 13.2047 10.3992 -1.60322 5.62866 34.3269
1096429 5.03352 5.64482 13.0996 10.3992 -1.52809 5.62677 34.1771
1096439 5.07669 5.6261 13.1101 10.3713 -1.60115 5.60724 34.1842
1096459 5.09396 5.68227 13.1101 10.3341 -1.59825 5.5528 34.2204
1096469 5.09396 5.68227 13.1101 10.3341 -1.59825 5.5528 34.2204
1096482 5.03352 5.64482 13.068 10.2875 -1.59342 5.58732 34.0339
1096489 5.09396 5.6261 13.0365 10.3341 -1.59155 5.56627 34.0906
1096499 5.09396 5.6261 13.0365 10.3341 -1.59155 5.56627 34.0906
1096509 5.11122 5.67291 13.0575 10.2782 -1.62488 5.51801 34.1199
1096519 5.11986 5.68227 13.047 10.3061 -1.59452 5.51204 34.1553
1096529 5.11986 5.68227 13.047 10.3061 -1.59452 5.51204 34.1553
1096539 5.12849 5.71035 13.1416 10.362 -1.59989 5.53168 34.3425
1096549 5.12849 5.71035 13.1416 10.362 -1.59989 5.53168 34.3425
1096559 5.05942 5.67291 13.1416 10.2968 -1.63247 5.57763 34.1708
1096576 5.09396 5.70099 13.0785 10.2503 -1.62734 5.50959 34.1238
1096588 5.09396 5.70099 13.0785 10.2503 -1.62734 5.50959 34.1238
1096599 5.13713 5.69163 13.047 10.2968 -1.60631 5.49347 34.1726
1096600 5.06805 5.70099 13.0785 10.2782 -1.58781 5.53293 34.1258
1096610 5.06805 5.70099 13.0785 10.2782 -1.58781 5.53293 34.1258
1096622 5.10259 5.70099 13.0575 10.3061 -1.57533 5.51409 34.1672
1096630 5.10259 5.70099 13.0575 10.3061 -1.57533 5.51409 34.1672
1096640 5.09396 5.64482 13.047 10.2782 -1.62777 5.5424 34.064
1096650 5.11122 5.67291 13.0785 10.3341 -1.59576 5.53933 34.1967
1096660 5.11122 5.67291 13.0785 10.3341 -1.59576 5.53933 34.1967
1096670 5.11986 5.73844 13.0785 10.3341 -1.5508 5.49489 34.2709
1096680 5.11122 5.67291 13.026 10.3341 -1.55973 5.52477 34.1442
1096690 5.11122 5.67291 13.026 10.3341 -1.55973 5.52477 34.1442
1096700 5.12849 5.73844 13.0365 10.3248 -1.53513 5.47545 34.2282
1096710 5.12849 5.73844 13.0365 10.3248 -1.53513 5.47545 34.2282
1096720 5.11986 5.71971 12.9419 10.2782 -1.51485 5.45242 34.0596
1096730 5.10259 5.76652 12.9734 10.2689 -1.49553 5.44093 34.1114
1096740 5.10259 5.76652 12.9734 10.2689 -1.49553 5.44093 34.1114
1096750 5.18893 5.72907 12.9629 10.2782 -1.56953 5.41134 34.1591
1096760 5.07669 5.72907 12.9314 10.3154 -1.44154 5.48022 34.0526
1096770 5.07669 5.72907 12.9314 10.3154 -1.44154 5.48022 34.0526
1096780 5.15439 5.70099 12.9419 10.2968 -1.53872 5.44815 34.0941
1096790 5.15439 5.70099 12.9419 10.2968 -1.53872 5.44815 34.0941
1096800 5.17166 5.75716 12.8893 10.2596 -1.49968 5.37891 34.0777
1096810 5.14576 5.71971 12.9524 10.3061 -1.51821 5.44765 34.124
1096830 5.16303 5.81333 12.9944 10.3248 -1.47204 5.39844 34.2955
1096840 5.15439 5.75716 12.9208 10.3154 -1.46615 5.41384 34.1478
1096862 5.19756 5.82269 12.8683 10.2503 -1.45939 5.31579 34.1388
1096881 5.14576 5.78524 12.8578 10.2689 -1.43094 5.37133 34.0577
1096892 5.14576 5.7946 12.9314 10.2875 -1.46007 5.39174 34.1592
1096912 5.15439 5.77588 12.9314 10.2875 -1.48053 5.39776 34.1491
1096924 5.17166 5.78524 12.8788 10.3061 -1.43451 5.37231 34.1418
1096932 5.17166 5.78524 12.8788 10.3061 -1.43451 5.37231 34.1418
1096941 5.14576 5.85077 12.8788 10.3248 -1.35162 5.35394 34.2001
1096964 5.13713 5.78524 12.8578 10.3248 -1.38168 5.39225 34.1049
1096973 5.12849 5.84141 12.8262 10.2968 -1.33201 5.34706 34.0929
1096983 5.12849 5.84141 12.8262 10.2968 -1.33201 5.34706 34.0929
1096993 5.18029 5.84141 12.7842 10.1758 -1.43258 5.26972 33.9817
1097003 5.12849 5.84141 12.8578 10.241 -1.39709 5.34017 34.0686
1097013 5.12849 5.82269 12.8578 10.241 -1.4116 5.35136 34.0499
1097023 5.19756 5.88822 12.8893 10.1944 -1.46639 5.26695 34.1695
1097043 5.14576 5.83205 12.8052 10.2503 -1.37265 5.32317 34.0333
1097053 5.27527 5.88822 12.7947 10.2037 -1.44753 5.19655 34.1619
1097074 5.18029 5.87885 12.7737 10.1758 -1.39619 5.24439 34.0086
1097085 5.18893 5.86949 12.7842 10.1851 -1.40951 5.25051 34.0277
1097094 5.18893 5.86949 12.7842 10.1851 -1.40951 5.25051 34.0277
1097104 5.258 5.89758 12.8052 10.1851 -1.45004 5.1989 34.1459
1097124 5.24073 5.86949 12.8157 10.1386 -1.50332 5.21542 34.0645
1097134 5.18029 5.85077 12.8683 10.1944 -1.46903 5.29347 34.0938
1097160 5.24073 5.88822 12.8262 10.213 -1.43826 5.22868 34.1682
1097165 5.18893 5.94438 12.9734 10.2223 -1.45329 5.27065 34.3291
1097185 5.24937 5.86949 12.9734 10.2596 -1.52371 5.28973 34.3518
1097196 5.18029 5.86949 13.026 10.2596 -1.51243 5.34541 34.3353
1097206 5.18029 5.86949 13.026 10.2596 -1.51243 5.34541 34.3353
1097216 5.2062 5.86013 12.9208 10.2782 -1.45096 5.31122 34.2654
1097228 5.2062 5.86013 12.9208 10.2782 -1.45096 5.31122 34.2654
1097239 5.2062 5.83205 12.8788 10.1758 -1.52315 5.28689 34.0928
1097250 5.18893 5.75716 12.8683 10.2037 -1.54059 5.34682 34.0181
1097258 5.18893 5.75716 12.8683 10.2037 -1.54059 5.34682 34.0181
1097267 5.19756 5.85077 12.8788 10.2037 -1.48096 5.28884 34.1308
1097277 5.11986 5.78524 12.8472 10.2223 -1.4419 5.37068 33.9747
1097288 5.11986 5.78524 12.8472 10.2223 -1.4419 5.37068 33.9747
1097298 5.16303 5.7946 12.9524 10.2968 -1.47922 5.38997 34.2068
1097308 5.16303 5.7946 12.9524 10.2968 -1.47922 5.38997 34.2068
1097320 5.15439 5.84141 12.9524 10.1758 -1.53087 5.33307 34.124
1097328 5.14576 5.80396 13.047 10.2596 -1.55388 5.41076 34.2563
1097339 5.14576 5.80396 13.047 10.2596 -1.55388 5.41076 34.2563
1097349 5.19756 5.7946 12.9944 10.2596 -1.56062 5.37075 34.2462
1097359 5.13713 5.7946 13.026 10.2689 -1.5336 5.41822 34.2266
1097369 5.13713 5.7946 13.026 10.2689 -1.5336 5.41822 34.2266
1097379 5.17166 5.75716 13.068 10.2596 -1.62228 5.42911 34.2564
1097389 5.17166 5.75716 13.068 10.2596 -1.62228 5.42911 34.2564
1097399 5.16303 5.78524 12.9839 10.1944 -1.58768 5.3756 34.1266
1097410 5.14576 5.7478 12.9629 10.1944 -1.59059 5.4024 34.0509
1097420 5.14576 5.7478 12.9629 10.1944 -1.59059 5.4024 34.0509
1097430 5.18893 5.75716 13.026 10.1572 -1.68519 5.37826 34.1292
1097440 5.15439 5.71971 12.9839 10.241 -1.59655 5.43305 34.099
1097460 5.17166 5.72907 13.0365 10.2596 -1.62259 5.43706 34.1968
1097470 5.11122 5.71971 13.0365 10.3527 -1.51615 5.50476 34.2201
1097480 5.11122 5.71971 13.0365 10.3527 -1.51615 5.50476 34.2201
1097492 5.12849 5.69163 13.1101 10.3527 -1.60011 5.53161 34.2829
1097501 5.12849 5.69163 13.1101 10.3527 -1.60011 5.53161 34.2829
1097512 5.11986 5.63546 13.1101 10.3527 -1.63787 5.57049 34.2181
1097524 5.11986 5.71035 13.0996 10.3154 -1.60141 5.51236 34.2452
1097532 5.11986 5.71035 13.0996 10.3154 -1.60141 5.51236 34.2452
1097542 5.16303 5.71035 13.1101 10.3248 -1.6308 5.49203 34.3082
1097552 5.10259 5.63546 13.0575 10.362 -1.58285 5.56895 34.1576
1097573 5.10259 5.68227 13.047 10.3527 -1.54649 5.53532 34.1845
1097583 5.10259 5.68227 13.047 10.3527 -1.54649 5.53532 34.1845
1097593 5.06805 5.60738 13.068 10.2968 -1.63915 5.59165 34.0403
1097603 5.09396 5.66355 13.1732 10.3992 -1.60526 5.5993 34.3299
1097613 5.09396 5.66355 13.1732 10.3992 -1.60526 5.5993 34.3299
1097623 5.09396 5.66355 13.1521 10.3248 -1.64877 5.57307 34.2344
1097634 5.05079 5.5793 13.1837 10.3434 -1.69203 5.66366 34.1571
1097643 5.05079 5.5793 13.1837 10.3434 -1.69203 5.66366 34.1571
1097653 5.05079 5.60738 13.1311 10.3992 -1.59066 5.64759 34.1885
1097674 4.99035 5.52313 13.1311 10.4179 -1.60035 5.74041 34.0624
1097684 5.04215 5.56993 13.0996 10.4179 -1.57777 5.67192 34.1295
1097694 5.04215 5.56993 13.0996 10.4179 -1.57777 5.67192 34.1295
1097704 5.05942 5.56993 13.1942 10.4179 -1.6543 5.68728 34.2414
1097714 5.06805 5.5793 13.1626 10.4179 -1.63139 5.66782 34.2279
1097734 4.99898 5.64482 13.1837 10.4365 -1.53321 5.68075 34.264
1097744 4.99898 5.64482 13.1837 10.4365 -1.53321 5.68075 34.264
1097754 5.03352 5.53249 13.1626 10.483 -1.5935 5.73474 34.2117
1097764 5.05942 5.59802 13.1311 10.4737 -1.54601 5.66836 34.2623
1097774 5.05942 5.59802 13.1311 10.4737 -1.54601 5.66836 34.2623
1097784 5.03352 5.60738 13.0996 10.4272 -1.53548 5.65703 34.1676
1097794 4.99035 5.55121 13.1521 10.3806 -1.62194 5.71891 34.0743
1097814 4.98172 5.56993 13.1626 10.4085 -1.58683 5.72324 34.1228
1097824 4.98172 5.56993 13.1626 10.4085 -1.58683 5.72324 34.1228
1097836 4.95582 5.56057 13.1206 10.5203 -1.46058 5.76355 34.1572
1097844 5.00762 5.64482 13.0891 10.483 -1.43817 5.66245 34.2245
1097854 5.00762 5.64482 13.0891 10.483 -1.43817 5.66245 34.2245
1097864 5.03352 5.56057 13.1416 10.4458 -1.58623 5.7019 34.1815
1097883 5.02489 5.61674 13.0785 10.4923 -1.45733 5.66865 34.2125
1097885 5.02489 5.61674 13.0785 10.4923 -1.45733 5.66865 34.2125
1097896 5.05079 5.59802 13.1101 10.5016 -1.50407 5.67545 34.2605
1097905 5.05079 5.59802 13.1101 10.5016 -1.50407 5.67545 34.2605
1097915 5.03352 5.56057 13.1521 10.5389 -1.52121 5.73 34.2851
1097925 5.02489 5.5793 13.1416 10.5203 -1.50801 5.71602 34.2661
1097938 5.02489 5.5793 13.1416 10.5203 -1.50801 5.71602 34.2661
1097945 4.98172 5.6261 13.1311 10.5389 -1.42063 5.71602 34.2778
1097955 4.99898 5.5793 13.0891 10.5016 -1.46851 5.71238 34.169
1097965 4.99898 5.5793 13.0891 10.5016 -1.46851 5.71238 34.169
1097975 5.07669 5.5793 13.026 10.4272 -1.53639 5.62774 34.1091
1097985 5.07669 5.5793 13.026 10.4272 -1.53639 5.62774 34.1091
1097995 4.99035 5.66355 12.8683 10.4365 -1.29467 5.58806 33.9586
1098005 5.02489 5.60738 13.0575 10.4458 -1.48616 5.65584 34.1356
1098015 5.02489 5.60738 13.0575 10.4458 -1.48616 5.65584 34.1356
1098025 5.03352 5.59802 13.0785 10.4644 -1.4994 5.66712 34.1745
1098038 5.03352 5.59802 13.0785 10.4644 -1.4994 5.66712 34.1745
1098045 5.05079 5.66355 13.1101 10.4458 -1.49659 5.62071 34.2702
1098055 5.02489 5.55121 13.0996 10.4923 -1.52256 5.71403 34.168
1098065 5.02489 5.55121 13.0996 10.4923 -1.52256 5.71403 34.168
1098075 5.00762 5.58866 13.0891 10.511 -1.46 5.70401 34.1963
1098085 5.05079 5.66355 13.0996 10.4365 -1.49658 5.61528 34.2504
1098095 5.05079 5.66355 13.0996 10.4365 -1.49658 5.61528 34.2504
1098105 5.04215 5.66355 13.068 10.4551 -1.45458 5.61694 34.2288
1098115 5.04215 5.66355 13.068 10.4551 -1.45458 5.61694 34.2288
1098125 4.96445 5.63546 13.026 10.4085 -1.42974 5.6566 34.0344
1098135 5.02489 5.61674 13.0996 10.3899 -1.55122 5.6464 34.1311
1098147 5.02489 5.61674 13.0996 10.3899 -1.55122 5.6464 34.1311
1098157 4.99035 5.63546 13.0575 10.4737 -1.41895 5.66739 34.157
1098167 4.99898 5.59802 13.1521 10.4458 -1.54067 5.703 34.1949
1098176 4.99898 5.59802 13.1521 10.4458 -1.54067 5.703 34.1949
1098186 5.05079 5.67291 13.0891 10.483 -1.44618 5.61952 34.2958
1098196 5.05079 5.67291 13.0891 10.483 -1.44618 5.61952 34.2958
1098208 5.07669 5.61674 13.0785 10.4551 -1.52174 5.62722 34.2271
1098217 5.03352 5.64482 13.0785 10.483 -1.44876 5.64395 34.2399
1098227 5.03352 5.64482 13.0785 10.483 -1.44876 5.64395 34.2399
1098236 5.02489 5.60738 13.0785 10.4737 -1.47898 5.66923 34.1845
1098250 5.00762 5.59802 13.026 10.4551 -1.45253 5.66589 34.0867
1098267 5.01625 5.56993 13.0996 10.4644 -1.52377 5.70032 34.1502
1098277 5.01625 5.56993 13.0996 10.4644 -1.52377 5.70032 34.1502
1098286 4.98172 5.5793 13.1311 10.4272 -1.54338 5.71404 34.1193
1098297 5.01625 5.58866 13.1837 10.4551 -1.57414 5.70931 34.2437
1098307 5.01625 5.58866 13.1837 10.4551 -1.57414 5.70931 34.2437
1098317 4.98172 5.54185 13.0575 10.4365 -1.51459 5.71929 34.0176
1098327 4.98172 5.53249 13.1521 10.4737 -1.55803 5.76082 34.1401
1098348 5.02489 5.63546 13.1416 10.511 -1.47182 5.67959 34.3129
1098368 4.97308 5.60738 13.1837 10.4365 -1.54449 5.71906 34.2006
1098378 4.97308 5.5793 13.1521 10.4644 -1.52296 5.73511 34.1689
1098388 4.97308 5.5793 13.1521 10.4644 -1.52296 5.73511 34.1689
1098398 4.99898 5.56993 13.1732 10.5016 -1.53354 5.74086 34.2437
1098408 5.04215 5.56057 13.1311 10.483 -1.55601 5.70394 34.2169
1098418 5.04215 5.56057 13.1311 10.483 -1.55601 5.70394 34.2169
1098428 4.95582 5.5793 13.1626 10.4737 -1.51109 5.75096 34.1715
1098449 4.98172 5.52313 13.1311 10.483 -1.54362 5.76334 34.119
1098459 4.98172 5.5793 13.1206 10.4458 -1.52168 5.71624 34.1274
1098468 4.98172 5.5793 13.1206 10.4458 -1.52168 5.71624 34.1274
1098478 5.01625 5.58866 13.2888 10.483 -1.6242 5.74527 34.3767
1098489 4.97308 5.54185 13.2047 10.5203 -1.54474 5.78712 34.2399
1098498 4.97308 5.54185 13.2047 10.5203 -1.54474 5.78712 34.2399
1098507 4.93855 5.54185 13.1626 10.4644 -1.53555 5.78172 34.1074
1098533 4.99035 5.52313 13.2362 10.5761 -1.54937 5.81146 34.3258
1098539 4.95582 5.43888 13.2362 10.5389 -1.62007 5.87379 34.1698
1098549 4.95582 5.43888 13.2362 10.5389 -1.62007 5.87379 34.1698
1098559 4.98172 5.46696 13.2257 10.5296 -1.61597 5.83556 34.204
1098569 4.92991 5.49504 13.2152 10.5296 -1.55145 5.8472 34.1697
1098589 4.90401 5.50441 13.2468 10.5016 -1.56976 5.85827 34.1568
1098599 4.90401 5.50441 13.2468 10.5016 -1.56976 5.85827 34.1568
1098609 4.91265 5.46696 13.2152 10.5482 -1.54695 5.87988 34.143
1098620 4.94718 5.48568 13.2362 10.5761 -1.54884 5.86045 34.2452
1098629 4.94718 5.48568 13.2362 10.5761 -1.54884 5.86045 34.2452
1098641 4.93855 5.48568 13.2468 10.5854 -1.54291 5.871 34.2564
1098649 4.93855 5.4576 13.2047 10.5947 -1.52864 5.8794 34.1956
1098662 4.93855 5.4576 13.2047 10.5947 -1.52864 5.8794 34.1956
1098669 4.95582 5.46696 13.2468 10.6692 -1.50441 5.89416 34.3388
1098679 4.95582 5.46696 13.2468 10.6692 -1.50441 5.89416 34.3388
1098689 4.93855 5.47632 13.2257 10.6041 -1.52133 5.87606 34.2446
1098699 4.91265 5.43888 13.1732 10.6041 -1.49645 5.90076 34.1287
1098709 4.91265 5.43888 13.1732 10.6041 -1.49645 5.90076 34.1287
1098721 4.94718 5.48568 13.1732 10.6134 -1.47672 5.85355 34.2194
1098729 4.94718 5.48568 13.2362 10.6134 -1.52 5.87038 34.2825
1098740 4.87811 5.44824 13.2362 10.6413 -1.47996 5.94283 34.2039
1098750 4.95582 5.50441 13.2573 10.6692 -1.48274 5.87419 34.3867
1098770 4.89538 5.42952 13.2257 10.632 -1.50633 5.93847 34.1826
1098780 4.91265 5.40143 13.2783 10.6041 -1.59772 5.95162 34.1964
1098790 4.91265 5.40143 13.2783 10.6041 -1.59772 5.95162 34.1964
1098803 4.86084 5.42015 13.2468 10.5761 -1.54771 5.95616 34.1039
1098810 4.86084 5.42015 13.2468 10.5761 -1.54771 5.95616 34.1039
1098824 4.89538 5.50441 13.2047 10.5761 -1.47712 5.87221 34.1806
1098830 4.89538 5.42015 13.2047 10.5947 -1.52805 5.92874 34.115
1098844 4.89538 5.42015 13.2047 10.5947 -1.52805 5.92874 34.115
1098850 4.95582 5.4576 13.2678 10.5947 -1.58366 5.88566 34.2759
1098860 4.89538 5.43888 13.2783 10.5761 -1.5785 5.93186 34.1887
1098872 4.89538 5.43888 13.2783 10.5761 -1.5785 5.93186 34.1887
1098881 4.88674 5.46696 13.3309 10.632 -1.54347 5.94865 34.3165
1098892 4.88674 5.46696 13.3309 10.632 -1.54347 5.94865 34.3165
1098901 4.85221 5.43888 13.3834 10.5482 -1.6426 5.97872 34.2227
1098911 4.90401 5.42015 13.3939 10.5854 -1.67065 5.97105 34.3035
1098932 4.92991 5.40143 13.3519 10.5389 -1.71051 5.94327 34.2221
1098944 4.96445 5.44824 13.2678 10.4923 -1.67652 5.85879 34.1728
1098951 4.96445 5.44824 13.2678 10.4923 -1.67652 5.85879 34.1728
1098964 4.99898 5.43888 13.2257 10.5016 -1.67143 5.83466 34.1652
1098973 4.90401 5.50441 13.2047 10.4551 -1.57714 5.83449 34.0682
1098984 4.90401 5.50441 13.2047 10.4551 -1.57714 5.83449 34.0682
1098992 4.98172 5.48568 13.2678 10.4365 -1.70269 5.81045 34.1717
1099013 4.94718 5.49504 13.2573 10.4644 -1.64282 5.83047 34.1639
1099024 4.98172 5.55121 13.2468 10.4365 -1.63723 5.76495 34.2162
1099033 4.98172 5.55121 13.2468 10.4365 -1.63723 5.76495 34.2162
1099044 5.01625 5.49504 13.2152 10.4365 -1.68307 5.76957 34.163
1099053 5.04215 5.53249 13.2468 10.3992 -1.72205 5.72959 34.2206
1099064 5.04215 5.53249 13.2468 10.3992 -1.72205 5.72959 34.2206
1099074 5.02489 5.5793 13.2152 10.4458 -1.61609 5.71578 34.2652
1099084 5.02489 5.5793 13.2152 10.4458 -1.61609 5.71578 34.2652
1099094 4.99898 5.58866 13.1837 10.2968 -1.68572 5.67665 34.0681
1099105 5.05942 5.52313 13.1311 10.3806 -1.67681 5.68828 34.0943
1099114 5.05942 5.52313 13.1311 10.3806 -1.67681 5.68828 34.0943
1099125 5.07669 5.60738 13.2047 10.3341 -1.70935 5.63426 34.2228
1099134 5.09396 5.69163 13.1521 10.3806 -1.58359 5.57158 34.3183
1099163 5.05079 5.64482 13.2152 10.3248 -1.67693 5.62764 34.2356
1099166 5.05079 5.64482 13.2152 10.3248 -1.67693 5.62764 34.2356
1099175 5.07669 5.63546 13.2047 10.3061 -1.70923 5.60969 34.223
1099185 5.09396 5.6261 13.1732 10.3154 -1.69955 5.59882 34.2087
1099205 5.14576 5.71971 13.1206 10.2782 -1.6551 5.48676 34.2643
1099217 5.11122 5.65418 13.068 10.2875 -1.63943 5.53478 34.1209
1099227 5.11122 5.65418 13.068 10.2875 -1.63943 5.53478 34.1209
1099237 5.17166 5.66355 13.1416 10.3341 -1.68727 5.52615 34.3109
1099247 5.09396 5.66355 13.0996 10.362 -1.5839 5.56885 34.2191
1099268 5.11986 5.6261 13.068 10.241 -1.70373 5.53357 34.055
1099276 5.11986 5.6261 13.068 10.241 -1.70373 5.53357 34.055
1099287 5.11122 5.61674 13.0575 10.2689 -1.67607 5.54926 34.0544
1099296 5.08532 5.66355 13.1101 10.3061 -1.62866 5.56153 34.1651
1099307 5.08532 5.66355 13.1101 10.3061 -1.62866 5.56153 34.1651
1099316 5.15439 5.71971 13.0996 10.2317 -1.68292 5.4628 34.2053
1099327 5.11986 5.71971 13.0365 10.2782 -1.57991 5.47887 34.1543
1099337 5.11986 5.68227 13.0365 10.2782 -1.60908 5.50135 34.1168
1099346 5.15439 5.71035 13.0996 10.2968 -1.63946 5.48653 34.2611
1099357 5.15439 5.71035 13.0996 10.2968 -1.63946 5.48653 34.2611
1099367 5.13713 5.72907 13.0365 10.2503 -1.6062 5.45512 34.153
1099379 5.10259 5.66355 13.1206 10.2782 -1.66943 5.54633 34.1649
1099387 5.10259 5.66355 13.1206 10.2782 -1.66943 5.54633 34.1649
1099396 5.08532 5.69163 13.0891 10.241 -1.6432 5.52075 34.107
1099409 5.08532 5.69163 13.0891 10.241 -1.6432 5.52075 34.107
1099416 5.08532 5.68227 13.0049 10.2875 -1.55643 5.51594 34.0601
1099429 5.12849 5.67291 13.0891 10.3341 -1.61476 5.53188 34.2245
1099437 5.12849 5.67291 13.0891 10.3341 -1.61476 5.53188 34.2245
1099446 5.11122 5.67291 13.0049 10.2875 -1.58155 5.50598 34.0766
1099456 5.13713 5.67291 13.047 10.3992 -1.54131 5.53309 34.2563
1099466 5.13713 5.67291 13.047 10.3992 -1.54131 5.53309 34.2563
1099476 5.10259 5.64482 13.068 10.3713 -1.57553 5.56879 34.1867
1099488 5.10259 5.64482 13.068 10.3713 -1.57553 5.56879 34.1867
1099498 5.08532 5.61674 13.0891 10.3713 -1.59996 5.6019 34.1624
1099508 5.08532 5.65418 13.0996 10.362 -1.58527 5.57967 34.2011
1099518 5.08532 5.65418 13.0996 10.362 -1.58527 5.57967 34.2011
1099529 5.11986 5.6261 13.047 10.3713 -1.58752 5.56386 34.1643
1099538 5.05942 5.6261 13.1311 10.3992 -1.58201 5.63108 34.2159
1099558 5.10259 5.70099 13.0891 10.4737 -1.46724 5.56905 34.3663
1099578 5.05079 5.60738 13.0785 10.4085 -1.54736 5.63574 34.1452
1099590 5.06805 5.60738 13.026 10.4085 -1.52309 5.61086 34.11
1099609 5.06805 5.61674 13.0155 10.4272 -1.49412 5.60744 34.1274
1099619 5.05079 5.65418 12.9839 10.3341 -1.50373 5.56081 34.023
1099639 5.03352 5.67291 13.026 10.3713 -1.47732 5.58188 34.1037
1099649 5.03352 5.67291 13.026 10.3713 -1.47732 5.58188 34.1037
1099659 5.02489 5.61674 12.9314 10.3899 -1.43508 5.60007 33.9629
1099669 5.06805 5.63546 13.0365 10.3713 -1.53745 5.58654 34.1113
1099679 5.06805 5.63546 13.0365 10.3713 -1.53745 5.58654 34.1113
1099689 5.05942 5.71035 13.068 10.362 -1.50228 5.55277 34.1998
1099700 5.07669 5.6261 13.0365 10.4085 -1.52171 5.59724 34.1478
1099710 5.07669 5.6261 13.0365 10.4085 -1.52171 5.59724 34.1478
1099720 5.05079 5.71035 13.0891 10.4179 -1.46757 5.57915 34.268
1099730 5.05079 5.71035 13.0891 10.4179 -1.46757 5.57915 34.268
1099740 5.04215 5.66355 13.1101 10.3806 -1.54116 5.60804 34.1964
1099750 5.04215 5.6261 13.1101 10.4365 -1.52687 5.64593 34.2148
1099770 5.05079 5.70099 12.9944 10.4272 -1.40246 5.56127 34.1734
1099783 5.09396 5.71971 13.0049 10.3154 -1.5115 5.496 34.1341
1099790 5.09396 5.71971 13.0049 10.3154 -1.5115 5.496 34.1341
1099808 5.09396 5.69163 13.026 10.4272 -1.46116 5.54966 34.2387
1099814 5.05079 5.69163 13.0155 10.3992 -1.44581 5.56499 34.1571
1099824 5.05079 5.69163 13.0155 10.3992 -1.44581 5.56499 34.1571
1099831 5.07669 5.68227 13.0155 10.3527 -1.50701 5.54216 34.1271
1099853 5.07669 5.71035 12.9944 10.3713 -1.4563 5.5246 34.1528
1099864 5.08532 5.69163 13.0891 10.3899 -1.52734 5.56197 34.2559
1099873 5.08532 5.69163 13.0891 10.3899 -1.52734 5.56197 34.2559
1099884 5.05942 5.68227 13.0049 10.3806 -1.4662 5.55738 34.1273
1099893 5.04215 5.69163 13.0365 10.3434 -1.49767 5.56057 34.1136
1099903 5.04215 5.69163 13.0365 10.3434 -1.49767 5.56057 34.1136
1099913 5.02489 5.69163 13.047 10.3341 -1.50025 5.57131 34.0976
1099924 5.02489 5.69163 13.047 10.3341 -1.50025 5.57131 34.0976
1099933 5.05079 5.68227 13.0365 10.3434 -1.51089 5.561 34.1129
1099943 5.07669 5.67291 13.0365 10.362 -1.52152 5.55619 34.1481
1099954 5.07669 5.67291 13.0365 10.362 -1.52152 5.55619 34.1481
1099963 5.01625 5.76652 13.068 10.3434 -1.44351 5.53982 34.1942
1099973 5.01625 5.76652 13.026 10.3434 -1.4145 5.52817 34.1521
1099983 5.04215 5.72907 13.026 10.2875 -1.50474 5.5196 34.0847
1099993 5.10259 5.75716 13.0155 10.3806 -1.44521 5.48943 34.2558
1100005 5.10259 5.75716 13.0155 10.3806 -1.44521 5.48943 34.2558
1100013 5.04215 5.77588 12.9734 10.3248 -1.40324 5.48718 34.1162
1100023 5.09396 5.70099 13.0365 10.3992 -1.48275 5.53923 34.2307
1100044 5.11986 5.67291 12.9839 10.362 -1.51505 5.51566 34.1387
1100054 5.11986 5.67291 13.0049 10.362 -1.52951 5.5215 34.1597
1100064 5.11986 5.67291 13.0049 10.3248 -1.55846 5.51115 34.1225
1100074 5.04215 5.69163 13.026 10.3713 -1.46875 5.56538 34.1311
1100084 5.04215 5.69163 13.026 10.3713 -1.46875 5.56538 34.1311
1100094 5.06805 5.71035 13.0049 10.3248 -1.4937 5.51978 34.1081
1100104 5.08532 5.70099 12.9734 10.3713 -1.45501 5.5192 34.131
1100124 5.03352 5.69163 13.1206 10.3527 -1.54232 5.59154 34.1984
1100148 5.10259 5.67291 13.068 10.3992 -1.53206 5.55961 34.2428
1100164 5.02489 5.67291 13.1311 10.4458 -1.48601 5.63642 34.2747
1100174 5.04215 5.6261 13.068 10.3806 -1.54137 5.61908 34.1169
1100184 4.99898 5.60738 13.0575 10.4085 -1.49723 5.66133 34.0724
1100194 4.99898 5.60738 13.0575 10.4085 -1.49723 5.66133 34.0724
1100204 5.01625 5.65418 13.047 10.3992 -1.47277 5.61711 34.1167
1100214 5.01625 5.65418 13.047 10.3992 -1.47277 5.61711 34.1167
1100226 4.97308 5.58866 13.1101 10.4272 -1.51569 5.70787 34.099
1100234 5.02489 5.64482 13.1311 10.4458 -1.50773 5.65334 34.2466
1100244 5.02489 5.64482 13.1311 10.4458 -1.50773 5.65334 34.2466
1100254 4.97308 5.66355 13.0891 10.4923 -1.39273 5.67453 34.218
1100265 4.99898 5.68227 13.1311 10.3713 -1.51865 5.626 34.1837
1100286 5.01625 5.66355 13.1311 10.4737 -1.46575 5.65488 34.2846
1100307 4.98172 5.56057 13.068 10.4737 -1.4783 5.72091 34.084
1100315 4.98172 5.5793 13.1416 10.483 -1.50723 5.73207 34.1857
1100335 4.94718 5.56057 13.1416 10.4644 -1.51246 5.75938 34.1138
1100348 5.03352 5.5793 13.1732 10.4923 -1.55714 5.71178 34.2783
1100355 5.03352 5.5793 13.1732 10.4923 -1.55714 5.71178 34.2783
1100365 4.97308 5.5793 13.1837 10.5203 -1.50133 5.75875 34.2563
1100375 4.97308 5.5793 13.1837 10.5203 -1.50133 5.75875 34.2563
1100388 4.99035 5.56057 13.2257 10.4737 -1.59253 5.75841 34.2504
1100395 4.92991 5.59802 13.1521 10.4644 -1.47874 5.74995 34.1445
1100405 4.92991 5.59802 13.1521 10.4644 -1.47874 5.74995 34.1445
1100416 4.98172 5.58866 13.1942 10.4179 -1.58663 5.72297 34.1824
1100429 4.98172 5.56057 13.1311 10.3527 -1.61609 5.70511 34.0261
1100445 4.98172 5.56057 13.1311 10.3527 -1.61609 5.70511 34.0261
1100449 5.00762 5.64482 13.0996 10.362 -1.53923 5.6322 34.114
1100466 5.02489 5.5793 13.1521 10.362 -1.63822 5.67582 34.1183
1100476 5.00762 5.5793 13.1837 10.3899 -1.6262 5.7025 34.1605
1100486 5.00762 5.5793 13.1837 10.3899 -1.6262 5.7025 34.1605
1100497 4.96445 5.56057 13.1942 10.3713 -1.63298 5.73787 34.0905
1100507 5.01625 5.63546 13.2257 10.4179 -1.59545 5.68235 34.2953
1100529 5.01625 5.60738 13.2783 10.3899 -1.67477 5.70599 34.2918
1100549 5.01625 5.58866 13.2047 10.4272 -1.61021 5.70744 34.2368
1100558 5.01625 5.60738 13.1521 10.3527 -1.61766 5.66149 34.1284
1100578 4.99898 5.59802 13.0575 10.3434 -1.55532 5.64912 33.9979
1100588 4.99898 5.64482 13.1311 10.2782 -1.62031 5.62305 34.0531
1100598 4.99898 5.64482 13.1311 10.2782 -1.62031 5.62305 34.0531
1100608 5.05942 5.70099 13.1837 10.3248 -1.61761 5.58 34.2688
1100618 5.05942 5.70099 13.1837 10.3248 -1.61761 5.58 34.2688
1100628 5.03352 5.64482 13.1837 10.3248 -1.64363 5.62941 34.1868
1100639 5.04215 5.67291 13.1626 10.3527 -1.59158 5.60917 34.2304
1100659 5.04215 5.67291 13.1732 10.3434 -1.606 5.6095 34.2316
1100669 5.02489 5.66355 13.1732 10.3434 -1.60147 5.62554 34.205
1100689 5.04215 5.63546 13.1311 10.362 -1.59186 5.62565 34.1707
1100699 5.01625 5.63546 13.1626 10.3713 -1.58848 5.65247 34.1857
1100720 5.08532 5.63546 13.1521 10.3713 -1.62852 5.60795 34.2442
1100740 5.05079 5.65418 13.1311 10.3434 -1.5977 5.60403 34.1795
1100750 4.99898 5.64482 13.1732 10.3434 -1.59831 5.65249 34.1603
1100760 4.99898 5.64482 13.1732 10.3434 -1.59831 5.65249 34.1603
1100770 5.02489 5.63546 13.1942 10.3154 -1.65947 5.6406 34.17
1100780 5.04215 5.64482 13.1837 10.3806 -1.60607 5.63949 34.2513
1100790 5.04215 5.64482 13.1837 10.3806 -1.60607 5.63949 34.2513
1100800 5.04215 5.63546 13.1416 10.3713 -1.59182 5.63108 34.1905
1100810 5.04215 5.63546 13.1416 10.3713 -1.59182 5.63108 34.1905
1100820 5.04215 5.5793 13.1206 10.3061 -1.67213 5.64139 34.0482
1100830 5.05079 5.68227 13.1206 10.3806 -1.53976 5.59446 34.2343
1100844 5.05079 5.68227 13.1206 10.3806 -1.53976 5.59446 34.2343
1100852 5.05079 5.69163 13.1206 10.362 -1.54694 5.58371 34.225
1100862 5.04215 5.69163 13.0891 10.3992 -1.49052 5.59047 34.2221
1100884 5.10259 5.68227 13.0785 10.3899 -1.53922 5.55433 34.2533
1100892 5.10259 5.68227 13.0785 10.3899 -1.53922 5.55433 34.2533
1100902 5.06805 5.66355 13.068 10.3527 -1.55177 5.57317 34.1523
1100912 5.04215 5.65418 13.1416 10.2968 -1.63526 5.59932 34.1348
1100924 5.04215 5.65418 13.1416 10.2968 -1.63526 5.59932 34.1348
1100932 5.09396 5.7478 13.0575 10.3341 -1.5114 5.49895 34.2333
1100944 5.09396 5.66355 13.047 10.3061 -1.59135 5.53887 34.1106
1100952 5.09396 5.66355 13.047 10.3061 -1.59135 5.53887 34.1106
1100964 5.11122 5.71035 13.0996 10.2689 -1.63172 5.50462 34.19
1100984 5.07669 5.69163 13.0996 10.2782 -1.61543 5.53919 34.1461
1100991 5.05942 5.72907 13.0996 10.3341 -1.53106 5.54253 34.2221
1101001 5.05942 5.72907 13.0996 10.3341 -1.53106 5.54253 34.2221
1101011 5.07669 5.7478 13.0785 10.2968 -1.54285 5.50479 34.1999
1101024 5.02489 5.7478 13.0365 10.2317 -1.52899 5.50609 34.0408
1101031 5.02489 5.73844 13.0365 10.2317 -1.53629 5.51173 34.0315
1101044 5.05079 5.70099 13.0891 10.3248 -1.54695 5.55912 34.1656
1101051 5.05079 5.70099 13.0891 10.3248 -1.54695 5.55912 34.1656
1101067 5.05942 5.71035 13.047 10.3154 -1.52394 5.53407 34.1322
1101075 5.08532 5.76652 12.9629 10.3248 -1.43305 5.46397 34.1395
1101084 5.08532 5.76652 12.9629 10.3248 -1.43305 5.46397 34.1395
1101093 5.10259 5.72907 13.068 10.3806 -1.503 5.5208 34.2803
1101103 5.10259 5.72907 13.068 10.3806 -1.503 5.5208 34.2803
1101113 5.11986 5.73844 13.0575 10.362 -1.51479 5.4968 34.2778
1101124 5.10259 5.7478 13.0049 10.3154 -1.49565 5.47398 34.1708
1101133 5.10259 5.7478 13.0049 10.3154 -1.49565 5.47398 34.1708
1101146 5.08532 5.71035 13.0365 10.2689 -1.57075 5.50263 34.1011
1101154 5.08532 5.66355 13.068 10.3248 -1.58534 5.55505 34.1417
1101165 5.08532 5.66355 13.068 10.3248 -1.58534 5.55505 34.1417
1101174 5.07669 5.70099 13.026 10.3341 -1.51417 5.52865 34.1377
1101184 5.00762 5.69163 12.9524 10.2968 -1.45187 5.54515 33.9485
1101194 5.00762 5.69163 12.9524 10.2968 -1.45187 5.54515 33.9485
1101204 5.04215 5.68227 13.0365 10.3434 -1.50494 5.56621 34.1043
1101214 5.04215 5.68227 13.0365 10.3434 -1.50494 5.56621 34.1043
1101225 4.99898 5.6261 13.0365 10.3341 -1.52616 5.62372 33.9956
1101234 5.08532 5.65418 13.0891 10.3899 -1.55637 5.58447 34.2185
1101254 5.05079 5.70099 13.1837 10.3992 -1.554 5.60561 34.3347
1101268 5.08532 5.69163 13.1206 10.3806 -1.55615 5.56809 34.2782
1101288 5.03352 5.70099 13.1311 10.3713 -1.52784 5.59392 34.2369
1101295 5.03352 5.70099 13.1311 10.3713 -1.52784 5.59392 34.2369
1101308 5.05079 5.72907 13.1101 10.3527 -1.51792 5.55575 34.2426
1101315 5.07669 5.69163 13.0575 10.3899 -1.49978 5.55846 34.2158
1101325 5.07669 5.69163 13.0575 10.3899 -1.49978 5.55846 34.2158
1101335 5.05942 5.69163 13.068 10.3154 -1.55295 5.55116 34.1345
1101345 5.05942 5.65418 13.026 10.362 -1.51695 5.57498 34.1016
1101355 5.05942 5.65418 13.026 10.362 -1.51695 5.57498 34.1016
1101368 5.07669 5.68227 12.9944 10.3341 -1.507 5.53116 34.0875
1101375 5.07669 5.68227 12.9944 10.3341 -1.507 5.53116 34.0875
1101389 5.04215 5.70099 13.0049 10.3061 -1.4976 5.53585 34.0542
1101397 5.05942 5.71971 13.047 10.3527 -1.48778 5.53876 34.1788
1101408 5.05942 5.71971 13.047 10.3527 -1.48778 5.53876 34.1788
1101417 5.07669 5.68227 13.0049 10.3248 -1.52148 5.53149 34.0887
1101429 5.14576 5.66355 13.0785 10.2782 -1.67019 5.50873 34.166
1101447 5.11986 5.71971 13.0365 10.3341 -1.53651 5.49442 34.2101
1101457 5.11986 5.71971 13.0365 10.3341 -1.53651 5.49442 34.2101
1101471 5.03352 5.67291 13.047 10.3248 -1.528 5.57482 34.0782
1101477 5.08532 5.71035 13.0575 10.3248 -1.54173 5.524 34.1779
1101487 5.08532 5.71035 13.0575 10.3248 -1.54173 5.524 34.1779
1101497 5.09396 5.72907 12.9629 10.3713 -1.43196 5.49422 34.1572
1101507 5.12849 5.67291 13.1206 10.3713 -1.60737 5.55087 34.2933
1101530 5.09396 5.70099 13.0575 10.3899 -1.50439 5.54247 34.2424
1101538 5.09396 5.70099 13.0575 10.3899 -1.50439 5.54247 34.2424
1101549 5.07669 5.70099 13.0785 10.3899 -1.50697 5.55863 34.2461
1101558 5.12849 5.70099 13.0575 10.3341 -1.57136 5.5063 34.2211
1101568 5.12849 5.70099 13.0575 10.3341 -1.57136 5.5063 34.2211
1101579 5.05079 5.72907 13.0575 10.3713 -1.46741 5.54638 34.2087
1101590 5.02489 5.69163 13.026 10.2968 -1.51473 5.55517 34.0393
1101599 5.02489 5.69163 13.026 10.2968 -1.51473 5.55517 34.0393
1101609 5.08532 5.63546 13.047 10.3806 -1.5493 5.58159 34.1484
1101619 5.08532 5.63546 13.047 10.3806 -1.5493 5.58159 34.1484
1101630 5.05942 5.64482 13.0365 10.4179 -1.48808 5.59893 34.1586
1101639 5.05079 5.69163 13.0996 10.3992 -1.50367 5.58817 34.2412
1101651 5.05079 5.69163 13.0996 10.3992 -1.50367 5.58817 34.2412
1101659 5.07669 5.63546 13.047 10.3713 -1.55061 5.58423 34.1305
1101669 5.05079 5.61674 13.0575 10.4365 -1.50395 5.63198 34.1615
1101690 5.07669 5.73844 13.0049 10.3806 -1.43461 5.51324 34.2007
1101705 5.07669 5.73844 13.0049 10.3806 -1.43461 5.51324 34.2007
1101714 5.04215 5.63546 13.0365 10.3899 -1.50514 5.60731 34.104
1101723 5.05079 5.69163 12.9629 10.4085 -1.40229 5.55303 34.1139
1101731 5.05079 5.69163 12.9629 10.4085 -1.40229 5.55303 34.1139
1101740 5.07669 5.68227 12.9944 10.3713 -1.47807 5.54149 34.1247
1101751 5.05942 5.69163 13.0365 10.4365 -1.43744 5.57587 34.224
1101760 5.05942 5.69163 13.0365 10.4365 -1.43744 5.57587 34.224
1101771 5.13713 5.72907 13.0785 10.3899 -1.52664 5.50563 34.3347
1101780 5.13713 5.72907 13.0785 10.3899 -1.52664 5.50563 34.3347
1101791 5.05942 5.67291 12.9734 10.3899 -1.44446 5.55687 34.0957
1101800 5.00762 5.67291 13.0155 10.3806 -1.44495 5.59719 34.0766
1101820 5.05942 5.67291 13.068 10.4458 -1.46641 5.59836 34.2461
1101831 5.02489 5.68227 13.068 10.3806 -1.48586 5.5956 34.1558
1101840 5.02489 5.68227 13.068 10.3806 -1.48586 5.5956 34.1558
1101851 5.00762 5.61674 13.0365 10.4458 -1.45249 5.65487 34.1066
1101860 5.00762 5.61674 13.0365 10.4458 -1.45249 5.65487 34.1066
1101872 4.97308 5.6261 13.068 10.4644 -1.42874 5.68384 34.1316
1101880 5.02489 5.67291 13.1626 10.483 -1.47889 5.65517 34.3435
1101894 5.02489 5.67291 13.1626 10.483 -1.47889 5.65517 34.3435
1101901 5.09396 5.66355 13.0575 10.4644 -1.47576 5.58546 34.2794
1101914 5.10259 5.61674 13.068 10.4272 -1.55395 5.60107 34.2145
1101933 5.03352 5.65418 13.0575 10.4737 -1.43425 5.63001 34.2189
1101954 5.03352 5.6261 13.047 10.362 -1.53545 5.61339 34.0686
1101961 5.04215 5.66355 13.026 10.3713 -1.49054 5.58232 34.103
1101971 5.04215 5.66355 13.026 10.3713 -1.49054 5.58232 34.103
1101982 5.02489 5.59802 13.0575 10.362 -1.55864 5.63853 34.0424
1101992 5.02489 5.65418 13.068 10.4644 -1.44274 5.63554 34.2115
1102015 5.03352 5.6261 13.1206 10.4923 -1.48492 5.66925 34.2725
1102023 5.03352 5.6261 13.1206 10.4923 -1.48492 5.66925 34.2725
1102033 5.00762 5.5793 13.0996 10.4737 -1.50334 5.70241 34.1602
1102043 5.01625 5.60738 13.1626 10.4737 -1.5308 5.69734 34.26
1102053 5.01625 5.60738 13.1626 10.4737 -1.5308 5.69734 34.26
1102063 4.99898 5.65418 13.1626 10.4644 -1.48996 5.67698 34.2802
1102073 5.05079 5.58866 13.1311 10.3899 -1.61247 5.65636 34.1605
1102083 5.05079 5.58866 13.1311 10.3899 -1.61247 5.65636 34.1605
1102093 5.04215 5.66355 13.1206 10.4085 -1.5267 5.61859 34.2348
1102103 5.04215 5.66355 13.1206 10.4085 -1.5267 5.61859 34.2348
1102114 5.03352 5.59802 13.1206 10.4272 -1.55718 5.66844 34.1793
1102123 4.99035 5.59802 13.1101 10.3899 -1.54927 5.68154 34.0884
1102133 4.99035 5.59802 13.1101 10.3899 -1.54927 5.68154 34.0884
1102143 5.03352 5.66355 13.1521 10.3992 -1.54961 5.62988 34.2484
1102153 4.99035 5.6261 13.1311 10.3899 -1.54188 5.67027 34.1375
1102163 4.99035 5.6261 13.1311 10.3899 -1.54188 5.67027 34.1375
1102173 5.02489 5.59802 13.1416 10.4644 -1.53678 5.68954 34.2289
1102183 5.02489 5.59802 13.1416 10.4644 -1.53678 5.68954 34.2289
1102193 5.01625 5.59802 13.1626 10.4272 -1.57417 5.69035 34.2041
1102203 5.02489 5.52313 13.1626 10.4551 -1.61662 5.73808 34.1658
1102213 5.02489 5.52313 13.1626 10.4551 -1.61662 5.73808 34.1658
1102224 5.05079 5.60738 13.1521 10.3899 -1.61228 5.65079 34.2002
1102234 4.99035 5.61674 13.1206 10.4458 -1.49855 5.68831 34.1735
1102254 5.03352 5.5793 13.1837 10.4737 -1.57877 5.70958 34.2702
1102264 5.03352 5.5793 13.1837 10.4737 -1.57877 5.70958 34.2702
1102274 4.98172 5.54185 13.1837 10.4458 -1.59412 5.7561 34.153
1102284 4.99035 5.54185 13.1626 10.5203 -1.52775 5.76531 34.2151
1102294 4.99035 5.54185 13.1626 10.5203 -1.52775 5.76531 34.2151
1102304 4.93855 5.56057 13.1942 10.5668 -1.46333 5.80641 34.2601
1102314 5.04215 5.54185 13.2257 10.4644 -1.64966 5.73587 34.2741
1102325 5.04215 5.54185 13.2257 10.4644 -1.64966 5.73587 34.2741
1102335 4.99898 5.5793 13.2047 10.5016 -1.54788 5.74371 34.2846
1102344 4.99898 5.5793 13.2047 10.5016 -1.54788 5.74371 34.2846
1102364 4.96445 5.55121 13.2152 10.483 -1.56766 5.77948 34.2139
1102366 4.98172 5.54185 13.1942 10.4551 -1.59407 5.76147 34.1728
1102375 4.98172 5.54185 13.1942 10.4551 -1.59407 5.76147 34.1728
1102385 4.96445 5.52313 13.1732 10.5016 -1.54617 5.79024 34.1624
1102395 4.95582 5.48568 13.1311 10.511 -1.53321 5.8095 34.0836
1102405 4.95582 5.48568 13.1311 10.511 -1.53321 5.8095 34.0836
1102418 4.92991 5.51377 13.2152 10.5389 -1.52969 5.83828 34.1978
1102425 4.92991 5.51377 13.2152 10.5389 -1.52969 5.83828 34.1978
1102438 4.95582 5.52313 13.1942 10.5203 -1.54022 5.80617 34.1934
1102446 4.94718 5.50441 13.2257 10.511 -1.5777 5.82879 34.1883
1102459 4.94718 5.50441 13.2257 10.511 -1.5777 5.82879 34.1883
1102466 4.96445 5.49504 13.1732 10.4923 -1.57526 5.80484 34.125
1102476 4.98172 5.55121 13.1942 10.5575 -1.50737 5.78339 34.2846
1102486 4.98172 5.55121 13.1942 10.5575 -1.50737 5.78339 34.2846
1102496 4.98172 5.55121 13.1311 10.4923 -1.51456 5.74879 34.1564
1102516 4.94718 5.44824 13.0996 10.5296 -1.52018 5.83419 34.0246
1102527 5.03352 5.51377 13.1942 10.5203 -1.60068 5.76467 34.2617
1102538 5.03352 5.51377 13.1942 10.5203 -1.60068 5.76467 34.2617
1102548 4.96445 5.49504 13.1416 10.4923 -1.55359 5.79633 34.0934
1102558 4.96445 5.53249 13.1626 10.511 -1.52445 5.78422 34.1705
1102568 4.96445 5.53249 13.1626 10.511 -1.52445 5.78422 34.1705
1102578 4.98172 5.51377 13.1206 10.5854 -1.4642 5.79384 34.2015
1102588 4.98172 5.51377 13.1206 10.5854 -1.4642 5.79384 34.2015
1102598 4.99035 5.54185 13.2152 10.483 -1.59266 5.76944 34.2304
1102608 4.95582 5.44824 13.1837 10.5482 -1.5695 5.85651 34.1359
1102618 4.95582 5.44824 13.1837 10.5482 -1.5695 5.85651 34.1359
1102628 4.98172 5.48568 13.1626 10.5482 -1.54374 5.81223 34.1782
1102640 4.96445 5.47632 13.1626 10.5389 -1.54639 5.82595 34.1423
1102648 4.96445 5.47632 13.1626 10.5389 -1.54639 5.82595 34.1423
1102660 4.91265 5.51377 13.1521 10.5947 -1.43114 5.84687 34.1733
1102679 4.89538 5.46696 13.2468 10.5575 -1.54952 5.90134 34.1666
1102688 4.99898 5.46696 13.2993 10.6134 -1.61291 5.86705 34.3786
1102698 4.99898 5.46696 13.2993 10.6134 -1.61291 5.86705 34.3786
1102708 4.91265 5.47632 13.2152 10.5947 -1.50355 5.88658 34.1989
1102718 4.95582 5.51377 13.2362 10.5854 -1.5258 5.8406 34.2913
1102728 4.95582 5.51377 13.2362 10.5854 -1.5258 5.8406 34.2913
1102738 4.92991 5.46696 13.2888 10.6134 -1.55864 5.90627 34.299
1102759 4.83494 5.46696 13.1837 10.5668 -1.4572 5.92407 34.0524
1102769 4.89538 5.44824 13.1837 10.6227 -1.47009 5.91336 34.15
1102779 4.89538 5.44824 13.1837 10.6227 -1.47009 5.91336 34.15
1102789 4.92128 5.39207 13.1732 10.5296 -1.59689 5.90429 34.0161
1102799 4.90401 5.42015 13.2468 10.6134 -1.54841 5.93955 34.1843
1102819 4.91265 5.41079 13.2152 10.6599 -1.50383 5.94397 34.1986
1102829 4.91265 5.41079 13.2152 10.6599 -1.50383 5.94397 34.1986
1102841 4.89538 5.42015 13.2888 10.5761 -1.60026 5.94611 34.1805
1102849 4.94718 5.42952 13.2993 10.6041 -1.61386 5.91889 34.2801
1102865 4.94718 5.42952 13.2993 10.6041 -1.61386 5.91889 34.2801
1102870 4.92128 5.4576 13.2783 10.6599 -1.51678 5.92678 34.3171
1102880 4.91265 5.39207 13.2573 10.6227 -1.57612 5.95672 34.1847
1102890 4.91265 5.39207 13.2573 10.6227 -1.57612 5.95672 34.1847
1102900 4.92128 5.48568 13.2152 10.6134 -1.48782 5.88056 34.2355
1102920 4.87811 5.44824 13.2257 10.6227 -1.48716 5.93511 34.1747
1102930 4.88674 5.40143 13.2573 10.7065 -1.48613 5.98896 34.2519
1102940 4.88674 5.40143 13.2573 10.7065 -1.48613 5.98896 34.2519
1102950 4.87811 5.42015 13.2257 10.632 -1.50171 5.95479 34.156
1102963 4.86948 5.36399 13.2362 10.6599 -1.52493 6.00477 34.1296
1102970 4.86948 5.36399 13.2362 10.6599 -1.52493 6.00477 34.1296
1102983 4.89538 5.42015 13.2257 10.753 -1.42002 5.97616 34.2943
1102990 4.89538 5.42015 13.2257 10.753 -1.42002 5.97616 34.2943
1103006 4.85221 5.3359 13.2362 10.7903 -1.43381 6.06688 34.2146
1103012 4.88674 5.36399 13.2783 10.7437 -1.50072 6.02721 34.2727
1103024 4.88674 5.36399 13.2783 10.7437 -1.50072 6.02721 34.2727
1103032 4.86948 5.36399 13.2362 10.7344 -1.46717 6.02435 34.2041
1103041 4.83494 5.37335 13.2257 10.6972 -1.45774 6.0273 34.1312
1103063 4.85221 5.3359 13.2257 10.7716 -1.44096 6.05926 34.1855
1103083 4.7745 5.37335 13.2257 10.7996 -1.33681 6.09138 34.1731
1103092 4.84358 5.36399 13.2468 10.7716 -1.4278 6.05279 34.2259
1103102 4.84358 5.36399 13.2468 10.7716 -1.4278 6.05279 34.2259
1103112 4.83494 5.38271 13.2152 10.7996 -1.36412 6.04564 34.2324
1103122 4.86084 5.36399 13.2573 10.753 -1.4613 6.04005 34.2351
1103145 4.82631 5.31718 13.3098 10.7903 -1.48108 6.11352 34.2436
1103165 4.83494 5.2891 13.2993 10.7809 -1.50875 6.12038 34.2043
1103174 4.79177 5.30782 13.2888 10.7996 -1.4429 6.13759 34.188
1103186 4.79177 5.30782 13.2888 10.7996 -1.4429 6.13759 34.188
1103193 4.83494 5.29846 13.2888 10.7158 -1.54485 6.0949 34.138
1103205 4.83494 5.32654 13.2678 10.8461 -1.40777 6.10602 34.2754
1103213 4.83494 5.32654 13.2678 10.8461 -1.40777 6.10602 34.2754
1103225 4.84358 5.37335 13.2047 10.8182 -1.35569 6.0482 34.2398
1103233 4.84358 5.37335 13.2047 10.8182 -1.35569 6.0482 34.2398
1103244 4.84358 5.3359 13.1942 10.7716 -1.41324 6.05633 34.1453
1103253 4.85221 5.29846 13.2468 10.8368 -1.43402 6.10481 34.2342
1103264 4.85221 5.29846 13.2468 10.8368 -1.43402 6.10481 34.2342
1103274 4.82631 5.27974 13.2993 10.8089 -1.48843 6.13874 34.2142
1103284 4.82631 5.31718 13.3203 10.874 -1.42367 6.13793 34.3379
1103293 4.82631 5.31718 13.3203 10.874 -1.42367 6.13793 34.3379
1103306 4.84358 5.30782 13.2783 10.8554 -1.42819 6.11737 34.2851
1103313 4.84358 5.30782 13.2783 10.8554 -1.42819 6.11737 34.2851
1103323 4.82631 5.26101 13.2678 10.8182 -1.47403 6.14455 34.1733
1103333 4.78314 5.24229 13.2783 10.7996 -1.48049 6.18082 34.1033
1103343 4.78314 5.24229 13.2783 10.7996 -1.48049 6.18082 34.1033
1103353 4.81767 5.2891 13.2783 10.874 -1.41045 6.14971 34.2591
1103365 4.75724 5.17676 13.3729 10.8554 -1.53529 6.27636 34.1623
1103374 4.75724 5.17676 13.3729 10.8554 -1.53529 6.27636 34.1623
1103386 4.7745 5.21421 13.3834 10.874 -1.51089 6.24978 34.2462
1103394 4.7745 5.21421 13.3834 10.874 -1.51089 6.24978 34.2462
1103405 4.76587 5.20485 13.3309 10.874 -1.47608 6.24752 34.1756
1103415 4.7745 5.1674 13.3414 10.8368 -1.54724 6.2586 34.1201
1103426 4.7745 5.1674 13.3414 10.8368 -1.54724 6.2586 34.1201
1103434 4.75724 5.23293 13.3309 10.874 -1.4484 6.23543 34.1951
1103445 4.79177 5.17676 13.3519 10.8647 -1.53733 6.25187 34.1852
1103454 4.79177 5.17676 13.3519 10.8647 -1.53733 6.25187 34.1852
1103465 4.80041 5.27974 13.415 10.9206 -1.46375 6.21319 34.4157
1103474 4.80041 5.27974 13.415 10.9206 -1.46375 6.21319 34.4157
1103485 4.80904 5.29846 13.3519 10.8554 -1.46223 6.16344 34.3148
1103494 4.80041 5.26101 13.3309 10.874 -1.45639 6.19128 34.2663
1103507 4.80041 5.26101 13.3309 10.874 -1.45639 6.19128 34.2663
1103514 4.79177 5.27037 13.3098 10.7996 -1.48638 6.16621 34.1715
1103524 4.79177 5.2891 13.2783 10.7903 -1.45736 6.14403 34.1494
1103534 4.79177 5.2891 13.2783 10.7903 -1.45736 6.14403 34.1494
1103546 4.7486 5.23293 13.3098 10.8275 -1.46401 6.22345 34.1189
1103555 4.7486 5.23293 13.3098 10.8275 -1.46401 6.22345 34.1189
1103566 4.80041 5.23293 13.2152 10.7716 -1.47784 6.15231 34.0202
1103575 4.76587 5.17676 13.3414 10.8089 -1.55576 6.25099 34.0929
1103588 4.76587 5.17676 13.3414 10.8089 -1.55576 6.25099 34.0929
1103597 4.81767 5.2891 13.3939 10.8275 -1.52573 6.16752 34.3282
1103605 4.78314 5.24229 13.4045 10.8182 -1.55273 6.21811 34.2481
1103615 4.78314 5.24229 13.4045 10.8182 -1.55273 6.21811 34.2481
1103625 4.76587 5.26101 13.4045 10.8182 -1.52639 6.2172 34.2495
1103647 4.76587 5.26101 13.4045 10.8182 -1.52639 6.2172 34.2495
1103648 4.82631 5.19548 13.3939 10.7809 -1.64038 6.2081 34.1967
1103657 4.85221 5.29846 13.3834 10.7903 -1.5637 6.12816 34.3243
1103677 4.84358 5.30782 13.3098 10.6599 -1.60141 6.07469 34.1211
1103687 4.84358 5.30782 13.2678 10.6599 -1.57254 6.06367 34.0791
1103696 4.84358 5.30782 13.2678 10.6599 -1.57254 6.06367 34.0791
1103709 4.89538 5.29846 13.3414 10.6785 -1.65121 6.06163 34.2137
1103716 4.89538 5.29846 13.3414 10.6785 -1.65121 6.06163 34.2137
1103729 4.90401 5.31718 13.2678 10.6692 -1.59946 6.02307 34.1582
1103736 4.89538 5.32654 13.3098 10.6692 -1.61505 6.03366 34.201
1103747 4.89538 5.32654 13.3098 10.6692 -1.61505 6.03366 34.201
1103756 4.91265 5.38271 13.3309 10.6134 -1.64096 5.97943 34.2396
1103766 4.90401 5.30782 13.2993 10.6599 -1.63559 6.03467 34.1711
1103777 4.90401 5.30782 13.2993 10.6599 -1.63559 6.03467 34.1711
1103787 4.93855 5.40143 13.3203 10.6506 -1.60799 5.95917 34.3109
1103797 4.93855 5.40143 13.3203 10.6506 -1.60799 5.95917 34.3109
1103809 4.93855 5.37335 13.1521 10.5947 -1.55804 5.91697 34.0588
1103817 4.92991 5.43888 13.1732 10.5203 -1.57354 5.86778 34.0622
1103827 4.92991 5.43888 13.1732 10.5203 -1.57354 5.86778 34.0622
1103838 4.96445 5.44824 13.2573 10.5575 -1.61856 5.87339 34.2275
1103851 4.94718 5.38271 13.2047 10.5575 -1.62183 5.91001 34.0921
1103858 4.94718 5.38271 13.2047 10.5575 -1.62183 5.91001 34.0921
1103868 5.00762 5.40143 13.2468 10.5761 -1.66279 5.87777 34.2319
1103878 5.00762 5.40143 13.2468 10.5761 -1.66279 5.87777 34.2319
1103894 4.96445 5.38271 13.1837 10.5389 -1.63381 5.88883 34.0697
1103898 4.94718 5.4576 13.2468 10.5296 -1.61402 5.86795 34.1811
1103908 4.94718 5.4576 13.2468 10.5296 -1.61402 5.86795 34.1811
1103918 4.99898 5.42015 13.2362 10.5668 -1.6424 5.86633 34.2222
1103928 4.95582 5.47632 13.1837 10.5389 -1.5549 5.83686 34.1547
1103938 4.95582 5.47632 13.1837 10.5389 -1.5549 5.83686 34.1547
1103948 4.98172 5.47632 13.1732 10.6041 -1.51489 5.83573 34.2353
1103958 4.98172 5.47632 13.1732 10.6041 -1.51489 5.83573 34.2353
1103968 4.96445 5.44824 13.1206 10.5203 -1.55383 5.82678 34.0535
1103980 4.99898 5.4576 13.0891 10.5761 -1.50514 5.80653 34.1218
1103988 4.99898 5.4576 13.0891 10.5761 -1.50514 5.80653 34.1218
1104001 4.99035 5.52313 13.1626 10.5482 -1.52061 5.7842 34.2243
1104009 4.98172 5.52313 13.1311 10.5668 -1.4786 5.78597 34.2028
1104021 4.98172 5.46696 13.1311 10.5668 -1.52215 5.82016 34.1466
1104029 5.04215 5.54185 13.1416 10.5389 -1.53441 5.73326 34.2645
1104042 5.04215 5.54185 13.1416 10.5389 -1.53441 5.73326 34.2645
1104049 5.01625 5.51377 13.0785 10.511 -1.51678 5.74135 34.1195
1104059 5.01625 5.48568 13.1416 10.483 -1.60371 5.76796 34.1266
1104069 5.01625 5.48568 13.1416 10.483 -1.60371 5.76796 34.1266
1104079 5.05079 5.53249 13.0996 10.5482 -1.51155 5.72484 34.231
1104089 5.05079 5.53249 13.0996 10.5482 -1.51155 5.72484 34.231
1104105 4.99035 5.50441 12.9839 10.5203 -1.43358 5.73963 33.9989
1104109 5.00762 5.54185 13.0155 10.4923 -1.45996 5.7073 34.0573
1104129 5.03352 5.56993 12.9839 10.4737 -1.44871 5.66079 34.0611
1104140 5.05079 5.50441 12.9629 10.483 -1.48984 5.6869 34.0011
1104149 5.05079 5.50441 12.9629 10.483 -1.48984 5.6869 34.0011
1104159 5.05079 5.64482 12.9734 10.5203 -1.35942 5.61495 34.1893
1104169 5.05079 5.64482 12.9734 10.5203 -1.35942 5.61495 34.1893
1104179 5.01625 5.58866 13.0575 10.5389 -1.42262 5.6978 34.2013
1104189 4.99898 5.59802 13.0575 10.5668 -1.38194 5.71018 34.2213
1104199 4.99898 5.59802 13.0575 10.5668 -1.38194 5.71018 34.2213
1104211 5.04215 5.60738 12.9734 10.5389 -1.36797 5.64786 34.1618
1104220 5.05079 5.56057 12.9944 10.511 -1.44628 5.66908 34.1167
1104230 5.05079 5.56057 12.9944 10.511 -1.44628 5.66908 34.1167
1104240 5.04215 5.55121 12.9734 10.4458 -1.48369 5.65636 34.0126
1104260 5.03352 5.55121 12.9734 10.3713 -1.53584 5.64111 33.9294
1104272 5.06805 5.63546 12.9419 10.4551 -1.40714 5.58355 34.1005
1104283 5.06805 5.63546 12.9419 10.4551 -1.40714 5.58355 34.1005
1104294 5.07669 5.64482 12.9944 10.483 -1.42057 5.59488 34.199
1104300 5.08532 5.6261 12.9734 10.4458 -1.45533 5.58491 34.1306
1104313 5.08532 5.6261 12.9734 10.4458 -1.45533 5.58491 34.1306
1104320 5.11122 5.61674 12.9524 10.4737 -1.4443 5.57685 34.1541
1104340 5.05079 5.60738 13.0049 10.5296 -1.40292 5.64873 34.1927
1104350 5.12849 5.65418 13.026 10.4644 -1.48505 5.56167 34.2731
1104360 5.12849 5.65418 13.026 10.4644 -1.48505 5.56167 34.2731
1104370 5.13713 5.63546 12.9734 10.4272 -1.49819 5.54294 34.1732
1104380 5.11122 5.67291 12.9734 10.4179 -1.45856 5.53343 34.1754
1104400 5.08532 5.65418 12.8157 10.3899 -1.36759 5.50865 33.9451
1104412 5.08532 5.65418 12.8157 10.3899 -1.36759 5.50865 33.9451
1104420 5.11122 5.66355 12.8998 10.4179 -1.415 5.51863 34.0924
1104430 5.11122 5.70099 12.8472 10.3527 -1.40009 5.46322 34.0121
1104440 5.11122 5.70099 12.8472 10.3527 -1.40009 5.46322 34.0121
1104450 5.16303 5.76652 12.8472 10.362 -1.37802 5.39549 34.1388
1104460 5.17166 5.71971 12.8367 10.362 -1.41294 5.41536 34.0901
1104470 5.17166 5.71971 12.8367 10.362 -1.41294 5.41536 34.0901
1104481 5.15439 5.77588 12.8788 10.3806 -1.37226 5.40914 34.1897
1104490 5.15439 5.77588 12.8788 10.3806 -1.37226 5.40914 34.1897
1104502 5.22346 5.71035 12.8683 10.3992 -1.44889 5.4093 34.2013
1104511 5.21483 5.7478 12.8262 10.362 -1.41377 5.36982 34.1508
1104531 5.18893 5.77588 12.8472 10.3527 -1.39589 5.37182 34.1647
1104541 5.22346 5.77588 12.7947 10.2223 -1.48452 5.29937 34.0164
1104562 5.24937 5.82269 12.8157 10.2689 -1.44444 5.27535 34.1567
1104571 5.24937 5.82269 12.8157 10.2689 -1.44444 5.27535 34.1567
1104583 5.22346 5.77588 12.8157 10.241 -1.48456 5.31066 34.056
1104591 5.3098 5.81333 12.8472 10.2596 -1.52216 5.25141 34.23
1104604 5.3098 5.81333 12.8472 10.2596 -1.52216 5.25141 34.23
1104612 5.2839 5.78524 12.8472 10.2875 -1.5045 5.29134 34.2039
1104624 5.24073 5.7946 12.8367 10.2037 -1.52538 5.2846 34.0758
1104633 5.24073 5.7946 12.8367 10.2037 -1.52538 5.2846 34.0758
1104645 5.22346 5.7946 12.8578 10.1944 -1.53522 5.29822 34.0702
1104653 5.22346 5.7946 12.8578 10.1944 -1.53522 5.29822 34.0702
1104663 5.2321 5.7946 12.8683 10.2317 -1.51943 5.30666 34.1266
1104673 5.2321 5.73844 12.8578 10.1572 -1.61411 5.31598 33.9855
1104693 5.2321 5.83205 12.8367 10.1572 -1.52652 5.25416 34.0581
1104703 5.2321 5.83205 12.8367 10.1572 -1.52652 5.25416 34.0581
1104713 5.3098 5.86949 12.8367 10.1944 -1.52192 5.1966 34.2104
1104723 5.26663 5.86013 12.8262 10.1572 -1.52121 5.21397 34.1102
1104733 5.26663 5.86013 12.8262 10.1572 -1.52121 5.21397 34.1102
1104743 5.26663 5.86949 12.8472 10.1386 -1.54287 5.20912 34.1219
1104753 5.26663 5.84141 12.8157 10.1479 -1.53579 5.21939 34.0716
1104774 5.31844 5.90694 12.7947 10.1292 -1.52048 5.13856 34.1493
1104784 5.3357 5.85077 12.7947 10.1758 -1.53982 5.17494 34.1569
1104804 5.258 5.96311 12.7421 10.092 -1.42783 5.11508 34.0552
1104814 5.258 5.96311 12.7421 10.092 -1.42783 5.11508 34.0552
1104824 5.2321 5.88822 12.7211 10.1106 -1.43905 5.17409 33.952
1104835 5.30117 5.89758 12.7316 10.1292 -1.47238 5.13604 34.0596
1104844 5.30117 5.89758 12.7316 10.1292 -1.47238 5.13604 34.0596
1104854 5.30117 5.94438 12.7211 10.1479 -1.41436 5.11076 34.1145
1104864 5.3098 5.96311 12.7631 10.1665 -1.42048 5.11222 34.2025
1104885 5.2839 5.96311 12.8052 10.1479 -1.446 5.13423 34.2001
1104895 5.2839 5.96311 12.8052 10.1479 -1.446 5.13423 34.2001
1104905 5.24937 5.90694 12.6895 10.1572 -1.37841 5.15708 34.003
1104924 5.30117 6.00991 12.7526 10.1851 -1.35682 5.09214 34.2488
1104928 5.30117 6.00991 12.7526 10.1851 -1.35682 5.09214 34.2488
1104937 5.29253 6.02863 12.7106 10.2037 -1.29307 5.07944 34.2355
1104946 5.3357 5.96311 12.616 10.1292 -1.36537 5.04335 34.044
1104956 5.3357 5.96311 12.616 10.1292 -1.36537 5.04335 34.044
1104967 5.2839 6.038 12.6475 10.1665 -1.26474 5.04986 34.1359
1104977 5.2839 6.038 12.6475 10.1665 -1.26474 5.04986 34.1359
1104986 5.24073 5.95374 12.6895 10.1386 -1.35056 5.12908 34.0226
1104999 5.26663 6.00055 12.7001 10.1944 -1.29658 5.10541 34.1617
1105021 5.24937 5.95374 12.6475 10.1386 -1.32731 5.11175 33.9892
1105026 5.26663 6.00991 12.7106 10.1572 -1.32535 5.09215 34.1443
1105044 5.26663 6.00991 12.7106 10.1572 -1.32535 5.09215 34.1443
1105046 5.2839 6.00991 12.7106 10.1106 -1.37325 5.06847 34.115
1105067 5.258 5.98183 12.6265 10.1386 -1.29694 5.08392 34.0048
1105077 5.3098 6.02863 12.7421 10.1386 -1.37696 5.05956 34.2191
1105096 5.27527 6.00991 12.8052 10.1758 -1.38238 5.11983 34.2662
1105106 5.24937 5.98183 12.7421 10.1665 -1.34972 5.1307 34.1398
1105116 5.24937 5.98183 12.7421 10.1665 -1.34972 5.1307 34.1398
1105127 5.30117 5.97247 12.7001 10.1013 -1.41412 5.07457 34.075
1105158 5.3098 5.93502 12.6685 10.1199 -1.41286 5.0878 34.0333
1105170 5.3098 5.93502 12.6685 10.1199 -1.41286 5.0878 34.0333
1105178 5.2839 5.95374 12.6475 10.0548 -1.41639 5.06687 33.9399
1105190 5.27527 5.97247 12.7631 10.1106 -1.43261 5.11087 34.1215
1105198 5.27527 5.97247 12.7631 10.1106 -1.43261 5.11087 34.1215
1105209 5.29253 6.00991 12.7842 10.1479 -1.40131 5.09556 34.2345
1105218 5.29253 6.00991 12.7842 10.1479 -1.40131 5.09556 34.2345
1105228 5.22346 5.9163 12.8367 10.0734 -1.52021 5.1852 34.0499
1105238 5.27527 5.93502 12.8683 10.1386 -1.51238 5.17133 34.2171
1105252 5.27527 5.93502 12.8683 10.1386 -1.51238 5.17133 34.2171
1105258 5.2062 5.95374 12.8157 10.0641 -1.47187 5.16449 34.0397
1105268 5.22346 5.86949 12.8578 10.0361 -1.60031 5.20831 33.9869
1105278 5.22346 5.86949 12.8578 10.0361 -1.60031 5.20831 33.9869
1105288 5.2321 5.90694 12.8998 10.092 -1.56235 5.20912 34.1309
1105309 5.18893 5.86949 12.8893 10.092 -1.5546 5.25396 34.0397
1105319 5.27527 5.86013 12.9419 10.092 -1.65719 5.22332 34.1693
1105329 5.27527 5.86013 12.9419 10.092 -1.65719 5.22332 34.1693
1105339 5.258 5.7946 12.9839 10.1665 -1.66713 5.30559 34.203
1105354 5.2321 5.84141 12.9524 10.1106 -1.63494 5.26833 34.1365
1105359 5.2321 5.84141 12.9524 10.1106 -1.63494 5.26833 34.1365
1105369 5.2321 5.84141 12.9314 10.2223 -1.53365 5.29412 34.2272
1105379 5.2321 5.84141 12.9314 10.2223 -1.53365 5.29412 34.2272
1105389 5.2321 5.78524 12.8893 10.1944 -1.57014 5.30762 34.1011
1105399 5.18893 5.7946 12.8683 10.1292 -1.56952 5.30325 33.981
1105409 5.18893 5.7946 12.8683 10.1292 -1.56952 5.30325 33.981
1105419 5.2062 5.78524 12.9208 10.1572 -1.60307 5.32144 34.0695
1105439 5.22346 5.84141 12.8893 10.2223 -1.49884 5.2873 34.1765
1105449 5.2062 5.7946 12.9103 10.2782 -1.49441 5.34716 34.1893
1105461 5.2062 5.7946 12.9103 10.2782 -1.49441 5.34716 34.1893
1105469 5.21483 5.7946 12.8683 10.2596 -1.48585 5.32486 34.1373
1105479 5.2062 5.78524 12.9103 10.2968 -1.48724 5.35799 34.1986
1105500 5.17166 5.78524 12.8998 10.3154 -1.44181 5.38085 34.1722
1105510 5.17166 5.78524 12.8998 10.3154 -1.44181 5.38085 34.1722
1105520 5.13713 5.7478 12.8788 10.2782 -1.46137 5.40748 34.0419
1105530 5.16303 5.80396 12.9314 10.3434 -1.42154 5.39155 34.2417
1105545 5.16303 5.80396 12.9314 10.3434 -1.42154 5.39155 34.2417
1105554 5.16303 5.78524 12.8578 10.3061 -1.41402 5.37153 34.1122
1105564 5.13713 5.77588 12.9103 10.3434 -1.41087 5.41786 34.1667
1105570 5.13713 5.77588 12.9103 10.3434 -1.41087 5.41786 34.1667
1105588 5.16303 5.77588 12.8052 10.3434 -1.35604 5.37279 34.0875
1105591 5.17166 5.72907 12.8788 10.3992 -1.40595 5.43201 34.1788
1105604 5.17166 5.72907 12.8788 10.3992 -1.40595 5.43201 34.1788
1105611 5.18893 5.7946 12.8367 10.3713 -1.35981 5.36295 34.1916
1105624 5.18893 5.7946 12.8367 10.3713 -1.35981 5.36295 34.1916
1105638 5.06805 5.72907 12.8262 10.4085 -1.29045 5.48205 34.0319
1105644 5.13713 5.73844 12.7842 10.3899 -1.31641 5.41791 34.0497
1105652 5.13713 5.73844 12.7842 10.3899 -1.31641 5.41791 34.0497
1105662 5.13713 5.81333 12.8052 10.3806 -1.28044 5.3764 34.1363
1105671 5.10259 5.7946 12.7737 10.3992 -1.23452 5.40461 34.0701
1105683 5.10259 5.7946 12.7737 10.3992 -1.23452 5.40461 34.0701
1105693 5.13713 5.76652 12.8157 10.3992 -1.30946 5.41258 34.1186
1105713 5.08532 5.73844 12.9208 10.4737 -1.31072 5.51056 34.2183
1105725 5.11986 5.78524 12.8683 10.4458 -1.28372 5.43948 34.2192
1105745 5.12849 5.78524 12.8367 10.4272 -1.28214 5.42028 34.1776
1105753 5.11122 5.77588 12.8472 10.362 -1.33489 5.42088 34.0963
1105763 5.11122 5.77588 12.8472 10.362 -1.33489 5.42088 34.0963
1105773 5.12849 5.83205 12.7737 10.3154 -1.28831 5.34303 34.0496
1105785 5.12849 5.83205 12.7737 10.3154 -1.28831 5.34303 34.0496
1105793 5.11986 5.78524 12.6685 10.3061 -1.25223 5.3437 33.8798
1105804 5.14576 5.80396 12.8052 10.2875 -1.36556 5.35052 34.0424
1105825 5.17166 5.89758 12.6895 10.2782 -1.23794 5.24364 34.037
1105834 5.21483 5.84141 12.7737 10.2968 -1.35543 5.28072 34.1267
1105846 5.21483 5.84141 12.7737 10.2968 -1.35543 5.28072 34.1267
1105854 5.15439 5.87885 12.8472 10.3341 -1.30699 5.32583 34.2146
1105866 5.15439 5.87885 12.8472 10.3341 -1.30699 5.32583 34.2146
1105874 5.18893 5.90694 12.8367 10.3248 -1.30918 5.28308 34.2574
1105887 5.18029 5.87885 12.8683 10.3341 -1.33944 5.3164 34.2615
1105894 5.18029 5.87885 12.8683 10.3341 -1.33944 5.3164 34.2615
1105905 5.18893 5.85077 12.8052 10.241 -1.39529 5.28362 34.0859
1105914 5.21483 5.93502 12.8052 10.2968 -1.30517 5.23424 34.2519
1105924 5.21483 5.93502 12.8052 10.2968 -1.30517 5.23424 34.2519
1105934 5.22346 5.89758 12.7947 10.2223 -1.39011 5.227 34.1381
1105945 5.22346 5.89758 12.7947 10.2223 -1.39011 5.227 34.1381
1105954 5.24073 5.86949 12.7526 10.2317 -1.38748 5.22403 34.0945
1105967 5.24937 5.88822 12.7631 10.213 -1.40065 5.20549 34.1138
1105974 5.24937 5.88822 12.7631 10.213 -1.40065 5.20549 34.1138
1105987 5.26663 5.89758 12.7631 10.1665 -1.4414 5.17634 34.0938
1105994 5.21483 5.9163 12.8472 10.2223 -1.40599 5.23606 34.2007
1106004 5.21483 5.9163 12.8472 10.2223 -1.40599 5.23606 34.2007
1106014 5.258 5.90694 12.9629 10.2317 -1.51509 5.25166 34.3595
1106024 5.258 5.90694 12.9629 10.2317 -1.51509 5.25166 34.3595
1106034 5.27527 5.92566 12.8683 10.1851 -1.48359 5.1902 34.2543
1106044 5.31844 5.88822 12.8367 10.1572 -1.54221 5.16976 34.2006
1106054 5.31844 5.88822 12.8367 10.1572 -1.54221 5.16976 34.2006
1106064 5.2839 5.93502 12.7947 10.0268 -1.55457 5.11271 34.0404
1106085 5.24937 5.88822 12.7842 10.0455 -1.54551 5.16323 33.9672
1106096 5.24937 5.89758 12.7947 10.0827 -1.5164 5.17149 34.0243
1106105 5.24937 5.89758 12.7947 10.0827 -1.5164 5.17149 34.0243
1106115 5.18029 5.89758 12.7316 10.0455 -1.4539 5.18352 33.8549
1106125 5.24073 5.87885 12.7526 10.0641 -1.5105 5.17018 33.9363
1106135 5.24073 5.87885 12.7526 10.0641 -1.5105 5.17018 33.9363
1106145 5.24937 5.93502 12.8052 10.092 -1.48727 5.15505 34.0816
1106165 5.27527 5.90694 12.8472 10.0827 -1.56314 5.16579 34.1121
1106175 5.30117 5.9163 12.8262 10.1479 -1.50858 5.15769 34.1916
1106194 5.30117 5.9163 12.8262 10.1479 -1.50858 5.15769 34.1916
1106204 5.2839 5.94438 12.8683 10.1758 -1.48224 5.17142 34.2724
1106216 5.31844 5.93502 12.8578 10.1479 -1.52756 5.14557 34.2591
1106217 5.31844 5.93502 12.8578 10.1479 -1.52756 5.14557 34.2591
1106228 5.24937 5.88822 12.8788 10.092 -1.57434 5.20395 34.1084
1106237 5.27527 5.86949 12.7842 10.1665 -1.48367 5.19391 34.0954
1106247 5.27527 5.86949 12.7842 10.1665 -1.48367 5.19391 34.0954
1106258 5.2321 5.99119 12.8578 10.092 -1.46802 5.14725 34.1731
1106279 5.2321 5.90694 12.8367 10.1106 -1.50446 5.19635 34.0864
1106290 5.24937 5.87885 12.8683 10.092 -1.57442 5.20647 34.0885
1106300 5.24937 5.87885 12.8683 10.092 -1.57442 5.20647 34.0885
1106308 5.2062 5.9163 12.8893 10.1386 -1.49387 5.22924 34.1504
1106320 5.15439 5.86013 12.9314 10.1665 -1.50908 5.31331 34.1124
1106339 5.19756 5.93502 12.8998 10.1851 -1.44462 5.23957 34.2175
1106348 5.19756 5.93502 12.8998 10.1851 -1.44462 5.23957 34.2175
1106359 5.17166 5.86949 12.8472 10.1572 -1.46292 5.27084 34.0456
1106368 5.18893 5.88822 12.9103 10.2037 -1.46772 5.2807 34.1912
1106379 5.18893 5.88822 12.9103 10.2037 -1.46772 5.2807 34.1912
1106388 5.18893 5.90694 12.8367 10.2596 -1.35933 5.26456 34.1922
1106399 5.18893 5.82269 12.8578 10.2689 -1.43176 5.32322 34.1383
1106410 5.18893 5.82269 12.8578 10.2689 -1.43176 5.32322 34.1383
1106419 5.17166 5.86013 12.7842 10.2968 -1.31833 5.29825 34.1128
1106429 5.17166 5.86013 12.7842 10.2968 -1.31833 5.29825 34.1128
1106439 5.12849 5.85077 12.7947 10.2503 -1.33885 5.31931 34.0242
1106449 5.13713 5.9163 12.7631 10.3341 -1.20782 5.29 34.1506
1106469 5.22346 5.88822 12.7737 10.3341 -1.29666 5.25844 34.2194
1106480 5.13713 5.85077 12.7947 10.3806 -1.24434 5.35111 34.1632
1106491 5.13713 5.85077 12.7947 10.3806 -1.24434 5.35111 34.1632
1106500 5.15439 5.88822 12.7947 10.3713 -1.23475 5.31593 34.2086
1106520 5.16303 5.82269 12.8052 10.4644 -1.22691 5.37897 34.2553
1106529 5.13713 5.88822 12.7947 10.3713 -1.22274 5.32619 34.1913
1106540 5.13713 5.88822 12.7947 10.3713 -1.22274 5.32619 34.1913
1106549 5.17166 5.82269 12.7211 10.3434 -1.26743 5.31585 34.0588
1106561 5.16303 5.86013 12.7316 10.2968 -1.27576 5.28842 34.0516
1106569 5.16303 5.86013 12.7316 10.2968 -1.27576 5.28842 34.0516
1106582 5.14576 5.82269 12.7526 10.3992 -1.22835 5.35608 34.1203
1106605 5.07669 5.84141 12.7316 10.3154 -1.21554 5.3565 33.9651
1106609 5.14576 5.7946 12.7001 10.3527 -1.24918 5.34478 33.9931
1106630 5.13713 5.84141 12.7631 10.3806 -1.22958 5.34777 34.1223
1106640 5.13713 5.84141 12.7631 10.3806 -1.22958 5.34777 34.1223
1106650 5.10259 5.78524 12.8262 10.4179 -1.26401 5.43022 34.1319
1106660 5.11122 5.89758 12.8683 10.5016 -1.14917 5.39336 34.3787
1106670 5.11122 5.89758 12.8683 10.5016 -1.14917 5.39336 34.3787
1106680 5.16303 5.7946 12.8262 10.4551 -1.27016 5.39898 34.2389
1106690 5.14576 5.7946 12.8262 10.4458 -1.26533 5.40666 34.2124
1106711 5.15439 5.77588 12.8262 10.4272 -1.30001 5.40746 34.1837
1106720 5.15439 5.77588 12.8262 10.4272 -1.30001 5.40746 34.1837
1106730 5.13713 5.78524 12.8367 10.3992 -1.30962 5.40729 34.1583
1106740 5.15439 5.73844 12.8472 10.4551 -1.32191 5.44354 34.1952
1106760 5.10259 5.75716 12.8472 10.4644 -1.26442 5.46593 34.1714
1106771 5.09396 5.65418 12.8998 10.4365 -1.39588 5.53984 34.0844
1106780 5.09396 5.65418 12.8998 10.4365 -1.39588 5.53984 34.0844
1106792 5.05079 5.72907 12.8578 10.4365 -1.27883 5.50904 34.0741
1106800 5.05079 5.72907 12.8578 10.4365 -1.27883 5.50904 34.0741
1106818 5.07669 5.70099 12.7526 10.5203 -1.18064 5.50441 34.0506
1106829 5.07669 5.68227 12.8157 10.5203 -1.23909 5.53323 34.0949
1106840 5.07669 5.68227 12.8157 10.5203 -1.23909 5.53323 34.0949
1106841 5.04215 5.73844 12.9314 10.5389 -1.23806 5.55738 34.2508
1106851 5.03352 5.65418 12.9314 10.5203 -1.31112 5.60816 34.1393
1106863 5.03352 5.65418 12.9314 10.5203 -1.31112 5.60816 34.1393
1106875 5.05942 5.64482 12.9208 10.5016 -1.34337 5.59015 34.1267
1106896 5.02489 5.61674 12.9103 10.5203 -1.31941 5.63023 34.0722
1106903 5.06805 5.66355 12.9314 10.511 -1.33502 5.57913 34.1739
1106913 5.06805 5.66355 12.9314 10.511 -1.33502 5.57913 34.1739
1106923 4.95582 5.67291 13.0049 10.5575 -1.26521 5.67415 34.1912
1106933 4.99898 5.64482 12.9629 10.5668 -1.28041 5.65609 34.1735
1106943 4.99898 5.64482 12.9629 10.5668 -1.28041 5.65609 34.1735
1106953 5.02489 5.64482 12.8472 10.5668 -1.21796 5.60869 34.0838
1106973 5.02489 5.58866 13.0155 10.5203 -1.41396 5.67604 34.1493
1106983 4.99035 5.59802 12.8998 10.5854 -1.25223 5.67751 34.0736
1107004 4.97308 5.60738 12.9524 10.5854 -1.26959 5.69666 34.1183
1107016 5.05942 5.6261 12.9314 10.6134 -1.27907 5.63501 34.2302
1107034 4.99898 5.65418 12.8683 10.5854 -1.19304 5.6296 34.1069
1107044 5.02489 5.65418 12.8788 10.6041 -1.20414 5.62195 34.1619
1107054 5.02489 5.65418 12.8788 10.6041 -1.20414 5.62195 34.1619
1107064 5.01625 5.65418 12.8683 10.5947 -1.19794 5.62172 34.1335
1107074 5.01625 5.65418 12.8683 10.5947 -1.19794 5.62172 34.1335
1107084 5.04215 5.6261 12.9208 10.5575 -1.30276 5.62725 34.1466
1107094 5.00762 5.71035 12.9208 10.5575 -1.21402 5.59726 34.1963
1107114 5.05079 5.71971 12.8578 10.5761 -1.17873 5.5534 34.2044
1107124 5.05079 5.71971 12.8578 10.5761 -1.17873 5.5534 34.2044
1107135 5.07669 5.60738 12.8788 10.5761 -1.29762 5.61126 34.139
1107146 5.07669 5.71971 12.8578 10.5482 -1.21815 5.53012 34.2024
1107155 5.07669 5.71971 12.8578 10.5482 -1.21815 5.53012 34.2024
1107166 5.09396 5.6261 12.7737 10.5389 -1.25073 5.55018 34.0326
1107174 5.11122 5.71971 12.8262 10.5203 -1.24166 5.4929 34.1774
1107186 5.11122 5.71971 12.8262 10.5203 -1.24166 5.4929 34.1774
1107194 5.10259 5.7478 12.8052 10.5296 -1.19234 5.47798 34.1852
1107207 5.10259 5.7478 12.8052 10.5296 -1.19234 5.47798 34.1852
1107214 5.06805 5.75716 12.8472 10.5296 -1.1904 5.50476 34.202
1107224 5.10259 5.73844 12.8683 10.5854 -1.20062 5.5166 34.2947
1107235 5.10259 5.73844 12.8683 10.5854 -1.20062 5.5166 34.2947
1107248 5.11122 5.66355 12.8052 10.4458 -1.32774 5.50004 34.0257
1107255 5.06805 5.73844 12.8472 10.5203 -1.21189 5.51341 34.174
1107275 5.12849 5.71971 12.8157 10.5296 -1.23921 5.48222 34.1935
1107287 5.12849 5.71971 12.8157 10.5296 -1.23921 5.48222 34.1935
1107295 5.07669 5.65418 12.7842 10.4458 -1.29626 5.52066 33.9608
1107308 5.02489 5.66355 12.7947 10.4551 -1.25296 5.55186 33.9382
1107325 5.06805 5.68227 12.8788 10.4737 -1.31284 5.54302 34.1028
1107335 5.08532 5.69163 12.8998 10.4179 -1.37533 5.51731 34.0946
1107349 5.08532 5.69163 12.8998 10.4179 -1.37533 5.51731 34.0946
1107355 5.10259 5.71971 12.9103 10.4458 -1.35131 5.50075 34.1784
1107365 5.10259 5.71971 12.9103 10.4458 -1.35131 5.50075 34.1784
1107375 5.03352 5.70099 12.9314 10.483 -1.30375 5.56967 34.1489
1107385 5.08532 5.67291 13.0155 10.511 -1.3978 5.58625 34.2846
1107395 5.08532 5.67291 13.0155 10.511 -1.3978 5.58625 34.2846
1107405 5.11122 5.70099 13.0049 10.5016 -1.39394 5.54844 34.3188
1107415 5.11122 5.66355 13.0049 10.4551 -1.4587 5.55806 34.2348
1107425 5.11122 5.66355 13.0049 10.4551 -1.4587 5.55806 34.2348
1107435 5.11122 5.66355 13.026 10.4458 -1.48035 5.56129 34.2465
1107451 5.11122 5.66355 13.026 10.4458 -1.48035 5.56129 34.2465
1107458 5.11986 5.67291 12.9208 10.4458 -1.40665 5.52141 34.1594
1107467 5.08532 5.66355 13.0049 10.5016 -1.40494 5.58644 34.2555
1107484 5.08532 5.66355 13.0049 10.5016 -1.40494 5.58644 34.2555
1107487 5.08532 5.58866 13.0365 10.4737 -1.50614 5.63253 34.1842
1107497 5.06805 5.56057 13.0365 10.4551 -1.53053 5.65484 34.1202
1107518 5.09396 5.60738 13.047 10.5016 -1.48317 5.62656 34.25
1107538 5.04215 5.56993 13.0575 10.4644 -1.51266 5.67315 34.134
1107548 4.99898 5.58866 13.0891 10.5389 -1.43246 5.71683 34.2156
1107559 4.99898 5.58866 13.0891 10.5389 -1.43246 5.71683 34.2156
1107568 5.04215 5.52313 13.0785 10.483 -1.54904 5.71234 34.1268
1107578 5.04215 5.54185 13.0891 10.5482 -1.49115 5.72155 34.2213
1107592 5.04215 5.54185 13.0891 10.5482 -1.49115 5.72155 34.2213
1107599 5.05079 5.54185 13.1101 10.5389 -1.51872 5.7195 34.2416
1107609 5.05079 5.54185 13.1101 10.5389 -1.51872 5.7195 34.2416
1107619 4.93855 5.53249 13.2257 10.5575 -1.51389 5.82943 34.2543
1107629 5.02489 5.52313 13.2152 10.5668 -1.5658 5.7824 34.33
1107639 5.02489 5.52313 13.2152 10.5668 -1.5658 5.7824 34.33
1107649 5.00762 5.4576 13.1942 10.5668 -1.59044 5.82701 34.2262
1107660 4.95582 5.48568 13.1837 10.6134 -1.48987 5.8511 34.2385
1107669 4.95582 5.48568 13.1837 10.6134 -1.48987 5.8511 34.2385
1107680 4.92991 5.47632 13.1311 10.6134 -1.44311 5.85855 34.1507
1107695 4.96445 5.52313 13.1206 10.5389 -1.48112 5.78611 34.1471
1107700 4.96445 5.52313 13.1206 10.5389 -1.48112 5.78611 34.1471
1107710 5.01625 5.51377 13.1942 10.5761 -1.54557 5.79016 34.3003
1107720 5.01625 5.51377 13.1942 10.5761 -1.54557 5.79016 34.3003
1107730 4.98172 5.46696 13.1942 10.5296 -1.59439 5.8271 34.1724
1107741 4.99035 5.48568 13.1626 10.5482 -1.54966 5.80697 34.1869
1107750 4.99035 5.48568 13.1626 10.5482 -1.54966 5.80697 34.1869
1107762 4.98172 5.52313 13.1837 10.5668 -1.51469 5.80011 34.2553
1107770 4.99035 5.52313 13.1732 10.5761 -1.5062 5.79454 34.2628
1107783 4.99035 5.52313 13.1732 10.5761 -1.5062 5.79454 34.2628
1107790 4.94718 5.46696 13.1837 10.5854 -1.52009 5.86031 34.1833
1107812 4.93855 5.4576 13.1942 10.5575 -1.55034 5.86664 34.1478
1107823 4.97308 5.46696 13.1732 10.632 -1.49459 5.85415 34.2452
1107832 4.97308 5.46696 13.1732 10.632 -1.49459 5.85415 34.2452
1107844 4.92991 5.47632 13.1311 10.632 -1.42871 5.86353 34.1693
1107851 4.86948 5.42952 13.1416 10.6413 -1.42325 5.93449 34.0819
1107861 4.86948 5.42952 13.1416 10.6413 -1.42325 5.93449 34.0819
1107871 4.90401 5.47632 13.1311 10.6599 -1.38924 5.88681 34.1714
1107881 4.90401 5.47632 13.1311 10.6599 -1.38924 5.88681 34.1714
1107891 4.93855 5.39207 13.1206 10.6227 -1.49997 5.90451 34.0739
1107905 4.91265 5.50441 13.1626 10.632 -1.41684 5.86536 34.2117
1107921 4.94718 5.48568 13.0891 10.6041 -1.42597 5.82851 34.126
1107931 4.91265 5.47632 13.1101 10.6972 -1.35195 5.88586 34.1962
1107945 4.91265 5.47632 13.1101 10.6972 -1.35195 5.88586 34.1962
1107952 4.93855 5.4576 13.1206 10.6692 -1.41309 5.87683 34.186
1107964 4.93855 5.4576 13.1206 10.6692 -1.41309 5.87683 34.186
1107973 4.92991 5.43888 13.0785 10.6599 -1.39975 5.87984 34.1072
1107984 4.86948 5.47632 13.0891 10.6599 -1.3362 5.89673 34.0948
1107993 4.86948 5.47632 13.0891 10.6599 -1.3362 5.89673 34.0948
1108005 4.95582 5.50441 13.1837 10.6506 -1.44665 5.84965 34.2945
1108013 4.92128 5.53249 13.1416 10.6413 -1.37945 5.83985 34.2367
1108034 4.92991 5.48568 13.1416 10.7065 -1.37127 5.88049 34.2637
1108056 4.91265 5.4576 13.1311 10.7158 -1.36655 5.90785 34.2171
1108063 4.88674 5.50441 13.1206 10.6692 -1.34118 5.87988 34.181
1108084 4.94718 5.50441 13.068 10.6878 -1.33229 5.83394 34.2075
1108094 4.88674 5.42015 13.1521 10.7437 -1.37052 5.95958 34.2027
1108123 4.92991 5.4576 13.1732 10.7716 -1.36449 5.92326 34.3323
1108124 4.92991 5.4576 13.1732 10.7716 -1.36449 5.92326 34.3323
1108134 4.85221 5.35463 13.1416 10.8089 -1.33963 6.03545 34.1573
1108146 4.87811 5.42952 13.1206 10.8089 -1.28539 5.96802 34.2371
1108154 4.87811 5.42952 13.1206 10.8089 -1.28539 5.96802 34.2371
1108168 4.85221 5.40143 13.1206 10.7903 -1.30334 5.99623 34.1645
1108174 4.79177 5.39207 13.1311 10.8461 -1.23291 6.05662 34.1611
1108185 4.79177 5.39207 13.1311 10.8461 -1.23291 6.05662 34.1611
1108195 4.90401 5.32654 13.0785 10.8461 -1.32476 6.01406 34.1552
1108215 4.80041 5.34526 13.1521 10.8834 -1.26088 6.09538 34.1812
1108225 4.81767 5.31718 13.0996 10.8834 -1.25793 6.08835 34.1178
1108235 4.81767 5.31718 13.0996 10.8834 -1.25793 6.08835 34.1178
1108245 4.86084 5.31718 13.1837 10.902 -1.33185 6.0885 34.2637
1108255 4.80904 5.37335 13.1837 10.902 -1.25291 6.08581 34.268
1108265 4.80904 5.37335 13.1837 10.902 -1.25291 6.08581 34.268
1108275 4.83494 5.3359 13.0996 10.8647 -1.26986 6.06125 34.1351
1108287 4.83494 5.3359 13.0996 10.8647 -1.26986 6.06125 34.1351
1108296 4.78314 5.35463 13.1416 10.8461 -1.263 6.08781 34.1255
1108305 4.82631 5.36399 13.1311 10.9113 -1.22846 6.06968 34.2327
1108319 4.82631 5.36399 13.1311 10.9113 -1.22846 6.06968 34.2327
1108325 4.81767 5.3359 13.0996 10.7809 -1.3225 6.04993 34.0341
1108335 4.84358 5.31718 13.1626 10.8834 -1.31969 6.08882 34.2068
1108345 4.84358 5.31718 13.1626 10.8834 -1.31969 6.08882 34.2068
1108355 4.85221 5.34526 13.2678 10.9113 -1.35517 6.10078 34.3765
1108367 4.85221 5.34526 13.2678 10.9113 -1.35517 6.10078 34.3765
1108375 4.80904 5.27037 13.2573 10.9671 -1.33279 6.18517 34.3038
1108386 4.83494 5.27974 13.2468 10.9671 -1.33622 6.16071 34.3286
1108395 4.83494 5.27974 13.2468 10.9671 -1.33622 6.16071 34.3286
1108405 4.81767 5.26101 13.2257 10.9113 -1.36714 6.1631 34.2157
1108415 4.81767 5.26101 13.2888 10.9113 -1.41063 6.17936 34.2788
1108425 4.82631 5.29846 13.2888 10.8834 -1.40924 6.14373 34.2969
1108435 4.81767 5.23293 13.2362 10.9206 -1.38887 6.1856 34.2074
1108445 4.81767 5.23293 13.2362 10.9206 -1.38887 6.1856 34.2074
1108455 4.81767 5.14868 13.2468 10.8554 -1.5119 6.22385 34.0685
1108465 4.7745 5.20485 13.2678 10.8461 -1.46021 6.21877 34.0932
1108486 4.88674 5.19548 13.2888 10.9485 -1.47987 6.18675 34.3196
1108508 4.80904 5.19548 13.2678 10.9392 -1.4192 6.22706 34.2115
1108517 4.78314 5.13932 13.3309 10.9671 -1.46662 6.3013 34.2205
1108530 4.78314 5.13932 13.3309 10.9671 -1.46662 6.3013 34.2205
1108536 4.7745 5.07379 13.2783 10.9858 -1.4608 6.33895 34.1124
1108547 4.80041 5.11123 13.3624 10.9858 -1.50746 6.32075 34.2598
1108557 4.80041 5.11123 13.3624 10.9858 -1.50746 6.32075 34.2598
1108567 4.73997 5.13932 13.3414 10.9578 -1.45134 6.32851 34.1785
1108588 4.73997 5.07379 13.4255 11.023 -1.50943 6.40708 34.2622
1108598 4.75724 5.07379 13.4255 11.0789 -1.47812 6.41029 34.3354
1108608 4.75724 5.07379 13.4255 11.0789 -1.47812 6.41029 34.3354
1108618 4.7745 5.07379 13.3939 11.0044 -1.5259 6.3729 34.2466
1108628 4.78314 5.15804 13.4045 10.9765 -1.49547 6.31069 34.3221
1108638 4.78314 5.15804 13.4045 10.9765 -1.49547 6.31069 34.3221
1108648 4.81767 5.13932 13.3414 10.9485 -1.51197 6.27776 34.2469
1108659 4.81767 5.13932 13.3414 10.9485 -1.51197 6.27776 34.2469
1108668 4.75724 5.12996 13.3203 10.9206 -1.48487 6.30876 34.1281
1108679 4.84358 5.10187 13.3834 11.0137 -1.53704 6.31214 34.3426
1108701 4.71407 5.13932 13.3939 10.9951 -1.44092 6.36738 34.2424
1108709 4.75724 5.07379 13.415 10.9858 -1.5429 6.38429 34.2318
1108729 4.79177 5.10187 13.3834 11.0416 -1.48003 6.35138 34.3187
1108739 4.79177 5.10187 13.3834 11.0416 -1.48003 6.35138 34.3187
1108749 4.75724 5.06443 13.3309 11.023 -1.46352 6.37834 34.1755
1108768 4.78314 5.09251 13.3414 11.1068 -1.40224 6.3684 34.3238
1108769 4.78314 5.09251 13.3414 11.1068 -1.40224 6.3684 34.3238
1108779 4.7486 5.0457 13.3414 11.0044 -1.49376 6.39342 34.1401
1108792 4.78314 5.08315 13.3834 11.0416 -1.48856 6.36841 34.2913
1108799 4.78314 5.08315 13.3834 11.0416 -1.48856 6.36841 34.2913
1108813 4.76587 5.10187 13.4045 11.0882 -1.44082 6.38448 34.3604
1108820 4.73134 5.11123 13.3939 11.023 -1.45291 6.38116 34.2595
1108840 4.76587 5.09251 13.3624 11.0323 -1.46224 6.3657 34.2531
1108850 4.76587 5.09251 13.3624 11.0323 -1.46224 6.3657 34.2531
1108860 4.75724 5.07379 13.3098 10.9578 -1.49232 6.35067 34.0987
1108870 4.71407 5.05507 13.2573 10.9858 -1.41898 6.38326 34.0122
1108880 4.71407 5.05507 13.2573 10.9858 -1.41898 6.38326 34.0122
1108890 4.79177 5.11123 13.2678 10.9392 -1.47252 6.29023 34.11
1108900 4.75724 5.12996 13.2993 10.9765 -1.42709 6.31762 34.163
1108912 4.75724 5.12996 13.2993 10.9765 -1.42709 6.31762 34.163
1108921 4.73134 5.14868 13.2152 10.9858 -1.32927 6.30306 34.081
1108932 4.73134 5.14868 13.2152 10.9858 -1.32927 6.30306 34.081
1108942 4.76587 5.11123 13.3519 11.0323 -1.44056 6.35137 34.2613
1108951 4.76587 5.15804 13.2993 10.9765 -1.41134 6.29473 34.1997
1108964 4.76587 5.15804 13.2993 10.9765 -1.41134 6.29473 34.1997
1108972 4.7745 5.18612 13.2678 10.9951 -1.35951 6.2686 34.2235
1108982 4.84358 5.17676 13.2888 11.0044 -1.42162 6.23931 34.3135
1108991 4.84358 5.17676 13.2888 11.0044 -1.42162 6.23931 34.3135
1109001 4.82631 5.24229 13.2152 10.9485 -1.35158 6.17624 34.2323
1109013 4.82631 5.24229 13.2152 10.9485 -1.35158 6.17624 34.2323
1109022 4.82631 5.23293 13.2152 10.9578 -1.35162 6.18443 34.2323
1109032 4.85221 5.20485 13.1626 10.9113 -1.39077 6.16018 34.131
1109054 4.86948 5.26101 13.1626 10.9113 -1.35935 6.11475 34.2044
1109063 4.84358 5.26101 13.2047 10.874 -1.39923 6.132 34.1833
1109083 4.79177 5.27974 13.1416 10.9485 -1.24785 6.15542 34.1617
1109095 4.79177 5.27974 13.1416 10.9485 -1.24785 6.15542 34.1617
1109103 4.83494 5.27037 13.2152 10.9299 -1.35026 6.14874 34.2504
1109116 4.86948 5.27037 13.1311 10.9671 -1.28736 6.11529 34.2381
1109123 4.86948 5.27037 13.1311 10.9671 -1.28736 6.11529 34.2381
1109133 4.86084 5.27974 13.1416 10.8647 -1.3603 6.09093 34.1469
1109143 4.84358 5.31718 13.1521 10.8368 -1.34827 6.07393 34.1497
1109153 4.84358 5.31718 13.1521 10.8368 -1.34827 6.07393 34.1497
1109163 4.87811 5.29846 13.2047 10.9206 -1.35835 6.09969 34.3019
1109174 4.87811 5.29846 13.2047 10.9206 -1.35835 6.09969 34.3019
1109183 4.86084 5.26101 13.2257 10.9113 -1.39692 6.13643 34.2589
1109193 4.88674 5.29846 13.1521 10.9206 -1.32803 6.08072 34.2579
1109203 4.88674 5.29846 13.1521 10.9206 -1.32803 6.08072 34.2579
1109213 4.89538 5.35463 13.1837 10.8647 -1.35553 6.03457 34.2984
1109223 4.82631 5.31718 13.2047 10.8368 -1.3727 6.0983 34.185
1109233 4.82631 5.31718 13.2047 10.8368 -1.3727 6.0983 34.185
1109243 4.87811 5.2891 13.0996 10.7809 -1.40071 6.04151 34.0477
1109254 4.87811 5.2891 13.0996 10.7809 -1.40071 6.04151 34.0477
1109263 4.92128 5.27974 13.0891 10.7065 -1.48849 5.99819 33.9965
1109273 4.91265 5.41079 13.1101 10.7716 -1.34505 5.94572 34.2052
1109284 4.91265 5.41079 13.1101 10.7716 -1.34505 5.94572 34.2052
1109293 4.93855 5.42015 13.1206 10.7623 -1.37016 5.92446 34.2416
1109304 4.93855 5.42015 13.1206 10.7623 -1.37016 5.92446 34.2416
1109313 4.87811 5.3359 13.1732 10.8275 -1.37944 6.04418 34.2147
1109326 4.92991 5.36399 13.1311 10.8554 -1.34305 5.99145 34.2804
1109334 4.92991 5.36399 13.1311 10.8554 -1.34305 5.99145 34.2804
1109344 4.92991 5.37335 13.1206 10.8182 -1.35723 5.97315 34.242
1109354 4.90401 5.37335 13.0891 10.7903 -1.33902 5.97333 34.1567
1109364 4.90401 5.37335 13.0891 10.7903 -1.33902 5.97333 34.1567
1109374 4.92128 5.39207 13.0996 10.7623 -1.36536 5.94665 34.1752
1109384 4.92128 5.39207 13.0996 10.7623 -1.36536 5.94665 34.1752
1109403 4.89538 5.42952 13.047 10.6599 -1.36119 5.89831 34.0318
1109405 4.94718 5.39207 13.0785 10.753 -1.37591 5.92273 34.1708
1109414 4.94718 5.39207 13.0785 10.753 -1.37591 5.92273 34.1708
1109425 4.95582 5.43888 13.047 10.6506 -1.40305 5.85304 34.0923
1109436 4.95582 5.4576 13.1206 10.6972 -1.40344 5.87374 34.2312
1109445 4.95582 5.4576 13.1206 10.6972 -1.40344 5.87374 34.2312
1109455 4.99898 5.48568 13.0785 10.7065 -1.3754 5.82162 34.2697
1109465 4.94718 5.47632 13.1311 10.6692 -1.41184 5.86294 34.2238
1109477 4.94718 5.47632 13.1311 10.6692 -1.41184 5.86294 34.2238
1109485 4.98172 5.46696 13.068 10.6506 -1.41376 5.82573 34.1673
1109505 5.00762 5.50441 13.0155 10.5947 -1.40959 5.75791 34.1222
1109515 4.97308 5.51377 13.0049 10.6227 -1.34957 5.77795 34.1145
1109525 4.97308 5.51377 13.0049 10.6227 -1.34957 5.77795 34.1145
1109536 4.97308 5.52313 13.0049 10.5854 -1.37112 5.76217 34.0866
1109546 4.95582 5.48568 13.0785 10.5947 -1.43188 5.81791 34.1148
1109557 4.95582 5.48568 13.0785 10.5947 -1.43188 5.81791 34.1148
1109566 4.95582 5.49504 13.0891 10.632 -1.40308 5.82504 34.1719
1109586 4.99035 5.53249 13.047 10.6506 -1.35465 5.77495 34.2204
1109597 4.99035 5.54185 12.9839 10.6785 -1.28228 5.75978 34.1947
1109608 4.99035 5.54185 12.9839 10.6785 -1.28228 5.75978 34.1947
1109616 5.04215 5.56057 13.068 10.6506 -1.38326 5.73225 34.3214
1109626 4.98172 5.5793 13.0575 10.6134 -1.34858 5.74458 34.2319
1109638 4.98172 5.5793 13.0575 10.6134 -1.34858 5.74458 34.2319
1109646 4.99035 5.58866 13.0049 10.6506 -1.28236 5.72954 34.2346
1109657 4.99035 5.58866 13.0049 10.6506 -1.28236 5.72954 34.2346
1109668 4.93855 5.51377 13.0049 10.6227 -1.3256 5.799 34.0799
1109677 5.01625 5.56057 13.047 10.6041 -1.38676 5.72964 34.2279
1109689 5.01625 5.56057 13.047 10.6041 -1.38676 5.72964 34.2279
1109697 5.03352 5.5793 12.9629 10.5482 -1.36922 5.66975 34.1239
1109707 5.03352 5.5793 12.9629 10.5482 -1.36922 5.66975 34.1239
1109717 4.98172 5.51377 12.9524 10.6227 -1.31907 5.75845 34.0705
1109727 4.98172 5.56057 13.0049 10.6227 -1.31945 5.74424 34.1699
1109738 4.98172 5.56057 13.0049 10.6227 -1.31945 5.74424 34.1699
1109748 5.00762 5.52313 12.9629 10.6227 -1.33713 5.73984 34.1163
1109758 5.01625 5.56057 13.026 10.6506 -1.3364 5.73655 34.2534
1109768 5.01625 5.56057 13.026 10.6506 -1.3364 5.73655 34.2534
1109778 5.01625 5.55121 13.0996 10.5482 -1.47333 5.73442 34.2152
1109798 4.98172 5.49504 13.068 10.5482 -1.47135 5.78101 34.093
1109808 5.00762 5.50441 13.0891 10.6413 -1.42439 5.79034 34.2424
1109821 5.00762 5.50441 13.0891 10.6413 -1.42439 5.79034 34.2424
1109828 4.95582 5.50441 13.026 10.6413 -1.34502 5.80487 34.1275
1109838 4.96445 5.48568 12.9629 10.5761 -1.37216 5.77635 33.9892
1109849 4.96445 5.48568 12.9629 10.5761 -1.37216 5.77635 33.9892
1109859 4.99035 5.55121 12.9839 10.5854 -1.3468 5.72887 34.1109
1109869 4.99035 5.55121 12.9839 10.5854 -1.3468 5.72887 34.1109
1109879 5.01625 5.49504 13.068 10.6134 -1.44466 5.77759 34.1927
1109890 4.96445 5.4576 13.068 10.6599 -1.40188 5.84447 34.15
1109899 4.96445 5.4576 13.068 10.6599 -1.40188 5.84447 34.15
1109909 4.93855 5.55121 13.1416 10.7437 -1.29836 5.84532 34.3751
1109919 5.02489 5.50441 13.1101 10.6878 -1.41485 5.79801 34.3272
1109931 5.02489 5.50441 13.1101 10.6878 -1.41485 5.79801 34.3272
1109939 4.98172 5.47632 13.0996 10.7065 -1.3852 5.84344 34.2641
1109949 4.98172 5.47632 13.0996 10.7065 -1.3852 5.84344 34.2641
1109959 4.92128 5.42015 13.1101 10.7344 -1.3725 5.92483 34.1859
1109969 4.93855 5.41079 13.0996 10.7437 -1.37721 5.91967 34.1926
1109979 4.93855 5.41079 13.0996 10.7437 -1.37721 5.91967 34.1926
1109989 4.89538 5.41079 13.047 10.7809 -1.28218 5.94205 34.1341
1109999 4.93855 5.35463 13.0365 10.7716 -1.35535 5.94477 34.1013
1110025 4.92128 5.39207 13.1837 10.8461 -1.35891 5.99091 34.3431
1110041 4.92128 5.39207 13.1837 10.8461 -1.35891 5.99091 34.3431
1110048 4.86084 5.3359 13.1837 10.8182 -1.38195 6.05512 34.1986
1110057 4.89538 5.29846 13.1416 10.8182 -1.40568 6.0459 34.1536
1110062 4.89538 5.29846 13.1416 10.8182 -1.40568 6.0459 34.1536
1110070 4.91265 5.31718 13.2152 10.8647 -1.41793 6.05518 34.3098
1110084 4.87811 5.26101 13.2152 10.9206 -1.3944 6.12547 34.2749
1110090 4.87811 5.26101 13.2152 10.9206 -1.3944 6.12547 34.2749
1110100 4.88674 5.34526 13.2152 10.874 -1.37134 6.05627 34.3213
1110110 4.88674 5.34526 13.2152 10.874 -1.37134 6.05627 34.3213
1110120 4.86948 5.26101 13.1521 10.8368 -1.4096 6.09262 34.1194
1110130 4.86948 5.27037 13.1311 10.8182 -1.40223 6.07647 34.0891
1110148 4.86948 5.27037 13.1311 10.8182 -1.40223 6.07647 34.0891
1110162 4.90401 5.34526 13.1942 10.8461 -1.39024 6.03289 34.2896
1110173 4.90401 5.34526 13.1942 10.8461 -1.39024 6.03289 34.2896
1110181 4.87811 5.31718 13.1732 10.7996 -1.41546 6.04839 34.168
1110192 4.87811 5.31718 13.1732 10.7996 -1.41546 6.04839 34.168
1110201 4.86084 5.34526 13.1311 10.8182 -1.33837 6.03558 34.1554
1110214 4.88674 5.34526 13.1942 10.8182 -1.39985 6.03619 34.2444
1110221 4.88674 5.34526 13.1942 10.8182 -1.39985 6.03619 34.2444
1110235 4.90401 5.40143 13.1416 10.7903 -1.35375 5.96999 34.2373
1110241 4.92991 5.38271 13.1311 10.7716 -1.39315 5.9579 34.2154
1110251 4.92991 5.38271 13.1311 10.7716 -1.39315 5.9579 34.2154
1110263 4.89538 5.3359 13.1626 10.7809 -1.42004 6.01859 34.1749
1110271 4.89538 5.3359 13.1626 10.7809 -1.42004 6.01859 34.1749
1110281 4.88674 5.36399 13.1416 10.7158 -1.42826 5.98391 34.1081
1110292 4.92128 5.32654 13.1416 10.6972 -1.49561 5.98078 34.0866
1110303 4.92128 5.32654 13.1416 10.6972 -1.49561 5.98078 34.0866
1110311 4.87811 5.39207 13.1416 10.6972 -1.41496 5.96702 34.109
1110322 4.96445 5.40143 13.2047 10.7344 -1.4818 5.93495 34.305
1110336 4.96445 5.40143 13.2047 10.7344 -1.4818 5.93495 34.305
1110342 4.98172 5.4576 13.2257 10.6878 -1.50061 5.88346 34.3529
1110352 4.98172 5.4576 13.2257 10.6878 -1.50061 5.88346 34.3529
1110363 4.92991 5.41079 13.1732 10.7437 -1.42201 5.94445 34.2576
1110376 4.94718 5.38271 13.1521 10.6599 -1.50599 5.92328 34.1419
1110393 4.97308 5.37335 13.0785 10.632 -1.50211 5.88606 34.057
1110404 4.94718 5.38271 13.1521 10.6227 -1.53493 5.91337 34.1047
1110413 4.94718 5.38271 13.1521 10.6227 -1.53493 5.91337 34.1047
1110423 4.96445 5.42952 13.1206 10.6599 -1.45987 5.87568 34.1745
1110433 4.96445 5.42952 13.1206 10.6599 -1.45987 5.87568 34.1745
1110443 4.97308 5.40143 13.026 10.6413 -1.43671 5.85725 34.0418
1110453 4.93855 5.46696 13.1101 10.6599 -1.4058 5.86582 34.1755
1110464 4.93855 5.46696 13.1101 10.6599 -1.4058 5.86582 34.1755
1110474 4.98172 5.47632 13.1101 10.6134 -1.46433 5.82131 34.1815
1110484 4.93855 5.43888 13.1101 10.6041 -1.47082 5.86804 34.0916
1110494 4.93855 5.43888 13.1101 10.6041 -1.47082 5.86804 34.0916
1110504 5.00762 5.44824 13.1416 10.7158 -1.4464 5.85847 34.3132
1110524 4.99898 5.44824 13.047 10.6692 -1.41125 5.82596 34.1634
1110534 5.00762 5.51377 13.068 10.6692 -1.38116 5.78651 34.2586
1110558 4.99898 5.51377 13.0996 10.6041 -1.44721 5.7827 34.2164
1110568 4.99035 5.49504 13.047 10.6041 -1.41949 5.78516 34.1364
1110588 5.06805 5.50441 12.9629 10.6785 -1.35034 5.72968 34.2139
1110595 5.01625 5.43888 13.0155 10.6692 -1.40863 5.81267 34.1398
1110605 5.01625 5.43888 13.0155 10.6692 -1.40863 5.81267 34.1398
1110623 5.05079 5.55121 13.0155 10.6134 -1.38886 5.70838 34.2308
1110627 5.05079 5.55121 13.0155 10.6134 -1.38886 5.70838 34.2308
1110636 5.01625 5.52313 12.9839 10.5668 -1.40087 5.72513 34.0901
1110648 5.04215 5.53249 12.9419 10.6041 -1.35364 5.7024 34.1206
1110657 5.04215 5.53249 12.9419 10.6041 -1.35364 5.7024 34.1206
1110668 5.01625 5.48568 13.0155 10.6413 -1.39403 5.77664 34.1587
1110677 4.95582 5.44824 13.068 10.5854 -1.46089 5.83546 34.0575
1110688 4.95582 5.44824 13.068 10.5854 -1.46089 5.83546 34.0575
1110696 5.02489 5.40143 13.0996 10.5668 -1.58114 5.82532 34.0927
1110710 5.02489 5.40143 13.0996 10.5668 -1.58114 5.82532 34.0927
1110717 4.97308 5.35463 13.1732 10.5761 -1.62536 5.9079 34.077
1110727 4.98172 5.37335 13.2362 10.5389 -1.68892 5.89803 34.1302
1110738 4.98172 5.37335 13.2362 10.5389 -1.68892 5.89803 34.1302
1110747 5.05942 5.41079 13.2573 10.5296 -1.73419 5.8309 34.2571
1110757 5.01625 5.41079 13.2678 10.6227 -1.63952 5.88479 34.3175
1110767 5.01625 5.41079 13.2678 10.6227 -1.63952 5.88479 34.3175
1110778 5.03352 5.40143 13.2573 10.6041 -1.66586 5.87223 34.2963
1110788 5.03352 5.40143 13.2573 10.6041 -1.66586 5.87223 34.2963
1110798 4.98172 5.44824 13.2047 10.5482 -1.60167 5.84633 34.1828
1110808 5.00762 5.43888 13.1311 10.5575 -1.56902 5.81899 34.1351
1110818 5.00762 5.43888 13.1311 10.5575 -1.56902 5.81899 34.1351
1110828 5.04215 5.42015 13.1416 10.4644 -1.68721 5.78707 34.0683
1110840 5.04215 5.42015 13.1416 10.4644 -1.68721 5.78707 34.0683
1110848 5.08532 5.42015 13.1101 10.5016 -1.66603 5.76231 34.1172
1110858 5.04215 5.49504 13.1416 10.5854 -1.53462 5.77418 34.2643
1110868 5.04215 5.49504 13.1416 10.5854 -1.53462 5.77418 34.2643
1110878 5.04215 5.47632 13.0785 10.5575 -1.52752 5.76098 34.1545
1110888 5.00762 5.48568 13.068 10.5854 -1.46759 5.781 34.1468
1110898 5.00762 5.48568 13.068 10.5854 -1.46759 5.781 34.1468
1110908 5.01625 5.46696 13.0891 10.6227 -1.47366 5.80284 34.1949
1110928 4.98172 5.44824 13.0785 10.6134 -1.46435 5.82996 34.1219
1110938 5.01625 5.51377 13.068 10.6692 -1.3871 5.78128 34.2673
1110948 5.01625 5.51377 13.068 10.6692 -1.3871 5.78128 34.2673
1110958 4.99035 5.51377 13.047 10.6227 -1.39062 5.7788 34.1738
1110968 4.95582 5.54185 12.9419 10.632 -1.26488 5.75679 34.0715
1110979 4.95582 5.54185 12.9419 10.632 -1.26488 5.75679 34.0715
1110989 4.98172 5.52313 13.0785 10.6692 -1.36334 5.79938 34.2526
1110998 4.98172 5.52313 13.0785 10.6692 -1.36334 5.79938 34.2526
1111008 4.98172 5.49504 13.047 10.6599 -1.37036 5.80547 34.1837
1111018 5.01625 5.53249 13.047 10.7158 -1.32244 5.77679 34.3115
1111028 5.01625 5.53249 13.047 10.7158 -1.32244 5.77679 34.3115
1111038 5.00762 5.58866 12.9103 10.7158 -1.1787 5.7111 34.2224
1111048 4.92991 5.51377 12.8998 10.6692 -1.21039 5.78843 34.0127
1111058 4.92991 5.51377 12.8998 10.6692 -1.21039 5.78843 34.0127
1111068 4.92991 5.56057 12.8893 10.6692 -1.16701 5.75701 34.049
1111079 4.92991 5.56057 12.8893 10.6692 -1.16701 5.75701 34.049
1111088 4.95582 5.53249 12.8683 10.6785 -1.18486 5.75516 34.0351
1111098 4.98172 5.50441 12.8998 10.753 -1.18934 5.7852 34.1389
1111108 4.98172 5.50441 12.8998 10.753 -1.18934 5.7852 34.1389
1111118 4.96445 5.51377 12.8262 10.7344 -1.13291 5.76507 34.0388
1111128 4.99898 5.56993 12.8893 10.7065 -1.1795 5.71944 34.1647
1111139 4.99898 5.56993 12.8893 10.7065 -1.1795 5.71944 34.1647
1111149 4.98172 5.56057 12.8683 10.7251 -1.14568 5.73494 34.1356
1111169 4.93855 5.53249 12.8262 10.8089 -1.04337 5.7896 34.1061
1111179 4.96445 5.60738 12.9103 10.7716 -1.09168 5.74103 34.2538
1111189 4.96445 5.60738 12.9103 10.7716 -1.09168 5.74103 34.2538
1111199 4.99035 5.6261 12.8683 10.7158 -1.10872 5.68746 34.2005
1111209 4.99035 5.58866 12.8578 10.753 -1.10153 5.71739 34.1898
1111219 4.99035 5.58866 12.8578 10.753 -1.10153 5.71739 34.1898
1111229 4.97308 5.63546 12.7631 10.7251 -1.00866 5.66608 34.0968
1111239 4.97308 5.63546 12.7631 10.7251 -1.00866 5.66608 34.0968
1111250 4.99035 5.58866 12.7737 10.6972 -1.08532 5.67924 34.0498
1111259 4.99035 5.65418 12.7842 10.7158 -1.0284 5.6475 34.1445
1111273 4.99035 5.65418 12.7842 10.7158 -1.0284 5.6475 34.1445
1111279 5.01625 5.69163 12.8052 10.6413 -1.08956 5.59457 34.1544
1111289 4.93855 5.61674 12.7737 10.7158 -1.01315 5.69874 34.0447
1111299 4.93855 5.61674 12.7737 10.7158 -1.01315 5.69874 34.0447
1111327 4.99898 5.68227 12.8262 10.7623 -1.00717 5.64956 34.2698
1111329 4.99898 5.68227 12.8262 10.7623 -1.00717 5.64956 34.2698
1111330 4.97308 5.59802 12.8683 10.7437 -1.09677 5.72252 34.1831
1111340 4.91265 5.56993 12.8472 10.7065 -1.08964 5.76053 34.0363
1111350 4.91265 5.56993 12.8472 10.7065 -1.08964 5.76053 34.0363
1111360 4.97308 5.60738 12.8788 10.6972 -1.13254 5.70705 34.1564
1111372 4.94718 5.5793 12.9314 10.7065 -1.16553 5.7566 34.1643
1111392 4.97308 5.52313 12.9524 10.6972 -1.24846 5.77817 34.1457
1111403 4.97308 5.52313 12.9524 10.6972 -1.24846 5.77817 34.1457
1111411 4.97308 5.56993 12.9629 10.6785 -1.23412 5.74753 34.1844
1111423 4.95582 5.47632 13.047 10.7251 -1.31666 5.85013 34.2042
1111433 4.95582 5.47632 13.047 10.7251 -1.31666 5.85013 34.2042
1111443 4.99898 5.47632 13.0365 10.6692 -1.38229 5.80603 34.181
1111453 4.92991 5.50441 13.068 10.7251 -1.29169 5.85442 34.2274
1111463 4.92991 5.50441 13.068 10.7251 -1.29169 5.85442 34.2274
1111474 4.94718 5.43888 13.0785 10.7344 -1.35417 5.88915 34.199
1111483 4.94718 5.43888 13.0785 10.7344 -1.35417 5.88915 34.199
1111493 4.90401 5.35463 13.1521 10.7903 -1.39708 6.00147 34.201
1111505 4.93855 5.38271 13.068 10.8275 -1.31249 5.95071 34.2168
1111523 4.86084 5.30782 13.0996 10.7809 -1.37423 6.04061 34.0492
1111534 4.86948 5.39207 13.0785 10.8089 -1.27901 5.98519 34.149
1111544 4.86948 5.39207 13.0785 10.8089 -1.27901 5.98519 34.149
1111554 4.90401 5.34526 13.1206 10.8368 -1.34662 6.01116 34.2067
1111566 4.89538 5.30782 13.1521 10.8089 -1.4129 6.04045 34.1642
1111574 4.89538 5.30782 13.1521 10.8089 -1.4129 6.04045 34.1642
1111586 4.85221 5.2891 13.2257 10.902 -1.37651 6.12203 34.269
1111594 4.85221 5.2891 13.2257 10.902 -1.37651 6.12203 34.269
1111607 4.85221 5.31718 13.2152 10.8927 -1.35482 6.09959 34.2773
1111614 4.82631 5.21421 13.2362 10.9206 -1.40929 6.19185 34.1973
1111627 4.82631 5.21421 13.2362 10.9206 -1.40929 6.19185 34.1973
1111634 4.80904 5.18612 13.3939 10.9206 -1.52746 6.26034 34.3097
1111655 4.80041 5.13932 13.2993 10.8647 -1.53625 6.25634 34.1038
1111665 4.75724 5.19548 13.3834 10.902 -1.49191 6.27926 34.2381
1111685 4.78314 5.15804 13.4045 10.9113 -1.54587 6.29416 34.2569
1111695 4.7745 5.12059 13.3414 10.9392 -1.50405 6.31391 34.1757
1111705 4.7745 5.12059 13.3414 10.9392 -1.50405 6.31391 34.1757
1111716 4.75724 5.19548 13.3414 10.8927 -1.47021 6.26616 34.1868
1111725 4.6968 5.08315 13.3729 10.9951 -1.45799 6.40802 34.1479
1111737 4.6968 5.08315 13.3729 10.9951 -1.45799 6.40802 34.1479
1111749 4.7486 5.08315 13.5096 10.9951 -1.58722 6.40992 34.3364
1111757 4.7486 5.08315 13.5096 10.9951 -1.58722 6.40992 34.3364
1111765 4.79177 5.06443 13.4255 11.0044 -1.56655 6.37591 34.2861
1111775 4.76587 5.13932 13.5622 10.9858 -1.59851 6.37507 34.4531
1111785 4.76587 5.13932 13.5622 10.9858 -1.59851 6.37507 34.4531
1111795 4.80041 5.17676 13.4991 11.0323 -1.51441 6.32635 34.5086
1111805 4.80041 5.17676 13.4991 11.0323 -1.51441 6.32635 34.5086
1111816 4.7486 5.0457 13.436 10.9578 -1.5949 6.40552 34.1881
1111829 4.76587 5.11123 13.4255 10.9206 -1.57753 6.34174 34.2232
1111837 4.76587 5.11123 13.4255 10.9206 -1.57753 6.34174 34.2232
1111850 4.79177 5.0457 13.3519 10.902 -1.61036 6.34313 34.0913
1111857 4.71407 5.05507 13.3834 10.902 -1.57135 6.39398 34.0545
1111866 4.71407 5.05507 13.3834 10.902 -1.57135 6.39398 34.0545
1111876 4.79177 5.1674 13.3098 11.023 -1.39333 6.28732 34.292
1111887 4.79177 5.1674 13.3098 11.023 -1.39333 6.28732 34.292
1111897 4.7745 5.17676 13.3414 10.9765 -1.4318 6.28842 34.2691
1111907 4.73134 5.19548 13.3834 10.9671 -1.42378 6.31192 34.2774
1111918 4.73134 5.19548 13.3834 10.9671 -1.42378 6.31192 34.2774
1111926 4.73134 5.23293 13.3519 10.9671 -1.37323 6.28065 34.2833
1111937 4.7745 5.23293 13.2362 10.9299 -1.35186 6.21476 34.1736
1111946 4.7745 5.23293 13.2362 10.9299 -1.35186 6.21476 34.1736
1111964 4.7486 5.2891 13.1942 10.874 -1.3045 6.17071 34.1059
1111968 4.73997 5.23293 13.1626 10.9206 -1.28398 6.21489 34.0561
1111978 4.73997 5.23293 13.1626 10.9206 -1.28398 6.21489 34.0561
1111988 4.7745 5.23293 13.1732 10.9299 -1.30813 6.19851 34.1105
1111998 4.7745 5.23293 13.1732 10.9299 -1.30813 6.19851 34.1105
1112008 4.82631 5.18612 13.2468 10.902 -1.45265 6.20718 34.1612
1112020 4.7486 5.24229 13.3203 10.9392 -1.37768 6.24897 34.2505
1112038 4.80041 5.22357 13.3414 11.0044 -1.39209 6.25046 34.3697
1112048 4.73134 5.22357 13.2993 10.9578 -1.35132 6.2707 34.2121
1112058 4.73134 5.22357 13.2993 10.9578 -1.35132 6.2707 34.2121
1112068 4.7486 5.23293 13.2678 10.8927 -1.38451 6.22939 34.142
1112078 4.7486 5.23293 13.2678 10.8927 -1.38451 6.22939 34.142
1112088 4.73997 5.25165 13.2573 10.9206 -1.33525 6.22759 34.1695
1112101 4.7227 5.21421 13.2152 10.8647 -1.36622 6.23648 34.0169
1112124 4.7745 5.22357 13.2047 10.9299 -1.33724 6.21246 34.1327
1112130 4.7745 5.22357 13.3098 10.9299 -1.4099 6.23944 34.2378
1112139 4.78314 5.23293 13.3098 10.9578 -1.38711 6.23543 34.2837
1112149 4.7745 5.27037 13.3309 10.9206 -1.39548 6.21345 34.2963
1112159 4.7745 5.27037 13.3309 10.9206 -1.39548 6.21345 34.2963
1112170 4.7486 5.22357 13.2468 11.0044 -1.29108 6.25844 34.2233
1112180 4.80904 5.22357 13.2678 11.0137 -1.34024 6.22872 34.3141
1112190 4.80904 5.22357 13.2678 11.0137 -1.34024 6.22872 34.3141
1112199 4.79177 5.32654 13.2152 10.9858 -1.2345 6.15514 34.3193
1112220 4.79177 5.18612 13.1732 10.9671 -1.32749 6.22647 34.1182
1112233 4.78314 5.19548 13.2362 10.9765 -1.35081 6.2446 34.1913
1112240 4.78314 5.19548 13.2362 10.9765 -1.35081 6.2446 34.1913
1112252 4.7745 5.18612 13.1626 10.9951 -1.28667 6.2417 34.1183
1112260 4.81767 5.21421 13.2468 11.0509 -1.31031 6.23331 34.3296
1112280 4.80904 5.22357 13.3203 11.0789 -1.3265 6.25872 34.4318
1112290 4.73134 5.15804 13.3098 11.0509 -1.33736 6.33781 34.2501
1112300 4.73134 5.15804 13.3098 11.0509 -1.33736 6.33781 34.2501
1112310 4.73134 5.11123 13.2573 11.0509 -1.33704 6.35372 34.1508
1112320 4.73134 5.11123 13.2573 11.0509 -1.33704 6.35372 34.1508
1112330 4.71407 5.11123 13.2783 11.0696 -1.32529 6.37454 34.1731
1112342 4.7486 5.12996 13.3519 11.0509 -1.39989 6.35517 34.2814
1112352 4.7486 5.12996 13.3519 11.0509 -1.39989 6.35517 34.2814
1112362 4.75724 5.13932 13.2993 11.0696 -1.34807 6.33539 34.2654
1112372 4.71407 5.10187 13.3309 10.9765 -1.44081 6.37016 34.1233
1112382 4.71407 5.10187 13.3309 10.9765 -1.44081 6.37016 34.1233
1112391 4.79177 5.1674 13.2888 11.1068 -1.31451 6.30324 34.3548
1112401 4.79177 5.1674 13.2888 11.1068 -1.31451 6.30324 34.3548
1112412 4.7227 5.12996 13.3309 11.0509 -1.36754 6.36601 34.2344
1112422 4.71407 5.14868 13.3834 11.0696 -1.3691 6.37764 34.3157
1112442 4.78314 5.11123 13.4045 11.1347 -1.4097 6.37959 34.4335
1112453 4.70543 5.10187 13.4045 11.0044 -1.46395 6.40116 34.2161
1112473 4.7227 5.10187 13.415 11.0044 -1.48304 6.39301 34.2439
1112485 4.7227 5.10187 13.415 11.0044 -1.48304 6.39301 34.2439
1112493 4.73134 5.08315 13.3729 11.0137 -1.46736 6.39108 34.2011
1112504 4.71407 5.10187 13.4045 11.0137 -1.4627 6.3981 34.2341
1112513 4.71407 5.10187 13.4045 11.0137 -1.4627 6.3981 34.2341
1112526 4.75724 5.06443 13.4045 11.0416 -1.49969 6.40154 34.2677
1112533 4.68817 5.01762 13.4675 11.0882 -1.49578 6.50143 34.2615
1112543 4.68817 5.01762 13.4675 11.0882 -1.49578 6.50143 34.2615
1112554 4.65363 4.9989 13.4886 11.1254 -1.4722 6.5493 34.2665
1112564 4.65363 4.9989 13.4886 11.1254 -1.4722 6.5493 34.2665
1112574 4.66227 5.0457 13.457 11.0044 -1.51393 6.4766 34.1694
1112583 4.6968 5.10187 13.478 11.0044 -1.50855 6.42501 34.2811
1112603 4.6968 5.10187 13.478 11.0044 -1.50855 6.42501 34.2811
1112605 4.7227 5.09251 13.478 11.023 -1.51913 6.41933 34.3163
1112614 4.75724 5.14868 13.4255 10.8927 -1.56423 6.31671 34.2241
1112635 4.76587 5.1674 13.4255 10.902 -1.5484 6.30205 34.2607
1112644 4.76587 5.1674 13.4255 10.902 -1.5484 6.30205 34.2607
1112655 4.7745 5.08315 13.3834 10.8275 -1.64909 6.31958 34.0686
1112665 4.79177 5.1674 13.3939 10.8275 -1.60238 6.25893 34.1806
1112676 4.79177 5.1674 13.3939 10.8275 -1.60238 6.25893 34.1806
1112685 4.80041 5.25165 13.3309 10.8275 -1.49963 6.18509 34.2104
1112699 4.78314 5.23293 13.3309 10.8089 -1.51672 6.20261 34.1558
1112705 4.78314 5.23293 13.3309 10.8089 -1.51672 6.20261 34.1558
1112715 4.86084 5.25165 13.3729 10.7809 -1.60592 6.14657 34.2663
1112739 4.80904 5.23293 13.3729 10.8647 -1.52006 6.21171 34.2796
1112745 4.85221 5.23293 13.3834 10.8368 -1.5784 6.18056 34.3054
1112755 4.85221 5.23293 13.3834 10.8368 -1.5784 6.18056 34.3054
1112767 4.86084 5.25165 13.3729 10.7716 -1.61315 6.14416 34.257
1112781 4.83494 5.20485 13.3519 10.8089 -1.58851 6.19331 34.2005
1112787 4.83494 5.20485 13.3519 10.8089 -1.58851 6.19331 34.2005
1112796 4.83494 5.22357 13.478 10.8461 -1.63113 6.22362 34.3827
1112817 4.81767 5.18612 13.3309 10.7809 -1.59858 6.20303 34.1156
1112826 4.86084 5.18612 13.3414 10.8834 -1.55576 6.20531 34.2717
1112837 4.86084 5.18612 13.3414 10.8834 -1.55576 6.20531 34.2717
1112846 4.81767 5.19548 13.3203 10.8368 -1.54062 6.2089 34.1703
1112857 4.82631 5.26101 13.3414 10.9765 -1.40256 6.20423 34.4051
1112869 4.82631 5.26101 13.3414 10.9765 -1.40256 6.20423 34.4051
1112877 4.83494 5.26101 13.3729 10.9206 -1.47302 6.19269 34.3895
1112898 4.81767 5.23293 13.3414 10.8368 -1.52599 6.19109 34.2288
1112908 4.81767 5.21421 13.3414 10.8182 -1.55496 6.1979 34.1914
1112918 4.81767 5.21421 13.3414 10.8182 -1.55496 6.1979 34.1914
1112928 4.84358 5.26101 13.2573 10.7809 -1.50756 6.12148 34.1428
1112938 4.82631 5.24229 13.2362 10.7344 -1.53196 6.12618 34.0392
1112950 4.82631 5.24229 13.2362 10.7344 -1.53196 6.12618 34.0392
1112958 4.92128 5.2891 13.2573 10.7809 -1.53912 6.05623 34.2486
1112968 4.92128 5.2891 13.2573 10.7809 -1.53912 6.05623 34.2486
1112979 4.84358 5.20485 13.3519 10.753 -1.63791 6.17355 34.1533
1112989 4.87811 5.27037 13.2468 10.8182 -1.48795 6.10131 34.2134
1112999 4.87811 5.27037 13.2468 10.8182 -1.48795 6.10131 34.2134
1113009 4.86084 5.25165 13.2362 10.7344 -1.54845 6.09897 34.0831
1113019 4.92991 5.36399 13.2047 10.753 -1.47264 5.98387 34.2516
1113039 4.96445 5.3359 13.2257 10.7809 -1.51087 5.99279 34.307
1113049 4.88674 5.36399 13.2678 10.7623 -1.47912 6.02933 34.2808
1113059 4.88674 5.36399 13.2678 10.7623 -1.47912 6.02933 34.2808
1113070 4.92991 5.36399 13.2678 10.7344 -1.53029 5.99556 34.2961
1113082 4.92991 5.36399 13.2678 10.7344 -1.53029 5.99556 34.2961
1113090 4.92991 5.36399 13.2573 10.6878 -1.55915 5.98055 34.239
1113100 4.93855 5.35463 13.1837 10.7344 -1.48577 5.97387 34.2112
1113110 4.93855 5.35463 13.1837 10.7344 -1.48577 5.97387 34.2112
1113120 4.97308 5.36399 13.1626 10.6878 -1.52387 5.92909 34.1876
1113130 4.97308 5.3359 13.1521 10.6134 -1.59647 5.92372 34.0745
1113140 4.97308 5.3359 13.1521 10.6134 -1.59647 5.92372 34.0745
1113152 4.94718 5.38271 13.1206 10.6413 -1.49873 5.90993 34.0918
1113162 4.94718 5.38271 13.1206 10.6413 -1.49873 5.90993 34.0918
1113171 4.93855 5.36399 13.1521 10.5482 -1.6017 5.91029 34.0029
1113182 5.00762 5.41079 13.1732 10.6041 -1.58349 5.85987 34.1956
1113192 5.00762 5.41079 13.1732 10.6041 -1.58349 5.85987 34.1956
1113202 5.00762 5.42952 13.1206 10.6134 -1.52566 5.83687 34.1711
1113212 4.99035 5.41079 13.0996 10.6506 -1.48495 5.86318 34.1513
1113222 4.99035 5.41079 13.0996 10.6506 -1.48495 5.86318 34.1513
1113231 5.00762 5.52313 13.0996 10.6413 -1.41718 5.7818 34.2716
1113251 5.00762 5.52313 13.0996 10.6413 -1.41718 5.7818 34.2716
1113253 5.00762 5.41079 13.0575 10.6041 -1.50403 5.82886 34.08
1113265 4.99898 5.41079 13.0996 10.5947 -1.53429 5.84293 34.1041
1113273 4.99898 5.41079 13.0996 10.5947 -1.53429 5.84293 34.1041
1113285 5.03352 5.56993 13.0155 10.5296 -1.4272 5.68469 34.1485
1113293 5.08532 5.52313 13.0891 10.5575 -1.52806 5.70929 34.255
1113306 5.08532 5.52313 13.0891 10.5575 -1.52806 5.70929 34.255
1113313 5.06805 5.56993 12.9944 10.5575 -1.41493 5.66568 34.1899
1113327 5.06805 5.56993 12.9944 10.5575 -1.41493 5.66568 34.1899
1113334 5.03352 5.53249 12.9734 10.5575 -1.4055 5.70355 34.0969
1113343 5.11122 5.55121 12.9944 10.5761 -1.44475 5.656 34.233
1113354 5.11122 5.55121 12.9944 10.5761 -1.44475 5.656 34.233
1113368 5.03352 5.49504 13.0049 10.5203 -1.48527 5.72476 34.0538
1113373 5.05942 5.56057 13.0365 10.5575 -1.44519 5.68802 34.214
1113393 5.05079 5.52313 13.0575 10.5482 -1.48991 5.71911 34.1796
1113403 5.05079 5.52313 13.0575 10.5482 -1.48991 5.71911 34.1796
1113413 5.02489 5.51377 13.0575 10.5482 -1.47934 5.7405 34.1444
1113423 5.01625 5.59802 13.0996 10.5016 -1.47313 5.69345 34.2155
1113434 5.01625 5.59802 13.0996 10.5016 -1.47313 5.69345 34.2155
1113444 5.05942 5.59802 13.0365 10.5389 -1.43065 5.66033 34.2328
1113453 5.04215 5.48568 13.0365 10.5296 -1.51302 5.73632 34.0939
1113464 5.04215 5.48568 13.0365 10.5296 -1.51302 5.73632 34.0939
1113474 5.04215 5.52313 13.0365 10.511 -1.49838 5.7085 34.1127
1113483 5.04215 5.52313 13.0365 10.511 -1.49838 5.7085 34.1127
1113493 4.99898 5.44824 13.0785 10.511 -1.55592 5.7918 34.0367
1113504 5.06805 5.52313 13.0365 10.6041 -1.4441 5.7181 34.2317
1113514 5.06805 5.52313 13.0365 10.6041 -1.4441 5.7181 34.2317
1113524 5.05942 5.51377 13.0575 10.5854 -1.47426 5.72965 34.2161
1113534 4.95582 5.47632 12.9944 10.5947 -1.38089 5.80094 34.0213
1113554 5.00762 5.46696 13.0365 10.5947 -1.45313 5.7864 34.1058
1113566 5.00762 5.46696 13.0365 10.5947 -1.45313 5.7864 34.1058
1113574 4.96445 5.44824 13.1101 10.6972 -1.40937 5.87138 34.2199
1113585 4.95582 5.39207 13.0891 10.7344 -1.40352 5.91529 34.1713
1113594 4.95582 5.39207 13.0891 10.7344 -1.40352 5.91529 34.1713
1113607 4.98172 5.42952 13.1521 10.7065 -1.45746 5.88595 34.2698
1113614 4.98172 5.42952 13.1101 10.7065 -1.42853 5.87475 34.2278
1113624 4.95582 5.39207 13.1101 10.7903 -1.37494 5.93569 34.2482
1113634 4.88674 5.35463 13.1416 10.753 -1.40667 5.9995 34.136
1113644 4.88674 5.35463 13.1416 10.753 -1.40667 5.9995 34.136
1113654 4.92991 5.32654 13.1942 10.7437 -1.5016 6.00162 34.1943
1113664 4.92991 5.36399 13.1626 10.7996 -1.40779 5.98505 34.2561
1113675 4.92991 5.36399 13.1626 10.7996 -1.40779 5.98505 34.2561
1113685 4.97308 5.38271 13.1837 10.8182 -1.42317 5.95765 34.3577
1113695 4.97308 5.38271 13.1837 10.8182 -1.42317 5.95765 34.3577
1113704 4.88674 5.27037 13.2468 10.8089 -1.50109 6.09357 34.2127
1113714 4.84358 5.23293 13.2678 10.8461 -1.48603 6.15848 34.1904
1113724 4.84358 5.23293 13.2678 10.8461 -1.48603 6.15848 34.1904
1113734 4.86084 5.27974 13.2573 10.8647 -1.44009 6.121 34.2626
1113744 4.83494 5.21421 13.2888 10.9299 -1.44424 6.20241 34.2679
1113754 4.83494 5.21421 13.2888 10.9299 -1.44424 6.20241 34.2679
1113764 4.86084 5.22357 13.3834 10.8554 -1.57712 6.18579 34.3233
1113775 4.86084 5.22357 13.3834 10.8554 -1.57712 6.18579 34.3233
1113785 4.7745 5.12996 13.3203 10.874 -1.53294 6.2861 34.0989
1113795 4.83494 5.1674 13.3203 10.8647 -1.55258 6.22279 34.1874
1113816 4.81767 5.09251 13.2888 10.874 -1.5701 6.27446 34.073
1113824 4.75724 5.12059 13.2678 10.7809 -1.56476 6.2654 33.9266
1113837 4.75724 5.12059 13.2678 10.7809 -1.56476 6.2654 33.9266
1113845 4.86948 5.19548 13.3098 10.8647 -1.54725 6.18128 34.2395
1113855 4.86948 5.19548 13.3098 10.8647 -1.54725 6.18128 34.2395
1113864 4.71407 5.19548 13.3309 10.7996 -1.5055 6.26655 34.04
1113884 4.7745 5.14868 13.3834 10.9299 -1.51837 6.30474 34.2365
1113888 4.7745 5.14868 13.3834 10.9299 -1.51837 6.30474 34.2365
1113894 4.78314 5.17676 13.3098 10.9485 -1.4376 6.26791 34.2183
1113904 4.78314 5.17676 13.3098 10.9485 -1.4376 6.26791 34.2183
1113914 4.7745 5.18612 13.4255 10.9765 -1.48229 6.30394 34.3626
1113924 4.75724 5.14868 13.3834 10.9765 -1.47051 6.32728 34.2658
1113934 4.75724 5.14868 13.3834 10.9765 -1.47051 6.32728 34.2658
1113944 4.80904 5.14868 13.415 10.9206 -1.57081 6.28892 34.2933
1113955 4.73997 5.14868 13.3729 10.9206 -1.49465 6.32122 34.1822
1113964 4.73997 5.14868 13.3729 10.9206 -1.49465 6.32122 34.1822
1113974 4.73134 5.0457 13.3729 10.9299 -1.56151 6.39342 34.0799
1113985 4.73134 5.0457 13.3729 10.9299 -1.56151 6.39342 34.0799
1113994 4.71407 5.09251 13.3834 10.902 -1.54216 6.37048 34.092
1114007 4.7486 5.12996 13.4255 10.9206 -1.55118 6.34083 34.2246
1114030 4.76587 5.09251 13.3939 10.9113 -1.57772 6.34308 34.1636
1114035 4.73997 5.12059 13.3834 10.9299 -1.51643 6.34378 34.1739
1114044 4.73997 5.12059 13.3834 10.9299 -1.51643 6.34378 34.1739
1114054 4.73997 5.14868 13.457 10.9951 -1.49475 6.3613 34.3407
1114064 4.73997 5.14868 13.457 10.9951 -1.49475 6.3613 34.3407
1114075 4.6968 5.09251 13.4886 10.9113 -1.59522 6.41016 34.1892
1114084 4.73997 5.11123 13.4465 10.8647 -1.61765 6.34909 34.1624
1114105 4.78314 5.11123 13.4255 10.874 -1.62554 6.31918 34.1939
1114115 4.7745 5.09251 13.5096 10.8461 -1.71339 6.35047 34.2227
1114135 4.79177 5.15804 13.5096 10.8461 -1.67408 6.29894 34.3055
1114145 4.79177 5.15804 13.5096 10.8461 -1.67408 6.29894 34.3055
1114155 4.75724 5.05507 13.5411 10.7903 -1.79612 6.37852 34.1437
1114165 4.81767 5.15804 13.5411 10.8368 -1.72031 6.28851 34.3536
1114177 4.81767 5.15804 13.5411 10.8368 -1.72031 6.28851 34.3536
1114185 4.7745 5.14868 13.5411 10.874 -1.66935 6.33052 34.3384
1114198 4.7745 5.14868 13.5411 10.874 -1.66935 6.33052 34.3384
1114205 4.7486 5.1674 13.5411 10.7623 -1.72417 6.3067 34.2195
1114215 4.81767 5.14868 13.5306 10.8089 -1.74222 6.28456 34.3058
1114225 4.81767 5.14868 13.5306 10.8089 -1.74222 6.28456 34.3058
1114240 4.79177 5.08315 13.5411 10.7996 -1.79025 6.34174 34.2156
1114247 4.7486 5.11123 13.5096 10.7809 -1.73206 6.33845 34.1504
1114257 4.7486 5.11123 13.5096 10.7809 -1.73206 6.33845 34.1504
1114267 4.83494 5.08315 13.5516 10.8089 -1.81933 6.31987 34.2786
1114277 4.7745 5.03634 13.6568 10.8368 -1.86429 6.42019 34.3044
1114287 4.7745 5.03634 13.6568 10.8368 -1.86429 6.42019 34.3044
1114297 4.79177 5.03634 13.6673 10.8182 -1.8976 6.40738 34.3136
1114306 4.79177 5.03634 13.6673 10.8182 -1.8976 6.40738 34.3136
1114317 4.79177 5.01762 13.6778 10.8461 -1.89746 6.42868 34.3333
1114328 4.7745 5.03634 13.7093 10.8647 -1.87783 6.44028 34.3849
1114339 4.7745 5.03634 13.7093 10.8647 -1.87783 6.44028 34.3849
1114349 4.78314 5.06443 13.6988 10.7996 -1.90559 6.39849 34.346
1114358 4.73997 5.0457 13.6988 10.8554 -1.84746 6.45105 34.3399
1114372 4.73997 5.0457 13.6988 10.8554 -1.84746 6.45105 34.3399
1114378 4.73134 5.03634 13.6988 10.7996 -1.89273 6.44838 34.2661
1114388 4.73134 5.03634 13.6988 10.7996 -1.89273 6.44838 34.2661
1114398 4.73134 4.97082 13.5201 10.7996 -1.82314 6.44477 34.0218
1114408 4.75724 4.98954 13.6463 10.8089 -1.9042 6.45068 34.2019
1114428 4.73134 5.05507 13.6463 10.9113 -1.75522 6.45142 34.3439
1114439 4.6968 5.01762 13.7724 10.8647 -1.88264 6.51618 34.3516
1114450 4.6968 5.01762 13.7724 10.8647 -1.88264 6.51618 34.3516
1114459 4.73134 4.98954 13.7514 10.8554 -1.92102 6.50464 34.3277
1114469 4.73134 4.98954 13.7514 10.8554 -1.92102 6.50464 34.3277
1114482 4.68817 4.97082 13.6988 10.9485 -1.79825 6.55347 34.3063
1114490 4.7486 4.98018 13.6988 10.9578 -1.82448 6.512 34.3854
1114506 4.7486 4.98018 13.6988 10.9578 -1.82448 6.512 34.3854
1114514 4.73134 5.02698 13.6568 10.9113 -1.78423 6.47159 34.3264
1114523 4.7227 4.97082 13.5727 10.902 -1.77254 6.48899 34.1682
1114529 4.7227 4.97082 13.5727 10.902 -1.77254 6.48899 34.1682
1114539 4.7227 4.90529 13.6463 10.8554 -1.91055 6.53699 34.1297
1114551 4.7227 4.90529 13.6463 10.8554 -1.91055 6.53699 34.1297
1114559 4.67953 4.93337 13.6042 10.8834 -1.80864 6.54301 34.1005
1114574 4.7486 4.95209 13.6778 10.9113 -1.86865 6.5129 34.2898
1114590 4.73134 4.97082 13.6778 10.8927 -1.85692 6.50737 34.2726
1114600 4.6709 4.98954 13.6988 10.9299 -1.78649 6.54797 34.2892
1114610 4.6709 4.98954 13.6988 10.9299 -1.78649 6.54797 34.2892
1114620 4.7227 5.05507 13.6988 10.9485 -1.75594 6.4791 34.4251
1114630 4.7227 5.05507 13.6988 10.9485 -1.75594 6.4791 34.4251
1114640 4.7227 4.98954 13.6042 10.874 -1.80118 6.47812 34.1905
1114650 4.75724 4.98954 13.6463 10.8834 -1.84574 6.46925 34.2764
1114660 4.75724 4.98954 13.6463 10.8834 -1.84574 6.46925 34.2764
1114670 4.73997 5.03634 13.5727 10.8834 -1.74757 6.43239 34.2323
1114682 4.7227 5.06443 13.6357 10.8647 -1.77126 6.43673 34.2876
1114702 4.7486 5.08315 13.6988 10.9671 -1.73717 6.45009 34.4977
1114712 4.7486 5.08315 13.6988 10.9671 -1.73717 6.45009 34.4977
1114726 4.6968 5.00826 13.6357 10.9206 -1.75394 6.50204 34.2614
1114731 4.7486 5.00826 13.6568 10.9578 -1.77421 6.48404 34.3715
1114741 4.7486 5.00826 13.6568 10.9578 -1.77421 6.48404 34.3715
1114751 4.73134 5.05507 13.6147 10.8927 -1.74837 6.43891 34.2938
1114762 4.67953 4.97082 13.5937 10.9858 -1.69198 6.54215 34.2298
1114771 4.67953 4.97082 13.5937 10.9858 -1.69198 6.54215 34.2298
1114782 4.7227 5.06443 13.5306 10.9578 -1.62729 6.43373 34.2756
1114792 4.7227 5.06443 13.5306 10.9578 -1.62729 6.43373 34.2756
1114802 4.70543 5.05507 13.6042 10.8368 -1.7673 6.43853 34.2015
1114812 4.68817 5.07379 13.5411 10.874 -1.66885 6.43115 34.1771
1114822 4.68817 5.07379 13.5411 10.874 -1.66885 6.43115 34.1771
1114833 4.75724 5.12996 13.5832 10.8834 -1.69349 6.36583 34.3537
1114841 4.76587 5.11123 13.5622 10.874 -1.70688 6.36448 34.3133
1114854 4.76587 5.11123 13.5622 10.874 -1.70688 6.36448 34.3133
1114863 4.78314 5.1674 13.5411 10.7903 -1.72585 6.29231 34.2819
1114876 4.78314 5.1674 13.5411 10.7903 -1.72585 6.29231 34.2819
1114883 4.7486 5.18612 13.5411 10.7903 -1.68779 6.30214 34.2661
1114893 4.80904 5.15804 13.5516 10.7716 -1.77237 6.27998 34.2904
1114901 4.80904 5.15804 13.5516 10.7716 -1.77237 6.27998 34.2904
1114912 4.80041 5.24229 13.5096 10.7437 -1.69408 6.21527 34.296
1114924 4.7745 5.19548 13.5201 10.7437 -1.7201 6.26303 34.2338
1114932 4.7745 5.19548 13.5201 10.7437 -1.7201 6.26303 34.2338
1114944 4.80041 5.22357 13.5201 10.7437 -1.7158 6.22955 34.2878
1114951 4.80041 5.22357 13.5201 10.7437 -1.7158 6.22955 34.2878
1114965 4.79177 5.25165 13.4991 10.7065 -1.70278 6.20257 34.249
1114973 4.82631 5.25165 13.457 10.7344 -1.6759 6.17758 34.2694
1114988 4.82631 5.25165 13.457 10.7344 -1.6759 6.17758 34.2694
1114993 4.82631 5.27037 13.457 10.7065 -1.68307 6.15881 34.2602
1115003 4.82631 5.27037 13.457 10.7065 -1.68307 6.15881 34.2602
1115014 4.81767 5.27974 13.415 10.7158 -1.63399 6.1499 34.2281
1115023 4.87811 5.25165 13.478 10.7716 -1.69641 6.16062 34.3794
1115033 4.87811 5.25165 13.478 10.7716 -1.69641 6.16062 34.3794
1115043 4.87811 5.30782 13.436 10.6506 -1.71834 6.08388 34.2725
1115054 4.82631 5.25165 13.3519 10.7344 -1.60413 6.15043 34.1642
1115064 4.82631 5.25165 13.3519 10.7344 -1.60413 6.15043 34.1642
1115076 4.82631 5.32654 13.4045 10.6878 -1.61802 6.10573 34.2451
1115098 4.80041 5.2891 13.3834 10.6972 -1.60783 6.14181 34.1701
1115104 4.82631 5.25165 13.457 10.7437 -1.66865 6.17998 34.2787
1115113 4.82631 5.25165 13.457 10.7437 -1.66865 6.17998 34.2787
1115124 4.80904 5.21421 13.4045 10.8368 -1.57779 6.22423 34.2645
1115134 4.86948 5.24229 13.415 10.7623 -1.66221 6.15307 34.2891
1115168 4.86948 5.24229 13.415 10.7623 -1.66221 6.15307 34.2891
1115174 4.87811 5.26101 13.3414 10.7065 -1.64683 6.10264 34.187
1115175 4.87811 5.26101 13.3414 10.7065 -1.64683 6.10264 34.187
1115184 4.85221 5.27974 13.4045 10.6692 -1.68664 6.11379 34.2056
1115196 4.85221 5.27974 13.4045 10.6692 -1.68664 6.11379 34.2056
1115204 4.81767 5.27974 13.4255 10.7065 -1.64841 6.15022 34.2294
1115219 4.83494 5.24229 13.457 10.6041 -1.79096 6.14435 34.1383
1115224 4.83494 5.24229 13.457 10.6041 -1.79096 6.14435 34.1383
1115234 4.86948 5.34526 13.415 10.6972 -1.63285 6.07281 34.3269
1115244 4.86948 5.34526 13.415 10.6972 -1.63285 6.07281 34.3269
1115254 4.80041 5.25165 13.3729 10.7158 -1.61529 6.1671 34.1407
1115265 4.83494 5.27037 13.4255 10.7344 -1.64573 6.15255 34.2652
1115275 4.83494 5.27037 13.4255 10.7344 -1.64573 6.15255 34.2652
1115286 4.86084 5.27974 13.3939 10.6785 -1.6781 6.10815 34.2131
1115295 4.80904 5.27974 13.3519 10.7065 -1.59218 6.13649 34.1471
1115309 4.80904 5.27974 13.3519 10.7065 -1.59218 6.13649 34.1471
1115315 4.86084 5.3359 13.3624 10.7065 -1.59116 6.07261 34.2656
1115325 4.86084 5.3359 13.3624 10.7065 -1.59116 6.07261 34.2656
1115335 4.88674 5.29846 13.3624 10.6878 -1.65241 6.07486 34.2354
1115345 4.86084 5.34526 13.3309 10.6599 -1.59848 6.04646 34.1969
1115365 4.88674 5.38271 13.2257 10.6878 -1.49337 5.98724 34.183
1115376 4.89538 5.3359 13.1942 10.632 -1.55742 5.98763 34.0574
1115385 4.89538 5.3359 13.1942 10.632 -1.55742 5.98763 34.0574
1115399 4.91265 5.42952 13.1626 10.632 -1.4748 5.91113 34.1368
1115405 4.91265 5.42952 13.1626 10.632 -1.4748 5.91113 34.1368
1115415 4.92128 5.42952 13.2152 10.632 -1.5169 5.91982 34.198
1115425 4.97308 5.38271 13.2257 10.6227 -1.60319 5.91709 34.2042
1115435 4.97308 5.38271 13.2257 10.6227 -1.60319 5.91709 34.2042
1115445 4.92991 5.42015 13.1732 10.6227 -1.50842 5.90661 34.1459
1115455 4.94718 5.46696 13.2152 10.6599 -1.48408 5.88857 34.2893
1115475 4.95582 5.44824 13.2047 10.5296 -1.59843 5.85715 34.1383
1115489 4.95582 5.44824 13.2047 10.5296 -1.59843 5.85715 34.1383
1115495 4.96445 5.54185 13.1206 10.5854 -1.43059 5.78727 34.2123
1115505 4.95582 5.53249 13.1101 10.5668 -1.43904 5.79036 34.1652
1115525 4.99035 5.49504 13.1416 10.5482 -1.52796 5.79561 34.1752
1115535 4.98172 5.5793 13.1206 10.5203 -1.46392 5.73646 34.2019
1115545 4.98172 5.5793 13.1206 10.5203 -1.46392 5.73646 34.2019
1115557 4.94718 5.60738 13.0575 10.5668 -1.33892 5.7359 34.1789
1115565 4.94718 5.60738 13.0575 10.5668 -1.33892 5.7359 34.1789
1115578 5.02489 5.58866 13.1101 10.5761 -1.43601 5.71695 34.2997
1115585 4.99035 5.52313 13.0891 10.5947 -1.43398 5.77692 34.1973
1115595 4.99035 5.52313 13.0891 10.5947 -1.43398 5.77692 34.1973
1115607 4.99898 5.56993 13.047 10.5296 -1.42514 5.71422 34.1455
1115616 4.99898 5.56993 13.047 10.5296 -1.42514 5.71422 34.1455
1115627 5.02489 5.48568 13.0785 10.4923 -1.55907 5.74813 34.0814
1115636 4.97308 5.52313 13.0785 10.5668 -1.43643 5.77704 34.1416
1115647 4.97308 5.52313 13.0785 10.5668 -1.43643 5.77704 34.1416
1115658 4.99898 5.51377 13.0575 10.6041 -1.41823 5.77136 34.1743
1115666 5.01625 5.51377 13.1206 10.5016 -1.55293 5.75023 34.1523
1115687 5.00762 5.5793 13.1521 10.5482 -1.48179 5.73686 34.2872
1115707 4.95582 5.56993 13.0575 10.5016 -1.4242 5.73571 34.0849
1115717 4.99035 5.53249 13.0996 10.5854 -1.44119 5.77156 34.2078
1115737 4.96445 5.49504 13.0996 10.5389 -1.48843 5.79754 34.0979
1115747 4.96445 5.49504 13.1521 10.5761 -1.49572 5.82172 34.1878
1115757 4.96445 5.49504 13.1521 10.5761 -1.49572 5.82172 34.1878
1115769 5.02489 5.52313 13.1732 10.5854 -1.52266 5.77611 34.3066
1115777 5.02489 5.52313 13.1732 10.5854 -1.52266 5.77611 34.3066
1115805 4.98172 5.44824 13.1626 10.5947 -1.53667 5.84753 34.1873
1115811 5.06805 5.50441 13.2047 10.6227 -1.55937 5.77979 34.3998
1115818 5.03352 5.50441 13.2047 10.5854 -1.5646 5.79069 34.3281
1115832 4.97308 5.47632 13.1416 10.5668 -1.51617 5.82254 34.1578
1115839 4.97308 5.47632 13.1416 10.5668 -1.51617 5.82254 34.1578
1115849 4.95582 5.42952 13.1521 10.5575 -1.55516 5.862 34.095
1115859 4.96445 5.42952 13.1942 10.5203 -1.619 5.85801 34.1084
1115869 4.96445 5.43888 13.1942 10.5203 -1.61169 5.85228 34.1178
1115879 4.97308 5.41079 13.2047 10.632 -1.55974 5.89681 34.2206
1115889 4.97308 5.41079 13.2047 10.632 -1.55974 5.89681 34.2206
1115898 4.92128 5.42952 13.1942 10.5854 -1.5386 5.90184 34.1304
1115908 4.93855 5.46696 13.2573 10.5854 -1.56462 5.88521 34.2482
1115918 4.93855 5.46696 13.2573 10.5854 -1.56462 5.88521 34.2482
1115928 4.97308 5.42015 13.3519 10.6041 -1.67454 5.92272 34.3492
1115949 4.95582 5.39207 13.2152 10.5947 -1.59862 5.91171 34.1578
1115961 4.98172 5.42952 13.3309 10.6692 -1.60837 5.92342 34.4113
1115969 4.98172 5.42952 13.3309 10.6692 -1.60837 5.92342 34.4113
1115981 4.99898 5.40143 13.2678 10.632 -1.6278 5.90347 34.3002
1115989 4.96445 5.42015 13.2362 10.5947 -1.59708 5.89485 34.2156
1116002 4.96445 5.42015 13.2362 10.5947 -1.59708 5.89485 34.2156
1116008 4.96445 5.40143 13.2573 10.5575 -1.65502 5.90198 34.1806
1116018 4.96445 5.40143 13.2573 10.5575 -1.65502 5.90198 34.1806
1116028 4.94718 5.40143 13.2783 10.5575 -1.65758 5.91813 34.1844
1116038 4.99035 5.37335 13.2468 10.6134 -1.64388 5.91536 34.2238
1116049 4.99035 5.37335 13.2468 10.6134 -1.64388 5.91536 34.2238
1116059 4.97308 5.42952 13.1942 10.5854 -1.57416 5.87017 34.1822
1116069 4.93855 5.39207 13.2257 10.5575 -1.62302 5.91517 34.1138
1116079 4.93855 5.39207 13.2257 10.5575 -1.62302 5.91517 34.1138
1116089 4.99898 5.36399 13.2573 10.5575 -1.70781 5.90375 34.1777
1116099 4.99898 5.36399 13.2573 10.5575 -1.70781 5.90375 34.1777
1116109 4.96445 5.42015 13.2468 10.5296 -1.65502 5.88028 34.1609
1116118 4.98172 5.44824 13.2047 10.5016 -1.63795 5.83384 34.1363
1116131 4.98172 5.44824 13.2047 10.5016 -1.63795 5.83384 34.1363
1116138 4.95582 5.48568 13.3098 10.4458 -1.70642 5.84002 34.1971
1116152 4.95582 5.48568 13.3098 10.4458 -1.70642 5.84002 34.1971
1116159 4.93855 5.42952 13.2678 10.511 -1.65891 5.89104 34.1468
1116173 4.97308 5.48568 13.3624 10.5575 -1.66695 5.87332 34.3787
1116179 4.97308 5.48568 13.3624 10.5575 -1.66695 5.87332 34.3787
1116189 4.91265 5.40143 13.3203 10.5203 -1.69179 5.94056 34.1547
1116199 4.92991 5.40143 13.3203 10.5575 -1.67449 5.93985 34.2092
1116208 4.92991 5.40143 13.3203 10.5575 -1.67449 5.93985 34.2092
1116218 4.95582 5.43888 13.3098 10.5389 -1.67031 5.89341 34.2434
1116239 4.87811 5.40143 13.3203 10.5389 -1.65365 5.96669 34.1388
1116249 4.90401 5.36399 13.3939 10.5482 -1.74347 5.99565 34.2101
1116259 4.90401 5.36399 13.3939 10.5482 -1.74347 5.99565 34.2101
1116269 4.92128 5.39207 13.3203 10.511 -1.71228 5.93854 34.1446
1116281 4.93855 5.42015 13.3729 10.5575 -1.70156 5.93704 34.2891
1116289 4.93855 5.42015 13.3729 10.5575 -1.70156 5.93704 34.2891
1116303 4.86084 5.38271 13.457 10.6134 -1.69158 6.04426 34.3139
1116326 4.85221 5.37335 13.436 10.5947 -1.6932 6.04495 34.2563
1116329 4.89538 5.37335 13.4465 10.5854 -1.73692 6.01878 34.3007
1116339 4.89538 5.37335 13.4465 10.5854 -1.73692 6.01878 34.3007
