2190023 13.3217 12.6379 22.6207 20.9261 -0.855489 3.79544 69.5065
2190033 13.3565 12.7126 22.6306 20.8384 -0.875799 3.7533 69.5381
2190052 13.4522 12.9088 22.5912 20.6728 -0.88395 3.64159 69.6249
2190064 13.4522 12.9088 22.5912 20.6728 -0.88395 3.64159 69.6249
2190074 13.4957 13.0489 22.4534 20.5656 -0.838988 3.55239 69.5636
2190084 13.5391 13.161 22.3845 20.439 -0.835566 3.47867 69.5236
2190094 13.5391 13.161 22.3845 20.439 -0.835566 3.47867 69.5236
2190114 13.6174 13.3665 22.1876 20.3708 -0.74334 3.35936 69.5423
2190135 13.6783 13.4225 22.1482 20.2928 -0.758944 3.30886 69.5419
2190145 13.6783 13.4225 22.1482 20.2928 -0.758944 3.30886 69.5419
2190155 13.713 13.4692 22.0793 20.2149 -0.758618 3.26268 69.4765
2190165 13.6696 13.4879 22.0498 20.1954 -0.733416 3.26091 69.4027
2190175 13.6696 13.4879 22.0498 20.1954 -0.733416 3.26091 69.4027
2190185 13.6522 13.5907 22.0006 20.2344 -0.657661 3.23674 69.4778
2190196 13.6783 13.6187 21.9907 20.0785 -0.710653 3.19442 69.3662
2190206 13.6783 13.6187 21.9907 20.0785 -0.710653 3.19442 69.3662
2190216 13.6696 13.7027 21.9021 20.0493 -0.656225 3.15457 69.3237
2190226 13.713 13.7681 21.8135 20.0395 -0.619794 3.10926 69.3343
2190236 13.713 13.7681 21.8135 20.0395 -0.619794 3.10926 69.3343
2190246 13.7217 13.8335 21.8529 20.0493 -0.608957 3.09836 69.4575
2190256 13.7217 13.8335 21.8529 20.0493 -0.608957 3.09836 69.4575
2190266 13.7826 13.8802 21.8923 19.9129 -0.677218 3.05371 69.468
2190276 13.8261 14.011 21.784 19.9129 -0.60626 2.98987 69.534
2190303 13.9739 14.0951 21.7151 19.796 -0.646012 2.89784 69.5801
2190306 13.9739 14.0951 21.7151 19.796 -0.646012 2.89784 69.5801
2190316 13.9739 14.1604 21.6462 19.6304 -0.658868 2.84009 69.4109
2190326 14.0348 14.2819 21.5773 19.5524 -0.639983 2.76755 69.4464
2190346 14.0087 14.3099 21.5281 19.5232 -0.613981 2.75322 69.3699
2190356 14.087 14.3005 21.5379 19.5232 -0.648366 2.73734 69.4486
2190366 14.087 14.3005 21.5379 19.5232 -0.648366 2.73734 69.4486
2190376 14.0783 14.2538 21.5379 19.5622 -0.648172 2.75837 69.4322
2190386 14.0783 14.2538 21.5379 19.5622 -0.648172 2.75837 69.4322
2190396 14.0783 14.2912 21.5675 19.5719 -0.641139 2.75575 69.5089
2190408 14.0348 14.1885 21.6167 19.6401 -0.655901 2.8138 69.48
2190427 14.0435 14.2445 21.5773 19.6693 -0.613695 2.79544 69.5346
2190437 14.0609 14.2071 21.6167 19.6986 -0.636588 2.81258 69.5833
2190457 13.9478 14.0764 21.725 19.8447 -0.629261 2.91954 69.5939
2190467 13.9478 14.0764 21.725 19.8447 -0.629261 2.91954 69.5939
2190477 13.8783 13.9736 21.7151 19.9129 -0.614154 2.97412 69.4799
2190487 13.8522 13.8989 21.7939 20.059 -0.606327 3.03901 69.604
2190507 13.7913 13.7775 21.8431 20.137 -0.618252 3.10816 69.5488
2190519 13.7565 13.7027 21.912 20.2246 -0.625436 3.16341 69.5959
2190539 13.7391 13.628 21.971 20.2539 -0.65679 3.20247 69.5921
2190558 13.6348 13.5907 21.971 20.3221 -0.608869 3.25115 69.5186
2190567 13.6609 13.572 22.0104 20.4 -0.610007 3.269 69.6433
2190587 13.6 13.5066 21.971 20.5072 -0.559495 3.31357 69.5848
2190599 13.5739 13.4505 22.0892 20.439 -0.637488 3.34359 69.5526
2190608 13.5739 13.4505 22.0892 20.439 -0.637488 3.34359 69.5526
2190622 13.6174 13.5159 22.0104 20.4585 -0.593881 3.30497 69.6022
2190627 13.6174 13.5159 22.0104 20.4585 -0.593881 3.30497 69.6022
2190639 13.5391 13.5066 22.0006 20.361 -0.602274 3.31 69.4073
2190648 13.5478 13.6093 21.9415 20.3903 -0.535962 3.27562 69.4889
2190670 13.5652 13.6374 21.8726 20.361 -0.518256 3.24709 69.4362
2190680 13.5565 13.7495 21.8923 20.2928 -0.506012 3.21174 69.4911
2190688 13.5565 13.7495 21.8923 20.2928 -0.506012 3.21174 69.4911
2190698 13.6957 13.7962 21.8135 20.2831 -0.513719 3.14812 69.5884
2190708 13.6957 13.7962 21.8135 20.2831 -0.513719 3.14812 69.5884
2190720 13.6696 13.8429 21.7348 20.1662 -0.502539 3.10932 69.4134
2190732 13.6696 13.8896 21.725 20.1857 -0.474772 3.0988 69.4698
2190740 13.6696 13.8896 21.725 20.1857 -0.474772 3.0988 69.4698
2190750 13.7304 13.8802 21.784 20.1954 -0.516891 3.09716 69.5901
2190760 13.7391 13.8522 21.7939 20.2928 -0.497989 3.12051 69.678
2190770 13.7391 13.8522 21.7939 20.2928 -0.497989 3.12051 69.678
2190780 13.7826 13.8989 21.7939 20.2149 -0.524704 3.08377 69.6903
2190800 13.7652 13.9363 21.8135 20.1272 -0.543952 3.06695 69.6423
2190811 13.7478 13.983 21.7151 20.0201 -0.525406 3.02401 69.466
2190821 13.7478 13.983 21.7151 20.0201 -0.525406 3.02401 69.466
2190830 13.7478 13.9549 21.725 19.9908 -0.549926 3.02794 69.4186
2190840 13.7565 13.9549 21.7053 19.9519 -0.560407 3.01556 69.3686
2190861 13.8783 13.983 21.7348 19.8057 -0.657177 2.95655 69.4018
2190871 13.8783 13.983 21.7348 19.8057 -0.657177 2.95655 69.4018
2190881 13.8435 13.9923 21.6659 19.8155 -0.613698 2.95286 69.3172
2190891 13.887 14.0857 21.6462 19.8447 -0.576831 2.91913 69.4636
2190901 13.887 14.0857 21.6462 19.8447 -0.576831 2.91913 69.4636
2190915 13.913 14.0857 21.6068 19.8544 -0.568572 2.90725 69.46
2190923 14 14.1324 21.6757 19.8155 -0.620426 2.87807 69.6236
2190932 14 14.1324 21.6757 19.8155 -0.620426 2.87807 69.6236
2190941 14.0087 14.1418 21.6068 19.8155 -0.595888 2.86143 69.5728
2190951 14.0087 14.1418 21.6068 19.8155 -0.595888 2.86143 69.5728
2190965 14.0348 14.1418 21.5773 19.7278 -0.626975 2.83425 69.4816
2190971 14.0435 14.2819 21.4986 19.6986 -0.561543 2.77718 69.5225
2190992 14.0087 14.2538 21.4789 19.5622 -0.602977 2.76577 69.3036
2191003 14.1043 14.3473 21.4493 19.494 -0.616919 2.70014 69.3949
2191014 14.1043 14.3473 21.4493 19.494 -0.616919 2.70014 69.3949
2191023 14.1391 14.394 21.4296 19.455 -0.61937 2.66897 69.4177
2191044 14.2087 14.2725 21.4493 19.5037 -0.677538 2.69431 69.4343
2191053 14.1565 14.2632 21.5675 19.5135 -0.700471 2.73261 69.5006
2191065 14.1565 14.2632 21.5675 19.5135 -0.700471 2.73261 69.5006
2191074 14.1391 14.3099 21.5576 19.5427 -0.662898 2.72856 69.5493
2191085 14.0696 14.2632 21.5773 19.4648 -0.691505 2.74797 69.3748
2191096 14.0696 14.2632 21.5773 19.4648 -0.691505 2.74797 69.3748
2191105 14.1478 14.2725 21.6068 19.494 -0.714941 2.73596 69.5212
2191113 14.1826 14.2632 21.5675 19.416 -0.745662 2.70874 69.4293
2191126 14.1826 14.2632 21.5675 19.416 -0.745662 2.70874 69.4293
2191133 14.2087 14.2819 21.4493 19.3381 -0.73546 2.66251 69.278
2191144 14.2087 14.2819 21.4493 19.3381 -0.73546 2.66251 69.278
2191154 14.2174 14.3473 21.4296 19.2894 -0.72542 2.63144 69.2837
2191165 14.2087 14.2912 21.4789 19.2504 -0.774933 2.64976 69.2292
2191185 14.3043 14.3473 21.5379 19.2407 -0.811729 2.61997 69.4302
2191195 14.2522 14.3379 21.4887 19.1822 -0.801581 2.61637 69.261
2191205 14.2522 14.3379 21.4887 19.1822 -0.801581 2.61637 69.261
2191215 14.3565 14.3566 21.5281 19.2017 -0.837484 2.59566 69.4429
2191229 14.3565 14.3566 21.5281 19.2017 -0.837484 2.59566 69.4429
2191239 14.2783 14.3379 21.5675 19.0946 -0.870854 2.60815 69.2782
2191255 14.4 14.3846 21.5871 19.1725 -0.873558 2.58289 69.5443
2191256 14.4 14.3846 21.5871 19.1725 -0.873558 2.58289 69.5443
2191265 14.4 14.394 21.5281 19.1822 -0.845952 2.57172 69.5043
2191275 14.3391 14.3753 21.6167 19.192 -0.858906 2.60941 69.5231
2191285 14.3391 14.3753 21.6167 19.192 -0.858906 2.60941 69.5231
2191295 14.3913 14.3566 21.6462 19.2115 -0.886947 2.60966 69.6056
2191305 14.3913 14.3566 21.6462 19.2115 -0.886947 2.60966 69.6056
2191317 14.3478 14.3005 21.6462 19.2504 -0.878228 2.6418 69.545
2191325 14.3826 14.2538 21.6757 19.2309 -0.925165 2.64661 69.5431
2191337 14.3826 14.2538 21.6757 19.2309 -0.925165 2.64661 69.5431
2191346 14.3304 14.3192 21.7643 19.3089 -0.884448 2.67277 69.7229
2191357 14.2609 14.2632 21.7348 19.2602 -0.889078 2.69083 69.519
2191366 14.2609 14.2632 21.7348 19.2602 -0.889078 2.69083 69.519
2191376 14.2522 14.2445 21.6757 19.2407 -0.879775 2.68388 69.4131
2191386 14.2522 14.2445 21.6757 19.2407 -0.879775 2.68388 69.4131
2191396 14.2348 14.2165 21.7939 19.2699 -0.914279 2.72154 69.515
2191406 14.2174 14.2165 21.7939 19.3673 -0.871986 2.74315 69.5951
2191416 14.2174 14.2165 21.7939 19.3673 -0.871986 2.74315 69.5951
2191426 14.1652 14.2258 21.8234 19.3186 -0.878777 2.7507 69.5331
2191436 14.1739 14.2258 21.8037 19.3186 -0.874965 2.74501 69.5221
2191448 14.1739 14.1978 21.8037 19.2991 -0.892656 2.74873 69.4746
2191456 14.2087 14.2071 21.7643 19.3284 -0.876696 2.73568 69.5085
2191467 14.2087 14.2071 21.7643 19.3284 -0.876696 2.73568 69.5085
2191477 14.087 14.2258 21.7643 19.2894 -0.841932 2.75514 69.3665
2191487 14.1304 14.2445 21.7348 19.3284 -0.825328 2.74091 69.4381
2191498 14.1304 14.2445 21.7348 19.3284 -0.825328 2.74091 69.4381
2191507 14.0522 14.2258 21.7053 19.2894 -0.809203 2.75361 69.2727
2191517 14.0174 14.2445 21.7151 19.3284 -0.77903 2.76636 69.3054
2191528 14.0174 14.2445 21.7151 19.3284 -0.77903 2.76636 69.3054
2191537 14.0348 14.2258 21.7545 19.3089 -0.813054 2.7702 69.324
2191557 14 14.1885 21.7151 19.3381 -0.790183 2.78693 69.2417
2191567 14.0261 14.1885 21.784 19.4842 -0.769038 2.81805 69.4828
2191577 14.0261 14.1885 21.784 19.4842 -0.769038 2.81805 69.4828
2191587 14.0261 14.2445 21.784 19.4355 -0.766322 2.79514 69.4901
2191597 14.0261 14.2445 21.784 19.4355 -0.766322 2.79514 69.4901
2191608 14 14.3286 21.7151 19.3381 -0.738101 2.75101 69.3818
2191617 14.0261 14.4313 21.7742 19.2504 -0.762253 2.71305 69.482
2191627 14.0261 14.4313 21.7742 19.2504 -0.762253 2.71305 69.482
2191637 14.0261 14.4313 21.6954 19.2017 -0.752826 2.69046 69.3546
2191647 14.0348 14.5154 21.6068 19.2212 -0.686465 2.65455 69.3782
2191669 14.1565 14.5808 21.6561 19.192 -0.732851 2.61062 69.5853
2191677 14.1565 14.5808 21.6561 19.192 -0.732851 2.61062 69.5853
2191690 14.0609 14.5247 21.6561 19.1433 -0.738247 2.64043 69.3849
2191697 14.0522 14.6181 21.6462 19.153 -0.693555 2.6189 69.4695
2191717 14.0783 14.6368 21.6265 19.153 -0.688887 2.60404 69.4946
2191729 14.0348 14.7209 21.6659 19.153 -0.656411 2.60079 69.5746
2191739 14.0348 14.7209 21.6659 19.153 -0.656411 2.60079 69.5746
2191749 14.0522 14.6555 21.6265 19.192 -0.658466 2.61286 69.5262
2191761 14.0522 14.6555 21.6265 19.192 -0.658466 2.61286 69.5262
2191768 14 14.6275 21.5576 19.1433 -0.644352 2.61222 69.3284
2191780 14.0174 14.6929 21.597 19.2797 -0.589862 2.62256 69.5869
2191790 14.0174 14.6929 21.597 19.2797 -0.589862 2.62256 69.5869
2191800 13.9739 14.6275 21.6167 19.192 -0.637926 2.63808 69.41
2191810 14.0348 14.6368 21.6561 19.3186 -0.622933 2.64977 69.6463
2191820 14.0348 14.6368 21.6561 19.3186 -0.622933 2.64977 69.6463
2191830 14.0087 14.6742 21.6364 19.2797 -0.607492 2.6365 69.5989
2191840 13.9391 14.5901 21.7151 19.3186 -0.627314 2.69637 69.563
2191853 13.9391 14.5901 21.7151 19.3186 -0.627314 2.69637 69.563
2191862 13.9478 14.5901 21.6757 19.3673 -0.598624 2.69581 69.581
2191871 13.9478 14.5901 21.6757 19.3673 -0.598624 2.69581 69.581
2191884 13.8957 14.5341 21.6462 19.4063 -0.576225 2.72504 69.4822
2191893 13.8435 14.5247 21.7151 19.3966 -0.589126 2.75119 69.4799
2191901 13.8435 14.5247 21.7151 19.3966 -0.589126 2.75119 69.4799
2191911 13.8435 14.506 21.6265 19.3966 -0.564848 2.74032 69.3726
2191921 13.9217 14.478 21.6757 19.3966 -0.619997 2.73618 69.4721
2191943 13.8696 14.478 21.725 19.4063 -0.615369 2.75991 69.4789
2191951 13.8696 14.478 21.725 19.4063 -0.615369 2.75991 69.4789
2191963 13.7739 14.422 21.7053 19.3966 -0.599098 2.79359 69.2977
2191973 13.8 14.4126 21.7151 19.4453 -0.597207 2.79959 69.373
2191983 13.8 14.4126 21.7151 19.4453 -0.597207 2.79959 69.373
2191992 13.7913 14.4593 21.7446 19.3868 -0.60887 2.78476 69.3821
2192003 13.7913 14.4593 21.7742 19.3673 -0.62644 2.78653 69.3922
2192012 13.7913 14.4593 21.7742 19.3673 -0.62644 2.78653 69.3922
2192023 13.8522 14.506 21.8431 19.416 -0.636756 2.77967 69.6173
2192032 13.8522 14.506 21.8431 19.416 -0.636756 2.77967 69.6173
2192044 13.8435 14.4967 21.8135 19.4355 -0.619636 2.78252 69.5893
2192052 13.9478 14.5527 21.8234 19.3479 -0.671226 2.72793 69.6718
2192062 13.9478 14.5527 21.8234 19.3479 -0.671226 2.72793 69.6718
2192072 13.9913 14.5341 21.8726 19.3381 -0.714029 2.72858 69.7361
2192085 13.9391 14.506 21.9317 19.2504 -0.759159 2.74395 69.6273
2192104 13.9565 14.4967 21.8529 19.2407 -0.744841 2.7263 69.5468
2192112 13.9565 14.4967 21.8529 19.2407 -0.744841 2.7263 69.5468
2192122 13.8783 14.4687 21.7545 19.1433 -0.729589 2.7188 69.2447
2192132 13.9043 14.4126 21.7545 19.1433 -0.759567 2.72647 69.2147
2192142 13.9043 14.4126 21.7545 19.1433 -0.759567 2.72647 69.2147
2192152 13.9391 14.478 21.7545 19.0751 -0.772789 2.68874 69.2467
2192162 14.0174 14.506 21.7545 19.1238 -0.77161 2.67029 69.4017
2192185 14.0609 14.478 21.8135 19.0653 -0.839508 2.66646 69.4178
2192205 14.0435 14.5247 21.8234 19.0361 -0.830373 2.65556 69.4277
2192213 14.113 14.5434 21.9317 19.0361 -0.885181 2.65238 69.6242
2192225 14.113 14.5434 21.9317 19.0361 -0.885181 2.65238 69.6242
2192234 14.1739 14.6088 21.9317 18.9289 -0.921789 2.60138 69.6433
2192245 14.1304 14.5995 21.8135 18.851 -0.898318 2.57975 69.3944
2192254 14.1304 14.5995 21.8135 18.851 -0.898318 2.57975 69.3944
2192263 14.2261 14.6555 21.784 18.7828 -0.925797 2.52387 69.4484
2192283 14.1913 14.6742 21.6856 18.7244 -0.894384 2.49968 69.2754
2192295 14.2522 14.7209 21.8135 18.6951 -0.953387 2.49036 69.4817
2192304 14.2522 14.7209 21.8135 18.6951 -0.953387 2.49036 69.4817
2192314 14.2696 14.7302 21.725 18.6367 -0.947078 2.4571 69.3614
2192326 14.2696 14.7209 21.7053 18.5977 -0.958331 2.44883 69.2934
2192333 14.2696 14.7209 21.7053 18.5977 -0.958331 2.44883 69.2934
2192344 14.2696 14.7582 21.8332 18.5782 -0.995958 2.45905 69.4393
2192354 14.2696 14.7582 21.8332 18.5782 -0.995958 2.45905 69.4393
2192366 14.3043 14.7769 21.7348 18.5393 -0.981529 2.42075 69.3553
2192374 14.3217 14.7863 21.784 18.5003 -1.01568 2.4159 69.3923
2192395 14.3826 14.6648 21.8037 18.4905 -1.09275 2.43291 69.3417
2192409 14.3043 14.6648 21.8431 18.549 -1.05736 2.47031 69.3613
2192425 14.3913 14.6181 21.8431 18.4808 -1.13057 2.44784 69.3333
2192435 14.3913 14.6181 21.8431 18.4808 -1.13057 2.44784 69.3333
2192445 14.3304 14.5621 21.912 18.4223 -1.17656 2.4792 69.2269
2192455 14.3913 14.5154 21.9415 18.4905 -1.19951 2.49327 69.3388
2192465 14.3913 14.5154 21.9415 18.4905 -1.19951 2.49327 69.3388
2192475 14.3391 14.5341 21.912 18.5198 -1.15333 2.50167 69.3049
2192485 14.2957 14.5434 21.9809 18.5685 -1.14019 2.53147 69.3884
2192495 14.2957 14.5434 21.9809 18.5685 -1.14019 2.53147 69.3884
2192508 14.3826 14.5527 22.0596 18.5295 -1.2082 2.51432 69.5245
2192533 14.4 14.5154 22.0104 18.5393 -1.20772 2.51226 69.4651
2192536 14.3391 14.478 22.04 18.5198 -1.21845 2.53886 69.3769
2192556 14.4348 14.5527 22.04 18.5003 -1.23034 2.49239 69.5278
2192566 14.3739 14.4967 22.0301 18.4711 -1.23835 2.51483 69.3718
2192576 14.3739 14.4967 22.0301 18.4711 -1.23835 2.51483 69.3718
2192586 14.4174 14.5154 22.1187 18.51 -1.26172 2.52207 69.5615
2192596 14.4174 14.5154 22.1187 18.51 -1.26172 2.52207 69.5615
2192607 14.3826 14.5434 21.9612 18.5198 -1.18167 2.49722 69.407
2192616 14.3739 14.5434 22.0203 18.549 -1.18792 2.51529 69.4866
2192626 14.3739 14.5434 22.0203 18.549 -1.18792 2.51529 69.4866
2192636 14.4261 14.6088 21.9612 18.5587 -1.15728 2.47684 69.5548
2192646 14.4261 14.5714 22.0498 18.5198 -1.21634 2.49516 69.5671
2192656 14.4261 14.5714 22.0498 18.5198 -1.21634 2.49516 69.5671
2192666 14.4087 14.5341 22.0596 18.5977 -1.19848 2.52469 69.6001
2192676 14.4087 14.5341 22.0596 18.5977 -1.19848 2.52469 69.6001
2192686 14.3478 14.478 22.099 18.6562 -1.19022 2.57168 69.581
2192696 14.3304 14.394 22.0301 18.6562 -1.19233 2.58502 69.4107
2192706 14.3304 14.394 22.0301 18.6562 -1.19233 2.58502 69.4107
2192717 14.2435 14.4313 22.099 18.7341 -1.1427 2.6238 69.5079
2192726 14.2435 14.4313 22.099 18.7341 -1.1427 2.6238 69.5079
2192736 14.1913 14.3846 22.04 18.7633 -1.11104 2.64359 69.3792
2192746 14.1652 14.2912 22.0793 18.7925 -1.13979 2.68623 69.3283
2192756 14.1652 14.2912 22.0793 18.7925 -1.13979 2.68623 69.3283
2192766 14.0957 14.3099 22.0793 18.8802 -1.07578 2.71477 69.3651
2192776 14.0783 14.3005 22.1089 19.0166 -1.03229 2.75091 69.5043
2192786 14.0783 14.3005 22.1089 19.0166 -1.03229 2.75091 69.5043
2192796 14.0609 14.2725 22.2171 19.0751 -1.0522 2.79182 69.6256
2192820 13.9913 14.2725 22.1187 19.153 -0.965144 2.80602 69.5355
2192828 13.9913 14.2632 22.1285 19.2115 -0.95022 2.82038 69.5945
2192837 13.9913 14.2632 22.1285 19.2115 -0.95022 2.82038 69.5945
2192848 13.9565 14.2538 22.0301 19.1725 -0.922124 2.8076 69.413
2192861 13.9739 14.2632 22.0203 19.2504 -0.892191 2.81269 69.5078
2192869 13.9739 14.2632 22.0203 19.2504 -0.892191 2.81269 69.5078
2192881 13.9826 14.2445 21.9907 19.2991 -0.873777 2.81861 69.517
2192888 13.9217 14.2445 22.0203 19.3381 -0.848401 2.84621 69.5246
2192901 13.9217 14.2538 22.0203 19.3381 -0.844932 2.84382 69.534
2192908 13.8522 14.2165 22.04 19.3868 -0.823373 2.88324 69.4954
2192922 13.8522 14.2165 22.04 19.3868 -0.823373 2.88324 69.4954
2192928 13.8783 14.1511 22.1285 19.4453 -0.865778 2.91893 69.6032
2192938 13.8261 14.1791 22.0695 19.4258 -0.823972 2.91151 69.5005
2192958 13.8174 14.1698 22.0793 19.4648 -0.813366 2.92464 69.5312
2192969 13.8174 14.1698 22.04 19.4648 -0.799665 2.91779 69.4919
2192978 13.7652 14.1511 22.04 19.4842 -0.78118 2.93947 69.4405
2192989 13.7565 14.1698 22.0793 19.455 -0.795795 2.93865 69.4606
2193000 13.7565 14.1698 22.0793 19.455 -0.795795 2.93865 69.4606
2193010 13.7739 14.1511 22.0695 19.3868 -0.830728 2.92542 69.3813
2193020 13.8261 14.1324 22.0892 19.3673 -0.869948 2.91681 69.415
2193030 13.8261 14.1324 22.0892 19.3673 -0.869948 2.91681 69.415
2193040 13.8174 14.1698 22.0596 19.4745 -0.802904 2.92291 69.5213
2193050 13.8174 14.1698 22.0596 19.4745 -0.802904 2.92291 69.5213
2193060 13.8 14.1231 22.0793 19.455 -0.828288 2.93948 69.4574
2193070 13.8783 14.1791 22.099 19.4842 -0.830664 2.91336 69.6406
2193090 13.8957 14.1418 22.0498 19.3479 -0.884223 2.8862 69.4351
2193100 13.8609 14.1791 22.0892 19.3381 -0.875525 2.8907 69.4673
2193111 13.8609 14.1791 22.0892 19.3381 -0.875525 2.8907 69.4673
2193121 13.8348 14.1885 22.0892 19.3381 -0.862983 2.89502 69.4505
2193131 13.8522 14.2165 22.0006 19.2699 -0.853182 2.85593 69.3391
2193151 13.913 14.2352 22.0006 19.3089 -0.852887 2.84229 69.4577
2193170 13.913 14.2352 22.0006 19.3089 -0.852887 2.84229 69.4577
2193172 13.913 14.2538 21.9514 19.2212 -0.861469 2.81348 69.3394
2193184 13.9565 14.1885 21.9907 19.2991 -0.885598 2.83969 69.4349
2193192 13.9565 14.1885 21.9907 19.2991 -0.885598 2.83969 69.4349
2193204 14.0174 14.2632 21.8923 19.2504 -0.862852 2.77907 69.4233
2193212 13.9739 14.2632 21.9021 19.1822 -0.876577 2.77994 69.3215
2193223 13.9739 14.2632 21.9021 19.1822 -0.876577 2.77994 69.3215
2193232 13.9739 14.3659 22.0203 19.2309 -0.861213 2.78298 69.5911
2193252 14.0087 14.3753 21.9317 19.2797 -0.820975 2.7647 69.5953
2193262 13.9826 14.3753 22.0104 19.2699 -0.842872 2.78348 69.6382
2193272 13.9826 14.3753 22.0104 19.2699 -0.842872 2.78348 69.6382
2193284 14.0087 14.3753 21.9218 19.1822 -0.85375 2.74582 69.488
2193292 14.0609 14.422 21.8431 19.1238 -0.848882 2.69634 69.4497
2193303 14.0609 14.422 21.8431 19.1238 -0.848882 2.69634 69.4497
2193312 14.1043 14.5247 21.7742 19.114 -0.805469 2.6452 69.5173
2193332 14.0783 14.5247 21.725 19.1043 -0.782847 2.64134 69.4322
2193344 14.087 14.5154 21.725 19.0751 -0.80021 2.6363 69.4024
2193352 14.087 14.5154 21.725 19.0751 -0.80021 2.6363 69.4024
2193363 13.9913 14.478 21.6462 19.0556 -0.760399 2.65265 69.1711
2193372 14.0696 14.45 21.7348 19.114 -0.807402 2.66604 69.3684
2193383 14.0696 14.45 21.7348 19.114 -0.807402 2.66604 69.3684
2193392 14.0522 14.506 21.7348 19.1238 -0.776881 2.65794 69.4168
2193402 14.0522 14.506 21.7348 19.1238 -0.776881 2.65794 69.4168
2193412 14.0696 14.5154 21.7348 19.0946 -0.790337 2.64594 69.4143
2193423 14.1217 14.6275 21.8135 19.0946 -0.794341 2.61829 69.6573
2193432 14.1217 14.6275 21.8135 19.0946 -0.794341 2.61829 69.6573
2193444 14.1913 14.6555 21.7151 19.0264 -0.799188 2.56394 69.5883
2193452 14.1913 14.6555 21.7151 19.0264 -0.799188 2.56394 69.5883
2193464 14.2 14.5527 21.6659 18.9679 -0.84499 2.56845 69.3866
2193472 14.2 14.6275 21.6954 18.9582 -0.831084 2.55309 69.4811
2193484 14.2 14.6275 21.6954 18.9582 -0.831084 2.55309 69.4811
2193492 14.1652 14.6555 21.7053 18.9582 -0.811991 2.55657 69.4841
2193503 14.1826 14.5995 21.6462 18.9289 -0.829196 2.55051 69.3572
2193512 14.1826 14.5995 21.6462 18.9289 -0.829196 2.55051 69.3572
2193523 14.2261 14.6742 21.6364 18.8802 -0.831226 2.51013 69.4169
2193532 14.2261 14.6742 21.6364 18.8802 -0.831226 2.51013 69.4169
2193542 14.2435 14.7022 21.597 18.8023 -0.842157 2.47753 69.345
2193554 14.2522 14.7115 21.5773 18.8218 -0.82759 2.47295 69.3628
2193573 14.2957 14.6555 21.597 18.8315 -0.866833 2.48142 69.3797
2193584 14.287 14.6275 21.6265 18.851 -0.877263 2.49952 69.392
2193603 14.3217 14.6181 21.5675 18.89 -0.857776 2.48948 69.3973
2193613 14.3217 14.6181 21.5675 18.89 -0.857776 2.48948 69.3973
2193624 14.2783 14.6181 21.6167 18.851 -0.874302 2.50229 69.3641
2193634 14.3652 14.5527 21.6364 18.8218 -0.946671 2.49513 69.3761
2193644 14.3652 14.5527 21.6364 18.8218 -0.946671 2.49513 69.3761
2193655 14.3565 14.5714 21.6659 18.7925 -0.957839 2.49267 69.3864
2193665 14.3478 14.5434 21.7151 18.8413 -0.964135 2.51955 69.4476
2193685 14.3739 14.5808 21.6954 18.851 -0.948749 2.50178 69.5011
2193705 14.3217 14.5341 21.725 18.8315 -0.965646 2.52851 69.4123
2193715 14.287 14.5247 21.8135 18.9192 -0.954993 2.57125 69.5444
2193735 14.3043 14.506 21.784 18.9192 -0.957774 2.56629 69.5136
2193746 14.3478 14.422 21.8037 18.9192 -1.01103 2.58008 69.4927
2193757 14.3478 14.422 21.8037 18.9192 -1.01103 2.58008 69.4927
2193766 14.287 14.4313 21.9218 18.8802 -1.04187 2.60725 69.5203
2193776 14.287 14.4313 21.9218 18.8802 -1.04187 2.60725 69.5203
2193791 14.3391 14.3659 21.8726 18.9289 -1.04913 2.6105 69.5066
2193800 14.3043 14.3659 21.8825 18.8413 -1.07344 2.60544 69.394
2193809 14.3043 14.3659 21.8825 18.8413 -1.07344 2.60544 69.394
2193816 14.287 14.3099 21.9218 18.89 -1.08377 2.63979 69.4086
2193826 14.2522 14.2725 21.9809 19.0361 -1.05132 2.69456 69.5417
2193846 14.2435 14.2445 22.1089 19.0751 -1.08823 2.73337 69.6719
2193859 14.2435 14.2445 22.1089 19.0751 -1.08823 2.73337 69.6719
2193867 14.1826 14.2071 22.1581 19.1043 -1.08728 2.7722 69.6521
2193876 14.1478 14.2632 22.1285 19.0946 -1.04784 2.75988 69.6341
2193886 14.1478 14.2632 22.1285 19.0946 -1.04784 2.75988 69.6341
2193896 14.1652 14.1231 22.1581 19.0361 -1.13846 2.78614 69.4825
2193906 14.0957 14.039 22.1581 19.0166 -1.15356 2.82214 69.3094
2193927 14.0609 14.011 22.1581 19.0166 -1.15217 2.8383 69.2466
2193947 14.0522 13.9923 22.2664 19.0751 -1.1714 2.87456 69.3859
2193959 13.9913 13.9643 22.2959 19.1238 -1.15283 2.91114 69.3753
2193968 13.9913 13.9643 22.2959 19.1238 -1.15283 2.91114 69.3753
2193979 13.9826 13.9643 22.3254 19.0946 -1.17101 2.91344 69.3669
2193987 14.0174 13.9923 22.3549 19.0751 -1.18987 2.89899 69.4397
2193999 14.0174 13.9923 22.3549 19.0751 -1.18987 2.89899 69.4397
2194009 14.0522 14.0203 22.4534 19.1725 -1.18824 2.91686 69.6984
2194019 14.0522 14.0203 22.4534 19.1725 -1.18824 2.91686 69.6984
2194028 14.0087 13.9363 22.4239 19.1433 -1.20592 2.93952 69.5121
2194038 14.0348 13.983 22.4042 19.1043 -1.20519 2.91057 69.5262
2194049 14.0348 13.983 22.4042 19.1043 -1.20519 2.91057 69.5262
2194059 14.0783 14.0203 22.414 19.0946 -1.21302 2.88978 69.6072
2194071 14.0261 13.9269 22.4435 19.0458 -1.25891 2.92394 69.4424
2194089 13.9913 13.9456 22.4239 19.1238 -1.20378 2.93822 69.4845
2194098 13.9913 13.9456 22.4239 19.1238 -1.20378 2.93822 69.4845
2194108 13.9739 13.8709 22.5026 19.1433 -1.24563 2.97905 69.4907
2194118 13.9739 13.9082 22.5321 19.1238 -1.24896 2.97113 69.5381
2194128 13.9739 13.9082 22.5321 19.1238 -1.24896 2.97113 69.5381
2194139 14.0261 13.9269 22.4534 19.1433 -1.22549 2.94257 69.5497
2194148 14.0087 13.9456 22.4632 19.1238 -1.22321 2.94056 69.5413
2194169 14.0174 13.9736 22.4042 19.1043 -1.20276 2.91746 69.4995
2194181 14.0174 13.9736 22.4042 19.1043 -1.20276 2.91746 69.4995
2194190 14.0522 13.983 22.3254 19.0556 -1.20254 2.88388 69.4162
2194200 14.0609 14.039 22.4042 19.0166 -1.22604 2.87416 69.5207
2194210 14.0609 14.039 22.4042 19.0166 -1.22604 2.87416 69.5207
2194220 13.9652 13.9363 22.3943 18.9582 -1.25087 2.91341 69.254
2194230 14.0087 14.0297 22.4632 19.0848 -1.20621 2.91214 69.5864
2194250 14.0609 14.067 22.4042 18.9776 -1.23017 2.86016 69.5097
2194261 14.087 14.039 22.3549 18.9192 -1.25493 2.84182 69.4001
2194281 14.113 14.039 22.3845 18.9874 -1.24817 2.85222 69.5239
2194302 14.1478 14.067 22.3057 18.851 -1.27413 2.79838 69.3716
2194316 14.1565 14.0951 22.3156 18.8705 -1.26248 2.79413 69.4376
2194332 14.2261 14.1137 22.286 18.8218 -1.28752 2.75776 69.4476
2194343 14.2435 14.0484 22.3353 18.8607 -1.32025 2.78556 69.4878
2194356 14.2435 14.0484 22.3353 18.8607 -1.32025 2.78556 69.4878
2194363 14.1565 14.0951 22.3057 18.8413 -1.27017 2.78725 69.3986
2194376 14.1913 14.1044 22.3549 18.8413 -1.29533 2.78461 69.4919
2194383 14.1913 14.1044 22.3549 18.8413 -1.29533 2.78461 69.4919
2194395 14.2522 14.1137 22.3845 18.851 -1.31891 2.77356 69.6014
2194405 14.2522 14.1137 22.3845 18.851 -1.31891 2.77356 69.6014
2194415 14.2609 14.1324 22.3648 18.89 -1.29339 2.76996 69.648
2194425 14.2435 14.0857 22.3845 18.8705 -1.31918 2.78636 69.5842
2194451 14.2174 14.1698 22.2565 18.7731 -1.27169 2.73185 69.4167
2194455 14.2174 14.1978 22.2565 18.6464 -1.30907 2.70227 69.3181
2194475 14.2783 14.2258 22.1975 18.6464 -1.29905 2.6691 69.348
2194485 14.2783 14.2258 22.1975 18.6464 -1.29905 2.6691 69.348
2194497 14.287 14.2258 22.1384 18.5782 -1.30772 2.64422 69.2294
2194505 14.3043 14.1885 22.1384 18.5685 -1.33158 2.64757 69.1997
2194515 14.3043 14.1885 22.1384 18.5685 -1.33158 2.64757 69.1997
2194525 14.287 14.2071 22.1482 18.549 -1.3293 2.64552 69.1913
2194535 14.2696 14.2445 22.1778 18.6562 -1.27858 2.66479 69.348
2194545 14.2696 14.2445 22.1778 18.6562 -1.27858 2.66479 69.348
2194555 14.3217 14.2819 22.1778 18.588 -1.3081 2.62986 69.3693
2194621 14.3217 14.2819 22.1778 18.588 -1.3081 2.62986 69.3693
2194624 14.3652 14.2725 22.1581 18.6269 -1.30499 2.62463 69.4228
2194625 14.3565 14.3005 22.1285 18.6172 -1.28501 2.61272 69.4028
2194626 14.3565 14.3005 22.1285 18.6172 -1.28501 2.61272 69.4028
2194627 14.4435 14.3753 22.099 18.5685 -1.29477 2.55779 69.4863
2194628 14.4435 14.3753 22.099 18.5685 -1.29477 2.55779 69.4863
2194629 14.3739 14.394 22.099 18.5782 -1.26026 2.5724 69.4451
2194635 14.3739 14.3566 22.0203 18.5685 -1.25113 2.566 69.3193
2194645 14.3739 14.3566 22.0203 18.5685 -1.25113 2.566 69.3193
2194655 14.4087 14.3753 22.0006 18.549 -1.25661 2.54543 69.3335
2194666 14.3565 14.4407 22.0006 18.5587 -1.21031 2.54384 69.3565
2194675 14.3565 14.4407 22.0006 18.5587 -1.21031 2.54384 69.3565
2194688 14.4522 14.4687 21.9809 18.6075 -1.20737 2.51783 69.5092
2194695 14.4522 14.4687 21.9809 18.6075 -1.20737 2.51783 69.5092
2194705 14.3652 14.45 21.9218 18.588 -1.17169 2.53038 69.325
2194716 14.3826 14.4593 21.9514 18.5587 -1.19531 2.52368 69.3521
2194727 14.3826 14.4593 21.9514 18.5587 -1.19531 2.52368 69.3521
2194736 14.3913 14.506 21.9514 18.5977 -1.16598 2.5167 69.4464
2194748 14.3478 14.4967 21.9612 18.6075 -1.15428 2.53355 69.4132
2194756 14.3478 14.4967 21.9612 18.6075 -1.15428 2.53355 69.4132
2194766 14.3478 14.5714 21.784 18.6659 -1.04316 2.49333 69.3692
2194787 14.3478 14.5154 21.8431 18.6854 -1.07727 2.52161 69.3917
2194796 14.2957 14.4967 21.912 18.6562 -1.10105 2.54665 69.3605
2194816 14.3217 14.5527 21.8431 18.7828 -1.01771 2.53626 69.5004
2194827 14.287 14.5247 21.8135 18.8315 -0.987759 2.55556 69.4567
2194836 14.287 14.5247 21.8135 18.8315 -0.987759 2.55556 69.4567
2194848 14.2783 14.5247 21.8825 18.7828 -1.02679 2.56138 69.4682
2194868 14.2957 14.506 21.8431 18.7828 -1.0262 2.55465 69.4276
2194877 14.2783 14.5434 21.8431 18.812 -0.99526 2.55483 69.4768
2194889 14.2783 14.5434 21.8431 18.812 -0.99526 2.55483 69.4768
2194897 14.2522 14.6181 21.784 18.7925 -0.945151 2.52846 69.4469
2194907 14.2696 14.5621 21.7742 18.7925 -0.96872 2.53646 69.3984
2194917 14.2696 14.5621 21.7742 18.7925 -0.96872 2.53646 69.3984
2194928 14.2609 14.6088 21.7643 18.812 -0.937554 2.52859 69.446
2194938 14.2609 14.6088 21.6954 18.812 -0.913654 2.51621 69.3771
2194948 14.1826 14.5901 21.6954 18.8607 -0.875241 2.54947 69.3289
2194958 14.1826 14.5901 21.7643 18.8802 -0.891925 2.56532 69.4173
2194978 14.1565 14.5527 21.8037 18.9289 -0.892307 2.59714 69.4419
2194992 14.2087 14.5714 21.8037 18.9776 -0.885302 2.58791 69.5615
2195012 14.2087 14.5808 21.6954 18.8607 -0.887802 2.54523 69.3456
2195020 14.2261 14.506 21.7545 18.8315 -0.953218 2.5651 69.3181
2195040 14.2087 14.5621 21.784 18.8607 -0.925541 2.56585 69.4155
2195050 14.2087 14.5621 21.784 18.8607 -0.925541 2.56585 69.4155
2195060 14.1565 14.478 21.6856 18.8997 -0.890052 2.58974 69.2198
2195089 14.2 14.5621 21.7053 18.812 -0.913383 2.54518 69.2794
2195092 14.2174 14.5714 21.6659 18.8315 -0.894961 2.53483 69.2862
2195113 14.2261 14.5527 21.7151 18.89 -0.900239 2.5567 69.3839
2195122 14.2174 14.5527 21.7053 18.9289 -0.879255 2.56412 69.4043
2195134 14.2348 14.6555 21.7348 18.851 -0.886306 2.52508 69.4761
2195142 14.2348 14.6555 21.7348 18.851 -0.886306 2.52508 69.4761
2195154 14.2522 14.6181 21.6954 18.9095 -0.870819 2.53355 69.4752
2195174 14.2696 14.6742 21.7053 18.7731 -0.910226 2.49227 69.4221
2195183 14.313 14.6368 21.7348 18.851 -0.920402 2.51007 69.5357
2195193 14.313 14.6368 21.7348 18.851 -0.920402 2.51007 69.5357
2195204 14.2783 14.6088 21.6659 18.812 -0.90944 2.5065 69.365
2195214 14.313 14.6742 21.6265 18.7536 -0.905257 2.4636 69.3673
2195223 14.313 14.6742 21.6265 18.7536 -0.905257 2.4636 69.3673
2195236 14.313 14.7209 21.6167 18.6756 -0.913508 2.43596 69.3262
2195243 14.313 14.7209 21.6167 18.6756 -0.913508 2.43596 69.3262
2195253 14.2783 14.6275 21.6561 18.7828 -0.90996 2.49474 69.3446
2195264 14.3478 14.7396 21.6364 18.7146 -0.910884 2.43315 69.4384
2195273 14.3478 14.7396 21.6364 18.7146 -0.910884 2.43315 69.4384
2195283 14.4 14.6275 21.6068 18.6269 -0.993498 2.42696 69.2612
2195294 14.4 14.7209 21.5281 18.6854 -0.909297 2.3998 69.3344
2195304 14.4 14.7209 21.5281 18.6854 -0.909297 2.3998 69.3344
2195314 14.4522 14.7022 21.5084 18.6562 -0.938492 2.38251 69.3189
2195323 14.4522 14.7022 21.5084 18.6562 -0.938492 2.38251 69.3189
2195334 14.4435 14.7302 21.5576 18.5977 -0.963941 2.37598 69.329
2195345 14.4522 14.7489 21.5478 18.6464 -0.938331 2.3762 69.3953
2195365 14.5217 14.6742 21.5281 18.6367 -0.98722 2.37213 69.3607
2195375 14.513 14.7209 21.4789 18.6075 -0.960605 2.34832 69.3202
2195385 14.513 14.7209 21.4789 18.6075 -0.960605 2.34832 69.3202
2195395 14.5652 14.8049 21.4592 18.6172 -0.936787 2.31247 69.4465
2195405 14.5652 14.8049 21.4592 18.6172 -0.936787 2.31247 69.4465
2195415 14.5826 14.7302 21.4198 18.6172 -0.957103 2.31958 69.3498
2195425 14.6522 14.7676 21.4001 18.51 -1.00054 2.26967 69.3299
2195435 14.6522 14.7676 21.4001 18.51 -1.00054 2.26967 69.3299
2195445 14.7478 14.8236 21.3214 18.4321 -1.01459 2.20311 69.3249
2195457 14.8 14.889 21.1737 18.4029 -0.967953 2.14123 69.2656
2195466 14.8 14.889 21.1737 18.4029 -0.967953 2.14123 69.2656
2195476 14.9391 14.9451 21.1934 18.286 -1.04576 2.07497 69.3635
2195497 14.9478 14.9264 21.1048 18.2762 -1.02882 2.05909 69.2552
2195507 14.9826 15.0478 21.095 18.2178 -1.0138 2.00791 69.3431
2195518 14.9826 15.0478 21.095 18.2178 -1.0138 2.00791 69.3431
2195527 15.0609 15.0758 21.0261 18.1301 -1.03943 1.95247 69.2928
2195538 15.1391 15.0571 20.9473 18.1691 -1.03165 1.9304 69.3126
2195558 15.2435 15.1973 20.8981 18.1301 -1.01276 1.85424 69.4689
2195578 15.2783 15.1225 20.7701 17.9255 -1.08557 1.80071 69.0964
2195589 15.3652 15.1973 20.7209 17.8378 -1.10351 1.73527 69.1212
2195598 15.3652 15.1973 20.7209 17.8378 -1.10351 1.73527 69.1212
2195609 15.4696 15.1786 20.6618 17.8281 -1.1299 1.70133 69.1381
2195619 15.3739 15.1973 20.6717 17.8378 -1.0895 1.72371 69.0807
2195639 15.487 15.2253 20.6126 17.7891 -1.11598 1.66887 69.114
2195648 15.4696 15.2626 20.5831 17.867 -1.05626 1.67339 69.1823
2195670 15.5217 15.2533 20.6225 17.7696 -1.12817 1.65188 69.1671
2195681 15.5217 15.2533 20.6225 17.7696 -1.12817 1.65188 69.1671
2195690 15.5478 15.2346 20.6126 17.8183 -1.12243 1.6576 69.2134
2195700 15.6 15.272 20.5929 17.7209 -1.15632 1.61345 69.1858
2195728 15.6 15.2907 20.5732 17.7209 -1.14247 1.60516 69.1848
2195730 15.6348 15.2626 20.6422 17.7891 -1.16301 1.63003 69.3287
2195740 15.6348 15.2626 20.6422 17.7891 -1.16301 1.63003 69.3287
2195750 15.6087 15.2813 20.5929 17.7307 -1.1521 1.61101 69.2136
2195760 15.6087 15.2813 20.5929 17.7307 -1.1521 1.61101 69.2136
2195770 15.5391 15.2253 20.652 17.7794 -1.15125 1.66201 69.1958
2195780 15.5304 15.2159 20.6618 17.8963 -1.11106 1.69074 69.3045
2195802 15.487 15.2066 20.6717 17.8281 -1.12871 1.69226 69.1933
2195811 15.5304 15.1973 20.6815 17.8183 -1.1543 1.68405 69.2276
2195821 15.5304 15.1973 20.6815 17.8183 -1.1543 1.68405 69.2276
2195831 15.4435 15.1412 20.7209 17.9158 -1.12227 1.74483 69.2213
2195851 15.4261 15.1786 20.7111 17.867 -1.11716 1.72878 69.1828
2195862 15.3739 15.1038 20.8587 17.9547 -1.14519 1.80449 69.2912
2195883 15.3304 15.1038 20.7603 17.9742 -1.08888 1.79999 69.1688
2195892 15.3826 15.1132 20.8292 17.9937 -1.1198 1.80191 69.3187
2195916 15.3826 15.1319 20.7701 18.0034 -1.08873 1.78799 69.288
2195922 15.2957 15.1132 20.8292 17.9742 -1.09715 1.81931 69.2122
2195935 15.2957 15.1132 20.8292 17.9742 -1.09715 1.81931 69.2122
2195944 15.3304 15.0665 20.839 18.0132 -1.11547 1.83149 69.2491
2195955 15.3304 15.0665 20.839 18.0132 -1.11547 1.83149 69.2491
2195963 15.2174 15.0478 20.9276 18.0814 -1.08837 1.8933 69.2742
2195976 15.2696 15.0104 20.9768 18.1106 -1.12638 1.90452 69.3674
2195983 15.2696 15.0104 20.9768 18.1106 -1.12638 1.90452 69.3674
2195995 15.2087 15.0104 20.9473 18.1009 -1.0989 1.91195 69.2673
2196003 15.1652 14.9824 20.8981 18.208 -1.03708 1.94036 69.2537
2196015 15.1652 14.9824 20.8981 18.208 -1.03708 1.94036 69.2537
2196023 15.087 15.0198 20.9965 18.2372 -1.01905 1.97439 69.3405
2196036 15.087 15.0198 20.9965 18.2372 -1.01905 1.97439 69.3405
2196044 15.0696 14.9637 21.0064 18.2762 -1.02284 2.00155 69.3159
2196053 15.0609 14.917 21.0851 18.2567 -1.07192 2.02625 69.3197
2196065 15.0609 14.917 21.0851 18.2567 -1.07192 2.02625 69.3197
2196073 14.9826 14.9357 21.0753 18.3249 -1.00884 2.05181 69.3185
2196085 15 14.9357 21.1639 18.4613 -0.994392 2.08942 69.5609
2196098 15 14.8984 21.1639 18.4613 -1.00836 2.09861 69.5235
2196105 14.9565 14.889 21.1639 18.4905 -0.985913 2.11702 69.4999
2196125 14.8174 14.7863 21.1737 18.4321 -1.00158 2.1678 69.2095
2196136 14.8435 14.9077 21.2131 18.4029 -0.989665 2.13317 69.3671
2196146 14.8435 14.9077 21.2131 18.4029 -0.989665 2.13317 69.3671
2196157 14.8261 14.8984 21.154 18.4223 -0.959371 2.13243 69.3008
2196166 14.8261 14.8236 21.1343 18.3834 -0.995201 2.14002 69.1674
2196186 14.7217 14.8423 21.2426 18.4223 -0.974916 2.18859 69.229
2196206 14.7304 14.8049 21.1737 18.4905 -0.942439 2.19558 69.1996
2196217 14.7391 14.8423 21.2131 18.4711 -0.952438 2.18782 69.2656
2196227 14.7391 14.8423 21.2131 18.4711 -0.952438 2.18782 69.2656
2196237 14.7217 14.8516 21.2131 18.4029 -0.96847 2.17719 69.1893
2196247 14.7913 14.8984 21.2525 18.4613 -0.966844 2.16649 69.4034
2196267 14.8609 14.9637 21.1639 18.5295 -0.910372 2.1294 69.518
2196279 14.8435 14.9637 21.2426 18.51 -0.938877 2.14465 69.5599
2196298 14.8609 14.9918 21.2426 18.51 -0.934447 2.13346 69.6053
2196319 14.8087 14.8797 21.1048 18.4029 -0.950548 2.12858 69.196
2196329 14.7826 14.9731 21.1442 18.4223 -0.912896 2.12288 69.3222
2196338 14.7826 14.9731 21.1442 18.4223 -0.912896 2.12288 69.3222
2196354 14.8 14.889 21.095 18.3347 -0.966194 2.11389 69.1186
2196362 14.7652 14.917 21.1147 18.3542 -0.943109 2.12286 69.1511
2196379 14.8174 14.8797 21.0753 18.3931 -0.946961 2.11912 69.1655
2196388 14.8174 14.8797 21.0753 18.3931 -0.946961 2.11912 69.1655
2196400 14.7826 14.9077 21.0556 18.3736 -0.924797 2.1135 69.1195
2196410 14.8696 14.9731 21.1442 18.3931 -0.954002 2.09599 69.3799
2196421 14.8696 14.9731 21.1442 18.3931 -0.954002 2.09599 69.3799
2196430 14.9043 14.9357 21.1048 18.3639 -0.977342 2.08386 69.3088
2196440 14.9043 15.0011 21.095 18.3444 -0.956738 2.06229 69.3448
2196460 14.9913 14.9824 21.0162 18.2665 -0.9958 2.0162 69.2564
2196482 15.0348 14.9544 20.9473 18.2665 -0.997506 1.99947 69.203
2196490 15.0435 14.9824 20.9572 18.2567 -0.997069 1.99047 69.2398
2196502 15.0435 14.9824 20.9572 18.2567 -0.997069 1.99047 69.2398
2196511 15.1304 15.0571 20.8784 18.1106 -1.02675 1.90847 69.1766
2196523 15.1565 15.0385 20.8981 18.1398 -1.03864 1.91591 69.2329
2196531 15.1565 15.0385 20.8981 18.1398 -1.03864 1.91591 69.2329
2196544 15.2261 15.1225 20.8882 18.1301 -1.03137 1.87475 69.3669
2196551 15.2261 15.1225 20.8882 18.1301 -1.03137 1.87475 69.3669
2196561 15.2087 15.0571 20.8292 18.1496 -1.02216 1.88742 69.2446
2196571 15.3478 15.0945 20.78 18.0716 -1.06851 1.82035 69.2939
2196581 15.3478 15.0945 20.78 18.0716 -1.06851 1.82035 69.2939
2196591 15.3652 15.1319 20.7111 18.0424 -1.04765 1.78837 69.2505
2196605 15.4 15.1786 20.6422 18.0619 -1.01096 1.7592 69.2826
2196611 15.4 15.1786 20.6422 18.0619 -1.01096 1.7592 69.2826
2196622 15.4261 15.0665 20.6815 17.984 -1.10514 1.77266 69.1581
2196632 15.4261 15.0665 20.6815 17.984 -1.10514 1.77266 69.1581
2196642 15.4348 15.1692 20.6028 17.984 -1.04219 1.73059 69.1908
2196652 15.4696 15.1599 20.5732 18.0034 -1.04018 1.72251 69.2061
2196672 15.4522 15.1412 20.6126 17.9742 -1.06583 1.73318 69.1802
2196685 15.513 15.1412 20.5437 17.9645 -1.06672 1.70337 69.1624
2196693 15.513 15.1412 20.5437 17.9645 -1.06672 1.70337 69.1624
2196706 15.4348 15.1225 20.6126 17.984 -1.06318 1.74378 69.1539
2196715 15.3478 15.0104 20.5929 17.9937 -1.06485 1.7902 68.9449
2196735 15.3652 15.0385 20.6815 18.1301 -1.03958 1.82213 69.2153
2196746 15.3652 15.0385 20.6815 18.1301 -1.03958 1.82213 69.2153
2196755 15.4087 15.0291 20.6225 18.0034 -1.08545 1.77838 69.0637
2196766 15.4087 15.0571 20.6028 18.1106 -1.02767 1.7883 69.1792
2196775 15.4087 15.0571 20.6028 18.1106 -1.02767 1.7883 69.1792
2196786 15.3739 15.0665 20.6618 18.1203 -1.0289 1.8076 69.2226
2196795 15.4087 15.0571 20.6914 18.1398 -1.04734 1.81076 69.297
2196815 15.3652 15.1505 20.7898 18.1593 -1.02396 1.82107 69.4649
2196826 15.3652 15.1505 20.7898 18.1593 -1.02396 1.82107 69.4649
2196835 15.3391 15.0571 20.7603 18.2178 -1.01785 1.85553 69.3743
2196846 15.2348 15.1132 20.78 18.1691 -0.985795 1.86178 69.297
2196855 15.2348 15.1132 20.78 18.1691 -0.985795 1.86178 69.297
2196865 15.2435 15.0104 20.7406 18.2275 -0.991781 1.88831 69.222
2196875 15.1217 14.9824 20.8587 18.3054 -0.9718 1.96194 69.2683
2196886 15.1217 14.9824 20.8587 18.3054 -0.9718 1.96194 69.2683
2196896 15.0696 14.9637 20.8784 18.3639 -0.94562 1.99399 69.2756
2196915 15.0348 14.8984 20.9178 18.4613 -0.935218 2.04422 69.3122
2196925 14.9304 14.889 21.0556 18.549 -0.917554 2.11421 69.424
2196935 14.9304 14.889 21.0556 18.549 -0.917554 2.11421 69.424
2196945 14.9043 14.889 21.0359 18.5685 -0.894392 2.12061 69.3977
2196955 14.8522 14.889 21.1245 18.6464 -0.877988 2.16431 69.5121
2196965 14.8522 14.8423 21.1245 18.6464 -0.89539 2.17585 69.4654
2196975 14.8087 14.8423 21.095 18.7049 -0.848253 2.19195 69.4508
2196985 14.8087 14.8423 21.095 18.7049 -0.848253 2.19195 69.4508
2197005 14.6783 14.8049 21.1836 18.7828 -0.818603 2.26419 69.4496
2197011 14.6522 14.7115 21.3312 18.8023 -0.888364 2.32451 69.4972
2197016 14.6522 14.7115 21.3312 18.8023 -0.888364 2.32451 69.4972
2197027 14.5478 14.6555 21.3115 18.89 -0.833476 2.37696 69.4048
2197037 14.5217 14.6555 21.3214 18.89 -0.827819 2.38528 69.3886
2197046 14.5217 14.7302 21.3214 18.851 -0.814515 2.35949 69.4243
2197057 14.4522 14.6742 21.3804 18.89 -0.817205 2.40877 69.3968
2197067 14.4522 14.6742 21.3804 18.89 -0.817205 2.40877 69.3968
2197077 14.3913 14.6275 21.4592 18.9582 -0.815439 2.46239 69.4361
2197087 14.4174 14.6088 21.4198 18.9874 -0.806893 2.45869 69.4334
2197097 14.4174 14.6088 21.4198 18.9874 -0.806893 2.45869 69.4334
2197108 14.4 14.6555 21.4296 18.9582 -0.797766 2.44782 69.4433
2197117 14.3391 14.5247 21.4789 18.9484 -0.846013 2.50323 69.2911
2197137 14.4348 14.6181 21.41 18.9484 -0.82054 2.44315 69.4113
2197148 14.4348 14.6181 21.41 18.9484 -0.82054 2.44315 69.4113
2197157 14.4087 14.5808 21.4986 18.9289 -0.863455 2.47159 69.417
2197169 14.4609 14.5808 21.5281 18.9971 -0.866453 2.47609 69.5669
2197189 14.4087 14.5995 21.5084 18.9776 -0.841793 2.47745 69.4942
2197199 14.4435 14.5995 21.4986 18.89 -0.883104 2.45111 69.4314
2197208 14.4435 14.5995 21.4986 18.89 -0.883104 2.45111 69.4314
2197219 14.4261 14.5901 21.5084 18.89 -0.883967 2.45961 69.4146
2197247 14.3913 14.4874 21.4395 18.89 -0.886261 2.48182 69.2081
2197249 14.3826 14.5434 21.4198 18.8802 -0.859058 2.46454 69.226
2197259 14.3826 14.5434 21.4198 18.8802 -0.859058 2.46454 69.226
2197269 14.513 14.5714 21.3706 18.9289 -0.858723 2.42456 69.384
2197279 14.4696 14.5341 21.4296 18.8218 -0.918119 2.43617 69.2551
2197288 14.4696 14.5341 21.4296 18.8218 -0.918119 2.43617 69.2551
2197299 14.4696 14.5901 21.3804 18.8413 -0.872755 2.41667 69.2814
2197318 14.4609 14.5527 21.3903 18.89 -0.868917 2.43888 69.2939
2197330 14.4522 14.6368 21.4592 18.9289 -0.844018 2.43947 69.4771
2197341 14.4522 14.6368 21.4592 18.9289 -0.844018 2.43947 69.4771
2197350 14.4609 14.6088 21.41 18.8997 -0.851233 2.43012 69.3793
2197360 14.4957 14.5995 21.4198 18.89 -0.87387 2.42375 69.4049
2197370 14.4957 14.5995 21.4198 18.89 -0.87387 2.42375 69.4049
2197380 14.4609 14.5901 21.4493 18.8413 -0.893705 2.43136 69.3416
2197400 14.513 14.6181 21.3607 18.8413 -0.870575 2.39514 69.3332
2197410 14.5304 14.6088 21.4198 18.8705 -0.889738 2.40915 69.4295
2197420 14.5304 14.6088 21.4198 18.8705 -0.889738 2.40915 69.4295
2197430 14.5565 14.6275 21.4296 18.851 -0.902507 2.39618 69.4646
2197441 14.5043 14.6088 21.3607 18.8218 -0.878307 2.39612 69.2957
2197451 14.5043 14.6088 21.3607 18.8218 -0.878307 2.39612 69.2957
2197461 14.5304 14.5247 21.4493 18.8023 -0.956886 2.42324 69.3068
2197471 14.5304 14.5247 21.4493 18.8023 -0.956886 2.42324 69.3068
2197481 14.4348 14.5434 21.469 18.8315 -0.912577 2.45148 69.2787
2197491 14.4522 14.5714 21.4789 18.8607 -0.900641 2.44712 69.3632
2197511 14.4522 14.506 21.5478 18.9776 -0.905339 2.49711 69.4836
2197523 14.4783 14.4593 21.5379 19.0166 -0.913855 2.50754 69.4921
2197543 14.3217 14.5527 21.6757 19.0069 -0.876205 2.54643 69.5571
2197554 14.3217 14.5527 21.6757 19.0069 -0.876205 2.54643 69.5571
2197562 14.4 14.4967 21.6265 18.9192 -0.939851 2.51626 69.4424
2197574 14.3826 14.506 21.597 18.8705 -0.938295 2.50421 69.3561
2197584 14.3826 14.506 21.597 18.8705 -0.938295 2.50421 69.3561
2197593 14.4174 14.5247 21.6364 18.8607 -0.960657 2.49607 69.4392
2197603 14.3565 14.422 21.6757 18.9095 -0.973427 2.55322 69.3637
2197630 14.4087 14.4407 21.6561 18.8997 -0.981329 2.53002 69.4051
2197649 14.4 14.4593 21.7053 18.8413 -1.01024 2.52584 69.4059
2197652 14.4 14.4593 21.7053 18.8413 -1.01024 2.52584 69.4059
2197654 14.3913 14.4967 21.6856 18.7925 -1.00468 2.50629 69.3661
2197665 14.3913 14.4967 21.6856 18.7925 -1.00468 2.50629 69.3661
2197675 14.4522 14.45 21.6561 18.7828 -1.03669 2.49564 69.341
2197685 14.4261 14.4407 21.6954 18.7828 -1.04479 2.51168 69.345
2197695 14.4261 14.4407 21.6954 18.7828 -1.04479 2.51168 69.345
2197705 14.4696 14.478 21.6462 18.8023 -1.02148 2.48593 69.3961
2197716 14.4261 14.478 21.7643 18.8218 -1.03994 2.52165 69.4902
2197725 14.4261 14.478 21.7643 18.8218 -1.03994 2.52165 69.4902
2197735 14.4783 14.4874 21.7742 18.8413 -1.05051 2.51142 69.5811
2197745 14.4783 14.4874 21.7742 18.8413 -1.05051 2.51142 69.5811
2197755 14.4522 14.422 21.7348 18.7731 -1.07806 2.51514 69.382
2197765 14.4174 14.4126 21.8234 18.8023 -1.08913 2.54745 69.4557
2197775 14.4174 14.4126 21.8234 18.8023 -1.08913 2.54745 69.4557
2197786 14.3826 14.422 21.725 18.7633 -1.05431 2.5292 69.2929
2197795 14.313 14.3566 21.725 18.7633 -1.05486 2.56341 69.1579
2197815 14.3478 14.3379 21.7643 18.8802 -1.04356 2.58736 69.3303
2197828 14.3478 14.3379 21.7643 18.8802 -1.04356 2.58736 69.3303
2197836 14.3217 14.3099 21.784 18.89 -1.04822 2.60636 69.3056
2197847 14.3217 14.3286 21.8332 18.9095 -1.05088 2.61389 69.393
2197857 14.3217 14.3286 21.8332 18.9095 -1.05088 2.61389 69.393
2197867 14.3217 14.2912 21.8037 18.8997 -1.05838 2.61637 69.3164
2197877 14.3217 14.2725 21.8332 18.9289 -1.06461 2.6316 69.3564
2197888 14.3217 14.2725 21.8332 18.9289 -1.06461 2.6316 69.3564
2197898 14.3652 14.3005 21.8628 18.9192 -1.08292 2.61698 69.4477
2197910 14.3652 14.3005 21.8628 18.9192 -1.08292 2.61698 69.4477
2197917 14.4 14.3566 21.8628 18.9582 -1.05926 2.60091 69.5775
2197930 14.3913 14.3846 21.8135 18.8997 -1.05071 2.57681 69.4892
2197937 14.3913 14.3846 21.8135 18.8997 -1.05071 2.57681 69.4892
2197951 14.4261 14.3846 21.8332 18.8218 -1.09872 2.55759 69.4657
2197957 14.4087 14.3566 21.8037 18.8607 -1.07845 2.57077 69.4297
2197972 14.4087 14.3566 21.8037 18.8607 -1.07845 2.57077 69.4297
2197979 14.4 14.4407 21.8332 18.8218 -1.0687 2.55002 69.4957
2197989 14.4174 14.3659 21.8135 18.8023 -1.1033 2.55749 69.3992
2197999 14.4174 14.3659 21.8135 18.8023 -1.1033 2.55749 69.3992
2198011 14.4174 14.3286 21.8135 18.8802 -1.08804 2.5809 69.4397
2198031 14.4 14.3659 21.8234 18.7536 -1.11903 2.55492 69.3429
2198040 14.4261 14.4033 21.8135 18.851 -1.07396 2.55458 69.4939
2198053 14.4261 14.4033 21.8135 18.851 -1.07396 2.55458 69.4939
2198060 14.3826 14.3566 21.7939 18.7828 -1.09537 2.56163 69.3159
2198074 14.4435 14.3286 21.8037 18.8218 -1.11561 2.56207 69.3975
2198091 14.4522 14.3659 21.784 18.8023 -1.1051 2.5434 69.4044
2198101 14.4174 14.3379 21.8332 18.851 -1.1023 2.57683 69.4395
2198114 14.4174 14.3379 21.8332 18.851 -1.1023 2.57683 69.4395
2198121 14.4 14.3473 21.8726 18.8218 -1.11734 2.58069 69.4416
2198131 14.4 14.3473 21.8726 18.8218 -1.11734 2.58069 69.4416
2198141 14.3565 14.3566 21.8726 18.7633 -1.12086 2.57887 69.3491
2198155 14.3826 14.3566 21.9218 18.7633 -1.14676 2.58107 69.4244
2198175 14.3913 14.422 21.9317 18.7244 -1.14318 2.55712 69.4693
2198182 14.4087 14.3846 21.8825 18.6562 -1.17203 2.5411 69.3319
2198192 14.4087 14.3846 21.8825 18.6562 -1.17203 2.5411 69.3319
2198202 14.4174 14.3566 21.8825 18.7244 -1.15987 2.55824 69.3808
2198212 14.4174 14.3566 21.8825 18.7244 -1.15987 2.55824 69.3808
2198222 14.4087 14.422 21.8628 18.6756 -1.14383 2.53162 69.3691
2198235 14.4174 14.4593 21.971 18.6659 -1.17358 2.53768 69.5137
2198255 14.4087 14.506 21.8923 18.5977 -1.15167 2.50169 69.4047
2198262 14.3739 14.5434 21.9809 18.6075 -1.15241 2.51872 69.5057
2198272 14.3739 14.5434 21.9809 18.6075 -1.15241 2.51872 69.5057
2198290 14.4174 14.5341 22.0203 18.6367 -1.17332 2.52243 69.6084
2198295 14.4174 14.5341 22.0203 18.6367 -1.17332 2.52243 69.6084
2198303 14.4696 14.5247 21.9809 18.6269 -1.18488 2.50284 69.6021
2198316 14.4348 14.5621 21.9514 18.5977 -1.15979 2.49163 69.5459
2198333 14.513 14.5901 21.9317 18.4711 -1.217 2.43855 69.5059
2198345 14.4696 14.5247 21.8825 18.5782 -1.16949 2.47636 69.455
2198365 14.4696 14.5247 21.9415 18.5393 -1.20443 2.47999 69.4751
2198378 14.4696 14.5247 21.9415 18.5393 -1.20443 2.47999 69.4751
2198385 14.4 14.4313 21.9218 18.6075 -1.18333 2.52981 69.3606
2198395 14.3478 14.4967 21.971 18.549 -1.1797 2.52482 69.3646
2198405 14.3478 14.4967 21.971 18.549 -1.1797 2.52482 69.3646
2198415 14.3739 14.4967 21.971 18.5977 -1.17029 2.52698 69.4394
2198425 14.3739 14.4593 22.0104 18.6367 -1.18318 2.55047 69.4803
2198438 14.3739 14.4593 22.0104 18.6367 -1.18318 2.55047 69.4803
2198445 14.3478 14.5154 22.0104 18.7146 -1.12385 2.55686 69.5882
2198466 14.2783 14.394 22.0301 18.6756 -1.16708 2.60173 69.378
2198479 14.2609 14.3473 22.0793 18.7731 -1.15889 2.64415 69.4605
2198486 14.2609 14.3473 22.0793 18.7731 -1.15889 2.64415 69.4605
2198499 14.1826 14.3846 22.099 18.8023 -1.11371 2.66324 69.4685
2198506 14.1391 14.3566 22.1089 18.9289 -1.06512 2.70562 69.5335
2198526 14.1043 14.2725 22.099 18.89 -1.09595 2.7273 69.3659
2198536 14.1043 14.2725 22.099 18.89 -1.09595 2.7273 69.3659
2198546 14.0609 14.2445 22.1285 18.9679 -1.07238 2.76457 69.4018
2198556 14.0435 14.2912 22.1285 18.9874 -1.04154 2.76051 69.4506
2198576 14.0261 14.2725 22.1285 18.9679 -1.04986 2.7663 69.3951
2198586 14.0174 14.2538 22.099 18.9582 -1.04733 2.76639 69.3284
2198607 13.9913 14.2819 22.1384 18.9484 -1.04505 2.77112 69.36
2198617 13.9913 14.2819 22.1384 18.9484 -1.04505 2.77112 69.36
2198627 13.9739 14.2258 22.1089 19.0653 -1.00601 2.80533 69.3739
2198637 13.9478 14.2819 22.2171 19.0848 -1.00612 2.82007 69.5316
2198647 13.9478 14.2819 22.2171 19.0848 -1.00612 2.82007 69.5316
2198660 13.9913 14.2538 22.1187 19.153 -0.972119 2.81081 69.5169
2198667 13.9565 14.2725 22.2073 19.0556 -1.02015 2.81339 69.4919
2198687 13.9739 14.2912 22.1581 19.0751 -0.994883 2.79892 69.4983
2198701 13.9739 14.2912 22.1581 19.0751 -0.994883 2.79892 69.4983
2198707 13.9652 14.2632 22.1187 19.0556 -0.99605 2.79799 69.4027
2198717 13.9304 14.3753 22.1384 19.1043 -0.930738 2.79021 69.5484
2198737 14.0261 14.3286 22.1581 19.0653 -1.00257 2.77431 69.5781
2198747 14.0522 14.4033 22.1384 19.0946 -0.965983 2.75027 69.6884
2198761 14.0522 14.4033 22.1384 19.0946 -0.965983 2.75027 69.6884
2198768 14.0435 14.4407 22.1187 19.0361 -0.964053 2.72922 69.6389
2198789 14.0174 14.4126 22.04 19.0069 -0.949177 2.72396 69.4769
2198800 14.0261 14.4593 22.0892 18.9971 -0.95541 2.71681 69.5717
2198809 14.0261 14.4593 22.0892 18.9971 -0.95541 2.71681 69.5717
2198818 14.0609 14.422 21.9809 18.9679 -0.954852 2.69314 69.4316
2198828 14.0609 14.4687 22.0203 18.9971 -0.940126 2.6934 69.547
2198839 14.0609 14.4687 22.0203 18.9971 -0.940126 2.6934 69.547
2198848 14.0174 14.45 22.0498 19.0361 -0.927736 2.72133 69.5533
2198859 14.0174 14.45 22.0498 19.0361 -0.927736 2.72133 69.5533
2198868 13.9913 14.3846 22.0301 19.114 -0.907202 2.75494 69.5201
2198878 13.9739 14.422 22.1089 19.0751 -0.929052 2.75684 69.5798
2198889 13.9739 14.422 22.1089 19.0751 -0.929052 2.75684 69.5798
2198907 13.9565 14.394 22.0301 19.0069 -0.931652 2.74254 69.3875
2198916 13.913 14.3846 22.0793 19.0653 -0.915302 2.77504 69.4423
2198927 13.913 14.3846 22.0793 19.0653 -0.915302 2.77504 69.4423
2198934 13.887 14.3659 22.1187 19.0361 -0.9378 2.78829 69.4077
2198940 13.887 14.3659 22.1187 19.0361 -0.9378 2.78829 69.4077
2198950 13.9391 14.3846 21.9612 19.0166 -0.901531 2.73892 69.3016
2198960 13.9304 14.3286 22.0104 18.9387 -0.965784 2.75042 69.2081
2198971 13.9304 14.3286 22.0104 18.9387 -0.965784 2.75042 69.2081
2198980 13.9739 14.4407 21.9907 19.0653 -0.884785 2.72953 69.4706
2198990 13.9913 14.4033 21.971 18.9679 -0.934306 2.71391 69.3336
2199010 14.0348 14.4874 21.9907 19.0556 -0.892131 2.7004 69.5685
2199020 14.0348 14.4874 21.9907 19.0556 -0.892131 2.7004 69.5685
2199030 13.9391 14.478 21.912 18.9776 -0.864074 2.69941 69.3068
2199040 14.0261 14.5621 21.9415 18.9776 -0.873241 2.66108 69.5073
2199060 14.0783 14.5901 21.8529 18.8997 -0.879186 2.61108 69.421
2199074 14.087 14.5714 21.8923 18.9289 -0.891951 2.62584 69.4796
2199081 14.087 14.5714 21.8923 18.9289 -0.891951 2.62584 69.4796
2199091 14.0957 14.5621 21.8726 18.9582 -0.880723 2.62771 69.4885
2199111 14.1217 14.5434 21.7939 18.8607 -0.905746 2.59438 69.3197
2199121 14.2 14.5901 21.725 18.851 -0.895196 2.54862 69.3661
2199135 14.2 14.5901 21.725 18.851 -0.895196 2.54862 69.3661
2199141 14.3043 14.6462 21.7151 18.6951 -0.965308 2.47829 69.3607
2199151 14.287 14.5901 21.7348 18.7341 -0.972496 2.50739 69.346
2199171 14.4 14.5901 21.6954 18.6854 -1.01625 2.463 69.3709
2199182 14.4 14.5901 21.6954 18.6854 -1.01625 2.463 69.3709
2199192 14.3913 14.5341 21.597 18.6269 -1.02217 2.4509 69.1493
2199202 14.5217 14.5901 21.6265 18.5977 -1.06743 2.40403 69.3361
2199218 14.5217 14.5901 21.6265 18.5977 -1.06743 2.40403 69.3361
2199222 14.6348 14.6368 21.5478 18.5295 -1.08734 2.33725 69.3489
2199234 14.687 14.6555 21.5281 18.5393 -1.08785 2.31773 69.4098
2199256 14.7043 14.5995 21.5773 18.5003 -1.14653 2.32925 69.3814
2199265 14.6957 14.6555 21.597 18.4613 -1.14387 2.31391 69.4095
2199277 14.6957 14.6555 21.597 18.4613 -1.14387 2.31391 69.4095
2199285 14.7304 14.6929 21.5576 18.4418 -1.13556 2.28516 69.4227
2199298 14.7304 14.6929 21.5576 18.4418 -1.13556 2.28516 69.4227
2199305 14.6783 14.6462 21.5576 18.3736 -1.16094 2.29732 69.2557
2199315 14.8 14.6275 21.4986 18.3736 -1.18956 2.26077 69.2997
2199326 14.8 14.6275 21.4986 18.3736 -1.18956 2.26077 69.2997
2199337 14.7652 14.6648 21.4592 18.4029 -1.13891 2.25826 69.2921
2199346 14.7478 14.6835 21.4887 18.4029 -1.13604 2.26337 69.3229
2199366 14.8087 14.7302 21.4789 18.4321 -1.125 2.24018 69.4499
2199378 14.7478 14.7209 21.5182 18.3444 -1.15416 2.24875 69.3314
2199397 14.7652 14.7022 21.5871 18.4808 -1.13948 2.28672 69.5354
2199407 14.7652 14.7022 21.5871 18.4808 -1.13948 2.28672 69.5354
2199417 14.7913 14.7396 21.4986 18.4029 -1.13327 2.24043 69.4323
2199430 14.8348 14.7022 21.4789 18.4029 -1.15552 2.23529 69.4187
2199437 14.8348 14.7022 21.4789 18.4029 -1.15552 2.23529 69.4187
2199447 14.8435 14.7676 21.3607 18.286 -1.1373 2.17354 69.2578
2199457 14.8435 14.7489 21.3804 18.2665 -1.1585 2.17821 69.2393
2199467 14.8435 14.7489 21.3804 18.2665 -1.1585 2.17821 69.2393
2199478 14.8348 14.8049 21.3017 18.2275 -1.1219 2.14463 69.1689
2199487 14.8348 14.8049 21.3017 18.2275 -1.1219 2.14463 69.1689
2199498 14.8522 14.7769 21.282 18.1885 -1.14643 2.13636 69.0996
2199507 14.8609 14.833 21.2525 18.1593 -1.12909 2.10937 69.1056
2199518 14.8609 14.833 21.2525 18.1593 -1.12909 2.10937 69.1056
2199527 14.887 14.8143 21.2328 18.2275 -1.11259 2.11658 69.1615
2199539 14.9565 14.8797 21.2032 18.208 -1.10909 2.0741 69.2475
2199547 14.9565 14.8797 21.2032 18.208 -1.10909 2.0741 69.2475
2199559 14.9826 14.9357 21.2918 18.1496 -1.1495 2.0595 69.3597
2199575 14.9826 14.9357 21.2918 18.1496 -1.1495 2.0595 69.3597
2199578 15 14.889 21.2525 18.1885 -1.14485 2.06664 69.33
2199588 15.0609 14.9544 21.2918 18.1496 -1.16934 2.03569 69.4567
2199599 15.0609 14.9544 21.2918 18.1496 -1.16934 2.03569 69.4567
2199608 15.0783 14.9731 21.154 18.0911 -1.14295 1.9901 69.2965
2199620 15.0609 14.9451 21.1343 18.1691 -1.11136 2.01217 69.3093
2199629 15.0609 14.9451 21.1343 18.1691 -1.11136 2.01217 69.3093
2199641 15.1304 15.0011 21.0654 18.0327 -1.14189 1.94279 69.2296
2199658 15.1652 14.9264 21.1048 18.0034 -1.20673 1.95448 69.1998
2199669 15.1478 14.9357 21.0753 17.9937 -1.19073 1.94905 69.1525
2199679 15.1478 14.9357 21.0753 17.9937 -1.19073 1.94905 69.1525
2199688 15.1391 14.9544 21.1245 18.0327 -1.18286 1.96322 69.2507
2199699 15.0783 14.9824 21.095 18.0034 -1.15219 1.9602 69.1591
2199720 15.1217 14.9731 21.1934 17.9742 -1.21561 1.96487 69.2624
2199740 15.1043 15.0478 21.095 17.9352 -1.16224 1.92492 69.1824
2199751 15.113 15.0571 21.0753 18.0229 -1.12182 1.93335 69.2684
2199760 15.113 15.0571 21.0753 18.0229 -1.12182 1.93335 69.2684
2199770 15.1043 15.0758 21.1737 18.0229 -1.14567 1.94945 69.3768
2199780 15.087 15.0198 21.1639 18.0814 -1.13539 1.97655 69.352
2199790 15.087 15.0198 21.1639 18.0814 -1.13539 1.97655 69.352
2199800 15.0609 15.0291 21.2131 18.1009 -1.13249 1.99354 69.4039
2199810 15.0609 15.0291 21.2131 18.1009 -1.13249 1.99354 69.4039
2199820 14.9739 15.0665 21.1737 18.1203 -1.06758 2.00196 69.3345
2199830 15.0087 14.9824 21.2328 18.0911 -1.14259 2.01964 69.315
2199856 14.9826 15.0104 21.1934 18.1301 -1.09479 2.0191 69.3165
2199870 14.913 14.9731 21.1934 18.1009 -1.09587 2.03991 69.1804
2199880 14.9652 14.9918 21.282 18.1301 -1.12635 2.04452 69.369
2199901 14.8957 14.9637 21.2721 18.1788 -1.0912 2.07578 69.3103
2199911 14.8348 14.9357 21.3411 18.1301 -1.12289 2.10148 69.2416
2199931 14.8957 14.9077 21.3706 18.2275 -1.12787 2.11698 69.4014
2199941 14.8087 14.9918 21.4198 18.1788 -1.10158 2.11778 69.3991
2199951 14.8087 14.9918 21.4198 18.1788 -1.10158 2.11778 69.3991
2199962 14.8 14.917 21.41 18.247 -1.09765 2.1492 69.374
2199971 14.8 14.917 21.41 18.247 -1.09765 2.1492 69.374
2199981 14.7913 14.9264 21.4198 18.2762 -1.08355 2.15628 69.4137
2199992 14.8174 14.917 21.4296 18.2957 -1.09211 2.15756 69.4598
2200001 14.8174 14.917 21.4296 18.2957 -1.09211 2.15756 69.4598
2200013 14.8261 14.9357 21.4395 18.2275 -1.1171 2.14 69.4288
2200022 14.7391 14.8423 21.4592 18.247 -1.12178 2.19189 69.2876
2200042 14.7391 14.8797 21.4198 18.2957 -1.07579 2.18435 69.3343
2200062 14.7391 14.833 21.41 18.1788 -1.13407 2.17247 69.1609
2200075 14.7652 14.8516 21.4986 18.3152 -1.11512 2.20296 69.4306
2200084 14.7652 14.8516 21.4986 18.3152 -1.11512 2.20296 69.4306
2200105 14.6261 14.8516 21.4493 18.3054 -1.05381 2.22664 69.2325
2200106 14.687 14.7863 21.4986 18.3542 -1.09811 2.2458 69.3259
2200125 14.6783 14.8703 21.4493 18.3639 -1.04285 2.2198 69.3618
2200145 14.6609 14.833 21.41 18.3444 -1.04459 2.22256 69.2482
2200155 14.713 14.861 21.4789 18.3444 -1.07587 2.21534 69.3973
2200165 14.713 14.861 21.4789 18.3444 -1.07587 2.21534 69.3973
2200176 14.7478 14.9077 21.4296 18.3249 -1.06067 2.18248 69.4101
2200186 14.6957 14.8797 21.4198 18.3249 -1.04979 2.20053 69.3201
2200195 14.6957 14.8797 21.4198 18.3249 -1.04979 2.20053 69.3201
2200211 14.7478 14.8984 21.4296 18.3542 -1.05321 2.19018 69.43
2200226 14.6522 14.8797 21.4296 18.3249 -1.03816 2.21315 69.2864
2200235 14.6609 14.8423 21.469 18.3736 -1.05051 2.2365 69.3458
2200246 14.6609 14.8423 21.469 18.3736 -1.05051 2.2365 69.3458
2200255 14.6261 14.889 21.4296 18.3639 -1.011 2.22449 69.3086
2200267 14.6696 14.917 21.469 18.3347 -1.04009 2.20861 69.3903
2200287 14.6348 14.9077 21.4493 18.3249 -1.02843 2.21414 69.3167
2200308 14.6435 14.8236 21.5084 18.3347 -1.07978 2.24555 69.3102
2200316 14.6783 14.8797 21.4198 18.3931 -1.01818 2.21743 69.3709
2200329 14.6783 14.8797 21.4198 18.3931 -1.01818 2.21743 69.3709
2200336 14.6174 14.8797 21.41 18.4029 -0.990051 2.23253 69.3099
2200346 14.6261 14.889 21.469 18.3444 -1.03193 2.22816 69.3285
2200366 14.6957 14.8797 21.4789 18.4223 -1.03362 2.22936 69.4765
2200376 14.6348 14.8516 21.4887 18.4126 -1.03017 2.25145 69.3877
2200386 14.6348 14.8516 21.4887 18.4126 -1.03017 2.25145 69.3877
2200396 14.5826 14.7769 21.4789 18.51 -1.00021 2.29912 69.3484
2200406 14.5826 14.7769 21.4789 18.51 -1.00021 2.29912 69.3484
2200416 14.5826 14.7769 21.5281 18.4126 -1.05381 2.29029 69.3002
2200426 14.5913 14.8984 21.5281 18.4321 -1.00394 2.26146 69.4498
2200450 14.5913 14.8049 21.4986 18.3931 -1.0434 2.27213 69.2879
2200457 14.5217 14.8516 21.469 18.3931 -0.991538 2.27241 69.2355
2200477 14.5391 14.8797 21.4789 18.4418 -0.972207 2.27184 69.3395
2200499 14.5304 14.8516 21.6167 18.4516 -1.02371 2.30802 69.4503
2200512 14.5043 14.8797 21.5478 18.51 -0.958508 2.30562 69.4418
2200519 14.5043 14.8797 21.5478 18.51 -0.958508 2.30562 69.4418
2200529 14.5565 14.889 21.5281 18.3931 -1.01002 2.26528 69.3667
2200538 14.5478 14.8984 21.5281 18.4029 -0.99986 2.26691 69.3771
2200558 14.5826 14.9357 21.5675 18.4126 -1.00785 2.25798 69.4984
2200572 14.5826 14.9357 21.5675 18.4126 -1.00785 2.25798 69.4984
2200579 14.5652 14.8797 21.4986 18.4223 -0.995357 2.26538 69.3658
2200592 14.6087 14.9264 21.4198 18.4126 -0.9693 2.22669 69.3675
2200598 14.6087 14.9264 21.4198 18.4126 -0.9693 2.22669 69.3675
2200612 14.6609 14.9264 21.4395 18.2567 -1.05265 2.18861 69.2835
2200619 14.687 14.8984 21.3214 18.2957 -1.01668 2.17444 69.2024
2200629 14.687 14.8984 21.3214 18.2957 -1.01668 2.17444 69.2024
2200639 14.7043 14.8703 21.3706 18.247 -1.06862 2.17717 69.1923
2200648 14.7043 14.8703 21.3706 18.247 -1.06862 2.17717 69.1923
2200658 14.7565 15.0011 21.282 18.208 -1.02148 2.10817 69.2476
2200669 14.8174 14.9824 21.1836 18.1885 -1.02281 2.07576 69.1719
2200678 14.8174 14.9824 21.1836 18.1885 -1.02281 2.07576 69.1719
2200690 14.9739 15.0478 21.2032 18.0911 -1.09579 2.0066 69.3161
2200700 15.0261 15.0852 21.095 18.1106 -1.05504 1.96799 69.3168
2200710 15.0261 15.0852 21.095 18.1106 -1.05504 1.96799 69.3168
2200720 15.087 15.1038 21.154 18.0521 -1.11135 1.94865 69.397
2200730 15.087 15.1038 21.154 18.0521 -1.11135 1.94865 69.397
2200740 15.0783 15.0852 21.1048 18.0034 -1.11678 1.9369 69.2717
2200750 15.0609 15.0852 21.0851 17.9255 -1.13341 1.92272 69.1567
2200760 15.0609 15.0852 21.0851 17.9255 -1.13341 1.92272 69.1567
2200770 15.1739 15.1692 21.0261 17.906 -1.12765 1.85974 69.2752
2200780 15.1739 15.1692 21.0261 17.906 -1.12765 1.85974 69.2752
2200790 15.1826 15.1132 20.9375 17.7989 -1.16179 1.83404 69.0321
2200800 15.2522 15.1505 20.9276 17.867 -1.14246 1.81913 69.1974
2200810 15.2522 15.1505 20.9276 17.867 -1.14246 1.81913 69.1974
2200820 15.2087 15.2159 20.8882 17.8963 -1.07816 1.81188 69.2092
2200829 15.2 15.2533 20.9572 17.8768 -1.09221 1.81433 69.2872
2200851 15.2783 15.2346 21.0064 17.9352 -1.12115 1.82034 69.4545
2200861 15.2783 15.2346 20.9276 17.9352 -1.09405 1.80538 69.3757
2200871 15.2348 15.1692 20.9276 17.867 -1.1294 1.81882 69.1987
2200881 15.287 15.1786 20.9375 17.8768 -1.14357 1.80761 69.2798
2200902 15.3043 15.1599 20.8193 17.8573 -1.12325 1.78167 69.1409
2200911 15.3391 15.2066 20.8193 17.8768 -1.11027 1.76564 69.2419
2200923 15.3391 15.2066 20.8193 17.8768 -1.11027 1.76564 69.2419
2200931 15.313 15.2346 20.8095 17.8183 -1.10935 1.7521 69.1755
2200944 15.2348 15.1692 20.7701 17.867 -1.07495 1.78875 69.0412
2200952 15.2348 15.1692 20.7701 17.867 -1.07495 1.78875 69.0412
2200962 15.2696 15.2253 20.8686 17.9352 -1.07419 1.79851 69.2986
2200985 15.2609 15.244 20.967 17.906 -1.10911 1.80926 69.3778
2200993 15.2435 15.244 20.8686 17.906 -1.06915 1.79474 69.262
2201006 15.2435 15.244 20.8686 17.906 -1.06915 1.79474 69.262
2201013 15.3217 15.2066 20.8193 17.945 -1.07858 1.78287 69.2927
2201023 15.3565 15.244 20.8193 17.8476 -1.1132 1.7468 69.2674
2201044 15.2609 15.2533 20.8095 17.867 -1.0659 1.76954 69.1907
2201055 15.2609 15.2533 20.8193 17.867 -1.06931 1.77142 69.2006
2201065 15.2609 15.2533 20.8193 17.8768 -1.06564 1.77328 69.2103
2201075 15.2348 15.2533 20.9276 17.9158 -1.07936 1.80769 69.3315
2201085 15.2348 15.2533 20.9276 17.9158 -1.07936 1.80769 69.3315
2201095 15.1913 15.2533 20.8981 17.906 -1.05781 1.81076 69.2487
2201105 15.2609 15.3093 20.8587 17.9158 -1.04351 1.77467 69.3447
2201125 15.2348 15.3 20.8686 17.945 -1.03043 1.79069 69.3483
2201135 15.2435 15.2626 20.8882 17.984 -1.03964 1.8088 69.3783
2201145 15.2435 15.2626 20.8882 17.984 -1.03964 1.8088 69.3783
2201155 15.1913 15.2813 20.8784 18.0132 -1.00023 1.8206 69.3642
2201165 15.1913 15.2813 20.8784 18.0132 -1.00023 1.8206 69.3642
2201175 15.2087 15.2533 20.7997 17.8865 -1.03709 1.78404 69.1482
2201185 15.1913 15.272 20.78 17.8476 -1.03187 1.7725 69.0908
2201195 15.1913 15.272 20.78 17.8476 -1.03187 1.7725 69.0908
2201205 15.1565 15.3187 20.7898 17.867 -0.998308 1.77522 69.1321
2201216 15.1304 15.3187 20.7701 17.906 -0.967757 1.78524 69.1253
2201229 15.1304 15.2066 20.7701 17.906 -1.00993 1.8125 69.0132
2201236 15.1652 15.2159 20.839 17.9352 -1.0314 1.82049 69.1554
2201256 15.113 15.272 20.8882 17.9937 -0.987343 1.84004 69.267
2201266 15.1391 15.2626 20.8784 18.0327 -0.981863 1.8415 69.3128
2201286 15.1478 15.272 20.9473 18.0521 -0.997923 1.85388 69.4193
2201306 15.1391 15.2813 20.9473 18.0132 -1.00602 1.84634 69.3809
2201317 15.0783 15.2626 20.9867 18.0911 -0.97639 1.88787 69.4187
2201326 15.0783 15.2626 20.9867 18.0911 -0.97639 1.88787 69.4187
2201337 15.0435 15.2626 21.0064 18.0619 -0.982106 1.89454 69.3744
2201346 15.0348 15.1412 20.9867 18.0619 -1.01783 1.92257 69.2246
2201356 15.0348 15.1412 20.9867 18.0619 -1.01783 1.92257 69.2246
2201366 14.9739 15.1599 21.0162 18.1106 -0.981668 1.94765 69.2606
2201376 14.9739 15.1599 21.0162 18.1106 -0.981668 1.94765 69.2606
2201386 14.887 15.1038 21.095 18.2372 -0.952362 2.02128 69.323
2201396 14.8696 15.1225 21.1245 18.2178 -0.956872 2.02284 69.3344
2201417 14.8174 15.1599 21.1442 18.208 -0.935265 2.02834 69.3295
2201428 14.8087 15.1132 21.2328 18.1885 -0.987746 2.05487 69.3432
2201437 14.8087 15.1132 21.2328 18.1885 -0.987746 2.05487 69.3432
2201448 14.7478 15.1038 21.2426 18.2567 -0.948028 2.0867 69.351
2201458 14.7391 15.1412 21.2229 18.2275 -0.935137 2.07053 69.3308
2201475 14.7391 15.1412 21.2229 18.2275 -0.935137 2.07053 69.3308
2201482 14.687 15.1599 21.2426 18.2567 -0.905943 2.0879 69.3462
2201491 14.687 15.1599 21.2426 18.2567 -0.905943 2.0879 69.3462
2201499 14.6609 15.1038 21.3017 18.2762 -0.931062 2.12276 69.3426
2201509 14.6609 15.1132 21.2721 18.2275 -0.935537 2.10591 69.2737
2201529 14.6522 15.1412 21.3411 18.2275 -0.945951 2.11395 69.3619
2201539 14.7043 15.1879 21.2918 18.2762 -0.91133 2.08949 69.4603
2201549 14.7043 15.1879 21.2918 18.2762 -0.91133 2.08949 69.4603
2201559 14.713 15.1412 21.282 18.3639 -0.895658 2.1133 69.5001
2201580 14.6957 15.1599 21.2426 18.2372 -0.916246 2.08212 69.3354
2201590 14.687 15.1599 21.3017 18.2567 -0.926448 2.09888 69.4053
2201600 14.687 15.1599 21.3017 18.2567 -0.926448 2.09888 69.4053
2201610 14.7565 15.1319 21.2426 18.3054 -0.922363 2.08673 69.4364
2201622 14.6957 15.1132 21.3312 18.2178 -0.971742 2.1065 69.3578
2201643 14.687 15.1412 21.2525 18.2372 -0.923631 2.0907 69.3179
2201662 14.7826 15.1692 21.2229 18.208 -0.947024 2.04931 69.3828
2201671 14.8087 15.0945 21.2426 18.1983 -0.994508 2.06312 69.3441
2201691 14.7652 15.1319 21.2229 18.1203 -0.987841 2.04639 69.2404
2201703 14.8087 15.2253 21.2426 18.2372 -0.931035 2.03828 69.5138
2201713 14.8087 15.2253 21.2426 18.2372 -0.931035 2.03828 69.5138
2201725 14.8348 15.2253 21.2032 18.1106 -0.973763 2.00085 69.3739
2201735 14.8435 15.2066 21.1245 18.1106 -0.956471 1.98853 69.2852
2201742 14.8435 15.2066 21.1245 18.1106 -0.956471 1.98853 69.2852
2201754 14.9217 15.2346 21.1343 17.9645 -1.03133 1.93685 69.2552
2201766 14.9217 15.2346 21.1343 17.9645 -1.03133 1.93685 69.2552
2201773 14.9565 15.1973 21.0162 17.9645 -1.01651 1.91516 69.1345
2201787 15.0435 15.244 20.9965 17.8378 -1.06993 1.85475 69.1218
2201793 15.0435 15.244 20.9965 17.8378 -1.06993 1.85475 69.1218
2201804 15.0783 15.2907 20.8981 17.8573 -1.02293 1.81987 69.1243
2201813 15.0783 15.2346 20.9375 17.8378 -1.06505 1.8373 69.0882
2201834 15.1391 15.244 20.9572 17.8963 -1.06738 1.83509 69.2365
2201845 15.1391 15.244 20.9572 17.8963 -1.06738 1.83509 69.2365
2201854 15.087 15.272 21.0064 17.9255 -1.04482 1.85586 69.2908
2201863 15.1652 15.328 20.9965 17.9255 -1.0474 1.82138 69.4153
2201874 15.1652 15.328 20.9965 17.9255 -1.0474 1.82138 69.4153
2201883 15.2174 15.272 21.0753 17.906 -1.12086 1.83357 69.4707
2201893 15.1739 15.2159 20.9965 17.8476 -1.1219 1.83167 69.2339
2201915 15.1826 15.2253 21.1147 17.8573 -1.15836 1.85156 69.3798
2201925 15.1826 15.2253 21.1147 17.8573 -1.15836 1.85156 69.3798
2201935 15.0783 15.2346 21.0359 17.8476 -1.09543 1.85788 69.1963
2201946 15.1217 15.2253 21.0261 17.8768 -1.09954 1.85325 69.2499
2201955 15.1217 15.2253 21.0261 17.8768 -1.09954 1.85325 69.2499
2201966 15.087 15.244 21.0359 17.8573 -1.09123 1.85534 69.2241
2201976 15.1217 15.2066 21.0162 17.8963 -1.09584 1.85963 69.2408
2201986 15.1217 15.2066 21.0162 17.8963 -1.09584 1.85963 69.2408
2201996 15.1391 15.244 21.0654 17.9158 -1.09741 1.85934 69.3643
2202016 15.113 15.2066 21.0359 17.8768 -1.10698 1.86179 69.2323
2202026 15.1043 15.244 21.0261 17.9158 -1.07183 1.86034 69.2901
2202047 15.0957 15.1973 21.0359 17.9255 -1.08614 1.87754 69.2543
2202058 15.1043 15.1879 21.0753 17.9645 -1.09157 1.89252 69.332
2202067 15.1043 15.1879 21.0753 17.9645 -1.09157 1.89252 69.332
2202077 15.1043 15.1412 21.0556 17.945 -1.10971 1.8965 69.2461
2202087 15.1043 15.1412 21.0556 17.945 -1.10971 1.8965 69.2461
2202097 15.1217 15.0665 21.0654 17.9352 -1.15099 1.91052 69.1889
2202112 15.1217 15.244 21.0359 17.8768 -1.0959 1.85057 69.2784
2202121 15.1217 15.244 21.0359 17.8768 -1.0959 1.85057 69.2784
2202130 15.1478 15.2253 21.0162 17.8476 -1.11617 1.83948 69.2369
2202137 15.1565 15.2253 21.0654 17.8573 -1.13246 1.84857 69.3045
2202159 15.1217 15.272 20.967 17.8573 -1.06888 1.82696 69.218
2202167 15.2174 15.272 20.9572 17.8573 -1.09852 1.80187 69.3038
2202177 15.2174 15.2813 20.9572 17.8573 -1.095 1.7996 69.3132
2202187 15.2261 15.1973 20.967 17.8476 -1.13676 1.81791 69.2379
2202197 15.2261 15.1973 20.967 17.8476 -1.13676 1.81791 69.2379
2202207 15.2348 15.1599 20.9375 17.8476 -1.14369 1.81925 69.1797
2202217 15.2435 15.2066 20.967 17.8476 -1.13923 1.81142 69.2646
2202227 15.2435 15.2066 20.967 17.8476 -1.13923 1.81142 69.2646
2202237 15.2522 15.244 20.8981 17.8768 -1.09336 1.79269 69.271
2202247 15.2522 15.244 20.8981 17.8768 -1.09336 1.79269 69.271
2202260 15.2348 15.1599 20.8882 17.906 -1.10463 1.82101 69.1889
2202267 15.2522 15.2253 20.9768 17.906 -1.11653 1.81777 69.3603
2202277 15.2522 15.2253 20.9768 17.906 -1.11653 1.81777 69.3603
2202288 15.2 15.2159 20.9965 17.945 -1.09419 1.84384 69.3574
2202297 15.1826 15.1692 20.9867 17.8963 -1.12075 1.8483 69.2348
2202319 15.1565 15.1692 20.9768 17.906 -1.10467 1.85463 69.2086
2202329 15.1565 15.1692 20.9768 17.906 -1.10467 1.85463 69.2086
2202339 15.1391 15.1973 20.9276 17.9255 -1.06374 1.84639 69.1895
2202349 15.113 15.1412 20.967 17.9937 -1.06377 1.88683 69.2149
2202361 15.113 15.1412 20.967 17.9937 -1.06377 1.88683 69.2149
2202368 15.087 15.1505 20.9768 17.9937 -1.05463 1.89278 69.208
2202380 15.0261 15.1599 20.9867 18.0424 -1.01512 1.91644 69.2151
2202390 15.0261 15.1599 20.9867 18.0424 -1.01512 1.91644 69.2151
2202400 14.9826 15.1599 21.0064 18.0911 -0.988582 1.93999 69.24
2202411 14.9826 15.1599 21.0457 18.0911 -1.00223 1.94741 69.2794
2202420 14.9913 15.2533 21.0457 18.0911 -0.970228 1.92247 69.3815
2202431 14.9739 15.2066 21.1245 18.1691 -0.979774 1.96758 69.4741
2202451 14.9478 15.244 21.1147 18.1593 -0.957023 1.96115 69.4657
2202461 14.9478 15.1692 21.0359 18.2275 -0.932175 1.97743 69.3805
2202480 14.8348 15.2159 21.0654 18.1983 -0.896639 1.99374 69.3144
2202501 14.7304 15.1412 21.154 18.1885 -0.922753 2.05252 69.2142
2202511 14.7043 15.1879 21.154 18.1496 -0.91078 2.04015 69.1959
2202531 14.6435 15.1786 21.2623 18.2567 -0.890699 2.09767 69.3411
2202541 14.5739 15.1786 21.2328 18.3152 -0.834385 2.12022 69.3004
2202551 14.5739 15.1786 21.2328 18.3152 -0.834385 2.12022 69.3004
2202561 14.5913 15.1786 21.2229 18.3152 -0.837015 2.11409 69.308
2202571 14.5913 15.1786 21.2229 18.3152 -0.837015 2.11409 69.308
2202581 14.5391 15.1599 21.2131 18.286 -0.833248 2.12434 69.1981
2202591 14.5391 15.1973 21.2918 18.3347 -0.828628 2.13878 69.3629
2202611 14.6087 15.272 21.1639 18.2372 -0.816713 2.06124 69.2818
2202621 14.6348 15.2907 21.1737 18.2762 -0.807783 2.05934 69.3754
2202631 14.6348 15.2907 21.1737 18.2762 -0.807783 2.05934 69.3754
2202643 14.6783 15.3187 21.1343 18.2567 -0.806041 2.03078 69.388
2202651 14.6783 15.3187 21.1343 18.2567 -0.806041 2.03078 69.388
2202664 14.6348 15.2626 21.1737 18.2178 -0.839993 2.05532 69.2889
2202674 14.6957 15.3747 21.154 18.1496 -0.837989 1.9964 69.374
2202685 14.6957 15.3747 21.154 18.1496 -0.837989 1.9964 69.374
2202691 14.7391 15.3374 21.095 18.1593 -0.84285 1.98565 69.3308
2202701 14.8 15.3187 21.095 18.1301 -0.88191 1.96983 69.3437
2202711 14.8 15.3187 21.095 18.1301 -0.88191 1.96983 69.3437
2202722 14.8522 15.328 21.0654 18.1203 -0.889935 1.94741 69.366
2202731 14.8522 15.328 21.0654 18.1203 -0.889935 1.94741 69.366
2202742 14.8 15.328 21.0851 18.1009 -0.88591 1.9602 69.314
2202752 14.8348 15.3374 21.0753 18.1009 -0.891094 1.94756 69.3483
2202773 14.8522 15.3934 21.0359 18.1398 -0.848027 1.92955 69.4213
2202784 14.7913 15.3467 21.095 18.0911 -0.882971 1.95778 69.3241
2202792 14.7913 15.3467 21.095 18.0911 -0.882971 1.95778 69.3241
2202802 14.8261 15.272 21.1442 18.1398 -0.921875 1.98595 69.3821
2202824 14.8174 15.2813 21.0753 18.1983 -0.869609 1.98383 69.3723
2202833 14.887 15.3187 21.095 18.2372 -0.872183 1.96869 69.5378
2202844 14.887 15.3187 21.095 18.2372 -0.872183 1.96869 69.5378
2202853 14.8261 15.2813 21.1442 18.1593 -0.911111 1.98731 69.4109
2202864 14.8087 15.2813 21.095 18.1593 -0.887971 1.98234 69.3443
2202873 14.8087 15.2813 21.095 18.1593 -0.887971 1.98234 69.3443
2202884 14.7739 15.2907 21.0851 18.1301 -0.879866 1.98124 69.2798
2202893 14.7739 15.2907 21.0851 18.1301 -0.879866 1.98124 69.2798
2202904 14.7217 15.272 21.0753 18.1203 -0.868882 1.99494 69.1893
2202914 14.7739 15.1412 21.1639 18.1496 -0.955893 2.03637 69.2286
2202923 14.7739 15.1412 21.1639 18.1496 -0.955893 2.03637 69.2286
2202934 14.713 15.2159 21.1934 18.1301 -0.924306 2.03484 69.2525
2202943 14.713 15.1973 21.1343 18.1885 -0.888875 2.03932 69.2332
2202954 14.713 15.1973 21.1343 18.1885 -0.888875 2.03932 69.2332
2202964 14.7652 15.2253 21.1934 18.208 -0.909804 2.0343 69.3919
2202976 14.7652 15.2253 21.1934 18.208 -0.909804 2.0343 69.3919
2202984 14.6435 15.1412 21.1639 18.2178 -0.884958 2.08128 69.1663
2202998 14.6696 15.2253 21.1934 18.2178 -0.872914 2.05963 69.306
2203005 14.6696 15.2253 21.1934 18.2178 -0.872914 2.05963 69.306
2203015 14.7739 15.2626 21.1737 18.1983 -0.895676 2.0175 69.4085
2203025 14.7391 15.3187 21.154 18.3054 -0.815994 2.02863 69.5173
2203045 14.8174 15.2626 21.1639 18.2275 -0.896455 2.01047 69.4714
2203055 14.7913 15.2626 21.0851 18.208 -0.867291 1.99847 69.3471
2203065 14.7913 15.2533 21.0851 18.208 -0.870776 2.00076 69.3377
2203075 14.8087 15.2066 21.1343 18.1398 -0.936873 2.00439 69.2895
2203095 14.7826 15.1786 21.1737 18.1691 -0.941035 2.03053 69.3039
2203105 14.7826 15.1879 21.2032 18.2178 -0.929569 2.04286 69.3915
2203126 14.8261 15.1786 21.1737 18.208 -0.941539 2.02714 69.3864
2203136 14.8087 15.1786 21.1836 18.1593 -0.957149 2.02414 69.3301
2203146 14.8087 15.1786 21.1836 18.1593 -0.957149 2.02414 69.3301
2203156 14.8 15.1879 21.1442 18.1496 -0.940616 2.01478 69.2817
2203166 14.8 15.1879 21.1442 18.1496 -0.940616 2.01478 69.2817
2203176 14.887 15.1973 21.1245 18.0619 -0.993316 1.97101 69.2706
2203186 14.8609 15.1786 21.154 18.1106 -0.983249 1.99668 69.3041
2203196 14.8609 15.1786 21.154 18.1106 -0.983249 1.99668 69.3041
2203206 14.8696 15.1786 21.1836 18.1009 -1.00014 1.99826 69.3326
2203216 14.8696 15.1786 21.1836 18.1009 -1.00014 1.99826 69.3326
2203226 14.8609 15.1132 21.2229 18.1301 -1.02432 2.02928 69.3271
2203236 14.8348 15.1412 21.2229 18.1691 -0.99017 2.0361 69.368
2203246 14.8348 15.1412 21.2229 18.1691 -0.99017 2.0361 69.368
2203256 14.9043 15.0852 21.2721 18.208 -1.03761 2.04924 69.4697
2203266 14.8522 15.0758 21.282 18.1593 -1.04478 2.0571 69.3693
2203276 14.8522 15.0758 21.282 18.1593 -1.04478 2.0571 69.3693
2203286 14.8522 15.0478 21.2525 18.1593 -1.0451 2.05848 69.3118
2203296 14.8522 15.0478 21.2525 18.1593 -1.0451 2.05848 69.3118
2203307 14.8348 15.0011 21.2229 18.1301 -1.05744 2.06329 69.1889
2203317 14.8696 15.0011 21.282 18.1691 -1.07521 2.07303 69.3217
2203327 14.8696 15.0011 21.282 18.1691 -1.07521 2.07303 69.3217
2203337 14.8783 15.0385 21.282 18.1106 -1.08614 2.05078 69.3093
2203347 14.8435 14.9824 21.3017 18.1203 -1.09837 2.07865 69.2479
2203367 14.9478 15.0198 21.3607 18.1593 -1.12591 2.06205 69.4877
2203394 14.887 15.0198 21.3804 18.1496 -1.11542 2.07886 69.4367
2203402 14.8783 15.0104 21.3411 18.2567 -1.06212 2.09589 69.4865
2203412 14.8783 15.0104 21.3411 18.2567 -1.06212 2.09589 69.4865
2203419 14.8783 14.9637 21.3312 18.2275 -1.08725 2.10013 69.4007
2203428 14.887 15.0571 21.3115 18.0911 -1.09963 2.04592 69.3467
2203440 14.887 15.0571 21.3115 18.0911 -1.09963 2.04592 69.3467
2203450 14.9565 14.9731 21.2328 18.0229 -1.15389 2.02198 69.1853
2203460 14.887 15.0104 21.1639 18.0327 -1.08827 2.0188 69.0939
2203470 14.887 15.0104 21.1639 18.0327 -1.08827 2.0188 69.0939
2203480 14.9043 14.9918 21.1442 17.9742 -1.11663 2.00442 69.0145
2203492 14.9043 14.9918 21.1442 17.9742 -1.11663 2.00442 69.0145
2203500 14.913 15.0011 21.1245 18.0034 -1.09824 2.00178 69.0421
2203513 14.9565 15.0852 21.2328 18.0521 -1.10058 1.99993 69.3266
2203521 14.9565 15.0852 21.2328 18.0521 -1.10058 1.99993 69.3266
2203531 14.9826 15.0852 21.2131 18.0814 -1.09179 1.99533 69.3622
2203541 15.0087 15.1412 21.3411 18.1009 -1.1164 2.00282 69.5918
2203551 15.0087 15.1412 21.3411 18.1009 -1.1164 2.00282 69.5918
2203561 15.0174 15.1786 21.2229 17.9937 -1.10501 1.94936 69.4126
2203571 15.0174 15.1786 21.2229 17.9937 -1.10501 1.94936 69.4126
2203581 14.9652 15.1505 21.2328 18.0814 -1.06801 1.98727 69.4299
2203591 14.9652 15.1225 21.1442 17.984 -1.08462 1.95917 69.2159
2203601 14.9652 15.1225 21.1442 17.984 -1.08462 1.95917 69.2159
2203611 15.0087 15.1786 21.1048 17.9742 -1.0686 1.92556 69.2663
2203621 14.9913 15.1038 21.1048 17.9645 -1.09442 1.94626 69.1644
2203631 14.9913 15.1038 21.1048 17.9645 -1.09442 1.94626 69.1644
2203641 15.0087 15.1786 21.1639 18.0424 -1.06335 1.94954 69.3935
2203651 15.0087 15.1786 21.1639 18.0424 -1.06335 1.94954 69.3935
2203661 14.9478 15.0758 21.1147 18.0034 -1.07866 1.973 69.1417
2203671 14.9739 15.1692 21.1836 18.0229 -1.06897 1.96036 69.3496
2203692 14.9391 15.2253 21.154 18.0424 -1.0184 1.95327 69.3608
2203702 14.9739 15.1973 21.1147 18.0327 -1.03098 1.94237 69.3185
2203712 14.9739 15.1973 21.1147 18.0327 -1.03098 1.94237 69.3185
2203725 14.9565 15.2159 21.1442 18.0229 -1.03182 1.94578 69.3396
2203732 14.9565 15.2159 21.1442 18.0229 -1.03182 1.94578 69.3396
2203744 14.9739 15.2346 21.1147 17.9937 -1.03159 1.9259 69.3169
2203757 15.0435 15.1225 21.1245 17.984 -1.10484 1.93631 69.2745
2203773 15.0087 15.1786 21.1245 17.9547 -1.08273 1.9256 69.2665
2203785 15.0522 15.1973 21.1737 17.9742 -1.10034 1.92338 69.3974
2203798 15.0522 15.1973 21.1737 17.9742 -1.10034 1.92338 69.3974
2203805 15 15.2253 21.154 17.9742 -1.06503 1.92556 69.3535
2203818 14.9739 15.1879 21.1934 17.9742 -1.08366 1.94848 69.3294
2203835 15.0522 15.2066 21.2032 17.906 -1.13266 1.91381 69.368
2203845 15.0522 15.2066 21.2032 17.906 -1.13266 1.91381 69.368
2203855 15.0261 15.1973 21.1147 17.9158 -1.09298 1.90757 69.2538
2203865 15.087 15.244 21.1343 17.8281 -1.1362 1.86847 69.2933
2203875 15.087 15.244 21.1343 17.8281 -1.1362 1.86847 69.2933
2203885 15.087 15.2159 21.1147 17.9255 -1.10327 1.89001 69.343
2203895 15.1304 15.244 21.1442 17.8476 -1.14721 1.86345 69.3661
2203905 15.1304 15.244 21.1442 17.8476 -1.14721 1.86345 69.3661
2203915 15.113 15.2066 21.1343 17.906 -1.12989 1.88597 69.36
2203935 15.0348 15.2159 21.1737 17.8963 -1.11665 1.90836 69.3207
2203945 15.0261 15.1879 21.1147 17.945 -1.08549 1.91537 69.2736
2203955 15.0261 15.1879 21.1147 17.945 -1.08549 1.91537 69.2736
2203965 15.0957 15.2626 21.0359 17.867 -1.08353 1.85053 69.2612
2203985 15.113 15.2346 20.9867 17.8183 -1.10146 1.8345 69.1527
2203995 15.1565 15.2066 21.0261 17.8086 -1.14432 1.83637 69.1978
2204005 15.1565 15.2066 21.0261 17.8086 -1.14432 1.83637 69.1978
2204015 15.1391 15.2159 21.0261 17.7404 -1.16058 1.82535 69.1215
2204027 15.0783 15.2159 21.0359 17.8573 -1.0988 1.86429 69.1874
2204051 15.0783 15.2159 21.0359 17.8573 -1.0988 1.86429 69.1874
2204052 15.1391 15.2626 21.0556 17.867 -1.10532 1.8437 69.3244
2204056 15.1391 15.2626 21.0556 17.867 -1.10532 1.8437 69.3244
2204069 15.087 15.2159 21.0064 17.867 -1.08792 1.85841 69.1763
2204076 15.1043 15.244 21.1245 17.906 -1.10944 1.87713 69.3788
2204086 15.1043 15.244 21.1245 17.906 -1.10944 1.87713 69.3788
2204096 15.087 15.2907 21.0753 17.9255 -1.0616 1.86438 69.3784
2204106 15.1826 15.272 21.0261 17.867 -1.10661 1.82526 69.3477
2204126 15.1652 15.356 20.9965 17.8378 -1.0698 1.79793 69.3556
2204139 15.1913 15.328 20.9178 17.8281 -1.06582 1.78153 69.2652
2204146 15.1913 15.328 20.9178 17.8281 -1.06582 1.78153 69.2652
2204159 15.2087 15.356 20.8981 17.7891 -1.06915 1.75933 69.2519
2204177 15.2435 15.3093 20.9473 17.7696 -1.12308 1.7679 69.2698
2204187 15.1565 15.328 20.9473 17.7599 -1.0897 1.78258 69.1917
2204197 15.1565 15.328 20.9473 17.7599 -1.0897 1.78258 69.1917
2204207 15.1826 15.4308 20.8882 17.7794 -1.03229 1.74382 69.281
2204218 15.1913 15.3841 20.9079 17.8086 -1.04867 1.76236 69.2919
2204227 15.1913 15.3841 20.9079 17.8086 -1.04867 1.76236 69.2919
2204239 15.2 15.356 20.9178 17.8183 -1.06195 1.77078 69.2922
2204260 15.1478 15.356 20.8587 17.7501 -1.04914 1.75908 69.1127
2204267 15.2 15.4214 20.9276 17.7794 -1.05542 1.7494 69.3284
2204281 15.2 15.4214 20.9276 17.7794 -1.05542 1.7494 69.3284
2204287 15.1826 15.4401 20.8784 17.7209 -1.04735 1.72848 69.222
2204297 15.1565 15.4401 20.8292 17.7209 -1.02126 1.72535 69.1467
2204307 15.1565 15.4214 20.8292 17.7209 -1.02829 1.72987 69.1281
2204321 15.1043 15.4401 20.8981 17.7794 -1.00509 1.76238 69.2219
2204339 15.1478 15.4962 20.9178 17.7794 -1.00592 1.74208 69.3411
2204351 15.113 15.4401 20.9079 17.7891 -1.00785 1.76401 69.2502
2204358 15.113 15.4401 20.9079 17.7891 -1.00785 1.76401 69.2502
2204369 15.1304 15.4214 20.9178 17.7501 -1.03895 1.75876 69.2198
2204382 15.1304 15.4214 20.9178 17.7501 -1.03895 1.75876 69.2198
2204389 15.1478 15.5335 20.8587 17.7599 -0.978765 1.71802 69.2999
2204398 15.1652 15.5055 20.8489 17.7891 -0.980935 1.7243 69.3087
2204408 15.1652 15.5055 20.8489 17.7891 -0.980935 1.7243 69.3087
2204418 15.1739 15.5055 20.9276 17.8183 -1.00024 1.74285 69.4254
2204429 15.1478 15.4681 20.8686 17.7696 -1.00306 1.73756 69.2542
2204450 15.1565 15.4588 20.8095 17.7891 -0.981781 1.73014 69.2139
2204461 15.1565 15.4308 20.8784 17.7891 -1.01619 1.75011 69.2548
2204470 15.1565 15.4308 20.8784 17.7891 -1.01619 1.75011 69.2548
2204480 15.2348 15.4681 20.7997 17.8086 -0.994685 1.71083 69.3112
2204491 15.2348 15.4681 20.7997 17.8086 -0.994685 1.71083 69.3112
2204500 15.2 15.5615 20.7997 17.7307 -0.976831 1.68175 69.2919
2204510 15.1913 15.5055 20.7898 17.7599 -0.980458 1.70107 69.2465
2204532 15.2087 15.4962 20.7898 17.7696 -0.986338 1.701 69.2643
2204540 15.2087 15.4962 20.7898 17.7696 -0.986338 1.701 69.2643
2204553 15.1739 15.5055 20.7898 17.8086 -0.95616 1.71462 69.2778
2204561 15.1304 15.5148 20.7504 17.7209 -0.956759 1.69845 69.1166
2204570 15.1304 15.5148 20.7504 17.7209 -0.956759 1.69845 69.1166
2204580 15.1739 15.4962 20.7898 17.6722 -1.01088 1.69066 69.1321
2204590 15.1913 15.5148 20.8193 17.7599 -0.987194 1.70449 69.2854
2204600 15.1913 15.5148 20.8193 17.7599 -0.987194 1.70449 69.2854
2204610 15.2348 15.5242 20.7997 17.7307 -1.00289 1.68237 69.2893
2204631 15.1739 15.4588 20.7307 17.7989 -0.956814 1.71269 69.1623
2204641 15.1739 15.4681 20.7603 17.7891 -0.967225 1.71423 69.1914
2204651 15.1739 15.4681 20.7603 17.7891 -0.967225 1.71423 69.1914
2204661 15.1565 15.4214 20.8587 17.8183 -1.0019 1.75419 69.255
2204671 15.1565 15.5148 20.8292 17.7891 -0.967592 1.72037 69.2897
2204691 15.1913 15.4868 20.8489 17.8086 -0.989667 1.72624 69.3356
2204701 15.1304 15.4401 20.8882 17.8768 -0.974166 1.77279 69.3356
2204711 15.1304 15.4401 20.8882 17.8768 -0.974166 1.77279 69.3356
2204722 15.087 15.4495 20.8882 17.8963 -0.948296 1.78477 69.3209
2204731 15.087 15.4495 20.8882 17.8963 -0.948296 1.78477 69.3209
2204744 15.0783 15.4588 20.8882 17.8963 -0.941786 1.78461 69.3216
2204751 15.1217 15.4214 20.9572 17.906 -0.991066 1.7981 69.4063
2204761 15.1217 15.4214 20.9572 17.906 -0.991066 1.7981 69.4063
2204772 15.0609 15.356 20.9768 17.8963 -1.00497 1.83061 69.29
2204784 15.0609 15.356 20.9768 17.8963 -1.00497 1.83061 69.29
2204792 14.913 15.3934 20.9768 17.906 -0.936003 1.85934 69.1893
2204806 15.0261 15.328 21.0753 17.9937 -1.00098 1.88299 69.4231
2204822 14.9304 15.2533 21.0556 17.9937 -0.989062 1.92081 69.233
2204832 14.9217 15.2533 21.1343 17.9937 -1.01333 1.93779 69.3031
2204852 14.9478 15.2253 21.0753 18.0424 -0.99415 1.93632 69.2908
2204865 14.9043 15.1505 21.1343 18.0521 -1.02395 1.97821 69.2414
2204872 14.9043 15.1505 21.1343 18.0521 -1.02395 1.97821 69.2414
2204882 14.8696 15.1786 21.1737 18.0814 -1.00404 1.99275 69.3032
2204892 14.8696 15.1786 21.1737 18.0814 -1.00404 1.99275 69.3032
2204902 14.887 15.1692 21.1836 18.0327 -1.03527 1.98348 69.2724
2204913 14.8696 15.1692 21.2032 18.0619 -1.02508 1.99693 69.3039
2204922 14.8696 15.1692 21.2032 18.0619 -1.02508 1.99693 69.3039
2204932 14.887 15.1973 21.3017 18.1009 -1.03996 2.01154 69.4867
2204942 14.887 15.1973 21.3017 18.1009 -1.03996 2.01154 69.4867
2204954 14.8 15.1412 21.2328 18.1593 -0.985189 2.04466 69.3333
2204962 14.7565 15.1132 21.282 18.1203 -1.01231 2.06417 69.272
2204975 14.7565 15.1132 21.282 18.1203 -1.01231 2.06417 69.272
2204984 14.8348 15.1225 21.3312 18.0911 -1.06384 2.04635 69.3796
2204997 14.8261 15.1038 21.2918 18.1203 -1.04328 2.05119 69.3421
2205004 14.8261 15.1038 21.2918 18.1203 -1.04328 2.05119 69.3421
2205017 14.8348 15.1412 21.2525 18.1593 -1.00404 2.03979 69.3878
2205033 14.8087 15.0852 21.3115 18.1398 -1.04378 2.06737 69.3452
2205044 14.7913 15.0945 21.3706 18.1691 -1.04368 2.0858 69.4254
2205054 14.7913 15.0945 21.3706 18.1691 -1.04368 2.0858 69.4254
2205064 14.7913 15.0945 21.3214 18.1788 -1.02303 2.07845 69.386
2205074 14.7565 15.0852 21.3214 18.1593 -1.02182 2.08569 69.3224
2205093 14.7739 15.0571 21.3312 18.0814 -1.07107 2.07561 69.2436
2205114 14.7391 15.0104 21.3411 18.1009 -1.0727 2.1012 69.1915
2205124 14.8 15.0385 21.282 18.0229 -1.09215 2.05366 69.1434
2205133 14.8 15.0385 21.282 18.0229 -1.09215 2.05366 69.1434
2205144 14.8348 15.0104 21.2721 17.9937 -1.1224 2.04467 69.1111
2205154 14.7913 14.9918 21.3017 18.0619 -1.09887 2.0783 69.1466
2205164 14.7913 14.9918 21.3017 18.0619 -1.09887 2.0783 69.1466
2205175 14.7826 15.0291 21.3509 18.1203 -1.07676 2.09132 69.283
2205185 14.7826 15.0291 21.3509 18.1203 -1.07676 2.09132 69.283
2205196 14.7913 15.0011 21.3804 18.1009 -1.10784 2.09796 69.2737
2205205 14.7565 15.0571 21.4198 18.1398 -1.07366 2.10729 69.3733
2205225 14.8174 15.0571 21.4296 18.1691 -1.08705 2.09955 69.4732
2205238 14.8261 15.0665 21.4198 18.1496 -1.09047 2.08966 69.4619
2205245 14.8261 15.0665 21.4198 18.1496 -1.09047 2.08966 69.4619
2205259 14.7826 15.0478 21.3607 18.0716 -1.09147 2.07946 69.2628
2205265 14.7826 15.0478 21.3607 18.0716 -1.09147 2.07946 69.2628
2205275 14.8087 15.0758 21.3903 18.1496 -1.0708 2.08615 69.4244
2205285 14.7652 15.0104 21.4198 18.1788 -1.07957 2.1239 69.3743
2205295 14.7652 15.0104 21.4198 18.1788 -1.07957 2.1239 69.3743
2205305 14.7826 14.9918 21.4592 18.0814 -1.14285 2.11344 69.3149
2205315 14.7739 15.0198 21.4395 18.1301 -1.10416 2.11406 69.3633
2205330 14.7739 15.0198 21.4395 18.1301 -1.10416 2.11406 69.3633
2205335 14.8087 15.0198 21.4296 18.1301 -1.11276 2.10365 69.3882
2205355 14.8087 14.9451 21.4198 18.1691 -1.12283 2.1275 69.3426
2205365 14.7739 14.9637 21.4493 18.208 -1.09932 2.14418 69.395
2205386 14.8 14.9077 21.4198 18.1301 -1.14862 2.13165 69.2576
2205398 14.7478 14.9637 21.41 18.1691 -1.09142 2.1361 69.2906
2205407 14.7478 14.9637 21.41 18.1691 -1.09142 2.1361 69.2906
2205417 14.7391 14.8984 21.3903 18.1691 -1.10626 2.15079 69.1968
2205427 14.7391 14.8984 21.3903 18.1691 -1.10626 2.15079 69.1968
2205437 14.7652 14.9077 21.41 18.1983 -1.10752 2.15109 69.2812
2205447 14.7826 14.917 21.4493 18.208 -1.11989 2.15358 69.357
2205467 14.8174 14.9731 21.3607 18.1983 -1.08392 2.1129 69.3495
2205477 14.8087 14.9731 21.41 18.208 -1.09423 2.12599 69.3998
2205497 14.8348 14.9544 21.3804 18.1691 -1.11473 2.11144 69.3387
2205507 14.8348 14.9544 21.3804 18.1691 -1.11473 2.11144 69.3387
2205517 14.8261 14.9544 21.3804 18.1691 -1.11174 2.11359 69.33
2205527 14.8 15.0104 21.4493 18.1398 -1.11638 2.11357 69.3996
2205537 14.8 15.0104 21.4493 18.1398 -1.11638 2.11357 69.3996
2205549 14.8522 14.9264 21.3804 18.1983 -1.12027 2.1195 69.3573
2205557 14.8435 14.9264 21.4493 18.2178 -1.13364 2.13804 69.437
2205569 14.8435 14.9264 21.4493 18.2178 -1.13364 2.13804 69.437
2205577 14.8087 14.9824 21.469 18.2178 -1.10738 2.13644 69.4779
2205599 14.7652 14.9077 21.4493 18.2372 -1.10641 2.1656 69.3595
2205611 14.7826 14.8797 21.4395 18.247 -1.11589 2.16822 69.3488
2205632 14.7478 14.9264 21.5084 18.3152 -1.08445 2.19059 69.4978
2205638 14.7304 14.8703 21.597 18.2372 -1.1593 2.21073 69.435
2205660 14.7304 14.8797 21.4887 18.1788 -1.14058 2.17763 69.2776
2205673 14.7304 14.8797 21.4887 18.1788 -1.14058 2.17763 69.2776
2205680 14.6522 14.833 21.5379 18.2372 -1.12615 2.22856 69.2603
2205690 14.6783 14.8516 21.5773 18.2372 -1.14164 2.22469 69.3445
2205702 14.6783 14.8516 21.5773 18.2372 -1.14164 2.22469 69.3445
2205710 14.6609 14.7676 21.5675 18.1983 -1.17874 2.24093 69.1942
2205720 14.5391 14.7956 21.6068 18.2957 -1.10296 2.28948 69.2373
2205740 14.6 14.7302 21.6561 18.3542 -1.14352 2.31034 69.3404
2205750 14.5304 14.7022 21.6954 18.4321 -1.11432 2.35616 69.3601
2205760 14.5304 14.7022 21.6954 18.4321 -1.11432 2.35616 69.3601
2205770 14.4957 14.7115 21.7742 18.4613 -1.11494 2.38217 69.4427
2205780 14.4957 14.7115 21.7742 18.4613 -1.11494 2.38217 69.4427
2205790 14.5043 14.7115 21.8037 18.4905 -1.11709 2.39066 69.5101
2205802 14.5565 14.6835 21.7348 18.5393 -1.10357 2.38096 69.5141
2205810 14.5565 14.6835 21.7348 18.5393 -1.10357 2.38096 69.5141
2205822 14.487 14.7115 21.7545 18.4418 -1.1125 2.37723 69.3948
2205842 14.3826 14.6648 21.7643 18.4223 -1.10486 2.41339 69.2341
2205851 14.4522 14.6835 21.8234 18.5003 -1.11279 2.41609 69.4594
2205871 14.4348 14.5714 21.725 18.4613 -1.12982 2.42369 69.1925
2205881 14.4696 14.5901 21.7939 18.4808 -1.15113 2.42629 69.3343
2205891 14.4696 14.5901 21.7939 18.4808 -1.15113 2.42629 69.3343
2205901 14.4957 14.7022 21.7742 18.4418 -1.12578 2.38097 69.4139
2205912 14.4261 14.6742 21.7742 18.4808 -1.09771 2.41252 69.3552
2205922 14.4261 14.6742 21.7742 18.4808 -1.09771 2.41252 69.3552
2205932 14.4435 14.6555 21.7939 18.3639 -1.1616 2.39517 69.2567
2205952 14.4696 14.7022 21.7348 18.3834 -1.12527 2.3697 69.2899
2205970 14.5043 14.7396 21.725 18.4418 -1.09778 2.36049 69.4107
2205982 14.5478 14.7396 21.7151 18.3639 -1.13869 2.33361 69.3664
2205992 14.6087 14.8143 21.6856 18.3347 -1.13234 2.28905 69.4432
2206014 14.6609 14.8143 21.6364 18.3444 -1.12969 2.26884 69.4559
2206025 14.6609 14.8143 21.6364 18.3444 -1.12969 2.26884 69.4559
2206033 14.6 14.8236 21.5675 18.2178 -1.12921 2.24572 69.2088
2206044 14.7043 14.833 21.6068 18.2372 -1.16781 2.22828 69.3814
2206054 14.7043 14.833 21.6068 18.2372 -1.16781 2.22828 69.3814
2206063 14.7478 14.8516 21.5576 18.2665 -1.14778 2.20918 69.4236
2206075 14.687 14.8423 21.5675 18.2762 -1.13008 2.23021 69.3729
2206084 14.687 14.8423 21.5675 18.2762 -1.13008 2.23021 69.3729
2206096 14.6609 14.833 21.5576 18.3444 -1.09556 2.24974 69.3959
2206103 14.6609 14.833 21.5576 18.3444 -1.09556 2.24974 69.3959
2206117 14.6087 14.7863 21.5773 18.2957 -1.1203 2.26902 69.268
2206125 14.6435 14.8143 21.6364 18.3542 -1.12004 2.27495 69.4483
2206145 14.6783 14.8049 21.5773 18.2372 -1.15926 2.23629 69.2978
2206157 14.6261 14.7115 21.6561 18.3444 -1.16321 2.30671 69.3381
2206179 14.687 14.7582 21.7446 18.4223 -1.16754 2.31033 69.6122
2206185 14.687 14.7582 21.7446 18.4223 -1.16754 2.31033 69.6122
2206199 14.6435 14.7115 21.6462 18.4029 -1.14377 2.31126 69.4041
2206205 14.6087 14.7022 21.7545 18.4321 -1.16152 2.34735 69.4975
2206215 14.6087 14.7022 21.7545 18.4321 -1.16152 2.34735 69.4975
2206226 14.6261 14.6929 21.7053 18.3639 -1.17981 2.32394 69.3881
2206236 14.5565 14.6462 21.6068 18.3249 -1.15437 2.32787 69.1344
2206256 14.5565 14.5995 21.6856 18.3736 -1.18075 2.3629 69.2152
2206266 14.5565 14.5995 21.6856 18.3736 -1.18075 2.3629 69.2152
2206276 14.6 14.5901 21.6167 18.3444 -1.18659 2.3364 69.1512
2206286 14.5478 14.5901 21.7151 18.3834 -1.18776 2.37459 69.2364
2206296 14.5478 14.5901 21.7151 18.3834 -1.18776 2.37459 69.2364
2206306 14.5304 14.5808 21.6856 18.3444 -1.18989 2.3688 69.1412
2206316 14.5652 14.7022 21.784 18.3444 -1.18978 2.34762 69.3958
2206327 14.5652 14.7022 21.784 18.3444 -1.18978 2.34762 69.3958
2206337 14.6609 14.7209 21.7545 18.3834 -1.19071 2.32081 69.5196
2206349 14.6609 14.7209 21.7053 18.3639 -1.18118 2.30827 69.4509
2206357 14.6609 14.7209 21.7053 18.3639 -1.18118 2.30827 69.4509
2206367 14.713 14.7396 21.6954 18.3347 -1.19966 2.28348 69.4827
2206377 14.713 14.7396 21.6954 18.3347 -1.19966 2.28348 69.4827
2206387 14.713 14.7022 21.6462 18.2665 -1.22266 2.27126 69.3279
2206397 14.713 14.7489 21.6265 18.2762 -1.19457 2.2578 69.3647
2206407 14.713 14.7489 21.6265 18.2762 -1.19457 2.2578 69.3647
2206417 14.7739 14.7396 21.6364 18.3249 -1.20396 2.25574 69.4748
2206428 14.7739 14.7396 21.6364 18.3249 -1.20396 2.25574 69.4748
2206439 14.7043 14.7302 21.5871 18.2372 -1.19985 2.25021 69.259
2206449 14.7391 14.7209 21.5773 18.3444 -1.17147 2.26177 69.3817
2206471 14.687 14.7396 21.6068 18.3054 -1.17134 2.26838 69.3388
2206478 14.713 14.7956 21.5871 18.3249 -1.14507 2.24791 69.4207
2206492 14.713 14.7956 21.5871 18.3249 -1.14507 2.24791 69.4207
2206498 14.6696 14.7489 21.597 18.286 -1.16581 2.26499 69.3014
2206509 14.6522 14.6929 21.6167 18.247 -1.20252 2.27977 69.2087
2206519 14.6522 14.6929 21.6167 18.247 -1.20252 2.27977 69.2087
2206534 14.6609 14.7489 21.6561 18.3736 -1.15006 2.29407 69.4395
2206550 14.6696 14.7115 21.6364 18.3054 -1.1861 2.28511 69.3229
2206560 14.6 14.6742 21.6954 18.2665 -1.21136 2.31549 69.2361
2206570 14.6 14.6742 21.6954 18.2665 -1.21136 2.31549 69.2361
2206579 14.6696 14.7209 21.6167 18.3347 -1.16477 2.28453 69.3418
2206589 14.6435 14.7302 21.6659 18.3639 -1.15817 2.30308 69.4035
2206609 14.6435 14.7302 21.6659 18.3639 -1.15817 2.30308 69.4035
2206610 14.6087 14.6929 21.7053 18.3834 -1.16649 2.33184 69.3902
2206621 14.6087 14.6929 21.7053 18.3834 -1.16649 2.33184 69.3902
2206634 14.5217 14.6555 21.7643 18.3834 -1.17101 2.37371 69.325
2206641 14.5652 14.6275 21.6954 18.3249 -1.19495 2.34659 69.213
2206651 14.5652 14.6275 21.6954 18.3249 -1.19495 2.34659 69.213
2206663 14.6 14.6088 21.725 18.3736 -1.20569 2.35685 69.3074
2206671 14.6522 14.6929 21.7643 18.3834 -1.20166 2.33176 69.4927
2206681 14.6522 14.6929 21.7643 18.3834 -1.20166 2.33176 69.4927
2206691 14.6087 14.6742 21.784 18.4126 -1.18953 2.35618 69.4795
2206701 14.6087 14.6742 21.784 18.4126 -1.18953 2.35618 69.4795
2206711 14.6087 14.7396 21.8037 18.4126 -1.17166 2.34345 69.5646
2206721 14.5565 14.7396 21.8037 18.4613 -1.13546 2.36532 69.5611
2206732 14.5565 14.7396 21.8037 18.4613 -1.13546 2.36532 69.5611
2206742 14.6348 14.7396 21.8037 18.3931 -1.18792 2.3334 69.5712
2206752 14.5739 14.6929 21.7742 18.4029 -1.17086 2.35664 69.4438
2206775 14.5739 14.7863 21.7545 18.3542 -1.14727 2.32085 69.4688
2206782 14.5739 14.7863 21.7545 18.3542 -1.14727 2.32085 69.4688
2206795 14.5304 14.6929 21.6856 18.3054 -1.16223 2.33356 69.2143
2206802 14.5565 14.7022 21.7053 18.2762 -1.1855 2.32295 69.2402
2206812 14.5565 14.7022 21.7053 18.2762 -1.1855 2.32295 69.2402
2206822 14.5739 14.6555 21.6659 18.2567 -1.203 2.3195 69.152
2206832 14.6 14.6555 21.6364 18.208 -1.22028 2.2986 69.0999
2206845 14.6 14.6555 21.6364 18.208 -1.22028 2.2986 69.0999
2206852 14.6609 14.7209 21.6954 18.2762 -1.2109 2.29042 69.3534
2206863 14.6609 14.7209 21.6954 18.2762 -1.2109 2.29042 69.3534
2206877 14.6087 14.6555 21.7151 18.2762 -1.22449 2.32338 69.2555
2206883 14.6087 14.7022 21.784 18.2957 -1.22308 2.32787 69.3906
2206903 14.6783 14.6368 21.7446 18.2665 -1.26922 2.31429 69.3262
2206913 14.6522 14.6929 21.7348 18.2665 -1.2357 2.305 69.3463
2206924 14.6522 14.6929 21.7348 18.2665 -1.2357 2.305 69.3463
2206934 14.6609 14.7396 21.6561 18.2957 -1.18297 2.28212 69.3522
2206944 14.6609 14.7396 21.6561 18.2957 -1.18297 2.28212 69.3522
2206954 14.713 14.7302 21.7053 18.1788 -1.26548 2.25902 69.3273
2206964 14.713 14.7209 21.6757 18.1691 -1.2626 2.25413 69.2787
2206973 14.713 14.7209 21.6757 18.1691 -1.2626 2.25413 69.2787
2206985 14.7217 14.7302 21.7151 18.1788 -1.27182 2.25867 69.3459
2206993 14.7391 14.7676 21.6561 18.208 -1.23236 2.23957 69.3708
2207015 14.7304 14.7209 21.6068 18.1398 -1.25602 2.23172 69.198
2207035 14.7304 14.7582 21.6659 18.1983 -1.23997 2.24407 69.3529
2207049 14.8 14.7396 21.597 18.1691 -1.25833 2.21335 69.3056
2207055 14.8 14.7396 21.597 18.1691 -1.25833 2.21335 69.3056
2207065 14.7913 14.7956 21.6167 18.1398 -1.25194 2.19983 69.3434
2207075 14.7826 14.8516 21.4986 18.1398 -1.18722 2.16625 69.2726
2207085 14.7826 14.8516 21.4986 18.1398 -1.18722 2.16625 69.2726
2207096 14.8609 14.889 21.4395 18.0814 -1.2018 2.11582 69.2708
2207116 14.8696 14.8236 21.4395 17.9742 -1.27021 2.10989 69.1069
2207126 14.9043 14.9357 21.469 17.9937 -1.24236 2.08274 69.3028
2207137 14.9043 14.9357 21.469 17.9937 -1.24236 2.08274 69.3028
2207149 14.9478 14.9077 21.4296 17.9742 -1.26177 2.06795 69.2594
2207159 14.9043 14.917 21.4395 17.9645 -1.25038 2.07639 69.2253
2207167 14.9043 14.917 21.4395 17.9645 -1.25038 2.07639 69.2253
2207181 15.0261 14.9637 21.41 17.867 -1.30122 2.01118 69.2668
2207187 15 14.9637 21.41 17.9547 -1.25904 2.034 69.3284
2207207 15.0174 14.9731 21.4001 17.9547 -1.25809 2.0256 69.3453
2207217 15.0174 14.9731 21.4001 17.9547 -1.25809 2.0256 69.3453
2207232 15.0174 14.9357 21.3706 17.9352 -1.26952 2.0256 69.2589
2207242 15.0348 15.0478 21.3804 17.8865 -1.25483 1.98654 69.3495
2207251 15.0348 15.0478 21.3804 17.8865 -1.25483 1.98654 69.3495
2207259 15.0696 15.0291 21.4001 17.8865 -1.28054 1.98629 69.3853
2207269 15.0957 15.0571 21.2721 17.8865 -1.23505 1.949 69.3115
2207278 15.0957 15.0571 21.2721 17.8865 -1.23505 1.949 69.3115
2207290 15.0696 15.1225 21.3312 17.8183 -1.24742 1.93768 69.3416
2207299 15.0696 15.1225 21.3312 17.8183 -1.24742 1.93768 69.3416
2207311 15.0957 15.0104 21.2918 17.8183 -1.28536 1.95129 69.2163
2207319 15.1913 15.0758 21.2032 17.8573 -1.24821 1.90258 69.3277
2207333 15.1913 15.0758 21.2032 17.8573 -1.24821 1.90258 69.3277
2207339 15.1913 15.0758 21.2426 17.8378 -1.26907 1.90633 69.3476
2207349 15.2435 15.0852 21.154 17.7501 -1.28631 1.85798 69.2328
2207361 15.2435 15.0852 21.154 17.7501 -1.28631 1.85798 69.2328
2207369 15.2957 15.1412 21.1343 17.6722 -1.30575 1.8131 69.2434
2207380 15.2957 15.1412 21.1343 17.6722 -1.30575 1.8131 69.2434
2207390 15.3217 15.1599 21.0064 17.643 -1.27484 1.77223 69.131
2207400 15.3391 15.1599 21.0064 17.5943 -1.29933 1.75868 69.0997
2207421 15.4348 15.244 20.9178 17.5163 -1.29942 1.6832 69.1128
2207431 15.4522 15.3 20.8981 17.4871 -1.28843 1.65605 69.1374
2207441 15.4522 15.3 20.8981 17.4871 -1.28843 1.65605 69.1374
2207451 15.4957 15.2907 20.8784 17.5066 -1.29273 1.6478 69.1713
2207463 15.4957 15.3467 20.8686 17.5261 -1.26068 1.63618 69.237
2207485 15.4696 15.328 20.8193 17.4871 -1.25672 1.6299 69.104
2207506 15.5043 15.3747 20.8489 17.4774 -1.26476 1.61414 69.2053
2207512 15.5478 15.3747 20.8784 17.5358 -1.26761 1.62071 69.3368
2207522 15.5478 15.3747 20.8784 17.5358 -1.26761 1.62071 69.3368
2207532 15.5304 15.3841 20.8981 17.5163 -1.27224 1.62268 69.3289
2207543 15.487 15.356 20.8981 17.5066 -1.27167 1.63796 69.2477
2207552 15.487 15.356 20.8981 17.5066 -1.27167 1.63796 69.2477
2207562 15.4261 15.3374 20.9178 17.565 -1.24247 1.67216 69.2463
2207574 15.4261 15.3374 20.9178 17.565 -1.24247 1.67216 69.2463
2207584 15.487 15.3467 20.9473 17.5943 -1.25884 1.66657 69.3752
2207597 15.4087 15.3187 20.9768 17.565 -1.26384 1.6922 69.2693
2207604 15.4087 15.3187 20.9768 17.565 -1.26384 1.6922 69.2693
2207617 15.3391 15.272 20.9473 17.5845 -1.24016 1.71834 69.1429
2207623 15.3478 15.2813 20.9473 17.6819 -1.2027 1.73267 69.2584
2207633 15.3478 15.2813 20.9473 17.6819 -1.2027 1.73267 69.2584
2207644 15.2696 15.272 21.0261 17.6722 -1.21008 1.76706 69.2398
2207653 15.2696 15.272 21.0261 17.6722 -1.21008 1.76706 69.2398
2207664 15.2261 15.1879 21.0261 17.6722 -1.227 1.798 69.1123
2207675 15.1826 15.1599 21.1048 17.8183 -1.19438 1.8582 69.2656
2207685 15.1826 15.1599 21.1048 17.8183 -1.19438 1.8582 69.2656
2207695 15.1826 15.1412 21.1442 17.7794 -1.22973 1.86283 69.2474
2207705 15.1652 15.1225 21.1639 17.8476 -1.21177 1.88827 69.2992
2207725 15.1913 15.1692 21.2229 17.7696 -1.25278 1.86697 69.3531
2207745 15.1217 15.0852 21.1442 17.7989 -1.22267 1.89504 69.1499
2207755 15.113 15.1319 21.1934 17.9255 -1.17102 1.91901 69.3638
2207766 15.113 15.1319 21.1934 17.9255 -1.17102 1.91901 69.3638
2207776 15.0957 15.0291 21.2525 17.867 -1.24629 1.94848 69.2443
2207787 15.0435 15.0945 21.2131 17.9255 -1.16798 1.94884 69.2766
2207808 15.0522 15.0758 21.2525 17.8865 -1.2063 1.95136 69.267
2207816 15.0609 15.0852 21.2328 17.9352 -1.18058 1.95241 69.314
2207826 15.0609 15.0852 21.2328 17.9352 -1.18058 1.95241 69.314
2207836 15.1217 15.0571 21.2229 17.9158 -1.21606 1.93886 69.3176
2207857 15.0957 15.0104 21.2525 17.945 -1.22385 1.96773 69.3035
2207867 15.0957 15.1038 21.3115 17.9645 -1.20145 1.95965 69.4755
2207877 15.0957 15.1038 21.3115 17.9645 -1.20145 1.95965 69.4755
2207895 15.0609 15.0665 21.3509 17.984 -1.20977 1.98831 69.4622
2207898 15.1043 15.0011 21.3607 17.984 -1.25271 1.99551 69.4501
2207907 15.1043 15.0011 21.3607 17.984 -1.25271 1.99551 69.4501
2207918 15.0696 15.1038 21.3017 17.9352 -1.20016 1.95868 69.4103
2207927 15.0696 15.1038 21.3017 17.9352 -1.20016 1.95868 69.4103
2207938 15.0696 14.9731 21.2032 17.8378 -1.2528 1.95381 69.0837
2207947 15.1304 15.0104 21.1639 17.8086 -1.25709 1.91676 69.1133
2207958 15.1304 15.0104 21.1639 17.8086 -1.25709 1.91676 69.1133
2207967 15.1043 15.0758 21.1737 17.8086 -1.22669 1.90901 69.1625
2207981 15.0696 15.0291 21.1737 17.7989 -1.23615 1.92711 69.0713
2207989 15.0696 15.0291 21.1737 17.7989 -1.23615 1.92711 69.0713
2207999 15.0522 15.1225 21.1343 17.8086 -1.17748 1.90289 69.1176
2208019 15.0609 15.0478 21.1934 17.8573 -1.21067 1.93944 69.1594
2208029 15.0609 15.0945 21.2525 17.9255 -1.1875 1.952 69.3333
2208049 15.113 15.1412 21.2721 17.867 -1.21659 1.92056 69.3934
2208059 15.0696 15.1505 21.154 17.8378 -1.16859 1.90106 69.212
2208071 15.0696 15.1505 21.154 17.8378 -1.16859 1.90106 69.212
2208080 15.1652 15.2533 21.1442 17.7794 -1.18137 1.8398 69.3421
2208091 15.1652 15.2533 21.1442 17.7794 -1.18137 1.8398 69.3421
2208101 15.1478 15.244 21.0851 17.7696 -1.16228 1.83323 69.2465
2208113 15.1565 15.2626 21.0851 17.7696 -1.15822 1.82657 69.2739
2208121 15.1565 15.2626 21.0851 17.7696 -1.15822 1.82657 69.2739
2208135 15.1391 15.3 21.0556 17.7599 -1.13163 1.81425 69.2546
2208141 15.0957 15.272 21.0851 17.7209 -1.15213 1.82983 69.1737
2208151 15.0957 15.272 21.0851 17.7209 -1.15213 1.82983 69.1737
2208161 15.1391 15.3 21.1048 17.7599 -1.14858 1.82361 69.3038
2208171 15.0957 15.3747 21.0457 17.7404 -1.09241 1.80108 69.2565
2208199 15.1826 15.356 20.967 17.7794 -1.08761 1.77695 69.285
2208201 15.1826 15.356 20.967 17.7794 -1.08761 1.77695 69.285
2208211 15.1217 15.328 20.9375 17.7599 -1.07427 1.78914 69.1471
2208221 15.1043 15.4214 20.8686 17.7209 -1.02385 1.75006 69.1152
2208231 15.1043 15.4214 20.8686 17.7209 -1.02385 1.75006 69.1152
2208244 15.1478 15.4027 20.9276 17.8183 -1.02976 1.77398 69.2965
2208251 15.1478 15.4027 20.9276 17.8183 -1.02976 1.77398 69.2965
2208261 15.113 15.356 20.9572 17.7989 -1.05283 1.79564 69.2251
2208271 15.1739 15.4308 20.8981 17.7307 -1.051 1.73848 69.2334
2208291 15.1565 15.4401 20.8587 17.7307 -1.02783 1.73288 69.186
2208303 15.1391 15.4868 20.9572 17.7307 -1.03832 1.74465 69.3138
2208311 15.1391 15.4868 20.9572 17.7307 -1.03832 1.74465 69.3138
2208321 15.2348 15.5335 20.9178 17.7014 -1.0512 1.69719 69.3875
2208332 15.2348 15.5335 20.9178 17.7014 -1.0512 1.69719 69.3875
2208341 15.1739 15.5709 20.7603 17.6625 -0.976199 1.66508 69.1675
2208354 15.2348 15.5522 20.78 17.6917 -1.00019 1.66434 69.2586
2208361 15.2348 15.5522 20.78 17.6917 -1.00019 1.66434 69.2586
2208371 15.2 15.5522 20.7307 17.6819 -0.9747 1.66135 69.1649
2208381 15.1913 15.5615 20.7997 17.6527 -1.00307 1.66885 69.2052
2208393 15.1913 15.5615 20.7997 17.6527 -1.00307 1.66885 69.2052
2208402 15.2261 15.5615 20.7898 17.6917 -0.997077 1.66608 69.2691
2208422 15.2174 15.6269 20.7603 17.6917 -0.959307 1.64677 69.2963
2208432 15.3304 15.6456 20.7701 17.6527 -1.00947 1.60957 69.3989
2208452 15.313 15.6643 20.7307 17.6625 -0.979176 1.60354 69.3705
2208464 15.2957 15.6643 20.7012 17.6527 -0.966565 1.60011 69.3139
2208472 15.2957 15.6643 20.7012 17.6527 -0.966565 1.60011 69.3139
2208486 15.2957 15.6456 20.6618 17.6625 -0.956258 1.59886 69.2656
2208492 15.2957 15.6456 20.6618 17.6625 -0.956258 1.59886 69.2656
2208502 15.2087 15.6176 20.7012 17.6527 -0.953892 1.63218 69.1802
2208512 15.2435 15.5802 20.6323 17.6625 -0.952387 1.62136 69.1185
2208532 15.3043 15.6269 20.6422 17.6332 -0.970405 1.59178 69.2067
2208543 15.2261 15.6082 20.6126 17.5943 -0.954574 1.60177 69.0412
2208552 15.2261 15.6082 20.6126 17.5943 -0.954574 1.60177 69.0412
2208562 15.2522 15.6082 20.6815 17.6527 -0.965661 1.62017 69.1947
2208572 15.2522 15.6082 20.6815 17.6527 -0.965661 1.62017 69.1947
2208582 15.2 15.5989 20.6717 17.6332 -0.954919 1.62929 69.1038
2208593 15.2 15.5802 20.6815 17.5748 -0.987345 1.62438 69.0365
2208614 15.2261 15.6923 20.7111 17.7112 -0.913486 1.62326 69.3406
2208622 15.1913 15.6923 20.7603 17.7599 -0.900307 1.65046 69.4038
2208636 15.1913 15.6082 20.7603 17.7599 -0.931719 1.67066 69.3197
2208642 15.2348 15.6736 20.7997 17.8281 -0.910577 1.66517 69.5361
2208652 15.2348 15.6736 20.7997 17.8281 -0.910577 1.66517 69.5361
2208662 15.2522 15.6176 20.7701 17.7891 -0.941826 1.6613 69.429
2208672 15.1826 15.6176 20.8193 17.8183 -0.923857 1.69306 69.4379
2208693 15.1565 15.5522 20.8882 17.8183 -0.963125 1.72826 69.4153
2208705 15.0957 15.4681 20.8095 17.8378 -0.938866 1.75193 69.2111
2208714 15.0957 15.4681 20.8095 17.8378 -0.938866 1.75193 69.2111
2208725 15.0261 15.5242 20.839 17.8281 -0.907595 1.75899 69.2174
2208735 15.0261 15.5242 20.839 17.8281 -0.907595 1.75899 69.2174
2208745 15.0696 15.5148 20.8095 17.8183 -0.919592 1.74321 69.2122
2208755 15.1565 15.5148 20.8587 17.8183 -0.966878 1.73163 69.3484
2208765 15.1565 15.5148 20.8587 17.8183 -0.966878 1.73163 69.3484
2208775 15.113 15.5989 20.8095 17.7989 -0.910552 1.70868 69.3203
2208785 15.0522 15.5522 20.7504 17.7794 -0.893566 1.71958 69.1342
2208805 15.113 15.6082 20.8095 17.7989 -0.907059 1.70643 69.3296
2208826 15.113 15.5055 20.8784 17.7891 -0.973085 1.74255 69.2861
2208835 15.0522 15.5242 20.8784 17.8768 -0.912142 1.76951 69.3315
2208856 15.0174 15.5335 20.9079 17.7989 -0.935979 1.76642 69.2577
2208870 15.0087 15.4962 20.8587 17.8378 -0.915238 1.77562 69.2014
2208886 15.0522 15.5709 20.7997 17.8183 -0.889143 1.73198 69.241
2208896 15.0522 15.5709 20.7997 17.8183 -0.889143 1.73198 69.241
2208913 15.0609 15.5615 20.839 17.7599 -0.931241 1.72848 69.2213
2208916 15.1391 15.5896 20.8292 17.7891 -0.93358 1.70655 69.347
2208926 15.1391 15.5896 20.8292 17.7891 -0.93358 1.70655 69.347
2208937 15.0522 15.5335 20.8587 17.8476 -0.912735 1.75791 69.292
2208946 15.0696 15.5802 20.9572 17.8086 -0.950037 1.75378 69.4155
2208958 15.0696 15.5802 20.9572 17.8086 -0.950037 1.75378 69.4155
2208966 15.113 15.5522 20.9375 17.8963 -0.935997 1.76301 69.499
2208976 15.113 15.5522 20.9375 17.8963 -0.935997 1.76301 69.499
2208986 15.0174 15.4495 20.9375 17.8768 -0.948533 1.80729 69.2811
2208996 15.0087 15.5148 20.9473 17.8963 -0.917183 1.79913 69.3671
2209016 15.0348 15.4588 20.8981 17.867 -0.941049 1.79145 69.2587
2209026 15.0348 15.4495 20.967 17.8865 -0.961162 1.81055 69.3378
2209036 15.0348 15.4495 20.967 17.8865 -0.961162 1.81055 69.3378
2209047 15 15.4495 20.9768 17.9158 -0.941576 1.82641 69.3421
2209056 15 15.4495 20.9768 17.9158 -0.941576 1.82641 69.3421
2209069 14.9652 15.356 20.9867 17.8086 -1.00818 1.83907 69.1165
2209077 14.9565 15.4495 20.9867 17.906 -0.933546 1.83699 69.2987
2209091 14.9565 15.4495 20.9867 17.906 -0.933546 1.83699 69.2987
2209097 14.9913 15.4121 20.967 17.8281 -0.982006 1.81905 69.1985
2209107 14.9826 15.3654 20.9768 17.8963 -0.974339 1.84737 69.2211
2209127 14.9391 15.3654 21.0556 17.9352 -0.97196 1.88028 69.2953
2209137 14.9391 15.3654 21.0556 17.9352 -0.97196 1.88028 69.2953
2209152 14.8783 15.328 21.0261 17.945 -0.950927 1.9005 69.1773
2209161 14.9043 15.272 21.1343 17.9645 -1.01127 1.93197 69.2751
2209170 14.9043 15.272 21.1343 17.9645 -1.01127 1.93197 69.2751
2209179 14.9043 15.3747 21.1147 17.9158 -0.984176 1.89397 69.3095
2209188 14.9217 15.3093 21.1048 17.9937 -0.982088 1.91854 69.3296
2209201 14.9217 15.3093 21.1048 17.9937 -0.982088 1.91854 69.3296
2209209 14.9565 15.3654 21.1147 17.9255 -1.00209 1.88538 69.3621
2209229 14.9739 15.3747 21.0359 17.945 -0.970042 1.86766 69.3295
2209239 14.9652 15.2813 21.0556 17.945 -1.00889 1.89626 69.2471
2209249 14.9652 15.2813 21.0556 17.945 -1.00889 1.89626 69.2471
2209259 15.0261 15.3374 20.9768 17.8378 -1.0219 1.83249 69.1781
2209268 15.0174 15.3 21.0457 17.8183 -1.06416 1.8531 69.1815
2209290 15.1217 15.2533 21.0162 17.8086 -1.11129 1.8316 69.1998
2209299 15.1217 15.2533 21.0162 17.8086 -1.11129 1.8316 69.1998
2209312 15.1217 15.2626 20.9867 17.8378 -1.08655 1.82927 69.2089
2209319 15.1304 15.2813 21.0064 17.867 -1.07831 1.83192 69.2852
2209340 15.1565 15.3093 21.0064 17.8573 -1.08044 1.81693 69.3295
2209350 15.1391 15.2533 20.9965 17.9645 -1.05182 1.85324 69.3534
2209370 15.0957 15.3093 21.0457 17.8086 -1.09136 1.82994 69.2593
2209380 15.0957 15.3093 21.0457 17.8086 -1.09136 1.82994 69.2593
2209390 15.0696 15.3187 20.9965 17.8086 -1.06181 1.82464 69.1934
2209400 15.1478 15.2907 21.0162 17.7891 -1.11355 1.81247 69.2438
2209410 15.1478 15.2907 21.0162 17.7891 -1.11355 1.81247 69.2438
2209420 15.1826 15.2813 20.9375 17.8573 -1.0762 1.80429 69.2587
2209430 15.113 15.3187 21.0359 17.7891 -1.09778 1.81786 69.2567
2209451 15.113 15.3093 21.0851 17.8281 -1.1036 1.83689 69.3356
2209471 15.113 15.2066 21.0753 17.867 -1.12424 1.86741 69.262
2209484 15.0348 15.2253 21.1147 17.9158 -1.08543 1.89861 69.2905
2209491 15.0348 15.2253 21.1147 17.9158 -1.08543 1.89861 69.2905
2209502 15.0609 15.2066 21.154 17.9352 -1.1077 1.90792 69.3567
2209511 15.0609 15.1973 21.1737 17.9645 -1.107 1.91942 69.3963
2209521 15.0609 15.1973 21.1737 17.9645 -1.107 1.91942 69.3963
2209531 15.0783 15.1879 21.1934 17.9547 -1.12694 1.91934 69.4143
2209542 15.0783 15.1879 21.1934 17.9547 -1.12694 1.91934 69.4143
2209552 15.0087 15.1786 21.2328 17.9255 -1.13107 1.9405 69.3455
2209562 15.0087 15.1786 21.2032 17.8476 -1.15031 1.92023 69.2381
2209572 15.0087 15.1786 21.2032 17.8476 -1.15031 1.92023 69.2381
2209582 14.9913 15.1038 21.2426 17.9547 -1.14563 1.97038 69.2925
2209594 15.0522 15.1319 21.2032 17.8476 -1.18293 1.92102 69.2348
2209602 15.0522 15.1319 21.2032 17.8476 -1.18293 1.92102 69.2348
2209617 15.0522 15.1412 21.154 17.8573 -1.15876 1.91127 69.2047
2209632 15.1478 15.1319 21.1245 17.8183 -1.1998 1.87724 69.2225
2209642 15.113 15.1038 21.1048 17.8183 -1.19166 1.88883 69.14
2209652 15.113 15.1038 21.1048 17.8183 -1.19166 1.88883 69.14
2209664 15.0522 15.1038 21.154 17.8378 -1.18027 1.91672 69.1479
2209674 15.0609 15.1225 21.154 17.9158 -1.14673 1.92476 69.2532
2209684 15.0609 15.1225 21.154 17.9158 -1.14673 1.92476 69.2532
2209693 15.087 15.1412 21.1737 17.8573 -1.17752 1.9065 69.2592
2209704 15.087 15.1412 21.1737 17.8573 -1.17752 1.9065 69.2592
2209714 15.0957 15.0758 21.1737 17.9255 -1.17945 1.93323 69.2707
2209724 15.1217 15.0385 21.282 17.945 -1.23232 1.96004 69.3872
2209746 15.1478 15.1038 21.1737 17.9255 -1.18679 1.91365 69.3509
2209755 15.1739 15.0571 21.1836 17.8963 -1.22782 1.91502 69.3109
2209774 15.1304 15.0571 21.1737 17.8768 -1.21689 1.9201 69.2381
2209783 15.1304 15.0571 21.1737 17.8768 -1.21689 1.9201 69.2381
2209793 15.0957 15.0478 21.2229 17.8963 -1.21801 1.94385 69.2627
2209811 15.1565 15.1225 21.2525 17.8963 -1.22076 1.91631 69.4278
2209815 15.1565 15.1225 21.2525 17.8963 -1.22076 1.91631 69.4278
2209825 15.0957 15.0571 21.2623 17.9645 -1.20221 1.96181 69.3796
2209835 15.087 15.0478 21.3214 17.9255 -1.23772 1.97 69.3816
2209855 15.0261 15.0198 21.3411 17.945 -1.22684 1.99912 69.3319
2209877 15.0348 14.917 21.3017 17.9645 -1.24785 2.01848 69.218
2209885 15.0087 14.9637 21.3115 18.1009 -1.17303 2.04078 69.3848
2209906 15.0348 14.8984 21.3903 17.9937 -1.27422 2.04513 69.3171
2209916 14.9913 14.9357 21.41 18.0911 -1.21508 2.06848 69.4281
2209926 14.9913 14.9357 21.41 18.0911 -1.21508 2.06848 69.4281
2209936 14.9478 14.9264 21.4001 18.0424 -1.21874 2.07057 69.3167
2209946 14.9478 14.9264 21.4001 18.0424 -1.21874 2.07057 69.3167
2209957 14.8957 14.9357 21.4395 18.1106 -1.18505 2.10115 69.3815
2209966 14.8696 14.889 21.4789 18.1301 -1.19989 2.13004 69.3675
2209977 14.8696 14.889 21.4789 18.1301 -1.19989 2.13004 69.3675
2209987 14.8783 14.917 21.3903 18.1691 -1.14717 2.11176 69.3546
2209997 14.8174 14.9077 21.4986 18.0911 -1.1964 2.13474 69.3148
2210008 14.8174 14.9077 21.4986 18.0911 -1.1964 2.13474 69.3148
2210017 14.8174 14.9264 21.4493 18.1301 -1.15772 2.12822 69.3232
2210027 14.8261 14.8516 21.469 18.1398 -1.19202 2.15001 69.2866
2210047 14.8348 14.9264 21.4887 18.1788 -1.15886 2.14026 69.4287
2210059 14.8348 14.9264 21.4887 18.1788 -1.15886 2.14026 69.4287
2210067 14.8 14.8049 21.469 18.2275 -1.16757 2.18428 69.3015
2210077 14.7565 14.8049 21.5281 18.1983 -1.18396 2.20058 69.2878
2210087 14.7565 14.8049 21.5281 18.1983 -1.18396 2.20058 69.2878
2210101 14.7739 14.889 21.5773 18.2957 -1.13844 2.20247 69.5359
2210119 14.713 14.8516 21.5576 18.286 -1.12849 2.2214 69.4083
2210131 14.7478 14.8516 21.4789 18.2567 -1.12436 2.19286 69.3351
2210153 14.7826 14.833 21.4887 18.286 -1.13575 2.19608 69.3902
2210158 14.7565 14.7676 21.5576 18.2275 -1.19719 2.2207 69.3092
2210180 14.7478 14.8143 21.469 18.1496 -1.17554 2.18048 69.1807
2210190 14.7304 14.7676 21.5084 18.1788 -1.18972 2.20911 69.1852
2210200 14.7304 14.7676 21.5084 18.1788 -1.18972 2.20911 69.1852
2210210 14.7565 14.8143 21.4296 18.208 -1.14287 2.18186 69.2085
2210230 14.713 14.8143 21.5084 18.1885 -1.16239 2.20362 69.2243
2210240 14.7565 14.8423 21.597 18.2762 -1.16413 2.21838 69.472
2210261 14.7739 14.8049 21.5675 18.2665 -1.17772 2.21611 69.4128
2210271 14.7478 14.8143 21.5379 18.2957 -1.14408 2.22021 69.3957
2210280 14.7478 14.8143 21.5379 18.2957 -1.14408 2.22021 69.3957
2210290 14.7565 14.8049 21.597 18.3249 -1.15986 2.2366 69.4834
2210311 14.7304 14.8049 21.5871 18.3249 -1.14752 2.24127 69.4474
2210324 14.7217 14.8236 21.6068 18.286 -1.15894 2.23525 69.4382
2210331 14.7217 14.8236 21.6068 18.286 -1.15894 2.23525 69.4382
2210345 14.7304 14.7396 21.6167 18.2762 -1.20069 2.25399 69.3629
2210351 14.6609 14.7582 21.6561 18.3542 -1.15388 2.28817 69.4293
2210361 14.6609 14.7582 21.6561 18.3542 -1.15388 2.28817 69.4293
2210371 14.6261 14.6648 21.6757 18.3249 -1.19497 2.31841 69.2916
2210391 14.5826 14.6648 21.725 18.3639 -1.18222 2.3454 69.3363
2210401 14.5652 14.6742 21.725 18.3736 -1.16904 2.34919 69.338
2210411 14.5652 14.6742 21.725 18.3736 -1.16904 2.34919 69.338
2210422 14.5652 14.6368 21.725 18.4321 -1.16108 2.3692 69.3591
2210434 14.4957 14.5901 21.784 18.4613 -1.16407 2.41441 69.3311
2210450 14.4957 14.5901 21.784 18.4613 -1.16407 2.41441 69.3311
2210455 14.4783 14.6088 21.8332 18.4808 -1.16061 2.42654 69.4011
2210462 14.4522 14.5527 21.8628 18.4808 -1.18294 2.45254 69.3485
2210475 14.4522 14.5527 21.8628 18.4808 -1.18294 2.45254 69.3485
2210484 14.513 14.6181 21.912 18.4905 -1.19235 2.43149 69.5337
2210503 14.4435 14.6368 21.8234 18.5003 -1.12738 2.42998 69.404
2210513 14.5043 14.6648 21.8135 18.4905 -1.13803 2.40414 69.4733
2210524 14.5043 14.6648 21.8135 18.4905 -1.13803 2.40414 69.4733
2210534 14.4957 14.7022 21.7151 18.4126 -1.11645 2.3649 69.3256
2210544 14.487 14.6088 21.8135 18.4418 -1.17153 2.41372 69.3511
2210554 14.487 14.6088 21.8135 18.4418 -1.17153 2.41372 69.3511
2210564 14.4957 14.6929 21.7742 18.4321 -1.13297 2.38154 69.3948
2210574 14.4957 14.6929 21.7742 18.4321 -1.13297 2.38154 69.3948
2210585 14.4087 14.6368 21.7939 18.4516 -1.12358 2.42454 69.2909
2210595 14.3652 14.6462 21.8234 18.4905 -1.10058 2.44555 69.3253
2210605 14.3652 14.6462 21.8234 18.4905 -1.10058 2.44555 69.3253
2210615 14.3826 14.6181 21.8332 18.5393 -1.10217 2.45882 69.3732
2210627 14.3652 14.6181 21.8726 18.5003 -1.12442 2.46327 69.3562
2210635 14.3652 14.6181 21.8726 18.5003 -1.12442 2.46327 69.3562
2210648 14.3913 14.7022 21.9415 18.5393 -1.11081 2.45506 69.5743
2210665 14.3478 14.7115 21.9021 18.549 -1.07517 2.45829 69.5105
2210675 14.313 14.6462 21.9218 18.549 -1.09453 2.48703 69.43
2210687 14.313 14.6462 21.9218 18.549 -1.09453 2.48703 69.43
2210695 14.3913 14.7302 21.8332 18.5003 -1.07769 2.42142 69.455
2210705 14.3565 14.6648 21.8135 18.4905 -1.08715 2.44125 69.3255
2210715 14.3565 14.6648 21.8135 18.4905 -1.08715 2.44125 69.3255
2210725 14.3652 14.6835 21.8135 18.4711 -1.09045 2.43084 69.3333
2210739 14.3652 14.6835 21.8135 18.4711 -1.09045 2.43084 69.3333
2210745 14.287 14.6929 21.8135 18.4418 -1.07092 2.44288 69.2352
2210755 14.3913 14.6555 21.8431 18.4711 -1.12016 2.43668 69.3609
2210765 14.3913 14.6555 21.8431 18.4711 -1.12016 2.43668 69.3609
2210775 14.3826 14.7022 21.8234 18.4516 -1.10014 2.42003 69.3598
2210785 14.3826 14.7022 21.8234 18.5198 -1.07451 2.43238 69.428
2210795 14.3826 14.7022 21.8234 18.5198 -1.07451 2.43238 69.428
2210805 14.3739 14.6835 21.8431 18.5003 -1.09264 2.4393 69.4008
2210826 14.4522 14.7396 21.7742 18.4711 -1.08578 2.38781 69.437
2210836 14.4696 14.7396 21.7545 18.4613 -1.08865 2.37811 69.4249
2210847 14.4696 14.7396 21.7545 18.4613 -1.08865 2.37811 69.4249
2210856 14.4696 14.7396 21.7348 18.4126 -1.10018 2.36567 69.3565
2210869 14.4522 14.7396 21.7151 18.3542 -1.10942 2.35577 69.261
2210876 14.4522 14.7396 21.7151 18.3542 -1.10942 2.35577 69.261
2210886 14.4522 14.7582 21.7151 18.3834 -1.09137 2.35642 69.3089
2210896 14.4522 14.7582 21.7151 18.3834 -1.09137 2.35642 69.3089
2210907 14.4609 14.7863 21.7053 18.3444 -1.09509 2.33832 69.2968
2210917 14.5391 14.8049 21.6954 18.3249 -1.11897 2.30874 69.3644
2210928 14.5391 14.8049 21.6954 18.3249 -1.11897 2.30874 69.3644
2210938 14.5478 14.8797 21.725 18.3054 -1.11134 2.28979 69.4579
2210947 14.5565 14.833 21.7053 18.3152 -1.12147 2.29743 69.4099
2210967 14.6087 14.8984 21.5773 18.2275 -1.10376 2.22857 69.3119
2210989 14.6174 14.8516 21.4986 18.1788 -1.11557 2.2145 69.1464
2210998 14.6522 14.8984 21.5182 18.2372 -1.09472 2.20868 69.306
2211010 14.6522 14.8984 21.5182 18.2372 -1.09472 2.20868 69.306
2211020 14.6435 14.8797 21.5576 18.208 -1.12334 2.21735 69.2888
2211029 14.6783 14.9544 21.597 18.1691 -1.13539 2.19026 69.3987
2211042 14.6783 14.9544 21.597 18.1691 -1.13539 2.19026 69.3987
2211049 14.7391 14.9918 21.5379 18.1983 -1.11096 2.16044 69.4671
2211058 14.7391 14.9918 21.5379 18.1983 -1.11096 2.16044 69.4671
2211074 14.6957 14.8984 21.5576 18.1691 -1.14896 2.19256 69.3207
2211084 14.7304 14.9637 21.4887 18.1301 -1.12725 2.14778 69.313
2211100 14.7565 14.9357 21.5084 18.0424 -1.18669 2.13564 69.243
2211112 14.7478 14.9824 21.469 18.1106 -1.12676 2.1316 69.3099
2211120 14.7478 14.9824 21.469 18.1106 -1.12676 2.1316 69.3099
2211130 14.7652 15.0198 21.4395 18.0814 -1.11951 2.10715 69.3059
2211140 14.7652 15.0198 21.4395 18.0814 -1.11951 2.10715 69.3059
2211150 14.8348 15.0104 21.4789 18.0327 -1.17888 2.09056 69.3568
2211160 14.8261 15.0665 21.4001 18.0327 -1.12767 2.06423 69.3253
2211170 14.8261 15.0665 21.4001 18.0327 -1.12767 2.06423 69.3253
2211180 14.8087 15.0758 21.4395 18.0327 -1.13172 2.07355 69.3567
2211190 14.8 15.0758 21.4592 18.0716 -1.12083 2.08661 69.4066
2211200 14.8 15.0758 21.4592 18.0716 -1.12083 2.08661 69.4066
2211211 14.8348 15.0478 21.469 18.0424 -1.15773 2.08134 69.394
2211221 14.8348 15.0478 21.469 18.0424 -1.15773 2.08134 69.394
2211234 14.8261 15.0758 21.4493 18.0716 -1.12642 2.07836 69.4229
2211241 14.8087 15.0945 21.469 18.0911 -1.11285 2.08533 69.4633
2211255 14.8087 15.0945 21.469 18.0911 -1.11285 2.08533 69.4633
2211261 14.7826 15.0665 21.469 18.0424 -1.13276 2.08959 69.3605
2211271 14.8261 15.0758 21.4395 18.0229 -1.14137 2.06746 69.3643
2211281 14.8261 15.0758 21.4395 18.0229 -1.14137 2.06746 69.3643
2211291 14.8 15.0571 21.5084 18.1106 -1.13012 2.1076 69.4761
2211301 14.8 15.0571 21.5084 18.1106 -1.13012 2.1076 69.4761
2211311 14.7652 15.0198 21.4789 18.0229 -1.15512 2.1036 69.2868
2211323 14.713 14.9918 21.5379 18.0424 -1.16071 2.13802 69.2851
2211331 14.713 14.9918 21.5379 18.0424 -1.16071 2.13802 69.2851
2211346 14.7391 15.0104 21.4493 18.0132 -1.14317 2.10504 69.2121
2211351 14.7217 14.9824 21.469 18.0716 -1.13247 2.13081 69.2448
2211361 14.7217 14.9824 21.469 18.0716 -1.13247 2.13081 69.2448
2211371 14.7739 15.0665 21.4198 18.0424 -1.11281 2.08257 69.3026
2211391 14.7826 14.9918 21.4789 17.9937 -1.18273 2.10078 69.2469
2211401 14.7565 15.0758 21.4395 18.0424 -1.11008 2.08822 69.3142
2211412 14.7565 15.0758 21.4395 18.0424 -1.11008 2.08822 69.3142
2211421 14.7913 15.0478 21.4493 18.0034 -1.15071 2.08112 69.2919
