6017374 6.78619 7.09582 16.4638 15.4732 -0.371583 5.91076 45.819
6017384 6.77755 7.14262 16.3692 15.4918 -0.27978 5.87823 45.7812
6017404 6.82072 7.13326 16.3166 15.4359 -0.310773 5.84115 45.7065
6017415 6.82072 7.13326 16.3166 15.4359 -0.310773 5.84115 45.7065
6017424 6.86389 7.18943 16.2641 15.4452 -0.269488 5.78725 45.7626
6017434 6.83799 7.16134 16.243 15.4545 -0.25447 5.80945 45.6969
6017444 6.83799 7.16134 16.243 15.4545 -0.25447 5.80945 45.6969
6017454 6.88979 7.24559 16.1589 15.3428 -0.252156 5.70797 45.6371
6017465 6.88979 7.24559 16.1589 15.3428 -0.252156 5.70797 45.6371
6017474 6.79482 7.25496 16.222 15.3614 -0.219375 5.76346 45.6332
6017485 6.83799 7.20815 16.2325 15.4452 -0.228071 5.78416 45.7239
6017506 6.81209 7.20815 16.2851 15.4825 -0.22198 5.81399 45.7878
6017516 6.79482 7.18943 16.2641 15.4452 -0.232103 5.81868 45.6936
6017526 6.79482 7.18943 16.2641 15.4452 -0.232103 5.81868 45.6936
6017536 6.76892 7.18007 16.2641 15.4639 -0.212947 5.83849 45.6769
6017547 6.80345 7.18007 16.243 15.4359 -0.235699 5.8129 45.6625
6017567 6.75165 7.16134 16.4007 15.3894 -0.329119 5.86737 45.7031
6017577 6.75165 7.16134 16.4007 15.3894 -0.329119 5.86737 45.7031
6017590 6.72575 7.09582 16.4743 15.4173 -0.375691 5.92938 45.7132
6017596 6.70848 7.08645 16.59 15.5104 -0.382176 5.98279 45.8953
6017606 6.70848 7.08645 16.59 15.5104 -0.382176 5.98279 45.8953
6017616 6.67395 7.08645 16.632 15.4545 -0.41714 5.99587 45.847
6017626 6.60488 7.05837 16.632 15.5104 -0.364658 6.05139 45.8057
6017636 6.60488 7.05837 16.632 15.5104 -0.364658 6.05139 45.8057
6017646 6.59624 7.05837 16.7477 15.557 -0.396328 6.08692 45.9592
6017656 6.59624 7.05837 16.7477 15.557 -0.396328 6.08692 45.9592
6017667 6.54444 6.89923 16.7267 15.5849 -0.429994 6.18548 45.7552
6017676 6.50127 6.90859 16.8213 15.6594 -0.411081 6.23357 45.8905
6017687 6.50127 6.90859 16.8213 15.6594 -0.411081 6.23357 45.8905
6017699 6.47537 6.9554 16.8738 15.7525 -0.348125 6.25166 46.0571
6017706 6.4322 6.87115 16.8213 15.7525 -0.343235 6.30066 45.8771
6017717 6.4322 6.87115 16.8213 15.7525 -0.343235 6.30066 45.8771
6017729 6.4063 6.87115 16.8844 15.7618 -0.358057 6.32639 45.9236
6017748 6.36313 6.88051 16.9054 15.7711 -0.335865 6.34782 45.9201
6017758 6.25089 6.78689 16.9159 15.7338 -0.353514 6.43894 45.6875
6017768 6.25089 6.78689 16.9159 15.7338 -0.353514 6.43894 45.6875
6017778 6.31133 6.79626 16.7687 15.6687 -0.337636 6.36617 45.545
6017788 6.30269 6.82434 16.7582 15.7245 -0.280648 6.36564 45.6098
6017801 6.30269 6.82434 16.7582 15.7245 -0.280648 6.36564 45.6098
6017808 6.28542 6.91795 16.7161 15.7338 -0.191535 6.32372 45.6534
6017834 6.31133 6.92731 16.7687 15.7711 -0.208414 6.32432 45.7784
6017838 6.32859 6.93667 16.7056 15.8269 -0.147714 6.31055 45.7978
6017848 6.32859 6.93667 16.7056 15.8269 -0.147714 6.31055 45.7978
6017858 6.35449 7.01156 16.6636 15.8735 -0.0724405 6.26461 45.9031
6017868 6.35449 7.01156 16.6636 15.8735 -0.0724405 6.26461 45.9031
6017879 6.3804 6.93667 16.632 15.7897 -0.156349 6.26536 45.7388
6017888 6.4581 7.02093 16.3797 15.7525 -0.0353128 6.1344 45.6112
6017908 6.5358 7.16134 16.3377 15.6687 -0.0237674 6.00912 45.7035
6017920 6.62214 7.1707 16.2536 15.6314 -0.04026 5.94122 45.6778
6017931 6.62214 7.1707 16.2536 15.6314 -0.04026 5.94122 45.6778
6017941 6.66531 7.18007 16.222 15.6221 -0.046584 5.90904 45.6895
6017950 6.71712 7.23623 16.1694 15.557 -0.0511035 5.83619 45.6798
6017962 6.71712 7.23623 16.1694 15.557 -0.0511035 5.83619 45.6798
6017970 6.75165 7.27368 16.0959 15.5663 -0.00413954 5.79047 45.6875
6017982 6.75165 7.27368 16.0959 15.5663 -0.00413954 5.79047 45.6875
6017990 6.77755 7.32985 16.0223 15.5011 0.0170529 5.72507 45.6308
6018002 6.87252 7.38601 15.9592 15.4825 0.0201195 5.63995 45.7002
6018010 6.87252 7.38601 15.9592 15.4825 0.0201195 5.63995 45.7002
6018022 6.85526 7.4141 15.8751 15.4359 0.0656456 5.60822 45.5804
6018030 6.95023 7.4141 15.833 15.4359 0.0365794 5.55668 45.6333
6018042 6.95023 7.4141 15.833 15.4359 0.0365794 5.55668 45.6333
6018050 6.92433 7.48899 15.8646 15.3801 0.0438929 5.52959 45.6579
6018060 6.92433 7.48899 15.8646 15.3801 0.0438929 5.52959 45.6579
6018070 6.94159 7.47963 15.7489 15.3521 0.0775695 5.49616 45.5223
6018080 7.0193 7.52643 15.8015 15.3987 0.0570178 5.46096 45.7459
6018090 7.0193 7.52643 15.8015 15.3987 0.0570178 5.46096 45.7459
6018100 7.02793 7.5826 15.6964 15.3708 0.125372 5.40415 45.6776
6018111 7.0193 7.62004 15.7069 15.3428 0.129521 5.38762 45.689
6018123 7.0193 7.62004 15.7069 15.3428 0.129521 5.38762 45.689
6018131 7.12291 7.66685 15.6858 15.3056 0.0893861 5.3084 45.7812
6018142 7.12291 7.66685 15.6858 15.3056 0.0893861 5.3084 45.7812
6018151 7.06247 7.62004 15.6122 15.3056 0.137565 5.34053 45.6003
6018163 7.10564 7.67621 15.6858 15.2963 0.0988841 5.30994 45.764
6018173 7.10564 7.67621 15.6858 15.2963 0.0988841 5.30994 45.764
6018183 7.097 7.66685 15.6648 15.2963 0.110066 5.31348 45.7249
6018196 7.0711 7.67621 15.7384 15.2497 0.0636458 5.32655 45.7354
6018219 7.05383 7.60132 15.7174 15.2777 0.0590175 5.36905 45.6502
6018226 7.05383 7.60132 15.7174 15.2777 0.0590175 5.36905 45.6502
6018232 6.9934 7.57324 15.7594 15.259 0.043571 5.41356 45.5851
6018244 6.9934 7.49835 15.6543 15.2497 0.0552773 5.42306 45.3958
6018254 6.9934 7.49835 15.6543 15.2497 0.0552773 5.42306 45.3958
6018265 7.01067 7.45154 15.7489 15.2963 -0.00646263 5.46603 45.5074
6018274 7.00203 7.48899 15.812 15.287 -0.020878 5.46434 45.59
6018285 7.00203 7.48899 15.812 15.287 -0.020878 5.46434 45.59
6018294 6.97613 7.44218 15.8856 15.3521 -0.0369102 5.52591 45.656
6018304 6.97613 7.44218 15.8856 15.3521 -0.0369102 5.52591 45.656
6018314 6.93296 7.37665 15.9697 15.408 -0.0645742 5.60377 45.6873
6018324 6.86389 7.32985 16.1274 15.4545 -0.112994 5.69785 45.7757
6018334 6.86389 7.32985 16.1274 15.4545 -0.112994 5.69785 45.7757
6018347 6.85526 7.31112 16.1064 15.4732 -0.0969142 5.70974 45.7459
6018354 6.82936 7.33921 16.0643 15.3428 -0.11609 5.67361 45.5757
6018366 6.82936 7.33921 16.0643 15.3428 -0.11609 5.67361 45.5757
6018374 6.88979 7.38601 16.0117 15.3428 -0.0946179 5.61428 45.6304
6018432 6.88979 7.38601 16.0117 15.3428 -0.0946179 5.61428 45.6304
6018438 6.90706 7.39537 16.0643 15.3614 -0.117299 5.61688 45.7282
6018440 6.95023 7.33921 16.0748 15.3335 -0.192752 5.61917 45.6978
6018442 6.95023 7.33921 16.0748 15.3335 -0.192752 5.61917 45.6978
6018442 6.86389 7.31112 16.0433 15.3428 -0.138952 5.66638 45.5611
6018443 6.93296 7.40474 16.1169 15.3428 -0.165009 5.60796 45.7974
6018455 6.94159 7.37665 16.1169 15.3242 -0.19538 5.6129 45.7593
6018465 6.90706 7.30176 16.0223 15.3149 -0.17162 5.641 45.546
6018475 6.90706 7.30176 16.0223 15.3149 -0.17162 5.641 45.546
6018485 6.9675 7.31112 16.0538 15.287 -0.231925 5.61016 45.6194
6018495 6.9675 7.31112 16.0538 15.287 -0.231925 5.61016 45.6194
6018515 6.87252 7.33921 16.0643 15.259 -0.185898 5.63685 45.5351
6018516 6.90706 7.31112 16.2641 15.408 -0.246243 5.7051 45.8902
6018526 6.90706 7.31112 16.2641 15.408 -0.246243 5.7051 45.8902
6018536 6.87252 7.24559 16.1484 15.3801 -0.216493 5.72125 45.6466
6018599 6.87252 7.24559 16.3166 15.3801 -0.307487 5.75532 45.8148
6018600 6.78619 7.20815 16.3166 15.4452 -0.245561 5.82463 45.7562
6018662 6.78619 7.15198 16.4218 15.4173 -0.348788 5.86566 45.7772
6018664 6.68258 7.22687 16.4743 15.4173 -0.279872 5.88922 45.8011
6018726 6.5358 7.11454 16.6005 15.5476 -0.258806 6.05843 45.7985
6018727 6.51854 7.08645 16.6531 15.4918 -0.324242 6.07866 45.7498
6018790 6.52717 7.04901 16.6741 15.4732 -0.3713 6.09241 45.7234
6018793 6.51854 7.01156 16.6531 15.4825 -0.370935 6.11141 45.6656
6018856 6.57034 7.13326 16.59 15.4545 -0.312863 6.01366 45.7481
6018857 6.57897 7.14262 16.5164 15.5383 -0.226322 6.00741 45.7763
6018918 6.61351 7.1707 16.569 15.6035 -0.222085 6.00182 45.9567
6018919 6.69985 7.19879 16.5269 15.4732 -0.302184 5.91567 45.8987
6018981 6.76892 7.19879 16.4848 15.3708 -0.373292 5.8555 45.8233
6018982 6.76892 7.19879 16.4848 15.3708 -0.373292 5.8555 45.8233
6019049 6.78619 7.18007 16.2536 15.3708 -0.2681 5.80978 45.5906
6019050 6.77755 7.18007 16.2115 15.3894 -0.230259 5.80899 45.5585
6019109 6.82936 7.26432 16.4218 15.4732 -0.279222 5.8062 45.9886
6019110 6.91569 7.32048 16.3692 15.4918 -0.256321 5.73511 46.0972
6019172 6.86389 7.18007 16.2536 15.3149 -0.341183 5.76307 45.6124
6019174 6.86389 7.18007 16.2536 15.3149 -0.341183 5.76307 45.6124
6019176 6.78619 7.18007 16.3587 15.4918 -0.258106 5.85514 45.8167
6019236 6.78619 7.18007 16.3587 15.4918 -0.258106 5.85514 45.8167
6019239 6.81209 7.15198 16.4323 15.3801 -0.389023 5.84852 45.7764
6019300 6.73438 7.11454 16.3692 15.3801 -0.333887 5.88851 45.5982
6019302 6.66531 7.05837 16.4428 15.4359 -0.336501 5.97174 45.6024
6019364 6.62214 7.11454 16.6741 15.4918 -0.375746 6.02227 45.9026
6019365 6.62214 7.11454 16.6741 15.4918 -0.375746 6.02227 45.9026
6019428 6.64804 7.03965 16.7267 15.4639 -0.474733 6.04954 45.8782
6019429 6.58761 7.02093 16.6531 15.4918 -0.397763 6.07703 45.7534
6019491 6.55307 6.98348 16.7477 15.678 -0.347726 6.16456 45.9622
6019494 6.55307 6.98348 16.7477 15.678 -0.347726 6.16456 45.9622
6019556 6.3804 6.92731 16.8949 15.7525 -0.32395 6.31257 45.955
6019556 6.3804 6.92731 16.8949 15.7525 -0.32395 6.31257 45.955
6019619 6.33723 6.86178 16.8633 15.7152 -0.34053 6.35012 45.7776
6019620 6.31133 6.86178 16.7687 15.7525 -0.254838 6.35136 45.6943
6019621 6.42357 6.9554 16.7267 15.6873 -0.277077 6.23513 45.7929
6019682 6.44083 6.98348 16.7372 15.7804 -0.225353 6.23394 45.9419
6019684 6.44083 6.98348 16.7372 15.7804 -0.225353 6.23394 45.9419
6019746 6.32859 6.9554 16.59 15.7245 -0.130838 6.26025 45.5985
6019748 6.32859 6.9554 16.59 15.7245 -0.130838 6.26025 45.5985
6019810 6.36313 6.96476 16.59 15.7804 -0.113767 6.25051 45.6983
6019811 6.3804 6.97412 16.611 15.7711 -0.134575 6.24038 45.7366
6019814 6.484 7.06773 16.569 15.8083 -0.0962913 6.14825 45.929
6019874 6.52717 7.10518 16.611 15.7618 -0.147389 6.11033 46.0051
6019875 6.52717 7.10518 16.611 15.7618 -0.147389 6.11033 46.0051
6019905 6.52717 7.13326 16.3797 15.6314 -0.0778347 6.02696 45.6716
6019906 6.56171 7.04901 16.3587 15.6407 -0.12642 6.04757 45.6101
6019915 6.54444 7.07709 16.4007 15.7059 -0.0886619 6.06359 45.7282
6019925 6.484 7.10518 16.3482 15.678 -0.0268638 6.06276 45.6153
6019935 6.55307 7.09582 16.4323 15.7432 -0.0798628 6.06443 45.8243
6019947 6.55307 7.09582 16.4323 15.7432 -0.0798628 6.06443 45.8243
6019956 6.51854 6.98348 16.569 15.8083 -0.161123 6.17117 45.8793
6019966 6.51854 6.98348 16.569 15.8083 -0.161123 6.17117 45.8793
6019976 6.46673 6.97412 16.5269 15.8176 -0.110233 6.19314 45.7854
6019986 6.4581 6.97412 16.569 15.8083 -0.133495 6.20343 45.8095
6019996 6.4581 6.97412 16.569 15.8083 -0.133495 6.20343 45.8095
6020009 6.46673 7.0022 16.5374 15.799 -0.110759 6.17859 45.8054
6020016 6.44083 7.01156 16.569 15.7525 -0.134224 6.18335 45.7738
6020026 6.44083 7.01156 16.569 15.7525 -0.134224 6.18335 45.7738
6020036 6.4581 7.08645 16.5795 15.7432 -0.11335 6.14101 45.8672
6020057 6.49264 7.01156 16.5374 15.6407 -0.206721 6.13168 45.6824
6020066 6.51854 7.05837 16.5374 15.6501 -0.189845 6.09991 45.7644
6020077 6.51854 7.05837 16.5374 15.6501 -0.189845 6.09991 45.7644
6020086 6.60488 7.09582 16.4848 15.5756 -0.228542 6.01812 45.7611
6020098 6.59624 7.1239 16.4848 15.5849 -0.20327 6.01102 45.7899
6020106 6.59624 7.1239 16.4848 15.5849 -0.20327 6.01102 45.7899
6020118 6.66531 7.1239 16.5059 15.5849 -0.251965 5.98351 45.88
6020145 6.60488 7.06773 16.4533 15.529 -0.252673 6.01569 45.6549
6020147 6.63078 7.09582 16.4743 15.4452 -0.308932 5.97848 45.6462
6020157 6.63078 7.09582 16.4743 15.4452 -0.308932 5.97848 45.6462
6020167 6.71712 7.09582 16.4113 15.4452 -0.321507 5.92636 45.6694
6020180 6.72575 7.20815 16.2956 15.3521 -0.252882 5.82927 45.5816
6020199 6.83799 7.22687 16.2325 15.3149 -0.289808 5.74929 45.6123
6020209 6.83799 7.22687 16.2325 15.3149 -0.289808 5.74929 45.6123
6020220 6.77755 7.19879 16.243 15.2963 -0.288655 5.788 45.5157
6020229 6.87252 7.32985 16.3587 15.3056 -0.324737 5.71065 45.8666
6020241 6.87252 7.32985 16.3587 15.3056 -0.324737 5.71065 45.8666
6020249 6.84662 7.31112 16.201 15.2777 -0.251351 5.69312 45.6364
6020261 6.95886 7.30176 16.243 15.287 -0.334772 5.65707 45.7906
6020270 6.95886 7.30176 16.243 15.287 -0.334772 5.65707 45.7906
6020280 6.94159 7.37665 16.1905 15.2497 -0.276285 5.61272 45.7584
6020290 6.94159 7.35793 16.1905 15.2218 -0.302081 5.61543 45.7118
6020310 6.93296 7.34857 16.2746 15.2963 -0.306799 5.65597 45.8524
6020323 6.93296 7.34857 16.2746 15.2963 -0.306799 5.65597 45.8524
6020330 6.89843 7.28304 16.2851 15.2777 -0.340384 5.6995 45.7442
6020341 6.84662 7.26432 16.2746 15.2497 -0.332615 5.72366 45.6352
6020350 6.84662 7.26432 16.2746 15.2497 -0.332615 5.72366 45.6352
6020362 6.82936 7.31112 16.3271 15.2683 -0.315416 5.72471 45.736
6020370 6.86389 7.28304 16.3587 15.3428 -0.325373 5.74324 45.8484
6020391 6.76892 7.2924 16.4428 15.3708 -0.298943 5.80456 45.8749
6020401 6.76892 7.2924 16.4428 15.3708 -0.298943 5.80456 45.8749
6020411 6.75165 7.30176 16.3377 15.3894 -0.217436 5.79078 45.7804
6020423 6.68258 7.26432 16.4743 15.3894 -0.274621 5.86659 45.8106
6020433 6.68258 7.26432 16.4743 15.3894 -0.274621 5.86659 45.8106
6020444 6.63078 7.23623 16.4428 15.3801 -0.250205 5.89491 45.6899
6020453 6.60488 7.26432 16.4638 15.4452 -0.196132 5.91106 45.7782
6020473 6.69121 7.22687 16.3587 15.4266 -0.216842 5.86408 45.7034
6020484 6.69985 7.2924 16.4323 15.3335 -0.276569 5.82637 45.758
6020504 6.75165 7.20815 16.3902 15.3708 -0.307833 5.84018 45.7208
6020514 6.75165 7.20815 16.3902 15.3708 -0.307833 5.84018 45.7208
6020526 6.69985 7.21751 16.2746 15.3894 -0.201584 5.84009 45.5813
6020534 6.74302 7.23623 16.5059 15.3708 -0.349955 5.85444 45.8559
6020544 6.74302 7.23623 16.5059 15.3708 -0.349955 5.85444 45.8559
6020554 6.69985 7.22687 16.4954 15.4825 -0.264604 5.89847 45.9046
6020564 6.69121 7.22687 16.4743 15.4918 -0.243489 5.90008 45.8842
6020574 6.69121 7.22687 16.4743 15.4918 -0.243489 5.90008 45.8842
6020584 6.69121 7.25496 16.4428 15.408 -0.257145 5.86435 45.797
6020594 6.69121 7.25496 16.4428 15.408 -0.257145 5.86435 45.797
6020604 6.72575 7.23623 16.3797 15.3801 -0.267468 5.83895 45.7218
6020614 6.74302 7.22687 16.3797 15.3521 -0.29743 5.82974 45.7017
6020627 6.74302 7.22687 16.3797 15.3521 -0.29743 5.82974 45.7017
6020635 6.74302 7.23623 16.3797 15.3335 -0.302556 5.82174 45.6925
6020646 6.70848 7.22687 16.2746 15.3521 -0.221707 5.82437 45.5621
6020655 6.70848 7.22687 16.2746 15.3521 -0.221707 5.82437 45.5621
6020667 6.80345 7.32985 16.2851 15.3056 -0.247747 5.72699 45.724
6020675 6.80345 7.32985 16.2851 15.3056 -0.247747 5.72699 45.724
6020687 6.81209 7.34857 16.222 15.3614 -0.177121 5.71313 45.7441
6020695 6.82072 7.32048 16.1694 15.3056 -0.199546 5.69989 45.6162
6020707 6.82072 7.32048 16.1694 15.3056 -0.199546 5.69989 45.6162
6020716 6.86389 7.28304 16.1379 15.3428 -0.20598 5.69845 45.6277
6020725 6.86389 7.28304 16.1484 15.3428 -0.211692 5.7006 45.6382
6020736 6.82936 7.2924 16.1484 15.3614 -0.17747 5.71581 45.6316
6020746 6.86389 7.32985 16.201 15.2777 -0.250359 5.67682 45.6724
6020756 6.86389 7.32985 16.201 15.2777 -0.250359 5.67682 45.6724
6020767 6.85526 7.34857 16.1484 15.3242 -0.181112 5.67102 45.6765
6020776 6.90706 7.38601 16.0643 15.4266 -0.0866815 5.63446 45.784
6020787 6.90706 7.38601 16.0643 15.4266 -0.0866815 5.63446 45.784
6020796 6.93296 7.40474 16.0117 15.287 -0.1386 5.57483 45.6364
6020806 6.95886 7.43282 16.0433 15.2963 -0.149272 5.55896 45.7312
6020816 6.95886 7.43282 16.0433 15.2963 -0.149272 5.55896 45.7312
6020826 6.92433 7.48899 16.0433 15.2777 -0.109859 5.54539 45.7343
6020839 6.92433 7.48899 16.0433 15.2777 -0.109859 5.54539 45.7343
6020846 6.91569 7.4609 15.9697 15.2311 -0.106074 5.53702 45.5774
6020856 6.90706 7.47026 15.9487 15.2497 -0.0744581 5.5362 45.5757
6020869 6.90706 7.47026 15.9487 15.2497 -0.0744581 5.5362 45.5757
6020876 6.95886 7.47963 15.9487 15.2311 -0.107852 5.5048 45.6183
6020887 6.98476 7.4609 15.9276 15.287 -0.0900894 5.50882 45.6603
6020896 6.98476 7.4609 15.9276 15.287 -0.0900894 5.50882 45.6603
6020906 6.92433 7.44218 16.0433 15.259 -0.145832 5.5626 45.6688
6020916 6.92433 7.44218 16.0433 15.259 -0.145832 5.5626 45.6688
6020927 6.94159 7.48899 15.9697 15.259 -0.089395 5.51853 45.6593
6020939 6.90706 7.47026 16.0328 15.2963 -0.0947863 5.56325 45.7064
6020947 6.90706 7.47026 16.0328 15.2963 -0.0947863 5.56325 45.7064
6020956 6.95023 7.43282 16.0117 15.3335 -0.106961 5.56402 45.7283
6020967 6.95023 7.43282 16.0117 15.3335 -0.106961 5.56402 45.7283
6020976 6.95886 7.48899 15.9382 15.3428 -0.035648 5.52162 45.7288
6020988 6.95023 7.47963 15.9697 15.4266 -0.00746548 5.55353 45.8262
6020996 6.95023 7.47963 15.9697 15.4266 -0.00746548 5.55353 45.8262
6021006 6.9675 7.49835 15.9276 15.3987 0.00103414 5.52293 45.7922
6021016 6.94159 7.4609 15.9171 15.3801 -0.00971407 5.54534 45.6997
6021037 6.97613 7.51707 15.791 15.4452 0.106716 5.49198 45.7294
6021058 6.9675 7.49835 15.8225 15.3987 0.0585645 5.50113 45.687
6021068 7.06247 7.55452 15.6858 15.3894 0.107011 5.40297 45.6922
6021077 7.06247 7.55452 15.6858 15.3894 0.107011 5.40297 45.6922
6021089 7.0193 7.56388 15.6017 15.3242 0.146702 5.38664 45.5091
6021098 7.0452 7.5826 15.6122 15.3894 0.172329 5.38265 45.6294
6021110 7.0452 7.5826 15.6122 15.3894 0.172329 5.38265 45.6294
6021118 7.0193 7.64813 15.6122 15.4173 0.237375 5.37086 45.697
6021128 7.0193 7.64813 15.6122 15.4173 0.237375 5.37086 45.697
6021137 6.95023 7.59196 15.6333 15.408 0.228402 5.4293 45.5835
6021150 6.97613 7.47963 15.6648 15.4639 0.165921 5.48638 45.5844
6021158 6.97613 7.47963 15.6648 15.4639 0.165921 5.48638 45.5844
6021170 6.9934 7.50771 15.5807 15.4173 0.192815 5.43865 45.4991
6021180 6.94159 7.47963 15.6753 15.4639 0.179192 5.50411 45.5604
6021192 6.94159 7.47963 15.6753 15.4639 0.179192 5.50411 45.5604
6021199 6.9934 7.51707 15.7594 15.5104 0.14998 5.49124 45.7803
6021209 6.9934 7.51707 15.7594 15.5104 0.14998 5.49124 45.7803
6021219 6.94159 7.49835 15.7384 15.4825 0.164706 5.51269 45.6608
6021229 6.97613 7.48899 15.8225 15.5663 0.139907 5.53617 45.8539
6021249 6.94159 7.4609 15.8856 15.529 0.088799 5.56957 45.8171
6021260 6.80345 7.38601 15.9382 15.5476 0.105116 5.68021 45.6753
6021270 6.80345 7.38601 15.9382 15.5476 0.105116 5.68021 45.6753
6021280 6.73438 7.37665 15.9802 15.6407 0.165534 5.74322 45.732
6021290 6.73438 7.37665 15.9802 15.6407 0.165534 5.74322 45.732
6021300 6.63941 7.2924 16.1589 15.678 0.0939727 5.86812 45.7687
6021310 6.52717 7.16134 16.3377 15.7804 0.0419736 6.03501 45.8066
6021320 6.52717 7.16134 16.3377 15.7804 0.0419736 6.03501 45.8066
6021331 6.44083 7.15198 16.4638 15.7897 0.0201941 6.10541 45.8463
6021340 6.36313 7.08645 16.569 15.8642 0.0101089 6.20611 45.8827
6021350 6.36313 7.08645 16.569 15.8642 0.0101089 6.20611 45.8827
6021360 6.33723 6.98348 16.6531 15.9387 -0.0371039 6.29601 45.9124
6021371 6.33723 6.98348 16.6531 15.9387 -0.0371039 6.29601 45.9124
6021380 6.25089 6.9554 16.7056 15.948 -0.0289723 6.36089 45.8599
6021392 6.22499 6.88987 16.7056 15.9852 -0.0303105 6.41055 45.8057
6021403 6.22499 6.88987 16.7056 15.9852 -0.0303105 6.41055 45.8057
6021414 6.20772 6.79626 16.8633 15.948 -0.178336 6.48495 45.8153
6021425 6.19045 6.77753 16.9474 15.9294 -0.235032 6.51398 45.8448
6021430 6.19045 6.77753 16.9474 15.9294 -0.235032 6.51398 45.8448
6021440 6.22499 6.81498 16.8844 15.8735 -0.229742 6.45813 45.7978
6021450 6.22499 6.81498 16.8844 15.8735 -0.229742 6.45813 45.7978
6021460 6.27679 6.75881 16.9054 15.8083 -0.33609 6.45193 45.7493
6021472 6.31996 6.84306 16.8423 15.8269 -0.26851 6.384 45.8323
6021484 6.31996 6.84306 16.8423 15.8269 -0.26851 6.384 45.8323
6021492 6.31133 6.81498 16.8108 15.7152 -0.324127 6.37416 45.6523
6021502 6.4322 6.85242 16.8528 15.7618 -0.365373 6.31709 45.8992
6021512 6.4322 6.85242 16.8528 15.7618 -0.365373 6.31709 45.8992
6021521 6.47537 6.91795 16.8528 15.7432 -0.362626 6.26319 45.9893
6021541 6.4322 6.88051 16.8002 15.7432 -0.331901 6.29056 45.8561
6021551 6.47537 6.97412 16.6636 15.7432 -0.229886 6.20109 45.8562
6021561 6.47537 6.97412 16.6636 15.7432 -0.229886 6.20109 45.8562
6021574 6.52717 6.96476 16.569 15.6035 -0.288989 6.13625 45.6644
6021582 6.51854 6.92731 16.5059 15.5942 -0.276044 6.14354 45.5459
6021592 6.51854 6.92731 16.5059 15.5942 -0.276044 6.14354 45.5459
6021603 6.55307 6.98348 16.4007 15.5756 -0.21684 6.07732 45.5129
6021612 6.55307 6.98348 16.4007 15.5756 -0.21684 6.07732 45.5129
6021623 6.63941 7.01156 16.3797 15.6221 -0.211069 6.02949 45.6528
6021634 6.62214 7.08645 16.5269 15.7152 -0.188988 6.05002 45.9507
6021653 6.60488 7.10518 16.4743 15.7618 -0.115493 6.04818 45.9462
6021664 6.60488 7.07709 16.4323 15.8363 -0.0673607 6.06737 45.9505
6021676 6.60488 7.07709 16.4323 15.8363 -0.0673607 6.06737 45.9505
6021685 6.66531 7.08645 16.4533 15.7804 -0.136876 6.02862 45.9855
6021694 6.66531 7.08645 16.4533 15.7804 -0.136876 6.02862 45.9855
6021705 6.56171 7.07709 16.4218 15.7711 -0.0738025 6.07246 45.8317
6021714 6.5358 7.03965 16.4638 15.7711 -0.103086 6.10979 45.8104
6021725 6.5358 7.03965 16.4638 15.7711 -0.103086 6.10979 45.8104
6021734 6.55307 7.01156 16.4007 15.799 -0.0782475 6.10795 45.7644
6021746 6.39766 6.97412 16.4218 15.7804 -0.0356123 6.19775 45.5739
6021754 6.39766 6.97412 16.4218 15.7804 -0.0356123 6.19775 45.5739
6021764 6.44083 6.99284 16.5164 15.8269 -0.0750571 6.19623 45.777
6021784 6.37176 6.9554 16.632 15.92 -0.0699431 6.2855 45.8792
6021796 6.31133 6.90859 16.7687 15.9387 -0.126709 6.36467 45.9273
6021814 6.30269 6.84306 16.8108 15.9945 -0.150087 6.41755 45.951
6021825 6.20772 6.81498 16.8213 15.9945 -0.119708 6.47701 45.8385
6021834 6.20772 6.81498 16.8213 15.9945 -0.119708 6.47701 45.8385
6021844 6.08685 6.81498 16.9474 16.0225 -0.107282 6.56223 45.8717
6021854 6.08685 6.81498 16.9474 16.0225 -0.107282 6.56223 45.8717
6021865 6.07821 6.73073 16.9895 16.0225 -0.171602 6.61369 45.8209
6021875 6.09548 6.69328 17.0886 16.0504 -0.239728 6.64638 45.9277
6021887 6.09548 6.69328 17.0886 16.0504 -0.239728 6.64638 45.9277
6021895 6.07821 6.61839 17.0492 16.0318 -0.260651 6.67937 45.7776
6021906 6.08685 6.63711 17.0787 16.0411 -0.265796 6.67349 45.8438
6021915 6.08685 6.63711 17.0787 16.0411 -0.265796 6.67349 45.8438
6021925 6.07821 6.65584 17.1969 16.1062 -0.27858 6.70189 46.0372
6021947 5.97461 6.59967 17.2166 16.1528 -0.238717 6.78932 45.9436
6021956 5.96597 6.57159 17.2264 16.1807 -0.239454 6.81349 45.9447
6021966 5.96597 6.57159 17.2264 16.1807 -0.239454 6.81349 45.9447
6021976 5.93144 6.5435 17.2658 16.2366 -0.226815 6.86015 45.9773
6021986 6.00914 6.52478 17.3052 16.2366 -0.300014 6.83912 46.0757
6021996 6.00914 6.52478 17.3052 16.2366 -0.300014 6.83912 46.0757
6022006 5.96597 6.51542 17.3248 16.2552 -0.282335 6.87082 46.0614
6022016 5.96597 6.51542 17.3248 16.2552 -0.282335 6.87082 46.0614
6022026 5.9487 6.51542 17.2067 16.1714 -0.255544 6.84325 45.8423
6022036 5.9487 6.46861 17.2264 16.0876 -0.33832 6.85417 45.7313
6022047 5.9487 6.46861 17.2264 16.0876 -0.33832 6.85417 45.7313
6022056 5.99187 6.45925 17.1575 16.0597 -0.345112 6.82073 45.6683
6022066 5.95734 6.44989 17.187 16.0411 -0.357948 6.84367 45.6353
6022076 5.95734 6.44989 17.187 16.0411 -0.357948 6.84367 45.6353
6022086 5.98324 6.48733 17.2264 16.1249 -0.325961 6.83539 45.8218
6022106 5.96597 6.47797 17.2362 16.1528 -0.311704 6.85481 45.833
6022118 6.03504 6.50606 17.2855 16.1621 -0.354624 6.81901 45.9887
6022126 6.03504 6.50606 17.2855 16.1621 -0.354624 6.81901 45.9887
6022138 6.11275 6.50606 17.2756 16.1528 -0.396071 6.77878 46.0472
6022146 6.09548 6.56222 17.2658 16.1342 -0.360884 6.75531 46.0577
6022158 6.09548 6.56222 17.2658 16.1342 -0.360884 6.75531 46.0577
6022166 6.18182 6.58095 17.1378 16.069 -0.364196 6.67095 45.9696
6022178 6.18182 6.58095 17.1378 16.069 -0.364196 6.67095 45.9696
6022186 6.12138 6.59967 17.0197 15.9014 -0.350541 6.63862 45.6422
6022198 6.25952 6.64648 16.9369 15.9294 -0.338967 6.54117 45.7723
6022209 6.25952 6.64648 16.9369 15.9294 -0.338967 6.54117 45.7723
6022235 6.31996 6.74945 16.7897 15.8269 -0.29183 6.4179 45.6861
6022239 6.41493 6.87115 16.7267 15.7245 -0.29839 6.28539 45.7373
6022240 6.41493 6.87115 16.7267 15.7245 -0.29839 6.28539 45.7373
6022247 6.4322 6.86178 16.6531 15.8176 -0.221701 6.28543 45.7647
6022259 6.4322 6.86178 16.6531 15.8176 -0.221701 6.28543 45.7647
6022267 6.39766 6.84306 16.6425 15.7804 -0.228167 6.30114 45.6637
6022279 6.49264 6.82434 16.7267 15.8642 -0.289039 6.29758 45.9078
6022287 6.49264 6.82434 16.7267 15.8642 -0.289039 6.29758 45.9078
6022297 6.41493 6.94604 16.7477 15.9294 -0.15597 6.29352 46.038
6022310 6.4063 6.90859 16.7056 15.8735 -0.179674 6.29632 45.894
6022318 6.4063 6.90859 16.7056 15.8735 -0.179674 6.29632 45.894
6022328 6.41493 6.88051 16.632 15.8363 -0.180385 6.2843 45.7637
6022338 6.41493 6.88051 16.632 15.8363 -0.180385 6.2843 45.7637
6022348 6.4322 6.85242 16.6846 15.8363 -0.233664 6.29932 45.8055
6022358 6.42357 6.85242 16.611 15.8921 -0.158389 6.29997 45.7791
6022368 6.42357 6.85242 16.611 15.8921 -0.158389 6.29997 45.7791
6022377 6.3804 6.92731 16.569 15.9107 -0.0607729 6.28076 45.7874
6022398 6.4063 6.91795 16.6531 15.9107 -0.125672 6.28907 45.888
6022412 6.38903 6.89923 16.59 15.9666 -0.0617251 6.30441 45.8448
6022419 6.38903 6.89923 16.59 15.9666 -0.0617251 6.30441 45.8448
6022429 6.39766 6.85242 16.6005 15.9107 -0.128384 6.31357 45.7613
6022439 6.4063 6.93667 16.611 16.0597 -0.011377 6.30065 46.0137
6022449 6.4063 6.93667 16.611 16.0597 -0.011377 6.30065 46.0137
6022461 6.4322 7.02093 16.5584 15.9945 0.0134826 6.22738 46.0061
6022469 6.41493 6.91795 16.5374 15.8642 -0.0930429 6.25416 45.7345
6022479 6.41493 6.91795 16.5374 15.8642 -0.0930429 6.25416 45.7345
6022489 6.4581 6.99284 16.59 15.8642 -0.104052 6.20951 45.9051
6022499 6.4581 6.99284 16.59 15.8642 -0.104052 6.20951 45.9051
6022509 6.39766 6.93667 16.5059 15.8083 -0.0868261 6.23674 45.6485
6022521 6.41493 6.91795 16.4743 15.8176 -0.084208 6.23314 45.6249
6022529 6.41493 6.91795 16.4743 15.8176 -0.084208 6.23314 45.6249
6022539 6.44947 6.93667 16.4533 15.7245 -0.132541 6.18637 45.564
6022549 6.44947 6.93667 16.4533 15.7245 -0.132541 6.18637 45.564
6022559 6.4581 6.93667 16.4533 15.7059 -0.147527 6.17875 45.554
6022569 6.57897 6.98348 16.5059 15.8176 -0.154586 6.13294 45.886
6022589 6.55307 6.9554 16.4113 15.7804 -0.125021 6.13232 45.7001
6022603 6.64804 6.99284 16.3902 15.6873 -0.19584 6.04897 45.7184
6022615 6.64804 6.99284 16.3902 15.6873 -0.19584 6.04897 45.7184
6022620 6.78619 7.05837 16.3482 15.6314 -0.242534 5.9363 45.8242
6022631 6.78619 7.05837 16.3482 15.6314 -0.242534 5.9363 45.8242
6022643 6.80345 7.1239 16.2851 15.6407 -0.1766 5.88786 45.8532
6022653 6.89843 7.15198 16.2746 15.5756 -0.242616 5.81684 45.9006
6022660 6.89843 7.15198 16.2746 15.5756 -0.242616 5.81684 45.9006
6022671 6.89843 7.1707 16.18 15.5011 -0.222179 5.77438 45.7502
6022683 6.94159 7.1707 16.1379 15.4639 -0.243331 5.73876 45.7141
6022705 6.98476 7.13326 16.18 15.4266 -0.330703 5.73714 45.7246
6022715 6.9934 7.1239 16.1484 15.4359 -0.318368 5.73296 45.7016
6022731 6.95886 7.16134 16.1169 15.4918 -0.231044 5.73657 45.7289
6022749 6.95886 7.16134 16.1169 15.4918 -0.231044 5.73657 45.7289
6022756 6.94159 7.09582 16.0853 15.4452 -0.266574 5.75837 45.568
6022801 6.92433 7.03965 16.1484 15.4266 -0.332949 5.80087 45.539
6022802 6.92433 7.03965 16.1484 15.4266 -0.332949 5.80087 45.539
6022802 6.95023 7.0022 16.243 15.4918 -0.382645 5.8383 45.6873
6022803 6.89843 7.03965 16.3482 15.5756 -0.344174 5.88256 45.8618
6022804 6.89843 7.03965 16.3482 15.5756 -0.344174 5.88256 45.8618
6022811 6.80345 6.92731 16.4218 15.6594 -0.348459 6.00838 45.8119
6022821 6.80345 6.92731 16.4218 15.6594 -0.348459 6.00838 45.8119
6022831 6.71712 6.88987 16.59 15.7059 -0.3874 6.1071 45.9029
6022845 6.63941 6.91795 16.7477 15.8176 -0.353137 6.18176 46.1227
6022851 6.63941 6.91795 16.7477 15.8176 -0.353137 6.18176 46.1227
6022862 6.54444 6.85242 16.7792 15.8083 -0.360399 6.25995 45.9844
6022871 6.484 6.85242 16.7687 15.7711 -0.342879 6.27886 45.8762
6022882 6.484 6.78689 16.7687 15.7711 -0.37913 6.3093 45.8107
6022891 6.484 6.77753 16.8423 15.8456 -0.382599 6.34165 45.9494
6022903 6.484 6.77753 16.8423 15.8456 -0.382599 6.34165 45.9494
6022911 6.37176 6.75881 16.8844 15.8363 -0.360434 6.40879 45.8512
6022924 6.4322 6.73073 16.7897 15.8642 -0.342135 6.38117 45.8168
6022931 6.4322 6.73073 16.7897 15.8642 -0.342135 6.38117 45.8168
6022945 6.39766 6.78689 16.7477 15.8735 -0.26468 6.36491 45.8057
6022953 6.4063 6.78689 16.6005 15.8735 -0.189634 6.33304 45.6672
6022964 6.4063 6.74009 16.6005 15.948 -0.174381 6.36902 45.6949
6022973 6.44947 6.70264 16.6636 15.9387 -0.257753 6.37649 45.7543
6022984 6.44947 6.70264 16.6636 15.9387 -0.257753 6.37649 45.7543
6022993 6.44947 6.69328 16.632 15.9107 -0.261289 6.36964 45.6855
6023005 6.37176 6.72137 16.6846 15.8828 -0.247584 6.39752 45.6605
6023012 6.37176 6.72137 16.6846 15.8828 -0.247584 6.39752 45.6605
6023023 6.4063 6.72137 16.5479 15.9387 -0.161242 6.36608 45.6143
6023033 6.4063 6.72137 16.5479 15.9387 -0.161242 6.36608 45.6143
6023046 6.484 6.80562 16.5164 15.948 -0.134854 6.28625 45.754
6023054 6.484 6.82434 16.5164 16.0038 -0.0939474 6.28818 45.8286
6023066 6.484 6.82434 16.5164 16.0038 -0.0939474 6.28818 45.8286
6023074 6.51854 6.85242 16.4743 15.9852 -0.0846818 6.24756 45.8305
6023085 6.5358 6.93667 16.4007 15.92 -0.0435814 6.17393 45.7933
6023094 6.5358 6.93667 16.4007 15.92 -0.0435814 6.17393 45.7933
6023106 6.54444 7.03029 16.3482 15.8176 -0.0244275 6.0967 45.7405
6023114 6.54444 7.03029 16.3482 15.8176 -0.0244275 6.0967 45.7405
6023125 6.59624 6.9554 16.3587 15.8363 -0.0892311 6.11302 45.7466
6023134 6.62214 7.07709 16.2956 15.8176 -0.0125632 6.02915 45.8125
6023145 6.62214 7.07709 16.2956 15.8176 -0.0125632 6.02915 45.8125
6023158 6.69121 6.99284 16.243 15.6966 -0.134148 6.00201 45.6237
6023165 6.65668 7.05837 16.1589 15.6594 -0.0537395 5.96373 45.5333
6023175 6.65668 7.05837 16.1589 15.6594 -0.0537395 5.96373 45.5333
6023185 6.72575 7.07709 16.201 15.7245 -0.0683993 5.94467 45.7284
6023195 6.71712 7.03965 16.2641 15.7338 -0.113481 5.98009 45.7547
6023216 6.76892 7.07709 16.201 15.6873 -0.112344 5.91753 45.7343
6023228 6.76892 7.07709 16.201 15.6873 -0.112344 5.91753 45.7343
6023236 6.75165 7.01156 16.201 15.7152 -0.123608 5.961 45.6794
6023250 6.79482 7.09582 16.1589 15.6966 -0.0881687 5.89063 45.7462
6023259 6.79482 7.09582 16.1589 15.6966 -0.0881687 5.89063 45.7462
6023266 6.82072 7.08645 16.1694 15.6966 -0.113118 5.88517 45.7732
6023276 6.78619 7.02093 16.2325 15.6687 -0.180008 5.9379 45.7083
6023296 6.82936 7.10518 16.2851 15.6501 -0.195782 5.88644 45.8697
6023306 6.82936 7.10518 16.2851 15.6501 -0.195782 5.88644 45.8697
6023317 6.79482 7.01156 16.2956 15.6035 -0.260013 5.93782 45.7055
6023328 6.80345 7.05837 16.2641 15.6687 -0.185873 5.91913 45.7946
6023339 6.80345 7.05837 16.2641 15.6687 -0.185873 5.91913 45.7946
6023350 6.77755 7.03965 16.3061 15.6501 -0.215174 5.94417 45.7734
6023361 6.76892 7.06773 16.3797 15.5756 -0.275882 5.9351 45.7919
6023369 6.76892 7.06773 16.3797 15.5756 -0.275882 5.9351 45.7919
6023381 6.78619 7.07709 16.4218 15.5942 -0.292434 5.93493 45.8792
6023399 6.71712 6.97412 16.5164 15.557 -0.38372 6.025 45.7646
6023409 6.72575 6.97412 16.4848 15.5476 -0.376555 6.01302 45.7324
6023429 6.68258 6.88987 16.4218 15.4825 -0.402407 6.04655 45.4767
6023440 6.73438 6.99284 16.4113 15.4825 -0.367333 5.97308 45.621
6023460 6.76028 6.96476 16.4323 15.5011 -0.397907 5.98192 45.6584
6023471 6.72575 6.97412 16.4113 15.5383 -0.342035 5.99669 45.6495
6023491 6.77755 7.03965 16.3061 15.529 -0.282024 5.92016 45.6523
6023501 6.77755 7.03965 16.3902 15.529 -0.32748 5.93686 45.7365
6023511 6.76028 7.0022 16.3902 15.4639 -0.375111 5.94902 45.6166
6023522 6.86389 7.07709 16.3061 15.4825 -0.333725 5.85429 45.7296
6023532 6.86389 7.07709 16.3061 15.4825 -0.333725 5.85429 45.7296
6023541 6.86389 7.11454 16.3482 15.4173 -0.371756 5.8326 45.7439
6023551 6.89843 7.13326 16.2115 15.4266 -0.301103 5.78274 45.6698
6023561 6.89843 7.13326 16.2115 15.4266 -0.301103 5.78274 45.6698
6023574 6.89843 7.21751 16.3061 15.3987 -0.321008 5.75794 45.8207
6023581 6.89843 7.21751 16.3061 15.3987 -0.321008 5.75794 45.8207
6023591 6.94159 7.20815 16.3482 15.3987 -0.371999 5.75112 45.8966
6023601 6.94159 7.1707 16.2746 15.3708 -0.368634 5.74758 45.7576
6023611 6.94159 7.1707 16.2746 15.3708 -0.368634 5.74758 45.7576
6023621 6.89843 7.19879 16.18 15.3428 -0.294155 5.72958 45.62
6023634 6.90706 7.18943 16.1694 15.3335 -0.303493 5.72588 45.5995
6023641 6.90706 7.18943 16.1694 15.3335 -0.303493 5.72588 45.5995
6023651 6.92433 7.2924 16.1589 15.2963 -0.270727 5.66162 45.6719
6023661 6.92433 7.2924 16.1589 15.2963 -0.270727 5.66162 45.6719
6023674 6.91569 7.20815 16.1905 15.3149 -0.319491 5.71395 45.6292
6023681 6.90706 7.27368 16.2325 15.3614 -0.275514 5.70618 45.7747
6023691 6.90706 7.27368 16.2325 15.3614 -0.275514 5.70618 45.7747
6023701 6.83799 7.19879 16.243 15.408 -0.259502 5.78303 45.6878
6023711 6.80345 7.22687 16.2115 15.4359 -0.192741 5.78523 45.6778
6023721 6.80345 7.22687 16.2115 15.4359 -0.192741 5.78523 45.6778
6023731 6.90706 7.2924 16.1064 15.4266 -0.160941 5.68531 45.7324
6023744 6.90706 7.2924 16.1064 15.4266 -0.160941 5.68531 45.7324
6023751 6.88979 7.32048 16.0853 15.4359 -0.11957 5.67803 45.7315
6023764 6.90706 7.34857 16.0643 15.4639 -0.0867948 5.65895 45.7838
6023771 6.90706 7.34857 16.0643 15.4639 -0.0867948 5.65895 45.7838
6023784 6.9934 7.38601 15.9592 15.4173 -0.0815555 5.57209 45.7559
6023792 6.95886 7.42346 15.9697 15.3521 -0.0836715 5.55951 45.7042
6023805 6.95886 7.42346 15.9697 15.3521 -0.0836715 5.55951 45.7042
6023813 6.98476 7.4609 16.0223 15.408 -0.0752717 5.55343 45.8759
6023822 6.98476 7.4609 16.0223 15.408 -0.0752717 5.55343 45.8759
6023832 6.9675 7.4141 15.9171 15.3335 -0.0750661 5.54511 45.6322
6023842 7.03657 7.4609 15.8856 15.3242 -0.0749588 5.48457 45.7073
6023853 7.03657 7.4609 15.8856 15.3242 -0.0749588 5.48457 45.7073
6023862 7.02793 7.50771 15.9276 15.3242 -0.0675216 5.47624 45.7875
6023889 6.94159 7.40474 16.0012 15.3149 -0.1222 5.57454 45.6625
6023893 6.91569 7.37665 15.9907 15.3614 -0.0921905 5.60631 45.6445
6023903 6.91569 7.37665 15.9907 15.3614 -0.0921905 5.60631 45.6445
6023912 6.88116 7.37665 16.0117 15.287 -0.125827 5.61091 45.5565
6023923 6.82936 7.34857 16.0223 15.3149 -0.103348 5.65502 45.5151
6023933 6.82936 7.34857 16.0223 15.3149 -0.103348 5.65502 45.5151
6023943 6.87252 7.4141 16.0643 15.3428 -0.0984356 5.62019 45.6938
6023952 6.87252 7.4141 16.0643 15.3428 -0.0984356 5.62019 45.6938
6023962 6.82936 7.32048 16.3061 15.408 -0.22185 5.74447 45.864
6023977 6.82936 7.24559 16.3692 15.3614 -0.32284 5.78173 45.8056
6023983 6.82936 7.24559 16.3692 15.3614 -0.32284 5.78173 45.8056
6023993 6.80345 7.19879 16.3166 15.4173 -0.27549 5.81543 45.7362
6024002 6.77755 7.14262 16.2746 15.408 -0.274938 5.84254 45.6028
6024013 6.77755 7.14262 16.2746 15.408 -0.274938 5.84254 45.6028
6024023 6.80345 7.15198 16.1905 15.4173 -0.232996 5.81138 45.5632
6024033 6.80345 7.15198 16.1905 15.4173 -0.232996 5.81138 45.5632
6024043 6.78619 7.1239 16.1379 15.408 -0.215702 5.81964 45.456
6024053 6.80345 7.10518 16.1484 15.557 -0.1588 5.8524 45.614
6024074 6.84662 7.22687 16.222 15.6501 -0.104314 5.81076 45.9456
6024084 6.77755 7.18943 16.2115 15.7152 -0.0459775 5.87 45.8937
6024094 6.77755 7.18943 16.2115 15.7152 -0.0459775 5.87 45.8937
6024104 6.82936 7.18943 16.222 15.678 -0.100155 5.84114 45.9188
6024114 6.82936 7.18943 16.222 15.678 -0.100155 5.84114 45.9188
6024127 6.82936 7.1707 16.0959 15.6128 -0.077498 5.81134 45.7087
6024134 6.82072 7.2924 15.9382 15.6035 0.0750333 5.72619 45.6548
6024147 6.82072 7.2924 15.9382 15.6035 0.0750333 5.72619 45.6548
6024154 6.87252 7.30176 15.9171 15.5197 0.0174433 5.67709 45.6111
6024168 6.90706 7.27368 15.791 15.5104 0.0473022 5.64639 45.4821
6024175 6.90706 7.27368 15.791 15.5104 0.0473022 5.64639 45.4821
6024187 6.9675 7.33921 15.7805 15.5663 0.0862569 5.59871 45.6534
6024195 6.9675 7.33921 15.7805 15.5663 0.0862569 5.59871 45.6534
6024208 6.88116 7.28304 15.8751 15.557 0.0459254 5.68068 45.5962
6024215 6.87252 7.30176 15.9276 15.5849 0.0473231 5.69253 45.6868
6024228 6.87252 7.30176 15.9276 15.5849 0.0473231 5.69253 45.6868
6024235 6.84662 7.32985 15.8961 15.557 0.0789374 5.67941 45.6295
6024245 6.89843 7.35793 15.8856 15.6128 0.102028 5.65254 45.7548
6024255 6.89843 7.35793 15.8856 15.6128 0.102028 5.65254 45.7548
6024268 6.89843 7.33921 15.8961 15.6221 0.0911385 5.66504 45.7559
6024275 6.89843 7.33921 15.8961 15.6221 0.0911385 5.66504 45.7559
6024285 6.86389 7.30176 15.9171 15.6501 0.0933647 5.70756 45.7328
6024296 6.83799 7.32985 15.9592 15.7059 0.130141 5.72643 45.8329
6024306 6.83799 7.32985 15.9592 15.7059 0.130141 5.72643 45.8329
6024316 6.81209 7.33921 15.9382 15.7245 0.171071 5.73342 45.814
6024326 6.80345 7.27368 15.9066 15.6501 0.117052 5.74559 45.6338
6024336 6.80345 7.27368 15.9066 15.6501 0.117052 5.74559 45.6338
6024347 6.80345 7.2924 15.8856 15.678 0.154042 5.73848 45.6594
6024366 6.71712 7.19879 15.9276 15.6966 0.137588 5.83277 45.5402
6024376 6.72575 7.20815 15.9487 15.7152 0.136495 5.83252 45.5978
6024396 6.68258 7.21751 16.0012 15.8549 0.212303 5.88642 45.7562
6024406 6.60488 7.16134 16.0538 15.8828 0.210854 5.96365 45.7028
6024416 6.60488 7.16134 16.0538 15.8828 0.210854 5.96365 45.7028
6024426 6.63941 7.11454 16.1064 15.948 0.172859 5.9925 45.8083
6024437 6.63941 7.11454 16.1064 15.948 0.172859 5.9925 45.8083
6024446 6.59624 7.14262 16.1064 15.8828 0.176486 5.98658 45.728
6024458 6.68258 7.16134 16.1484 15.92 0.136337 5.95412 45.9124
6024476 6.66531 7.16134 16.0012 15.92 0.226697 5.93293 45.7479
6024486 6.64804 7.18943 16.0959 15.948 0.214413 5.95222 45.8813
6024498 6.64804 7.18943 16.0959 15.948 0.214413 5.95222 45.8813
6024508 6.59624 7.18943 16.1169 15.9573 0.236365 5.98187 45.8598
6024520 6.59624 7.18943 16.1169 15.9573 0.236365 5.98187 45.8598
6024528 6.57897 7.1707 16.0433 15.9573 0.276351 5.98387 45.7503
6024541 6.57034 7.10518 16.1064 15.9387 0.200745 6.02667 45.7206
6024557 6.51854 7.16134 15.9802 15.9852 0.354806 6.00901 45.6453
6024567 6.57897 7.13326 16.1064 15.9573 0.221297 6.01346 45.7759
6024587 6.49264 7.03965 16.1379 15.9666 0.205806 6.10436 45.6368
6024599 6.49264 7.03965 16.1379 15.9666 0.205806 6.10436 45.6368
6024610 6.484 7.02093 16.1169 16.0318 0.24741 6.1256 45.6536
6024623 6.4581 7.08645 16.1694 16.0131 0.258076 6.11389 45.7271
6024633 6.4581 7.08645 16.1694 16.0131 0.258076 6.11389 45.7271
6024639 6.51854 7.05837 16.1064 16.0597 0.269526 6.09574 45.743
6024648 6.57034 7.10518 16.18 16.0411 0.215673 6.06108 45.8966
6024658 6.57034 7.10518 16.18 16.0411 0.215673 6.06108 45.8966
6024668 6.56171 7.13326 16.1274 15.9945 0.239366 6.0328 45.8169
6024679 6.56171 7.13326 16.1274 15.9945 0.239366 6.0328 45.8169
6024687 6.52717 7.09582 16.1169 16.0225 0.259066 6.0693 45.7623
6024698 6.57897 7.14262 16.1589 15.9573 0.197431 6.01947 45.8378
6024710 6.57897 7.14262 16.1589 15.9573 0.197431 6.01947 45.8378
6024718 6.59624 7.18943 16.1379 15.9107 0.19964 5.97685 45.8343
6024727 6.59624 7.14262 16.0223 15.8735 0.217822 5.96813 45.6346
6024738 6.59624 7.14262 16.0223 15.8735 0.217822 5.96813 45.6346
6024748 6.67395 7.18007 16.0643 15.9294 0.202388 5.93476 45.8477
6024758 6.67395 7.18007 16.0643 15.9294 0.202388 5.93476 45.8477
6024768 6.69985 7.1707 16.0223 15.8176 0.145605 5.89669 45.7104
6024778 6.72575 7.21751 16.0223 15.799 0.146681 5.85978 45.7645
6024787 6.72575 7.21751 16.0223 15.799 0.146681 5.85978 45.7645
6024797 6.76028 7.25496 15.9907 15.7804 0.155255 5.81698 45.7864
6024807 6.76028 7.25496 15.9907 15.7804 0.155255 5.81698 45.7864
6024817 6.75165 7.22687 15.9487 15.6966 0.122282 5.8084 45.6238
6024827 6.77755 7.27368 15.8751 15.6501 0.148708 5.75097 45.5764
6024849 6.82072 7.30176 15.9382 15.5104 0.0292361 5.70299 45.571
6024859 6.85526 7.30176 15.8961 15.5104 0.0333637 5.67872 45.5635
6024869 6.85526 7.30176 15.8961 15.5104 0.0333637 5.67872 45.5635
6024879 6.87252 7.30176 15.9171 15.6314 0.0784844 5.69987 45.7229
6024900 6.84662 7.2924 15.9802 15.6594 0.0682265 5.7343 45.7786
6024910 6.83799 7.26432 16.1169 15.6966 0.00329316 5.78598 45.9158
6024920 6.83799 7.26432 16.1169 15.6966 0.00329316 5.78598 45.9158
6024930 6.82072 7.28304 16.1064 15.6221 -0.0119582 5.76823 45.8323
6024940 6.80345 7.2924 16.1169 15.6128 -0.00824779 5.77206 45.8256
6024960 6.84662 7.25496 16.1169 15.557 -0.0827909 5.7582 45.7754
6024970 6.76028 7.21751 16.1169 15.5849 -0.0409216 5.8201 45.6796
6024980 6.76028 7.21751 16.1169 15.5849 -0.0409216 5.8201 45.6796
6024990 6.72575 7.15198 16.1905 15.5756 -0.103337 5.87867 45.6438
6025000 6.72575 7.15198 16.1905 15.5756 -0.103337 5.87867 45.6438
6025010 6.72575 7.08645 16.2536 15.6221 -0.148138 5.9305 45.6879
6025024 6.67395 7.11454 16.2956 15.7525 -0.0559345 5.97544 45.8366
6025030 6.67395 7.11454 16.2956 15.7525 -0.0559345 5.97544 45.8366
6025040 6.61351 7.03029 16.3797 15.8269 -0.0741512 6.07285 45.8505
6025050 6.61351 7.03029 16.3797 15.8269 -0.0741512 6.07285 45.8505
6025063 6.52717 7.06773 16.4113 15.8456 -0.0137031 6.10509 45.8517
6025071 6.52717 6.93667 16.569 15.8921 -0.145528 6.20488 45.9249
6025083 6.52717 6.93667 16.569 15.8921 -0.145528 6.20488 45.9249
6025091 6.44083 6.92731 16.5269 15.9107 -0.070779 6.24468 45.8058
6025103 6.41493 6.91795 16.6531 15.92 -0.125253 6.28684 45.906
6025111 6.41493 6.91795 16.6531 15.92 -0.125253 6.28684 45.906
6025124 6.484 6.91795 16.5584 15.8642 -0.142016 6.22614 45.8246
6025131 6.484 6.91795 16.5584 15.8642 -0.142016 6.22614 45.8246
6025141 6.38903 6.87115 16.5795 15.948 -0.0815615 6.31195 45.7876
6025151 6.4063 6.84306 16.5584 15.9387 -0.100015 6.31122 45.7465
6025164 6.4063 6.84306 16.5584 15.9387 -0.100015 6.31122 45.7465
6025171 6.39766 6.89923 16.5374 15.9107 -0.0683755 6.27978 45.745
6025182 6.41493 6.91795 16.632 15.8642 -0.144467 6.27222 45.8291
6025203 6.484 6.98348 16.5584 15.8642 -0.106111 6.19583 45.8901
6025213 6.484 6.98348 16.5584 15.8642 -0.106111 6.19583 45.8901
6025225 6.47537 6.99284 16.569 15.8176 -0.127491 6.18857 45.8548
6025234 6.55307 6.98348 16.5269 15.8269 -0.146842 6.15073 45.8904
6025245 6.55307 6.98348 16.5269 15.8269 -0.146842 6.15073 45.8904
6025256 6.49264 6.94604 16.4954 15.7711 -0.148164 6.1791 45.7051
6025269 6.49264 7.01156 16.3587 15.6966 -0.0785559 6.10776 45.5595
6025273 6.49264 7.01156 16.3587 15.6966 -0.0785559 6.10776 45.5595
6025284 6.56171 7.01156 16.3692 15.6873 -0.127138 6.07604 45.6298
6025293 6.57897 7.0022 16.2536 15.6221 -0.114505 6.03688 45.4569
6025314 6.66531 7.03965 16.2641 15.6407 -0.136475 5.98551 45.6098
6025334 6.67395 7.08645 16.243 15.6314 -0.109072 5.95402 45.6349
6025346 6.73438 7.09582 16.3166 15.7245 -0.125717 5.95501 45.8714
6025354 6.73438 7.09582 16.3166 15.7245 -0.125717 5.95501 45.8714
6025365 6.74302 7.14262 16.3377 15.6594 -0.151849 5.92099 45.8827
6025374 6.74302 7.14262 16.3377 15.6594 -0.151849 5.92099 45.8827
6025386 6.72575 7.11454 16.3166 15.6128 -0.172076 5.92832 45.7697
6025394 6.71712 7.10518 16.4007 15.6873 -0.177185 5.96785 45.9103
6025404 6.71712 7.10518 16.4007 15.6873 -0.177185 5.96785 45.9103
6025414 6.69985 7.13326 16.243 15.6221 -0.102577 5.91884 45.6983
6025427 6.71712 7.10518 16.243 15.5476 -0.168447 5.90897 45.613
6025435 6.71712 7.10518 16.243 15.5476 -0.168447 5.90897 45.613
6025445 6.76028 7.18007 16.243 15.5383 -0.155792 5.85313 45.7217
6025455 6.74302 7.08645 16.3271 15.6035 -0.207718 5.9335 45.7601
6025465 6.74302 7.08645 16.3271 15.6035 -0.207718 5.9335 45.7601
6025475 6.75165 7.20815 16.3587 15.6128 -0.157504 5.88217 45.9313
6025485 6.75165 7.20815 16.3587 15.6128 -0.157504 5.88217 45.9313
6025495 6.65668 7.04901 16.3902 15.5942 -0.220893 6.00088 45.6901
6025505 6.67395 7.06773 16.4533 15.6966 -0.197704 6.01687 45.8916
6025515 6.67395 7.06773 16.4533 15.6966 -0.197704 6.01687 45.8916
6025525 6.63941 7.10518 16.4428 15.6687 -0.168109 6.008 45.8561
6025535 6.63941 7.10518 16.4428 15.6687 -0.168109 6.008 45.8561
6025545 6.63941 7.0022 16.3797 15.6314 -0.211099 6.03563 45.6528
6025555 6.64804 7.09582 16.4113 15.6873 -0.150621 6.0058 45.8424
6025565 6.64804 7.09582 16.4113 15.6873 -0.150621 6.0058 45.8424
6025576 6.59624 7.04901 16.4113 15.678 -0.153331 6.04926 45.7345
6025588 6.59624 7.02093 16.4848 15.7059 -0.193335 6.082 45.8079
6025596 6.59624 7.02093 16.4848 15.7059 -0.193335 6.082 45.8079
6025609 6.59624 7.02093 16.5374 15.7245 -0.211534 6.09584 45.8791
6025616 6.57897 7.02093 16.5584 15.7245 -0.213563 6.10786 45.8829
6025628 6.57897 7.02093 16.5584 15.7338 -0.208448 6.10966 45.8922
6025636 6.57897 7.06773 16.5059 15.8176 -0.108485 6.09421 45.9702
6025648 6.57897 7.06773 16.5059 15.8176 -0.108485 6.09421 45.9702
6025656 6.52717 6.98348 16.569 15.8176 -0.16069 6.16898 45.8972
6025669 6.52717 7.02093 16.4638 15.8083 -0.0882491 6.12962 45.8202
6025676 6.52717 7.02093 16.4638 15.8083 -0.0882491 6.12962 45.8202
6025687 6.50127 7.02093 16.5374 15.7432 -0.149885 6.1432 45.8028
6025696 6.50127 7.02093 16.5374 15.7432 -0.149885 6.1432 45.8028
6025706 6.484 7.01156 16.3902 15.7059 -0.0859544 6.11972 45.5917
6025716 6.5099 7.0022 16.4007 15.6501 -0.141776 6.10322 45.5629
6025726 6.5099 7.0022 16.4007 15.6501 -0.141776 6.10322 45.5629
6025736 6.58761 6.98348 16.3902 15.557 -0.240234 6.05562 45.5183
6025747 6.59624 7.03029 16.4323 15.6873 -0.169928 6.06381 45.7461
6025757 6.59624 7.03029 16.4323 15.6873 -0.169928 6.06381 45.7461
6025768 6.55307 6.99284 16.4743 15.7897 -0.133629 6.12906 45.81
6025778 6.55307 6.99284 16.4743 15.7897 -0.133629 6.12906 45.81
6025788 6.5099 6.9554 16.4848 15.8176 -0.121112 6.17372 45.7678
6025797 6.57034 7.0022 16.5795 15.8269 -0.174351 6.14429 45.979
6025808 6.57034 7.0022 16.5795 15.8269 -0.174351 6.14429 45.979
6025818 6.5358 7.03029 16.4007 15.799 -0.0585839 6.10728 45.7658
6025829 6.64804 7.05837 16.3692 15.799 -0.0871196 6.03661 45.8746
6025838 6.64804 7.05837 16.3692 15.799 -0.0871196 6.03661 45.8746
6025849 6.74302 7.10518 16.243 15.6687 -0.115936 5.92118 45.7599
6025858 6.74302 7.10518 16.243 15.6687 -0.115936 5.92118 45.7599
6025870 6.69121 7.1239 16.1379 15.6221 -0.0455841 5.90615 45.5751
6025877 6.78619 7.20815 16.0853 15.6035 -0.0327647 5.80997 45.6832
6025896 6.78619 7.20815 16.0853 15.6035 -0.0327647 5.80997 45.6832
6025898 6.80345 7.10518 16.0853 15.6221 -0.0885084 5.85281 45.6161
6025909 6.80345 7.18943 16.0538 15.6407 -0.0148207 5.81177 45.6874
6025919 6.80345 7.18943 16.0538 15.6407 -0.0148207 5.81177 45.6874
6025929 6.80345 7.19879 16.1064 15.6966 -0.00787675 5.82927 45.8052
6025939 6.77755 7.1707 15.9802 15.678 0.0498444 5.82481 45.6065
6025949 6.77755 7.1707 15.9802 15.678 0.0498444 5.82481 45.6065
6025959 6.80345 7.22687 16.0643 15.7897 0.0810772 5.82672 45.8843
6025970 6.80345 7.22687 16.0643 15.7897 0.0810772 5.82672 45.8843
6025980 6.78619 7.21751 15.9907 15.6501 0.0496536 5.79602 45.6445
6025990 6.72575 7.14262 16.0012 15.7525 0.092116 5.88049 45.6221
6026000 6.72575 7.14262 16.0012 15.7525 0.092116 5.88049 45.6221
6026010 6.68258 7.16134 16.0748 15.7711 0.0957638 5.91006 45.6898
6026020 6.67395 7.11454 16.1379 15.7897 0.0505239 5.95167 45.7161
6026033 6.67395 7.11454 16.1379 15.7897 0.0505239 5.95167 45.7161
6026040 6.67395 7.1239 16.1064 15.8642 0.113487 5.95587 45.7684
6026053 6.67395 7.1239 16.1064 15.8642 0.113487 5.95587 45.7684
6026060 6.66531 7.19879 16.0643 15.8828 0.192073 5.92094 45.8112
6026075 6.62214 7.05837 16.18 15.8176 0.0404477 6.01505 45.6781
6026080 6.62214 7.05837 16.18 15.8176 0.0404477 6.01505 45.6781
6026091 6.58761 7.07709 16.222 15.8363 0.0567138 6.03424 45.723
6026101 6.54444 7.03029 16.3061 15.8735 0.0290781 6.09938 45.7543
6026111 6.54444 7.03029 16.3061 15.8735 0.0290781 6.09938 45.7543
6026121 6.54444 7.02093 16.4428 15.9387 -0.0150412 6.14278 45.9468
6026131 6.54444 7.02093 16.4428 15.9387 -0.0150412 6.14278 45.9468
6026141 6.47537 6.97412 16.4533 16.0225 0.0369608 6.21432 45.9252
6026151 6.4581 6.93667 16.5479 16.0318 -0.0204414 6.25942 45.9745
6026171 6.46673 6.93667 16.4428 15.9107 -0.0339389 6.21221 45.7569
6026183 6.44947 6.89923 16.4113 15.8921 -0.0379935 6.22798 45.6521
6026191 6.44947 6.89923 16.4113 15.8921 -0.0379935 6.22798 45.6521
6026201 6.49264 6.93667 16.4428 15.9014 -0.0531614 6.19842 45.7735
6026211 6.49264 6.93667 16.4428 15.9014 -0.0531614 6.19842 45.7735
6026221 6.39766 6.88987 16.4533 15.8828 -0.0429049 6.26273 45.6236
6026231 6.3804 6.90859 16.4533 15.8456 -0.0436261 6.25492 45.5879
6026241 6.3804 6.90859 16.4533 15.8456 -0.0436261 6.25492 45.5879
6026251 6.44083 6.93667 16.5795 15.9014 -0.0993297 6.2486 45.8584
6026261 6.42357 6.89923 16.5479 15.9573 -0.0627235 6.27861 45.828
6026274 6.42357 6.89923 16.5479 15.9573 -0.0627235 6.27861 45.828
6026281 6.484 6.99284 16.6215 15.8642 -0.135162 6.20359 45.9625
6026291 6.484 6.99284 16.6215 15.8642 -0.135162 6.20359 45.9625
6026301 6.51854 6.98348 16.5164 15.8269 -0.122423 6.16463 45.8454
6026311 6.5358 6.96476 16.4848 15.8642 -0.104533 6.1664 45.8496
6026321 6.5358 6.96476 16.4848 15.8642 -0.104533 6.1664 45.8496
6026331 6.55307 7.06773 16.5164 15.8363 -0.0899836 6.11174 45.9734
6026341 6.55307 7.06773 16.5164 15.8363 -0.0899836 6.11174 45.9734
6026351 6.51854 6.94604 16.4954 15.8083 -0.141767 6.17429 45.7683
6026361 6.4322 6.97412 16.5584 15.8456 -0.0932977 6.22055 45.8103
6026375 6.4322 6.97412 16.5584 15.8456 -0.0932977 6.22055 45.8103
6026384 6.46673 6.9554 16.4743 15.7338 -0.137971 6.17552 45.6303
6026391 6.49264 6.92731 16.5479 15.8176 -0.161414 6.20686 45.7855
6026401 6.49264 6.92731 16.5479 15.8176 -0.161414 6.20686 45.7855
6026414 6.46673 6.94604 16.4848 15.8269 -0.0976518 6.19985 45.7246
6026422 6.46673 6.94604 16.4848 15.8269 -0.0976518 6.19985 45.7246
6026431 6.46673 6.85242 16.5479 15.8176 -0.188577 6.25365 45.6847
6026441 6.44947 6.90859 16.6215 15.9014 -0.142202 6.26563 45.881
6026451 6.44947 6.90859 16.6215 15.9014 -0.142202 6.26563 45.881
6026461 6.47537 6.90859 16.6005 15.8828 -0.155051 6.24607 45.8673
6026471 6.50127 6.94604 16.59 15.9014 -0.132674 6.21832 45.9387
6026484 6.50127 6.94604 16.59 15.9014 -0.132674 6.21832 45.9387
6026491 6.5358 6.97412 16.569 15.8176 -0.170496 6.16931 45.8965
6026501 6.5358 6.97412 16.569 15.8176 -0.170496 6.16931 45.8965
6026511 6.5099 6.94604 16.5584 15.7804 -0.186656 6.18506 45.7948
6026521 6.54444 6.88051 16.569 15.7432 -0.267689 6.19427 45.7371
6026538 6.54444 6.88051 16.569 15.7432 -0.267689 6.19427 45.7371
6026543 6.5099 6.98348 16.5164 15.6594 -0.209904 6.13621 45.6691
6026554 6.484 6.88051 16.5795 15.7804 -0.220108 6.23148 45.7244
6026562 6.484 6.88051 16.5795 15.7804 -0.220108 6.23148 45.7244
6026574 6.4581 6.91795 16.6741 15.8083 -0.221284 6.24956 45.8585
6026582 6.4581 6.91795 16.6741 15.8083 -0.221284 6.24956 45.8585
6026595 6.44947 6.91795 16.6215 15.8176 -0.183052 6.24531 45.8066
6026603 6.51854 6.9554 16.6005 15.8735 -0.157863 6.20269 45.9479
6026614 6.51854 6.9554 16.6005 15.8735 -0.157863 6.20269 45.9479
6026624 6.5358 6.94604 16.5164 15.799 -0.167665 6.16857 45.7972
6026634 6.57034 6.86178 16.4533 15.6873 -0.260335 6.15779 45.5727
6026644 6.57034 6.86178 16.4533 15.6873 -0.260335 6.15779 45.5727
6026655 6.60488 6.96476 16.3797 15.678 -0.187306 6.07796 45.6273
6026664 6.60488 6.96476 16.3797 15.678 -0.187306 6.07796 45.6273
6026674 6.54444 6.93667 16.3797 15.6594 -0.180204 6.1153 45.5202
6026684 6.57034 7.03029 16.4323 15.6314 -0.186634 6.06483 45.6643
6026697 6.57034 7.03029 16.4323 15.6314 -0.186634 6.06483 45.6643
6026706 6.57897 7.02093 16.4848 15.678 -0.199351 6.08451 45.7627
6026718 6.67395 7.03029 16.3902 15.6501 -0.20977 6.01254 45.7445
6026725 6.67395 7.03029 16.3902 15.6501 -0.20977 6.01254 45.7445
6026735 6.76892 7.15198 16.2641 15.6501 -0.125968 5.88848 45.835
6026755 6.79482 7.16134 16.2115 15.4732 -0.203662 5.82653 45.6408
6026765 6.81209 7.21751 16.2536 15.5476 -0.163911 5.81648 45.8308
6026775 6.81209 7.21751 16.2536 15.5476 -0.163911 5.81648 45.8308
6026785 6.87252 7.23623 16.18 15.5104 -0.16695 5.75828 45.7991
6026796 6.81209 7.20815 16.1274 15.529 -0.110729 5.79164 45.6767
6026805 6.81209 7.20815 16.1274 15.529 -0.110729 5.79164 45.6767
6026815 6.82072 7.20815 16.18 15.5663 -0.123578 5.80578 45.7751
6026836 6.82936 7.1239 16.201 15.557 -0.191139 5.84256 45.7112
6026846 6.76892 7.15198 16.3797 15.6501 -0.18857 5.91141 45.9507
6026857 6.76892 7.15198 16.3797 15.6501 -0.18857 5.91141 45.9507
6026866 6.76028 7.05837 16.4428 15.6873 -0.248873 5.97778 45.9487
6026876 6.69985 7.05837 16.4743 15.6966 -0.228181 6.01341 45.9292
6026896 6.68258 7.09582 16.4323 15.7432 -0.15009 6.00506 45.9538
6026908 6.68258 7.09582 16.4323 15.7432 -0.15009 6.00506 45.9538
6026921 6.63078 6.9554 16.4848 15.8083 -0.191754 6.11615 45.8793
6026928 6.57034 7.01156 16.3797 15.7897 -0.0813022 6.09409 45.7513
6026938 6.57034 7.01156 16.3797 15.7897 -0.0813022 6.09409 45.7513
6026948 6.55307 6.9554 16.5059 15.7525 -0.191779 6.14524 45.7668
6026957 6.46673 6.86178 16.4743 15.7618 -0.174209 6.22443 45.5646
6026968 6.46673 6.86178 16.4743 15.7618 -0.174209 6.22443 45.5646
6026978 6.38903 6.82434 16.5795 15.8269 -0.173837 6.31076 45.6198
6026988 6.38903 6.82434 16.5795 15.8269 -0.173837 6.31076 45.6198
6026998 6.34586 6.74009 16.6531 15.92 -0.1855 6.40196 45.6591
6027010 6.25089 6.6652 16.8528 15.9945 -0.242543 6.53292 45.7634
6027018 6.25089 6.6652 16.8528 15.9945 -0.242543 6.53292 45.7634
6027029 6.14728 6.712 17 16.0969 -0.184061 6.60552 45.9562
6027039 6.16455 6.70264 17.0591 16.1807 -0.184488 6.62782 46.107
6027049 6.16455 6.70264 17.0591 16.1807 -0.184488 6.62782 46.107
6027059 6.17318 6.63711 17.0787 16.1621 -0.245768 6.65474 46.0512
6027069 6.16455 6.61839 17.1575 16.069 -0.344849 6.66501 46.0094
6027079 6.16455 6.61839 17.1575 16.069 -0.344849 6.66501 46.0094
6027089 6.19045 6.64648 17.0492 16.0411 -0.300542 6.61482 45.9272
6027109 6.26816 6.6652 16.8844 15.92 -0.310066 6.51684 45.7378
6027120 6.29406 6.73073 16.8318 15.8269 -0.310931 6.44673 45.6835
6027130 6.29406 6.73073 16.8318 15.8269 -0.310931 6.44673 45.6835
6027140 6.36313 6.79626 16.7792 15.799 -0.299031 6.36856 45.7376
6027150 6.42357 6.81498 16.6005 15.7432 -0.255543 6.28703 45.5822
6027160 6.42357 6.81498 16.6005 15.7432 -0.255543 6.28703 45.5822
6027178 6.4581 6.89923 16.6005 15.7618 -0.217406 6.23527 45.7196
6027180 6.4581 6.89923 16.6005 15.7618 -0.217406 6.23527 45.7196
6027190 6.54444 6.89923 16.6531 15.7059 -0.323318 6.19461 45.8026
6027200 6.59624 6.93667 16.5584 15.7338 -0.264136 6.14052 45.8252
6027210 6.59624 6.93667 16.5584 15.7338 -0.264136 6.14052 45.8252
6027221 6.63078 7.03029 16.5479 15.7245 -0.230706 6.07772 45.9335
6027231 6.63941 6.98348 16.5164 15.6966 -0.259466 6.0837 45.8359
6027241 6.63941 6.98348 16.5164 15.6966 -0.259466 6.0837 45.8359
6027251 6.72575 7.06773 16.4743 15.6687 -0.252347 5.99182 45.9365
6027261 6.72575 7.06773 16.4743 15.6687 -0.252347 5.99182 45.9365
6027271 6.59624 7.03965 16.4954 15.6407 -0.224596 6.06273 45.772
6027281 6.61351 7.06773 16.4007 15.7059 -0.131369 6.03612 45.7879
6027291 6.61351 7.06773 16.4007 15.7059 -0.131369 6.03612 45.7879
6027302 6.67395 7.02093 16.3482 15.5942 -0.222954 5.99757 45.6372
6027311 6.62214 7.01156 16.3061 15.6407 -0.151356 6.02663 45.5806
6027323 6.62214 7.01156 16.3061 15.6407 -0.151356 6.02663 45.5806
6027331 6.69121 7.07709 16.4007 15.6407 -0.204168 5.98339 45.8098
6027341 6.69121 7.07709 16.4007 15.6407 -0.204168 5.98339 45.8098
6027351 6.64804 7.06773 16.3902 15.6501 -0.175105 6.00724 45.7561
6027361 6.66531 7.03965 16.3902 15.6501 -0.199932 6.01221 45.7452
6027383 6.64804 7.13326 16.4113 15.557 -0.201686 5.96299 45.7495
6027393 6.61351 7.07709 16.4007 15.6314 -0.167163 6.01721 45.7228
6027403 6.61351 7.07709 16.4007 15.6314 -0.167163 6.01721 45.7228
6027413 6.69985 7.18007 16.3797 15.5756 -0.176677 5.91533 45.8352
6027424 6.69985 7.18007 16.3797 15.5756 -0.176677 5.91533 45.8352
6027432 6.75165 7.16134 16.2956 15.5476 -0.184824 5.87797 45.7562
6027443 6.76892 7.18943 16.2746 15.5756 -0.151989 5.85868 45.8085
6027453 6.76892 7.18943 16.2746 15.5756 -0.151989 5.85868 45.8085
6027463 6.77755 7.25496 16.1905 15.529 -0.100568 5.79876 45.752
6027474 6.83799 7.23623 16.1064 15.4732 -0.128661 5.75155 45.6538
6027483 6.83799 7.23623 16.1064 15.4732 -0.128661 5.75155 45.6538
6027493 6.89843 7.23623 16.2115 15.4452 -0.233918 5.73975 45.7914
6027503 6.89843 7.23623 16.2115 15.4452 -0.233918 5.73975 45.7914
6027513 6.89843 7.24559 16.201 15.3894 -0.25388 5.72207 45.7344
6027523 6.89843 7.26432 16.0748 15.3708 -0.185375 5.68411 45.6083
6027534 6.89843 7.26432 16.0748 15.3708 -0.185375 5.68411 45.6083
6027544 6.9934 7.32048 16.0117 15.3149 -0.202543 5.59133 45.6405
6027554 7.05383 7.32048 15.9802 15.2963 -0.228521 5.55374 45.6508
6027564 7.05383 7.32048 15.9802 15.2963 -0.228521 5.55374 45.6508
6027574 6.9675 7.4141 15.9171 15.2032 -0.146891 5.51803 45.5019
6027584 6.9675 7.4141 15.9171 15.2032 -0.146891 5.51803 45.5019
6027595 6.95886 7.30176 15.9066 15.2963 -0.147064 5.58985 45.4635
6027604 7.05383 7.35793 16.0012 15.2777 -0.229526 5.53739 45.6907
6027615 7.05383 7.35793 16.0012 15.2777 -0.229526 5.53739 45.6907
6027624 7.03657 7.37665 15.9382 15.2311 -0.201266 5.51397 45.5825
6027635 6.9934 7.31112 16.0433 15.287 -0.240277 5.5963 45.6348
6027657 7.06247 7.42346 16.0328 15.3614 -0.169101 5.52798 45.8801
6027664 7.06247 7.42346 16.0328 15.3614 -0.169101 5.52798 45.8801
6027674 7.06247 7.33921 16.0223 15.287 -0.250794 5.5482 45.7109
6027685 7.05383 7.38601 16.1064 15.3708 -0.219655 5.56568 45.917
6027705 6.93296 7.34857 16.0223 15.2963 -0.170164 5.60427 45.6001
6027715 6.93296 7.32985 16.0223 15.3614 -0.144552 5.62614 45.6465
6027725 6.93296 7.32985 16.0223 15.3614 -0.144552 5.62614 45.6465
6027737 6.9934 7.35793 15.9802 15.3056 -0.169869 5.56602 45.6371
6027745 6.9934 7.35793 15.9802 15.3056 -0.169869 5.56602 45.6371
6027756 6.95023 7.31112 16.0853 15.3149 -0.224233 5.63019 45.6616
6027766 6.88116 7.31112 16.1169 15.4452 -0.132053 5.69448 45.7544
6027776 6.88116 7.31112 16.1169 15.4452 -0.132053 5.69448 45.7544
6027786 6.86389 7.27368 16.1694 15.4452 -0.171809 5.72992 45.7523
6027804 6.80345 7.27368 16.1905 15.4639 -0.140162 5.76535 45.7315
6027810 6.80345 7.27368 16.1905 15.4639 -0.140162 5.76535 45.7315
6027819 6.79482 7.25496 16.2115 15.529 -0.121391 5.79514 45.7903
6027826 6.79482 7.25496 16.2115 15.529 -0.121391 5.79514 45.7903
6027837 6.71712 7.19879 16.1905 15.4918 -0.118984 5.84443 45.5982
6027849 6.70848 7.18007 16.2325 15.5383 -0.121887 5.87469 45.6594
6027858 6.70848 7.18007 16.2325 15.5383 -0.121887 5.87469 45.6594
6027868 6.74302 7.19879 16.2115 15.5197 -0.129187 5.84242 45.673
6027878 6.70848 7.16134 16.1589 15.5849 -0.0664234 5.87784 45.6136
6027889 6.70848 7.16134 16.1589 15.5849 -0.0664234 5.87784 45.6136
6027898 6.75165 7.22687 16.1379 15.5756 -0.0476629 5.82212 45.692
6027909 6.75165 7.22687 16.1379 15.5756 -0.0476629 5.82212 45.692
6027918 6.72575 7.2924 16.1274 15.5383 -0.0122622 5.79447 45.6839
6027928 6.76028 7.22687 16.201 15.5383 -0.107194 5.82338 45.7265
6027937 6.76028 7.22687 16.201 15.5383 -0.107194 5.82338 45.7265
6027950 6.74302 7.24559 16.1379 15.6314 -0.00212789 5.82874 45.758
6027959 6.68258 7.22687 16.1169 15.6501 0.0423968 5.86435 45.6764
6027971 6.68258 7.22687 16.1169 15.6501 0.0423968 5.86435 45.6764
6027979 6.76028 7.32048 16.0748 15.6128 0.0536323 5.77042 45.7684
6027989 6.78619 7.36729 16.0538 15.6314 0.0865728 5.73699 45.8387
6028009 6.83799 7.30176 15.9592 15.6314 0.0743628 5.72405 45.7304
6028019 6.83799 7.30176 15.9592 15.6314 0.0743628 5.72405 45.7304
6028029 6.85526 7.33921 15.9171 15.5756 0.0779152 5.67935 45.6872
6028039 6.79482 7.35793 15.9276 15.4545 0.0494182 5.67568 45.5349
6028050 6.79482 7.35793 15.9276 15.4545 0.0494182 5.67568 45.5349
6028060 6.83799 7.38601 15.8541 15.5197 0.117159 5.64165 45.5978
6028070 6.80345 7.34857 15.9382 15.4173 0.0133306 5.67053 45.5075
6028080 6.80345 7.34857 15.9382 15.4173 0.0133306 5.67053 45.5075
6028090 6.84662 7.36729 15.8856 15.4825 0.0644743 5.64505 45.582
6028100 6.84662 7.36729 15.8856 15.4825 0.0644743 5.64505 45.582
6028110 6.81209 7.42346 15.8646 15.4545 0.110501 5.62519 45.5547
6028121 6.88979 7.40474 15.9066 15.4825 0.0496894 5.61292 45.6836
6028130 6.88979 7.40474 15.9066 15.4825 0.0496894 5.61292 45.6836
6028141 6.95023 7.42346 15.8435 15.5197 0.0816673 5.57194 45.7369
6028150 6.91569 7.42346 15.8435 15.5197 0.100619 5.58748 45.7024
6028160 6.91569 7.43282 15.8435 15.5104 0.100648 5.58135 45.7025
6028170 6.9675 7.36729 15.833 15.4452 0.00658035 5.57192 45.613
6028182 6.9675 7.36729 15.833 15.4452 0.00658035 5.57192 45.613
6028190 6.97613 7.43282 15.8015 15.408 0.0346333 5.52426 45.6184
6028204 6.92433 7.45154 15.7594 15.4639 0.126997 5.54202 45.5992
6028210 6.92433 7.45154 15.7594 15.4639 0.126997 5.54202 45.5992
6028220 7.00203 7.49835 15.791 15.4452 0.0823081 5.48877 45.7366
6028230 7.00203 7.49835 15.791 15.4452 0.0823081 5.48877 45.7366
6028240 6.9675 7.44218 15.8435 15.4359 0.0366986 5.53844 45.6891
6028250 6.95023 7.48899 15.8435 15.3987 0.0513911 5.51745 45.6814
6028260 6.95023 7.48899 15.8435 15.3987 0.0513911 5.51745 45.6814
6028270 6.89843 7.42346 15.833 15.3894 0.0446737 5.56618 45.5443
6028280 6.94159 7.40474 15.8435 15.4359 0.0304252 5.56696 45.6258
6028300 6.98476 7.45154 15.8225 15.4545 0.0540376 5.52598 45.7134
6028320 6.94159 7.44218 15.8751 15.4452 0.0386953 5.55854 45.7041
6028330 6.92433 7.42346 15.9487 15.4173 -0.0176281 5.58416 45.7138
6028340 6.92433 7.42346 15.9487 15.4173 -0.0176281 5.58416 45.7138
6028352 6.95023 7.39537 15.9171 15.4266 -0.0248238 5.58056 45.6894
6028360 6.9675 7.42346 15.9592 15.4452 -0.031656 5.57266 45.7954
6028370 6.9675 7.42346 15.9592 15.4452 -0.031656 5.57266 45.7954
6028381 6.9675 7.37665 15.9276 15.4173 -0.0553653 5.58146 45.6891
6028390 6.9675 7.37665 15.9276 15.4173 -0.0553653 5.58146 45.6891
6028402 6.98476 7.34857 15.9276 15.3056 -0.141689 5.56326 45.5666
6028410 7.00203 7.39537 15.8961 15.3708 -0.0722706 5.54135 45.6643
6028423 7.00203 7.39537 15.8961 15.3708 -0.0722706 5.54135 45.6643
6028431 7.0193 7.40474 15.8646 15.2777 -0.110537 5.50348 45.5663
6028441 7.02793 7.36729 15.8646 15.3428 -0.0999838 5.53 45.6026
6028461 7.0711 7.36729 15.9592 15.3149 -0.190374 5.52443 45.7125
6028471 7.0711 7.36729 15.9592 15.3149 -0.190374 5.52443 45.7125
6028481 7.06247 7.4141 15.833 15.287 -0.106604 5.47522 45.5966
6028491 7.14017 7.49835 15.8751 15.287 -0.125511 5.41157 45.8006
6028501 7.14017 7.49835 15.8751 15.287 -0.125511 5.41157 45.8006
6028511 7.097 7.4141 15.8225 15.2777 -0.124837 5.45558 45.6113
6028521 7.097 7.47963 15.8225 15.2311 -0.114389 5.41647 45.6302
6028532 7.097 7.47963 15.8225 15.2311 -0.114389 5.41647 45.6302
6028541 7.0452 7.44218 15.8435 15.2497 -0.107957 5.46478 45.5806
6028554 7.0452 7.44218 15.8435 15.2497 -0.107957 5.46478 45.5806
6028564 7.00203 7.40474 15.7805 15.2218 -0.085862 5.482 45.409
6028577 6.97613 7.40474 15.7699 15.287 -0.0299156 5.50513 45.4378
6028584 6.97613 7.40474 15.7699 15.287 -0.0299156 5.50513 45.4378
6028594 7.05383 7.34857 15.812 15.3801 -0.0752285 5.52358 45.5945
6028604 7.05383 7.42346 15.8856 15.4173 -0.0538781 5.51295 45.7802
6028614 7.05383 7.42346 15.8856 15.4173 -0.0538781 5.51295 45.7802
6028624 7.05383 7.35793 15.9382 15.4359 -0.108185 5.55706 45.7858
6028644 7.0193 7.34857 15.9697 15.408 -0.127025 5.57753 45.7456
6028654 7.02793 7.33921 16.0433 15.3614 -0.202399 5.58343 45.7719
6028665 7.02793 7.33921 16.0433 15.3614 -0.202399 5.58343 45.7719
6028674 7.05383 7.30176 16.0433 15.3335 -0.252472 5.58287 45.7324
6028684 7.02793 7.32048 16.0328 15.3708 -0.201887 5.5916 45.7519
6028694 7.02793 7.32048 16.0328 15.3708 -0.201887 5.5916 45.7519
6028704 7.06247 7.33921 16.0538 15.3242 -0.247303 5.5624 45.7797
6028724 6.9934 7.31112 16.0117 15.3335 -0.197431 5.59939 45.6498
6028735 6.98476 7.25496 16.0853 15.3428 -0.258565 5.64569 45.6679
6028758 6.9675 7.22687 16.1905 15.287 -0.352587 5.67628 45.6718
6028768 6.92433 7.30176 16.0328 15.3149 -0.186756 5.63534 45.5738
6028778 6.92433 7.30176 16.0328 15.3149 -0.186756 5.63534 45.5738
6028785 6.90706 7.22687 16.1169 15.3894 -0.223319 5.70955 45.6402
6028795 6.90706 7.22687 16.0959 15.3894 -0.211899 5.70527 45.6192
6028805 6.91569 7.23623 16.0959 15.3894 -0.211418 5.6971 45.6372
6028815 6.93296 7.27368 16.1169 15.408 -0.201266 5.68041 45.7315
6028825 6.93296 7.27368 16.1169 15.408 -0.201266 5.68041 45.7315
6028835 6.86389 7.28304 16.1484 15.4452 -0.155245 5.72141 45.7406
6028845 6.86389 7.24559 16.2115 15.4639 -0.199817 5.75492 45.7848
6028856 6.86389 7.24559 16.2115 15.4639 -0.199817 5.75492 45.7848
6028865 6.86389 7.22687 16.2325 15.4639 -0.22151 5.76765 45.7871
6028876 6.86389 7.22687 16.2325 15.4639 -0.22151 5.76765 45.7871
6028886 6.82072 7.15198 16.2851 15.4452 -0.278208 5.82816 45.703
6028896 6.84662 7.1707 16.4007 15.4639 -0.333902 5.83474 45.8819
6028906 6.84662 7.1707 16.4007 15.4639 -0.333902 5.83474 45.8819
6028920 6.75165 7.08645 16.4113 15.5383 -0.293811 5.9333 45.7877
6028926 6.69121 7.03029 16.5584 15.529 -0.376752 6.01388 45.809
6028936 6.69121 7.03029 16.5584 15.529 -0.376752 6.01388 45.809
6028946 6.57897 7.03965 16.611 15.6221 -0.287999 6.08957 45.8518
6028956 6.57897 7.03965 16.611 15.6221 -0.287999 6.08957 45.8518
6028966 6.54444 6.98348 16.6846 15.6407 -0.329754 6.14921 45.8533
6028978 6.50127 6.93667 16.632 15.7245 -0.257725 6.1968 45.7945
6028987 6.50127 6.93667 16.632 15.7245 -0.257725 6.1968 45.7945
6028998 6.4581 6.94604 16.6531 15.8269 -0.184257 6.2361 45.8841
6029008 6.49264 6.87115 16.7267 15.8921 -0.247936 6.28118 45.9825
6029018 6.49264 6.87115 16.7267 15.8921 -0.247936 6.28118 45.9825
6029027 6.44947 6.88987 16.7161 15.8269 -0.244536 6.27814 45.8824
6029040 6.44947 6.88987 16.7161 15.8269 -0.244536 6.27814 45.8824
6029047 6.44083 6.80562 16.6215 15.8269 -0.235143 6.30333 45.6949
6029061 6.42357 6.82434 16.6531 15.7711 -0.2634 6.29802 45.6721
6029067 6.42357 6.82434 16.6531 15.7711 -0.2634 6.29802 45.6721
6029085 6.484 6.78689 16.6425 15.7245 -0.336955 6.27641 45.638
6029094 6.49264 6.87115 16.6425 15.7059 -0.305235 6.22963 45.7122
6029110 6.47537 6.86178 16.5795 15.7525 -0.241184 6.23883 45.6691
6029129 6.56171 6.89923 16.6425 15.7059 -0.326958 6.1846 45.8094
6029139 6.51854 6.8337 16.6425 15.8735 -0.247386 6.26701 45.8683
6029149 6.51854 6.8337 16.6425 15.8735 -0.247386 6.26701 45.8683
6029159 6.52717 6.89923 16.611 15.7618 -0.260471 6.20526 45.7992
6029169 6.5358 6.88051 16.569 15.8735 -0.191216 6.22328 45.8588
6029180 6.5358 6.88051 16.569 15.8735 -0.191216 6.22328 45.8588
6029191 6.57034 6.88051 16.569 15.8456 -0.225237 6.20196 45.8654
6029200 6.57897 6.87115 16.5795 15.7338 -0.302343 6.18284 45.7634
6029210 6.57897 6.87115 16.5795 15.7338 -0.302343 6.18284 45.7634
6029220 6.59624 6.90859 16.5164 15.799 -0.220989 6.15795 45.8202
6029230 6.59624 6.90859 16.5164 15.799 -0.220989 6.15795 45.8202
6029240 6.61351 6.93667 16.4533 15.7525 -0.206354 6.11579 45.756
6029250 6.55307 6.92731 16.4218 15.7338 -0.171839 6.13832 45.636
6029260 6.55307 6.92731 16.4218 15.7338 -0.171839 6.13832 45.636
6029271 6.62214 6.97412 16.4428 15.7059 -0.210355 6.08344 45.745
6029280 6.62214 6.97412 16.4428 15.7059 -0.210355 6.08344 45.745
6029295 6.58761 6.9554 16.4428 15.7338 -0.186551 6.11345 45.7196
6029301 6.63941 6.96476 16.4113 15.7432 -0.18726 6.08091 45.7586
6029310 6.63941 6.96476 16.4113 15.7432 -0.18726 6.08091 45.7586
6029320 6.63078 6.97412 16.3797 15.7618 -0.150065 6.07805 45.7464
6029330 6.62214 6.91795 16.4638 15.8176 -0.191164 6.13512 45.8215
6029342 6.62214 6.91795 16.4638 15.8176 -0.191164 6.13512 45.8215
6029350 6.58761 6.96476 16.4954 15.7897 -0.179169 6.13015 45.8374
6029363 6.58761 6.96476 16.4954 15.7897 -0.179169 6.13015 45.8374
6029370 6.5358 6.85242 16.5584 15.8549 -0.211211 6.23071 45.8015
6029380 6.49264 6.86178 16.4954 15.8828 -0.133063 6.23967 45.7326
6029390 6.49264 6.86178 16.4954 15.8828 -0.133063 6.23967 45.7326
6029401 6.50127 6.88987 16.6005 15.8828 -0.179344 6.24275 45.8744
6029410 6.51854 6.89923 16.59 15.8269 -0.208546 6.21772 45.8347
6029421 6.51854 6.89923 16.59 15.8269 -0.208546 6.21772 45.8347
6029431 6.44947 6.90859 16.59 15.799 -0.181347 6.24006 45.7471
6029441 6.41493 6.90859 16.5795 15.799 -0.156884 6.25409 45.702
6029451 6.41493 6.87115 16.5795 15.7897 -0.182644 6.26974 45.6552
6029461 6.46673 6.88051 16.611 15.8549 -0.186825 6.25977 45.8131
6029481 6.47537 6.96476 16.4638 15.7618 -0.116421 6.17054 45.6657
6029495 6.49264 6.90859 16.4848 15.8269 -0.132321 6.2052 45.713
6029501 6.49264 6.90859 16.4848 15.8269 -0.132321 6.2052 45.713
6029511 6.5358 6.94604 16.5059 15.8269 -0.146623 6.17192 45.8147
6029521 6.5358 6.94604 16.5059 15.8269 -0.146623 6.17192 45.8147
6029532 6.54444 6.93667 16.5374 15.8828 -0.142904 6.18907 45.9013
6029541 6.484 6.99284 16.4743 15.8828 -0.0451043 6.17892 45.834
6029551 6.484 6.99284 16.4743 15.8828 -0.0451043 6.17892 45.834
6029562 6.5099 6.98348 16.4113 15.8269 -0.0605345 6.14831 45.7316
6029571 6.54444 7.03029 16.4113 15.7432 -0.0996366 6.09448 45.7291
6029582 6.54444 7.03029 16.4113 15.7432 -0.0996366 6.09448 45.7291
6029591 6.57034 6.9554 16.3482 15.6501 -0.171924 6.08663 45.524
6029604 6.57034 6.9554 16.3482 15.6501 -0.171924 6.08663 45.524
6029612 6.56171 7.02093 16.3061 15.678 -0.0926763 6.05753 45.5667
6029622 6.65668 7.01156 16.2115 15.6594 -0.108287 5.99571 45.5391
6029633 6.65668 7.01156 16.2115 15.6594 -0.108287 5.99571 45.5391
6029642 6.67395 7.13326 16.2536 15.6594 -0.0737488 5.94018 45.7201
6029652 6.73438 7.08645 16.222 15.6314 -0.130549 5.92213 45.6743
6029673 6.76028 7.22687 16.2641 15.6035 -0.105755 5.84904 45.8547
6029682 6.76028 7.22687 16.2641 15.6035 -0.105755 5.84904 45.8547
6029693 6.76028 7.21751 16.1379 15.5756 -0.0575066 5.82245 45.6913
6029703 6.83799 7.28304 16.1589 15.5942 -0.0652269 5.76537 45.8742
6029722 6.83799 7.31112 16.0643 15.4918 -0.0543699 5.7128 45.7052
6029736 6.84662 7.30176 16.0012 15.4825 -0.0348553 5.6984 45.6321
6029749 6.84662 7.30176 16.0012 15.4825 -0.0348553 5.6984 45.6321
6029756 6.88116 7.31112 15.9907 15.5383 -0.0122607 5.68775 45.7213
6029764 6.88116 7.31112 15.9907 15.5383 -0.0122607 5.68775 45.7213
6029777 6.88116 7.33921 16.0012 15.4359 -0.0587314 5.65628 45.6575
6029784 6.86389 7.32985 15.9697 15.4918 -0.00654906 5.67331 45.6552
6029794 6.86389 7.32985 15.9697 15.4918 -0.00654906 5.67331 45.6552
6029804 6.91569 7.2924 15.9907 15.4639 -0.0822127 5.6654 45.6627
6029813 6.88116 7.32048 15.9592 15.3894 -0.071615 5.6466 45.5502
6029825 6.88116 7.32048 15.9592 15.3894 -0.071615 5.6466 45.5502
6029835 6.88979 7.39537 15.9907 15.4639 -0.0116348 5.63058 45.7397
6029845 6.88979 7.39537 15.9907 15.4639 -0.0116348 5.63058 45.7397
6029855 6.87252 7.35793 16.0012 15.4266 -0.048849 5.64982 45.6583
6029865 6.89843 7.30176 16.0012 15.4359 -0.0887275 5.66542 45.6373
6029875 6.89843 7.30176 16.0012 15.4359 -0.0887275 5.66542 45.6373
6029885 6.85526 7.27368 16.0643 15.4825 -0.0894472 5.72006 45.6757
6029895 6.85526 7.32048 16.0853 15.5104 -0.0599205 5.7088 45.7715
6029906 6.85526 7.32048 16.0853 15.5104 -0.0599205 5.7088 45.7715
6029916 6.82072 7.33921 16.0748 15.5011 -0.0302002 5.71193 45.7359
6029928 6.81209 7.28304 16.1169 15.5197 -0.0689968 5.7536 45.7317
6029936 6.81209 7.28304 16.1169 15.5197 -0.0689968 5.7536 45.7317
6029947 6.83799 7.33921 16.1064 15.5197 -0.0466302 5.71429 45.8033
6029968 6.88979 7.26432 16.1484 15.557 -0.118266 5.74078 45.8595
6029978 6.79482 7.2924 16.18 15.5756 -0.0582471 5.78117 45.8428
6029987 6.79482 7.2924 16.18 15.5756 -0.0582471 5.78117 45.8428
6029998 6.78619 7.28304 16.1379 15.529 -0.0612378 5.77149 45.7362
6030007 6.76892 7.23623 16.1379 15.5383 -0.0723809 5.8025 45.6814
6030018 6.76892 7.23623 16.1379 15.5383 -0.0723809 5.8025 45.6814
6030029 6.82936 7.21751 16.2115 15.557 -0.145359 5.80207 45.8153
6030054 6.78619 7.25496 16.2641 15.5756 -0.119725 5.81894 45.8808
6030058 6.80345 7.22687 16.2641 15.5663 -0.149576 5.82199 45.8607
6030068 6.80345 7.22687 16.2641 15.5663 -0.149576 5.82199 45.8607
6030078 6.76892 7.21751 16.1694 15.5197 -0.110093 5.81363 45.6756
6030091 6.82072 7.21751 16.1064 15.4825 -0.124435 5.7698 45.6271
6030099 6.82072 7.21751 16.1064 15.4825 -0.124435 5.7698 45.6271
6030109 6.80345 7.23623 16.1274 15.4359 -0.141816 5.76397 45.603
6030119 6.80345 7.23623 16.1274 15.4359 -0.141816 5.76397 45.603
6030130 6.80345 7.19879 16.1484 15.4639 -0.158522 5.79093 45.6145
6030140 6.79482 7.22687 16.18 15.4359 -0.170903 5.7828 45.6376
6030150 6.79482 7.22687 16.18 15.4359 -0.170903 5.7828 45.6376
6030160 6.75165 7.24559 16.201 15.4732 -0.128025 5.80568 45.6714
6030170 6.81209 7.16134 16.1905 15.5197 -0.17594 5.82378 45.6836
6030181 6.81209 7.16134 16.1905 15.5197 -0.17594 5.82378 45.6836
6030200 6.87252 7.24559 16.222 15.4918 -0.194819 5.75877 45.8319
6030210 6.87252 7.24559 16.222 15.4918 -0.194819 5.75877 45.8319
6030220 6.84662 7.23623 16.2641 15.4732 -0.218949 5.77947 45.8201
6030230 6.84662 7.23623 16.2641 15.4732 -0.218949 5.77947 45.8201
6030240 6.79482 7.21751 16.1905 15.5011 -0.145881 5.80232 45.7039
6030250 6.80345 7.13326 16.2956 15.557 -0.223221 5.86901 45.7893
6030260 6.80345 7.13326 16.2956 15.557 -0.223221 5.86901 45.7893
6030270 6.76028 7.1239 16.2325 15.5663 -0.165625 5.88226 45.683
6030280 6.76028 7.1239 16.2325 15.5663 -0.165625 5.88226 45.683
6030290 6.76892 7.10518 16.2746 15.5197 -0.229158 5.88598 45.6684
6030300 6.73438 7.14262 16.2746 15.5383 -0.179477 5.88836 45.6899
6030310 6.73438 7.14262 16.2746 15.5383 -0.179477 5.88836 45.6899
6030320 6.72575 7.20815 16.3061 15.529 -0.16097 5.86682 45.769
6030330 6.69985 7.1707 16.2851 15.529 -0.156078 5.89155 45.6847
6030340 6.69985 7.1707 16.2851 15.529 -0.156078 5.89155 45.6847
6030351 6.80345 7.20815 16.2746 15.5383 -0.180881 5.827 45.8245
6030361 6.80345 7.20815 16.2746 15.5383 -0.180881 5.827 45.8245
6030378 6.76028 7.19879 16.2115 15.4732 -0.164221 5.8252 45.6437
6030381 6.82072 7.15198 16.2641 15.5011 -0.235973 5.83514 45.7379
6030393 6.82072 7.15198 16.2641 15.5011 -0.235973 5.83514 45.7379
6030401 6.82072 7.18943 16.2536 15.529 -0.194257 5.82159 45.7927
6030413 6.79482 7.1707 16.201 15.4825 -0.187643 5.82202 45.649
6030421 6.79482 7.1707 16.201 15.4825 -0.187643 5.82202 45.649
6030433 6.80345 7.24559 16.3271 15.4918 -0.214323 5.81121 45.868
6030453 6.75165 7.19879 16.3271 15.5756 -0.165984 5.87275 45.8532
6030461 6.76892 7.13326 16.3377 15.529 -0.242683 5.88758 45.7689
6030481 6.82072 7.15198 16.1905 15.4732 -0.21148 5.81475 45.6363
6030495 6.82072 7.22687 16.1589 15.408 -0.188968 5.7611 45.6145
6030503 6.82072 7.22687 16.1589 15.408 -0.188968 5.7611 45.6145
6030517 6.86389 7.22687 16.1589 15.408 -0.212425 5.74148 45.6577
6030522 6.86389 7.22687 16.1589 15.408 -0.212425 5.74148 45.6577
6030532 6.88979 7.25496 16.1379 15.4266 -0.18931 5.71649 45.7093
6030543 6.94159 7.28304 16.1905 15.4545 -0.215003 5.6967 45.8697
6030554 6.94159 7.28304 16.1905 15.4545 -0.215003 5.6967 45.8697
6030564 6.87252 7.23623 16.201 15.4266 -0.224473 5.7456 45.7364
6030574 6.95886 7.26432 16.1694 15.3987 -0.254038 5.68174 45.7913
6030584 6.95886 7.26432 16.1694 15.3987 -0.254038 5.68174 45.7913
6030594 6.95023 7.2924 16.0959 15.3801 -0.204304 5.65415 45.7186
6030604 6.87252 7.30176 16.1274 15.3521 -0.18948 5.6858 45.6538
6030615 6.87252 7.30176 16.1274 15.3521 -0.18948 5.6858 45.6538
6030625 6.89843 7.34857 16.1169 15.3801 -0.156674 5.65647 45.7439
6030635 6.89843 7.34857 16.1169 15.3801 -0.156674 5.65647 45.7439
6030645 6.85526 7.30176 16.0853 15.3335 -0.167479 5.68124 45.5759
6030658 6.95023 7.27368 16.0959 15.3335 -0.240338 5.65309 45.6533
6030666 6.95023 7.27368 16.0959 15.3335 -0.240338 5.65309 45.6533
6030678 6.91569 7.24559 16.0959 15.3521 -0.226828 5.68526 45.6093
6030686 6.94159 7.22687 16.2115 15.3801 -0.298381 5.71124 45.76
6030699 6.94159 7.22687 16.2115 15.3801 -0.298381 5.71124 45.76
6030706 6.92433 7.27368 16.18 15.408 -0.230758 5.69714 45.786
6030716 6.92433 7.27368 16.18 15.408 -0.230758 5.69714 45.786
6030726 6.86389 7.1239 16.2641 15.4452 -0.305723 5.81706 45.6971
6030736 6.89843 7.14262 16.2536 15.4452 -0.308333 5.79071 45.7398
6030758 6.89843 7.18007 16.1905 15.3987 -0.279273 5.75156 45.6677
6030766 6.83799 7.1239 16.243 15.4266 -0.290653 5.8209 45.6315
6030781 6.83799 7.1239 16.243 15.4266 -0.290653 5.8209 45.6315
6030786 6.91569 7.18943 16.243 15.4359 -0.291249 5.75763 45.7841
6030797 6.91569 7.18943 16.243 15.4359 -0.291249 5.75763 45.7841
6030806 6.82936 7.08645 16.222 15.557 -0.223199 5.86385 45.6948
6030816 6.85526 7.07709 16.2536 15.557 -0.259474 5.86261 45.7429
6030831 6.85526 7.07709 16.2536 15.557 -0.259474 5.86261 45.7429
6030836 6.84662 7.1239 16.2851 15.5197 -0.266574 5.84407 45.7753
6030846 6.76028 7.10518 16.2851 15.6035 -0.183973 5.9087 45.7541
6030858 6.76028 7.10518 16.2851 15.6035 -0.183973 5.9087 45.7541
6030868 6.79482 7.10518 16.2641 15.6035 -0.191297 5.88875 45.7676
6030878 6.79482 7.10518 16.2641 15.6035 -0.191297 5.88875 45.7676
6030888 6.67395 6.99284 16.3061 15.6221 -0.200188 6.00771 45.595
6030898 6.63078 6.98348 16.3587 15.678 -0.179626 6.05325 45.6509
6030908 6.63078 6.98348 16.3587 15.678 -0.179626 6.05325 45.6509
6030918 6.65668 6.91795 16.3797 15.678 -0.241309 6.07565 45.6323
6030928 6.61351 6.92731 16.5269 15.7618 -0.246197 6.13617 45.8295
6030940 6.61351 6.92731 16.5269 15.7618 -0.246197 6.13617 45.8295
6030948 6.62214 6.93667 16.5269 15.7711 -0.240578 6.12968 45.8568
6030958 6.62214 6.93667 16.5269 15.7711 -0.240578 6.12968 45.8568
6030969 6.57034 6.92731 16.5269 15.7804 -0.212607 6.1597 45.805
6030977 6.52717 6.86178 16.6741 15.8363 -0.274089 6.24892 45.8993
6030996 6.52717 6.86178 16.6741 15.8363 -0.274089 6.24892 45.8993
6031016 6.484 6.87115 16.7056 15.8269 -0.267795 6.26881 45.8877
6031017 6.44947 6.82434 16.7161 15.8642 -0.260109 6.31563 45.8541
6031019 6.44947 6.82434 16.7161 15.8642 -0.260109 6.31563 45.8541
6031029 6.47537 6.84306 16.7372 15.8735 -0.26997 6.30066 45.9291
6031039 6.4322 6.78689 16.7687 15.8735 -0.294647 6.35278 45.8613
6031049 6.4322 6.78689 16.7687 15.8735 -0.294647 6.35278 45.8613
6031059 6.37176 6.77753 16.8633 15.92 -0.292556 6.4118 45.9327
6031070 6.37176 6.77753 16.8633 15.92 -0.292556 6.4118 45.9327
6031080 6.35449 6.73073 16.9264 15.948 -0.327572 6.45866 45.9596
6031090 6.28542 6.73073 16.9579 15.9666 -0.29715 6.50025 45.9407
6031100 6.28542 6.73073 16.9579 15.9666 -0.29715 6.50025 45.9407
6031113 6.25952 6.73073 16.9685 15.9014 -0.32481 6.50226 45.8601
6031120 6.25952 6.73073 16.9685 15.9014 -0.32481 6.50226 45.8601
6031134 6.17318 6.65584 16.9264 15.9107 -0.291802 6.57208 45.6662
6031140 6.18182 6.62775 16.9685 16.0131 -0.278102 6.60783 45.7912
6031150 6.18182 6.62775 16.9685 16.0131 -0.278102 6.60783 45.7912
6031160 6.23362 6.63711 16.9685 15.9294 -0.347188 6.56359 45.7685
6031176 6.21635 6.68392 16.9579 15.9294 -0.30632 6.54774 45.7876
6031190 6.23362 6.712 16.9369 16.0225 -0.237493 6.53973 45.905
6031200 6.20772 6.712 16.9369 16.0225 -0.223513 6.55189 45.8791
6031210 6.20772 6.712 16.9369 15.9945 -0.238876 6.54674 45.8512
6031220 6.23362 6.6652 16.9685 16.0411 -0.269999 6.57093 45.9084
6031241 6.24225 6.64648 16.9895 16.0131 -0.311673 6.57441 45.8914
6031251 6.24225 6.712 16.8423 16.0038 -0.201263 6.51475 45.8004
6031261 6.24225 6.712 16.8423 16.0038 -0.201263 6.51475 45.8004
6031274 6.36313 6.74945 16.7792 15.9852 -0.222161 6.42539 45.877
6031282 6.36313 6.74945 16.7792 15.9852 -0.222161 6.42539 45.877
6031291 6.34586 6.73073 16.6741 15.9387 -0.191817 6.4138 45.6893
6031302 6.39766 6.80562 16.6741 15.9294 -0.183807 6.35283 45.8067
6031323 6.4322 6.81498 16.611 15.9945 -0.127421 6.33278 45.8527
6031331 6.38903 6.77753 16.6846 15.9759 -0.174676 6.38071 45.8271
6031344 6.38903 6.77753 16.6846 15.9759 -0.174676 6.38071 45.8271
6031351 6.42357 6.86178 16.7477 15.9387 -0.201645 6.33031 45.9717
6031361 6.42357 6.86178 16.7477 15.9387 -0.201645 6.33031 45.9717
6031374 6.42357 6.8337 16.7161 15.8828 -0.230722 6.32685 45.8562
6031381 6.37176 6.76817 16.7056 15.8828 -0.233124 6.37957 45.7284
6031393 6.37176 6.76817 16.7056 15.8828 -0.233124 6.37957 45.7284
6031402 6.4063 6.712 16.6951 15.8083 -0.318423 6.37365 45.6217
6031414 6.37176 6.712 16.7792 15.8176 -0.340049 6.40745 45.6806
6031422 6.37176 6.712 16.7792 15.8176 -0.340049 6.40745 45.6806
6031433 6.37176 6.74009 16.8633 15.8176 -0.369801 6.4101 45.7928
6031443 6.37176 6.74009 16.8633 15.8176 -0.369801 6.4101 45.7928
6031453 6.33723 6.70264 17.0394 15.9666 -0.384057 6.5042 46.0458
6031463 6.31996 6.712 17.1477 15.9852 -0.4172 6.53124 46.1648
6031483 6.31133 6.69328 17.0984 16.0318 -0.371042 6.54352 46.1348
6031492 6.31996 6.63711 17.0984 15.9573 -0.447701 6.55208 46.0128
6031503 6.31996 6.63711 17.0984 15.9573 -0.447701 6.55208 46.0128
6031515 6.25952 6.67456 17.0394 15.9852 -0.347663 6.55714 45.9587
6031524 6.25952 6.67456 17.0394 15.9852 -0.347663 6.55714 45.9587
6031532 6.12138 6.46861 17.0787 16.0225 -0.387965 6.73364 45.6912
6031543 6.05231 6.51542 17.0787 16.0876 -0.288633 6.756 45.7341
6031552 6.05231 6.51542 17.0787 16.0876 -0.288633 6.756 45.7341
6031563 6.10411 6.50606 17.1083 16.1435 -0.306818 6.75122 45.8619
6031572 6.10411 6.48733 17.128 16.2831 -0.250863 6.78864 46.0025
6031584 6.10411 6.48733 17.128 16.2831 -0.250863 6.78864 46.0025
6031594 6.14728 6.55286 17.1378 16.3111 -0.228158 6.74404 46.149
6031604 6.14728 6.55286 17.1378 16.3111 -0.228158 6.74404 46.149
6031614 6.03504 6.56222 17.0591 16.3297 -0.109924 6.78189 45.986
6031625 6.02641 6.59967 17.0098 16.3018 -0.0733793 6.75443 45.9377
6031639 6.02641 6.59967 17.0098 16.3018 -0.0733793 6.75443 45.9377
6031648 6.04368 6.59031 16.8844 16.2366 -0.0552639 6.71631 45.7549
6031656 6.02641 6.58095 16.8108 16.1993 -0.0311747 6.70886 45.6175
6031664 6.02641 6.58095 16.8108 16.1993 -0.0311747 6.70886 45.6175
6031674 6.02641 6.59967 16.7897 16.218 0.000813603 6.69952 45.6338
6031686 6.02641 6.59967 16.7897 16.218 0.000813603 6.69952 45.6338
6031695 6.05231 6.61839 16.8213 16.2087 -0.0254586 6.68237 45.7006
6031705 6.08685 6.64648 16.8949 16.3762 0.0222772 6.69646 46.0044
6031715 6.08685 6.64648 16.8949 16.3762 0.0222772 6.69646 46.0044
6031725 6.12138 6.61839 16.9159 16.3576 -0.0332877 6.69385 46.0133
6031735 6.08685 6.69328 16.8949 16.46 0.0929832 6.68953 46.135
6031755 6.10411 6.6652 16.7792 16.4042 0.101203 6.66361 45.9527
6031765 6.10411 6.6652 16.7792 16.4042 0.101203 6.66361 45.9527
6031776 6.06958 6.712 16.6425 16.3855 0.210339 6.62956 45.8097
6031785 6.12138 6.68392 16.5584 16.3576 0.19778 6.59782 45.7214
6031805 6.15592 6.72137 16.5059 16.2924 0.192672 6.54213 45.6756
6031816 6.13002 6.75881 16.5269 16.3018 0.220728 6.5423 45.7175
6031825 6.13002 6.75881 16.5269 16.3018 0.220728 6.5423 45.7175
6031836 6.19045 6.85242 16.4533 16.2738 0.263539 6.45103 45.77
6031846 6.19045 6.85242 16.4533 16.2738 0.263539 6.45103 45.77
6031858 6.18182 6.80562 16.4218 16.2552 0.250322 6.46769 45.6644
6031866 6.22499 6.77753 16.4848 16.2459 0.171423 6.47064 45.7333
6031886 6.25952 6.76817 16.4218 16.2366 0.177002 6.44529 45.686
6031900 6.34586 6.80562 16.4323 16.2738 0.164255 6.39631 45.8576
6031906 6.34586 6.80562 16.4323 16.2738 0.164255 6.39631 45.8576
6031916 6.35449 6.86178 16.4743 16.2366 0.14672 6.36702 45.9272
6031928 6.29406 6.82434 16.4848 16.2087 0.138658 6.4094 45.8119
6031940 6.29406 6.82434 16.4848 16.2087 0.138658 6.4094 45.8119
6031948 6.31133 6.85242 16.5584 16.2459 0.1243 6.40899 45.9681
6031961 6.31133 6.85242 16.5584 16.2459 0.1243 6.40899 45.9681
6031967 6.32859 6.80562 16.4954 16.2273 0.113907 6.40747 45.8568
6031982 6.3804 6.81498 16.5269 16.1435 0.027886 6.36913 45.8658
6031988 6.3804 6.81498 16.5269 16.1435 0.027886 6.36913 45.8658
6031998 6.4581 6.77753 16.5059 16.069 -0.0640899 6.33236 45.8105
6032008 6.4581 6.77753 16.5059 16.069 -0.0640899 6.33236 45.8105
6032018 6.41493 6.80562 16.5059 15.9852 -0.0710845 6.32351 45.7116
6032028 6.4581 6.8337 16.4954 15.9852 -0.0734881 6.28833 45.7724
6032039 6.4581 6.8337 16.4954 15.9852 -0.0734881 6.28833 45.7724
6032048 6.4581 6.87115 16.611 16.0131 -0.100549 6.2982 45.9534
6032058 6.46673 6.82434 16.6215 16.0225 -0.131415 6.31965 45.935
6032068 6.46673 6.82434 16.6215 16.0225 -0.131415 6.31965 45.935
6032078 6.47537 6.86178 16.7161 16.0783 -0.136247 6.32667 46.1316
6032090 6.47537 6.86178 16.7161 16.0783 -0.136247 6.32667 46.1316
6032098 6.39766 6.76817 16.59 15.9107 -0.169018 6.35089 45.6665
6032112 6.484 6.712 16.5269 15.92 -0.207511 6.32659 45.643
6032118 6.484 6.712 16.5269 15.92 -0.207511 6.32659 45.643
6032128 6.50127 6.74009 16.5164 15.8176 -0.252293 6.28388 45.5754
6032138 6.50127 6.74945 16.5479 15.7618 -0.295199 6.27485 45.5604
6032148 6.50127 6.74945 16.5479 15.7618 -0.295199 6.27485 45.5604
6032158 6.5358 6.712 16.5584 15.7711 -0.33523 6.28 45.5773
6032168 6.5358 6.712 16.5584 15.7711 -0.33523 6.28 45.5773
6032178 6.60488 6.75881 16.4638 15.7618 -0.30057 6.20603 45.5893
6032187 6.61351 6.78689 16.5059 15.7152 -0.338253 6.1881 45.6215
6032198 6.61351 6.78689 16.5059 15.7152 -0.338253 6.1881 45.6215
6032208 6.69985 6.81498 16.4323 15.7245 -0.324389 6.12261 45.6716
6032220 6.69985 6.82434 16.4848 15.7525 -0.332098 6.13391 45.7615
6032229 6.69985 6.82434 16.4848 15.7525 -0.332098 6.13391 45.7615
6032239 6.76028 6.87115 16.5584 15.8176 -0.342306 6.11139 46.0075
6032249 6.76028 6.87115 16.5584 15.8176 -0.342306 6.11139 46.0075
6032259 6.70848 6.85242 16.4848 15.7618 -0.316069 6.11877 45.8075
6032269 6.74302 6.89923 16.4638 15.6687 -0.348957 6.0591 45.7747
6032279 6.74302 6.89923 16.4638 15.6687 -0.348957 6.0591 45.7747
6032297 6.80345 6.88051 16.3692 15.6594 -0.346066 6.01955 45.7125
6032301 6.81209 6.90859 16.4113 15.6035 -0.388783 5.99997 45.7354
6032310 6.81209 6.90859 16.4113 15.6035 -0.388783 5.99997 45.7354
6032327 6.81209 6.90859 16.4428 15.6314 -0.390251 6.01166 45.7949
6032331 6.78619 6.89923 16.4638 15.5197 -0.454938 6.01003 45.669
6032341 6.78619 6.89923 16.4638 15.5197 -0.454938 6.01003 45.669
6032351 6.75165 6.84306 16.5059 15.5663 -0.46434 6.0692 45.6669
6032363 6.75165 6.84306 16.5059 15.5663 -0.46434 6.0692 45.6669
6032377 6.66531 6.88987 16.5479 15.6314 -0.378238 6.10835 45.7345
6032383 6.62214 6.8337 16.6215 15.6314 -0.42581 6.16854 45.7088
6032393 6.62214 6.8337 16.6215 15.6314 -0.42581 6.16854 45.7088
6032403 6.56171 6.81498 16.8002 15.6407 -0.494477 6.24136 45.8177
6032415 6.52717 6.73073 16.8213 15.6221 -0.54462 6.29703 45.7013
6032424 6.52717 6.73073 16.8213 15.6221 -0.54462 6.29703 45.7013
6032434 6.484 6.74009 16.8213 15.678 -0.485095 6.32341 45.7234
6032449 6.51854 6.73073 16.8738 15.6501 -0.552505 6.31635 45.7732
6032454 6.51854 6.73073 16.8738 15.6501 -0.552505 6.31635 45.7732
6032464 6.51854 6.712 17 15.6035 -0.656186 6.34014 45.834
6032474 6.51854 6.712 17 15.6035 -0.656186 6.34014 45.834
6032484 6.55307 6.712 16.9264 15.5849 -0.645852 6.3066 45.7764
6032498 6.57034 6.73073 16.9474 15.5849 -0.655726 6.29386 45.8334
6032504 6.57034 6.73073 16.9474 15.5849 -0.655726 6.29386 45.8334
6032514 6.62214 6.77753 16.9369 15.5849 -0.651464 6.24614 45.9215
6032524 6.62214 6.77753 16.9369 15.5849 -0.651464 6.24614 45.9215
6032534 6.60488 6.73073 16.8528 15.5849 -0.623769 6.25979 45.7733
6032544 6.61351 6.74945 16.8213 15.678 -0.549118 6.25885 45.8622
6032555 6.61351 6.74945 16.8213 15.678 -0.549118 6.25885 45.8622
6032565 6.60488 6.80562 16.8002 15.7245 -0.476196 6.2417 45.9353
6032575 6.63941 6.79626 16.7582 15.7152 -0.482543 6.22026 45.9091
6032585 6.63941 6.79626 16.7582 15.7152 -0.482543 6.22026 45.9091
6032595 6.63941 6.84306 16.6636 15.7245 -0.400794 6.18228 45.8706
6032605 6.60488 6.76817 16.6846 15.6873 -0.455792 6.22982 45.7449
6032615 6.60488 6.76817 16.6846 15.6873 -0.455792 6.22982 45.7449
6032625 6.66531 6.82434 16.6215 15.5756 -0.485325 6.14208 45.6867
6032635 6.66531 6.82434 16.6215 15.5756 -0.485325 6.14208 45.6867
6032646 6.69985 6.85242 16.5164 15.5756 -0.43173 6.09267 45.6442
6032655 6.69985 6.82434 16.5269 15.529 -0.479037 6.09863 45.5801
6032667 6.69985 6.82434 16.5269 15.529 -0.479037 6.09863 45.5801
6032675 6.69121 6.81498 16.6215 15.6128 -0.483674 6.14165 45.7405
6032695 6.61351 6.81498 16.611 15.6594 -0.410391 6.18458 45.6989
6032709 6.64804 6.75881 16.6531 15.6873 -0.467241 6.20808 45.7472
6032715 6.64804 6.75881 16.6531 15.6873 -0.467241 6.20808 45.7472
6032725 6.64804 6.76817 16.6425 15.678 -0.461574 6.19993 45.7367
6032736 6.71712 6.82434 16.5164 15.6407 -0.420372 6.11037 45.6986
6032746 6.71712 6.82434 16.5164 15.6407 -0.420372 6.11037 45.6986
6032756 6.76892 6.88051 16.632 15.6687 -0.463422 6.08854 45.9501
6032776 6.76028 6.85242 16.6005 15.5849 -0.5041 6.08301 45.7981
6032786 6.78619 6.88987 16.611 15.5011 -0.549394 6.03957 45.7882
6032797 6.78619 6.88987 16.611 15.5011 -0.549394 6.03957 45.7882
6032806 6.78619 6.87115 16.5479 15.4545 -0.552139 6.02668 45.6598
6032816 6.82072 6.91795 16.5795 15.4545 -0.561301 5.9955 45.7727
6032826 6.82072 6.91795 16.5795 15.4545 -0.561301 5.9955 45.7727
6032837 6.83799 6.92731 16.4848 15.3801 -0.556351 5.94988 45.6302
6032862 6.81209 6.86178 16.5164 15.4452 -0.559574 6.01103 45.6355
6032866 6.83799 6.91795 16.5374 15.4732 -0.537665 5.98297 45.7665
6032879 6.83799 6.91795 16.5374 15.4732 -0.537665 5.98297 45.7665
6032886 6.82936 6.89923 16.569 15.4918 -0.549962 6.00538 45.7893
6032896 6.78619 6.82434 16.5479 15.5849 -0.505479 6.07376 45.7433
6032906 6.78619 6.82434 16.5479 15.5849 -0.505479 6.07376 45.7433
6032925 6.83799 6.82434 16.5795 15.6221 -0.529279 6.06335 45.8639
6032930 6.83799 6.82434 16.5795 15.6221 -0.529279 6.06335 45.8639
6032939 6.74302 6.87115 16.6005 15.6314 -0.458564 6.09139 45.8461
6032948 6.81209 6.88051 16.5479 15.6873 -0.431228 6.05601 45.9278
6032957 6.81209 6.88051 16.5479 15.6873 -0.431228 6.05601 45.9278
6032968 6.72575 6.86178 16.5059 15.7525 -0.336657 6.10878 45.8459
6032977 6.72575 6.84306 16.4743 15.6687 -0.37646 6.09499 45.7118
6032989 6.72575 6.84306 16.4743 15.6687 -0.37646 6.09499 45.7118
6032998 6.71712 6.88987 16.3692 15.7338 -0.25301 6.06958 45.71
6033018 6.66531 6.87115 16.3797 15.7804 -0.215273 6.11326 45.6966
6033028 6.70848 6.91795 16.4323 15.799 -0.23104 6.08563 45.8577
6033049 6.75165 6.96476 16.3166 15.8456 -0.14057 6.03085 45.8786
6033060 6.71712 6.97412 16.3797 15.8456 -0.150897 6.0547 45.9165
6033079 6.63078 6.9554 16.3271 15.8083 -0.106187 6.08551 45.7216
6033093 6.69985 6.96476 16.2325 15.7804 -0.102471 6.02539 45.6775
6033099 6.69985 6.96476 16.2325 15.7804 -0.102471 6.02539 45.6775
6033109 6.64804 6.89923 16.2325 15.8176 -0.0897571 6.08682 45.5974
6033119 6.64804 6.89923 16.2325 15.8176 -0.0897571 6.08682 45.5974
6033129 6.68258 6.92731 16.2746 15.7711 -0.141692 6.05702 45.6556
6033139 6.65668 6.92731 16.3692 15.8363 -0.143218 6.10014 45.7894
6033149 6.65668 6.92731 16.3692 15.8363 -0.143218 6.10014 45.7894
6033160 6.62214 6.94604 16.3271 15.8176 -0.101514 6.09563 45.713
6033169 6.62214 6.94604 16.3271 15.8176 -0.101514 6.09563 45.713
6033182 6.58761 6.90859 16.2641 15.7804 -0.0893116 6.10935 45.5407
6033189 6.66531 6.97412 16.2956 15.8269 -0.0873312 6.05845 45.762
6033199 6.66531 6.97412 16.2956 15.8269 -0.0873312 6.05845 45.762
6033209 6.68258 7.02093 16.222 15.8828 -0.000472367 6.02554 45.8083
6033219 6.65668 7.02093 16.243 15.9107 0.0174195 6.047 45.8314
6033229 6.65668 7.02093 16.243 15.9107 0.0174195 6.047 45.8314
6033242 6.66531 7.01156 16.2325 15.92 0.0184208 6.0471 45.8294
6033249 6.66531 7.01156 16.2325 15.92 0.0184208 6.0471 45.8294
6033262 6.65668 7.0022 16.1064 15.9294 0.0921935 6.0325 45.6946
6033270 6.61351 6.99284 16.1274 15.9294 0.0992537 6.06082 45.6631
6033280 6.61351 6.99284 16.1274 15.9294 0.0992537 6.06082 45.6631
6033290 6.63941 7.05837 16.0433 15.9294 0.16697 6.0022 45.6704
6033300 6.63078 7.04901 15.9697 16.0131 0.252765 6.01248 45.6626
6033310 6.63078 7.04901 15.9697 16.0131 0.252765 6.01248 45.6626
6033325 6.69121 7.1239 16.0328 15.9666 0.199991 5.95366 45.8145
6033330 6.69121 7.1239 16.0328 15.9666 0.199991 5.95366 45.8145
6033340 6.65668 7.09582 15.9487 15.9107 0.219899 5.95467 45.6119
6033350 6.67395 7.13326 15.9802 15.9852 0.2536 5.95057 45.7726
6033361 6.67395 7.13326 15.9802 15.9852 0.2536 5.95057 45.7726
6033372 6.71712 7.15198 15.9276 15.9014 0.223556 5.89519 45.6982
6033381 6.73438 7.08645 15.9276 15.8735 0.163254 5.91172 45.622
6033392 6.73438 7.08645 15.9276 15.8735 0.163254 5.91172 45.622
6033401 6.78619 7.08645 15.8541 15.8269 0.149912 5.86397 45.5536
6033411 6.78619 7.08645 15.8541 15.8269 0.149912 5.86397 45.5536
6033421 6.69985 7.10518 15.7805 15.8642 0.269011 5.88771 45.4497
6033431 6.78619 7.20815 15.9171 15.9387 0.241819 5.84343 45.8501
6033441 6.78619 7.20815 15.9171 15.9387 0.241819 5.84343 45.8501
6033451 6.74302 7.1239 15.9907 15.8642 0.13907 5.90134 45.7218
6033463 6.75165 7.15198 15.9802 15.9294 0.190708 5.89544 45.8132
6033473 6.75165 7.15198 15.9802 15.9294 0.190708 5.89544 45.8132
6033483 6.76028 7.13326 16.0117 15.8363 0.107932 5.8878 45.7415
6033493 6.76028 7.13326 16.0117 15.8363 0.107932 5.8878 45.7415
6033503 6.72575 7.11454 16.0748 15.8642 0.0972837 5.93021 45.7793
6033513 6.76028 7.13326 16.1064 15.8735 0.0763535 5.91399 45.8734
6033523 6.76028 7.13326 16.1064 15.8735 0.0763535 5.91399 45.8734
6033532 6.76892 7.15198 16.1484 15.8269 0.0335485 5.90063 45.8963
6033543 6.74302 7.02093 16.2115 15.9014 -0.0175327 5.99942 45.8769
6033552 6.74302 7.02093 16.2115 15.9014 -0.0175327 5.99942 45.8769
6033562 6.74302 7.10518 16.18 15.8363 0.0100583 5.94187 45.8644
6033580 6.74302 7.10518 16.18 15.8363 0.0100583 5.94187 45.8644
6033583 6.66531 7.04901 16.2536 15.7711 -0.0539884 6.00483 45.739
6033594 6.69121 7.05837 16.2746 15.7338 -0.0948355 5.98546 45.758
6033602 6.69121 7.05837 16.2746 15.7338 -0.0948355 5.98546 45.758
6033614 6.66531 6.92731 16.243 15.7711 -0.115089 6.05881 45.6068
6033623 6.68258 6.96476 16.243 15.678 -0.155197 6.01525 45.5684
6033644 6.72575 6.94604 16.2536 15.7525 -0.153688 6.02073 45.6778
6033657 6.72575 6.94604 16.2536 15.7525 -0.153688 6.02073 45.6778
6033664 6.70848 6.96476 16.1484 15.8083 -0.0459239 6.01036 45.63
6033678 6.76028 6.98348 16.1484 15.7618 -0.0895053 5.96874 45.654
6033685 6.76028 6.98348 16.1484 15.7618 -0.0895053 5.96874 45.654
6033699 6.78619 6.9554 16.18 15.8269 -0.100444 5.98883 45.7485
6033705 6.72575 6.98348 16.201 15.8269 -0.0635758 6.00782 45.7372
6033715 6.72575 6.98348 16.201 15.8269 -0.0635758 6.00782 45.7372
6033725 6.71712 6.9554 16.1379 15.8269 -0.0398174 6.01229 45.6374
6033735 6.78619 6.96476 16.0748 15.8549 -0.0226498 5.9693 45.6806
6033745 6.78619 6.96476 16.0748 15.8549 -0.0226498 5.9693 45.6806
6033755 6.75165 6.99284 15.9697 15.8176 0.0489384 5.94403 45.5318
6033765 6.75165 6.99284 15.9697 15.8176 0.0489384 5.94403 45.5318
6033775 6.81209 6.9554 15.9382 15.8176 0.012514 5.92718 45.5233
6033786 6.83799 6.99284 15.9697 15.799 -0.00867993 5.90068 45.5995
6033796 6.83799 6.99284 15.9697 15.799 -0.00867993 5.90068 45.5995
6033808 6.86389 7.03965 15.9171 15.8176 0.0417769 5.86061 45.6383
6033816 6.90706 7.06773 15.9382 15.7897 0.00668466 5.82671 45.7027
6033830 6.90706 7.06773 15.9382 15.7897 0.00668466 5.82671 45.7027
6033836 6.91569 7.16134 15.8225 15.8269 0.136727 5.76441 45.7265
6033850 6.91569 7.16134 15.8225 15.8269 0.136727 5.76441 45.7265
6033856 6.91569 7.13326 15.812 15.6966 0.0560671 5.74866 45.5576
6033866 6.88116 7.19879 15.7489 15.7152 0.155857 5.7255 45.5441
6033876 6.88116 7.19879 15.7489 15.7152 0.155857 5.7255 45.5441
6033888 6.9934 7.22687 15.6543 15.6873 0.146213 5.63673 45.5619
6033898 6.95886 7.16134 15.7384 15.6594 0.0678003 5.69365 45.518
6033908 6.95886 7.16134 15.7384 15.6594 0.0678003 5.69365 45.518
6033918 7.03657 7.24559 15.6543 15.7432 0.163031 5.62022 45.6796
6033928 7.03657 7.24559 15.6543 15.7432 0.163031 5.62022 45.6796
6033937 7.00203 7.18943 15.6648 15.7152 0.13046 5.65767 45.5715
6033948 7.11427 7.28304 15.6333 15.7432 0.152189 5.56404 45.7737
6033958 7.11427 7.28304 15.6333 15.7432 0.152189 5.56404 45.7737
6033967 7.08837 7.28304 15.6753 15.6873 0.11296 5.57283 45.734
6033980 7.06247 7.28304 15.6543 15.7059 0.14888 5.584 45.7057
6033990 7.06247 7.28304 15.6543 15.7059 0.14888 5.584 45.7057
6034002 7.14881 7.24559 15.6228 15.6966 0.093317 5.55357 45.7138
6034009 7.14881 7.24559 15.6228 15.6966 0.093317 5.55357 45.7138
6034022 7.16607 7.25496 15.6543 15.6966 0.0716537 5.54812 45.7719
6034029 7.097 7.32985 15.5702 15.678 0.186443 5.52424 45.675
6034043 7.097 7.32985 15.5702 15.678 0.186443 5.52424 45.675
6034049 7.13154 7.32048 15.4966 15.6035 0.162369 5.4821 45.5521
6034059 7.15744 7.2924 15.402 15.529 0.144339 5.44762 45.3808
6034069 7.15744 7.2924 15.402 15.529 0.144339 5.44762 45.3808
6034079 7.16607 7.28304 15.5071 15.4639 0.0405699 5.45635 45.4201
6034089 7.16607 7.28304 15.5071 15.4639 0.0405699 5.45635 45.4201
6034103 7.14017 7.2924 15.4125 15.4452 0.102103 5.43996 45.2903
6034109 7.18334 7.2924 15.4966 15.5011 0.0624299 5.44998 45.4734
6034119 7.18334 7.2924 15.4966 15.5011 0.0624299 5.44998 45.4734
6034129 7.22651 7.33921 15.5387 15.529 0.0564665 5.4243 45.6334
6034139 7.18334 7.28304 15.5597 15.4732 0.00724494 5.46157 45.4992
6034149 7.18334 7.28304 15.5597 15.4732 0.00724494 5.46157 45.4992
6034159 7.20924 7.38601 15.6543 15.6128 0.0737458 5.45279 45.8624
6034179 7.15744 7.34857 15.6438 15.4545 0.00103712 5.45748 45.6043
6034189 7.21788 7.36729 15.6964 15.5197 -0.0148579 5.44665 45.8012
6034199 7.21788 7.36729 15.6964 15.5197 -0.0148579 5.44665 45.8012
6034216 7.26105 7.26432 15.5702 15.4825 -0.0463188 5.43923 45.578
6034225 7.21788 7.31112 15.5281 15.4452 0.0056833 5.42094 45.5024
6034233 7.21788 7.31112 15.5281 15.4452 0.0056833 5.42094 45.5024
6034240 7.28695 7.37665 15.5176 15.3894 -0.0211477 5.34667 45.5706
6034254 7.28695 7.37665 15.5176 15.3894 -0.0211477 5.34667 45.5706
6034260 7.29558 7.32985 15.5281 15.3614 -0.0727385 5.36004 45.515
6034270 7.30422 7.36729 15.6017 15.3987 -0.0766188 5.36289 45.6719
6034280 7.30422 7.36729 15.6017 15.3987 -0.0766188 5.36289 45.6719
6034290 7.32148 7.32048 15.5492 15.4173 -0.0728235 5.36891 45.6084
6034303 7.26105 7.36729 15.6122 15.3894 -0.0638977 5.38241 45.63
6034310 7.26105 7.36729 15.6122 15.3894 -0.0638977 5.38241 45.63
6034320 7.25241 7.30176 15.7069 15.4173 -0.131467 5.44131 45.6783
6034330 7.25241 7.30176 15.7069 15.4173 -0.131467 5.44131 45.6783
6034340 7.29558 7.31112 15.7594 15.5011 -0.132336 5.44631 45.8672
6034350 7.27831 7.25496 15.6858 15.4452 -0.144511 5.45211 45.6643
6034362 7.27831 7.25496 15.6858 15.4452 -0.144511 5.45211 45.6643
6034370 7.33875 7.2924 15.6648 15.3987 -0.17096 5.39418 45.6946
6034383 7.31285 7.34857 15.5807 15.3428 -0.110871 5.35114 45.5849
6034391 7.31285 7.34857 15.5807 15.3428 -0.110871 5.35114 45.5849
6034406 7.28695 7.32048 15.5281 15.287 -0.114281 5.3523 45.4225
6034411 7.28695 7.32048 15.5281 15.287 -0.114281 5.3523 45.4225
6034421 7.39919 7.37665 15.4651 15.2218 -0.146163 5.24969 45.4627
6034431 7.43372 7.4141 15.4545 15.259 -0.118046 5.22342 45.5614
6034441 7.43372 7.4141 15.4545 15.259 -0.118046 5.22342 45.5614
6034451 7.41646 7.40474 15.402 15.259 -0.0850126 5.22396 45.4822
6034462 7.35602 7.37665 15.4966 15.3056 -0.093542 5.29359 45.5349
6034472 7.35602 7.37665 15.4966 15.3056 -0.093542 5.29359 45.5349
6034481 7.39055 7.42346 15.5807 15.3708 -0.096713 5.28918 45.7655
6034501 7.39055 7.37665 15.6438 15.4545 -0.110728 5.34098 45.8655
6034515 7.33875 7.39537 15.6858 15.3149 -0.171816 5.33508 45.7349
6034521 7.33875 7.39537 15.6858 15.3149 -0.171816 5.33508 45.7349
6034531 7.33875 7.4141 15.5807 15.2963 -0.114554 5.30052 45.6298
6034541 7.33875 7.4141 15.5597 15.2963 -0.103082 5.29605 45.6088
6034551 7.36465 7.34857 15.5597 15.2404 -0.184202 5.30181 45.5133
6034561 7.35602 7.32048 15.6017 15.1659 -0.259288 5.3113 45.4442
6034571 7.35602 7.32048 15.6017 15.1659 -0.259288 5.3113 45.4442
6034582 7.33012 7.27368 15.7069 15.2125 -0.302494 5.37602 45.5231
6034591 7.26968 7.28304 15.7174 15.2218 -0.265004 5.40309 45.4919
6034603 7.26968 7.28304 15.7174 15.2218 -0.265004 5.40309 45.4919
6034613 7.29558 7.32048 15.791 15.3242 -0.241552 5.41176 45.7312
6034625 7.29558 7.32048 15.791 15.3242 -0.241552 5.41176 45.7312
6034632 7.24378 7.26432 15.8646 15.3614 -0.263795 5.48319 45.7341
6034644 7.22651 7.33921 15.7805 15.3614 -0.167541 5.43985 45.7076
6034652 7.22651 7.33921 15.7805 15.3614 -0.167541 5.43985 45.7076
6034664 7.22651 7.26432 15.812 15.408 -0.200281 5.48967 45.7108
6034673 7.25241 7.23623 15.7699 15.4545 -0.181335 5.49159 45.7131
6034686 7.25241 7.23623 15.7699 15.4545 -0.181335 5.49159 45.7131
6034693 7.30422 7.31112 15.7594 15.3894 -0.198381 5.41914 45.7641
6034703 7.30422 7.31112 15.7594 15.3894 -0.198381 5.41914 45.7641
6034713 7.16607 7.24559 15.6753 15.3801 -0.118625 5.49091 45.4671
6034723 7.25241 7.2924 15.7174 15.4452 -0.126979 5.45353 45.7074
6034733 7.25241 7.2924 15.7174 15.4452 -0.126979 5.45353 45.7074
6034743 7.23514 7.25496 15.6122 15.4173 -0.096181 5.45021 45.5196
6034753 7.26105 7.32048 15.6333 15.3428 -0.126766 5.39797 45.5576
6034763 7.26105 7.32048 15.6333 15.3428 -0.126766 5.39797 45.5576
6034774 7.26105 7.32048 15.6228 15.3242 -0.131299 5.39182 45.5285
6034783 7.26105 7.32048 15.6228 15.3242 -0.131299 5.39182 45.5285
6034795 7.25241 7.32985 15.5387 15.3521 -0.0599697 5.37962 45.473
6034804 7.29558 7.32985 15.5176 15.3708 -0.0618532 5.35979 45.5138
6034812 7.29558 7.32985 15.5176 15.3708 -0.0618532 5.35979 45.5138
6034830 7.25241 7.40474 15.5176 15.4266 0.033614 5.35743 45.6014
6034841 7.21788 7.39537 15.5597 15.3614 -0.011383 5.37216 45.5344
6034853 7.21788 7.39537 15.5597 15.3614 -0.011383 5.37216 45.5344
6034854 7.25241 7.36729 15.5492 15.5383 0.0569105 5.40433 45.7072
6034864 7.25241 7.36729 15.5492 15.5383 0.0569105 5.40433 45.7072
6034875 7.24378 7.40474 15.4651 15.4452 0.0774473 5.35411 45.5588
6034884 7.22651 7.38601 15.5176 15.4359 0.0426859 5.37934 45.5661
6034894 7.22651 7.38601 15.5176 15.4359 0.0426859 5.37934 45.5661
6034904 7.26968 7.35793 15.3915 15.4825 0.0984907 5.35575 45.5015
6034914 7.24378 7.43282 15.4335 15.4545 0.115258 5.33686 45.5647
6034924 7.24378 7.43282 15.4335 15.4545 0.115258 5.33686 45.5647
6034935 7.25241 7.40474 15.5597 15.5011 0.05126 5.38201 45.7179
6034944 7.25241 7.40474 15.5597 15.5011 0.05126 5.38201 45.7179
6034954 7.27831 7.42346 15.5281 15.4918 0.0594854 5.35353 45.7217
6034964 7.31285 7.47026 15.5281 15.4266 0.0305504 5.30358 45.7379
6034974 7.31285 7.47026 15.5281 15.4266 0.0305504 5.30358 45.7379
6034984 7.32148 7.47026 15.423 15.408 0.0733018 5.27344 45.6227
6034994 7.27831 7.4609 15.4545 15.3242 0.0286996 5.28567 45.518
6035005 7.27831 7.4609 15.4545 15.3242 0.0286996 5.28567 45.518
6035015 7.23514 7.39537 15.3599 15.2963 0.0533164 5.30807 45.2867
6035026 7.23514 7.39537 15.3599 15.2963 0.0533164 5.30807 45.2867
6035037 7.26968 7.32048 15.4756 15.259 -0.0914127 5.34292 45.3248
6035050 7.29558 7.40474 15.5807 15.2777 -0.106397 5.31997 45.5587
6035055 7.29558 7.40474 15.5807 15.2777 -0.106397 5.31997 45.5587
6035065 7.26968 7.38601 15.6333 15.287 -0.126146 5.35301 45.5759
6035075 7.23514 7.40474 15.7174 15.3521 -0.107008 5.39155 45.7094
6035085 7.23514 7.40474 15.7174 15.3521 -0.107008 5.39155 45.7094
6035098 7.30422 7.39537 15.791 15.3801 -0.174266 5.38627 45.8706
6035105 7.30422 7.39537 15.791 15.3801 -0.174266 5.38627 45.8706
6035120 7.29558 7.42346 15.7489 15.3614 -0.141609 5.36489 45.8294
6035126 7.32148 7.42346 15.7489 15.3428 -0.165869 5.34947 45.8367
6035136 7.32148 7.42346 15.7489 15.3428 -0.165869 5.34947 45.8367
6035146 7.30422 7.33921 15.6648 15.2777 -0.193132 5.36319 45.5859
6035156 7.25241 7.38601 15.5912 15.2032 -0.140011 5.33402 45.4328
6035179 7.26968 7.36729 15.6333 15.2218 -0.172482 5.34756 45.492
6035196 7.26105 7.32985 15.7489 15.259 -0.230862 5.40049 45.5988
6035206 7.20924 7.31112 15.8225 15.2404 -0.263371 5.44363 45.5833
6035216 7.20924 7.31112 15.8225 15.2404 -0.263371 5.44363 45.5833
6035227 7.22651 7.37665 15.7384 15.2404 -0.190781 5.38886 45.582
6035239 7.14881 7.32985 15.812 15.287 -0.188684 5.46989 45.5776
6035246 7.14881 7.32985 15.812 15.287 -0.188684 5.46989 45.5776
6035257 7.19198 7.33921 15.833 15.3428 -0.187591 5.4624 45.707
6035267 7.19198 7.33921 15.833 15.3428 -0.187591 5.4624 45.707
6035276 7.16607 7.2924 15.8751 15.3894 -0.196499 5.51342 45.7229
6035288 7.13154 7.31112 15.8225 15.4359 -0.113237 5.51927 45.7011
6035297 7.13154 7.31112 15.8225 15.4359 -0.113237 5.51927 45.7011
6035308 7.11427 7.24559 15.8646 15.4639 -0.147404 5.57097 45.6883
6035316 7.06247 7.31112 15.8646 15.5011 -0.0627548 5.57248 45.7393
6035329 7.06247 7.31112 15.8646 15.5011 -0.0627548 5.57248 45.7393
6035336 7.06247 7.28304 15.833 15.5197 -0.0507325 5.58246 45.6982
6035358 7.10564 7.32048 15.8015 15.5383 -0.0263855 5.54354 45.7659
6035367 7.0452 7.24559 15.8225 15.4825 -0.0765651 5.59729 45.5958
6035378 7.0452 7.24559 15.8225 15.4825 -0.0765651 5.59729 45.5958
6035387 7.12291 7.27368 15.7279 15.4825 -0.0518799 5.53001 45.6069
6035398 7.08837 7.31112 15.7699 15.557 0.0053376 5.55283 45.7264
6035417 7.07974 7.2924 15.7594 15.5383 -0.00461489 5.55912 45.6699
6035428 7.07974 7.2924 15.7594 15.5383 -0.00461489 5.55912 45.6699
6035438 7.14017 7.35793 15.6228 15.5849 0.0983924 5.48384 45.7057
6035448 7.13154 7.34857 15.6228 15.5849 0.0980318 5.49191 45.6878
6035459 7.13154 7.34857 15.6228 15.5849 0.0980318 5.49191 45.6878
6035469 7.15744 7.34857 15.6122 15.5104 0.0489235 5.46257 45.6287
6035479 7.14881 7.36729 15.5597 15.529 0.102967 5.45094 45.6048
6035498 7.14881 7.36729 15.5597 15.529 0.102967 5.45094 45.6048
6035499 7.15744 7.43282 15.4545 15.5011 0.176707 5.38974 45.5459
6035509 7.15744 7.43282 15.4545 15.5011 0.176707 5.38974 45.5459
6035519 7.14881 7.38601 15.4545 15.4452 0.125399 5.40281 45.4346
6035529 7.26968 7.36729 15.5281 15.4452 0.00806153 5.3726 45.6103
6035539 7.26968 7.36729 15.5281 15.4452 0.00806153 5.3726 45.6103
6035549 7.15744 7.4609 15.4756 15.4639 0.160098 5.37375 45.5578
6035559 7.15744 7.4609 15.4756 15.4639 0.160098 5.37375 45.5578
6035569 7.19198 7.39537 15.6122 15.5011 0.0504613 5.4242 45.7007
6035581 7.25241 7.37665 15.6858 15.4452 -0.0635728 5.4093 45.7601
6035599 7.24378 7.39537 15.6543 15.4825 -0.0110462 5.40599 45.7759
6035609 7.21788 7.36729 15.5807 15.5104 0.0433028 5.42052 45.6763
6035622 7.21788 7.36729 15.5807 15.5104 0.0433028 5.42052 45.6763
6035629 7.15744 7.39537 15.5807 15.4545 0.0612944 5.42327 45.5881
6035642 7.15744 7.39537 15.5807 15.4545 0.0612944 5.42327 45.5881
6035649 7.18334 7.39537 15.5912 15.4545 0.0412941 5.41389 45.6245
6035659 7.19198 7.38601 15.6017 15.4825 0.0409424 5.42228 45.6622
6035670 7.19198 7.38601 15.6017 15.4825 0.0409424 5.42228 45.6622
6035685 7.23514 7.34857 15.6333 15.408 -0.0612885 5.41071 45.625
6035690 7.15744 7.36729 15.6543 15.4452 0.000432134 5.44934 45.6243
6035710 7.20061 7.37665 15.6648 15.4732 -0.0085339 5.43387 45.7152
6035720 7.20061 7.37665 15.6648 15.4732 -0.0085339 5.43387 45.7152
6035730 7.11427 7.30176 15.7594 15.408 -0.0899136 5.51233 45.5835
6035740 7.11427 7.36729 15.791 15.4452 -0.0506997 5.4972 45.7178
6035751 7.11427 7.36729 15.791 15.4452 -0.0506997 5.4972 45.7178
6035760 7.08837 7.26432 15.8646 15.4918 -0.107656 5.57997 45.709
6035772 7.0452 7.18007 15.8751 15.4825 -0.141358 5.63774 45.5828
6035781 7.0452 7.18007 15.8751 15.4825 -0.141358 5.63774 45.5828
6035793 7.01067 7.19879 16.0117 15.5104 -0.171228 5.67858 45.7316
6035801 6.9675 7.13326 15.9907 15.529 -0.162172 5.72736 45.6205
6035814 6.9675 7.13326 15.9907 15.529 -0.162172 5.72736 45.6205
6035824 6.95023 7.18007 16.0959 15.5849 -0.153421 5.74658 45.811
6035835 6.95023 7.18007 16.0959 15.5849 -0.153421 5.74658 45.811
6035843 6.94159 7.13326 16.0748 15.6128 -0.14769 5.77311 45.7625
6035855 6.92433 7.07709 16.0853 15.6035 -0.180055 5.80674 45.6903
6035863 6.92433 7.07709 16.0853 15.6035 -0.180055 5.80674 45.6903
6035876 6.90706 7.09582 16.1484 15.6594 -0.163881 5.82995 45.8107
6035884 6.88979 7.11454 16.2115 15.7152 -0.147794 5.85303 45.9311
6035896 6.88979 7.11454 16.2115 15.7152 -0.147794 5.85303 45.9311
6035904 6.88116 7.08645 16.201 15.7338 -0.142609 5.87133 45.9024
6035918 6.88116 7.08645 16.201 15.7338 -0.142609 5.87133 45.9024
6035924 6.84662 7.11454 16.201 15.678 -0.139119 5.86314 45.8401
6035934 6.82072 7.05837 16.1169 15.6314 -0.135773 5.8745 45.6274
6035944 6.82072 7.05837 16.1169 15.6314 -0.135773 5.8745 45.6274
6035954 6.81209 6.9554 16.1589 15.5942 -0.231451 5.92665 45.5206
6035964 6.85526 7.01156 16.1169 15.6314 -0.180392 5.88012 45.6151
6035979 6.85526 7.01156 16.1169 15.6314 -0.180392 5.88012 45.6151
6035984 6.78619 7.03029 16.1274 15.6966 -0.102262 5.91828 45.6405
6036005 6.69121 6.98348 16.1484 15.7432 -0.0619978 5.99683 45.5663
6036015 6.69985 6.91795 16.2536 15.7804 -0.139676 6.05108 45.6517
6036025 6.69985 6.91795 16.2536 15.7804 -0.139676 6.05108 45.6517
6036035 6.72575 6.96476 16.243 15.7804 -0.122304 6.01554 45.7139
6036047 6.69985 6.96476 16.243 15.8642 -0.0622377 6.04388 45.7718
6036055 6.69985 6.96476 16.243 15.8642 -0.0622377 6.04388 45.7718
6036069 6.79482 6.9554 16.2536 15.8083 -0.155337 5.99568 45.8121
6036075 6.79482 6.9554 16.2536 15.8083 -0.155337 5.99568 45.8121
6036091 6.78619 6.96476 16.2115 15.7711 -0.143136 5.97974 45.7335
6036096 6.77755 7.0022 16.201 15.799 -0.0968367 5.96997 45.7798
6036106 6.77755 7.0022 16.201 15.799 -0.0968367 5.96997 45.7798
6036121 6.76028 6.99284 16.0538 15.7338 -0.0479788 5.94012 45.5408
6036130 6.82936 7.08645 15.9907 15.6873 -0.0254035 5.84362 45.5938
6036139 6.82936 7.08645 15.9907 15.6873 -0.0254035 5.84362 45.5938
6036146 6.82936 7.10518 15.9592 15.678 -0.00295043 5.82685 45.5717
6036156 6.87252 7.07709 15.9697 15.6687 -0.0528947 5.8202 45.588
6036166 6.87252 7.07709 15.9697 15.6687 -0.0528947 5.8202 45.588
6036177 6.91569 7.08645 16.0223 15.7245 -0.0693828 5.81805 45.7489
6036199 6.83799 7.10518 16.0223 15.6966 -0.0320137 5.83933 45.662
6036206 6.82072 7.13326 16.0012 15.6966 0.00433028 5.83017 45.6518
6036216 6.82072 7.13326 16.0012 15.6966 0.00433028 5.83017 45.6518
6036226 6.89843 7.08645 15.9487 15.6873 -0.0401944 5.80362 45.6208
6036236 6.89843 7.10518 15.9382 15.678 -0.0292748 5.79109 45.6197
6036246 6.89843 7.10518 15.9382 15.678 -0.0292748 5.79109 45.6197
6036256 6.93296 7.15198 15.9592 15.7152 -0.0136256 5.76586 45.7594
6036266 6.93296 7.15198 15.9592 15.7152 -0.0136256 5.76586 45.7594
6036276 6.92433 7.08645 15.9382 15.7059 -0.0383928 5.79346 45.6549
6036288 6.87252 7.10518 16.0117 15.7152 -0.0349388 5.82521 45.7047
6036298 6.87252 7.10518 16.0117 15.7152 -0.0349388 5.82521 45.7047
6036308 6.89843 7.11454 15.9697 15.678 -0.0413924 5.79319 45.6606
6036318 6.89843 7.11454 15.9697 15.678 -0.0413924 5.79319 45.6606
6036328 6.90706 7.11454 16.0012 15.678 -0.0633314 5.79562 45.7008
6036340 6.85526 7.09582 16.0748 15.6687 -0.0905991 5.84066 45.6946
6036347 6.85526 7.09582 16.0748 15.6687 -0.0905991 5.84066 45.6946
6036357 6.87252 7.13326 16.1169 15.7245 -0.0717655 5.83535 45.8472
6036368 6.88979 7.11454 16.18 15.7152 -0.130717 5.84675 45.8995
6036377 6.88979 7.11454 16.18 15.7152 -0.130717 5.84675 45.8995
6036390 6.9675 7.15198 16.0328 15.6407 -0.113304 5.75002 45.793
6036412 6.89843 7.1707 16.0012 15.5476 -0.0993639 5.74765 45.618
6036418 6.95023 7.16134 15.9802 15.4545 -0.172654 5.70513 45.5463
6036428 6.95023 7.16134 15.9802 15.4545 -0.172654 5.70513 45.5463
6036437 6.94159 7.13326 15.9697 15.4639 -0.172594 5.72159 45.5084
6036447 6.94159 7.1239 15.9697 15.4545 -0.182925 5.72396 45.4897
6036457 6.94159 7.1239 15.9697 15.4545 -0.182925 5.72396 45.4897
6036468 6.97613 7.1707 15.9802 15.4825 -0.166172 5.69481 45.6095
6036478 6.97613 7.1707 15.9802 15.4825 -0.166172 5.69481 45.6095
6036487 6.92433 7.13326 16.1484 15.5476 -0.214106 5.78265 45.7537
6036497 6.90706 7.15198 16.1694 15.6128 -0.169994 5.79932 45.8413
6036512 6.90706 7.15198 16.1694 15.6128 -0.169994 5.79932 45.8413
6036519 6.95023 7.14262 16.1694 15.5197 -0.249738 5.76525 45.782
6036533 6.98476 7.15198 16.1169 15.4639 -0.265658 5.72341 45.7175
6036539 6.98476 7.15198 16.1169 15.4639 -0.265658 5.72341 45.7175
6036549 7.00203 7.19879 16.201 15.5849 -0.227973 5.73591 45.9867
6036559 7.00203 7.19879 16.201 15.5849 -0.227973 5.73591 45.9867
6036569 7.01067 7.07709 16.18 15.4173 -0.380993 5.74899 45.685
6036579 6.95886 7.09582 16.201 15.4266 -0.348833 5.77016 45.6823
6036589 6.95886 7.09582 16.201 15.4266 -0.348833 5.77016 45.6823
6036599 6.97613 7.1239 16.1589 15.3894 -0.340532 5.73349 45.6483
6036610 6.91569 7.08645 16.1169 15.5197 -0.233577 5.79588 45.6387
6036620 6.91569 7.08645 16.1169 15.5197 -0.233577 5.79588 45.6387
6036630 6.92433 7.18007 16.201 15.4918 -0.247538 5.76075 45.7972
6036640 6.92433 7.15198 16.1589 15.4918 -0.24028 5.765 45.727
6036651 6.92433 7.15198 16.1589 15.4918 -0.24028 5.765 45.727
6036662 6.93296 7.07709 16.2325 15.5104 -0.315821 5.81368 45.753
6036671 6.93296 7.07709 16.2325 15.5104 -0.315821 5.81368 45.753
6036682 6.84662 7.07709 16.201 15.5011 -0.257215 5.84484 45.6258
6036691 6.88116 7.05837 16.222 15.5104 -0.292519 5.84371 45.6719
6036711 6.89843 7.05837 16.243 15.529 -0.302912 5.84377 45.7289
6036724 6.88116 7.01156 16.2536 15.4918 -0.345853 5.86767 45.6381
6036731 6.88116 7.01156 16.2536 15.4918 -0.345853 5.86767 45.6381
6036745 6.87252 7.05837 16.2746 15.557 -0.290512 5.86747 45.7624
6036751 6.87252 7.05837 16.2746 15.557 -0.290512 5.86747 45.7624
6036771 6.85526 6.98348 16.3377 15.5383 -0.367007 5.91842 45.7147
6036772 6.88116 7.06773 16.2325 15.4732 -0.313653 5.83407 45.6546
6036782 6.88116 7.06773 16.2325 15.4732 -0.313653 5.83407 45.6546
6036794 6.89843 7.03965 16.2115 15.4452 -0.342718 5.82917 45.5948
6036803 6.9675 7.01156 16.1589 15.4359 -0.372441 5.79799 45.5739
6036814 6.9675 7.01156 16.1589 15.4359 -0.372441 5.79799 45.5739
6036824 7.03657 7.07709 16.18 15.4825 -0.35879 5.75042 45.7761
6036836 7.03657 7.07709 16.18 15.4825 -0.35879 5.75042 45.7761
6036844 6.94159 7.08645 16.1589 15.4732 -0.296161 5.78318 45.6601
6036854 6.92433 7.04901 16.0643 15.4918 -0.245909 5.79277 45.5294
6036864 6.92433 7.04901 16.0643 15.4918 -0.245909 5.79277 45.5294
6036874 6.95023 7.01156 16.1274 15.4825 -0.320145 5.8089 45.5717
6036884 6.92433 7.07709 16.1169 15.5011 -0.253741 5.79246 45.6194
6036894 6.92433 7.07709 16.1169 15.5011 -0.253741 5.79246 45.6194
6036904 6.97613 7.09582 16.0538 15.5104 -0.232115 5.74948 45.6362
6036914 6.97613 7.09582 16.0538 15.5104 -0.232115 5.74948 45.6362
6036926 6.9934 7.09582 16.0433 15.4825 -0.251229 5.73383 45.615
6036934 6.97613 7.05837 16.0853 15.5476 -0.249332 5.78042 45.6675
6036955 6.87252 7.14262 16.0643 15.5383 -0.140232 5.78311 45.6178
6036965 6.95023 7.09582 16.1064 15.5663 -0.21573 5.78317 45.7187
6036985 6.93296 7.18943 15.9907 15.557 -0.0970542 5.72321 45.6701
6036995 6.93296 7.18943 15.9907 15.557 -0.0970542 5.72321 45.6701
6037005 7.0711 7.19879 15.9382 15.4639 -0.189734 5.62669 45.6719
6037015 7.0452 7.28304 15.8435 15.4545 -0.0828221 5.57896 45.6263
6037025 7.0452 7.28304 15.8435 15.4545 -0.0828221 5.57896 45.6263
6037036 7.0711 7.30176 15.8541 15.3987 -0.123124 5.54947 45.6256
6037046 7.0711 7.27368 15.833 15.4918 -0.0759035 5.57703 45.6696
6037057 7.0711 7.27368 15.833 15.4918 -0.0759035 5.57703 45.6696
6037066 7.12291 7.2924 15.8225 15.4545 -0.108589 5.53542 45.6924
6037080 7.10564 7.31112 15.6858 15.4545 -0.0141621 5.50637 45.5571
6037087 7.10564 7.31112 15.6858 15.4545 -0.0141621 5.50637 45.5571
6037096 7.12291 7.39537 15.6858 15.4918 0.0429034 5.46855 45.6959
6037116 7.11427 7.32985 15.6648 15.4173 -0.0175327 5.4819 45.5262
6037127 7.11427 7.36729 15.5912 15.5011 0.0893563 5.4672 45.5739
6037136 7.11427 7.36729 15.5912 15.5011 0.0893563 5.4672 45.5739
6037148 7.14881 7.45154 15.5807 15.4452 0.0916511 5.40004 45.6263
6037158 7.13154 7.4141 15.6017 15.4825 0.0894725 5.43676 45.6298
6037170 7.13154 7.4141 15.6017 15.4825 0.0894725 5.43676 45.6298
6037178 7.21788 7.47026 15.6017 15.4732 0.0676423 5.37118 45.763
6037198 7.26105 7.45154 15.5387 15.4639 0.0632733 5.34503 45.7151
6037208 7.26105 7.47963 15.4966 15.4452 0.091511 5.3197 45.6825
6037228 7.26105 7.53579 15.3284 15.4732 0.230014 5.2649 45.5984
6037239 7.26968 7.56388 15.3389 15.4359 0.214446 5.24287 45.6084
6037248 7.26968 7.56388 15.3389 15.4359 0.214446 5.24287 45.6084
6037261 7.24378 7.5826 15.2758 15.4359 0.273904 5.23255 45.5381
6037279 7.28695 7.63877 15.2022 15.3894 0.296021 5.16261 45.5173
6037289 7.31285 7.66685 15.1707 15.4266 0.334558 5.13996 45.577
6037299 7.31285 7.66685 15.1707 15.4266 0.334558 5.13996 45.577
6037309 7.33012 7.76982 15.1497 15.3614 0.357091 5.06823 45.611
6037319 7.33875 7.68557 15.1076 15.3708 0.33513 5.09444 45.5027
6037339 7.35602 7.76982 15.1391 15.3801 0.358596 5.05861 45.6451
6037359 7.36465 7.67621 15.0656 15.3242 0.313783 5.0678 45.4306
6037369 7.38192 7.7511 14.9604 15.3335 0.4085 5.00614 45.427
6037379 7.38192 7.7511 14.9604 15.3335 0.4085 5.00614 45.427
6037389 7.32148 7.69493 15.0445 15.3149 0.354716 5.07197 45.3758
6037399 7.32148 7.69493 15.0445 15.3149 0.354716 5.07197 45.3758
6037419 7.28695 7.71366 15.0656 15.4452 0.442961 5.11197 45.5114
6037420 7.31285 7.7043 15.1286 15.4545 0.393286 5.12037 45.6003
6037429 7.31285 7.7043 15.1286 15.4545 0.393286 5.12037 45.6003
6037443 7.36465 7.68557 15.1707 15.4545 0.33102 5.11489 45.6755
6037449 7.30422 7.68557 15.2338 15.4545 0.329554 5.15516 45.6781
6037460 7.30422 7.68557 15.2338 15.4545 0.329554 5.15516 45.6781
6037470 7.28695 7.67621 15.2022 15.4918 0.371692 5.16814 45.6572
6037480 7.21788 7.55452 15.2233 15.5011 0.337651 5.25926 45.4967
6037490 7.21788 7.55452 15.2233 15.5011 0.337651 5.25926 45.4967
6037500 7.25241 7.5826 15.2758 15.4825 0.294363 5.23869 45.5933
6037520 7.26968 7.56388 15.2127 15.3987 0.264132 5.20779 45.445
6037530 7.25241 7.61068 15.2022 15.4266 0.320199 5.19842 45.4919
6037540 7.25241 7.61068 15.2022 15.4266 0.320199 5.19842 45.4919
6037552 7.27831 7.64813 15.2548 15.3801 0.27166 5.17163 45.5613
6037562 7.28695 7.62004 15.1917 15.4266 0.311914 5.17668 45.5253
6037570 7.28695 7.62004 15.1917 15.4266 0.311914 5.17668 45.5253
6037580 7.27831 7.64813 15.2968 15.3987 0.258461 5.1847 45.622
6037590 7.27831 7.64813 15.2968 15.3987 0.258461 5.1847 45.622
6037600 7.26968 7.59196 15.2443 15.4266 0.277063 5.20812 45.5325
6037611 7.31285 7.60132 15.3599 15.3242 0.138575 5.18768 45.5983
6037620 7.31285 7.60132 15.3599 15.3242 0.138575 5.18768 45.5983
6037630 7.31285 7.68557 15.3389 15.408 0.241455 5.16396 45.7453
6037651 7.25241 7.64813 15.3599 15.3335 0.202498 5.19572 45.594
6037662 7.31285 7.65749 15.3915 15.3056 0.141653 5.16563 45.6674
6037673 7.31285 7.65749 15.3915 15.3056 0.141653 5.16563 45.6674
6037683 7.26105 7.61068 15.381 15.2963 0.145426 5.205 45.549
6037691 7.26968 7.62004 15.4966 15.3056 0.0871867 5.22383 45.6919
6037703 7.26968 7.62004 15.4966 15.3056 0.0871867 5.22383 45.6919
6037711 7.30422 7.54515 15.4756 15.287 0.0286847 5.23323 45.6119
6037723 7.21788 7.53579 15.4966 15.3428 0.090003 5.29217 45.5931
6037731 7.21788 7.53579 15.4966 15.3428 0.090003 5.29217 45.5931
6037744 7.25241 7.51707 15.5702 15.3894 0.045836 5.31066 45.729
6037751 7.25241 7.51707 15.5702 15.3894 0.045836 5.31066 45.729
6037761 7.22651 7.47026 15.7069 15.3708 -0.0504419 5.36791 45.7744
6037773 7.17471 7.48899 15.7174 15.4266 0.0128359 5.39657 45.8077
6037786 7.17471 7.48899 15.7174 15.4266 0.0128359 5.39657 45.8077
6037792 7.15744 7.39537 15.7384 15.3987 -0.0556931 5.44462 45.6899
6037803 7.15744 7.39537 15.7384 15.3987 -0.0556931 5.44462 45.6899
6037813 7.08837 7.31112 15.7699 15.3987 -0.0814751 5.52002 45.5681
6037823 7.097 7.30176 15.8646 15.3614 -0.163485 5.53227 45.6248
6037833 7.097 7.30176 15.8646 15.3614 -0.163485 5.53227 45.6248
6037843 7.0193 7.2924 15.9382 15.4266 -0.130503 5.60017 45.6765
6037853 6.95886 7.1707 16.0328 15.3801 -0.24201 5.69248 45.5424
6037863 6.95886 7.1707 16.0328 15.3801 -0.24201 5.69248 45.5424
6037874 6.98476 7.15198 16.0328 15.4173 -0.245821 5.69682 45.5868
6037883 6.98476 7.15198 16.0328 15.4173 -0.245821 5.69682 45.5868
6037893 6.95886 7.05837 16.1589 15.4359 -0.341743 5.78058 45.6121
6037904 6.91569 7.06773 16.201 15.4545 -0.325602 5.80823 45.639
6037915 6.91569 7.06773 16.201 15.4545 -0.325602 5.80823 45.639
