1621293 3.63478 3.98846 9.12246 8.97248 0.198013 6.10757 25.7182
1621304 3.63478 3.98846 9.13292 8.99119 0.205797 6.11764 25.7474
1621323 3.69565 4.01648 9.19569 9.03797 0.157169 6.08279 25.9458
1621333 3.69565 4.01648 9.19569 9.03797 0.157169 6.08279 25.9458
1621344 3.55652 3.91374 9.112 9.01926 0.258264 6.24631 25.6015
1621356 3.6087 3.93242 9.14338 9.0754 0.248194 6.21761 25.7599
1621364 3.6087 3.93242 9.14338 9.0754 0.248194 6.21761 25.7599
1621374 3.56522 3.87637 9.14338 9.13154 0.290969 6.3189 25.7165
1621384 3.56522 3.85769 9.17477 9.12218 0.23317 6.34181 25.7199
1621394 3.56522 3.85769 9.17477 9.12218 0.23317 6.34181 25.7199
1621404 3.58261 3.83901 9.14338 9.16896 0.273937 6.34806 25.734
1621414 3.58261 3.83901 9.14338 9.16896 0.273937 6.34806 25.734
1621425 3.53043 3.82967 9.18523 9.11282 0.221008 6.39443 25.6582
1621434 3.53913 3.78297 9.17477 9.23445 0.294894 6.46321 25.7313
1621445 3.53913 3.78297 9.17477 9.23445 0.294894 6.46321 25.7313
1621454 3.53043 3.76429 9.15385 9.18767 0.261036 6.46358 25.6362
1621465 3.54783 3.75495 9.21662 9.2251 0.209364 6.49009 25.7445
1621474 3.54783 3.75495 9.21662 9.2251 0.209364 6.49009 25.7445
1621484 3.56522 3.73626 9.18523 9.27188 0.250101 6.49625 25.7586
1621495 3.56522 3.73626 9.18523 9.27188 0.250101 6.49625 25.7586
1621505 3.53913 3.72692 9.15385 9.17832 0.207302 6.4845 25.5982
1621514 3.6 3.80165 9.14338 9.12218 0.175753 6.34891 25.6672
1621524 3.6 3.80165 9.14338 9.12218 0.175753 6.34891 25.6672
1621534 3.65217 3.81099 9.17477 9.12218 0.103092 6.30846 25.7601
1621544 3.62609 3.82967 9.17477 9.17832 0.200638 6.33348 25.8088
1621554 3.62609 3.82967 9.17477 9.17832 0.200638 6.33348 25.8088
1621564 3.65217 3.72692 9.17477 9.1596 0.0579298 6.39078 25.7135
1621574 3.65217 3.72692 9.17477 9.1596 0.0579298 6.39078 25.7135
1621584 3.63478 3.76429 9.25846 9.13154 0.00249743 6.39278 25.7891
1621595 3.6087 3.78297 9.248 9.19703 0.119305 6.41725 25.8367
1621614 3.6 3.76429 9.18523 9.11282 0.0895083 6.39094 25.6623
1621625 3.5913 3.76429 9.15385 9.11282 0.128755 6.38766 25.6223
1621642 3.5913 3.70824 9.15385 9.14089 0.101569 6.44394 25.5943
1621651 3.6087 3.81099 9.18523 9.12218 0.135306 6.34801 25.7271
1621666 3.63478 3.80165 9.21662 9.14089 0.0883371 6.35096 25.7939
1621676 3.58261 3.78297 9.19569 9.1596 0.159669 6.40903 25.7209
1621686 3.58261 3.78297 9.19569 9.1596 0.159669 6.40903 25.7209
1621696 3.57391 3.78297 9.21662 9.15025 0.13867 6.42013 25.7237
1621706 3.6 3.72692 9.30031 9.19703 0.0228912 6.48833 25.8243
1621717 3.6 3.72692 9.30031 9.19703 0.0228912 6.48833 25.8243
1621726 3.62609 3.70824 9.23754 9.20638 0.0494599 6.46452 25.7783
1621738 3.62609 3.70824 9.23754 9.20638 0.0494599 6.46452 25.7783
1621747 3.61739 3.7456 9.32123 9.14089 -0.0504598 6.44671 25.8251
1621756 3.58261 3.6989 9.27938 9.16896 0.00570118 6.51005 25.7299
1621767 3.58261 3.6989 9.27938 9.16896 0.00570118 6.51005 25.7299
1621777 3.57391 3.73626 9.16431 9.10347 0.0992179 6.426 25.5779
1621787 3.52174 3.6522 9.18523 9.19703 0.139159 6.57863 25.5562
1621797 3.52174 3.6522 9.18523 9.19703 0.139159 6.57863 25.5562
1621807 3.53913 3.71758 9.15385 9.21574 0.234473 6.50477 25.6263
1621817 3.53913 3.71758 9.15385 9.21574 0.234473 6.50477 25.6263
1621827 3.54783 3.6522 9.19569 9.18767 0.0941545 6.55699 25.5834
1621838 3.64348 3.6989 9.21662 9.2251 0.061959 6.45708 25.7841
1621847 3.64348 3.6989 9.21662 9.2251 0.061959 6.45708 25.7841
1621857 3.58261 3.70824 9.248 9.25316 0.126779 6.51964 25.792
1621877 3.54783 3.6522 9.248 9.33737 0.187841 6.62314 25.7854
1621887 3.51304 3.66154 9.27938 9.26252 0.127962 6.63037 25.7165
1621898 3.51304 3.66154 9.27938 9.26252 0.127962 6.63037 25.7165
1621907 3.53913 3.59615 9.31077 9.23445 -0.0187799 6.66455 25.6805
1621917 3.55652 3.6522 9.32123 9.28123 0.0539303 6.6214 25.8112
1621927 3.55652 3.6522 9.32123 9.28123 0.0539303 6.6214 25.8112
1621937 3.52174 3.66154 9.37354 9.27188 0.0369132 6.65663 25.8287
1621947 3.52174 3.66154 9.37354 9.27188 0.0369132 6.65663 25.8287
1621957 3.51304 3.60549 9.32123 9.19703 -0.0309646 6.66994 25.6368
1621967 3.52174 3.56813 9.34215 9.19703 -0.0963122 6.70097 25.6291
1621978 3.52174 3.56813 9.34215 9.19703 -0.0963122 6.70097 25.6291
1621988 3.53913 3.57747 9.39446 9.17832 -0.173032 6.68925 25.6894
1621998 3.54783 3.56813 9.46769 9.20638 -0.233622 6.72243 25.79
1622018 3.54783 3.52143 9.39446 9.19703 -0.218068 6.73533 25.6607
1622028 3.51304 3.52143 9.43631 9.19703 -0.224888 6.77825 25.6678
1622038 3.51304 3.48407 9.43631 9.15025 -0.307852 6.79503 25.5837
1622048 3.54783 3.58681 9.47815 9.17832 -0.25285 6.70105 25.7911
1622058 3.54783 3.58681 9.47815 9.17832 -0.25285 6.70105 25.7911
1622069 3.54783 3.50275 9.45723 9.14089 -0.352277 6.75329 25.6487
1622078 3.51304 3.52143 9.45723 9.13154 -0.309592 6.76396 25.6232
1622099 3.57391 3.54011 9.54092 9.12218 -0.438903 6.72054 25.7771
1622109 3.57391 3.54011 9.54092 9.12218 -0.438903 6.72054 25.7771
1622119 3.58261 3.49341 9.49908 9.15025 -0.425681 6.7482 25.7253
1622130 3.55652 3.50275 9.53046 9.15025 -0.421511 6.77241 25.74
1622139 3.55652 3.50275 9.53046 9.15025 -0.421511 6.77241 25.74
1622149 3.5913 3.51209 9.49908 9.10347 -0.461787 6.71002 25.7059
1622159 3.6 3.52143 9.47815 9.09411 -0.450125 6.68501 25.6937
1622180 3.5913 3.56813 9.57231 9.0754 -0.503813 6.67738 25.8071
1622191 3.5913 3.56813 9.57231 9.0754 -0.503813 6.67738 25.8071
1622199 3.56522 3.54011 9.55138 9.0754 -0.486836 6.7162 25.7321
1622209 3.62609 3.59615 9.52 9.06604 -0.468735 6.60474 25.8083
1622221 3.62609 3.59615 9.52 9.06604 -0.468735 6.60474 25.8083
1622229 3.62609 3.57747 9.53046 9.09411 -0.469415 6.63289 25.8281
1622240 3.61739 3.57747 9.63508 9.04733 -0.606386 6.65886 25.8773
1622249 3.61739 3.57747 9.63508 9.04733 -0.606386 6.65886 25.8773
1622259 3.65217 3.55879 9.58277 8.97248 -0.682746 6.60416 25.7662
1622288 3.65217 3.55879 9.58277 8.97248 -0.682746 6.60416 25.7662
1622292 3.66957 3.55879 9.47815 9.00055 -0.572196 6.56455 25.7071
1622301 3.63478 3.6522 9.56185 8.97248 -0.553757 6.53376 25.8213
1622311 3.6 3.6989 9.52 8.95377 -0.453319 6.50391 25.7727
1622322 3.62609 3.58681 9.48862 8.90699 -0.606148 6.55019 25.6085
1622331 3.62609 3.58681 9.48862 8.90699 -0.606148 6.55019 25.6085
1622341 3.64348 3.62418 9.52 8.87892 -0.643231 6.50531 25.6666
1622351 3.64348 3.62418 9.52 8.87892 -0.643231 6.50531 25.6666
1622361 3.62609 3.59615 9.45723 8.87892 -0.594953 6.52266 25.5584
1622371 3.68696 3.68022 9.62462 8.87892 -0.727107 6.45693 25.8707
1622391 3.65217 3.61484 9.52 8.93506 -0.604816 6.52439 25.7221
1622402 3.71304 3.63352 9.58277 8.91635 -0.721543 6.47259 25.8457
1622412 3.71304 3.63352 9.58277 8.91635 -0.721543 6.47259 25.8457
1622421 3.69565 3.72692 9.60369 8.86957 -0.678542 6.40104 25.8958
1622431 3.69565 3.72692 9.60369 8.86957 -0.678542 6.40104 25.8958
1622441 3.70435 3.63352 9.56185 8.79472 -0.815314 6.43254 25.6944
1622451 3.70435 3.72692 9.53046 8.73858 -0.748341 6.32547 25.7003
1622462 3.70435 3.72692 9.53046 8.73858 -0.748341 6.32547 25.7003
1622471 3.70435 3.75495 9.42585 8.64502 -0.715066 6.23473 25.5302
1622481 3.76522 3.81099 9.49908 8.65438 -0.776273 6.16637 25.7297
1622492 3.76522 3.81099 9.49908 8.65438 -0.776273 6.16637 25.7297
1622503 3.78261 3.84835 9.43631 8.60759 -0.742915 6.08355 25.6749
1622514 3.78261 3.84835 9.43631 8.60759 -0.742915 6.08355 25.6749
1622522 3.73043 3.82033 9.44677 8.62631 -0.712779 6.15968 25.6238
1622534 3.74783 3.87637 9.46769 8.67309 -0.646284 6.1226 25.765
1622542 3.74783 3.87637 9.46769 8.67309 -0.646284 6.1226 25.765
1622553 3.74783 3.86703 9.46769 8.65438 -0.674236 6.12381 25.7369
1622562 3.76522 3.91374 9.40492 8.71051 -0.529081 6.06904 25.7944
1622572 3.76522 3.91374 9.40492 8.71051 -0.529081 6.06904 25.7944
1622582 3.78261 3.98846 9.44677 8.68244 -0.53906 5.99886 25.9003
1622592 3.78261 3.98846 9.44677 8.68244 -0.53906 5.99886 25.9003
1622604 3.8 3.9044 9.35262 8.71051 -0.52169 6.03011 25.7675
1622612 3.74783 3.93242 9.26892 8.71987 -0.354962 6.02392 25.669
1622622 3.74783 3.93242 9.26892 8.71987 -0.354962 6.02392 25.669
1622632 3.7913 3.96978 9.18523 8.72922 -0.270231 5.93174 25.6755
1622643 3.71304 3.96044 9.20615 8.75729 -0.19646 6.02059 25.6369
1622663 3.70435 4.02582 9.20615 8.76665 -0.114799 5.9775 25.703
1622684 3.74783 3.93242 9.21662 8.83214 -0.194219 6.04484 25.729
1622694 3.70435 3.97912 9.14338 8.82278 -0.0446677 6.01336 25.6496
1622706 3.70435 3.97912 9.14338 8.82278 -0.0446677 6.01336 25.6496
1622713 3.69565 3.97912 9.112 8.76665 -0.0605419 5.98973 25.5534
1622723 3.70435 3.9978 9.07015 8.80407 0.0267535 5.9657 25.5764
1622733 3.70435 3.9978 9.07015 8.80407 0.0267535 5.9657 25.5764
1622743 3.71304 4.03516 9.112 8.95377 0.158724 5.99533 25.814
1622764 3.66957 3.9511 9.12246 9.00055 0.155011 6.11938 25.7437
1622774 3.69565 3.9978 9.18523 9.00991 0.122473 6.08474 25.8886
1622785 3.69565 3.9978 9.18523 9.00991 0.122473 6.08474 25.8886
1622794 3.65217 3.9511 9.15385 9.01926 0.159392 6.15088 25.7764
1622804 3.66957 3.98846 9.112 9.06604 0.264105 6.10775 25.8361
1622824 3.69565 3.88571 9.05969 9.10347 0.227076 6.16546 25.7445
1622834 3.69565 3.88571 9.05969 9.10347 0.227076 6.16546 25.7445
1622846 3.65217 3.84835 9.01785 9.08475 0.25689 6.21139 25.6031
1622854 3.63478 3.89506 9.03877 9.04733 0.262368 6.18146 25.6159
1622874 3.66957 3.91374 9.07015 9.09411 0.260344 6.16425 25.7476
1622885 3.62609 3.89506 8.96554 9.12218 0.415492 6.18921 25.6089
1622895 3.62609 3.89506 8.96554 9.12218 0.415492 6.18921 25.6089
1622911 3.73043 3.96978 9.05969 9.04733 0.219885 6.04877 25.8072
1622921 3.73043 3.96978 9.05969 9.04733 0.219885 6.04877 25.8072
1622928 3.67826 3.9044 9.00738 9.11282 0.322509 6.14964 25.7029
1622936 3.64348 3.89506 9.08062 9.06604 0.230682 6.19508 25.6852
1622946 3.64348 3.89506 9.08062 9.06604 0.230682 6.19508 25.6852
1622956 3.66087 3.89506 9.10154 9.11282 0.238132 6.20391 25.7703
1622966 3.66087 3.86703 9.07015 9.1596 0.286919 6.23224 25.7577
1622987 3.62609 3.85769 9.16431 9.18767 0.246722 6.30998 25.8358
1622997 3.62609 3.85769 9.16431 9.18767 0.246722 6.30998 25.8358
1623007 3.62609 3.84835 9.13292 9.11282 0.196505 6.28182 25.7202
1623019 3.63478 3.83901 9.18523 9.24381 0.253645 6.34404 25.9028
1623029 3.63478 3.83901 9.18523 9.24381 0.253645 6.34404 25.9028
1623038 3.62609 3.80165 9.16431 9.12218 0.129727 6.33429 25.7142
1623047 3.65217 3.83901 9.12246 9.08475 0.145078 6.25488 25.6984
1623068 3.67826 3.7456 9.21662 9.10347 -0.04448 6.34881 25.7439
1623078 3.67826 3.7456 9.21662 9.10347 -0.04448 6.34881 25.7439
1623088 3.63478 3.78297 9.17477 9.1596 0.129136 6.35868 25.7521
1623099 3.63478 3.80165 9.20615 9.13154 0.0894755 6.3443 25.7741
1623108 3.63478 3.80165 9.20615 9.13154 0.0894755 6.3443 25.7741
1623118 3.5913 3.75495 9.18523 9.18767 0.161436 6.431 25.7192
1623128 3.61739 3.68956 9.25846 9.21574 0.0285536 6.49733 25.7812
1623138 3.61739 3.68956 9.25846 9.21574 0.0285536 6.49733 25.7812
1623148 3.55652 3.64286 9.26892 9.28123 0.0957727 6.61222 25.7495
1623159 3.55652 3.64286 9.26892 9.28123 0.0957727 6.61222 25.7495
1623168 3.53913 3.61484 9.20615 9.27188 0.13794 6.62691 25.632
1623179 3.53043 3.62418 9.33169 9.2251 -0.0124976 6.65202 25.7114
1623188 3.53043 3.62418 9.33169 9.2251 -0.0124976 6.65202 25.7114
1623198 3.5913 3.62418 9.23754 9.25316 0.0471652 6.57929 25.7062
1623208 3.58261 3.62418 9.35262 9.15025 -0.156361 6.59057 25.7096
1623218 3.58261 3.62418 9.35262 9.15025 -0.156361 6.59057 25.7096
1623228 3.61739 3.67088 9.28985 9.18767 -0.0472397 6.51401 25.7658
1623238 3.61739 3.67088 9.28985 9.18767 -0.0472397 6.51401 25.7658
1623248 3.57391 3.60549 9.20615 9.17832 0.00366271 6.57474 25.5639
1623258 3.58261 3.66154 9.31077 9.19703 -0.0337958 6.56085 25.7519
1623268 3.58261 3.66154 9.31077 9.19703 -0.0337958 6.56085 25.7519
1623278 3.66957 3.6989 9.30031 9.18767 -0.0805408 6.45072 25.8564
1623288 3.61739 3.6522 9.30031 9.24381 -0.0210091 6.55148 25.8137
1623299 3.61739 3.6522 9.30031 9.24381 -0.0210091 6.55148 25.8137
1623308 3.58261 3.67088 9.30031 9.21574 0.00359416 6.55574 25.7695
1623328 3.57391 3.57747 9.31077 9.17832 -0.125673 6.6327 25.6405
1623338 3.6087 3.72692 9.25846 9.1596 0.0188023 6.45487 25.7537
1623359 3.64348 3.6989 9.25846 9.13154 -0.0694677 6.43991 25.7324
1623368 3.65217 3.6989 9.23754 9.09411 -0.0941277 6.41321 25.6827
1623378 3.65217 3.6989 9.23754 9.09411 -0.0941277 6.41321 25.6827
1623389 3.66957 3.70824 9.31077 9.10347 -0.163446 6.41851 25.792
1623399 3.66957 3.70824 9.31077 9.10347 -0.163446 6.41851 25.792
1623409 3.66087 3.64286 9.28985 9.09411 -0.208023 6.47016 25.6877
1623420 3.67826 3.63352 9.35262 9.04733 -0.34034 6.46874 25.7117
1623429 3.67826 3.63352 9.35262 9.04733 -0.34034 6.46874 25.7117
1623439 3.70435 3.70824 9.28985 9.02862 -0.250025 6.35761 25.7311
1623452 3.70435 3.70824 9.28985 9.02862 -0.250025 6.35761 25.7311
1623459 3.63478 3.63352 9.32123 9.06604 -0.249903 6.50091 25.6556
1623469 3.69565 3.73626 9.34215 9.02862 -0.264432 6.35914 25.8027
1623491 3.68696 3.66154 9.44677 9.01926 -0.438634 6.46004 25.8145
1623501 3.69565 3.72692 9.42585 8.99119 -0.390272 6.38233 25.8396
1623511 3.69565 3.72692 9.42585 8.99119 -0.390272 6.38233 25.8396
1623521 3.74783 3.73626 9.43631 8.95377 -0.477409 6.32251 25.8742
1623531 3.73043 3.71758 9.36308 8.95377 -0.409627 6.3277 25.7649
1623541 3.73043 3.71758 9.36308 8.95377 -0.409627 6.3277 25.7649
1623550 3.73913 3.75495 9.39446 8.90699 -0.457114 6.28445 25.7955
1623569 3.73913 3.75495 9.39446 8.90699 -0.457114 6.28445 25.7955
1623575 3.67826 3.73626 9.34215 8.8415 -0.43231 6.31048 25.5982
1623582 3.76522 3.76429 9.33169 8.86021 -0.459164 6.21801 25.7214
1623592 3.76522 3.76429 9.33169 8.86021 -0.459164 6.21801 25.7214
1623602 3.73043 3.79231 9.41538 8.83214 -0.505786 6.24253 25.7703
1623612 3.73913 3.80165 9.39446 8.81343 -0.50344 6.21417 25.7487
1623622 3.73913 3.80165 9.39446 8.81343 -0.50344 6.21417 25.7487
1623632 3.76522 3.81099 9.35262 8.76665 -0.525574 6.15462 25.6955
1623642 3.76522 3.81099 9.35262 8.76665 -0.525574 6.15462 25.6955
1623656 3.70435 3.79231 9.33169 8.82278 -0.410263 6.23237 25.6511
1623662 3.74783 3.80165 9.37354 8.80407 -0.501071 6.19666 25.7271
1623673 3.74783 3.80165 9.37354 8.80407 -0.501071 6.19666 25.7271
1623682 3.73913 3.84835 9.37354 8.86021 -0.391257 6.1846 25.8212
1623692 3.73913 3.81099 9.35262 8.86957 -0.398871 6.21135 25.7723
1623702 3.73913 3.81099 9.35262 8.86957 -0.398871 6.21135 25.7723
1623714 3.81739 3.82033 9.39446 8.85085 -0.522225 6.14742 25.883
1623734 3.77391 3.84835 9.28985 8.76665 -0.436899 6.09506 25.6788
1623742 3.77391 3.79231 9.36308 8.82278 -0.506656 6.1857 25.7521
1623755 3.77391 3.79231 9.36308 8.82278 -0.506656 6.1857 25.7521
1623762 3.78261 3.81099 9.31077 8.776 -0.492966 6.1291 25.6804
1623774 3.74783 3.79231 9.31077 8.79472 -0.459698 6.17963 25.6456
1623793 3.72174 3.81099 9.35262 8.75729 -0.493391 6.18726 25.6426
1623803 3.72174 3.81099 9.35262 8.75729 -0.493391 6.18726 25.6426
1623814 3.76522 3.6989 9.34215 8.75729 -0.636823 6.24052 25.5636
1623824 3.73913 3.79231 9.39446 8.86957 -0.457171 6.24097 25.7955
1623835 3.73913 3.79231 9.39446 8.86957 -0.457171 6.24097 25.7955
1623845 3.75652 3.82967 9.36308 8.8415 -0.434682 6.17569 25.7908
1623854 3.73043 3.75495 9.33169 8.83214 -0.463021 6.2449 25.6492
1623864 3.73043 3.75495 9.33169 8.83214 -0.463021 6.2449 25.6492
1623876 3.77391 3.81099 9.39446 8.89763 -0.444169 6.20659 25.877
1623884 3.77391 3.81099 9.39446 8.89763 -0.444169 6.20659 25.877
1623894 3.72174 3.80165 9.39446 8.83214 -0.46836 6.23489 25.75
1623905 3.74783 3.76429 9.39446 8.86957 -0.493127 6.2569 25.7761
1623915 3.74783 3.76429 9.39446 8.86957 -0.493127 6.2569 25.7761
1623924 3.72174 3.80165 9.31077 8.79472 -0.42544 6.19346 25.6289
1623935 3.73043 3.77363 9.37354 8.82278 -0.493731 6.24053 25.7004
1623944 3.73043 3.77363 9.37354 8.82278 -0.493731 6.24053 25.7004
1623954 3.77391 3.87637 9.32123 8.8415 -0.365391 6.1088 25.813
1623964 3.77391 3.87637 9.32123 8.8415 -0.365391 6.1088 25.813
1623976 3.73913 3.85769 9.30031 8.8415 -0.330482 6.14542 25.7386
1623984 3.73913 3.88571 9.31077 8.78536 -0.368206 6.10666 25.721
1623994 3.73913 3.88571 9.31077 8.78536 -0.368206 6.10666 25.721
1624004 3.7913 3.82967 9.34215 8.80407 -0.484835 6.12712 25.7672
1624015 3.76522 3.83901 9.30031 8.83214 -0.383082 6.13612 25.7367
1624024 3.76522 3.83901 9.30031 8.83214 -0.383082 6.13612 25.7367
1624035 3.7913 3.78297 9.37354 8.83214 -0.533101 6.18586 25.7799
1624044 3.7913 3.78297 9.37354 8.83214 -0.533101 6.18586 25.7799
1624055 3.70435 3.81099 9.30031 8.79472 -0.38944 6.19653 25.6104
1624064 3.75652 3.85769 9.33169 8.72922 -0.488119 6.1032 25.6751
1624077 3.75652 3.85769 9.33169 8.72922 -0.488119 6.1032 25.6751
1624086 3.77391 3.9044 9.26892 8.76665 -0.361469 6.04183 25.7139
1624096 3.75652 3.87637 9.34215 8.82278 -0.387162 6.1238 25.7978
1624106 3.75652 3.87637 9.34215 8.82278 -0.387162 6.1238 25.7978
1624117 3.7913 3.85769 9.23754 8.80407 -0.357214 6.06794 25.6906
1624126 3.7913 3.85769 9.23754 8.80407 -0.357214 6.06794 25.6906
1624136 3.76522 3.88571 9.22708 8.76665 -0.331387 6.04968 25.6447
1624146 3.77391 3.89506 9.33169 8.776 -0.421453 6.07452 25.7767
1624156 3.77391 3.89506 9.33169 8.776 -0.421453 6.07452 25.7767
1624166 3.76522 3.9044 9.25846 8.76665 -0.343101 6.04531 25.6947
1624193 3.74783 3.96044 9.248 8.73858 -0.288779 6.00022 25.6948
1624212 3.8 3.91374 9.21662 8.8415 -0.253554 6.02074 25.7718
1624213 3.8 3.91374 9.21662 8.8415 -0.253554 6.02074 25.7718
1624216 3.74783 3.91374 9.22708 8.76665 -0.286996 6.04095 25.6553
1624226 3.78261 3.93242 9.16431 8.74794 -0.260037 5.96857 25.6273
1624237 3.78261 3.93242 9.16431 8.74794 -0.260037 5.96857 25.6273
1624247 3.76522 4.00714 9.17477 8.81343 -0.115889 5.94853 25.7606
1624257 3.77391 3.96044 9.18523 8.80407 -0.189157 5.97988 25.7237
1624267 3.77391 3.96044 9.18523 8.80407 -0.189157 5.97988 25.7237
1624277 3.7913 4.01648 9.23754 8.82278 -0.183213 5.94508 25.8681
1624291 3.7913 4.01648 9.23754 8.82278 -0.183213 5.94508 25.8681
1624297 3.71304 3.96978 9.15385 8.79472 -0.0998706 6.00772 25.6314
1624307 3.75652 3.96044 9.20615 8.79472 -0.201726 5.99812 25.7178
1624317 3.75652 3.96044 9.20615 8.79472 -0.201726 5.99812 25.7178
1624330 3.8087 3.91374 9.15385 8.8415 -0.201522 5.99172 25.7178
1624338 3.75652 3.94176 9.12246 8.75729 -0.175868 5.97083 25.578
1624358 3.8 3.94176 9.09108 8.85085 -0.0958458 5.95719 25.6837
1624371 3.8 3.94176 9.09108 8.85085 -0.0958458 5.95719 25.6837
1624380 3.87826 3.96978 9.10154 8.776 -0.227414 5.84798 25.7256
1624390 3.76522 3.96978 9.17477 8.776 -0.189018 5.96582 25.6858
1624401 3.76522 3.96978 9.17477 8.776 -0.189018 5.96582 25.6858
1624409 3.78261 4.00714 9.07015 8.79472 -0.049603 5.89082 25.6546
1624419 3.7913 3.98846 9.09108 8.80407 -0.0874862 5.90969 25.6749
1624431 3.7913 3.98846 9.09108 8.80407 -0.0874862 5.90969 25.6749
1624440 3.81739 4.04451 9.07015 8.776 -0.0651881 5.82556 25.7081
1624450 3.81739 4.04451 9.07015 8.776 -0.0651881 5.82556 25.7081
1624459 3.78261 4.01648 9.112 8.79472 -0.0811204 5.89806 25.7058
1624469 3.75652 4.06319 9.08062 8.75729 -0.0162318 5.85686 25.6576
1624479 3.75652 4.06319 9.08062 8.75729 -0.0162318 5.85686 25.6576
1624490 3.7913 4.08187 9.00738 8.71987 0.00297427 5.77378 25.6004
1624499 3.78261 4.04451 9.09108 8.71987 -0.106589 5.84122 25.6381
1624511 3.78261 4.04451 9.09108 8.71987 -0.106589 5.84122 25.6381
1624519 3.8 4.09121 9.08062 8.75729 -0.0312045 5.79889 25.7291
1624531 3.8 4.09121 9.08062 8.75729 -0.0312045 5.79889 25.7291
1624539 3.8087 4.04451 9.10154 8.73858 -0.123717 5.83046 25.6933
1624549 3.81739 4.09121 9.08062 8.70116 -0.102805 5.76471 25.6904
1624573 3.85217 4.10055 9.00738 8.64502 -0.111295 5.68227 25.6051
1624581 3.89565 4.24066 9.02831 8.57017 -0.109902 5.5152 25.7348
1624601 3.89565 4.23132 9.03877 8.46725 -0.230023 5.48847 25.633
1624612 3.89565 4.23132 9.03877 8.46725 -0.230023 5.48847 25.633
1624621 3.89565 4.19396 8.99692 8.4579 -0.235592 5.49937 25.5444
1624633 3.91304 4.21264 9.10154 8.41112 -0.381097 5.49196 25.6383
1624641 3.91304 4.21264 9.10154 8.41112 -0.381097 5.49196 25.6383
1624653 3.98261 4.26868 9.04923 8.42983 -0.323866 5.37951 25.7304
1624662 4 4.22198 9.08062 8.35498 -0.490749 5.38649 25.6576
1624682 4.04348 4.35275 9.01785 8.31756 -0.379904 5.21101 25.7316
1624694 4.04348 4.35275 8.96554 8.31756 -0.329752 5.19107 25.6793
1624702 3.98261 4.33407 8.96554 8.29884 -0.308079 5.24668 25.5811
1624716 4.0087 4.42747 8.976 8.28013 -0.269623 5.14938 25.6923
1624732 3.95652 4.39945 8.976 8.224 -0.302352 5.19097 25.556
1624742 4.05217 4.43681 8.98646 8.20528 -0.386028 5.08324 25.6807
1624752 4.05217 4.43681 8.98646 8.20528 -0.386028 5.08324 25.6807
1624763 3.96522 4.42747 8.976 8.17722 -0.329338 5.14399 25.5459
1624783 4 4.40879 9.02831 8.224 -0.385334 5.16941 25.6611
1624793 3.98261 4.49286 9.01785 8.26142 -0.238965 5.12748 25.7547
1624819 4 4.43681 8.98646 8.28949 -0.252949 5.15647 25.7128
1624828 3.97391 4.51154 8.95508 8.34562 -0.0696376 5.1279 25.7862
1624837 3.97391 4.51154 8.95508 8.34562 -0.0696376 5.1279 25.7862
1624846 4.02609 4.49286 8.90277 8.25206 -0.179107 5.04555 25.6738
1624857 4.0087 4.47418 8.86092 8.32691 -0.0667408 5.08652 25.6707
1624866 4.0087 4.47418 8.86092 8.32691 -0.0667408 5.08652 25.6707
1624874 4.04348 4.44615 8.84 8.32691 -0.107585 5.07314 25.6565
1624894 4 4.46484 8.85046 8.37369 -0.0116125 5.11464 25.689
1624904 4 4.49286 8.79815 8.34562 0.0393242 5.06166 25.6366
1624919 4 4.49286 8.79815 8.34562 0.0393242 5.06166 25.6366
1624926 4.08696 4.51154 8.73538 8.35498 0.0429928 4.95849 25.6889
1624937 4.03478 4.5022 8.73538 8.32691 0.0575662 4.99544 25.5993
1624946 4.03478 4.5022 8.73538 8.32691 0.0575662 4.99544 25.5993
1624956 4.09565 4.5489 8.72492 8.37369 0.0990748 4.926 25.7432
1624976 4.04348 4.51154 8.72492 8.32691 0.0683904 4.97727 25.6069
1624986 4.03478 4.45549 8.67262 8.37369 0.119233 5.02575 25.5366
1624998 4.03478 4.45549 8.67262 8.37369 0.119233 5.02575 25.5366
1625006 4.04348 4.58626 8.71446 8.31756 0.142118 4.91136 25.6618
1625016 4 4.57692 8.63077 8.33627 0.276408 4.92687 25.544
1625036 4 4.56758 8.568 8.31756 0.311494 4.90193 25.4531
1625046 4 4.56758 8.568 8.31756 0.311494 4.90193 25.4531
1625056 4.01739 4.58626 8.60985 8.29884 0.252694 4.88295 25.5123
1625066 4.09565 4.58626 8.59938 8.26142 0.149405 4.80307 25.5427
1625076 4.09565 4.58626 8.59938 8.26142 0.149405 4.80307 25.5427
1625087 4.10435 4.64231 8.568 8.33627 0.298458 4.77036 25.6509
1625103 4.12174 4.67967 8.55754 8.32691 0.318566 4.72033 25.6859
1625117 4.15652 4.65165 8.47385 8.37369 0.384879 4.70034 25.6557
1625138 4.17391 4.67967 8.36923 8.28013 0.408441 4.58522 25.5029
1625148 4.16522 4.68901 8.41108 8.28949 0.393474 4.6056 25.5548
1625158 4.16522 4.68901 8.41108 8.28949 0.393474 4.6056 25.5548
1625168 4.18261 4.67967 8.27508 8.3082 0.5209 4.55148 25.4456
1625178 4.22609 4.67033 8.32738 8.24271 0.352982 4.51986 25.4665
1625199 4.22609 4.65165 8.30646 8.32691 0.437078 4.56015 25.5111
1625208 4.22609 4.65165 8.30646 8.32691 0.437078 4.56015 25.5111
1625218 4.23478 4.61429 8.23323 8.37369 0.510651 4.57133 25.456
1625230 4.26957 4.60495 8.26462 8.39241 0.453526 4.57229 25.5315
1625238 4.26957 4.60495 8.26462 8.39241 0.453526 4.57229 25.5315
1625248 4.31304 4.69835 8.22277 8.31756 0.469729 4.41982 25.5517
1625258 4.36522 4.7544 8.10769 8.23335 0.505522 4.25446 25.4607
1625268 4.36522 4.7544 8.10769 8.23335 0.505522 4.25446 25.4607
1625278 4.49565 4.77308 8.10769 8.23335 0.393483 4.14235 25.6098
1625288 4.49565 4.77308 8.10769 8.23335 0.393483 4.14235 25.6098
1625298 4.43478 4.73571 8.01354 8.23335 0.512192 4.17611 25.4174
1625308 4.47826 4.7544 8.024 8.16786 0.412983 4.1058 25.4245
1625318 4.47826 4.7544 8.024 8.16786 0.412983 4.1058 25.4245
1625331 4.53913 4.77308 8.00308 8.11172 0.336838 4.01301 25.427
1625339 4.55652 4.78242 8.05538 8.1585 0.321895 4.03573 25.5528
1625348 4.55652 4.78242 8.05538 8.1585 0.321895 4.03573 25.5528
1625358 4.57391 4.8011 8.01354 8.21464 0.418198 4.01503 25.6032
1625368 4.57391 4.8011 8.01354 8.21464 0.418198 4.01503 25.6032
1625378 4.5913 4.81044 8.03446 8.14915 0.326183 3.97602 25.5854
1625388 4.58261 4.8011 8.05538 8.1585 0.314102 4.00244 25.5976
1625398 4.58261 4.8011 8.05538 8.1585 0.314102 4.00244 25.5976
1625409 4.58261 4.86648 8.01354 8.1585 0.418442 3.93598 25.6211
1625429 4.52174 4.74505 8.03446 8.13043 0.313869 4.06861 25.4317
1625441 4.53043 4.68901 8.12862 8.24271 0.266373 4.19206 25.5908
1625449 4.53043 4.68901 8.12862 8.24271 0.266373 4.19206 25.5908
1625459 4.49565 4.67967 8.11815 8.19593 0.256768 4.20102 25.4894
1625469 4.46087 4.65165 8.12862 8.25206 0.308147 4.27653 25.4932
1625488 4.46087 4.65165 8.12862 8.25206 0.308147 4.27653 25.4932
1625493 4.47826 4.62363 8.23323 8.24271 0.151345 4.32448 25.5778
1625501 4.42609 4.5489 8.26462 8.20528 0.0623733 4.41832 25.4449
1625511 4.42609 4.5489 8.26462 8.20528 0.0623733 4.41832 25.4449
1625521 4.42609 4.5489 8.35877 8.31756 0.0795275 4.50348 25.6513
1625531 4.42609 4.5489 8.35877 8.31756 0.0795275 4.50348 25.6513
1625543 4.36522 4.45549 8.39015 8.25206 -0.0469446 4.60758 25.4629
1625551 4.32174 4.55824 8.432 8.23335 0.0370443 4.5715 25.5453
1625572 4.35652 4.52088 8.44246 8.28013 0.00198185 4.5968 25.6
1625582 4.33043 4.51154 8.432 8.224 -0.0263765 4.59685 25.498
1625592 4.33043 4.51154 8.432 8.224 -0.0263765 4.59685 25.498
1625602 4.28696 4.42747 8.50523 8.29884 -0.0645339 4.75517 25.5185
1625612 4.28696 4.42747 8.50523 8.29884 -0.0645339 4.75517 25.5185
1625622 4.26957 4.44615 8.50523 8.33627 0.00745654 4.76917 25.5572
1625632 4.27826 4.43681 8.60985 8.39241 -0.0572473 4.83361 25.7173
1625642 4.27826 4.43681 8.60985 8.39241 -0.0572473 4.83361 25.7173
1625653 4.2 4.42747 8.54708 8.42983 0.107625 4.89141 25.6044
1625662 4.16522 4.41813 8.60985 8.41112 0.0529081 4.94308 25.6043
1625672 4.16522 4.41813 8.60985 8.41112 0.0529081 4.94308 25.6043
1625682 4.2087 4.36209 8.65169 8.4579 -0.0393346 4.98755 25.6804
1625692 4.2087 4.36209 8.65169 8.4579 -0.0393346 4.98755 25.6804
1625702 4.10435 4.43681 8.62031 8.37369 0.0840515 4.96541 25.5352
1625712 4.09565 4.39011 8.67262 8.42047 0.0413597 5.04753 25.5788
1625722 4.09565 4.39011 8.67262 8.42047 0.0413597 5.04753 25.5788
1625733 4.12174 4.44615 8.64123 8.48597 0.164574 4.99666 25.6951
1625742 4.08696 4.37143 8.67262 8.51403 0.122723 5.10524 25.645
1625754 4.08696 4.37143 8.67262 8.51403 0.122723 5.10524 25.645
1625762 4.07826 4.43681 8.64123 8.57953 0.288361 5.07406 25.7358
1625783 4.05217 4.37143 8.63077 8.5421 0.225216 5.12723 25.5965
1625795 4.09565 4.38077 8.65169 8.56081 0.18903 5.10108 25.6889
1625815 4.08696 4.37143 8.63077 8.51403 0.163788 5.08906 25.6032
1625823 4.06957 4.41813 8.57846 8.53275 0.295767 5.05306 25.5989
1625833 4.06957 4.41813 8.57846 8.53275 0.295767 5.05306 25.5989
1625843 4.09565 4.42747 8.57846 8.52339 0.27 5.0217 25.625
1625853 4.09565 4.42747 8.57846 8.52339 0.27 5.0217 25.625
1625864 4.05217 4.40879 8.58892 8.53275 0.293601 5.07808 25.5826
1625873 4.08696 4.39945 8.62031 8.58888 0.273457 5.09199 25.6956
1625884 4.08696 4.39945 8.62031 8.58888 0.273457 5.09199 25.6956
1625895 4.08696 4.40879 8.63077 8.56081 0.245142 5.07789 25.6873
1625904 4.06957 4.38077 8.568 8.53275 0.27 5.07831 25.5511
1625924 4.11304 4.39011 8.62031 8.59824 0.247845 5.08252 25.7217
1625937 4.11304 4.39011 8.62031 8.59824 0.247845 5.08252 25.7217
1625946 4.04348 4.36209 8.59938 8.55146 0.264788 5.13293 25.5564
1625956 4.07826 4.34341 8.68308 8.58888 0.166336 5.16682 25.6936
1625966 4.07826 4.34341 8.68308 8.58888 0.166336 5.16682 25.6936
1625976 4.04348 4.35275 8.59938 8.57017 0.27386 5.1475 25.5658
1625986 4.03478 4.31538 8.71446 8.59824 0.160134 5.23862 25.6629
1625996 4.03478 4.31538 8.71446 8.59824 0.160134 5.23862 25.6629
1626006 4.01739 4.2967 8.69354 8.63566 0.215882 5.27337 25.6433
1626017 4.01739 4.2967 8.69354 8.63566 0.215882 5.27337 25.6433
1626026 3.95652 4.27802 8.74585 8.67309 0.242406 5.37026 25.6535
1626039 3.9913 4.32473 8.72492 8.68244 0.282758 5.3014 25.7234
1626046 3.9913 4.32473 8.72492 8.68244 0.282758 5.3014 25.7234
1626057 4.05217 4.27802 8.64123 8.70116 0.278282 5.26565 25.6726
1626068 3.94783 4.27802 8.54708 8.6918 0.466251 5.30912 25.4647
1626086 3.98261 4.27802 8.59938 8.72922 0.415459 5.3155 25.5892
1626096 3.98261 4.27802 8.59938 8.72922 0.415459 5.3155 25.5892
1626111 3.91304 4.26868 8.57846 8.81343 0.57736 5.40215 25.5736
1626119 3.93913 4.33407 8.568 8.80407 0.615132 5.32196 25.6453
1626128 3.93913 4.33407 8.568 8.80407 0.615132 5.32196 25.6453
1626136 3.94783 4.34341 8.52615 8.8415 0.692669 5.30601 25.6589
1626146 3.92174 4.31538 8.49477 8.85085 0.732651 5.34061 25.5827
1626157 3.92174 4.31538 8.49477 8.85085 0.732651 5.34061 25.5827
1626167 3.93913 4.26868 8.53662 8.81343 0.593129 5.36561 25.5579
1626179 3.93913 4.26868 8.53662 8.81343 0.593129 5.36561 25.5579
1626187 3.93913 4.28736 8.57846 8.83214 0.586951 5.37353 25.6371
1626197 3.89565 4.25934 8.64123 8.86957 0.576669 5.46787 25.6658
1626207 3.89565 4.25934 8.64123 8.86957 0.576669 5.46787 25.6658
1626218 3.91304 4.27802 8.50523 8.80407 0.650793 5.36359 25.5004
1626228 3.94783 4.35275 8.568 8.83214 0.650823 5.31088 25.7007
1626248 3.94783 4.30604 8.54708 8.776 0.5739 5.31878 25.577
1626258 3.97391 4.33407 8.46338 8.73858 0.622648 5.22972 25.5099
1626269 3.97391 4.33407 8.46338 8.73858 0.622648 5.22972 25.5099
1626279 4.0087 4.38077 8.42154 8.78536 0.718749 5.1672 25.5964
1626291 4.0087 4.38077 8.42154 8.78536 0.718749 5.1672 25.5964
1626299 4.03478 4.35275 8.47385 8.73858 0.569043 5.17085 25.6
1626309 4.03478 4.38077 8.40062 8.79472 0.722432 5.14221 25.6109
1626319 4.03478 4.38077 8.40062 8.79472 0.722432 5.14221 25.6109
1626330 4.02609 4.38077 8.40062 8.71987 0.660014 5.12017 25.5273
1626339 4.06087 4.36209 8.432 8.76665 0.620443 5.13767 25.6216
1626349 4.06087 4.36209 8.432 8.76665 0.620443 5.13767 25.6216
1626359 4.09565 4.37143 8.47385 8.76665 0.552928 5.11916 25.7076
1626369 4.09565 4.37143 8.47385 8.76665 0.552928 5.11916 25.7076
1626380 4.11304 4.36209 8.44246 8.74794 0.540137 5.09356 25.6655
1626389 4.11304 4.37143 8.432 8.71051 0.523761 5.06773 25.627
1626401 4.11304 4.37143 8.432 8.71051 0.523761 5.06773 25.627
1626411 4.07826 4.38077 8.34831 8.8415 0.77557 5.10595 25.6488
1626421 4.03478 4.38077 8.36923 8.74794 0.709572 5.11204 25.5327
1626431 4.03478 4.38077 8.36923 8.74794 0.709572 5.11204 25.5327
1626441 4.07826 4.45549 8.35877 8.64502 0.649518 4.97505 25.5375
1626507 4.05217 4.40879 8.24369 8.64502 0.747487 4.9869 25.3497
1626513 4.18261 4.45549 8.28554 8.57017 0.546718 4.83506 25.4938
1626517 4.18261 4.45549 8.28554 8.57017 0.546718 4.83506 25.4938
1626517 4.2087 4.53956 8.17046 8.62631 0.769925 4.72607 25.545
1626518 4.2087 4.53956 8.17046 8.62631 0.769925 4.72607 25.545
1626520 4.2087 4.5489 8.17046 8.46725 0.627083 4.65447 25.3953
1626521 4.26087 4.5489 8.20185 8.52339 0.596803 4.64977 25.535
1626534 4.26087 4.5489 8.20185 8.52339 0.596803 4.64977 25.535
1626541 4.32174 4.56758 8.25415 8.50468 0.48382 4.60238 25.6482
1626551 4.26087 4.52088 8.23323 8.47661 0.493681 4.66512 25.4916
1626561 4.26087 4.52088 8.23323 8.47661 0.493681 4.66512 25.4916
1626571 4.31304 4.52088 8.22277 8.42983 0.406975 4.60165 25.4865
1626581 4.31304 4.52088 8.22277 8.42983 0.406975 4.60165 25.4865
1626591 4.25217 4.53956 8.296 8.49532 0.475615 4.69036 25.5831
1626601 4.30435 4.56758 8.45292 8.4579 0.260067 4.6769 25.7828
1626611 4.30435 4.56758 8.45292 8.4579 0.260067 4.6769 25.7828
1626621 4.24348 4.51154 8.45292 8.43919 0.247905 4.75907 25.6471
1626631 4.2087 4.47418 8.49477 8.48597 0.250041 4.84998 25.6636
1626641 4.2087 4.47418 8.49477 8.48597 0.250041 4.84998 25.6636
1626651 4.25217 4.48352 8.54708 8.44854 0.129032 4.8151 25.7313
1626661 4.25217 4.48352 8.54708 8.44854 0.129032 4.8151 25.7313
1626671 4.21739 4.49286 8.54708 8.40176 0.126806 4.81618 25.6591
1626681 4.21739 4.47418 8.53662 8.44854 0.164264 4.845 25.6767
1626701 4.15652 4.39011 8.54708 8.42047 0.10483 4.95073 25.5142
1626712 4.05217 4.38077 8.60985 8.46725 0.182283 5.0828 25.51
1626721 4.05217 4.38077 8.60985 8.46725 0.182283 5.0828 25.51
1626731 4.01739 4.38077 8.71446 8.42047 0.0679433 5.13262 25.5331
1626768 3.93043 4.31538 8.78769 8.4579 0.0540882 5.29577 25.4914
1626769 3.96522 4.36209 8.93415 8.59824 0.0589281 5.33944 25.8597
1626772 3.96522 4.36209 8.93415 8.59824 0.0589281 5.33944 25.8597
1626783 3.84348 4.25934 8.91323 8.58888 0.0893503 5.50634 25.6049
1626792 3.8 4.26868 8.96554 8.57017 0.0715852 5.54614 25.6044
1626802 3.8 4.26868 8.96554 8.57017 0.0715852 5.54614 25.6044
1626813 3.78261 4.39945 8.90277 8.62631 0.330967 5.45309 25.7111
1626822 3.78261 4.39945 8.90277 8.62631 0.330967 5.45309 25.7111
1626832 3.75652 4.31538 8.96554 8.70116 0.286028 5.59167 25.7386
1626842 3.7913 4.39945 8.86092 8.71051 0.444192 5.46189 25.7622
1626852 3.7913 4.39945 8.86092 8.71051 0.444192 5.46189 25.7622
1626862 3.71304 4.39945 8.95508 8.6918 0.410655 5.55199 25.7594
1626872 3.71304 4.32473 9.05969 8.75729 0.299054 5.67355 25.8548
1626882 3.71304 4.32473 9.05969 8.75729 0.299054 5.67355 25.8548
1626892 3.69565 4.34341 9.12246 8.67309 0.191972 5.66478 25.8346
1626902 3.69565 4.34341 9.12246 8.67309 0.191972 5.66478 25.8346
1626913 3.63478 4.25 9.17477 8.73858 0.173491 5.83098 25.7981
1626924 3.55652 4.23132 9.26892 8.72922 0.130978 5.93945 25.786
1626933 3.55652 4.23132 9.26892 8.72922 0.130978 5.93945 25.786
1626944 3.54783 4.17527 9.248 8.65438 0.0330001 5.95849 25.6255
1626953 3.52174 4.17527 9.40492 8.65438 -0.0941634 6.0348 25.7563
1626963 3.52174 4.17527 9.40492 8.61695 -0.130677 6.02176 25.7189
1626973 3.48696 4.22198 9.384 8.64502 -0.0038445 6.01451 25.738
1626993 3.46957 4.14725 9.46769 8.62631 -0.159174 6.11251 25.7108
1627004 3.49565 4.15659 9.47815 8.68244 -0.130525 6.10647 25.8128
1627013 3.49565 4.15659 9.47815 8.68244 -0.130525 6.10647 25.8128
1627024 3.46087 4.11923 9.60369 8.67309 -0.263222 6.20532 25.8569
1627033 3.4 4.09121 9.49908 8.65438 -0.149633 6.23653 25.6447
1627044 3.4 4.09121 9.49908 8.65438 -0.149633 6.23653 25.6447
1627053 3.42609 4.09121 9.58277 8.65438 -0.255559 6.2435 25.7544
1627065 3.42609 4.09121 9.58277 8.65438 -0.255559 6.2435 25.7544
1627074 3.43478 4.10989 9.55138 8.6918 -0.178841 6.22299 25.7879
1627086 3.45217 4.17527 9.56185 8.55146 -0.27902 6.11046 25.7408
1627106 3.45217 4.13791 9.56185 8.59824 -0.269775 6.15724 25.7502
1627114 3.4087 4.10989 9.56185 8.51403 -0.338566 6.18725 25.5945
1627127 3.4087 4.10989 9.56185 8.51403 -0.338566 6.18725 25.5945
1627136 3.4 4.15659 9.62462 8.55146 -0.307551 6.19027 25.7327
1627156 3.41739 4.09121 9.70831 8.41112 -0.608096 6.21048 25.628
1627167 3.46957 4.16593 9.62462 8.49532 -0.420225 6.10615 25.7554
1627189 3.52174 4.13791 9.59323 8.41112 -0.551298 6.04623 25.664
1627197 3.5913 4.24066 9.656 8.4579 -0.528744 5.94426 25.9459
1627209 3.5913 4.24066 9.656 8.4579 -0.528744 5.94426 25.9459
1627218 3.5913 4.2033 9.60369 8.43919 -0.534606 5.94966 25.8375
1627232 3.54783 4.21264 9.61415 8.42047 -0.51257 5.97449 25.7951
1627238 3.54783 4.21264 9.61415 8.42047 -0.51257 5.97449 25.7951
1627251 3.57391 4.14725 9.64554 8.35498 -0.697093 5.99457 25.7217
1627258 3.57391 4.14725 9.64554 8.35498 -0.697093 5.99457 25.7217
1627268 3.58261 4.19396 9.60369 8.34562 -0.628471 5.93143 25.7259
1627278 3.6087 4.23132 9.55138 8.34562 -0.566438 5.8614 25.737
1627289 3.6087 4.23132 9.55138 8.34562 -0.566438 5.8614 25.737
1627299 3.66087 4.2033 9.54092 8.27078 -0.708565 5.81141 25.6759
1627309 3.64348 4.16593 9.56185 8.224 -0.796433 5.84665 25.5953
1627319 3.64348 4.16593 9.56185 8.224 -0.796433 5.84665 25.5953
1627329 3.71304 4.19396 9.58277 8.224 -0.853494 5.77498 25.7138
1627341 3.71304 4.19396 9.58277 8.224 -0.853494 5.77498 25.7138
1627349 3.71304 4.2033 9.46769 8.13043 -0.829928 5.69194 25.5145
1627359 3.8087 4.2967 9.48862 8.13979 -0.836268 5.55088 25.7338
1627374 3.8087 4.2967 9.48862 8.13979 -0.836268 5.55088 25.7338
1627381 3.82609 4.28736 9.37354 8.13043 -0.762986 5.49852 25.6174
1627393 3.81739 4.2967 9.40492 8.09301 -0.812705 5.49576 25.612
1627409 3.81739 4.2967 9.40492 8.09301 -0.812705 5.49576 25.612
1627413 3.85217 4.33407 9.42585 8.08365 -0.837004 5.44249 25.6957
1627421 3.85217 4.33407 9.42585 8.08365 -0.837004 5.44249 25.6957
1627431 3.86087 4.38077 9.35262 8.13043 -0.682499 5.38864 25.7247
1627442 3.93043 4.36209 9.35262 8.10237 -0.794831 5.33787 25.7475
1627451 3.93043 4.36209 9.35262 8.10237 -0.794831 5.33787 25.7475
1627461 3.93043 4.38077 9.25846 8.06494 -0.724788 5.27346 25.6346
1627471 3.93043 4.39945 9.248 8.09301 -0.668043 5.26538 25.6709
1627481 3.93043 4.39945 9.248 8.09301 -0.668043 5.26538 25.6709
1627491 4.03478 4.46484 9.248 8.11172 -0.682756 5.1394 25.8593
1627501 4.03478 4.46484 9.248 8.11172 -0.682756 5.1394 25.8593
1627511 3.93913 4.44615 9.12246 8.09301 -0.51017 5.17379 25.6008
1627521 4.0087 4.5022 9.12246 8.08365 -0.530101 5.07168 25.717
1627531 4.0087 4.5022 9.12246 8.08365 -0.530101 5.07168 25.717
1627542 4.06087 4.5022 8.93415 8.06494 -0.418474 4.9503 25.5622
1627552 4.07826 4.61429 8.88185 7.96203 -0.375734 4.78806 25.5364
1627562 4.07826 4.61429 8.88185 7.96203 -0.375734 4.78806 25.5364
1627572 4.1913 4.68901 8.80862 7.89653 -0.404893 4.58747 25.5855
1627584 4.1913 4.68901 8.80862 7.89653 -0.404893 4.58747 25.5855
1627592 4.22609 4.74505 8.59938 7.7749 -0.301349 4.38135 25.3454
1627604 4.27826 4.83846 8.58892 7.70006 -0.323418 4.23463 25.4057
1627612 4.27826 4.83846 8.58892 7.70006 -0.323418 4.23463 25.4057
1627624 4.4 4.90385 8.52615 7.66263 -0.352725 4.05113 25.4926
1627632 4.45217 4.92253 8.48431 7.59714 -0.409348 3.95194 25.4561
1627645 4.45217 4.92253 8.48431 7.59714 -0.409348 3.95194 25.4561
1627651 4.51304 5.06264 8.47385 7.67199 -0.245188 3.83151 25.7215
1627661 4.51304 5.06264 8.47385 7.67199 -0.245188 3.83151 25.7215
1627671 4.46957 5.0533 8.40062 7.74684 -0.0682205 3.87096 25.6703
1627682 4.51304 5.1467 8.34831 7.65327 -0.0597894 3.70704 25.6613
1627702 4.5913 5.17473 8.30646 7.61585 -0.104319 3.59479 25.6883
1627712 4.53043 5.1467 8.17046 7.62521 0.0696957 3.60298 25.4728
1627723 4.53043 5.1467 8.17046 7.62521 0.0696957 3.60298 25.4728
1627733 4.6 5.17473 8.14954 7.60649 0.0310212 3.51418 25.5308
1627753 4.54783 5.1467 8.04492 7.59714 0.149086 3.52111 25.3366
1627763 4.57391 5.19341 7.98215 7.64392 0.276899 3.46079 25.3934
1627773 4.57391 5.19341 7.98215 7.64392 0.276899 3.46079 25.3934
1627783 4.64348 5.13736 7.96123 7.55971 0.0912666 3.40298 25.3018
1627793 4.70435 5.25879 7.92985 7.58778 0.208372 3.26981 25.4808
1627803 4.70435 5.25879 7.92985 7.58778 0.208372 3.26981 25.4808
1627814 4.70435 5.23077 8.00308 7.63456 0.15437 3.34488 25.5728
1627823 4.70435 5.23077 8.00308 7.63456 0.15437 3.34488 25.5728
1627833 4.62609 5.27747 7.97169 7.59714 0.271699 3.33612 25.4724
1627843 4.73043 5.29615 7.94031 7.61585 0.235766 3.24217 25.5827
1627854 4.73043 5.29615 7.94031 7.61585 0.235766 3.24217 25.5827
1627864 4.74783 5.30549 7.80431 7.51293 0.262406 3.11222 25.3706
1627874 4.73043 5.3522 7.752 7.48487 0.350153 3.05352 25.3195
1627884 4.73043 5.3522 7.752 7.48487 0.350153 3.05352 25.3195
1627894 4.82609 5.46429 7.72062 7.48487 0.394621 2.89171 25.4959
1627904 4.82609 5.46429 7.72062 7.48487 0.394621 2.89171 25.4959
1627914 4.8087 5.45495 7.63692 7.47551 0.477651 2.86616 25.3761
1627924 4.87826 5.53901 7.65785 7.4568 0.450122 2.75971 25.5319
1627934 4.87826 5.53901 7.65785 7.4568 0.450122 2.75971 25.5319
1627945 4.89565 5.52967 7.53231 7.41937 0.513342 2.67547 25.377
1627956 4.93913 5.52967 7.54277 7.31646 0.359511 2.60014 25.328
1627974 4.96522 5.52967 7.62646 7.32581 0.259167 2.62744 25.4472
1627984 4.96522 5.52967 7.62646 7.32581 0.259167 2.62744 25.4472
1627996 4.90435 5.50165 7.64738 7.26968 0.216791 2.67211 25.3231
1628004 4.93043 5.52967 7.60554 7.34452 0.332761 2.65049 25.4102
1628017 4.93043 5.52967 7.60554 7.34452 0.332761 2.65049 25.4102
1628031 4.95652 5.54835 7.67877 7.3913 0.297523 2.67754 25.5749
1628039 4.89565 5.41758 7.67877 7.38195 0.221792 2.80651 25.374
1628048 4.89565 5.41758 7.67877 7.38195 0.221792 2.80651 25.374
1628059 4.91304 5.45495 7.77292 7.41002 0.175136 2.82668 25.5509
1628066 4.91304 5.45495 7.77292 7.41002 0.175136 2.82668 25.5509
1628076 4.84348 5.38022 7.78338 7.40066 0.151548 2.92845 25.4077
1628086 4.86087 5.43626 7.83569 7.47551 0.2101 2.93697 25.6083
1628096 4.86087 5.43626 7.83569 7.47551 0.2101 2.93697 25.6083
1628106 4.86957 5.50165 7.76246 7.41002 0.273687 2.81944 25.5437
1628116 4.85217 5.40824 7.76246 7.36324 0.154456 2.87477 25.3861
1628126 4.85217 5.40824 7.76246 7.36324 0.154456 2.87477 25.3861
1628136 4.86087 5.41758 7.86708 7.44744 0.133899 2.95163 25.593
1628157 4.84348 5.38022 7.87754 7.40066 0.0586867 2.97302 25.5019
1628168 4.81739 5.3522 7.84615 7.48487 0.170112 3.03606 25.5006
1628178 4.81739 5.3522 7.84615 7.48487 0.170112 3.03606 25.5006
1628187 4.77391 5.30549 7.97169 7.50358 0.0620902 3.16725 25.5547
1628197 4.69565 5.24011 7.97169 7.55971 0.130048 3.2958 25.4672
1628207 4.69565 5.24011 7.97169 7.55971 0.130048 3.2958 25.4672
1628217 4.76522 5.26813 7.96123 7.55971 0.0992 3.22114 25.5543
1628228 4.76522 5.26813 7.96123 7.55971 0.0992 3.22114 25.5543
1628237 4.73913 5.1467 8.024 7.57843 -0.0372738 3.36425 25.4883
1628250 4.66957 5.12802 8.18092 7.6907 -0.0309393 3.54941 25.6692
1628257 4.66957 5.12802 8.18092 7.6907 -0.0309393 3.54941 25.6692
1628270 4.67826 5.16538 8.08677 7.65327 0.0524044 3.45712 25.5837
1628278 4.58261 5.11868 8.21231 7.71877 0.0414819 3.64566 25.6324
1628290 4.58261 5.11868 8.21231 7.71877 0.0414819 3.64566 25.6324
1628298 4.57391 5.13736 8.13908 7.81233 0.230587 3.64739 25.6627
1628311 4.57391 5.13736 8.13908 7.81233 0.230587 3.64739 25.6627
1628318 4.48696 5.09066 8.21231 7.68134 0.0713915 3.71951 25.4713
1628328 4.48696 5.01593 8.17046 7.68134 0.0393033 3.75606 25.3547
1628338 4.48696 5.01593 8.17046 7.68134 0.0393033 3.75606 25.3547
1628348 4.54783 4.99725 8.13908 7.66263 -0.0266492 3.70262 25.3468
1628358 4.45217 5.06264 8.23323 7.68134 0.057587 3.77502 25.4294
1628367 4.45217 5.06264 8.23323 7.68134 0.057587 3.77502 25.4294
1628378 4.53913 5.0533 8.19138 7.79362 0.113773 3.74896 25.5774
1628399 4.51304 4.99725 8.19138 7.83104 0.121284 3.82576 25.5327
1628408 4.54783 5.12802 8.28554 7.9246 0.211754 3.78639 25.886
1628420 4.54783 5.12802 8.28554 7.9246 0.211754 3.78639 25.886
1628429 4.55652 5.11868 8.20185 7.87782 0.231156 3.73005 25.7549
1628442 4.54783 5.1 8.12862 7.88718 0.302699 3.72198 25.6636
1628449 4.54783 5.1 8.12862 7.88718 0.302699 3.72198 25.6636
1628459 4.49565 5.09066 8.14954 7.76555 0.20687 3.72261 25.5014
1628472 4.49565 5.09066 8.14954 7.76555 0.20687 3.72261 25.5014
1628479 4.44348 4.99725 8.16 7.8404 0.23011 3.86756 25.4411
1628489 4.44348 5.06264 8.16 7.82168 0.275469 3.81098 25.4878
1628501 4.44348 5.06264 8.16 7.82168 0.275469 3.81098 25.4878
1628511 4.48696 5.10934 8.09723 7.8404 0.357908 3.72524 25.5339
1628521 4.53043 5.12802 8.09723 7.86846 0.359836 3.69216 25.6242
1628531 4.53043 5.12802 8.09723 7.86846 0.359836 3.69216 25.6242
1628541 4.54783 5.13736 8.00308 7.84975 0.427023 3.62262 25.538
1628551 4.54783 5.13736 8.00308 7.84975 0.427023 3.62262 25.538
1628561 4.55652 5.12802 7.888 7.80297 0.479275 3.55053 25.3755
1628571 4.65217 5.20275 7.86708 7.70941 0.386244 3.37471 25.4314
1628582 4.65217 5.20275 7.86708 7.70941 0.386244 3.37471 25.4314
1628592 4.67826 5.16538 7.72062 7.74684 0.507033 3.33281 25.3111
1628601 4.76522 5.21209 7.50092 7.72812 0.668553 3.12525 25.2064
1628613 4.76522 5.21209 7.50092 7.72812 0.668553 3.12525 25.2064
1628621 4.86087 5.31484 7.42769 7.72812 0.744525 2.94896 25.3315
1628633 4.86087 5.31484 7.42769 7.72812 0.744525 2.94896 25.3315
1628641 4.94783 5.28681 7.33354 7.81233 0.805515 2.90256 25.3805
1628651 4.93043 5.33352 7.36492 7.86846 0.888941 2.9235 25.4973
1628662 4.93043 5.33352 7.36492 7.86846 0.888941 2.9235 25.4973
1628671 4.91304 5.27747 7.26031 7.99009 1.07525 2.98332 25.4409
1628689 4.86957 5.22143 7.38585 8.0743 1.01787 3.152 25.5511
1628696 4.86957 5.22143 7.38585 8.0743 1.01787 3.152 25.5511
1628702 4.85217 5.20275 7.39631 8.10237 1.03374 3.19549 25.5536
1628722 4.81739 5.1467 7.39631 8.11172 1.02536 3.26471 25.4721
1628732 4.76522 5.1467 7.29169 8.09301 1.16893 3.24517 25.2966
1628743 4.76522 5.1467 7.29169 8.09301 1.16893 3.24517 25.2966
1628753 4.86087 5.10934 7.30215 8.08365 1.01551 3.20374 25.356
1628763 4.83478 5.18407 7.27077 8.12108 1.1802 3.1717 25.4107
1628783 4.88696 5.19341 7.27077 8.08365 1.1002 3.11034 25.4348
1628795 4.90435 5.15604 7.208 8.02752 1.05868 3.06875 25.2959
1628803 4.90435 5.15604 7.208 8.02752 1.05868 3.06875 25.2959
1628813 4.93043 5.15604 7.32308 8.08365 0.967106 3.13039 25.4932
1628823 4.93043 5.15604 7.32308 8.08365 0.967106 3.13039 25.4932
1628833 4.87826 5.16538 7.26031 8.05559 1.06705 3.1185 25.3595
1628843 4.93043 5.12802 7.30215 7.99009 0.873277 3.09683 25.3507
1628853 4.93043 5.12802 7.30215 7.99009 0.873277 3.09683 25.3507
1628863 5.04348 5.20275 7.26031 7.98074 0.862882 2.9396 25.4873
1628873 5.04348 5.20275 7.26031 7.98074 0.862882 2.9396 25.4873
1628883 5.0087 5.15604 7.208 7.94331 0.871643 2.95459 25.3161
1628895 5.13913 5.21209 7.16615 7.8404 0.736657 2.75379 25.3578
1628904 5.13913 5.21209 7.16615 7.8404 0.736657 2.75379 25.3578
1628914 5.16522 5.24011 7.10338 7.81233 0.773898 2.67192 25.321
1628925 5.24348 5.25879 7.08246 7.70006 0.62578 2.53922 25.2848
1628934 5.24348 5.25879 7.08246 7.70006 0.62578 2.53922 25.2848
1628946 5.24348 5.28681 7.11385 7.74684 0.665909 2.55822 25.391
1628954 5.24348 5.28681 7.11385 7.74684 0.665909 2.55822 25.391
1628966 5.2 5.34286 7.072 7.74684 0.806034 2.529 25.3617
1628974 5.2087 5.31484 7.17662 7.73748 0.655529 2.58902 25.4376
1628987 5.2087 5.31484 7.17662 7.73748 0.655529 2.58902 25.4376
1628996 5.2 5.37088 7.072 7.70006 0.788125 2.4866 25.3429
1629003 5.28696 5.38022 7.13477 7.6907 0.636649 2.44676 25.4926
1629014 5.28696 5.38022 7.13477 7.6907 0.636649 2.44676 25.4926
1629024 5.32174 5.31484 7.13477 7.61585 0.466946 2.43078 25.3872
1629034 5.32174 5.31484 7.13477 7.61585 0.466946 2.43078 25.3872
1629044 5.26957 5.27747 7.08246 7.57843 0.499716 2.44795 25.2079
1629054 5.33043 5.30549 7.10338 7.63456 0.498781 2.42495 25.3739
1629064 5.33043 5.30549 7.10338 7.63456 0.498781 2.42495 25.3739
1629074 5.26087 5.33352 7.208 7.63456 0.490633 2.50512 25.437
1629084 5.25217 5.26813 7.19754 7.57843 0.392196 2.52349 25.2963
1629094 5.25217 5.26813 7.19754 7.57843 0.392196 2.52349 25.2963
1629106 5.26957 5.33352 7.208 7.541 0.391442 2.45301 25.3521
1629124 5.23478 5.26813 7.28123 7.46615 0.216109 2.52144 25.2503
1629134 5.31304 5.27747 7.344 7.53165 0.149289 2.52401 25.4662
1629144 5.31304 5.27747 7.344 7.53165 0.149289 2.52401 25.4662
1629154 5.33043 5.31484 7.31262 7.43808 0.108159 2.42485 25.396
1629164 5.33913 5.31484 7.22892 7.41937 0.164169 2.36797 25.3023
1629174 5.33913 5.31484 7.22892 7.41937 0.164169 2.36797 25.3023
1629184 5.41739 5.27747 7.26031 7.37259 -0.0272766 2.33225 25.3278
1629194 5.41739 5.27747 7.26031 7.37259 -0.0272766 2.33225 25.3278
1629204 5.45217 5.31484 7.26031 7.3071 -0.0893518 2.25014 25.3344
1629216 5.46087 5.32418 7.32308 7.37259 -0.0855327 2.30211 25.4807
1629226 5.46087 5.32418 7.32308 7.37259 -0.0855327 2.30211 25.4807
1629236 5.48696 5.25879 7.33354 7.38195 -0.1765 2.3387 25.4612
1629257 5.48696 5.22143 7.33354 7.32581 -0.269294 2.33621 25.3677
1629266 5.56522 5.24945 7.32308 7.3071 -0.325944 2.24928 25.4448
1629278 5.56522 5.24945 7.32308 7.3071 -0.325944 2.24928 25.4448
1629286 5.50435 5.26813 7.37538 7.34452 -0.261919 2.32271 25.4924
1629298 5.49565 5.24011 7.36492 7.27903 -0.336327 2.30983 25.3797
1629311 5.49565 5.24011 7.36492 7.27903 -0.336327 2.30983 25.3797
1629321 5.46087 5.27747 7.35446 7.20418 -0.329758 2.26527 25.297
1629329 5.46087 5.27747 7.35446 7.20418 -0.329758 2.26527 25.297
1629337 5.53913 5.26813 7.344 7.11062 -0.499149 2.16573 25.2619
1629346 5.49565 5.25879 7.39631 7.13869 -0.488818 2.24237 25.2894
1629356 5.49565 5.25879 7.39631 7.13869 -0.488818 2.24237 25.2894
1629366 5.4087 5.22143 7.33354 7.19483 -0.323926 2.32421 25.1585
1629376 5.49565 5.30549 7.37538 7.1574 -0.402761 2.20947 25.3339
1629386 5.49565 5.30549 7.37538 7.1574 -0.402761 2.20947 25.3339
1629396 5.46957 5.3522 7.35446 7.1574 -0.310285 2.1849 25.3336
1629406 5.46957 5.3522 7.35446 7.1574 -0.310285 2.1849 25.3336
1629416 5.44348 5.23077 7.39631 7.20418 -0.400434 2.33014 25.2747
1629427 5.41739 5.24011 7.40677 7.23225 -0.347675 2.36091 25.2965
1629447 5.37391 5.19341 7.51138 7.27903 -0.407037 2.49811 25.3577
1629457 5.4087 5.19341 7.54277 7.33517 -0.414923 2.51717 25.48
1629467 5.4087 5.19341 7.54277 7.33517 -0.414923 2.51717 25.48
1629477 5.41739 5.27747 7.58462 7.33517 -0.380023 2.47412 25.6146
1629487 5.41739 5.27747 7.58462 7.33517 -0.380023 2.47412 25.6146
1629497 5.35652 5.1467 7.51138 7.3071 -0.408843 2.55626 25.3217
1629507 5.38261 5.24011 7.616 7.41937 -0.330429 2.57968 25.6581
1629533 5.34783 5.1467 7.55323 7.34452 -0.403498 2.60112 25.3923
1629537 5.36522 5.15604 7.55323 7.33517 -0.420348 2.57804 25.4097
1629557 5.32174 5.16538 7.59508 7.40066 -0.344123 2.65391 25.4829
1629568 5.32174 5.16538 7.59508 7.40066 -0.344123 2.65391 25.4829
1629577 5.24348 5.11868 7.59508 7.38195 -0.333403 2.73185 25.3392
1629590 5.2087 5.1 7.63692 7.44744 -0.293565 2.82105 25.3931
1629598 5.2087 5.1 7.63692 7.44744 -0.293565 2.82105 25.3931
1629611 5.14783 5.1 7.64738 7.51293 -0.17935 2.90015 25.4081
1629618 5.14783 5.06264 7.73108 7.48487 -0.325842 2.95292 25.4264
1629638 5.13043 5.02527 7.79385 7.53165 -0.360422 3.04329 25.4812
1629648 5.13043 5.02527 7.79385 7.53165 -0.360422 3.04329 25.4812
1629658 5.0087 4.92253 7.82523 7.57843 -0.328572 3.24006 25.3349
1629668 4.9913 5.00659 7.81477 7.61585 -0.180535 3.2047 25.4285
1629678 4.9913 5.00659 7.81477 7.61585 -0.180535 3.2047 25.4285
1629688 4.96522 5.04396 7.81477 7.65327 -0.0812054 3.21397 25.4772
1629698 4.97391 4.95989 7.81477 7.64392 -0.182018 3.26369 25.3925
1629718 4.90435 4.98791 7.82523 7.70006 -0.0409275 3.32429 25.4175
1629728 4.90435 4.98791 7.82523 7.70006 -0.0409275 3.32429 25.4175
1629740 4.93043 5.04396 7.84615 7.70006 -0.0319123 3.27489 25.5206
1629749 4.93043 5.0533 7.84615 7.64392 -0.0778973 3.24235 25.4738
1629769 4.9913 5.02527 7.85662 7.70006 -0.119841 3.24954 25.5732
1629779 4.93043 5.03462 7.86708 7.70941 -0.0523522 3.29548 25.5415
1629789 4.93043 5.03462 7.86708 7.70941 -0.0523522 3.29548 25.5415
1629799 4.96522 5.0533 7.82523 7.70941 -0.0271425 3.23803 25.5532
1629821 4.93043 5.03462 7.85662 7.68134 -0.0696883 3.2778 25.503
1629831 4.97391 5.08132 7.80431 7.66263 -0.0335678 3.18059 25.5222
1629851 4.93913 5.03462 7.87754 7.59714 -0.181656 3.2424 25.4484
1629861 4.89565 4.99725 7.86708 7.63456 -0.128883 3.31296 25.3945
1629871 4.89565 4.99725 7.86708 7.63456 -0.128883 3.31296 25.3945
1629881 4.96522 5.00659 7.90892 7.70006 -0.163689 3.30551 25.5808
1629891 4.96522 5.00659 7.90892 7.70006 -0.163689 3.30551 25.5808
1629901 4.85217 4.98791 7.91938 7.68134 -0.100531 3.3965 25.4408
1629911 4.91304 5.04396 7.89846 7.65327 -0.111994 3.28989 25.5087
1629923 4.91304 5.04396 7.89846 7.65327 -0.111994 3.28989 25.5087
1629931 4.93043 5.03462 7.82523 7.63456 -0.0850409 3.24176 25.4248
1629943 4.93043 5.02527 7.85662 7.52229 -0.236323 3.21094 25.3346
1629951 4.93043 5.02527 7.85662 7.52229 -0.236323 3.21094 25.3346
1629963 4.88696 5.02527 7.80431 7.58778 -0.0772685 3.24837 25.3043
1629984 4.89565 5.01593 7.81477 7.59714 -0.096108 3.25803 25.3235
1629991 4.81739 4.98791 7.81477 7.6907 0.0458807 3.37811 25.3108
1630005 4.81739 4.98791 7.81477 7.6907 0.0458807 3.37811 25.3108
1630011 4.89565 5.07198 7.78338 7.67199 0.0638485 3.23786 25.423
1630021 4.85217 5.07198 7.92985 7.70941 -0.000616908 3.35349 25.5634
1630031 4.85217 5.07198 7.92985 7.70941 -0.000616908 3.35349 25.5634
1630041 4.85217 5.09066 7.89846 7.79362 0.130332 3.36411 25.6349
1630053 4.85217 5.09066 7.89846 7.79362 0.130332 3.36411 25.6349
1630061 4.83478 5.06264 7.84615 7.83104 0.207961 3.38995 25.5746
1630071 4.86957 5.07198 7.87754 7.82168 0.142893 3.36828 25.6408
1630081 4.86957 5.07198 7.87754 7.82168 0.142893 3.36828 25.6408
1630091 4.77391 4.99725 7.85662 7.76555 0.130221 3.45622 25.3933
1630103 4.74783 4.94121 7.89846 7.84975 0.142187 3.57301 25.4373
1630121 4.68696 4.86648 7.98215 7.90589 0.101471 3.73481 25.4415
1630131 4.68696 4.86648 7.98215 7.90589 0.101471 3.73481 25.4415
1630141 4.66087 4.79176 8.04492 8.02752 0.111148 3.89018 25.5251
1630151 4.62609 4.81044 8.09723 8.09301 0.175723 3.95312 25.6268
1630162 4.62609 4.81044 8.09723 8.09301 0.175723 3.95312 25.6268
1630172 4.5913 4.71703 8.14954 8.11172 0.0859559 4.07882 25.5696
1630182 4.5913 4.71703 8.14954 8.11172 0.0859559 4.07882 25.5696
1630193 4.52174 4.68901 8.21231 8.12108 0.0744224 4.18255 25.5441
1630202 4.54783 4.67967 8.21231 8.13979 0.0579834 4.1779 25.5796
1630215 4.54783 4.67967 8.21231 8.13979 0.0579834 4.1779 25.5796
1630222 4.53043 4.60495 8.09723 8.18657 0.16115 4.21832 25.4192
1630235 4.51304 4.64231 8.10769 8.13979 0.158802 4.1878 25.4028
1630242 4.51304 4.64231 8.10769 8.13979 0.158802 4.1878 25.4028
1630252 4.52174 4.68901 8.14954 8.16786 0.181752 4.17577 25.5281
1630272 4.46957 4.65165 8.21231 8.14915 0.11667 4.26186 25.4827
1630282 4.51304 4.66099 8.24369 8.19593 0.0977814 4.25491 25.6137
1630302 4.52174 4.61429 8.26462 8.17722 0.00503361 4.28445 25.5779
1630312 4.51304 4.57692 8.23323 8.20528 0.0351876 4.31785 25.5285
1630324 4.51304 4.57692 8.23323 8.20528 0.0351876 4.31785 25.5285
1630333 4.55652 4.64231 8.21231 8.19593 0.0677615 4.2231 25.6071
1630344 4.55652 4.64231 8.21231 8.19593 0.0677615 4.2231 25.6071
1630353 4.46957 4.55824 8.30646 8.25206 0.0334948 4.41489 25.5863
1630365 4.47826 4.64231 8.34831 8.25206 0.0659019 4.36209 25.7209
1630373 4.47826 4.64231 8.34831 8.25206 0.0659019 4.36209 25.7209
1630384 4.44348 4.53956 8.37969 8.20528 -0.0765845 4.45983 25.568
1630393 4.4087 4.52088 8.33785 8.28949 0.0624359 4.51801 25.5569
1630406 4.4087 4.52088 8.33785 8.28949 0.0624359 4.51801 25.5569
1630413 4.42609 4.52088 8.40062 8.32691 0.0205338 4.54569 25.6745
1630433 4.3913 4.45549 8.40062 8.35498 0.0181168 4.63363 25.6024
1630443 4.36522 4.44615 8.44246 8.36434 0.00274181 4.6815 25.6182
1630464 4.35652 4.42747 8.45292 8.32691 -0.0538468 4.69169 25.5638
1630476 4.32174 4.39011 8.50523 8.35498 -0.0800475 4.77965 25.5721
1630484 4.32174 4.39011 8.50523 8.35498 -0.0800475 4.77965 25.5721
1630494 4.31304 4.42747 8.50523 8.35498 -0.034979 4.7575 25.6007
1630504 4.34783 4.42747 8.50523 8.38305 -0.0414342 4.74192 25.6636
1630514 4.34783 4.42747 8.50523 8.38305 -0.0414342 4.74192 25.6636
1630525 4.34783 4.39011 8.51569 8.35498 -0.115612 4.76367 25.6086
1630534 4.34783 4.39011 8.51569 8.35498 -0.115612 4.76367 25.6086
1630544 4.24348 4.39945 8.46338 8.26142 -0.0453234 4.77883 25.3677
1630554 4.30435 4.39011 8.52615 8.27078 -0.166345 4.76777 25.4914
1630567 4.30435 4.39011 8.52615 8.27078 -0.166345 4.76777 25.4914
1630575 4.22609 4.30604 8.54708 8.32691 -0.137964 4.92511 25.4061
1630584 4.22609 4.30604 8.54708 8.32691 -0.137964 4.92511 25.4061
1630594 4.27826 4.26868 8.63077 8.35498 -0.279415 4.95765 25.5327
1630613 4.21739 4.32473 8.63077 8.43919 -0.082238 4.99442 25.6121
1630616 4.21739 4.32473 8.63077 8.43919 -0.082238 4.99442 25.6121
1630626 4.1913 4.2967 8.68308 8.47661 -0.098516 5.07161 25.6477
1630636 4.26957 4.24066 8.78769 8.37369 -0.431319 5.0549 25.6716
1630646 4.26957 4.24066 8.78769 8.37369 -0.431319 5.0549 25.6716
1630656 4.2087 4.27802 8.75631 8.36434 -0.314991 5.05749 25.6074
1630666 4.2087 4.27802 8.75631 8.36434 -0.314991 5.05749 25.6074
1630676 4.24348 4.26868 8.704 8.35498 -0.316584 5.01355 25.5711
1630686 4.29565 4.2967 8.72492 8.34562 -0.368477 4.95552 25.6629
1630698 4.29565 4.2967 8.72492 8.34562 -0.368477 4.95552 25.6629
1630706 4.23478 4.32473 8.71446 8.35498 -0.262922 4.98066 25.6289
1630720 4.27826 4.2967 8.67262 8.3082 -0.338449 4.93383 25.5558
1630726 4.27826 4.2967 8.67262 8.3082 -0.338449 4.93383 25.5558
1630736 4.24348 4.34341 8.704 8.3082 -0.28895 4.93688 25.5991
1630756 4.21739 4.28736 8.68308 8.29884 -0.308262 4.98918 25.4867
1630766 4.26957 4.26868 8.77723 8.34562 -0.421347 5.01807 25.6611
1630787 4.30435 4.34341 8.74585 8.28013 -0.415458 4.89502 25.6737
1630797 4.25217 4.2967 8.78769 8.34562 -0.386979 5.01384 25.6822
1630807 4.25217 4.2967 8.78769 8.34562 -0.386979 5.01384 25.6822
1630817 4.24348 4.35275 8.74585 8.3082 -0.320052 4.94604 25.6503
1630827 4.24348 4.35275 8.74585 8.3082 -0.320052 4.94604 25.6503
1630837 4.23478 4.26868 8.75631 8.27078 -0.442249 5.0079 25.5305
1630847 4.17391 4.22198 8.80862 8.33627 -0.415298 5.13825 25.5408
1630857 4.17391 4.22198 8.80862 8.33627 -0.415298 5.13825 25.5408
1630867 4.23478 4.2967 8.78769 8.28949 -0.425915 5.00555 25.6087
1630877 4.24348 4.24066 8.80862 8.28013 -0.519399 5.04711 25.5729
1630897 4.26087 4.24066 8.94462 8.35498 -0.590909 5.11493 25.8011
1630917 4.15652 4.26868 8.93415 8.40176 -0.407815 5.18847 25.7611
1630930 4.14783 4.14725 8.976 8.38305 -0.57839 5.29971 25.6541
1630951 4.11304 4.17527 9.01785 8.49532 -0.445995 5.36298 25.8015
1630958 4.15652 4.12857 9.03877 8.40176 -0.646202 5.33832 25.7256
1630978 4.11304 4.14725 8.94462 8.4579 -0.44082 5.34366 25.6628
1630988 4.11304 4.14725 8.94462 8.4579 -0.44082 5.34366 25.6628
1630998 4.09565 4.08187 8.94462 8.43919 -0.507812 5.40247 25.5613
1631013 4.07826 4.09121 8.96554 8.44854 -0.49255 5.42025 25.5835
1631019 4.07826 4.09121 8.96554 8.44854 -0.49255 5.42025 25.5835
1631029 4.10435 4.11923 9.00738 8.38305 -0.594844 5.36827 25.614
1631040 4.08696 4.17527 8.976 8.4579 -0.418141 5.35392 25.6961
1631060 4.11304 4.14725 9.02831 8.43919 -0.539219 5.36804 25.7278
1631079 4.06087 4.10989 8.96554 8.44854 -0.457278 5.41922 25.5848
1631089 4.03478 4.14725 9.112 8.51403 -0.470296 5.48898 25.8081
1631101 4.03478 4.14725 9.112 8.51403 -0.470296 5.48898 25.8081
1631111 4.03478 4.16593 9.03877 8.5421 -0.354435 5.45747 25.7816
1631122 4.02609 4.11923 9.08062 8.55146 -0.422865 5.52039 25.7774
1631131 4.02609 4.11923 9.08062 8.55146 -0.422865 5.52039 25.7774
1631142 4.03478 4.15659 9.10154 8.51403 -0.451133 5.47771 25.8069
1631151 4.03478 4.15659 9.10154 8.51403 -0.451133 5.47771 25.8069
1631161 4.0087 4.13791 9.09108 8.5421 -0.407061 5.51977 25.7798
1631171 4.0087 4.16593 8.96554 8.55146 -0.249927 5.45452 25.6916
1631181 4.0087 4.16593 8.96554 8.55146 -0.249927 5.45452 25.6916
1631191 3.9913 4.07253 9.02831 8.51403 -0.422801 5.55248 25.6062
1631202 3.96522 4.10055 9.00738 8.58888 -0.275864 5.57078 25.662
1631228 3.97391 4.18462 8.98646 8.53275 -0.236598 5.46817 25.6777
1631249 3.94783 4.18462 9.02831 8.53275 -0.251789 5.50447 25.6935
1631252 3.94783 4.10055 9.02831 8.56081 -0.306943 5.58211 25.6375
1631253 4.05217 4.2033 8.96554 8.60759 -0.200185 5.41125 25.8286
1631262 4.05217 4.2033 8.96554 8.60759 -0.200185 5.41125 25.8286
1631273 4.06957 4.2033 8.96554 8.4579 -0.363778 5.34157 25.6963
1631282 4.04348 4.26868 8.87138 8.41112 -0.229602 5.25715 25.5947
1631292 4.04348 4.26868 8.87138 8.41112 -0.229602 5.25715 25.5947
1631304 4.06087 4.25 8.80862 8.41112 -0.204036 5.23423 25.5306
1631313 4.04348 4.24066 8.80862 8.46725 -0.141025 5.27683 25.56
1631322 4.04348 4.24066 8.80862 8.46725 -0.141025 5.27683 25.56
1631334 4.0087 4.23132 8.73538 8.50468 -0.0079304 5.29829 25.4801
1631343 4.0087 4.23132 8.73538 8.50468 -0.0079304 5.29829 25.4801
1631356 4.03478 4.23132 8.87138 8.59824 -0.0744209 5.36425 25.7357
1631363 3.9913 4.25934 8.91323 8.66373 0.017944 5.41648 25.8276
1631377 3.9913 4.25934 8.91323 8.66373 0.017944 5.41648 25.8276
1631383 3.93913 4.23132 8.96554 8.68244 0.00880659 5.50626 25.8184
1631396 3.93913 4.23132 8.94462 8.66373 0.0109613 5.49166 25.7788
1631417 3.96522 4.23132 8.92369 8.71987 0.0602514 5.48393 25.8401
1631423 3.96522 4.23132 8.92369 8.71987 0.0602514 5.48393 25.8401
1631433 3.86087 4.13791 8.95508 8.73858 0.0589103 5.66015 25.6924
1631443 3.86087 4.15659 8.88185 8.6918 0.103235 5.60127 25.5911
1631463 3.91304 4.23132 8.88185 8.61695 0.0520408 5.47189 25.6432
1631473 3.91304 4.16593 8.88185 8.66373 0.0339299 5.54152 25.6246
1631484 3.91304 4.16593 8.88185 8.66373 0.0339299 5.54152 25.6246
1631494 3.86087 4.15659 8.976 8.67309 -0.00700206 5.6289 25.6665
1631514 3.84348 4.17527 9.01785 8.6918 0.00559092 5.64992 25.7284
1631526 3.82609 4.12857 9.03877 8.71987 -0.0159606 5.71921 25.7133
1631534 3.82609 4.12857 9.03877 8.71987 -0.0159606 5.71921 25.7133
1631545 3.81739 4.07253 9.08062 8.6918 -0.130229 5.77646 25.6623
1631554 3.78261 4.12857 9.112 8.76665 0.000593066 5.79732 25.7898
1631576 3.81739 4.13791 9.13292 8.70116 -0.107843 5.74584 25.7894
1631589 3.81739 4.13791 9.13292 8.70116 -0.107843 5.74584 25.7894
1631597 3.85217 4.06319 9.09108 8.68244 -0.19232 5.75628 25.6889
1631606 3.77391 4.08187 9.08062 8.68244 -0.088039 5.80077 25.6188
1631616 3.77391 4.08187 9.08062 8.68244 -0.088039 5.80077 25.6188
1631631 3.82609 4.14725 9.07015 8.67309 -0.0737861 5.6986 25.7166
1631636 3.86957 4.04451 9.15385 8.66373 -0.306213 5.77315 25.7316
1631646 3.86957 4.04451 9.15385 8.66373 -0.306213 5.77315 25.7316
1631657 3.84348 4.08187 9.05969 8.55146 -0.264175 5.68939 25.5365
1631677 3.82609 4.09121 9.02831 8.55146 -0.2076 5.68446 25.4971
1631687 3.94783 4.13791 9.112 8.47661 -0.433607 5.55197 25.6743
1631698 3.94783 4.13791 9.112 8.47661 -0.433607 5.55197 25.6743
1631708 3.94783 4.13791 9.10154 8.51403 -0.386573 5.56188 25.7013
1631718 3.9913 4.12857 9.09108 8.53275 -0.408898 5.53763 25.7437
1631731 3.9913 4.12857 9.09108 8.53275 -0.408898 5.53763 25.7437
1631738 4.05217 4.22198 9.05969 8.40176 -0.474176 5.35482 25.7356
1631748 3.9913 4.22198 9.07015 8.39241 -0.435308 5.40349 25.6758
1631760 3.9913 4.22198 9.07015 8.39241 -0.435308 5.40349 25.6758
1631769 4.06087 4.17527 9.17477 8.36434 -0.675096 5.41389 25.7753
1631782 4.06087 4.17527 9.17477 8.36434 -0.675096 5.41389 25.7753
1631789 3.9913 4.16593 9.21662 8.38305 -0.639574 5.49897 25.7569
1631799 3.93913 4.18462 9.18523 8.28949 -0.635055 5.47941 25.5985
1631819 3.95652 4.22198 9.22708 8.40176 -0.542346 5.49282 25.8073
1631830 4 4.19396 9.20615 8.28949 -0.703309 5.4312 25.6896
1631841 4 4.19396 9.20615 8.28949 -0.703309 5.4312 25.6896
1631851 3.94783 4.16593 9.22708 8.34562 -0.645615 5.52369 25.6865
1631861 3.94783 4.16593 9.22708 8.34562 -0.645615 5.52369 25.6865
1631870 3.89565 4.13791 9.17477 8.28949 -0.630467 5.54794 25.4978
1631890 3.95652 4.21264 9.22708 8.28013 -0.672632 5.45524 25.6764
1631892 3.95652 4.21264 9.22708 8.28013 -0.672632 5.45524 25.6764
1631901 3.97391 4.10989 9.17477 8.29884 -0.723808 5.51101 25.5574
1631911 3.86957 4.15659 9.26892 8.35498 -0.611027 5.6127 25.6501
1631921 3.86957 4.15659 9.26892 8.35498 -0.611027 5.6127 25.6501
1631931 3.94783 4.18462 9.32123 8.35498 -0.706604 5.54684 25.8087
1631942 3.94783 4.18462 9.32123 8.35498 -0.706604 5.54684 25.8087
1631952 3.93913 4.11923 9.22708 8.39241 -0.637293 5.58524 25.6778
1631961 3.90435 4.15659 9.33169 8.4579 -0.601101 5.64513 25.8505
1631973 3.90435 4.15659 9.33169 8.4579 -0.601101 5.64513 25.8505
1631981 3.88696 4.12857 9.26892 8.44854 -0.56228 5.65535 25.733
1631991 3.86087 4.07253 9.22708 8.52339 -0.478928 5.73341 25.6839
1632001 3.86087 4.07253 9.22708 8.52339 -0.478928 5.73341 25.6839
1632011 3.88696 4.13791 9.23754 8.52339 -0.449076 5.66362 25.7858
1632021 3.88696 4.13791 9.23754 8.52339 -0.449076 5.66362 25.7858
1632031 3.8087 4.03516 9.248 8.60759 -0.402671 5.84355 25.6995
1632042 3.83478 3.9978 9.21662 8.60759 -0.434585 5.84151 25.6568
1632052 3.83478 3.9978 9.21662 8.60759 -0.434585 5.84151 25.6568
1632062 3.82609 3.96978 9.25846 8.61695 -0.4848 5.88958 25.6713
1632072 3.81739 3.96978 9.20615 8.70116 -0.34308 5.90797 25.6945
1632083 3.81739 3.96978 9.20615 8.70116 -0.34308 5.90797 25.6945
1632092 3.8087 3.92308 9.28985 8.71051 -0.451724 5.98586 25.7321
1632102 3.8087 3.92308 9.28985 8.71051 -0.451724 5.98586 25.7321
1632112 3.76522 3.86703 9.25846 8.66373 -0.482219 6.04001 25.5544
1632122 3.83478 3.91374 9.25846 8.76665 -0.400467 5.98088 25.7736
1632132 3.83478 3.91374 9.25846 8.76665 -0.400467 5.98088 25.7736
1632143 3.74783 3.88571 9.33169 8.72922 -0.452024 6.08733 25.6945
1632153 3.76522 3.86703 9.28985 8.74794 -0.428607 6.08036 25.67
1632166 3.76522 3.86703 9.28985 8.74794 -0.428607 6.08036 25.67
1632172 3.73043 3.9044 9.32123 8.79472 -0.342275 6.10532 25.7508
1632183 3.73043 3.9044 9.32123 8.79472 -0.342275 6.10532 25.7508
1632193 3.78261 3.84835 9.33169 8.85085 -0.402017 6.13143 25.8135
1632203 3.70435 3.84835 9.35262 8.82278 -0.374909 6.19325 25.7281
1632213 3.70435 3.84835 9.35262 8.82278 -0.374909 6.19325 25.7281
1632223 3.71304 3.83901 9.35262 8.85085 -0.364771 6.20338 25.7555
1632233 3.71304 3.82033 9.30031 8.90699 -0.277801 6.22007 25.7407
1632243 3.71304 3.82033 9.30031 8.90699 -0.277801 6.22007 25.7407
1632254 3.73913 3.84835 9.32123 8.85085 -0.35051 6.1635 25.7596
1632275 3.68696 3.82967 9.28985 8.86021 -0.27947 6.21434 25.6667
1632284 3.70435 3.83901 9.26892 8.86957 -0.257666 6.1883 25.6818
1632294 3.70435 3.83901 9.26892 8.86957 -0.257666 6.1883 25.6818
1632304 3.70435 3.89506 9.25846 8.8415 -0.220101 6.12888 25.6994
1632316 3.73043 3.80165 9.248 8.94441 -0.225827 6.21606 25.7245
1632324 3.73043 3.80165 9.248 8.94441 -0.225827 6.21606 25.7245
1632337 3.73913 3.85769 9.27938 8.89763 -0.25529 6.15752 25.7738
1632344 3.73913 3.85769 9.27938 8.89763 -0.25529 6.15752 25.7738
1632353 3.70435 3.83901 9.248 8.97248 -0.136678 6.21634 25.7638
1632363 3.66087 3.84835 9.21662 8.93506 -0.0916556 6.22101 25.6609
1632373 3.66087 3.84835 9.21662 8.93506 -0.0916556 6.22101 25.6609
1632384 3.70435 3.9044 9.16431 8.96313 -0.00110418 6.13068 25.7362
1632394 3.68696 3.80165 9.20615 8.89763 -0.189342 6.22168 25.5924
1632414 3.69565 3.82967 9.25846 8.95377 -0.165784 6.22839 25.7376
1632436 3.69565 3.82967 9.15385 9.02862 0.00855029 6.21824 25.7078
1632449 3.73913 3.81099 9.20615 9.03797 -0.0933558 6.21884 25.7942
1632456 3.73913 3.81099 9.20615 9.03797 -0.0933558 6.21884 25.7942
1632470 3.68696 3.80165 9.19569 8.98184 -0.0965878 6.2469 25.6661
1632476 3.67826 3.80165 9.21662 9.05669 -0.0354737 6.28663 25.7532
1632486 3.67826 3.80165 9.21662 9.05669 -0.0354737 6.28663 25.7532
1632495 3.66087 3.82033 9.23754 9.0754 -0.00259727 6.29895 25.7941
1632519 3.69565 3.79231 9.21662 9.04733 -0.0705078 6.27681 25.7519
1632528 3.66087 3.77363 9.21662 9.02862 -0.0732481 6.31475 25.6797
1632536 3.66087 3.77363 9.21662 9.02862 -0.0732481 6.31475 25.6797
1632546 3.68696 3.79231 9.12246 9.0754 0.0567526 6.26156 25.6771
1632557 3.64348 3.77363 9.10154 9.06604 0.0924885 6.30288 25.5847
1632567 3.64348 3.77363 9.10154 9.06604 0.0924885 6.30288 25.5847
1632578 3.73043 3.75495 9.14338 8.99119 -0.124592 6.2349 25.62
1632597 3.66087 3.71758 9.13292 9.08475 0.00834465 6.35207 25.5961
1632607 3.73913 3.77363 9.16431 9.10347 -0.025548 6.25764 25.7805
1632617 3.73913 3.77363 9.16431 9.10347 -0.025548 6.25764 25.7805
1632627 3.8 3.77363 9.20615 9.10347 -0.124657 6.22178 25.8832
1632637 3.75652 3.79231 9.17477 9.00991 -0.125396 6.19961 25.7335
1632657 3.8087 3.83901 9.18523 8.98184 -0.167614 6.11241 25.8148
1632669 3.8087 3.83901 9.18523 8.98184 -0.167614 6.11241 25.8148
1632678 3.76522 3.78297 9.10154 8.97248 -0.108603 6.16214 25.6222
1632688 3.7913 3.87637 9.18523 8.96313 -0.132705 6.08963 25.816
1632698 3.7913 3.87637 9.18523 8.96313 -0.132705 6.08963 25.816
1632709 3.74783 3.82033 9.08062 8.98184 -0.025627 6.14166 25.6306
1632719 3.84348 3.80165 9.12246 8.90699 -0.250541 6.06689 25.6746
1632731 3.84348 3.80165 9.12246 8.90699 -0.250541 6.06689 25.6746
1632738 3.8 3.94176 9.03877 8.90699 0.00971258 5.95854 25.6875
1632748 3.8 3.94176 9.03877 8.90699 0.00971258 5.95854 25.6875
1632758 3.8 3.85769 9.02831 8.94441 -0.025557 6.03679 25.6304
1632768 3.81739 3.9044 9.15385 8.87892 -0.182414 6.00534 25.7546
1632779 3.81739 3.9044 9.15385 8.87892 -0.182414 6.00534 25.7546
1632788 3.86957 3.89506 9.09108 8.8415 -0.218011 5.93525 25.6972
1632798 3.83478 3.88571 9.05969 8.81343 -0.1908 5.95029 25.5936
1632808 3.83478 3.88571 9.05969 8.81343 -0.1908 5.95029 25.5936
1632818 3.86957 3.9978 9.10154 8.80407 -0.164156 5.84231 25.773
1632828 3.86957 3.9978 9.10154 8.80407 -0.164156 5.84231 25.773
1632838 3.82609 3.86703 9.15385 8.76665 -0.337955 5.98942 25.6136
1632848 3.86957 3.94176 9.13292 8.776 -0.276752 5.8889 25.7203
1632859 3.86957 3.94176 9.13292 8.776 -0.276752 5.8889 25.7203
1632868 3.87826 3.98846 9.09108 8.68244 -0.290979 5.79566 25.6402
1632878 3.90435 3.93242 9.16431 8.71987 -0.404698 5.85947 25.7209
1632889 3.90435 3.93242 9.16431 8.71987 -0.404698 5.85947 25.7209
1632899 3.94783 3.96978 9.14338 8.64502 -0.463328 5.75982 25.706
1632909 3.94783 3.96978 9.14338 8.64502 -0.463328 5.75982 25.706
1632919 3.90435 3.98846 9.20615 8.64502 -0.463235 5.80235 25.744
1632929 3.93913 3.9511 9.09108 8.63566 -0.432767 5.75976 25.617
1632939 3.93913 3.9511 9.09108 8.63566 -0.432767 5.75976 25.617
1632950 3.91304 3.97912 9.18523 8.58888 -0.516506 5.77525 25.6663
1632959 3.88696 4.01648 9.112 8.43919 -0.533584 5.68526 25.4546
1632969 3.88696 4.01648 9.112 8.43919 -0.533584 5.68526 25.4546
1632979 4.02609 4.17527 9.08062 8.46725 -0.450666 5.44473 25.7492
1633000 4.01739 4.10055 9.14338 8.31756 -0.725862 5.47893 25.5789
1633011 4.0087 4.12857 9.18523 8.32691 -0.719745 5.48251 25.6494
1633032 3.9913 4.11923 9.13292 8.24271 -0.747748 5.45301 25.4862
1633039 4.03478 4.16593 9.16431 8.31756 -0.696582 5.42069 25.6826
1633051 4.03478 4.16593 9.16431 8.31756 -0.696582 5.42069 25.6826
1633061 4.04348 4.12857 9.22708 8.31756 -0.801453 5.46683 25.7167
1633071 4.04348 4.12857 9.22708 8.31756 -0.801453 5.46683 25.7167
1633081 4.07826 4.05385 9.22708 8.3082 -0.918765 5.4952 25.6674
1633091 4.03478 4.10989 9.21662 8.3082 -0.811574 5.4813 25.6695
1633101 4.03478 4.10989 9.21662 8.3082 -0.811574 5.4813 25.6695
1633111 4.10435 4.12857 9.14338 8.34562 -0.751826 5.39778 25.7219
1633121 4.07826 4.08187 9.12246 8.37369 -0.726102 5.45833 25.6563
1633131 4.07826 4.08187 9.12246 8.37369 -0.726102 5.45833 25.6563
1633142 4.06087 4.06319 9.248 8.36434 -0.856128 5.53008 25.7364
1633150 4.06087 4.06319 9.248 8.36434 -0.856128 5.53008 25.7364
1633169 4.09565 4.08187 9.16431 8.36434 -0.791401 5.45654 25.7062
1633171 4.06087 4.10989 9.20615 8.37369 -0.760604 5.48089 25.7506
1633181 4.06087 4.10989 9.20615 8.37369 -0.760604 5.48089 25.7506
1633190 4.02609 4.08187 9.22708 8.3082 -0.841445 5.51451 25.6432
1633202 4.02609 4.08187 9.22708 8.3082 -0.841445 5.51451 25.6432
1633211 4.04348 4.08187 9.17477 8.28013 -0.836827 5.47076 25.5802
1633221 4.11304 4.08187 9.20615 8.28013 -0.931807 5.42695 25.6812
1633232 4.11304 4.08187 9.20615 8.28013 -0.931807 5.42695 25.6812
1633241 4.10435 4.02582 9.13292 8.32691 -0.864139 5.46873 25.59
1633252 4.06087 4.04451 9.19569 8.28013 -0.91075 5.49453 25.5812
1633261 4.06087 4.04451 9.19569 8.28013 -0.91075 5.49453 25.5812
1633273 4.07826 4.06319 9.18523 8.28013 -0.898369 5.46178 25.6068
1633281 4.07826 4.06319 9.18523 8.28013 -0.898369 5.46178 25.6068
1633291 4.08696 4.04451 9.15385 8.3082 -0.867505 5.46852 25.5935
1633303 4.09565 4.10055 9.14338 8.32691 -0.790502 5.41996 25.6665
1633311 4.09565 4.10055 9.14338 8.32691 -0.790502 5.41996 25.6665
1633321 4.16522 4.14725 9.21662 8.32691 -0.877619 5.35527 25.856
1633331 4.11304 4.13791 9.112 8.29884 -0.767958 5.3542 25.6618
1633341 4.11304 4.13791 9.112 8.29884 -0.767958 5.3542 25.6618
1633351 4.09565 4.16593 9.16431 8.36434 -0.707328 5.38987 25.7902
1633361 4.09565 4.16593 9.16431 8.36434 -0.707328 5.38987 25.7902
1633371 4.10435 4.11923 9.10154 8.27078 -0.796886 5.36145 25.5959
1633382 4.17391 4.2033 9.13292 8.3082 -0.770131 5.26598 25.8183
1633391 4.17391 4.2033 9.13292 8.3082 -0.770131 5.26598 25.8183
1633403 4.17391 4.17527 9.01785 8.25206 -0.745949 5.22309 25.6191
1633412 4.17391 4.18462 9.10154 8.28949 -0.778021 5.26174 25.7496
1633432 4.11304 4.19396 9.08062 8.33627 -0.644767 5.31211 25.7239
1633452 4.17391 4.23132 9.00738 8.28949 -0.642449 5.18925 25.7021
1633462 4.17391 4.18462 9.02831 8.25206 -0.746465 5.21971 25.6389
1633472 4.17391 4.18462 9.02831 8.25206 -0.746465 5.21971 25.6389
1633482 4.15652 4.15659 9.00738 8.18657 -0.804426 5.22257 25.5071
1633492 4.13913 4.19396 8.976 8.27078 -0.635655 5.22698 25.5799
1633502 4.13913 4.19396 8.976 8.27078 -0.635655 5.22698 25.5799
1633512 4.17391 4.19396 8.98646 8.25206 -0.697437 5.19635 25.6064
1633522 4.17391 4.19396 8.98646 8.25206 -0.697437 5.19635 25.6064
1633533 4.1913 4.19396 8.98646 8.26142 -0.704546 5.18623 25.6331
1633542 4.17391 4.25934 8.95508 8.27078 -0.583489 5.14005 25.6591
1633555 4.17391 4.25934 8.95508 8.27078 -0.583489 5.14005 25.6591
1633562 4.21739 4.25 8.92369 8.23335 -0.641704 5.08674 25.6244
1633572 4.21739 4.23132 8.87138 8.25206 -0.591849 5.08839 25.5722
1633582 4.21739 4.23132 8.87138 8.25206 -0.591849 5.08839 25.5722
1633592 4.2087 4.25 8.90277 8.26142 -0.585459 5.09632 25.6229
1633602 4.2087 4.25 8.90277 8.26142 -0.585459 5.09632 25.6229
1633612 4.28696 4.30604 8.87138 8.27078 -0.564907 4.98296 25.7352
1633623 4.23478 4.33407 8.85046 8.20528 -0.532593 4.96802 25.6246
1633633 4.23478 4.33407 8.85046 8.20528 -0.532593 4.96802 25.6246
1633644 4.23478 4.36209 8.76677 8.23335 -0.396641 4.92436 25.597
1633653 4.23478 4.36209 8.76677 8.23335 -0.396641 4.92436 25.597
1633663 4.18261 4.37143 8.74585 8.3082 -0.242917 4.9789 25.6081
1633673 4.26087 4.41813 8.73538 8.3082 -0.262341 4.87777 25.7226
1633693 4.2087 4.41813 8.75631 8.23335 -0.305973 4.89694 25.6165
1633707 4.26087 4.34341 8.79815 8.25206 -0.451729 4.93828 25.6545
1633723 4.25217 4.36209 8.77723 8.26142 -0.395565 4.92598 25.6529
1633733 4.25217 4.36209 8.77723 8.26142 -0.395565 4.92598 25.6529
1633743 4.24348 4.38077 8.78769 8.3082 -0.332619 4.94067 25.7201
1633753 4.22609 4.36209 8.81908 8.28013 -0.392161 4.96997 25.6874
1633763 4.22609 4.36209 8.81908 8.28013 -0.392161 4.96997 25.6874
1633775 4.24348 4.43681 8.75631 8.20528 -0.348736 4.8444 25.6419
1633783 4.26087 4.42747 8.73538 8.25206 -0.308381 4.8484 25.6758
1633793 4.26087 4.42747 8.73538 8.25206 -0.308381 4.8484 25.6758
1633809 4.31304 4.47418 8.77723 8.28013 -0.324987 4.79993 25.8446
1633814 4.31304 4.47418 8.77723 8.28013 -0.324987 4.79993 25.8446
1633826 4.26957 4.41813 8.69354 8.26142 -0.276443 4.83604 25.6427
1633834 4.25217 4.39945 8.69354 8.23335 -0.305831 4.85286 25.5785
1633845 4.25217 4.39945 8.69354 8.23335 -0.305831 4.85286 25.5785
1633854 4.27826 4.39011 8.59938 8.21464 -0.267729 4.79487 25.4824
1633865 4.22609 4.41813 8.58892 8.34562 -0.0500947 4.86165 25.5788
1633874 4.22609 4.41813 8.58892 8.34562 -0.0500947 4.86165 25.5788
1633885 4.25217 4.44615 8.54708 8.25206 -0.0990629 4.76566 25.4975
1633894 4.25217 4.44615 8.54708 8.25206 -0.0990629 4.76566 25.4975
1633905 4.2087 4.36209 8.50523 8.27078 -0.0799537 4.85578 25.3468
1633914 4.23478 4.40879 8.60985 8.41112 -0.0240818 4.89628 25.6645
1633927 4.23478 4.40879 8.60985 8.41112 -0.0240818 4.89628 25.6645
1633936 4.2087 4.40879 8.57846 8.39241 0.013715 4.89679 25.5884
1633948 4.26087 4.48352 8.51569 8.42047 0.124052 4.78481 25.6806
1633956 4.26087 4.48352 8.51569 8.42047 0.124052 4.78481 25.6806
1633969 4.24348 4.48352 8.53662 8.4579 0.156796 4.82136 25.7215
1633986 4.26087 4.46484 8.47385 8.41112 0.137869 4.77883 25.6107
1633996 4.29565 4.41813 8.48431 8.40176 0.0389963 4.78847 25.5999
1634006 4.29565 4.41813 8.48431 8.40176 0.0389963 4.78847 25.5999
1634016 4.26957 4.45549 8.44246 8.42983 0.169253 4.77426 25.5974
1634028 4.26087 4.46484 8.45292 8.39241 0.140244 4.76298 25.571
1634036 4.26087 4.46484 8.45292 8.39241 0.140244 4.76298 25.571
1634046 4.23478 4.48352 8.48431 8.46725 0.225633 4.81105 25.6699
1634057 4.24348 4.5022 8.41108 8.42983 0.271112 4.74579 25.5866
1634067 4.24348 4.5022 8.41108 8.42983 0.271112 4.74579 25.5866
1634079 4.29565 4.44615 8.53662 8.4579 0.0697285 4.80996 25.7363
1634087 4.29565 4.44615 8.53662 8.4579 0.0697285 4.80996 25.7363
1634101 4.26957 4.43681 8.47385 8.47661 0.165659 4.81981 25.6568
1634107 4.18261 4.43681 8.49477 8.48597 0.239649 4.89918 25.6002
1634127 4.1913 4.40879 8.51569 8.50468 0.201473 4.92981 25.6205
1634138 4.1913 4.40879 8.51569 8.50468 0.201473 4.92981 25.6205
1634147 4.17391 4.39945 8.54708 8.43919 0.11507 4.93722 25.5596
1634157 4.16522 4.36209 8.568 8.53275 0.157657 5.018 25.6281
1634177 4.15652 4.39011 8.52615 8.52339 0.225449 4.98292 25.5962
1634187 4.14783 4.37143 8.51569 8.49532 0.199011 4.98923 25.5303
1634198 4.14783 4.37143 8.51569 8.49532 0.199011 4.98923 25.5303
1634208 4.21739 4.39945 8.57846 8.47661 0.0781059 4.93043 25.6719
1634229 4.12174 4.28736 8.57846 8.43919 0.0259012 5.07844 25.4268
1634239 4.13913 4.35275 8.58892 8.57017 0.189918 5.06835 25.651
1634258 4.17391 4.35275 8.60985 8.53275 0.0990808 5.03478 25.6693
1634268 4.22609 4.38077 8.59938 8.42047 -0.0236362 4.92435 25.6267
1634279 4.22609 4.38077 8.59938 8.42047 -0.0236362 4.92435 25.6267
1634294 4.21739 4.41813 8.65169 8.38305 -0.0661299 4.90794 25.6703
1634299 4.1913 4.38077 8.59938 8.44854 0.037688 4.96244 25.62
1634309 4.1913 4.38077 8.59938 8.44854 0.037688 4.96244 25.62
1634319 4.23478 4.39945 8.568 8.43919 0.0349581 4.8981 25.6414
1634329 4.23478 4.39945 8.568 8.43919 0.0349581 4.8981 25.6414
1634341 4.25217 4.42747 8.58892 8.41112 -0.00243932 4.8601 25.6797
1634349 4.23478 4.43681 8.55754 8.38305 0.0268847 4.84281 25.6122
1634371 4.27826 4.42747 8.52615 8.42047 0.0424236 4.81879 25.6524
1634383 4.31304 4.39945 8.44246 8.33627 -0.0194058 4.74648 25.4912
1634405 4.26087 4.46484 8.62031 8.32691 -0.0870839 4.80361 25.6729
1634411 4.26087 4.46484 8.62031 8.32691 -0.0870839 4.80361 25.6729
1634421 4.21739 4.39945 8.60985 8.24271 -0.181669 4.85036 25.4694
1634431 4.26957 4.43681 8.62031 8.26142 -0.187236 4.79247 25.5881
1634450 4.26957 4.43681 8.62031 8.26142 -0.187236 4.79247 25.5881
1634453 4.32174 4.49286 8.58892 8.28949 -0.124855 4.70779 25.693
1634461 4.31304 4.42747 8.59938 8.18657 -0.29223 4.7277 25.5265
1634471 4.31304 4.42747 8.59938 8.18657 -0.29223 4.7277 25.5265
1634481 4.33913 4.40879 8.64123 8.17722 -0.38562 4.73504 25.5664
1634501 4.29565 4.41813 8.51569 8.18657 -0.203259 4.71463 25.416
1634515 4.32174 4.44615 8.55754 8.224 -0.204632 4.70479 25.5494
1634522 4.32174 4.44615 8.55754 8.224 -0.204632 4.70479 25.5494
1634532 4.36522 4.5022 8.57846 8.14915 -0.285539 4.60648 25.595
1634542 4.37391 4.55824 8.51569 8.16786 -0.159575 4.53905 25.6157
1634562 4.44348 4.5489 8.48431 8.11172 -0.261019 4.45728 25.5884
1634572 4.44348 4.5489 8.48431 8.11172 -0.261019 4.45728 25.5884
1634582 4.46957 4.5022 8.51569 8.10237 -0.371921 4.48203 25.5898
1634592 4.53043 4.53022 8.47385 8.04623 -0.418118 4.37405 25.5807
1634603 4.53043 4.53022 8.47385 8.04623 -0.418118 4.37405 25.5807
1634612 4.52174 4.64231 8.44246 8.00881 -0.305566 4.2673 25.6153
1634626 4.54783 4.62363 8.44246 7.97138 -0.38624 4.24603 25.5853
1634632 4.54783 4.62363 8.44246 7.97138 -0.38624 4.24603 25.5853
1634642 4.57391 4.61429 8.50523 7.97138 -0.480694 4.25977 25.6648
1634653 4.57391 4.61429 8.50523 7.97138 -0.480694 4.25977 25.6648
1634663 4.57391 4.64231 8.40062 7.97138 -0.352545 4.19477 25.5882
1634673 4.64348 4.65165 8.41108 7.93396 -0.457241 4.12433 25.6402
1634693 4.6 4.65165 8.36923 7.90589 -0.4032 4.12712 25.5268
1634703 4.53913 4.64231 8.42154 7.88718 -0.422895 4.19414 25.4902
1634715 4.53913 4.64231 8.42154 7.88718 -0.422895 4.19414 25.4902
1634723 4.52174 4.70769 8.39015 7.96203 -0.236668 4.17649 25.5816
1634735 4.52174 4.70769 8.39015 7.96203 -0.236668 4.17649 25.5816
1634743 4.52174 4.60495 8.41108 8.00881 -0.312239 4.2823 25.5466
1634753 4.51304 4.68901 8.53662 7.99945 -0.35084 4.27421 25.7381
1634773 4.52174 4.63297 8.41108 8.03687 -0.256786 4.27294 25.6027
1634784 4.51304 4.63297 8.39015 8.03687 -0.228125 4.27072 25.573
1634793 4.51304 4.5956 8.39015 8.03687 -0.265038 4.29892 25.5357
1634804 4.46957 4.60495 8.48431 8.03687 -0.304791 4.36402 25.5957
1634814 4.46957 4.60495 8.48431 8.03687 -0.304791 4.36402 25.5957
1634824 4.47826 4.64231 8.35877 8.04623 -0.145437 4.28066 25.5256
1634834 4.47826 4.56758 8.40062 8.00881 -0.29708 4.33913 25.4553
1634845 4.47826 4.56758 8.40062 8.00881 -0.29708 4.33913 25.4553
1634854 4.46957 4.64231 8.33785 8.11172 -0.0522092 4.30592 25.5614
1634866 4.4 4.60495 8.35877 8.1585 0.00458062 4.41517 25.5222
1634874 4.4 4.60495 8.35877 8.1585 0.00458062 4.41517 25.5222
1634884 4.46957 4.65165 8.39015 8.09301 -0.112343 4.31291 25.6044
1634894 4.46957 4.65165 8.39015 8.09301 -0.112343 4.31291 25.6044
1634904 4.3913 4.60495 8.37969 8.18657 0.0200689 4.44206 25.5625
1634914 4.3913 4.65165 8.40062 8.224 0.0815451 4.43068 25.6676
1634924 4.3913 4.65165 8.40062 8.224 0.0815451 4.43068 25.6676
1634935 4.4 4.65165 8.40062 8.1585 0.00930727 4.39706 25.6108
1634944 4.35652 4.63297 8.36923 8.26142 0.164554 4.47372 25.6201
1634958 4.35652 4.63297 8.36923 8.26142 0.164554 4.47372 25.6201
1634967 4.4 4.53956 8.45292 8.24271 -0.068903 4.53833 25.6352
1634974 4.4 4.53956 8.45292 8.24271 -0.068903 4.53833 25.6352
1634984 4.36522 4.55824 8.432 8.21464 -0.0237927 4.53059 25.5701
1634994 4.35652 4.52088 8.33785 8.13979 -0.0332266 4.49629 25.355
1635004 4.35652 4.52088 8.33785 8.13979 -0.0332266 4.49629 25.355
1635014 4.35652 4.56758 8.35877 8.13043 -0.0169963 4.46524 25.4133
1635024 4.35652 4.56758 8.35877 8.13043 -0.0169963 4.46524 25.4133
1635036 4.34783 4.51154 8.41108 8.19593 -0.0504956 4.56345 25.4664
1635048 4.32174 4.56758 8.39015 8.20528 0.0598103 4.53572 25.4848
1635072 4.33913 4.57692 8.41108 8.26142 0.0861079 4.54682 25.5886
1635081 4.33043 4.57692 8.37969 8.26142 0.125462 4.54064 25.5485
1635092 4.33043 4.57692 8.37969 8.26142 0.125462 4.54064 25.5485
1635101 4.4087 4.53956 8.45292 8.26142 -0.0590712 4.53934 25.6626
1635116 4.4 4.67033 8.41108 8.16786 0.0264257 4.39112 25.6493
1635126 4.3913 4.60495 8.32738 8.21464 0.0987679 4.43204 25.5383
1635137 4.3913 4.60495 8.32738 8.21464 0.0987679 4.43204 25.5383
1635146 4.41739 4.62363 8.24369 8.12108 0.0822872 4.32407 25.4058
1635160 4.3913 4.60495 8.33785 8.19593 0.0702351 4.42862 25.53
1635166 4.3913 4.60495 8.33785 8.19593 0.0702351 4.42862 25.53
1635180 4.46087 4.69835 8.34831 8.10237 -0.00825971 4.27068 25.6099
1635187 4.46087 4.69835 8.34831 8.10237 -0.00825971 4.27068 25.6099
1635196 4.44348 4.69835 8.32738 8.13979 0.0656784 4.29069 25.609
1635206 4.50435 4.69835 8.36923 8.18657 0.011012 4.28195 25.7585
1635216 4.50435 4.69835 8.36923 8.18657 0.011012 4.28195 25.7585
1635226 4.53043 4.68901 8.30646 8.08365 -0.0627026 4.2 25.6096
1635236 4.49565 4.62363 8.34831 8.06494 -0.152151 4.28511 25.5325
1635246 4.49565 4.62363 8.34831 8.06494 -0.152151 4.28511 25.5325
1635256 4.48696 4.65165 8.35877 8.06494 -0.126295 4.27491 25.5623
1635268 4.48696 4.65165 8.35877 8.06494 -0.126295 4.27491 25.5623
1635276 4.46957 4.67033 8.28554 7.99009 -0.0931323 4.21144 25.4155
1635291 4.53043 4.65165 8.24369 7.99009 -0.130217 4.16179 25.4159
1635296 4.53043 4.65165 8.24369 7.99009 -0.130217 4.16179 25.4159
1635306 4.53913 4.66099 8.33785 8.02752 -0.184301 4.20405 25.5655
1635316 4.51304 4.66099 8.30646 8.02752 -0.128388 4.21041 25.508
1635326 4.51304 4.62363 8.30646 8.02752 -0.165251 4.23859 25.4706
1635336 4.56522 4.5489 8.41108 8.02752 -0.391226 4.29963 25.5527
1635357 4.56522 4.62363 8.30646 7.99945 -0.24378 4.18737 25.4948
1635367 4.53913 4.61429 8.40062 8.01816 -0.300421 4.26168 25.5722
1635379 4.53913 4.61429 8.40062 8.01816 -0.300421 4.26168 25.5722
1635387 4.55652 4.62363 8.40062 8.00881 -0.317226 4.23763 25.5896
1635400 4.55652 4.62363 8.40062 8.00881 -0.317226 4.23763 25.5896
1635407 4.53043 4.63297 8.35877 8.01816 -0.233039 4.23655 25.5403
1635417 4.56522 4.67033 8.41108 8.01816 -0.280347 4.20441 25.6648
1635427 4.56522 4.67033 8.41108 8.01816 -0.280347 4.20441 25.6648
1635438 4.55652 4.58626 8.50523 7.99009 -0.473316 4.30172 25.6381
1635448 4.54783 4.62363 8.40062 8.01816 -0.299579 4.2481 25.5902
1635458 4.54783 4.62363 8.40062 8.01816 -0.299579 4.2481 25.5902
1635468 4.55652 4.64231 8.46338 7.96203 -0.405449 4.23032 25.6242
1635478 4.54783 4.5956 8.37969 8.01816 -0.307104 4.26041 25.5413
1635504 4.58261 4.64231 8.39015 8.03687 -0.286117 4.21144 25.6519
1635512 4.58261 4.64231 8.39015 8.03687 -0.286117 4.21144 25.6519
1635518 4.55652 4.65165 8.37969 7.96203 -0.315596 4.18801 25.5499
1635528 4.55652 4.68901 8.42154 7.98074 -0.300527 4.18559 25.6478
1635538 4.55652 4.68901 8.42154 7.98074 -0.300527 4.18559 25.6478
1635548 4.5913 4.66099 8.41108 8.03687 -0.296219 4.19976 25.7002
1635568 4.51304 4.60495 8.432 7.99945 -0.333323 4.29371 25.5494
1635579 4.57391 4.62363 8.45292 8.04623 -0.347301 4.26219 25.6967
1635599 4.48696 4.61429 8.432 7.99009 -0.308125 4.30245 25.5233
1635611 4.53913 4.56758 8.37969 8.00881 -0.335783 4.28421 25.4952
1635620 4.53913 4.56758 8.37969 8.00881 -0.335783 4.28421 25.4952
1635629 4.52174 4.61429 8.35877 8.04623 -0.215329 4.269 25.541
1635642 4.46087 4.60495 8.40062 8.04623 -0.206085 4.33963 25.5127
1635649 4.46087 4.60495 8.40062 8.04623 -0.206085 4.33963 25.5127
1635659 4.50435 4.58626 8.39015 8.04623 -0.256599 4.31647 25.527
1635669 4.50435 4.58626 8.39015 8.04623 -0.256599 4.31647 25.527
1635679 4.53043 4.51154 8.40062 8.04623 -0.366123 4.35772 25.4888
1635689 4.52174 4.60495 8.39015 8.03687 -0.264221 4.2853 25.5537
1635716 4.53043 4.66099 8.432 8.06494 -0.230166 4.26585 25.6884
1635733 4.44348 4.51154 8.40062 8.06494 -0.263184 4.43177 25.4206
1635735 4.44348 4.51154 8.40062 8.06494 -0.263184 4.43177 25.4206
1635741 4.52174 4.67033 8.37969 8.0743 -0.152853 4.24739 25.6461
1635752 4.52174 4.67033 8.37969 8.0743 -0.152853 4.24739 25.6461
1635761 4.55652 4.53956 8.35877 8.01816 -0.350931 4.28739 25.473
1635775 4.52174 4.68901 8.28554 8.05559 -0.0613272 4.18582 25.5519
1635782 4.52174 4.68901 8.28554 8.05559 -0.0613272 4.18582 25.5519
1635792 4.51304 4.64231 8.32738 8.09301 -0.102744 4.2609 25.5757
1635802 4.56522 4.62363 8.34831 8.09301 -0.192048 4.2445 25.6302
1635812 4.56522 4.62363 8.34831 8.09301 -0.192048 4.2445 25.6302
1635822 4.54783 4.68901 8.25415 8.12108 0.0079155 4.18068 25.6121
1635842 4.56522 4.57692 8.25415 8.09301 -0.146568 4.24003 25.4893
1635852 4.58261 4.64231 8.21231 8.13043 -0.0216827 4.17588 25.5677
1635862 4.58261 4.64231 8.21231 8.13043 -0.0216827 4.17588 25.5677
1635872 4.5913 4.60495 8.19138 8.13979 -0.037168 4.19251 25.5274
1635883 4.54783 4.67033 8.18092 8.13043 0.0705212 4.16765 25.5295
1635907 4.54783 4.66099 8.16 8.06494 0.017795 4.13788 25.4338
1635927 4.57391 4.64231 8.13908 8.10237 0.0311166 4.13936 25.4577
1635933 4.6 4.67033 8.13908 8.17722 0.105983 4.13065 25.5866
1635943 4.6 4.67033 8.13908 8.17722 0.105983 4.13065 25.5866
1635953 4.58261 4.74505 8.14954 8.14915 0.158092 4.08038 25.6263
1635963 4.6 4.57692 8.17046 8.18657 -0.00682175 4.21798 25.534
1635983 4.6 4.67967 8.19138 8.18657 0.0729382 4.14981 25.6576
1636003 4.54783 4.69835 8.05538 8.21464 0.303513 4.12905 25.5162
1636016 4.55652 4.66099 7.99262 8.21464 0.321037 4.12378 25.4248
1636038 4.6 4.69835 8.01354 8.13043 0.211507 4.03596 25.4423
1636044 4.56522 4.70769 8.00308 8.17722 0.310975 4.07064 25.4532
1636064 4.61739 4.71703 7.98215 8.20528 0.31617 4.02773 25.5219
1636074 4.61739 4.71703 7.98215 8.20528 0.31617 4.02773 25.5219
1636084 4.65217 4.71703 8.04492 8.23335 0.246891 4.04079 25.6475
1636094 4.62609 4.67967 7.97169 8.21464 0.290805 4.04865 25.4921
1636104 4.62609 4.67967 7.97169 8.21464 0.290805 4.04865 25.4921
1636114 4.5913 4.7544 8.01354 8.18657 0.328943 4.02478 25.5458
1636125 4.58261 4.78242 7.99262 8.21464 0.412393 4.01346 25.5723
1636147 4.65217 4.72637 7.96123 8.13979 0.248003 3.95757 25.4796
1636154 4.65217 4.72637 7.96123 8.13979 0.248003 3.95757 25.4796
1636164 4.62609 4.78242 7.94031 8.224 0.430161 3.96268 25.5728
1636176 4.63478 4.69835 7.89846 8.19593 0.354964 3.98854 25.4275
1636186 4.63478 4.69835 7.89846 8.19593 0.354964 3.98854 25.4275
1636196 4.62609 4.73571 7.91938 8.16786 0.351787 3.96407 25.449
1636206 4.6 4.70769 7.89846 8.13043 0.335151 3.97915 25.3366
1636226 4.61739 4.67967 7.95077 8.12108 0.229207 4.00576 25.3689
1636237 4.61739 4.67967 7.95077 8.12108 0.229207 4.00576 25.3689
1636247 4.63478 4.67967 7.94031 8.224 0.322402 4.03268 25.4788
1636259 4.6 4.70769 8.01354 8.20528 0.293261 4.06115 25.5265
1636267 4.6 4.70769 8.01354 8.20528 0.293261 4.06115 25.5265
1636280 4.6087 4.74505 8.00308 8.20528 0.331122 4.02232 25.5621
1636287 4.66087 4.76374 8.05538 8.16786 0.209901 3.97614 25.6479
1636308 4.62609 4.72637 8.03446 8.21464 0.273874 4.04075 25.6016
1636318 4.5913 4.68901 8.09723 8.18657 0.182918 4.10937 25.5641
1636328 4.5913 4.68901 8.09723 8.18657 0.182918 4.10937 25.5641
1636348 4.6087 4.69835 8.05538 8.09301 0.125009 4.03137 25.4554
1636354 4.6087 4.69835 8.05538 8.09301 0.125009 4.03137 25.4554
1636372 4.58261 4.66099 8.05538 8.17722 0.196469 4.11502 25.4762
1636373 4.56522 4.67967 8.07631 8.18657 0.220242 4.12697 25.5078
1636379 4.56522 4.67967 8.07631 8.18657 0.220242 4.12697 25.5078
1636389 4.62609 4.65165 8.16 8.1585 0.0235021 4.12605 25.5962
1636399 4.61739 4.61429 8.12862 8.1585 0.026238 4.1472 25.5188
1636411 4.61739 4.61429 8.12862 8.1585 0.026238 4.1472 25.5188
1636419 4.53043 4.67033 8.21231 8.21464 0.138745 4.22952 25.6277
1636429 4.53043 4.67033 8.21231 8.21464 0.138745 4.22952 25.6277
1636439 4.57391 4.61429 8.28554 8.14915 -0.0936836 4.24219 25.6229
1636451 4.53043 4.63297 8.24369 8.14915 0.00781417 4.24325 25.5562
1636469 4.51304 4.5956 8.27508 8.14915 -0.0424638 4.29774 25.5329
1636480 4.46957 4.52088 8.33785 8.21464 -0.0703618 4.44078 25.5429
1636489 4.46957 4.52088 8.33785 8.21464 -0.0703618 4.44078 25.5429
1636501 4.46087 4.53956 8.34831 8.23335 -0.0354394 4.44524 25.5821
1636509 4.46087 4.53956 8.34831 8.23335 -0.0354394 4.44524 25.5821
1636523 4.42609 4.51154 8.44246 8.20528 -0.148258 4.52023 25.5854
1636529 4.4 4.51154 8.48431 8.24271 -0.126822 4.57249 25.6386
1636539 4.4 4.51154 8.48431 8.24271 -0.126822 4.57249 25.6386
1636549 4.36522 4.44615 8.50523 8.24271 -0.177611 4.65774 25.5593
1636561 4.33913 4.42747 8.54708 8.29884 -0.156069 4.73166 25.6125
1636571 4.33913 4.42747 8.54708 8.29884 -0.156069 4.73166 25.6125
1636581 4.28696 4.39945 8.69354 8.3082 -0.265533 4.85555 25.6881
1636591 4.28696 4.39945 8.69354 8.3082 -0.265533 4.85555 25.6881
1636601 4.23478 4.37143 8.69354 8.31756 -0.233568 4.92141 25.6173
1636611 4.24348 4.42747 8.64123 8.37369 -0.0813141 4.8727 25.6859
1636621 4.24348 4.42747 8.64123 8.37369 -0.0813141 4.8727 25.6859
1636631 4.26087 4.39011 8.69354 8.33627 -0.221984 4.89403 25.6808
1636641 4.27826 4.38077 8.60985 8.36434 -0.139469 4.86585 25.6332
1636654 4.27826 4.38077 8.60985 8.36434 -0.139469 4.86585 25.6332
1636662 4.2 4.38077 8.65169 8.31756 -0.150062 4.92474 25.55
1636671 4.2 4.38077 8.65169 8.31756 -0.150062 4.92474 25.55
1636681 4.18261 4.41813 8.74585 8.40176 -0.105408 4.97907 25.7483
1636691 4.24348 4.37143 8.68308 8.34562 -0.204243 4.92157 25.6436
1636701 4.24348 4.37143 8.68308 8.34562 -0.204243 4.92157 25.6436
1636711 4.18261 4.35275 8.76677 8.44854 -0.143774 5.05615 25.7507
1636723 4.13913 4.28736 8.73538 8.37369 -0.208981 5.10029 25.5356
1636731 4.13913 4.28736 8.73538 8.37369 -0.208981 5.10029 25.5356
1636745 4.18261 4.38077 8.78769 8.37369 -0.209758 5.01346 25.7248
1636761 4.15652 4.32473 8.74585 8.41112 -0.162379 5.07585 25.6382
1636771 4.13913 4.25934 8.73538 8.36434 -0.245938 5.11874 25.4982
1636781 4.13913 4.25934 8.73538 8.36434 -0.245938 5.11874 25.4982
1636791 4.13913 4.2967 8.73538 8.39241 -0.18132 5.10019 25.5636
1636801 4.13913 4.2967 8.73538 8.39241 -0.18132 5.10019 25.5636
1636812 4.08696 4.25 8.81908 8.42047 -0.23025 5.22116 25.5765
1636821 4.13913 4.2967 8.77723 8.40176 -0.212668 5.11998 25.6148
1636835 4.13913 4.2967 8.77723 8.40176 -0.212668 5.11998 25.6148
1636841 4.15652 4.31538 8.80862 8.50468 -0.140655 5.14329 25.7852
1636851 4.05217 4.25934 8.85046 8.47661 -0.162533 5.2746 25.6386
1636861 4.05217 4.25934 8.85046 8.47661 -0.162533 5.2746 25.6386
1636872 4.08696 4.27802 8.82954 8.50468 -0.130157 5.23513 25.6992
1636882 4.08696 4.27802 8.82954 8.50468 -0.130157 5.23513 25.6992
1636892 4.06087 4.25934 8.84 8.50468 -0.133303 5.27441 25.6649
1636902 4.0087 4.19396 8.94462 8.50468 -0.248204 5.40698 25.6519
1636912 4.0087 4.19396 8.94462 8.50468 -0.248204 5.40698 25.6519
1636925 4.04348 4.2033 8.90277 8.51403 -0.222997 5.35975 25.6636
1636932 4.02609 4.17527 8.92369 8.58888 -0.180468 5.43162 25.7139
1636942 4.02609 4.17527 8.92369 8.58888 -0.180468 5.43162 25.7139
1636952 4.06087 4.25 8.95508 8.52339 -0.235131 5.3322 25.7893
1636973 3.97391 4.19396 8.93415 8.53275 -0.176875 5.44126 25.6348
1636982 4 4.18462 8.99692 8.51403 -0.290199 5.44433 25.6956
1636992 4 4.18462 8.99692 8.51403 -0.290199 5.44433 25.6956
1637014 4.05217 4.2033 8.976 8.47661 -0.338674 5.36629 25.7081
1637014 3.9913 4.2033 8.93415 8.55146 -0.166181 5.42695 25.6802
1637022 3.9913 4.2033 8.93415 8.55146 -0.166181 5.42695 25.6802
1637036 4.03478 4.2033 8.98646 8.55146 -0.258467 5.41192 25.776
1637052 3.9913 4.14725 8.88185 8.48597 -0.23517 5.42762 25.5064
1637062 4.0087 4.16593 8.91323 8.55146 -0.199434 5.43505 25.6393
1637082 4.08696 4.23132 8.91323 8.49532 -0.26582 5.30008 25.7268
1637103 3.9913 4.2033 8.91323 8.46725 -0.228722 5.3876 25.5751
1637112 4.10435 4.25 8.92369 8.47661 -0.292598 5.26854 25.7547
1637133 4.07826 4.25 8.89231 8.44854 -0.264935 5.2666 25.6691
1637147 4.05217 4.24066 8.89231 8.55146 -0.148003 5.33342 25.7366
1637154 4.05217 4.24066 8.89231 8.55146 -0.148003 5.33342 25.7366
1637169 4.10435 4.30604 8.85046 8.49532 -0.148937 5.20383 25.7562
1637177 4.08696 4.2967 8.86092 8.48597 -0.16052 5.22525 25.7305
1637184 4.08696 4.2967 8.86092 8.48597 -0.16052 5.22525 25.7305
1637194 4.06087 4.24066 8.79815 8.48597 -0.129366 5.26619 25.5856
1637204 4.06087 4.24066 8.79815 8.48597 -0.129366 5.26619 25.5856
1637215 4.06957 4.25934 8.82954 8.52339 -0.113283 5.27067 25.6818
1637226 4.06957 4.2967 8.88185 8.52339 -0.127389 5.26102 25.7715
1637246 4.09565 4.21264 8.82954 8.50468 -0.202666 5.27986 25.6425
1637258 4.04348 4.21264 8.90277 8.47661 -0.250632 5.33826 25.6355
1637267 4.04348 4.21264 8.90277 8.47661 -0.250632 5.33826 25.6355
1637280 4.06087 4.24066 8.85046 8.42983 -0.235367 5.26473 25.5818
1637287 4.05217 4.19396 8.88185 8.48597 -0.248006 5.34183 25.6139
1637307 4.05217 4.19396 8.86092 8.44854 -0.264715 5.31978 25.5556
1637317 4.05217 4.19396 8.86092 8.44854 -0.264715 5.31978 25.5556
1637327 4.04348 4.17527 8.89231 8.40176 -0.351538 5.33574 25.5128
1637337 4.07826 4.26868 8.88185 8.42047 -0.264095 5.23721 25.6493
1637347 4.07826 4.26868 8.88185 8.42047 -0.264095 5.23721 25.6493
1637357 4.08696 4.25 8.86092 8.42983 -0.261484 5.24069 25.6277
1637368 4.07826 4.22198 8.92369 8.44854 -0.322753 5.30062 25.6725
1637377 4.07826 4.22198 8.92369 8.44854 -0.322753 5.30062 25.6725
1637390 4.09565 4.21264 8.92369 8.42047 -0.376412 5.28363 25.6525
1637411 4.05217 4.17527 8.92369 8.46725 -0.325294 5.36538 25.6184
1637418 4.08696 4.2967 8.85046 8.38305 -0.251459 5.18198 25.6172
1637428 4.08696 4.2967 8.85046 8.38305 -0.251459 5.18198 25.6172
1637438 4.13043 4.25 8.88185 8.38305 -0.369689 5.19654 25.6453
1637448 4.07826 4.25 8.84 8.3082 -0.353326 5.193 25.4765
1637458 4.07826 4.25 8.84 8.3082 -0.353326 5.193 25.4765
1637468 4.15652 4.2967 8.87138 8.42983 -0.292546 5.15328 25.7544
1637488 4.12174 4.22198 8.90277 8.36434 -0.427744 5.22634 25.6108
1637503 4.05217 4.25934 8.90277 8.4579 -0.231482 5.28733 25.6722
1637508 4.05217 4.25934 8.90277 8.4579 -0.231482 5.28733 25.6722
1637518 4.06957 4.25 8.86092 8.42047 -0.253911 5.25087 25.601
1637528 4.08696 4.26868 8.82954 8.47661 -0.166789 5.23181 25.6618
1637538 4.08696 4.26868 8.82954 8.47661 -0.166789 5.23181 25.6618
1637548 4.05217 4.25934 8.85046 8.42983 -0.208527 5.25683 25.5918
1637558 4.05217 4.25934 8.85046 8.42983 -0.208527 5.25683 25.5918
1637569 4.02609 4.33407 8.86092 8.42983 -0.119992 5.22239 25.6509
1637578 4.03478 4.26868 8.84 8.48597 -0.117184 5.28055 25.6294
1637598 4.06957 4.32473 8.84 8.52339 -0.0596434 5.22316 25.7577
1637614 4.0087 4.22198 8.93415 8.48597 -0.228946 5.37378 25.6508
1637638 3.97391 4.27802 8.95508 8.5421 -0.105698 5.38577 25.7491
1637657 4 4.22198 8.89231 8.49532 -0.17084 5.36848 25.6096
1637661 3.98261 4.16593 8.99692 8.59824 -0.209138 5.50423 25.7437
1637681 3.92174 4.22198 8.99692 8.55146 -0.141314 5.49079 25.6921
1637691 3.94783 4.15659 9.00738 8.57953 -0.213195 5.53639 25.6913
1637702 3.94783 4.15659 9.00738 8.57953 -0.213195 5.53639 25.6913
1637711 3.89565 4.14725 9.07015 8.57017 -0.241779 5.60526 25.6832
1637723 3.89565 4.14725 9.07015 8.57017 -0.241779 5.60526 25.6832
1637731 3.91304 4.12857 9.02831 8.62631 -0.181422 5.61152 25.6962
1637746 3.87826 4.15659 9.02831 8.57953 -0.166176 5.59983 25.6427
1637751 3.87826 4.15659 9.02831 8.57953 -0.166176 5.59983 25.6427
1637761 3.87826 4.23132 9.01785 8.58888 -0.073792 5.53957 25.7163
1637771 3.85217 4.14725 9.01785 8.65438 -0.0666022 5.65184 25.6716
1637791 3.86087 4.12857 9.05969 8.71987 -0.0699699 5.69878 25.769
1637801 3.86087 4.12857 9.05969 8.71987 -0.0699699 5.69878 25.769
1637813 3.82609 4.10989 9.02831 8.70116 -0.0422239 5.72374 25.6654
1637821 3.82609 4.12857 9.07015 8.70116 -0.0646368 5.72378 25.726
1637835 3.82609 4.12857 9.07015 8.70116 -0.0646368 5.72378 25.726
1637841 3.78261 4.23132 9.05969 8.71051 0.0965029 5.67575 25.7841
1637851 3.76522 4.13791 9.05969 8.67309 -0.0135675 5.75149 25.6359
1637872 3.8 4.15659 9.02831 8.75729 0.0831097 5.72737 25.7422
1637882 3.8 4.15659 9.02831 8.75729 0.0831097 5.72737 25.7422
1637892 3.8 4.12857 8.98646 8.68244 0.0239789 5.70779 25.5975
1637904 3.8 4.16593 8.976 8.67309 0.061509 5.67039 25.615
1637913 3.8 4.16593 8.976 8.67309 0.061509 5.67039 25.615
1637927 3.8 4.15659 8.88185 8.71987 0.190362 5.66066 25.5583
1637932 3.78261 4.17527 8.976 8.71987 0.133055 5.6939 25.6538
1637942 3.78261 4.17527 8.976 8.71987 0.133055 5.6939 25.6538
1637953 3.7913 4.18462 9.03877 8.76665 0.117517 5.71896 25.7813
1637963 3.7913 4.18462 9.03877 8.76665 0.117517 5.71896 25.7813
1637973 3.76522 4.15659 8.94462 8.76665 0.208136 5.7286 25.6331
1637983 3.84348 4.2033 8.96554 8.81343 0.201067 5.65261 25.8257
1637995 3.84348 4.2033 8.96554 8.81343 0.201067 5.65261 25.8257
1638003 3.81739 4.16593 8.95508 8.776 0.164762 5.68616 25.7144
1638017 3.76522 4.16593 8.82954 8.776 0.339887 5.68264 25.5367
1638023 3.76522 4.16593 8.82954 8.776 0.339887 5.68264 25.5367
1638033 3.8087 4.15659 8.91323 8.79472 0.223368 5.6923 25.6732
1638044 3.8087 4.15659 8.91323 8.79472 0.223368 5.6923 25.6732
1638054 3.78261 4.11923 8.93415 8.76665 0.165138 5.74099 25.6026
1638064 3.78261 4.12857 8.96554 8.87892 0.251737 5.78511 25.7556
1638074 3.78261 4.12857 8.96554 8.87892 0.251737 5.78511 25.7556
1638084 3.83478 4.16593 8.85046 8.76665 0.241372 5.63068 25.6178
1638094 3.81739 4.15659 8.81908 8.74794 0.262386 5.6339 25.541
1638106 3.81739 4.15659 8.81908 8.74794 0.262386 5.6339 25.541
1638114 3.87826 4.22198 8.88185 8.75729 0.212866 5.55893 25.7394
1638134 3.82609 4.18462 8.89231 8.75729 0.217763 5.63452 25.6603
1638144 3.86087 4.15659 8.92369 8.80407 0.171006 5.65753 25.7452
1638154 3.86087 4.15659 8.92369 8.80407 0.171006 5.65753 25.7452
1638164 3.84348 4.18462 8.82954 8.76665 0.271469 5.60099 25.6243
1638176 3.8087 4.15659 8.84 8.74794 0.250295 5.64859 25.5532
1638184 3.8087 4.15659 8.84 8.74794 0.250295 5.64859 25.5532
1638198 3.83478 4.16593 8.94462 8.73858 0.121787 5.65479 25.6839
1638204 3.83478 4.16593 8.94462 8.73858 0.121787 5.65479 25.6839
1638214 3.7913 4.18462 8.96554 8.75729 0.180033 5.68914 25.6987
1638224 3.89565 4.18462 8.93415 8.76665 0.117776 5.59744 25.7811
1638236 3.89565 4.18462 8.93415 8.76665 0.117776 5.59744 25.7811
1638244 3.81739 4.17527 9.01785 8.75729 0.0944287 5.69459 25.7678
1638254 3.8087 4.07253 9.03877 8.74794 -0.0262976 5.78863 25.6679
1638265 3.8087 4.07253 9.03877 8.74794 -0.0262976 5.78863 25.6679
1638282 3.78261 4.12857 9.03877 8.70116 0.00813901 5.74756 25.6511
1638291 3.78261 4.12857 9.03877 8.70116 0.00813901 5.74756 25.6511
1638296 3.82609 4.07253 9.07015 8.70116 -0.11936 5.76902 25.6699
1638310 3.78261 4.10989 9.13292 8.72922 -0.0741795 5.80652 25.7546
1638316 3.78261 4.10989 9.13292 8.72922 -0.0741795 5.80652 25.7546
1638326 3.78261 4.11923 9.08062 8.70116 -0.0416949 5.77018 25.6836
1638337 3.75652 4.03516 9.15385 8.75729 -0.114687 5.90564 25.7028
1638346 3.75652 4.03516 9.15385 8.75729 -0.114687 5.90564 25.7028
1638356 3.8087 4.01648 9.21662 8.75729 -0.243744 5.90063 25.7991
1638366 3.8087 4.01648 9.21662 8.75729 -0.243744 5.90063 25.7991
1638377 3.74783 4.06319 9.16431 8.74794 -0.0981718 5.89033 25.7233
1638386 3.7913 4.04451 9.19569 8.76665 -0.170402 5.88794 25.7981
1638399 3.7913 4.04451 9.19569 8.76665 -0.170402 5.88794 25.7981
1638406 3.78261 4.06319 9.22708 8.71987 -0.219665 5.87441 25.7927
1638421 3.68696 4.02582 9.248 8.64502 -0.257866 5.96363 25.6058
1638426 3.68696 4.02582 9.248 8.64502 -0.257866 5.96363 25.6058
1638436 3.75652 4.06319 9.23754 8.6918 -0.232118 5.88932 25.749
1638446 3.75652 4.06319 9.23754 8.6918 -0.232118 5.88932 25.749
1638456 3.71304 4.07253 9.25846 8.6918 -0.201252 5.92444 25.7358
1638466 3.72174 4.07253 9.23754 8.61695 -0.262976 5.88346 25.6488
1638476 3.72174 4.07253 9.23754 8.61695 -0.262976 5.88346 25.6488
1638487 3.78261 4.08187 9.22708 8.66373 -0.25634 5.83938 25.7553
1638496 3.78261 4.08187 9.22708 8.66373 -0.25634 5.83938 25.7553
1638509 3.76522 4.04451 9.21662 8.62631 -0.303108 5.86676 25.6526
1638516 3.76522 4.03516 9.17477 8.63566 -0.262739 5.86279 25.6108
1638526 3.76522 4.03516 9.17477 8.63566 -0.262739 5.86279 25.6108
1638536 3.8 4.08187 9.09108 8.58888 -0.215484 5.74964 25.5618
1638547 3.8 4.07253 9.22708 8.57953 -0.365105 5.80281 25.6791
1638557 3.8 4.07253 9.22708 8.57953 -0.365105 5.80281 25.6791
1638567 3.7913 4.10989 9.17477 8.62631 -0.223595 5.77763 25.7023
1638577 3.7913 4.10989 9.17477 8.62631 -0.223595 5.77763 25.7023
1638587 3.8087 4.02582 9.19569 8.60759 -0.361739 5.83246 25.6378
1638599 3.82609 4.13791 9.20615 8.63566 -0.25059 5.74162 25.8058
1638607 3.82609 4.13791 9.20615 8.63566 -0.25059 5.74162 25.8058
1638620 3.85217 4.06319 9.15385 8.63566 -0.298746 5.76203 25.7049
1638627 3.90435 4.12857 9.20615 8.57953 -0.389645 5.66613 25.8186
1638637 3.90435 4.12857 9.20615 8.57953 -0.389645 5.66613 25.8186
1638648 3.90435 4.15659 9.05969 8.57953 -0.221711 5.5904 25.7002
1638657 3.90435 4.15659 9.05969 8.57953 -0.221711 5.5904 25.7002
1638667 3.85217 4.06319 9.03877 8.51403 -0.307953 5.67617 25.4682
1638677 3.86957 4.14725 9.03877 8.59824 -0.158696 5.625 25.6538
1638689 3.86957 4.14725 9.03877 8.59824 -0.158696 5.625 25.6538
1638697 3.89565 4.10055 9.04923 8.5421 -0.29529 5.62489 25.5875
1638712 3.88696 4.14725 9.05969 8.64502 -0.149944 5.63573 25.7389
1638717 3.88696 4.14725 9.05969 8.64502 -0.149944 5.63573 25.7389
1638727 3.87826 4.14725 9.10154 8.57953 -0.246064 5.63409 25.7066
1638737 3.87826 4.14725 9.10154 8.57953 -0.246064 5.63409 25.7066
1638749 3.85217 4.10989 9.03877 8.60759 -0.169335 5.67253 25.6084
1638757 3.86957 4.15659 9.04923 8.60759 -0.150496 5.62474 25.683
1638767 3.86957 4.15659 9.04923 8.60759 -0.150496 5.62474 25.683
1638777 3.93913 4.12857 8.99692 8.65438 -0.148827 5.58941 25.719
1638787 3.90435 4.14725 8.98646 8.59824 -0.141715 5.57789 25.6363
1638800 3.90435 4.14725 8.98646 8.59824 -0.141715 5.57789 25.6363
1638807 3.90435 4.14725 9.02831 8.64502 -0.136426 5.61035 25.7249
1638817 3.90435 4.14725 9.02831 8.64502 -0.136426 5.61035 25.7249
1638827 3.83478 4.09121 9.08062 8.64502 -0.174618 5.73042 25.6516
1638837 3.87826 4.08187 9.02831 8.65438 -0.166057 5.6873 25.6428
1638847 3.87826 4.08187 9.02831 8.65438 -0.166057 5.6873 25.6428
1638858 3.87826 4.14725 9.00738 8.64502 -0.0909075 5.62364 25.6779
1638868 3.87826 4.14725 9.00738 8.64502 -0.0909075 5.62364 25.6779
1638878 3.8087 4.09121 9.08062 8.62631 -0.167723 5.74477 25.6068
1638889 3.8 4.10055 9.16431 8.71051 -0.148636 5.80454 25.7754
1638898 3.8 4.10055 9.16431 8.71051 -0.148636 5.80454 25.7754
1638913 3.76522 4.07253 9.09108 8.68244 -0.0989065 5.81918 25.6113
1638922 3.82609 4.09121 9.12246 8.65438 -0.197479 5.75591 25.6941
1638935 3.82609 4.09121 9.12246 8.65438 -0.197479 5.75591 25.6941
1638938 3.86087 4.09121 9.12246 8.67309 -0.212675 5.73459 25.7476
1638958 3.75652 4.06319 9.16431 8.65438 -0.198206 5.85 25.6384
1638969 3.8 4.05385 9.13292 8.66373 -0.209884 5.81439 25.6505
1638989 3.8087 4.10989 9.13292 8.68244 -0.145029 5.76871 25.734
1639003 3.77391 4.10989 9.15385 8.75729 -0.0587106 5.83099 25.7949
1639011 3.77391 4.10989 9.15385 8.75729 -0.0587106 5.83099 25.7949
1639026 3.75652 4.07253 9.16431 8.6918 -0.152327 5.85575 25.6852
1639032 3.76522 4.04451 9.21662 8.6918 -0.238673 5.89002 25.7181
1639041 3.76522 4.04451 9.21662 8.6918 -0.238673 5.89002 25.7181
1639051 3.73043 4.09121 9.20615 8.70116 -0.140139 5.87995 25.729
1639061 3.73043 4.09121 9.20615 8.70116 -0.140139 5.87995 25.729
1639072 3.78261 4.10055 9.112 8.73858 -0.053899 5.80993 25.7337
1639081 3.77391 4.08187 9.10154 8.68244 -0.108369 5.80828 25.6398
1639102 3.75652 4.10055 9.17477 8.70116 -0.125898 5.84008 25.733
1639116 3.72174 4.07253 9.20615 8.71987 -0.131704 5.90881 25.7203
1639132 3.71304 4.09121 9.10154 8.68244 -0.0399888 5.85018 25.5882
1639142 3.71304 4.09121 9.10154 8.68244 -0.0399888 5.85018 25.5882
1639152 3.70435 4.09121 9.17477 8.67309 -0.111942 5.88005 25.6434
1639162 3.73913 4.08187 9.17477 8.73858 -0.0907853 5.88261 25.7343
1639183 3.73913 4.12857 9.08062 8.65438 -0.0359327 5.78101 25.6027
1639192 3.75652 4.08187 9.12246 8.66373 -0.130133 5.8232 25.6246
1639213 3.83478 4.10989 9.12246 8.71987 -0.123596 5.75735 25.787
1639228 3.83478 4.10989 9.12246 8.71987 -0.123596 5.75735 25.787
1639233 3.78261 4.13791 9.03877 8.68244 -0.000995398 5.73325 25.6417
1639243 3.7913 4.09121 9.03877 8.68244 -0.0550896 5.76402 25.6037
1639253 3.7913 4.09121 9.03877 8.68244 -0.0550896 5.76402 25.6037
1639263 3.82609 4.08187 9.09108 8.68244 -0.148796 5.76227 25.6815
1639274 3.86087 4.13791 9.01785 8.71051 -0.0294343 5.67275 25.7271
1639283 3.86087 4.13791 9.01785 8.71051 -0.0294343 5.67275 25.7271
1639298 3.86957 4.15659 9.03877 8.68244 -0.0672847 5.64818 25.7474
1639303 3.86957 4.15659 9.03877 8.68244 -0.0672847 5.64818 25.7474
1639313 3.85217 4.18462 9.02831 8.68244 -0.0130326 5.63585 25.7475
1639323 3.85217 4.24066 9.05969 8.60759 -0.061737 5.57516 25.7601
1639333 3.85217 4.24066 9.05969 8.60759 -0.061737 5.57516 25.7601
1639343 3.87826 4.18462 8.95508 8.60759 -0.0401258 5.56074 25.6255
1639353 3.84348 4.19396 8.976 8.70116 0.0735313 5.6231 25.7146
1639367 3.84348 4.19396 8.976 8.70116 0.0735313 5.6231 25.7146
1639373 3.86957 4.27802 8.94462 8.66373 0.123832 5.50985 25.7559
1639384 3.86957 4.27802 8.94462 8.66373 0.123832 5.50985 25.7559
1639394 3.85217 4.18462 8.98646 8.63566 -0.0178844 5.60351 25.6589
1639404 3.82609 4.17527 9.02831 8.62631 -0.0514641 5.64386 25.656
1639415 3.82609 4.17527 9.02831 8.62631 -0.0514641 5.64386 25.656
1639424 3.87826 4.17527 8.94462 8.61695 -0.0299126 5.56783 25.6151
1639438 3.86087 4.2033 8.98646 8.60759 -0.035505 5.57125 25.6582
1639444 3.86087 4.2033 8.98646 8.60759 -0.035505 5.57125 25.6582
1639454 3.86957 4.22198 8.976 8.57953 -0.0429481 5.53513 25.6471
1639474 3.93913 4.18462 8.94462 8.57953 -0.116581 5.49776 25.6479
1639484 3.91304 4.22198 9.01785 8.6918 -0.0165492 5.55702 25.8447
1639494 3.91304 4.22198 9.01785 8.6918 -0.0165492 5.55702 25.8447
1639506 3.93043 4.17527 9.03877 8.62631 -0.162607 5.56407 25.7708
1639514 3.92174 4.17527 9.01785 8.55146 -0.207327 5.53583 25.6663
1639529 3.92174 4.17527 9.01785 8.55146 -0.207327 5.53583 25.6663
1639535 3.86957 4.21264 9.01785 8.61695 -0.0562117 5.57176 25.717
1639559 3.87826 4.16593 9.01785 8.57953 -0.146879 5.58849 25.6416
1639568 3.88696 4.16593 8.96554 8.58888 -0.095363 5.56571 25.6073
1639576 3.88696 4.16593 8.96554 8.58888 -0.095363 5.56571 25.6073
1639586 3.95652 4.19396 8.96554 8.57953 -0.144555 5.48417 25.6955
1639598 3.86087 4.14725 9.01785 8.57017 -0.157537 5.61407 25.5961
1639606 3.86087 4.14725 9.01785 8.57017 -0.157537 5.61407 25.5961
1639616 3.95652 4.14725 9.05969 8.58888 -0.271897 5.55957 25.7523
1639627 3.95652 4.14725 9.05969 8.58888 -0.271897 5.55957 25.7523
1639637 3.88696 4.15659 9.05969 8.57953 -0.204931 5.60434 25.6828
1639647 3.93913 4.23132 9.00738 8.53275 -0.177407 5.46644 25.7106
1639668 3.92174 4.2033 9.00738 8.53275 -0.188075 5.50265 25.6652
1639677 3.97391 4.22198 8.95508 8.5421 -0.160462 5.43023 25.6931
1639693 3.97391 4.22198 8.95508 8.5421 -0.160462 5.43023 25.6931
1639698 3.93043 4.24066 9.04923 8.57953 -0.154535 5.49867 25.7999
1639708 3.94783 4.2033 8.99692 8.53275 -0.203174 5.47795 25.6808
1639718 3.94783 4.2033 8.99692 8.53275 -0.203174 5.47795 25.6808
1639728 3.97391 4.2033 9.01785 8.53275 -0.248483 5.46493 25.7278
1639739 3.97391 4.2033 9.01785 8.53275 -0.248483 5.46493 25.7278
1639748 3.93913 4.23132 8.91323 8.5421 -0.0770122 5.43489 25.6258
1639761 3.97391 4.21264 8.95508 8.58888 -0.123852 5.45505 25.7305
1639778 3.93043 4.25 8.90277 8.52339 -0.0583977 5.41602 25.6066
1639791 3.98261 4.23132 8.93415 8.5421 -0.13949 5.4081 25.6902
1639799 3.98261 4.23132 8.93415 8.5421 -0.13949 5.4081 25.6902
1639809 3.98261 4.22198 8.95508 8.53275 -0.17803 5.41983 25.6924
1639819 3.98261 4.22198 8.95508 8.53275 -0.17803 5.41983 25.6924
1639830 3.93913 4.22198 8.87138 8.49532 -0.091289 5.40916 25.5278
1639839 3.93913 4.21264 8.93415 8.41112 -0.244667 5.40857 25.497
1639859 4 4.19396 8.90277 8.4579 -0.24547 5.38066 25.5546
1639869 3.97391 4.19396 8.92369 8.42983 -0.268225 5.3988 25.5214
1639891 4.0087 4.2967 8.93415 8.46725 -0.173974 5.30755 25.7068
1639911 4.02609 4.25 8.89231 8.47661 -0.18696 5.31848 25.645
1639923 4.0087 4.32473 8.90277 8.46725 -0.116217 5.27357 25.7034
1639945 4.05217 4.39011 8.90277 8.46725 -0.0945076 5.18807 25.8123
1639952 4.05217 4.30604 8.88185 8.43919 -0.183795 5.23544 25.6792
1639967 4.05217 4.30604 8.88185 8.43919 -0.183795 5.23544 25.6792
1639973 4.08696 4.38077 8.88185 8.40176 -0.180838 5.1352 25.7513
1639983 4.05217 4.32473 8.88185 8.38305 -0.220585 5.19932 25.6418
1639993 4.05217 4.32473 8.88185 8.38305 -0.220585 5.19932 25.6418
1640003 4.1913 4.33407 8.87138 8.40176 -0.316745 5.08621 25.7985
1640015 4.1913 4.33407 8.87138 8.40176 -0.316745 5.08621 25.7985
1640023 4.09565 4.30604 8.79815 8.42983 -0.154053 5.16566 25.6297
1640036 4.13913 4.2967 8.88185 8.39241 -0.322703 5.15659 25.7101
1640043 4.13913 4.2967 8.88185 8.39241 -0.322703 5.15659 25.7101
1640053 4.13913 4.37143 8.88185 8.31756 -0.322825 5.06934 25.71
1640064 4.09565 4.35275 8.86092 8.32691 -0.27004 5.11353 25.6362
1640080 4.09565 4.35275 8.86092 8.32691 -0.27004 5.11353 25.6362
1640084 4.13043 4.34341 8.88185 8.36434 -0.296012 5.11606 25.72
1640094 4.13043 4.34341 8.88185 8.36434 -0.296012 5.11606 25.72
1640106 4.14783 4.33407 8.86092 8.35498 -0.311022 5.09811 25.6978
1640124 4.13043 4.33407 8.92369 8.32691 -0.382218 5.12506 25.7151
1640134 4.13043 4.36209 8.81908 8.33627 -0.244811 5.0664 25.6479
1640146 4.16522 4.31538 8.88185 8.27078 -0.449517 5.07468 25.6332
1640156 4.16522 4.31538 8.88185 8.27078 -0.449517 5.07468 25.6332
1640166 4.09565 4.32473 8.89231 8.33627 -0.318693 5.15121 25.649
1640192 4.13043 4.30604 8.88185 8.38305 -0.31437 5.1525 25.7014
1640202 4.11304 4.27802 8.92369 8.33627 -0.411725 5.18628 25.651
1640209 4.11304 4.27802 8.92369 8.33627 -0.411725 5.18628 25.651
1640216 4.09565 4.27802 8.93415 8.33627 -0.405079 5.20397 25.6441
1640227 4.06957 4.34341 8.85046 8.31756 -0.25318 5.13372 25.581
1640236 4.06957 4.34341 8.85046 8.31756 -0.25318 5.13372 25.581
1640249 4.09565 4.35275 8.84 8.35498 -0.222206 5.11628 25.6434
1640256 4.09565 4.35275 8.84 8.35498 -0.222206 5.11628 25.6434
1640266 4.06957 4.31538 8.87138 8.39241 -0.227261 5.19256 25.6487
1640276 4.08696 4.33407 8.90277 8.33627 -0.311178 5.15471 25.6601
1640297 4.11304 4.35275 8.88185 8.33627 -0.29773 5.11156 25.6839
1640307 4.07826 4.30604 8.92369 8.33627 -0.350606 5.1916 25.6443
1640317 4.07826 4.30604 8.92369 8.33627 -0.350606 5.1916 25.6443
1640327 4.13043 4.35275 8.88185 8.34562 -0.305232 5.10155 25.7107
1640347 4.07826 4.34341 8.90277 8.32691 -0.30282 5.15062 25.6513
1640360 4.11304 4.33407 8.89231 8.32691 -0.335431 5.12663 25.6663
1640368 4.11304 4.33407 8.89231 8.32691 -0.335431 5.12663 25.6663
1640382 4.15652 4.34341 8.85046 8.28949 -0.364754 5.05464 25.6399
1640388 4.08696 4.28736 8.86092 8.37369 -0.280003 5.18977 25.6089
1640398 4.08696 4.28736 8.86092 8.37369 -0.280003 5.18977 25.6089
1640408 4.14783 4.34341 8.79815 8.42047 -0.177072 5.09186 25.7099
1640418 4.14783 4.34341 8.80862 8.42047 -0.187169 5.09589 25.7203
1640428 4.14783 4.32473 8.80862 8.34562 -0.279093 5.08161 25.6268
1640438 4.13043 4.33407 8.88185 8.41112 -0.259243 5.1413 25.7575
1640448 4.13043 4.33407 8.88185 8.41112 -0.259243 5.1413 25.7575
1640458 4.08696 4.33407 8.77723 8.34562 -0.180568 5.10993 25.5439
1640472 4.11304 4.30604 8.78769 8.34562 -0.243683 5.1155 25.5524
1640488 4.08696 4.33407 8.78769 8.32691 -0.209187 5.10674 25.5356
1640500 4.08696 4.33407 8.74585 8.32691 -0.168498 5.0905 25.4938
1640508 4.10435 4.31538 8.74585 8.38305 -0.148501 5.11329 25.5486
1640521 4.08696 4.35275 8.74585 8.42047 -0.0581741 5.11205 25.606
1640529 4.08696 4.35275 8.74585 8.42047 -0.0581741 5.11205 25.606
1640539 4.06087 4.35275 8.78769 8.41112 -0.0826731 5.14508 25.6124
1640549 4.11304 4.34341 8.75631 8.47661 -0.0480101 5.12457 25.6894
1640569 4.12174 4.35275 8.77723 8.44854 -0.0950202 5.1077 25.7003
1640581 4.15652 4.35275 8.76677 8.43919 -0.127706 5.07288 25.7152
1640591 4.15652 4.35275 8.76677 8.43919 -0.127706 5.07288 25.7152
1640601 4.13913 4.38077 8.78769 8.38305 -0.15862 5.05097 25.6906
1640611 4.13913 4.38077 8.78769 8.38305 -0.15862 5.05097 25.6906
1640623 4.11304 4.39011 8.62031 8.36434 0.0206947 4.9915 25.4878
1640633 4.15652 4.44615 8.74585 8.37369 -0.080204 4.96664 25.7222
1640641 4.15652 4.44615 8.74585 8.37369 -0.080204 4.96664 25.7222
1640654 4.07826 4.44615 8.704 8.42047 0.0822306 5.02949 25.6489
1640662 4.17391 4.35275 8.69354 8.37369 -0.137739 5.00543 25.5939
1640677 4.17391 4.35275 8.69354 8.37369 -0.137739 5.00543 25.5939
1640682 4.13913 4.39945 8.69354 8.34562 -0.0856161 4.98514 25.5777
1640692 4.13913 4.39945 8.69354 8.34562 -0.0856161 4.98514 25.5777
1640702 4.12174 4.39945 8.704 8.42983 0.00345409 5.03565 25.655
1640712 4.13043 4.41813 8.704 8.37369 -0.0415683 4.99242 25.6263
1640723 4.13043 4.41813 8.704 8.37369 -0.0415683 4.99242 25.6263
1640733 4.16522 4.39945 8.66215 8.37369 -0.0529543 4.96348 25.6005
1640744 4.13913 4.39011 8.75631 8.42047 -0.0825256 5.04602 25.706
1640767 4.13043 4.41813 8.73538 8.44854 0.000831485 5.03373 25.7325
1640773 4.13043 4.41813 8.73538 8.44854 0.000831485 5.03373 25.7325
1640782 4.06957 4.2967 8.704 8.38305 -0.0921428 5.13928 25.4533
1640793 4.09565 4.34341 8.77723 8.47661 -0.0514403 5.14624 25.6929
1640803 4.09565 4.34341 8.77723 8.47661 -0.0514403 5.14624 25.6929
1640815 4.07826 4.32473 8.81908 8.40176 -0.166693 5.1619 25.6238
1640823 4.09565 4.38077 8.82954 8.40176 -0.138734 5.10832 25.7077
1640852 4.04348 4.39011 8.78769 8.44854 0.00728667 5.14377 25.6698
1640854 4.04348 4.39011 8.78769 8.44854 0.00728667 5.14377 25.6698
1640864 4.04348 4.32473 8.86092 8.4579 -0.118521 5.22674 25.687
1640874 4.03478 4.28736 8.89231 8.50468 -0.131276 5.29266 25.7191
1640884 4.03478 4.28736 8.89231 8.50468 -0.131276 5.29266 25.7191
1640894 4.06957 4.30604 8.84 8.41112 -0.187699 5.19507 25.6267
1640906 3.9913 4.28736 8.82954 8.48597 -0.0464112 5.29623 25.5942
1640914 3.9913 4.28736 8.82954 8.48597 -0.0464112 5.29623 25.5942
1640929 4.04348 4.2967 8.94462 8.48597 -0.199281 5.29111 25.7708
1640944 3.96522 4.26868 8.89231 8.48597 -0.100417 5.35549 25.6122
1640954 4 4.30604 8.92369 8.51403 -0.100622 5.32071 25.7438
1640976 3.9913 4.25934 8.93415 8.48597 -0.175446 5.35793 25.6708
1640986 4.02609 4.23132 9.07015 8.50468 -0.348639 5.41035 25.8322
1640999 4.02609 4.23132 9.07015 8.50468 -0.348639 5.41035 25.8322
1641006 3.98261 4.25934 8.976 8.51403 -0.179964 5.39101 25.732
1641026 3.92174 4.2033 8.976 8.50468 -0.185275 5.4806 25.6057
1641038 3.93043 4.22198 8.98646 8.52339 -0.167102 5.46957 25.6623
1641046 3.93043 4.22198 8.98646 8.52339 -0.167102 5.46957 25.6623
1641056 3.97391 4.14725 8.99692 8.49532 -0.3204 5.48799 25.6134
1641068 3.94783 4.21264 9.04923 8.56081 -0.216916 5.50023 25.7705
1641076 3.94783 4.21264 9.04923 8.56081 -0.216916 5.50023 25.7705
1641086 3.93043 4.26868 9.02831 8.52339 -0.161812 5.44793 25.7508
1641106 3.89565 4.14725 9.08062 8.55146 -0.270259 5.60224 25.675
1641116 3.92174 4.19396 9.15385 8.57953 -0.292177 5.58106 25.8491
1641127 3.92174 4.19396 9.15385 8.57953 -0.292177 5.58106 25.8491
1641137 3.89565 4.17527 9.08062 8.49532 -0.297962 5.55916 25.6469
1641148 3.90435 4.09121 9.09108 8.55146 -0.343977 5.64413 25.6381
1641158 3.90435 4.09121 9.09108 8.55146 -0.343977 5.64413 25.6381
1641167 3.88696 4.17527 9.09108 8.57017 -0.226048 5.59742 25.7235
1641180 3.83478 4.12857 9.20615 8.57953 -0.323156 5.72196 25.749
1641187 3.83478 4.12857 9.20615 8.57953 -0.323156 5.72196 25.749
1641197 3.85217 4.10989 9.19569 8.58888 -0.33897 5.7226 25.7466
1641207 3.85217 4.10989 9.19569 8.58888 -0.33897 5.7226 25.7466
1641217 3.7913 4.11923 9.15385 8.60759 -0.212608 5.75583 25.672
1641227 3.82609 4.10989 9.21662 8.65438 -0.26973 5.77461 25.807
1641237 3.82609 4.10989 9.21662 8.65438 -0.26973 5.77461 25.807
1641249 3.84348 4.16593 9.15385 8.72922 -0.0986442 5.72 25.8925
1641258 3.7913 4.16593 9.12246 8.56081 -0.182344 5.68985 25.6405
1641274 3.7913 4.15659 9.12246 8.56081 -0.19152 5.69739 25.6312
1641278 3.85217 4.15659 9.07015 8.58888 -0.172251 5.63952 25.6678
1641298 3.86087 4.08187 9.112 8.65438 -0.230099 5.73161 25.7091
1641308 3.73043 4.10989 9.12246 8.62631 -0.11401 5.8082 25.5891
1641321 3.73043 4.10989 9.12246 8.62631 -0.11401 5.8082 25.5891
1641328 3.75652 4.11923 9.16431 8.65438 -0.143245 5.80452 25.6944
1641348 3.74783 4.07253 9.19569 8.70116 -0.165097 5.87729 25.7172
1641359 3.72174 4.05385 9.13292 8.66373 -0.134015 5.8781 25.5722
1641368 3.72174 4.05385 9.13292 8.66373 -0.134015 5.8781 25.5722
1641378 3.74783 4.06319 9.12246 8.76665 -0.039351 5.88213 25.7001
1641390 3.75652 4.10989 9.16431 8.76665 -0.0429213 5.85208 25.7974
1641398 3.75652 4.10989 9.16431 8.76665 -0.0429213 5.85208 25.7974
1641408 3.71304 4.11923 9.04923 8.776 0.129554 5.84213 25.6575
1641418 3.71304 4.11923 9.04923 8.776 0.129554 5.84213 25.6575
1641428 3.69565 4.05385 9.09108 8.79472 0.060302 5.93106 25.6353
1641438 3.73043 4.04451 9.02831 8.83214 0.114977 5.90132 25.6354
1641448 3.73043 4.04451 9.02831 8.83214 0.114977 5.90132 25.6354
1641459 3.72174 4.10989 9.00738 8.95377 0.324255 5.89091 25.7928
1641469 3.68696 4.03516 9.03877 8.95377 0.255895 5.99099 25.7147
1641489 3.68696 4.03516 9.03877 8.95377 0.255895 5.99099 25.7147
1641504 3.69565 4.10055 8.92369 8.96313 0.432512 5.89336 25.683
1641509 3.68696 4.12857 8.89231 8.98184 0.516886 5.87315 25.6897
1641519 3.67826 4.14725 8.84 9.03797 0.64871 5.8664 25.7035
1641529 3.67826 4.14725 8.84 9.03797 0.64871 5.8664 25.7035
1641539 3.69565 4.16593 8.81908 8.97248 0.607809 5.80629 25.6531
1641550 3.7913 4.16593 8.81908 8.91635 0.459176 5.70874 25.6927
1641572 3.78261 4.2033 8.84 8.93506 0.500509 5.69999 25.761
1641590 3.73913 4.13791 8.78769 8.9257 0.524408 5.76564 25.5904
1641599 3.8 4.15659 8.87138 8.98184 0.452393 5.75166 25.8098
1641609 3.8 4.15659 8.87138 8.98184 0.452393 5.75166 25.8098
1641621 3.75652 4.11923 8.89231 8.86021 0.322509 5.78078 25.6283
1641631 3.76522 4.15659 8.88185 8.90699 0.405005 5.75658 25.7106
1641641 3.76522 4.15659 8.88185 8.90699 0.405005 5.75658 25.7106
1641651 3.78261 4.16593 8.90277 8.83214 0.304377 5.71557 25.6835
1641664 3.78261 4.16593 8.90277 8.83214 0.304377 5.71557 25.6835
1641671 3.76522 4.11923 8.976 8.79472 0.168324 5.78028 25.6552
1641681 3.8 4.17527 8.96554 8.83214 0.234625 5.71669 25.773
1641691 3.8 4.17527 8.96554 8.83214 0.234625 5.71669 25.773
1641701 3.81739 4.10989 9.02831 8.71987 -0.0155225 5.73752 25.6755
1641711 3.81739 4.08187 9.00738 8.79472 0.0503987 5.77956 25.7014
