6584573 3.53987 4.29681 7.77984 8.23932 1.27476 5.14496 23.8558
6584581 3.53987 4.29681 7.77984 8.23932 1.27476 5.14496 23.8558
6584593 3.5485 4.25936 7.81138 8.21139 1.16538 5.17081 23.8306
6584619 3.58304 4.29681 7.80087 8.26725 1.232 5.12879 23.948
6584621 3.58304 4.29681 7.80087 8.26725 1.232 5.12879 23.948
6584622 3.46216 4.24064 7.75881 8.26725 1.35585 5.26148 23.7289
6584632 3.55714 4.25 7.65368 8.25794 1.36719 5.12536 23.7188
6584642 3.55714 4.25 7.65368 8.25794 1.36719 5.12536 23.7188
6584652 3.50533 4.21255 7.65368 8.25794 1.38755 5.20138 23.6295
6584665 3.50533 4.21255 7.65368 8.25794 1.38755 5.20138 23.6295
6584673 3.53123 4.19383 7.69573 8.23932 1.27449 5.20495 23.6601
6584682 3.4967 4.28745 7.66419 8.23932 1.44154 5.14152 23.6877
6584702 3.5226 4.32489 7.72727 8.30449 1.44425 5.14103 23.8793
6584712 3.48807 4.26872 7.76933 8.34173 1.41724 5.25033 23.8678
6584722 3.48807 4.26872 7.76933 8.34173 1.41724 5.25033 23.8678
6584733 3.55714 4.31553 7.77984 8.34173 1.37563 5.1568 23.9942
6584754 3.50533 4.24064 7.72727 8.34173 1.41693 5.24231 23.815
6584765 3.46216 4.17511 7.7483 8.35104 1.38572 5.34748 23.7366
6584775 3.46216 4.17511 7.7483 8.35104 1.38572 5.34748 23.7366
6584786 3.42763 4.17511 7.76933 8.30449 1.35434 5.36675 23.6766
6584796 3.45353 4.25936 7.7483 8.23001 1.35867 5.23322 23.6912
6584805 3.45353 4.25936 7.7483 8.23001 1.35867 5.23322 23.6912
6584815 3.45353 4.24064 7.80087 8.34173 1.39278 5.31643 23.8368
6584825 3.41899 4.23128 7.73779 8.29518 1.44583 5.30926 23.6832
6584845 3.46216 4.25 7.73779 8.27656 1.39782 5.24868 23.7265
6584855 3.46216 4.25 7.73779 8.27656 1.39782 5.24868 23.7265
6584866 3.43626 4.21255 7.65368 8.26725 1.4742 5.26445 23.5697
6584876 3.50533 4.21255 7.72727 8.29518 1.34279 5.24712 23.7403
6584886 3.50533 4.21255 7.72727 8.29518 1.34279 5.24712 23.7403
6584896 3.4449 4.25 7.69573 8.29518 1.48248 5.25379 23.6858
6584906 3.47943 4.19383 7.76933 8.34173 1.35258 5.32144 23.7843
6584926 3.4708 4.23128 7.84292 8.34173 1.31798 5.32675 23.8867
6584936 3.4708 4.23128 7.84292 8.34173 1.31798 5.32675 23.8867
6584946 3.42763 4.16575 7.89549 8.35104 1.25176 5.44454 23.8399
6584957 3.45353 4.23128 7.85343 8.32311 1.30695 5.33817 23.8613
6584967 3.45353 4.23128 7.85343 8.32311 1.30695 5.33817 23.8613
6584981 3.47943 4.16575 7.83241 8.25794 1.17109 5.33704 23.7355
6584987 3.4967 4.18447 7.85343 8.23001 1.11968 5.30343 23.7646
6584997 3.4967 4.18447 7.85343 8.23001 1.11968 5.30343 23.7646
6585009 3.4967 4.18447 7.86395 8.2207 1.09877 5.30393 23.7658
6585018 3.42763 4.15639 7.82189 8.19277 1.16494 5.35876 23.5987
6585028 3.42763 4.15639 7.82189 8.19277 1.16494 5.35876 23.5987
6585038 3.4449 4.25936 7.82189 8.17415 1.2307 5.2479 23.7003
6585048 3.4449 4.25936 7.82189 8.17415 1.2307 5.2479 23.7003
6585059 3.42763 4.10958 7.85343 8.23001 1.12034 5.42718 23.6207
6585069 3.4708 4.16575 7.94805 8.25794 1.05362 5.39128 23.8425
6585081 3.4708 4.16575 7.94805 8.25794 1.05362 5.39128 23.8425
6585089 3.58304 4.23128 7.83241 8.28587 1.15084 5.20459 23.9326
6585098 3.46216 4.16575 7.81138 8.14622 1.1007 5.29755 23.5855
6585110 3.46216 4.16575 7.81138 8.14622 1.1007 5.29755 23.5855
6585120 3.46216 4.18447 7.88497 8.21139 1.10425 5.33824 23.743
6585130 3.46216 4.18447 7.88497 8.21139 1.10425 5.33824 23.743
6585140 3.39309 4.15639 7.84292 8.13691 1.12337 5.37437 23.5293
6585150 3.5226 4.18447 7.906 8.18346 0.986838 5.28379 23.7965
6585170 3.46216 4.14703 7.906 8.20208 1.034 5.37513 23.7173
6585182 3.45353 4.19383 7.84292 8.18346 1.1414 5.30906 23.6737
6585201 3.4967 4.10958 7.92703 8.19277 0.925803 5.38238 23.7261
6585211 3.4967 4.10958 7.92703 8.19277 0.925803 5.38238 23.7261
6585221 3.45353 4.09086 7.94805 8.29518 1.03463 5.48532 23.7876
6585231 3.46216 4.16575 7.95857 8.20208 0.995332 5.38036 23.7886
6585241 3.46216 4.16575 7.95857 8.20208 0.995332 5.38036 23.7886
6585259 3.50533 4.13767 7.89549 8.27656 1.06383 5.37206 23.815
6585264 3.48807 4.18447 7.89549 8.28587 1.13901 5.35058 23.8539
6585272 3.48807 4.18447 7.89549 8.28587 1.13901 5.35058 23.8539
6585282 3.4708 4.17511 7.82189 8.20208 1.14545 5.30932 23.6699
6585303 3.45353 4.13767 7.91651 8.24863 1.06945 5.41368 23.7563
6585312 3.46216 4.13767 7.93754 8.24863 1.03695 5.41475 23.786
6585323 3.46216 4.13767 7.93754 8.24863 1.03695 5.41475 23.786
6585332 3.48807 4.13767 7.906 8.25794 1.0525 5.38356 23.7897
6585344 3.48807 4.20319 7.91651 8.23932 1.08812 5.32428 23.8471
6585362 3.45353 4.14703 7.87446 8.29518 1.17187 5.40745 23.7702
6585384 3.46216 4.16575 7.92703 8.26725 1.09542 5.39394 23.8222
6585396 3.48807 4.13767 7.83241 8.25794 1.13334 5.35372 23.7161
6585413 3.4967 4.16575 7.89549 8.27656 1.10148 5.35543 23.8345
6585424 3.46216 4.1283 7.82189 8.30449 1.21089 5.39864 23.7169
6585444 3.4967 4.20319 7.89549 8.25794 1.12034 5.31595 23.8533
6585464 3.46216 4.1283 7.906 8.23001 1.0433 5.40254 23.7265
6585473 3.46216 4.15639 7.84292 8.27656 1.18783 5.37172 23.738
6585495 3.45353 4.14703 7.92703 8.23932 1.05797 5.40612 23.7669
6585506 3.48807 4.17511 7.97959 8.28587 1.0378 5.39246 23.9286
6585515 3.48807 4.17511 7.97959 8.28587 1.0378 5.39246 23.9286
6585525 3.4708 4.19383 7.93754 8.14622 0.980821 5.3177 23.7484
6585535 3.45353 4.15639 7.96908 8.23001 1.012 5.41129 23.809
6585545 3.45353 4.15639 7.96908 8.23001 1.012 5.41129 23.809
6585555 3.4967 4.18447 7.97959 8.2207 0.97239 5.35088 23.8815
6585565 3.4967 4.18447 7.97959 8.2207 0.97239 5.35088 23.8815
6585575 3.4708 4.15639 7.94805 8.24863 1.03485 5.39553 23.8239
6585585 3.4449 4.11894 7.92703 8.24863 1.04852 5.44145 23.7395
6585595 3.4449 4.11894 7.92703 8.24863 1.04852 5.44145 23.7395
6585608 3.48807 4.1283 7.88497 8.23001 1.03795 5.37176 23.7314
6585626 3.43626 4.10958 7.89549 8.25794 1.09262 5.44801 23.6993
6585636 3.47943 4.16575 7.87446 8.21139 1.07797 5.33521 23.731
6585656 3.42763 4.1283 7.93754 8.21139 1.02777 5.43749 23.7049
6585666 3.40173 4.10022 8.00062 8.23001 0.977439 5.5169 23.7326
6585681 3.40173 4.10022 8.00062 8.23001 0.977439 5.5169 23.7326
6585687 3.43626 4.14703 7.94805 8.20208 1.01628 5.41442 23.7334
6585716 3.43626 4.14703 7.94805 8.20208 1.01628 5.41442 23.7334
6585727 3.41899 4.1283 7.95857 8.26725 1.07054 5.47584 23.7731
6585734 3.41036 4.10958 8.01113 8.30449 1.04107 5.53522 23.8356
6585738 3.41036 4.10958 8.01113 8.30449 1.04107 5.53522 23.8356
6585746 3.41899 4.07214 7.97959 8.30449 1.02842 5.54755 23.7752
6585747 3.46216 4.10022 8.01113 8.3138 0.984544 5.50243 23.8873
6585766 3.40173 4.14703 8.00062 8.3138 1.10891 5.50995 23.8632
6585787 3.38446 4.07214 7.93754 8.34173 1.15002 5.57553 23.7359
6585797 3.42763 4.07214 7.92703 8.29518 1.06722 5.51542 23.722
6585807 3.42763 4.07214 7.92703 8.29518 1.06722 5.51542 23.722
6585817 3.41899 4.02533 7.99011 8.30449 0.969633 5.59225 23.7389
6585827 3.33266 4.10958 8.01113 8.33242 1.15427 5.61342 23.7858
6585837 3.33266 4.10958 8.01113 8.33242 1.15427 5.61342 23.7858
6585849 3.40173 4.04405 7.97959 8.36966 1.08467 5.6126 23.795
6585859 3.31539 4.04405 8.00062 8.38828 1.17516 5.70321 23.7483
6585868 3.31539 4.04405 8.00062 8.38828 1.17516 5.70321 23.7483
6585878 3.35856 4.05341 7.93754 8.4069 1.22516 5.64003 23.7564
6585897 3.35856 4.05341 7.93754 8.4069 1.22516 5.64003 23.7564
6585901 3.28949 4.02533 7.93754 8.42552 1.29216 5.73209 23.6779
6585909 3.28949 4.05341 7.99011 8.4069 1.24339 5.72081 23.7399
6585929 3.33266 3.98789 7.97959 8.45345 1.18833 5.7544 23.7536
6585940 3.32402 3.98789 7.94805 8.49069 1.26997 5.76416 23.7507
6585948 3.32402 3.98789 7.94805 8.49069 1.26997 5.76416 23.7507
6585958 3.32402 4.02533 7.95857 8.52793 1.33273 5.75004 23.8358
6585969 3.32402 4.02533 7.95857 8.52793 1.33273 5.75004 23.8358
6585980 3.31539 4.06278 7.906 8.5 1.40996 5.6936 23.7842
6585988 3.30675 4.09086 7.89549 8.44414 1.40366 5.65062 23.7372
6586000 3.30675 4.09086 7.89549 8.44414 1.40366 5.65062 23.7372
6586009 3.35856 4.0815 7.87446 8.5 1.41561 5.62749 23.8145
6586021 3.32402 6.44053 7.89549 8.53724 3.5865 3.81805 26.1973
6586030 3.32402 4.04405 7.89549 8.53724 1.4304 5.71282 23.8008
6586040 3.30675 4.03469 7.88497 8.52793 1.44278 5.72829 23.7543
6586060 3.34129 3.99725 7.86395 8.52793 1.39056 5.72262 23.7304
6586070 3.24632 4.04405 7.91651 8.5 1.45656 5.77436 23.7069
6586080 3.24632 4.04405 7.91651 8.5 1.45656 5.77436 23.7069
6586090 3.36719 4.05341 7.906 8.52793 1.37097 5.66768 23.8545
6586100 3.31539 4.05341 7.93754 8.52793 1.39339 5.72495 23.8343
6586111 3.31539 4.02533 7.93754 8.52793 1.36554 5.7494 23.8062
6586120 3.29812 4.02533 7.91651 8.5 1.38026 5.74541 23.74
6586140 3.30675 4.03469 7.91651 8.5 1.37999 5.7297 23.758
6586150 3.32402 3.99725 7.96908 8.45345 1.21884 5.74967 23.7438
6586170 3.29812 4.10022 7.96908 8.46276 1.35939 5.68617 23.8302
6586181 3.31539 4.10022 7.95857 8.46276 1.35192 5.66708 23.8369
6586190 3.31539 4.02533 7.95857 8.43483 1.24947 5.72131 23.7341
6586204 3.31539 4.09086 7.94805 8.51862 1.40958 5.69291 23.8729
6586223 3.25495 4.06278 8.05318 8.48138 1.29549 5.7962 23.8523
6586231 3.29812 4.0815 7.95857 8.43483 1.32466 5.6874 23.773
6586243 3.29812 4.0815 7.95857 8.43483 1.32466 5.6874 23.773
6586252 3.30675 4.14703 7.96908 8.50931 1.4421 5.65637 23.9322
6586262 3.35856 4.10022 7.92703 8.34173 1.21838 5.56946 23.7275
6586272 3.35856 4.10022 7.92703 8.34173 1.21838 5.56946 23.7275
6586282 3.38446 4.14703 7.99011 8.38828 1.21366 5.55015 23.9099
6586292 3.38446 4.14703 7.99011 8.38828 1.21366 5.55015 23.9099
6586302 3.37583 4.07214 7.86395 8.37897 1.27828 5.56857 23.6909
6586312 3.33266 4.11894 7.89549 8.33242 1.29143 5.55943 23.6795
6586323 3.33266 4.11894 7.89549 8.33242 1.29143 5.55943 23.6795
6586332 3.35856 4.11894 7.906 8.36966 1.2883 5.55599 23.7532
6586345 3.33266 4.10958 7.93754 8.4069 1.30986 5.61377 23.7867
6586352 3.33266 4.10958 7.93754 8.4069 1.30986 5.61377 23.7867
6586363 3.34129 4.14703 7.89549 8.41621 1.39334 5.56095 23.8
6586372 3.34129 4.14703 7.89549 8.41621 1.39334 5.56095 23.8
6586384 3.38446 4.1283 7.87446 8.41621 1.35022 5.53149 23.8034
6586393 3.4449 4.16575 7.91651 8.39759 1.25595 5.45677 23.9247
6586404 3.4449 4.16575 7.91651 8.39759 1.25595 5.45677 23.9247
6586413 3.43626 4.15639 7.87446 8.36966 1.27464 5.4442 23.8368
6586425 3.38446 4.1283 7.89549 8.36966 1.28062 5.52133 23.7779
6586444 3.41036 4.14703 7.84292 8.39759 1.35657 5.47304 23.7979
6586456 3.41036 4.14703 7.84292 8.39759 1.35657 5.47304 23.7979
6586465 3.37583 4.0815 7.80087 8.34173 1.32049 5.52032 23.5999
6586475 3.37583 4.10958 7.79035 8.36035 1.37899 5.49919 23.6361
6586486 3.37583 4.10958 7.79035 8.36035 1.37899 5.49919 23.6361
6586495 3.41899 4.06278 7.83241 8.38828 1.26533 5.53039 23.7025
6586504 3.34992 4.11894 7.92703 8.35104 1.25599 5.56442 23.7469
6586520 3.34992 4.11894 7.92703 8.35104 1.25599 5.56442 23.7469
6586531 3.41036 4.16575 7.87446 8.43483 1.37716 5.48443 23.8854
6586545 3.37583 4.04405 7.87446 8.36966 1.22911 5.59346 23.664
6586557 3.36719 4.07214 7.906 8.34173 1.2039 5.57798 23.6871
6586565 3.36719 4.07214 7.906 8.34173 1.2039 5.57798 23.6871
6586575 3.37583 4.15639 7.82189 8.32311 1.35339 5.45638 23.6772
6586586 3.37583 4.13767 7.906 8.33242 1.2507 5.51004 23.7519
6586596 3.37583 4.13767 7.906 8.33242 1.2507 5.51004 23.7519
6586606 3.38446 4.14703 7.89549 8.36035 1.29001 5.50147 23.7873
6586616 3.38446 4.14703 7.89549 8.36035 1.29001 5.50147 23.7873
6586626 3.40173 4.10958 7.82189 8.33242 1.28708 5.4782 23.6656
6586637 3.41899 4.1283 7.83241 8.3138 1.25636 5.44384 23.6935
6586646 3.41899 4.1283 7.83241 8.3138 1.25636 5.44384 23.6935
6586658 3.37583 4.16575 7.80087 8.3138 1.37686 5.43604 23.6562
6586666 3.41036 4.1283 7.906 8.26725 1.13782 5.46218 23.7119
6586686 3.42763 4.14703 7.81138 8.28587 1.26087 5.40045 23.6719
6586706 3.4449 4.19383 7.75881 8.25794 1.319 5.31253 23.6555
6586719 3.4449 4.18447 7.83241 8.32311 1.29313 5.37704 23.7849
6586736 3.42763 4.22192 7.79035 8.27656 1.3498 5.32375 23.7165
6586746 3.47943 4.22192 7.75881 8.27656 1.3273 5.26654 23.7367
6586756 3.47943 4.22192 7.75881 8.27656 1.3273 5.26654 23.7367
6586767 3.47943 4.24064 7.79035 8.25794 1.29247 5.25587 23.7684
6586787 3.4708 4.21255 7.7483 8.23932 1.30199 5.26231 23.671
6586797 3.4967 4.31553 7.73779 8.24863 1.3968 5.15209 23.7986
6586817 3.50533 4.33425 7.62214 8.19277 1.47915 5.05739 23.6545
6586827 3.53987 4.35297 7.68522 8.19277 1.38895 5.03883 23.7708
6586837 3.53987 4.35297 7.68522 8.19277 1.38895 5.03883 23.7708
6586849 3.5485 4.36233 7.68522 8.2207 1.41635 5.03537 23.8168
6586861 3.47943 4.29681 7.66419 8.20208 1.43308 5.13273 23.6425
6586870 3.47943 4.29681 7.66419 8.20208 1.43308 5.13273 23.6425
6586880 3.5744 4.38106 7.5906 8.23932 1.5297 4.96595 23.7854
6586888 3.5744 4.38106 7.5906 8.23932 1.5297 4.96595 23.7854
6586900 3.51397 4.3717 7.51701 8.26725 1.69833 5.00546 23.6699
6586909 3.6003 4.39978 7.47495 8.28587 1.69437 4.89927 23.7609
6586919 3.6003 4.39978 7.47495 8.28587 1.69437 4.89927 23.7609
6586930 3.5226 4.44659 7.49598 8.29518 1.81309 4.93804 23.7603
6586941 3.5226 4.46531 7.40136 8.35104 1.9928 4.90589 23.7403
6586950 3.5226 4.46531 7.40136 8.35104 1.9928 4.90589 23.7403
6586961 3.47943 4.47467 7.39085 8.3138 2.02694 4.91396 23.6587
6586980 3.50533 4.38106 7.36982 8.3138 1.93011 4.96217 23.57
6586990 3.4708 4.46531 7.31725 8.35104 2.14822 4.91361 23.6044
6587000 3.4708 4.46531 7.31725 8.35104 2.14822 4.91361 23.6044
6587010 3.58304 4.52148 7.31725 8.28587 2.01101 4.74443 23.7076
6587020 3.58304 4.52148 7.34879 8.28587 1.97513 4.75805 23.7392
6587030 3.55714 4.49339 7.34879 8.29518 1.98637 4.80709 23.6945
6587040 3.58304 4.52148 7.30674 8.3138 2.05005 4.75196 23.7251
6587050 3.58304 4.52148 7.30674 8.3138 2.05005 4.75196 23.7251
6587060 3.66938 4.57764 7.38033 8.18346 1.79687 4.60932 23.8108
6587070 3.66074 4.59637 7.33828 8.13691 1.82689 4.56219 23.7323
6587080 3.66074 4.59637 7.33828 8.13691 1.82689 4.56219 23.7323
6587090 3.66074 4.55892 7.32777 8.0345 1.70142 4.54327 23.5819
6587110 3.66938 4.54956 7.40136 8.00657 1.57172 4.56408 23.6269
6587120 3.73845 4.54956 7.47495 7.92278 1.3288 4.50254 23.6857
6587130 3.73845 4.54956 7.47495 7.92278 1.3288 4.50254 23.6857
6587141 3.75571 4.587 7.52752 7.90416 1.2702 4.47265 23.7744
6587151 3.79025 4.56828 7.56957 7.78313 1.04549 4.4246 23.7112
6587161 3.79025 4.56828 7.56957 7.78313 1.04549 4.4246 23.7112
6587178 3.85069 4.56828 7.53803 7.77382 1.00437 4.35692 23.7308
6587181 3.83342 4.55892 7.51701 7.71796 0.980285 4.3441 23.6273
6587192 3.83342 4.55892 7.51701 7.71796 0.980285 4.3441 23.6273
6587202 3.87659 4.62445 7.49598 7.68072 0.984684 4.22908 23.6777
6587212 3.87659 4.62445 7.49598 7.68072 0.984684 4.22908 23.6777
6587222 3.84205 4.57764 7.45393 7.65279 0.992987 4.26352 23.5264
6587232 3.85932 4.61509 7.50649 7.63417 0.935259 4.23432 23.6151
6587242 3.85932 4.61509 7.50649 7.63417 0.935259 4.23432 23.6151
6587252 3.91976 4.72742 7.47495 7.64348 1.0269 4.08443 23.7656
6587262 3.91976 4.64317 7.39085 7.58762 0.977206 4.08782 23.5414
6587283 3.96293 4.68062 7.47495 7.64348 0.932395 4.08735 23.762
6587304 3.92839 4.65253 7.48547 7.61555 0.901771 4.12979 23.6819
6587314 3.91976 4.72742 7.51701 7.55969 0.896096 4.06522 23.7239
6587333 4.00609 4.7087 7.53803 7.44797 0.646123 3.96899 23.7008
6587344 3.92839 4.7087 7.54855 7.45728 0.728598 4.04058 23.6429
6587355 3.92839 4.7087 7.54855 7.45728 0.728598 4.04058 23.6429
6587365 3.98019 4.71806 7.54855 7.50383 0.729617 4.01302 23.7506
6587385 3.95429 4.69934 7.5906 7.50383 0.692981 4.0682 23.7481
6587397 3.91112 4.66189 7.62214 7.49452 0.657624 4.14335 23.6897
6587405 3.91112 4.66189 7.62214 7.49452 0.657624 4.14335 23.6897
6587415 3.94566 4.65253 7.60111 7.49452 0.63338 4.11338 23.6938
6587425 3.89385 4.65253 7.64317 7.46659 0.615177 4.16174 23.6561
6587435 3.89385 4.65253 7.64317 7.46659 0.615177 4.16174 23.6561
6587445 3.91112 4.62445 7.5906 7.53176 0.69162 4.17627 23.6579
6587456 3.91112 4.62445 7.5906 7.53176 0.69162 4.17627 23.6579
6587465 3.89385 4.59637 7.64317 7.50383 0.595647 4.22434 23.6372
6587475 3.89385 4.59637 7.70625 7.55969 0.585067 4.27829 23.7562
6587485 3.89385 4.59637 7.70625 7.55969 0.585067 4.27829 23.7562
6587497 3.84205 4.587 7.63265 7.54107 0.692049 4.28636 23.6028
6587505 3.91112 4.587 7.72727 7.51314 0.48629 4.26034 23.7385
6587515 3.91112 4.587 7.72727 7.51314 0.48629 4.26034 23.7385
6587525 3.91112 4.59637 7.73779 7.55038 0.523037 4.27432 23.7957
6587535 3.91112 4.59637 7.73779 7.55038 0.523037 4.27432 23.7957
6587545 3.90249 4.54956 7.68522 7.55038 0.540611 4.29563 23.6877
6587555 3.87659 4.59637 7.79035 7.51314 0.465342 4.30923 23.7764
6587565 3.87659 4.59637 7.79035 7.51314 0.465342 4.30923 23.7764
6587576 3.84205 4.59637 7.64317 7.49452 0.642249 4.26233 23.5761
6587585 3.87659 4.587 7.66419 7.50383 0.581908 4.25559 23.6316
6587606 3.90249 4.59637 7.69573 7.55038 0.577518 4.26233 23.745
6587617 3.90249 4.59637 7.69573 7.55038 0.577518 4.26233 23.745
6587626 3.87659 4.56828 7.71676 7.51314 0.515401 4.2989 23.6748
6587636 3.88522 4.62445 7.79035 7.569 0.542417 4.30454 23.869
6587646 3.88522 4.62445 7.79035 7.569 0.542417 4.30454 23.869
6587656 3.89385 4.57764 7.7483 7.55969 0.520599 4.31243 23.7795
6587667 3.88522 4.55892 7.70625 7.59693 0.59416 4.33251 23.7473
6587677 3.88522 4.55892 7.70625 7.59693 0.59416 4.33251 23.7473
6587687 3.86795 4.52148 7.75881 7.57831 0.498411 4.39235 23.7266
6587697 3.86795 4.52148 7.75881 7.57831 0.498411 4.39235 23.7266
6587710 3.82478 4.54956 7.70625 7.57831 0.630674 4.38115 23.6589
6587717 3.84205 4.56828 7.66419 7.62486 0.724599 4.35373 23.6994
6587727 3.84205 4.56828 7.66419 7.62486 0.724599 4.35373 23.6994
6587737 3.79025 4.47467 7.66419 7.61555 0.675079 4.46906 23.5447
6587749 3.79025 4.5402 7.71676 7.67141 0.742668 4.46341 23.7186
6587759 3.79025 4.5402 7.71676 7.67141 0.742668 4.46341 23.7186
6587769 3.79025 4.51211 7.73779 7.78313 0.805107 4.54506 23.8233
6587779 3.77298 4.51211 7.77984 7.78313 0.778291 4.57765 23.8481
6587788 3.77298 4.51211 7.77984 7.82968 0.825477 4.59796 23.8946
6587798 3.74708 4.48403 7.79035 7.80175 0.785318 4.63476 23.8232
6587818 3.74708 4.48403 7.79035 7.80175 0.785318 4.63476 23.8232
6587821 3.72118 4.47467 7.71676 7.87623 0.959447 4.66425 23.7888
6587829 3.70391 4.42786 7.71676 7.91347 0.968632 4.73348 23.762
6587848 3.65211 4.45595 7.72727 7.90416 1.03281 4.75371 23.7395
6587861 3.65211 4.45595 7.72727 7.90416 1.03281 4.75371 23.7395
6587868 3.63484 4.38106 7.66419 7.96933 1.1114 4.8316 23.6494
6587882 3.64347 4.39042 7.70625 7.95071 1.0462 4.82659 23.6909
6587890 3.64347 4.39042 7.70625 7.95071 1.0462 4.82659 23.6909
6587903 3.60894 4.38106 7.66419 8.01588 1.18695 4.87329 23.6701
6587910 3.59167 4.3717 7.72727 8.07174 1.18306 4.94625 23.7624
6587930 3.62621 4.43722 7.69573 8.08105 1.25454 4.85316 23.8402
6587940 3.5744 4.43722 7.69573 8.11829 1.34873 4.91218 23.8257
6587951 3.5744 4.36233 7.69573 8.11829 1.27416 4.97497 23.7508
6587961 3.58304 4.36233 7.66419 8.06243 1.2436 4.93067 23.672
6587972 3.58304 4.36233 7.66419 8.06243 1.2436 4.93067 23.672
6587981 3.5226 4.4185 7.72727 8.04381 1.27829 4.95314 23.7122
6587992 3.5226 4.32489 7.7483 8.07174 1.18911 5.05284 23.6675
6588001 3.5226 4.32489 7.7483 8.07174 1.18911 5.05284 23.6675
6588011 3.5485 4.38106 7.69573 8.10898 1.31224 4.97708 23.7343
6588022 3.56577 4.3717 7.67471 8.09967 1.29776 4.95759 23.7118
6588042 3.53123 4.34361 7.82189 8.1276 1.17326 5.08386 23.8243
6588053 3.53123 4.34361 7.82189 8.1276 1.17326 5.08386 23.8243
6588062 3.51397 4.36233 7.73779 8.19277 1.36867 5.07475 23.8069
6588073 3.5485 4.35297 7.76933 8.16484 1.2586 5.05505 23.8356
6588082 3.5485 4.35297 7.76933 8.16484 1.2586 5.05505 23.8356
6588092 3.47943 4.34361 7.70625 8.17415 1.40495 5.09885 23.7034
6588102 3.46216 4.34361 7.66419 8.2207 1.51743 5.11538 23.6907
6588112 3.46216 4.34361 7.66419 8.2207 1.51743 5.11538 23.6907
6588123 3.5226 4.33425 7.7483 8.28587 1.41185 5.13414 23.891
6588132 3.5226 4.33425 7.7483 8.28587 1.41185 5.13414 23.891
6588142 3.4708 4.31553 7.70625 8.20208 1.41442 5.14167 23.6947
6588152 3.47943 4.28745 7.83241 8.29518 1.32958 5.24852 23.8945
6588163 3.47943 4.28745 7.83241 8.29518 1.32958 5.24852 23.8945
6588174 3.47943 4.20319 7.80087 8.23932 1.22479 5.28451 23.7228
6588184 3.47943 4.27808 7.83241 8.23932 1.2648 5.23362 23.8292
6588193 3.47943 4.27808 7.83241 8.23932 1.2648 5.23362 23.8292
6588203 3.46216 4.25936 7.73779 8.20208 1.33286 5.20997 23.6614
6588223 3.41899 4.23128 7.7483 8.14622 1.285 5.25227 23.5448
6588234 3.39309 4.25936 7.77984 8.17415 1.335 5.27496 23.6064
6588243 3.39309 4.25936 7.77984 8.17415 1.335 5.27496 23.6064
6588254 3.41036 4.25936 7.80087 8.21139 1.32963 5.2841 23.682
6588264 3.45353 4.28745 7.76933 8.30449 1.43722 5.24853 23.8148
6588284 3.45353 4.31553 7.77984 8.32311 1.47167 5.23661 23.872
6588294 3.45353 4.31553 7.77984 8.32311 1.47167 5.23661 23.872
6588305 3.43626 4.31553 7.76933 8.26725 1.44734 5.22406 23.7884
6588315 3.43626 4.33425 7.71676 8.36035 1.61607 5.2248 23.8476
6588325 3.43626 4.33425 7.71676 8.36035 1.61607 5.2248 23.8476
6588335 3.4449 4.39978 7.60111 8.32311 1.76373 5.09881 23.7689
6588345 3.41036 4.34361 7.65368 8.28587 1.65176 5.18216 23.6935
6588365 3.42763 4.43722 7.64317 8.37897 1.82673 5.12242 23.887
6588375 3.42763 4.43722 7.64317 8.37897 1.82673 5.12242 23.887
6588386 3.41036 4.31553 7.61163 8.39759 1.78126 5.23486 23.7351
6588396 3.40173 4.34361 7.61163 8.36035 1.78204 5.20293 23.7173
6588408 3.40173 4.34361 7.61163 8.36035 1.78204 5.20293 23.7173
6588416 3.34992 4.36233 7.65368 8.38828 1.83863 5.25993 23.7542
6588427 3.36719 4.29681 7.72727 8.41621 1.69963 5.34254 23.8075
6588455 3.34992 4.27808 7.70625 8.47207 1.77892 5.38742 23.8063
6588456 3.34992 4.27808 7.70625 8.47207 1.77892 5.38742 23.8063
6588468 3.34129 4.25936 7.79035 8.39759 1.60299 5.41475 23.7886
6588476 3.33266 4.24064 7.84292 8.42552 1.563 5.47054 23.8417
6588487 3.33266 4.24064 7.84292 8.42552 1.563 5.47054 23.8417
6588496 3.23768 4.24064 7.80087 8.50931 1.79856 5.56898 23.7885
6588507 3.15998 4.24064 7.82189 8.57448 1.92592 5.67031 23.797
6588516 3.15998 4.24064 7.82189 8.57448 1.92592 5.67031 23.797
6588529 3.18588 4.25 7.87446 8.60241 1.87355 5.67123 23.9128
6588537 3.18588 4.25 7.87446 8.60241 1.87355 5.67123 23.9128
6588547 3.15998 4.16575 7.88497 8.60241 1.80909 5.77097 23.8131
6588556 3.12544 4.14703 7.88497 8.67689 1.90219 5.84622 23.8343
6588566 3.12544 4.14703 7.88497 8.67689 1.90219 5.84622 23.8343
6588576 3.08228 4.10958 7.906 8.73275 1.94504 5.94628 23.8306
6588586 3.04774 4.02533 7.906 8.7793 1.94762 6.06874 23.7584
6588607 3.05637 3.99725 7.95857 8.88171 1.95031 6.14382 23.8939
6588617 3.05637 3.99725 7.95857 8.88171 1.95031 6.14382 23.8939
6588627 3.00457 3.95044 7.92703 8.88171 1.99943 6.21981 23.7637
6588640 3.02184 3.93172 8.02164 8.88171 1.85475 6.25592 23.8569
6588657 2.95277 3.88491 7.96908 8.8724 1.93785 6.33709 23.6792
6588667 2.91823 3.913 7.94805 8.84447 2.00135 6.32497 23.6237
6588677 2.91823 3.913 7.94805 8.84447 2.00135 6.32497 23.6237
6588687 3.0132 3.88491 8.01113 8.8724 1.82175 6.29818 23.7816
6588708 2.9614 3.83811 8.00062 8.78861 1.76429 6.35243 23.5887
6588719 3.03047 3.90363 8.02164 8.89102 1.8268 6.27667 23.8468
6588728 3.03047 3.90363 8.02164 8.89102 1.8268 6.27667 23.8468
6588739 3.00457 3.913 8.05318 8.90033 1.83859 6.30634 23.8711
6588750 2.97867 3.92236 8.00062 8.89102 1.92716 6.29854 23.7927
6588757 2.97867 3.92236 8.00062 8.89102 1.92716 6.29854 23.7927
6588768 3.03047 3.89427 8.09524 8.8724 1.71703 6.30508 23.8924
6588778 3.03047 3.89427 8.09524 8.8724 1.71703 6.30508 23.8924
6588797 3.0132 3.88491 8.0637 8.84447 1.73534 6.30719 23.8063
6588812 3.06501 3.87555 8.0637 8.78861 1.61335 6.24877 23.7929
6588872 3.06501 3.87555 8.0637 8.78861 1.61335 6.24877 23.7929
6588873 3.02184 3.97852 8.10575 8.80723 1.73351 6.21784 23.9133
6588875 3.09091 3.86619 8.03216 8.76068 1.58296 6.21206 23.7499
6588879 3.03047 3.92236 8.11626 8.7793 1.63 6.25371 23.8484
6588879 3.03047 3.92236 8.11626 8.7793 1.63 6.25371 23.8484
6588880 3.05637 3.86619 8.09524 8.79792 1.58771 6.27984 23.8157
6588881 3.0132 3.92236 8.12678 8.7793 1.63755 6.27296 23.8416
6588888 3.0132 3.92236 8.12678 8.7793 1.63755 6.27296 23.8416
6588898 3.02184 3.89427 8.0637 8.79792 1.68924 6.27405 23.7777
6588910 3.02184 3.89427 8.12678 8.76999 1.59121 6.28693 23.8129
6588919 3.02184 3.89427 8.12678 8.76999 1.59121 6.28693 23.8129
6588929 3.02184 3.88491 8.13729 8.8724 1.67059 6.3364 23.9164
6588939 3.02184 3.88491 8.13729 8.8724 1.67059 6.3364 23.9164
6588951 3.03047 3.86619 8.1478 8.73275 1.49372 6.2984 23.7772
6588959 3.03911 3.82874 8.11626 8.71413 1.46372 6.30588 23.6982
6588970 3.03911 3.82874 8.11626 8.71413 1.46372 6.30588 23.6982
6588979 3.09091 3.86619 8.13729 8.76068 1.4658 6.25079 23.8551
6588988 3.09091 3.86619 8.13729 8.76068 1.4658 6.25079 23.8551
6588998 3.00457 3.88491 8.0637 8.70482 1.60777 6.26365 23.658
6589009 3.06501 3.913 8.05318 8.69551 1.57029 6.17702 23.7267
6589032 3.03911 3.93172 8.08472 8.73275 1.61911 6.20893 23.7883
6589040 3.08228 3.93172 8.21088 8.76999 1.46755 6.23063 23.9949
6589050 3.08228 3.93172 8.21088 8.76999 1.46755 6.23063 23.9949
6589060 3.11681 3.96916 8.16883 8.74206 1.48517 6.14137 23.9969
6589070 3.11681 3.96916 8.16883 8.74206 1.48517 6.14137 23.9969
6589079 3.10818 3.9598 8.20037 8.72344 1.43246 6.162 23.9918
6589099 3.15998 3.9598 8.10575 8.75137 1.50712 6.0917 23.9769
6589101 3.15998 3.9598 8.10575 8.75137 1.50712 6.0917 23.9769
6589111 3.09954 3.9598 8.09524 8.72344 1.5584 6.13074 23.878
6589120 3.09091 3.94108 8.1478 8.57448 1.34381 6.11909 23.7543
6589131 3.09091 3.94108 8.1478 8.57448 1.34381 6.11909 23.7543
6589141 3.06501 3.89427 8.1478 8.55586 1.30723 6.17699 23.6629
6589151 3.06501 3.87555 8.09524 8.55586 1.34705 6.17413 23.5917
6589161 3.06501 3.87555 8.09524 8.55586 1.34705 6.17413 23.5917
6589172 3.07364 3.92236 8.13729 8.54655 1.3281 6.13677 23.6798
6589181 3.07364 3.92236 8.13729 8.54655 1.3281 6.13677 23.6798
6589191 3.07364 3.98789 8.17934 8.55586 1.35603 6.09769 23.7967
6589201 3.12544 3.93172 8.15832 8.52793 1.23812 6.08322 23.7434
6589212 3.12544 3.93172 8.15832 8.52793 1.23812 6.08322 23.7434
6589223 3.18588 4.07214 8.24242 8.57448 1.26512 5.95571 24.0749
6589232 3.14271 3.913 8.2214 8.51862 1.12153 6.10465 23.7957
6589242 3.14271 3.913 8.2214 8.51862 1.12153 6.10465 23.7957
6589252 3.22042 3.98789 8.15832 8.44414 1.1059 5.91801 23.8108
6589273 3.13408 4.04405 8.10575 8.49069 1.36166 5.94226 23.7746
6589284 3.22905 4.03469 8.10575 8.43483 1.19172 5.84568 23.8043
6589292 3.22905 4.03469 8.10575 8.43483 1.19172 5.84568 23.8043
6589302 3.20315 4.10022 8.08472 8.36035 1.2345 5.77409 23.7484
6589312 3.25495 4.06278 8.0637 8.28587 1.088 5.72425 23.6673
6589323 3.25495 4.06278 8.0637 8.28587 1.088 5.72425 23.6673
6589332 3.31539 4.09086 8.02164 8.36966 1.18026 5.66343 23.7976
6589342 3.31539 4.09086 8.02164 8.36966 1.18026 5.66343 23.7976
6589352 3.30675 4.19383 7.99011 8.29518 1.253 5.53986 23.7859
6589363 3.38446 4.19383 7.89549 8.16484 1.14085 5.38232 23.6386
6589372 3.38446 4.19383 7.89549 8.16484 1.14085 5.38232 23.6386
6589384 3.43626 4.26872 7.77984 8.19277 1.31495 5.23763 23.6776
6589393 3.46216 4.30617 7.82189 8.16484 1.24916 5.18946 23.7551
6589405 3.46216 4.30617 7.82189 8.16484 1.24916 5.18946 23.7551
6589414 3.55714 4.3717 7.76933 8.11829 1.22135 5.01258 23.8164
6589424 3.55714 4.3717 7.76933 8.11829 1.22135 5.01258 23.8164
6589433 3.62621 4.45595 7.66419 7.98795 1.21501 4.78421 23.7343
6589444 3.66938 4.45595 7.60111 7.97864 1.22769 4.71698 23.7051
6589454 3.66938 4.45595 7.60111 7.97864 1.22769 4.71698 23.7051
6589464 3.70391 4.55892 7.56957 7.9414 1.29012 4.57319 23.7738
6589473 3.70391 4.55892 7.56957 7.9414 1.29012 4.57319 23.7738
6589485 3.72118 4.51211 7.5906 7.8483 1.10746 4.56587 23.6722
6589493 3.72981 4.62445 7.56957 7.91347 1.29895 4.4859 23.8373
6589503 3.72981 4.62445 7.56957 7.91347 1.29895 4.4859 23.8373
6589515 3.74708 4.59637 7.4329 7.91347 1.40341 4.43414 23.6898
6589528 3.77298 4.56828 7.44341 7.85761 1.27896 4.41567 23.6423
6589535 3.77298 4.56828 7.44341 7.85761 1.27896 4.41567 23.6423
6589545 3.75571 4.56828 7.48547 7.88554 1.27943 4.46107 23.695
6589555 3.75571 4.5402 7.4329 7.93209 1.35633 4.48149 23.6609
6589575 3.74708 4.51211 7.54855 7.96933 1.24681 4.57921 23.7771
6589586 3.74708 4.51211 7.54855 7.96933 1.24681 4.57921 23.7771
6589595 3.66938 4.52148 7.46444 7.98795 1.45455 4.60694 23.6432
6589605 3.69528 4.53084 7.53803 8.01588 1.38079 4.62224 23.78
6589615 3.69528 4.53084 7.53803 8.01588 1.38079 4.62224 23.78
6589625 3.62621 4.45595 7.47495 7.96002 1.39771 4.68987 23.5171
6589635 3.59167 4.44659 7.54855 8.10898 1.49325 4.82318 23.6958
6589645 3.59167 4.44659 7.54855 8.10898 1.49325 4.82318 23.6958
6589655 3.55714 4.48403 7.65368 8.09036 1.43322 4.85777 23.7852
6589665 3.55714 4.48403 7.65368 8.09036 1.43322 4.85777 23.7852
6589675 3.5744 4.39978 7.64317 8.17415 1.42526 4.94492 23.7915
6589688 3.5744 4.40914 7.62214 8.20208 1.48552 4.93999 23.8078
6589696 3.5744 4.40914 7.62214 8.20208 1.48552 4.93999 23.8078
6589706 3.56577 4.39978 7.65368 8.21139 1.46002 4.97229 23.8306
6589721 3.56577 4.39978 7.65368 8.21139 1.46002 4.97229 23.8306
6589730 3.48807 4.40914 7.58009 8.16484 1.59231 4.97907 23.6421
6589738 3.50533 4.39978 7.56957 8.23001 1.63985 4.99551 23.7047
6589746 3.50533 4.39978 7.56957 8.23001 1.63985 4.99551 23.7047
6589756 3.4967 4.38106 7.61163 8.24863 1.60224 5.04412 23.738
6589769 3.4967 4.35297 7.56957 8.21139 1.58491 5.03454 23.6306
6589776 3.4967 4.35297 7.56957 8.21139 1.58491 5.03454 23.6306
6589786 3.5485 4.44659 7.52752 8.24863 1.70289 4.90996 23.7712
6589806 3.47943 4.39978 7.52752 8.18346 1.67049 4.97989 23.5902
6589816 3.48807 4.45595 7.53803 8.27656 1.79557 4.96909 23.7586
6589836 3.5226 4.45595 7.55906 8.2207 1.67835 4.92536 23.7583
6589846 3.53123 4.50275 7.49598 8.19277 1.75813 4.84014 23.7227
6589857 3.53123 4.50275 7.49598 8.19277 1.75813 4.84014 23.7227
6589867 3.59167 4.5402 7.48547 8.23932 1.78397 4.77409 23.8567
6589877 3.55714 4.5402 7.4329 8.18346 1.82766 4.75613 23.7137
6589887 3.55714 4.46531 7.4329 8.18346 1.75425 4.81872 23.6388
6589897 3.6003 4.45595 7.45393 8.23932 1.72744 4.82347 23.7495
6589907 3.6003 4.45595 7.45393 8.23932 1.72744 4.82347 23.7495
6589917 3.55714 4.48403 7.40136 8.19277 1.81752 4.79344 23.6353
6589927 3.53123 4.48403 7.34879 8.23932 1.95239 4.81256 23.6034
6589937 3.53123 4.48403 7.34879 8.23932 1.95239 4.81256 23.6034
6589947 3.61757 4.5402 7.4329 8.2207 1.79581 4.72201 23.8114
6589957 3.61757 4.5402 7.4329 8.2207 1.79581 4.72201 23.8114
6589967 3.53123 4.50275 7.30674 8.19277 1.9733 4.75845 23.5335
6589977 3.5744 4.52148 7.36982 8.25794 1.93393 4.76226 23.7236
6589987 3.5744 4.52148 7.36982 8.25794 1.93393 4.76226 23.7236
6589997 3.59167 4.5402 7.38033 8.28587 1.9477 4.74892 23.7981
6590009 3.6003 4.59637 7.34879 8.30449 2.04587 4.6897 23.85
6590029 3.64347 4.53084 7.42239 8.23932 1.78752 4.71182 23.836
6590039 3.64347 4.53084 7.42239 8.23932 1.78752 4.71182 23.836
6590049 3.66938 4.44659 7.36982 8.1276 1.62513 4.68895 23.6134
6590059 3.68664 4.51211 7.30674 8.15553 1.76901 4.60473 23.661
6590068 3.68664 4.51211 7.30674 8.15553 1.76901 4.60473 23.661
6590079 3.71254 4.55892 7.31725 8.10898 1.72813 4.52877 23.6977
6590089 3.66074 4.587 7.24366 8.09036 1.87959 4.50747 23.5818
6590099 3.66074 4.587 7.24366 8.09036 1.87959 4.50747 23.5818
6590108 3.72981 4.56828 7.22263 8.02519 1.74237 4.42735 23.5459
6590118 3.72981 4.56828 7.22263 8.02519 1.74237 4.42735 23.5459
6590128 3.72118 4.51211 7.23315 8.06243 1.72152 4.50231 23.5289
6590138 3.76435 4.56828 7.2752 8.08105 1.69888 4.44742 23.6889
6590149 3.76435 4.56828 7.2752 8.08105 1.69888 4.44742 23.6889
6590159 3.72981 4.52148 7.23315 8.02519 1.68411 4.47075 23.5096
6590169 3.75571 4.57764 7.30674 8.02519 1.62726 4.43598 23.6653
6590180 3.75571 4.57764 7.30674 8.02519 1.62726 4.43598 23.6653
6590199 3.71254 4.54956 7.24366 8.01588 1.71038 4.46234 23.5216
6590210 3.76435 4.5402 7.33828 8.11829 1.63698 4.51496 23.7611
6590220 3.73845 4.51211 7.40136 8.10898 1.55854 4.58302 23.7609
6590231 3.73845 4.51211 7.40136 8.10898 1.55854 4.58302 23.7609
6590240 3.67801 4.54956 7.35931 8.1276 1.72874 4.59171 23.7145
6590250 3.72981 4.53084 7.35931 8.10898 1.63376 4.55623 23.7289
6590260 3.72981 4.53084 7.35931 8.10898 1.63376 4.55623 23.7289
6590271 3.67801 4.50275 7.42239 8.16484 1.64843 4.67423 23.768
6590280 3.67801 4.50275 7.42239 8.16484 1.64843 4.67423 23.768
6590290 3.63484 4.39978 7.30674 8.10898 1.67074 4.72132 23.4503
6590300 3.63484 4.51211 7.45393 8.13691 1.64322 4.70382 23.7378
6590311 3.63484 4.51211 7.45393 8.13691 1.64322 4.70382 23.7378
6590321 3.69528 4.47467 7.42239 8.21139 1.64722 4.70336 23.8037
6590332 3.5744 4.39978 7.49598 8.14622 1.56207 4.87036 23.6164
6590340 3.5744 4.39978 7.49598 8.14622 1.56207 4.87036 23.6164
6590352 3.66074 4.46531 7.52752 8.19277 1.54093 4.77699 23.8463
6590379 3.62621 4.39978 7.50649 8.18346 1.52908 4.84735 23.7159
6590380 3.6003 4.4185 7.52752 8.21139 1.58061 4.87427 23.7577
6590392 3.6003 4.4185 7.52752 8.21139 1.58061 4.87427 23.7577
6590401 3.64347 4.39042 7.51701 8.26725 1.57148 4.88096 23.8181
6590413 3.58304 4.36233 7.54855 8.27656 1.58527 4.97239 23.7705
6590421 3.58304 4.36233 7.54855 8.27656 1.58527 4.97239 23.7705
6590431 3.59167 4.39978 7.55906 8.3138 1.63723 4.95389 23.8643
6590451 3.53123 4.31553 7.61163 8.27656 1.52647 5.08201 23.735
6590461 3.5485 4.34361 7.63265 8.36035 1.59389 5.08741 23.8851
6590471 3.5485 4.34361 7.63265 8.36035 1.59389 5.08741 23.8851
6590481 3.5744 4.34361 7.66419 8.27656 1.44766 5.04389 23.8588
6590491 3.5485 4.31553 7.63265 8.23001 1.4376 5.05673 23.7267
6590501 3.5485 4.31553 7.63265 8.23001 1.4376 5.05673 23.7267
6590511 3.5485 4.31553 7.60111 8.29518 1.53733 5.0708 23.7603
6590521 3.5485 4.31553 7.60111 8.29518 1.53733 5.0708 23.7603
6590532 3.5226 4.25936 7.61163 8.23001 1.4341 5.11756 23.6236
6590541 3.51397 4.31553 7.58009 8.3138 1.61789 5.09902 23.7234
6590555 3.51397 4.31553 7.58009 8.3138 1.61789 5.09902 23.7234
6590561 3.6003 4.40914 7.55906 8.28587 1.60939 4.92707 23.8544
6590571 3.5485 4.30617 7.58009 8.26725 1.52395 5.05822 23.702
6590581 3.5485 4.30617 7.58009 8.26725 1.52395 5.05822 23.702
6590591 3.59167 4.34361 7.63265 8.23001 1.41746 4.99668 23.7979
6590601 3.59167 4.34361 7.63265 8.23001 1.41746 4.99668 23.7979
6590611 3.55714 4.36233 7.5906 8.29518 1.58555 5.01968 23.8053
6590621 3.5485 4.28745 7.58009 8.29518 1.53307 5.08577 23.7112
6590632 3.5485 4.28745 7.58009 8.29518 1.53307 5.08577 23.7112
6590642 3.6003 4.35297 7.5906 8.29518 1.52822 4.99129 23.8391
6590652 3.6003 4.35297 7.5906 8.29518 1.52822 4.99129 23.8391
6590663 3.4967 4.33425 7.55906 8.24863 1.61507 5.06167 23.6386
6590672 3.47943 4.31553 7.60111 8.27656 1.5963 5.12155 23.6726
6590682 3.47943 4.31553 7.60111 8.27656 1.5963 5.12155 23.6726
6590692 3.50533 4.31553 7.64317 8.33242 1.57529 5.1403 23.7964
6590702 3.48807 4.25936 7.63265 8.38828 1.60605 5.22134 23.7684
6590712 3.48807 4.25936 7.63265 8.38828 1.60605 5.22134 23.7684
6590722 3.45353 4.20319 7.66419 8.36966 1.53556 5.30409 23.6906
6590742 3.39309 4.21255 7.69573 8.47207 1.67813 5.40234 23.7735
6590752 3.37583 4.11894 7.7483 8.5 1.57395 5.53016 23.7431
6590772 3.34129 4.13767 7.76933 8.45345 1.56159 5.53366 23.7017
6590783 3.27222 4.0815 7.81138 8.5 1.58239 5.67777 23.6651
6590792 3.27222 4.0815 7.81138 8.5 1.58239 5.67777 23.6651
6590804 3.31539 4.1283 7.89549 8.58379 1.56881 5.66542 23.923
6590812 3.31539 4.1283 7.89549 8.58379 1.56881 5.66542 23.923
6590824 3.25495 4.03469 7.82189 8.5931 1.6357 5.77441 23.7046
6590832 3.17725 4.0815 7.85343 8.60241 1.74284 5.81737 23.7146
6590852 3.20315 4.09086 7.94805 8.5931 1.60766 5.81944 23.8352
6590865 3.22905 4.10958 7.93754 8.63965 1.65439 5.79442 23.9158
6590872 3.22905 4.10958 7.93754 8.63965 1.65439 5.79442 23.9158
6590884 3.25495 4.10022 7.88497 8.66758 1.70225 5.77055 23.9077
6590894 3.25495 4.10022 7.88497 8.66758 1.70225 5.77055 23.9077
6590905 3.25495 4.0815 7.91651 8.60241 1.58501 5.77384 23.8554
6590914 3.24632 4.06278 7.88497 8.63034 1.63889 5.79629 23.8244
6590924 3.24632 4.06278 7.88497 8.63034 1.63889 5.79629 23.8244
6590934 3.22905 4.11894 7.88497 8.60241 1.68586 5.75157 23.8354
6590946 3.21178 4.10022 7.91651 8.58379 1.63331 5.78795 23.8123
6590954 3.21178 4.10022 7.91651 8.58379 1.63331 5.78795 23.8123
6590964 3.21178 4.11894 7.85343 8.56517 1.70415 5.73987 23.7493
6590975 3.21178 4.11894 7.85343 8.56517 1.70415 5.73987 23.7493
6590988 3.24632 4.10022 7.83241 8.50931 1.61557 5.69597 23.6883
6591000 3.28949 4.13767 7.93754 8.54655 1.52354 5.6816 23.9112
6591018 3.28085 4.17511 7.79035 8.52793 1.71597 5.59155 23.7742
6591027 3.26359 4.17511 7.80087 8.45345 1.65039 5.58115 23.693
6591048 3.29812 4.14703 7.83241 8.48138 1.57612 5.59914 23.7589
6591065 3.30675 4.16575 7.83241 8.44414 1.5482 5.56067 23.7491
6591076 3.34129 4.17511 7.88497 8.46276 1.4788 5.55101 23.8641
6591086 3.34129 4.17511 7.88497 8.46276 1.4788 5.55101 23.8641
6591096 3.25495 4.13767 7.80087 8.41621 1.58627 5.60646 23.6097
6591106 3.28085 4.1283 7.906 8.44414 1.45795 5.64473 23.7593
6591116 3.28085 4.1283 7.906 8.44414 1.45795 5.64473 23.7593
6591126 3.32402 4.25 7.85343 8.39759 1.54264 5.46295 23.825
6591136 3.32402 4.25 7.85343 8.39759 1.54264 5.46295 23.825
6591146 3.28085 4.1283 7.87446 8.49069 1.53914 5.65063 23.7743
6591158 3.28949 4.16575 7.79035 8.48138 1.65138 5.57372 23.727
6591166 3.28949 4.16575 7.79035 8.48138 1.65138 5.57372 23.727
6591176 3.28085 4.15639 7.85343 8.47207 1.57197 5.61063 23.7627
6591186 3.27222 4.16575 7.91651 8.51862 1.56623 5.65312 23.8731
6591196 3.27222 4.16575 7.91651 8.51862 1.56623 5.65312 23.8731
6591206 3.26359 4.10022 7.91651 8.51862 1.51135 5.71748 23.7989
6591216 3.26359 4.10022 7.91651 8.51862 1.51135 5.71748 23.7989
6591226 3.26359 4.11894 7.89549 8.5 1.5349 5.68569 23.778
6591236 3.18588 4.13767 7.93754 8.56517 1.65722 5.77881 23.8263
6591246 3.18588 4.13767 7.93754 8.56517 1.65722 5.77881 23.8263
6591259 3.25495 4.01597 7.94805 8.56517 1.44859 5.82886 23.7841
6591266 3.18588 4.05341 7.93754 8.62103 1.62937 5.87402 23.7979
6591277 3.18588 4.05341 7.93754 8.62103 1.62937 5.87402 23.7979
6591287 3.22905 4.06278 7.906 8.61172 1.61642 5.81231 23.8095
6591297 3.22905 4.06278 7.906 8.61172 1.61642 5.81231 23.8095
6591307 3.12544 4.03469 7.99011 8.67689 1.6746 5.98489 23.8271
6591317 3.16861 4.09086 8.04267 8.6862 1.63181 5.92125 23.9883
6591327 3.16861 4.09086 8.04267 8.6862 1.63181 5.92125 23.9883
6591337 3.20315 4.05341 7.92703 8.65827 1.65833 5.86913 23.8419
6591347 3.19451 4.02533 7.93754 8.62103 1.5921 5.89109 23.7784
6591357 3.19451 4.02533 7.93754 8.62103 1.5921 5.89109 23.7784
6591368 3.16861 4.10958 7.97959 8.6862 1.72024 5.88097 23.944
6591377 3.16861 4.10958 7.97959 8.6862 1.72024 5.88097 23.944
6591387 3.15998 4.09086 7.88497 8.5931 1.7268 5.83291 23.7289
6591398 3.17725 4.04405 7.81138 8.58379 1.73525 5.82678 23.6165
6591409 3.17725 4.04405 7.81138 8.58379 1.73525 5.82678 23.6165
6591421 3.21178 4.10958 7.83241 8.63034 1.78242 5.76522 23.7841
6591429 3.24632 4.15639 7.83241 8.57448 1.73475 5.67262 23.8096
6591442 3.24632 4.15639 7.83241 8.57448 1.73475 5.67262 23.8096
6591449 3.28085 4.17511 7.85343 8.49069 1.60873 5.60176 23.8001
6591459 3.28085 4.17511 7.85343 8.49069 1.60873 5.60176 23.8001
6591470 3.22042 4.19383 7.82189 8.51862 1.75769 5.63651 23.7548
6591479 3.34129 4.27808 7.81138 8.5 1.69804 5.44822 23.9308
6591489 3.34129 4.27808 7.81138 8.5 1.69804 5.44822 23.9308
6591499 3.32402 4.28745 7.75881 8.45345 1.73993 5.41527 23.8237
6591508 3.28949 4.24064 7.7483 8.49069 1.78124 5.49591 23.7691
6591519 3.28949 4.24064 7.7483 8.49069 1.78124 5.49591 23.7691
6591529 3.33266 4.31553 7.77984 8.4069 1.68863 5.37356 23.8349
6591538 3.33266 4.31553 7.77984 8.4069 1.68863 5.37356 23.8349
6591549 3.34129 4.23128 7.66419 8.36966 1.68964 5.37647 23.6064
6591558 3.32402 4.33425 7.82189 8.4069 1.66956 5.3819 23.8871
6591568 3.32402 4.33425 7.82189 8.4069 1.66956 5.3819 23.8871
6591578 3.38446 4.29681 7.73779 8.32311 1.57702 5.29415 23.7422
6591588 3.37583 4.33425 7.75881 8.35104 1.62747 5.28955 23.8199
6591599 3.37583 4.33425 7.75881 8.35104 1.62747 5.28955 23.8199
6591608 3.36719 4.26872 7.85343 8.4069 1.5222 5.41367 23.8962
6591630 3.34129 4.21255 7.7483 8.39759 1.60398 5.43806 23.6997
6591639 3.31539 4.27808 7.83241 8.5 1.70348 5.47875 23.9259
6591649 3.31539 4.27808 7.83241 8.5 1.70348 5.47875 23.9259
6591665 3.34129 4.23128 7.75881 8.42552 1.63815 5.43743 23.7569
6591670 3.33266 4.26872 7.83241 8.34173 1.51983 5.40856 23.7755
6591681 3.33266 4.26872 7.83241 8.34173 1.51983 5.40856 23.7755
6591690 3.38446 4.25936 7.82189 8.36966 1.49218 5.37923 23.8354
6591700 3.38446 4.25936 7.82189 8.36966 1.49218 5.37923 23.8354
6591710 3.30675 4.18447 7.87446 8.42552 1.50137 5.55379 23.7912
6591720 3.27222 4.19383 7.84292 8.42552 1.58442 5.56303 23.7345
6591730 3.27222 4.19383 7.84292 8.42552 1.58442 5.56303 23.7345
6591740 3.33266 4.17511 7.88497 8.49069 1.51587 5.56949 23.8834
6591750 3.28949 4.16575 7.91651 8.42552 1.45528 5.60156 23.7973
6591760 3.28949 4.16575 7.91651 8.42552 1.45528 5.60156 23.7973
6591770 3.30675 4.16575 7.91651 8.52793 1.537 5.62694 23.9169
6591780 3.30675 4.16575 7.91651 8.52793 1.537 5.62694 23.9169
6591790 3.28085 4.10958 7.87446 8.45345 1.48379 5.65226 23.7183
6591800 3.28949 4.11894 7.91651 8.45345 1.43659 5.65316 23.7784
6591810 3.28949 4.11894 7.91651 8.45345 1.43659 5.65316 23.7784
6591820 3.31539 4.13767 7.94805 8.45345 1.39143 5.62688 23.8546
6591830 3.31539 4.13767 7.94805 8.45345 1.39143 5.62688 23.8546
6591840 3.23768 4.13767 7.94805 8.36966 1.39449 5.66138 23.6931
6591850 3.27222 4.16575 7.99011 8.47207 1.43879 5.6637 23.9001
6591862 3.27222 4.16575 7.99011 8.47207 1.43879 5.6637 23.9001
6591870 3.26359 4.11894 7.99011 8.46276 1.3929 5.70811 23.8354
6591881 3.29812 4.10022 7.91651 8.44414 1.39918 5.65826 23.759
6591903 3.30675 4.1283 7.92703 8.5 1.46103 5.65246 23.8621
6591911 3.30675 4.1283 7.92703 8.5 1.46103 5.65246 23.8621
6591921 3.29812 4.14703 7.97959 8.41621 1.34802 5.63148 23.841
6591931 3.32402 4.19383 7.95857 8.49069 1.46235 5.58979 23.9671
6591941 3.32402 4.19383 7.95857 8.49069 1.46235 5.58979 23.9671
6591952 3.32402 4.15639 7.93754 8.48138 1.43959 5.6101 23.8993
6591961 3.33266 4.15639 7.89549 8.47207 1.46743 5.58243 23.8566
6591971 3.33266 4.15639 7.89549 8.47207 1.46743 5.58243 23.8566
6591981 3.30675 4.18447 7.87446 8.4069 1.48297 5.54639 23.7726
6591994 3.30675 4.18447 7.87446 8.4069 1.48297 5.54639 23.7726
6592001 3.28085 4.24064 7.91651 8.37897 1.49289 5.52589 23.817
6592012 3.28949 4.22192 7.86395 8.33242 1.47726 5.49501 23.7078
6592021 3.28949 4.22192 7.86395 8.33242 1.47726 5.49501 23.7078
6592035 3.31539 4.18447 7.82189 8.32311 1.44883 5.48437 23.6449
6592042 3.36719 4.25936 7.77984 8.27656 1.46613 5.33919 23.683
6592057 3.36719 4.25936 7.77984 8.27656 1.46613 5.33919 23.683
6592062 3.36719 4.24064 7.76933 8.27656 1.45926 5.35099 23.6537
6592082 3.38446 4.24064 7.79035 8.34173 1.48119 5.37121 23.7572
6592092 3.45353 4.27808 7.81138 8.3138 1.39056 5.27747 23.8568
6592104 3.45353 4.27808 7.81138 8.3138 1.39056 5.27747 23.8568
6592114 3.40173 4.26872 7.82189 8.26725 1.38087 5.31492 23.7596
6592127 3.38446 4.31553 7.81138 8.3138 1.50418 5.30438 23.8252
6592134 3.38446 4.31553 7.81138 8.3138 1.50418 5.30438 23.8252
6592144 3.43626 4.31553 7.77984 8.27656 1.44487 5.2322 23.8082
6592154 3.34992 4.27808 7.82189 8.28587 1.46629 5.35885 23.7358
6592174 3.4449 4.24064 7.75881 8.30449 1.41209 5.29148 23.7488
6592184 3.4449 4.24064 7.75881 8.30449 1.41209 5.29148 23.7488
6592196 3.37583 4.27808 7.79035 8.39759 1.58282 5.36915 23.8419
6592204 3.35856 4.24064 7.83241 8.36035 1.48162 5.41794 23.792
6592214 3.35856 4.24064 7.83241 8.36035 1.48162 5.41794 23.792
6592224 3.36719 4.24064 7.82189 8.42552 1.54796 5.43251 23.8552
6592233 3.36719 4.24064 7.82189 8.42552 1.54796 5.43251 23.8552
6592244 3.35856 4.17511 7.73779 8.39759 1.55937 5.45124 23.669
6592254 3.32402 4.29681 7.84292 8.39759 1.60035 5.41861 23.8613
6592280 3.34129 4.23128 7.76933 8.36035 1.5621 5.41538 23.7022
6592297 3.35856 4.26872 7.80087 8.39759 1.58116 5.39616 23.8257
6592304 3.37583 4.28745 7.75881 8.4069 1.63636 5.35216 23.829
6592324 3.36719 4.26872 7.77984 8.35104 1.54915 5.36145 23.7668
6592336 3.28949 4.23128 7.76933 8.41621 1.67537 5.48257 23.7063
6592345 3.28949 4.23128 7.76933 8.41621 1.67537 5.48257 23.7063
6592360 3.34129 4.23128 7.68522 8.43483 1.73007 5.41148 23.6926
6592365 3.34129 4.26872 7.77984 8.43483 1.66049 5.41749 23.8247
6592375 3.34129 4.26872 7.77984 8.43483 1.66049 5.41749 23.8247
6592386 3.41036 4.29681 7.73779 8.47207 1.69412 5.33262 23.917
6592408 3.30675 4.21255 7.73779 8.38828 1.64545 5.4599 23.6454
6592415 3.36719 4.23128 7.79035 8.45345 1.60134 5.43908 23.8423
6592427 3.36719 4.23128 7.79035 8.45345 1.60134 5.43908 23.8423
6592436 3.34992 4.25 7.71676 8.44414 1.71233 5.40447 23.7608
6592450 3.34992 4.16575 7.73779 8.43483 1.59664 5.48179 23.6883
6592456 3.34992 4.16575 7.73779 8.43483 1.59664 5.48179 23.6883
6592468 3.30675 4.27808 7.77984 8.38828 1.66271 5.42034 23.753
6592488 3.36719 4.26872 7.71676 8.42552 1.69303 5.36607 23.7782
6592496 3.37583 4.26872 7.79035 8.47207 1.64661 5.40713 23.907
6592507 3.37583 4.26872 7.79035 8.47207 1.64661 5.40713 23.907
6592516 3.40173 4.23128 7.71676 8.49069 1.68147 5.39489 23.8405
6592526 3.33266 4.29681 7.71676 8.43483 1.76845 5.37537 23.7811
6592536 3.33266 4.29681 7.71676 8.43483 1.76845 5.37537 23.7811
6592546 3.43626 4.26872 7.64317 8.43483 1.70723 5.28089 23.783
6592556 3.43626 4.26872 7.64317 8.43483 1.70723 5.28089 23.783
6592567 3.34129 4.29681 7.63265 8.35104 1.77157 5.29951 23.6218
6592576 3.43626 4.29681 7.5906 8.33242 1.69339 5.19314 23.6561
6592586 3.43626 4.29681 7.5906 8.33242 1.69339 5.19314 23.6561
6592596 3.42763 4.36233 7.61163 8.32311 1.73468 5.14955 23.7247
6592606 3.43626 4.34361 7.47495 8.34173 1.87965 5.10889 23.5966
6592616 3.43626 4.34361 7.47495 8.34173 1.87965 5.10889 23.5966
6592626 3.48807 4.35297 7.53803 8.32311 1.74033 5.07555 23.7022
6592637 3.48807 4.35297 7.53803 8.32311 1.74033 5.07555 23.7022
6592646 3.4708 4.36233 7.48547 8.26725 1.77365 5.03666 23.5858
6592656 3.4967 4.40914 7.54855 8.30449 1.75554 5.01741 23.7589
6592666 3.4967 4.40914 7.54855 8.30449 1.75554 5.01741 23.7589
6592676 3.56577 4.45595 7.53803 8.23932 1.67177 4.8882 23.7991
6592686 3.58304 4.43722 7.54855 8.21139 1.59485 4.88201 23.7802
6592696 3.58304 4.43722 7.54855 8.21139 1.59485 4.88201 23.7802
6592706 3.59167 4.44659 7.50649 8.17415 1.60481 4.8331 23.7189
6592716 3.59167 4.44659 7.50649 8.17415 1.60481 4.8331 23.7189
6592729 3.59167 4.4185 7.53803 8.15553 1.52331 4.86214 23.7037
6592736 3.64347 4.50275 7.42239 8.10898 1.63221 4.67856 23.6776
6592746 3.64347 4.50275 7.42239 8.10898 1.63221 4.67856 23.6776
6592756 3.67801 4.43722 7.42239 8.1276 1.54703 4.71246 23.6652
6592777 3.66074 4.47467 7.42239 8.04381 1.5204 4.65908 23.6016
6592787 3.69528 4.47467 7.41187 7.99726 1.44702 4.60526 23.5791
6592807 3.76435 4.46531 7.44341 8.07174 1.39956 4.60237 23.7448
6592818 3.77298 4.50275 7.4329 8.02519 1.39259 4.53932 23.7338
6592827 3.77298 4.50275 7.4329 8.02519 1.39259 4.53932 23.7338
6592840 3.79025 4.52148 7.39085 7.96002 1.3739 4.4622 23.6626
6592847 3.79888 4.52148 7.40136 7.96002 1.35258 4.45978 23.6817
6592857 3.79888 4.50275 7.40136 7.96933 1.34317 4.47932 23.6723
6592869 3.80752 4.51211 7.36982 7.9414 1.35012 4.43801 23.6309
6592880 3.80752 4.51211 7.36982 7.9414 1.35012 4.43801 23.6309
6592889 3.82478 4.47467 7.40136 7.82968 1.14554 4.41868 23.5305
6592901 3.81615 4.51211 7.44341 7.82037 1.13695 4.40966 23.5921
6592908 3.81615 4.51211 7.44341 7.82037 1.13695 4.40966 23.5921
6592918 3.89385 4.53084 7.44341 7.90416 1.15442 4.36825 23.7723
6592937 3.85932 4.48403 7.49598 7.88554 1.06879 4.44987 23.7249
6592943 3.85932 4.48403 7.49598 7.88554 1.06879 4.44987 23.7249
6592948 3.85932 4.51211 7.55906 7.87623 1.01858 4.45075 23.8067
6592959 3.85932 4.51211 7.55906 7.87623 1.01858 4.45075 23.8067
6592969 3.82478 4.51211 7.51701 7.88554 1.11193 4.4645 23.7394
6592979 3.87659 4.50275 7.54855 7.93209 1.05795 4.46436 23.86
6592988 3.87659 4.50275 7.54855 7.93209 1.05795 4.46436 23.86
6592999 3.89385 4.51211 7.41187 7.85761 1.12352 4.3485 23.6755
6593019 3.85069 4.48403 7.46444 7.80175 1.0282 4.40543 23.6009
6593031 3.82478 4.54956 7.39085 7.82968 1.23291 4.35233 23.5949
6593054 3.87659 4.50275 7.32777 7.80175 1.16993 4.307 23.5089
6593061 3.88522 4.53084 7.30674 7.90416 1.31527 4.31383 23.627
6593070 3.88522 4.53084 7.30674 7.90416 1.31527 4.31383 23.627
6593080 3.82478 4.49339 7.32777 7.95071 1.36836 4.42455 23.5967
6593090 3.81615 4.48403 7.2752 7.95071 1.42755 4.41578 23.5261
6593100 3.81615 4.48403 7.2752 7.95071 1.42755 4.41578 23.5261
6593110 3.77298 4.45595 7.29623 7.97864 1.4523 4.49668 23.5038
6593120 3.77298 4.45595 7.29623 7.97864 1.4523 4.49668 23.5038
6593130 3.73845 4.46531 7.28571 8.04381 1.57751 4.54193 23.5333
6593140 3.80752 4.51211 7.33828 8.08105 1.52425 4.48611 23.739
6593160 3.77298 4.56828 7.22263 8.08105 1.74849 4.41686 23.6449
6593170 3.79025 4.56828 7.22263 8.08105 1.72897 4.40269 23.6622
6593183 3.79025 4.52148 7.22263 8.05312 1.65524 4.42864 23.5875
6593190 3.71254 4.60573 7.26469 8.09036 1.81518 4.45868 23.6733
6593211 3.72981 4.52148 7.23315 8.08105 1.73937 4.49571 23.5655
6593221 3.73845 4.55892 7.25417 8.1276 1.78839 4.48775 23.6791
6593231 3.73845 4.55892 7.25417 8.1276 1.78839 4.48775 23.6791
6593241 3.72981 4.52148 7.21212 8.17415 1.85477 4.52774 23.6376
6593251 3.72981 4.52148 7.21212 8.17415 1.85477 4.52774 23.6376
6593264 3.64347 4.53084 7.20161 8.11829 1.91967 4.56214 23.4942
6593271 3.70391 4.54956 7.25417 8.25794 1.94547 4.5814 23.7656
6593284 3.70391 4.54956 7.25417 8.25794 1.94547 4.5814 23.7656
6593291 3.62621 4.52148 7.30674 8.28587 1.97386 4.70398 23.7403
6593304 3.61757 4.54956 7.33828 8.23932 1.92993 4.68134 23.7447
6593311 3.61757 4.54956 7.33828 8.23932 1.92993 4.68134 23.7447
6593324 3.66074 4.54956 7.24366 8.32311 2.0695 4.6409 23.7771
6593331 3.66074 4.54956 7.24366 8.32311 2.0695 4.6409 23.7771
6593344 3.63484 4.52148 7.29623 8.3138 2.00305 4.70437 23.7663
6593351 3.64347 4.49339 7.45393 8.27656 1.75192 4.77239 23.8674
6593361 3.64347 4.49339 7.45393 8.27656 1.75192 4.77239 23.8674
6593372 3.66938 4.50275 7.35931 8.26725 1.82922 4.69843 23.7987
6593381 3.65211 4.53084 7.2752 8.28587 1.98934 4.66104 23.744
6593391 3.65211 4.53084 7.2752 8.28587 1.98934 4.66104 23.744
6593401 3.66074 4.52148 7.29623 8.28587 1.94659 4.67079 23.7643
6593422 3.5744 4.52148 7.26469 8.20208 1.99942 4.69231 23.5626
6593432 3.61757 4.48403 7.34879 8.24863 1.86326 4.74438 23.699
6593442 3.61757 4.48403 7.34879 8.24863 1.86326 4.74438 23.699
6593452 3.6003 4.51211 7.26469 8.23932 1.99696 4.69478 23.6164
6593462 3.58304 4.5402 7.21212 8.19277 2.05904 4.64231 23.5281
6593472 3.58304 4.5402 7.21212 8.19277 2.05904 4.64231 23.5281
6593484 3.65211 4.48403 7.22263 8.18346 1.90376 4.63207 23.5422
6593492 3.65211 4.48403 7.22263 8.18346 1.90376 4.63207 23.5422
6593502 3.6003 4.50275 7.25417 8.29518 2.05418 4.72233 23.6524
6593512 3.65211 4.56828 7.30674 8.33242 2.03467 4.66403 23.8596
6593522 3.65211 4.56828 7.30674 8.33242 2.03467 4.66403 23.8596
6593534 3.64347 4.52148 7.2752 8.26725 1.97201 4.66785 23.7074
6593544 3.69528 4.57764 7.33828 8.29518 1.92341 4.61835 23.9064
6593574 3.67801 4.60573 7.22263 8.29518 2.10098 4.559 23.8015
6593585 3.63484 4.52148 7.23315 8.21139 1.97544 4.63218 23.6009
6593596 3.69528 4.48403 7.21212 8.16484 1.84821 4.58327 23.5563
6593605 3.69528 4.48403 7.21212 8.16484 1.84821 4.58327 23.5563
6593614 3.66074 4.55892 7.13853 8.15553 2.03624 4.51294 23.5137
6593625 3.72981 4.54956 7.2752 8.2207 1.85618 4.55296 23.7753
6593645 3.69528 4.56828 7.25417 8.23001 1.94633 4.56083 23.7477
6593657 3.70391 4.55892 7.29623 8.17415 1.82543 4.55535 23.7332
6593677 3.64347 4.57764 7.20161 8.14622 1.99286 4.53566 23.5689
6593687 3.64347 4.57764 7.20161 8.14622 1.99286 4.53566 23.5689
6593698 3.66938 4.5402 7.19109 8.19277 1.98413 4.5612 23.5934
6593706 3.61757 4.54956 7.22263 8.20208 2.02552 4.61447 23.5918
6593719 3.61757 4.54956 7.22263 8.20208 2.02552 4.61447 23.5918
6593726 3.68664 4.52148 7.2752 8.18346 1.84129 4.59539 23.6668
6593737 3.66074 4.5402 7.30674 8.21139 1.88046 4.62741 23.7191
6593746 3.66074 4.5402 7.30674 8.21139 1.88046 4.62741 23.7191
6593756 3.70391 4.53084 7.31725 8.21139 1.81063 4.60408 23.7634
6593766 3.70391 4.53084 7.31725 8.21139 1.81063 4.60408 23.7634
6593776 3.63484 4.52148 7.23315 8.21139 1.97544 4.63218 23.6009
6593787 3.67801 4.54956 7.35931 8.16484 1.76523 4.60803 23.7517
6593797 3.67801 4.54956 7.35931 8.16484 1.76523 4.60803 23.7517
6593807 3.66938 4.46531 7.36982 8.17415 1.68956 4.69365 23.6787
6593816 3.60894 4.45595 7.34879 8.2207 1.81824 4.76294 23.6344
6593827 3.60894 4.45595 7.34879 8.2207 1.81824 4.76294 23.6344
6593836 3.61757 4.51211 7.50649 8.16484 1.63112 4.75294 23.801
6593857 3.60894 4.45595 7.47495 8.2207 1.67584 4.8173 23.7605
6593870 3.61757 4.45595 7.48547 8.2207 1.65436 4.8146 23.7797
6593877 3.61757 4.45595 7.48547 8.2207 1.65436 4.8146 23.7797
6593886 3.61757 4.36233 7.48547 8.18346 1.52519 4.877 23.6488
6593900 3.5485 4.35297 7.51701 8.23932 1.61341 4.98029 23.6578
6593907 3.5485 4.35297 7.51701 8.23932 1.61341 4.98029 23.6578
6593917 3.6003 4.39042 7.61163 8.25794 1.50504 4.95311 23.8603
6593929 3.6003 4.39042 7.61163 8.25794 1.50504 4.95311 23.8603
6593939 3.56577 4.35297 7.56957 8.2207 1.51665 4.98009 23.709
6593949 3.5744 4.36233 7.63265 8.2207 1.44596 4.99154 23.7901
6593969 3.59167 4.4185 7.51701 8.19277 1.58368 4.86907 23.72
6593980 3.55714 4.36233 7.53803 8.18346 1.53402 4.95032 23.641
6593990 3.55714 4.36233 7.53803 8.18346 1.53402 4.95032 23.641
6594000 3.64347 4.39978 7.51701 8.10898 1.42408 4.80544 23.6692
6594011 3.59167 4.39978 7.49598 8.15553 1.5519 4.85984 23.643
6594022 3.59167 4.39978 7.49598 8.15553 1.5519 4.85984 23.643
6594030 3.59167 4.38106 7.56957 8.19277 1.48786 4.92285 23.7351
6594040 3.59167 4.38106 7.56957 8.19277 1.48786 4.92285 23.7351
6594050 3.60894 4.4185 7.62214 8.17415 1.4288 4.89146 23.8237
6594060 3.58304 4.3717 7.64317 8.1276 1.34148 4.94154 23.7255
6594081 3.66938 4.42786 7.61163 8.14622 1.35514 4.81697 23.8551
6594091 3.62621 4.4185 7.53803 8.09967 1.42926 4.80926 23.6824
6594111 3.66074 4.39978 7.51701 8.11829 1.41409 4.79501 23.6958
6594133 3.65211 4.32489 7.52752 8.08105 1.29986 4.85354 23.5856
6594141 3.69528 4.44659 7.52752 8.09967 1.392 4.72379 23.7691
6594162 3.68664 4.4185 7.51701 8.1276 1.41312 4.76182 23.7498
6594172 3.62621 4.42786 7.55906 8.18346 1.49817 4.84636 23.7966
6594182 3.62621 4.42786 7.55906 8.18346 1.49817 4.84636 23.7966
6594193 3.66074 4.44659 7.46444 8.14622 1.54696 4.74534 23.718
6594203 3.66074 4.44659 7.49598 8.14622 1.5117 4.75896 23.7495
6594221 3.66074 4.40914 7.49598 8.1276 1.45612 4.78214 23.6935
6594223 3.64347 4.39042 7.54855 8.15553 1.42591 4.84678 23.738
6594234 3.64347 4.39042 7.54855 8.15553 1.42591 4.84678 23.738
6594245 3.59167 4.39042 7.47495 8.09967 1.51068 4.83463 23.5567
6594254 3.60894 4.4185 7.46444 8.23932 1.66916 4.85204 23.7312
6594265 3.60894 4.4185 7.46444 8.23932 1.66916 4.85204 23.7312
6594275 3.61757 4.48403 7.51701 8.17415 1.60091 4.78479 23.7928
6594288 3.55714 4.42786 7.45393 8.14622 1.65679 4.84318 23.5851
6594305 3.61757 4.42786 7.52752 8.17415 1.53379 4.83611 23.7471
6594315 3.61757 4.42786 7.52752 8.17415 1.53379 4.83611 23.7471
6594326 3.53987 4.39978 7.48547 8.26725 1.7323 4.94657 23.6924
6594336 3.56577 4.40914 7.58009 8.28587 1.62447 4.96482 23.8409
6594356 3.53987 4.40914 7.4329 8.29518 1.8283 4.92823 23.6771
6594366 3.5226 4.32489 7.50649 8.29518 1.68185 5.04512 23.6492
6594376 3.5226 4.32489 7.50649 8.29518 1.68185 5.04512 23.6492
6594386 3.4708 4.40914 7.56957 8.33242 1.78832 5.05976 23.7819
6594406 3.42763 4.30617 7.45393 8.32311 1.85842 5.13162 23.5108
6594416 3.47943 4.38106 7.51701 8.38828 1.86497 5.07755 23.7658
6594427 3.47943 4.38106 7.51701 8.38828 1.86497 5.07755 23.7658
6594438 3.48807 4.27808 7.55906 8.36966 1.68878 5.1673 23.6949
6594447 3.41899 4.35297 7.63265 8.45345 1.83876 5.22725 23.8581
6594469 3.48807 4.31553 7.62214 8.45345 1.73663 5.19615 23.8792
6594481 3.41036 4.32489 7.52752 8.39759 1.88564 5.19214 23.6604
6594489 3.41036 4.32489 7.52752 8.39759 1.88564 5.19214 23.6604
6594501 3.4967 4.35297 7.62214 8.39759 1.70901 5.13422 23.8694
6594509 3.4967 4.35297 7.62214 8.39759 1.70901 5.13422 23.8694
6594518 3.48807 4.26872 7.47495 8.4069 1.81123 5.1558 23.6386
6594530 3.46216 4.35297 7.54855 8.37897 1.81239 5.1252 23.7427
6594539 3.46216 4.35297 7.54855 8.37897 1.81239 5.1252 23.7427
6594549 3.4708 4.33425 7.52752 8.34173 1.77161 5.10947 23.6743
6594558 3.45353 4.28745 7.54855 8.45345 1.83088 5.21903 23.743
6594568 3.45353 4.28745 7.54855 8.45345 1.83088 5.21903 23.743
6594578 3.46216 4.38106 7.5906 8.45345 1.86474 5.14971 23.8873
6594588 3.46216 4.38106 7.5906 8.45345 1.86474 5.14971 23.8873
6594599 3.4449 4.28745 7.52752 8.4069 1.81893 5.19848 23.6668
6594609 3.43626 4.33425 7.53803 8.46276 1.91693 5.19341 23.7713
6594619 3.43626 4.33425 7.53803 8.46276 1.91693 5.19341 23.7713
6594631 3.45353 4.33425 7.55906 8.43483 1.84647 5.1759 23.7817
6594639 3.45353 4.33425 7.55906 8.43483 1.84647 5.1759 23.7817
6594651 3.42763 4.30617 7.50649 8.44414 1.91707 5.20395 23.6844
6594658 3.40173 4.32489 7.48547 8.54655 2.08792 5.24361 23.7586
6594672 3.40173 4.32489 7.48547 8.54655 2.08792 5.24361 23.7586
6594679 3.39309 4.25936 7.5906 8.55586 1.92396 5.35361 23.7989
6594688 3.38446 4.26872 7.52752 8.51862 1.97829 5.31215 23.6993
6594698 3.38446 4.26872 7.52752 8.51862 1.97829 5.31215 23.6993
6594708 3.37583 4.30617 7.61163 8.54655 1.95601 5.33313 23.8402
6594719 3.37583 4.30617 7.61163 8.54655 1.95601 5.33313 23.8402
6594729 3.34129 4.24064 7.58009 8.51862 1.94028 5.39477 23.6806
6594740 3.34992 4.21255 7.62214 8.62103 1.95492 5.46973 23.8056
6594749 3.34992 4.21255 7.62214 8.62103 1.95492 5.46973 23.8056
6594759 3.29812 4.20319 7.65368 8.56517 1.91458 5.51274 23.7202
6594769 3.24632 4.1283 7.72727 8.63965 1.88948 5.68137 23.7415
6594779 3.24632 4.1283 7.72727 8.63965 1.88948 5.68137 23.7415
6594789 3.28949 4.10958 7.83241 8.64896 1.71338 5.70486 23.8804
6594799 3.28949 4.10958 7.83241 8.64896 1.71338 5.70486 23.8804
6594808 3.23768 4.07214 7.72727 8.66758 1.87174 5.74889 23.7047
6594819 3.21178 4.05341 7.91651 8.67689 1.67865 5.86468 23.8586
6594828 3.21178 4.05341 7.91651 8.67689 1.67865 5.86468 23.8586
6594847 3.21178 4.07214 7.87446 8.67689 1.74403 5.83217 23.8353
6594860 3.22042 4.03469 7.88497 8.65827 1.66773 5.85427 23.7984
6594865 3.22042 4.03469 7.88497 8.65827 1.66773 5.85427 23.7984
6594870 3.21178 3.99725 7.85343 8.6862 1.7035 5.89334 23.7487
6594881 3.21178 3.99725 7.85343 8.6862 1.7035 5.89334 23.7487
6594890 3.15135 3.94108 7.89549 8.74206 1.72388 6.03359 23.73
6594903 3.19451 4.02533 7.906 8.6862 1.69139 5.90395 23.812
6594910 3.19451 4.02533 7.906 8.6862 1.69139 5.90395 23.812
6594920 3.15998 4.06278 7.906 8.71413 1.79396 5.91206 23.8429
6594930 3.17725 4.07214 7.87446 8.70482 1.81006 5.87311 23.8287
6594940 3.17725 4.07214 7.87446 8.70482 1.81006 5.87311 23.8287
6594950 3.15998 4.04405 7.906 8.73275 1.79386 5.93558 23.8428
6594960 3.15998 4.04405 7.906 8.73275 1.79386 5.93558 23.8428
6594970 3.15135 4.06278 7.92703 8.65827 1.72554 5.90635 23.7994
6594980 3.20315 4.01597 7.906 8.76999 1.75435 5.93649 23.8951
6594990 3.20315 4.01597 7.906 8.76999 1.75435 5.93649 23.8951
6595000 3.23768 4.03469 7.85343 8.69551 1.72019 5.84134 23.8213
6595010 3.23768 4.03469 7.85343 8.69551 1.72019 5.84134 23.8213
6595020 3.20315 4.0815 7.7483 8.63965 1.86893 5.76825 23.6726
6595030 3.24632 4.13767 7.80087 8.65827 1.8336 5.70929 23.8431
6595040 3.24632 4.13767 7.80087 8.65827 1.8336 5.70929 23.8431
6595052 3.20315 4.07214 7.75881 8.58379 1.7931 5.75876 23.6179
6595060 3.24632 4.10958 7.79035 8.57448 1.73624 5.69687 23.7207
6595070 3.24632 4.10958 7.79035 8.57448 1.73624 5.69687 23.7207
6595080 3.25495 4.20319 7.77984 8.63034 1.88403 5.62589 23.8683
6595101 3.26359 4.13767 7.80087 8.61172 1.76886 5.67611 23.8138
6595111 3.30675 4.19383 7.82189 8.62103 1.76062 5.60215 23.9435
6595120 3.30675 4.19383 7.82189 8.62103 1.76062 5.60215 23.9435
6595132 3.31539 4.20319 7.76933 8.63034 1.82791 5.56965 23.9182
6595141 3.28085 4.14703 7.77984 8.61172 1.78221 5.64477 23.8194
6595154 3.28085 4.14703 7.77984 8.61172 1.78221 5.64477 23.8194
6595162 3.30675 4.20319 7.72727 8.61172 1.86684 5.5531 23.8489
6595182 3.28085 4.18447 7.71676 8.54655 1.82628 5.56162 23.7286
6595202 3.27222 4.18447 7.79035 8.62103 1.82559 5.62762 23.8681
6595211 3.26359 4.16575 7.7483 8.63965 1.88258 5.64209 23.8173
6595221 3.22042 4.13767 7.71676 8.63965 1.93989 5.69167 23.7145
6595231 3.22042 4.13767 7.71676 8.63965 1.93989 5.69167 23.7145
6595242 3.25495 4.15639 7.7483 8.62103 1.86513 5.65038 23.7807
6595263 3.20315 4.0815 7.76933 8.63965 1.84509 5.77645 23.6936
6595271 3.22905 4.05341 7.85343 8.62103 1.67526 5.80378 23.7569
6595283 3.22905 4.05341 7.85343 8.62103 1.67526 5.80378 23.7569
6595292 3.22905 4.04405 7.85343 8.60241 1.64776 5.80477 23.7289
6595307 3.16861 4.05341 7.82189 8.72344 1.87899 5.8841 23.7674
6595312 3.16861 4.05341 7.82189 8.72344 1.87899 5.8841 23.7674
6595322 3.17725 4.03469 7.85343 8.71413 1.80633 5.90149 23.7795
6595342 3.17725 3.99725 7.86395 8.70482 1.74879 5.93491 23.7433
6595355 3.16861 4.01597 7.92703 8.79792 1.79662 5.98529 23.9095
6595365 3.16861 4.01597 7.92703 8.79792 1.79662 5.98529 23.9095
6595377 3.16861 4.01597 7.89549 8.71413 1.75043 5.9416 23.7942
6595384 3.15135 3.97852 7.906 8.74206 1.74872 6.00443 23.7779
6595394 3.15135 3.97852 7.906 8.74206 1.74872 6.00443 23.7779
6595403 3.13408 4.04405 7.96908 8.75137 1.77026 5.98926 23.8986
6595414 3.13408 4.04405 7.96908 8.75137 1.77026 5.98926 23.8986
6595423 3.05637 4.01597 7.88497 8.70482 1.88005 6.03334 23.6621
6595434 3.13408 4.02533 7.97959 8.7793 1.76743 6.02017 23.9183
6595444 3.13408 4.02533 7.97959 8.7793 1.76743 6.02017 23.9183
6595454 3.12544 4.05341 7.94805 8.73275 1.79452 5.97365 23.8597
6595464 3.08228 3.99725 7.97959 8.76068 1.78009 6.08365 23.8198
6595473 3.08228 3.99725 7.97959 8.76068 1.78009 6.08365 23.8198
6595484 3.05637 4.01597 8.01113 8.82585 1.85525 6.12604 23.9093
6595501 3.05637 4.01597 8.01113 8.82585 1.85525 6.12604 23.9093
6595504 3.09091 3.96916 8.01113 8.82585 1.77111 6.13689 23.8971
6595514 3.08228 3.97852 8.05318 8.86309 1.77894 6.16556 23.9771
6595523 3.08228 3.97852 8.05318 8.86309 1.77894 6.16556 23.9771
6595534 3.05637 3.99725 8.01113 8.82585 1.83711 6.1426 23.8906
6595544 3.04774 3.94108 7.96908 8.90033 1.91191 6.21206 23.8582
6595553 3.04774 3.94108 7.96908 8.90033 1.91191 6.21206 23.8582
6595563 3.04774 3.90363 8.00062 8.9655 1.90318 6.28081 23.9175
6595584 2.9873 3.94108 7.97959 8.88171 1.95031 6.26296 23.7897
6595593 2.99594 3.87555 7.93754 8.92826 1.96983 6.31558 23.7373
6595614 3.0132 3.88491 7.99011 9.01205 1.98078 6.34138 23.9003
6595625 2.8837 3.81002 8.02164 9.02136 2.02854 6.54005 23.7367
6595635 2.8837 3.81002 8.02164 9.02136 2.02854 6.54005 23.7367
6595647 2.95277 3.82874 8.04267 8.98412 1.90839 6.45486 23.8083
6595665 2.84916 3.74449 7.96908 9.07722 2.11873 6.6324 23.64
6595677 2.8578 3.81002 8.03216 9.1517 2.17151 6.6134 23.8517
6595686 2.8578 3.81002 8.03216 9.1517 2.17151 6.6134 23.8517
6595696 2.87506 3.82874 8.08472 9.11446 2.07444 6.58623 23.903
6595706 2.9096 3.80066 8.0637 9.23549 2.14796 6.61547 24.0094
6595716 2.9096 3.80066 8.0637 9.23549 2.14796 6.61547 24.0094
6595726 2.84916 3.77258 8.05318 9.18894 2.1572 6.67561 23.8639
6595746 2.84053 3.72577 8.00062 9.2448 2.23569 6.72722 23.8117
6595756 2.82326 3.75385 7.99011 9.20756 2.25874 6.70072 23.7748
6595767 2.82326 3.75385 7.99011 9.20756 2.25874 6.70072 23.7748
6595777 2.84916 3.82874 7.99011 9.19825 2.29165 6.60584 23.8663
6595787 2.8837 3.77258 8.04267 9.21687 2.1566 6.65037 23.9158
6595797 2.8837 3.77258 8.04267 9.21687 2.1566 6.65037 23.9158
6595807 2.83189 3.73513 8.01113 9.19825 2.19793 6.71402 23.7764
6595817 2.83189 3.73513 8.01113 9.19825 2.19793 6.71402 23.7764
6595827 2.84053 3.74449 8.00062 9.22618 2.23579 6.70367 23.8118
6595840 2.81463 3.76322 8.02164 9.2448 2.27701 6.724 23.8443
6595847 2.81463 3.76322 8.02164 9.2448 2.27701 6.724 23.8443
6595861 2.78009 3.75385 8.01113 9.2448 2.31971 6.76043 23.7899
6595867 2.84916 3.70705 8.09524 9.25411 2.10909 6.77236 23.9056
6595887 2.79736 3.63216 8.08472 9.36583 2.21513 6.92274 23.8801
6595901 2.79736 3.63216 8.08472 9.36583 2.21513 6.92274 23.8801
6595907 2.80599 3.59471 8.16883 9.39376 2.10076 6.98686 23.9633
6595917 2.77146 3.58535 8.20037 9.45893 2.15736 7.05932 24.0161
6595927 2.77146 3.58535 8.20037 9.45893 2.15736 7.05932 24.0161
6595937 2.82326 3.58535 8.15832 9.37514 2.06635 6.96985 23.9421
6595947 2.69375 3.55727 8.18986 9.34721 2.12382 7.11661 23.7881
6595957 2.69375 3.55727 8.18986 9.34721 2.12382 7.11661 23.7881
6595967 2.78873 3.49174 8.29499 9.36583 1.85229 7.13016 23.9413
6595977 2.78873 3.49174 8.29499 9.36583 1.85229 7.13016 23.9413
6595987 2.75419 3.43557 8.29499 9.32859 1.80044 7.20215 23.8133
6595998 2.77146 3.46366 8.31602 9.35652 1.81186 7.176 23.9076
6596009 2.77146 3.46366 8.31602 9.35652 1.81186 7.176 23.9076
6596020 2.71102 3.49174 8.31602 9.32859 1.87997 7.19692 23.8474
6596029 2.75419 3.51046 8.42115 9.34721 1.75002 7.17994 24.033
6596042 2.75419 3.51046 8.42115 9.34721 1.75002 7.17994 24.033
6596048 2.71102 3.46366 8.45269 9.36583 1.73567 7.27946 23.9932
6596059 2.71102 3.46366 8.45269 9.36583 1.73567 7.27946 23.9932
6596069 2.65922 3.41685 8.41064 9.31928 1.74985 7.34302 23.806
6596078 2.68512 3.4543 8.43166 9.32859 1.74281 7.29351 23.8997
6596089 2.68512 3.4543 8.43166 9.32859 1.74281 7.29351 23.8997
6596098 2.72829 3.51046 8.34756 9.29135 1.80709 7.1616 23.8777
6596117 2.72829 3.51046 8.34756 9.29135 1.80709 7.1616 23.8777
6596118 2.77146 3.51046 8.33704 9.20756 1.68879 7.09043 23.8265
6596137 2.77146 3.55727 8.23191 9.28204 1.92505 7.03689 23.8427
6596151 2.73692 3.63216 8.21088 9.18894 1.97031 6.96124 23.7689
6596160 2.76282 3.66024 8.09524 9.17963 2.0907 6.86883 23.6979
6596175 2.76282 3.66024 8.09524 9.17963 2.0907 6.86883 23.6979
6596180 2.79736 3.73513 8.07421 9.13308 2.10263 6.74488 23.7398
6596190 2.84053 3.81938 8.05318 9.16101 2.18509 6.63121 23.8741
6596210 2.84916 3.86619 8.0637 9.09584 2.14573 6.56182 23.8749
6596221 2.84916 3.86619 8.0637 9.09584 2.14573 6.56182 23.8749
6596230 2.83189 3.94108 7.95857 9.0586 2.32157 6.4591 23.7901
6596243 2.86643 3.96916 7.94805 9.13308 2.39138 6.42576 23.9167
6596250 2.86643 3.96916 7.94805 9.13308 2.39138 6.42576 23.9167
6596260 2.89233 3.98789 7.97959 8.97481 2.193 6.34005 23.8346
6596270 2.89233 4.02533 7.97959 8.9655 2.21989 6.30319 23.8628
6596291 2.9614 4.02533 7.94805 8.89102 2.1058 6.20273 23.8258
6596311 2.97867 4.03469 7.91651 8.81654 2.05931 6.13968 23.7464
6596322 2.97004 4.07214 7.99011 8.78861 1.99468 6.1311 23.8209
6596331 2.97004 4.07214 7.99011 8.78861 1.99468 6.1311 23.8209
6596341 2.99594 4.09086 7.97959 8.6862 1.89614 6.04923 23.7526
6596351 3.0132 4.11894 8.01113 8.6862 1.86828 6.02102 23.8295
6596361 3.0132 4.11894 8.01113 8.6862 1.86828 6.02102 23.8295
6596372 3.05637 4.10958 8.0637 8.72344 1.78782 6.02501 23.9531
6596381 3.05637 4.10958 8.0637 8.72344 1.78782 6.02501 23.9531
6596394 3.03047 4.05341 8.09524 8.58379 1.59018 6.0568 23.7629
6596401 3.04774 4.04405 8.15832 8.63965 1.54632 6.09435 23.8898
6596411 3.04774 4.04405 8.15832 8.63965 1.54632 6.09435 23.8898
6596422 3.09091 3.98789 8.03216 8.62103 1.56524 6.05157 23.732
6596432 3.05637 3.97852 8.15832 8.5931 1.42617 6.12738 23.7863
6596442 3.05637 3.97852 8.15832 8.5931 1.42617 6.12738 23.7863
6596452 3.0132 4.01597 8.12678 8.60241 1.55566 6.12417 23.7584
6596462 3.0132 4.01597 8.12678 8.60241 1.55566 6.12417 23.7584
6596472 3.04774 4.0815 8.10575 8.58379 1.58677 6.02065 23.8188
6596485 3.0132 4.05341 8.15832 8.55586 1.51146 6.0853 23.7808
6596492 3.0132 4.05341 8.15832 8.55586 1.51146 6.0853 23.7808
6596502 3.10818 4.05341 8.12678 8.52793 1.41331 5.97896 23.8163
6596512 3.10818 4.10022 8.02164 8.55586 1.60416 5.9084 23.7859
6596532 3.16861 4.09086 8.09524 8.52793 1.41833 5.88107 23.8826
6596542 3.16861 4.09086 8.09524 8.52793 1.41833 5.88107 23.8826
6596554 3.10818 4.0815 8.04267 8.52793 1.53468 5.92223 23.7603
6596562 3.22042 4.06278 8.07421 8.43483 1.26405 5.81651 23.7922
6596582 3.20315 4.10958 8.08472 8.46276 1.34583 5.80554 23.8602
6596592 3.19451 4.11894 8.08472 8.46276 1.36464 5.8049 23.8609
6596614 3.19451 4.04405 8.1478 8.47207 1.22997 5.8981 23.8584
6596623 3.19451 4.04405 8.1478 8.47207 1.22997 5.8981 23.8584
6596634 3.18588 4.06278 8.11626 8.36966 1.19055 5.83785 23.7346
6596644 3.17725 4.00661 8.1478 8.41621 1.15565 5.92484 23.7479
6596664 3.21178 4.03469 8.11626 8.39759 1.16185 5.85054 23.7603
6596678 3.16861 3.99725 8.25294 8.4069 1.03103 5.97715 23.8257
6596698 3.17725 4.01597 8.24242 8.36035 1.00505 5.9314 23.796
6596706 3.17725 4.01597 8.25294 8.36035 0.993571 5.9354 23.8065
6596718 3.15135 3.92236 8.25294 8.39759 0.964904 6.05509 23.7242
6596726 3.19451 4.0815 8.3055 8.37897 1.00212 5.88999 23.9605
6596746 3.16861 4.03469 8.29499 8.4069 1.02278 5.96016 23.9052
6596756 3.18588 4.01597 8.27396 8.43483 1.0361 5.96404 23.9106
6596766 3.18588 4.01597 8.27396 8.43483 1.0361 5.96404 23.9106
6596781 3.19451 4.00661 8.20037 8.44414 1.10698 5.94033 23.8456
6596786 3.18588 3.98789 8.15832 8.43483 1.13447 5.94485 23.7669
6596796 3.18588 3.98789 8.15832 8.43483 1.13447 5.94485 23.7669
6596806 3.20315 4.00661 8.17934 8.45345 1.12987 5.92829 23.8426
6596827 3.16861 3.99725 8.16883 8.39759 1.11388 5.94163 23.7323
6596840 3.15135 3.9598 8.2214 8.47207 1.11231 6.03811 23.8046
6596848 3.15135 3.9598 8.2214 8.47207 1.11231 6.03811 23.8046
6596857 3.12544 4.04405 8.13729 8.54655 1.3917 5.98303 23.8533
6596867 3.15135 3.96916 8.13729 8.50931 1.25156 6.01215 23.7671
6596877 3.15135 3.96916 8.13729 8.50931 1.25156 6.01215 23.7671
6596889 3.16861 4.04405 8.20037 8.54655 1.27467 5.96896 23.9596
6596897 3.16861 4.04405 8.20037 8.54655 1.27467 5.96896 23.9596
6596911 3.10818 3.99725 8.11626 8.58379 1.42467 6.04565 23.8055
6596917 3.14271 3.98789 8.1478 8.55586 1.31452 6.02477 23.8343
6596927 3.14271 3.98789 8.1478 8.55586 1.31452 6.02477 23.8343
6596937 3.09091 4.04405 8.07421 8.62103 1.57359 6.01775 23.8302
6596952 3.09954 3.9598 8.04267 8.63965 1.53447 6.0798 23.7417
6596958 3.09954 3.9598 8.04267 8.63965 1.53447 6.0798 23.7417
6596968 3.09091 4.06278 8.05318 8.57448 1.56968 5.97568 23.7813
6596989 3.06501 3.96916 8.07421 8.64896 1.55626 6.11748 23.7573
6596999 3.12544 4.03469 8.03216 8.60241 1.55444 5.97261 23.7947
6597009 3.12544 4.03469 8.03216 8.60241 1.55444 5.97261 23.7947
6597018 3.11681 4.02533 7.99011 8.5931 1.59272 5.96897 23.7253
6597029 3.15998 4.03469 7.92703 8.64896 1.67922 5.91989 23.7707
6597049 3.19451 4.20319 7.91651 8.65827 1.82546 5.74225 23.9725
6597060 3.19451 4.20319 7.91651 8.65827 1.82546 5.74225 23.9725
6597068 3.07364 4.11894 7.92703 8.65827 1.86785 5.92528 23.7779
6597078 3.15135 4.1283 7.95857 8.69551 1.79026 5.87524 23.9337
6597089 3.15135 4.1283 7.95857 8.69551 1.79026 5.87524 23.9337
6597098 3.16861 4.14703 7.89549 8.67689 1.84174 5.81258 23.888
6597108 3.09954 4.0815 7.87446 8.64896 1.85245 5.91178 23.7045
6597121 3.09954 4.0815 7.87446 8.64896 1.85245 5.91178 23.7045
6597128 3.13408 4.17511 7.82189 8.63965 1.95492 5.77539 23.7707
6597142 3.13408 4.17511 7.82189 8.63965 1.95492 5.77539 23.7707
6597149 3.07364 4.13767 7.81138 8.6862 2.04443 5.87518 23.7089
6597160 3.13408 4.10022 7.77984 8.70482 1.99326 5.84998 23.719
6597180 3.08228 4.15639 7.76933 8.71413 2.12767 5.84568 23.7221
6597190 3.09954 4.15639 7.92703 8.71413 1.92905 5.89103 23.8971
6597200 3.09954 4.10958 7.92703 8.7793 1.94677 5.95673 23.9154
6597211 3.10818 4.10958 7.91651 8.83516 2.00261 5.9663 23.9694
6597220 3.10818 4.10958 7.91651 8.83516 2.00261 5.9663 23.9694
6597230 3.04774 4.02533 7.85343 8.8724 2.09732 6.08395 23.7989
6597240 3.07364 4.10958 7.86395 8.8724 2.13673 5.99078 23.9196
6597250 3.07364 4.10958 7.86395 8.8724 2.13673 5.99078 23.9196
6597262 3.0132 4.06278 7.87446 8.89102 2.16653 6.09621 23.8415
6597270 3.0132 4.06278 7.87446 8.89102 2.16653 6.09621 23.8415
6597282 3.06501 4.03469 7.83241 8.85378 2.09269 6.04549 23.7859
6597291 3.03047 4.06278 7.87446 8.82585 2.08427 6.05651 23.7936
6597304 3.03047 4.06278 7.87446 8.82585 2.08427 6.05651 23.7936
6597311 2.97004 4.06278 7.82189 8.86309 2.2493 6.10438 23.7178
6597324 2.97004 4.02533 7.82189 8.90033 2.2491 6.15167 23.7176
6597331 2.97004 4.02533 7.82189 8.90033 2.2491 6.15167 23.7176
6597344 3.04774 4.0815 7.81138 8.90964 2.2348 6.0325 23.8503
6597351 2.99594 4.07214 7.82189 8.91895 2.28198 6.094 23.8089
6597365 2.99594 4.07214 7.82189 8.91895 2.28198 6.094 23.8089
6597372 2.99594 4.0815 7.88497 8.92826 2.2277 6.11272 23.8907
6597399 2.99594 4.10022 7.7483 8.91895 2.39331 6.04149 23.7634
6597417 2.9873 4.10958 7.79035 8.90033 2.34603 6.04967 23.7876
6597418 2.9873 4.10958 7.79035 8.90033 2.34603 6.04967 23.7876
6597422 3.02184 4.07214 7.75881 8.90033 2.30687 6.04037 23.7531
6597432 3.02184 4.10958 7.77984 8.89102 2.30958 6.01168 23.8023
6597442 3.02184 4.10958 7.77984 8.89102 2.30958 6.01168 23.8023
6597452 3.00457 4.14703 7.75881 8.90033 2.39805 5.98945 23.8107
6597462 3.00457 4.14703 7.75881 8.90033 2.39805 5.98945 23.8107
6597474 3.03911 4.0815 7.77984 8.8724 2.24516 6.0142 23.7728
6597482 3.02184 4.14703 7.77984 8.8724 2.3275 5.97162 23.8211
6597495 3.02184 4.14703 7.77984 8.8724 2.3275 5.97162 23.8211
6597502 3.06501 4.15639 7.80087 8.90033 2.28952 5.94405 23.9226
6597512 3.0132 4.10022 7.76933 8.89102 2.32263 6.0236 23.7738
6597522 3.0132 4.10022 7.76933 8.89102 2.32263 6.0236 23.7738
6597532 3.06501 4.10022 7.85343 8.86309 2.14062 5.99912 23.8817
6597543 3.06501 4.10022 7.85343 8.86309 2.14062 5.99912 23.8817
6597552 3.04774 4.1283 7.83241 8.83516 2.18436 5.97111 23.8436
6597562 3.09091 4.17511 7.89549 8.83516 2.1085 5.91621 23.9967
6597573 3.09091 4.17511 7.89549 8.83516 2.1085 5.91621 23.9967
6597583 3.08228 4.13767 7.82189 8.81654 2.14813 5.9215 23.8584
6597593 3.08228 4.13767 7.82189 8.81654 2.14813 5.9215 23.8584
6597604 3.06501 4.15639 7.89549 8.82585 2.11102 5.95166 23.9427
6597614 3.08228 4.13767 7.92703 8.69551 1.91242 5.91545 23.8425
6597625 3.08228 4.13767 7.92703 8.69551 1.91242 5.91545 23.8425
6597633 2.99594 4.04405 7.87446 8.64896 1.93374 6.03696 23.5634
6597645 3.09954 4.1283 7.93754 8.65827 1.83588 5.89831 23.8237
6597653 3.09954 4.1283 7.93754 8.65827 1.83588 5.89831 23.8237
6597665 3.06501 4.05341 7.96908 8.78861 1.89304 6.0558 23.8761
6597687 3.03047 4.01597 8.05318 8.72344 1.73755 6.12653 23.8231
6597694 3.06501 4.04405 8.03216 8.7793 1.80409 6.08415 23.9205
6597714 3.04774 4.00661 8.07421 8.75137 1.71276 6.13773 23.8799
6597724 3.0132 3.98789 8.07421 8.75137 1.73318 6.18497 23.8267
6597733 3.0132 3.98789 8.07421 8.75137 1.73318 6.18497 23.8267
6597744 3.05637 3.95044 8.08472 8.76068 1.64557 6.18722 23.8522
6597754 3.05637 3.95044 8.08472 8.76068 1.64557 6.18722 23.8522
6597763 3.08228 3.98789 8.01113 8.73275 1.70827 6.09329 23.814
6597774 2.9873 3.99725 8.03216 8.71413 1.7824 6.17029 23.7308
6597784 2.9873 3.99725 8.03216 8.71413 1.7824 6.17029 23.7308
6597793 3.09954 3.99725 8.00062 8.70482 1.68252 6.0553 23.8022
6597803 3.09954 3.96916 8.08472 8.64896 1.506 6.09076 23.8024
6597813 3.09954 3.96916 8.08472 8.64896 1.506 6.09076 23.8024
6597824 3.13408 4.01597 8.05318 8.66758 1.56707 6.01407 23.8708
6597844 3.08228 3.94108 8.04267 8.67689 1.57207 6.12575 23.7429
6597855 3.09091 4.04405 8.12678 8.65827 1.55167 6.05147 23.92
6597865 3.09091 4.04405 8.12678 8.65827 1.55167 6.05147 23.92
6597878 3.10818 4.03469 8.04267 8.5931 1.55281 5.9883 23.7786
6597885 3.11681 4.03469 8.0637 8.55586 1.48294 5.97452 23.7711
6597895 3.11681 4.03469 8.0637 8.55586 1.48294 5.97452 23.7711
6597905 3.09091 4.04405 8.09524 8.54655 1.47671 5.99756 23.7767
6597926 3.08228 3.96916 8.08472 8.54655 1.42373 6.06761 23.6827
6597935 3.08228 4.07214 8.09524 8.55586 1.52327 5.98392 23.8055
6597946 3.08228 4.07214 8.09524 8.55586 1.52327 5.98392 23.8055
6597956 3.06501 4.01597 8.09524 8.57448 1.50543 6.05587 23.7507
6597968 3.09954 4.05341 8.12678 8.64896 1.54214 6.03216 23.9287
6597976 3.09954 4.05341 8.12678 8.64896 1.54214 6.03216 23.9287
6597990 3.16861 4.06278 8.08472 8.61172 1.48484 5.9335 23.9278
6597997 3.16861 4.06278 8.08472 8.61172 1.48484 5.9335 23.9278
6598006 3.07364 3.98789 8.05318 8.58379 1.5242 6.06079 23.6985
6598016 3.10818 3.97852 8.08472 8.66758 1.52398 6.0818 23.839
6598026 3.10818 3.97852 8.08472 8.66758 1.52398 6.0818 23.839
6598041 3.09954 3.97852 8.0637 8.65827 1.54785 6.07808 23.8
6598050 3.11681 3.99725 8.08472 8.64896 1.51447 6.05065 23.8477
6598059 3.11681 3.99725 8.08472 8.64896 1.51447 6.05065 23.8477
6598067 3.04774 3.99725 8.08472 8.70482 1.64635 6.13263 23.8345
6598087 3.06501 3.99725 8.16883 8.69551 1.52437 6.1451 23.9266
6598100 3.07364 3.95044 8.10575 8.67689 1.52051 6.14862 23.8067
6598107 3.07364 3.95044 8.10575 8.67689 1.52051 6.14862 23.8067
6598117 3.06501 3.93172 8.0637 8.6862 1.56781 6.16077 23.7466
6598127 3.0132 3.94108 7.99011 8.73275 1.76385 6.18861 23.6771
6598137 3.0132 3.94108 7.99011 8.73275 1.76385 6.18861 23.6771
6598147 3.05637 3.95044 8.11626 8.73275 1.583 6.18855 23.8558
6598157 3.05637 3.95044 8.11626 8.73275 1.583 6.18855 23.8558
6598168 3.02184 3.94108 8.12678 8.74206 1.60975 6.23491 23.8318
6598177 3.0132 3.96916 8.10575 8.85378 1.77929 6.25086 23.9419
6598188 3.0132 3.96916 8.10575 8.85378 1.77929 6.25086 23.9419
6598197 3.04774 3.97852 8.02164 8.81654 1.80779 6.16728 23.8644
6598211 3.02184 3.97852 8.12678 8.74206 1.64644 6.20159 23.8692
6598228 3.04774 3.95044 8.11626 8.74206 1.60176 6.19966 23.8565
6598238 3.04774 3.95044 8.11626 8.74206 1.60176 6.19966 23.8565
6598248 3.02184 4.00661 8.08472 8.78861 1.76624 6.17834 23.9018
6598258 3.03911 4.00661 8.05318 8.81654 1.80935 6.16172 23.9154
6598279 2.97867 3.93172 8.02164 8.89102 1.91246 6.29785 23.8231
6598290 3.00457 3.89427 8.1478 8.83516 1.6509 6.33377 23.8818
6598300 3.00457 3.89427 8.1478 8.83516 1.6509 6.33377 23.8818
6598311 2.99594 3.98789 8.0637 8.89102 1.89994 6.24781 23.9385
6598322 2.97004 3.86619 8.0637 8.90033 1.82013 6.383 23.8003
6598330 2.97004 3.86619 8.0637 8.90033 1.82013 6.383 23.8003
6598343 2.97867 3.913 8.0637 8.88171 1.83783 6.32654 23.8371
6598350 2.97867 3.913 8.0637 8.88171 1.83783 6.32654 23.8371
6598365 2.91823 3.85683 8.02164 8.8724 1.88996 6.41278 23.6691
6598370 2.94413 3.88491 8.07421 8.83516 1.79216 6.36963 23.7384
6598380 2.94413 3.88491 8.07421 8.83516 1.79216 6.36963 23.7384
6598390 2.9614 3.86619 8.09524 8.90033 1.79434 6.40216 23.8232
6598400 2.91823 3.89427 8.12678 8.91895 1.85283 6.43377 23.8582
6598411 2.91823 3.89427 8.12678 8.91895 1.85283 6.43377 23.8582
6598421 2.90096 3.90363 8.05318 8.93757 1.98258 6.4211 23.7954
6598431 2.90096 3.90363 8.05318 8.93757 1.98258 6.4211 23.7954
6598441 2.9355 3.88491 8.08472 8.84447 1.79914 6.3846 23.7496
6598452 2.92687 3.90363 8.07421 8.88171 1.8753 6.38521 23.7864
6598461 2.92687 3.90363 8.07421 8.88171 1.8753 6.38521 23.7864
6598474 2.95277 3.99725 8.07421 8.85378 1.90976 6.2681 23.878
6598495 2.95277 3.92236 8.00062 8.86309 1.92939 6.31155 23.7388
6598501 2.97004 3.9598 8.11626 8.90033 1.85187 6.31833 23.9464
6598511 2.97004 3.9598 8.11626 8.90033 1.85187 6.31833 23.9464
6598522 2.9873 4.02533 8.05318 8.83516 1.90369 6.19789 23.901
6598531 3.02184 3.99725 8.05318 8.76999 1.77439 6.1681 23.8423
6598552 2.9873 4.00661 8.00062 8.79792 1.9088 6.18135 23.7924
6598563 2.99594 3.99725 7.96908 8.84447 1.97076 6.18755 23.8067
6598584 2.9614 4.00661 7.97959 8.82585 1.98905 6.20699 23.7734
6598592 2.9614 4.00661 7.97959 8.82585 1.98905 6.20699 23.7734
6598605 2.9873 3.96916 8.00062 8.82585 1.89957 6.22505 23.7829
6598612 2.97867 3.94108 8.09524 8.8724 1.82059 6.30954 23.8874
6598626 2.97867 3.94108 8.09524 8.8724 1.82059 6.30954 23.8874
6598632 2.9614 3.96916 8.01113 8.91895 2.00705 6.2862 23.8606
6598642 2.95277 3.9598 8.00062 8.93757 2.03766 6.30522 23.8508
6598652 2.95277 3.9598 8.00062 8.93757 2.03766 6.30522 23.8508
6598662 2.97867 3.99725 8.04267 8.94688 2.00579 6.26754 23.9655
6598673 2.97867 3.99725 8.04267 8.94688 2.00579 6.26754 23.9655
6598682 2.8837 3.90363 8.0637 8.92826 1.98124 6.43709 23.7793
6598699 2.9096 3.92236 8.04267 8.92826 1.99382 6.38933 23.8029
6598703 2.9096 3.92236 8.04267 8.92826 1.99382 6.38933 23.8029
6598713 2.91823 3.93172 7.96908 8.8724 2.02268 6.32604 23.6914
6598726 2.8837 3.93172 7.94805 8.90964 2.12224 6.36309 23.6731
6598734 2.8837 3.89427 7.94805 8.90964 2.086 6.39693 23.6357
6598743 2.95277 3.95044 8.04267 8.90964 1.9541 6.31873 23.8555
6598754 2.95277 3.95044 8.04267 8.90964 1.9541 6.31873 23.8555
6598763 2.95277 3.93172 7.97959 8.91895 2.01646 6.31588 23.783
6598774 3.00457 3.9598 8.00062 8.91895 1.96111 6.25223 23.8839
6598784 3.00457 3.9598 8.00062 8.91895 1.96111 6.25223 23.8839
6598794 2.97004 3.99725 7.99011 9.00274 2.12837 6.2764 23.9601
6598814 2.9614 3.99725 8.03216 8.85378 1.94747 6.24499 23.8446
6598826 3.02184 3.99725 8.01113 8.86309 1.91201 6.18696 23.8933
6598835 3.02184 3.99725 8.01113 8.86309 1.91201 6.18696 23.8933
6598845 2.99594 3.97852 7.91651 8.80723 1.97621 6.1709 23.6982
6598855 3.02184 3.98789 7.97959 8.84447 1.92052 6.17674 23.8338
6598865 3.02184 3.98789 7.97959 8.84447 1.92052 6.17674 23.8338
6598875 2.97867 4.03469 7.96908 8.80723 1.99054 6.15579 23.7897
6598885 3.03047 3.98789 7.96908 8.7793 1.85936 6.14095 23.7667
6598905 3.05637 4.02533 7.99011 8.75137 1.81569 6.08217 23.8232
6598926 2.99594 4.01597 7.91651 8.78861 1.99448 6.13054 23.717
6598937 3.00457 4.10958 7.906 8.7793 2.0781 6.03237 23.7994
6598946 3.00457 4.10958 7.906 8.7793 2.0781 6.03237 23.7994
6598957 3.03911 4.09086 7.91651 8.78861 2.01788 6.02588 23.8351
6598966 3.0132 4.05341 7.85343 8.89102 2.18154 6.09664 23.8111
6598978 3.0132 4.05341 7.85343 8.89102 2.18154 6.09664 23.8111
6598986 2.99594 4.18447 7.87446 8.9655 2.37254 6.0321 24.0204
6599006 2.94413 4.1283 7.77984 8.9655 2.48746 6.09181 23.8178
6599020 2.94413 4.13767 7.63265 9.01205 2.71102 6.04571 23.7265
6599027 2.94413 4.13767 7.63265 9.01205 2.71102 6.04571 23.7265
6599037 2.9614 4.1283 7.60111 9.06791 2.77129 6.04787 23.7587
6599047 2.97004 4.20319 7.62214 9.03998 2.78053 5.97152 23.8353
6599067 2.94413 4.20319 7.52752 9.09584 2.9736 5.97965 23.7707
6599088 2.9355 4.19383 7.55906 9.09584 2.93799 6.00749 23.7842
6599099 2.97004 4.23128 7.55906 9.01205 2.85439 5.91218 23.7724
6599119 2.91823 4.18447 7.60111 8.97481 2.78725 6.00112 23.6786
6599129 2.97867 4.22192 7.71676 8.97481 2.61728 5.95864 23.8922
6599149 3.03911 4.25 7.71676 8.83516 2.44253 5.82786 23.841
6599171 3.03047 4.28745 7.71676 8.86309 2.51415 5.81347 23.8978
6599180 3.04774 4.27808 7.7483 8.80723 2.39651 5.79723 23.8814
6599194 3.04774 4.27808 7.7483 8.80723 2.39651 5.79723 23.8814
6599200 3.03047 4.25 7.70625 8.73275 2.36728 5.79178 23.7195
6599210 3.09091 4.27808 7.83241 8.73275 2.18048 5.76342 23.9341
6599220 3.09091 4.27808 7.83241 8.73275 2.18048 5.76342 23.9341
6599230 3.03047 4.24064 7.85343 8.66758 2.12708 5.8317 23.7921
6599239 3.05637 4.20319 7.87446 8.60241 1.97457 5.82478 23.7364
6599251 3.05637 4.20319 7.87446 8.60241 1.97457 5.82478 23.7364
6599261 3.09954 4.18447 7.92703 8.64896 1.89319 5.84156 23.86
6599271 3.09954 4.18447 7.92703 8.64896 1.89319 5.84156 23.86
6599281 3.00457 4.18447 7.96908 8.62103 1.9259 5.93024 23.7792
6599291 3.11681 4.17511 8.03216 8.5931 1.69255 5.85353 23.9172
6599319 3.06501 4.14703 8.02164 8.53724 1.68022 5.89808 23.7709
6599337 3.03911 4.11894 8.05318 8.57448 1.68287 5.97183 23.7857
6599342 3.03911 4.11894 8.05318 8.57448 1.68287 5.97183 23.7857
6599343 3.08228 4.04405 8.1478 8.56517 1.44629 6.03204 23.8393
6599354 3.08228 4.04405 8.1478 8.56517 1.44629 6.03204 23.8393
6599364 3.09954 4.11894 8.20037 8.54655 1.42453 5.96387 23.9654
6599372 3.12544 4.1283 8.2214 8.57448 1.40952 5.95152 24.0496
6599384 3.12544 4.1283 8.2214 8.57448 1.40952 5.95152 24.0496
6599392 3.02184 4.00661 8.24242 8.56517 1.37136 6.15401 23.836
6599405 3.09091 4.01597 8.25294 8.50931 1.23741 6.06769 23.8691
6599412 3.09091 4.01597 8.25294 8.50931 1.23741 6.06769 23.8691
6599422 3.09091 3.96916 8.3055 8.49069 1.11443 6.12174 23.8563
6599447 3.05637 4.01597 8.3055 8.48138 1.18976 6.10741 23.8592
6599453 3.06501 3.95044 8.29499 8.57448 1.21931 6.18844 23.8849
6599468 3.06501 3.95044 8.29499 8.57448 1.21931 6.18844 23.8849
6599473 3.06501 4.02533 8.3055 8.50931 1.21745 6.10191 23.9052
6599484 3.02184 4.00661 8.23191 8.44414 1.26242 6.10492 23.7045
6599505 3.07364 3.97852 8.25294 8.41621 1.12574 6.08123 23.7213
6599515 3.07364 3.94108 8.31602 8.49069 1.09367 6.16587 23.8214
6599535 3.07364 3.96916 8.28448 8.5 1.16573 6.13268 23.8273
6599546 3.07364 3.96916 8.28448 8.5 1.16573 6.13268 23.8273
6599556 3.08228 3.95044 8.3055 8.46276 1.07708 6.1356 23.801
6599567 3.09091 4.06278 8.34756 8.51862 1.18957 6.06529 24.0199
6599577 3.09091 4.06278 8.34756 8.51862 1.18957 6.06529 24.0199
6599586 3.03911 3.95044 8.29499 8.54655 1.21993 6.20114 23.8311
6599597 3.07364 3.98789 8.32653 8.55586 1.19401 6.15242 23.9439
6599618 3.09954 4.06278 8.20037 8.54655 1.36915 6.01312 23.9092
6599627 3.09954 4.06278 8.20037 8.54655 1.36915 6.01312 23.9092
6599640 3.07364 3.99725 8.18986 8.51862 1.31665 6.07938 23.7794
6599647 3.09091 4.07214 8.24242 8.44414 1.24001 5.98973 23.8496
6599660 3.09091 4.07214 8.24242 8.44414 1.24001 5.98973 23.8496
6599667 3.07364 4.10022 8.13729 8.50931 1.46785 5.96509 23.8205
6599677 3.08228 4.14703 8.13729 8.48138 1.4769 5.90577 23.848
6599687 3.08228 4.14703 8.13729 8.48138 1.4769 5.90577 23.848
6599697 3.06501 4.21255 8.0637 8.46276 1.62432 5.82815 23.804
6599717 3.07364 4.17511 8.08472 8.45345 1.54517 5.85789 23.7869
6599729 3.11681 4.18447 8.02164 8.48138 1.60412 5.79837 23.8043
6599749 3.08228 4.19383 7.99011 8.51862 1.72386 5.82259 23.7848
6599761 3.05637 4.20319 8.00062 8.51862 1.75032 5.84113 23.7788
6599771 3.05637 4.20319 8.00062 8.51862 1.75032 5.84113 23.7788
6599781 3.10818 4.17511 8.03216 8.52793 1.63851 5.83609 23.8434
6599790 3.08228 4.1283 7.97959 8.56517 1.71709 5.89395 23.7553
6599810 3.09954 4.14703 7.96908 8.65827 1.81859 5.89395 23.8739
6599820 3.09954 4.14703 7.96908 8.65827 1.81859 5.89395 23.8739
6599830 3.10818 4.15639 7.93754 8.5931 1.79004 5.84114 23.7952
6599840 3.09954 4.18447 7.92703 8.62103 1.86611 5.83083 23.8321
6599860 3.12544 4.20319 7.87446 8.65827 1.95039 5.78598 23.8614
6599871 3.06501 4.23128 7.906 8.63034 1.98322 5.81559 23.8326
6599880 3.06501 4.23128 7.906 8.63034 1.98322 5.81559 23.8326
6599894 3.13408 4.28745 7.91651 8.56517 1.88471 5.68553 23.9032
6599900 3.13408 4.28745 7.91651 8.56517 1.88471 5.68553 23.9032
6599910 3.11681 4.25936 7.86395 8.62103 1.9903 5.72613 23.8611
6599920 3.09954 4.23128 7.86395 8.60241 1.96473 5.75837 23.7972
6599930 3.09954 4.23128 7.86395 8.60241 1.96473 5.75837 23.7972
6599940 3.11681 4.25936 7.80087 8.5931 2.03489 5.69062 23.7701
6599951 3.12544 4.31553 7.80087 8.54655 2.03436 5.61604 23.7884
6599961 3.12544 4.31553 7.80087 8.54655 2.03436 5.61604 23.7884
6599979 3.15998 4.3717 7.73779 8.53724 2.11198 5.50896 23.8067
6599982 3.15998 4.3717 7.73779 8.53724 2.11198 5.50896 23.8067
6599991 3.09091 4.28745 7.68522 8.60241 2.23287 5.64688 23.666
6600001 3.16861 4.38106 7.75881 8.57448 2.12297 5.51667 23.883
6600011 3.16861 4.38106 7.75881 8.57448 2.12297 5.51667 23.883
6600021 3.15135 4.38106 7.68522 8.55586 2.20871 5.49478 23.7735
6600031 3.06501 4.34361 7.65368 8.56517 2.31732 5.59321 23.6275
6600041 3.06501 4.34361 7.65368 8.56517 2.31732 5.59321 23.6275
6600051 3.15998 4.39978 7.68522 8.57448 2.23458 5.47868 23.8195
6600061 3.15998 4.39978 7.68522 8.57448 2.23458 5.47868 23.8195
6600071 3.12544 4.35297 7.65368 8.53724 2.22977 5.52138 23.6693
6600082 3.20315 4.44659 7.66419 8.62103 2.29818 5.41184 23.935
6600098 3.20315 4.44659 7.66419 8.62103 2.29818 5.41184 23.935
6600102 3.13408 4.44659 7.61163 8.62103 2.43762 5.44989 23.8133
6600113 3.15998 4.42786 7.61163 8.57448 2.34578 5.42501 23.7739
6600132 3.15135 4.44659 7.56957 8.58379 2.43088 5.40313 23.7513
6600145 3.15135 4.44659 7.56957 8.58379 2.43088 5.40313 23.7513
6600153 3.07364 4.48403 7.5906 8.60241 2.54961 5.45374 23.7507
6600168 3.11681 4.39042 7.63265 8.63965 2.39765 5.52896 23.7795
6600178 3.11681 4.39042 7.63265 8.63965 2.39765 5.52896 23.7795
6600195 3.10818 4.40914 7.62214 8.63965 2.43751 5.51606 23.7791
6600205 3.10818 4.40914 7.62214 8.63965 2.43751 5.51606 23.7791
6600218 3.11681 4.36233 7.64317 8.71413 2.42956 5.58692 23.8364
6600225 3.10818 4.28745 7.67471 8.62103 2.24301 5.63504 23.6914
6600235 3.10818 4.28745 7.67471 8.62103 2.24301 5.63504 23.6914
6600245 3.10818 4.31553 7.69573 8.72344 2.34353 5.65922 23.8429
6600266 3.07364 4.32489 7.68522 8.66758 2.35103 5.65501 23.7513
6600276 3.03911 4.26872 7.65368 8.69551 2.40039 5.73278 23.657
6600289 3.03911 4.26872 7.65368 8.69551 2.40039 5.73278 23.657
6600296 3.09954 4.29681 7.68522 8.6862 2.31221 5.66423 23.7678
6600307 3.14271 4.24064 7.7483 8.69551 2.1458 5.70386 23.8272
6600319 3.14271 4.24064 7.7483 8.69551 2.1458 5.70386 23.8272
6600328 3.10818 4.25 7.7483 8.67689 2.17633 5.7185 23.7834
6600336 3.10818 4.25 7.7483 8.67689 2.17633 5.7185 23.7834
6600350 3.08228 4.22192 7.76933 8.71413 2.19068 5.78826 23.7876
6600356 3.14271 4.32489 7.80087 8.61172 2.08649 5.61866 23.8802
6600376 3.09091 4.38106 7.71676 8.56517 2.25074 5.56328 23.7539
6600386 3.12544 4.38106 7.70625 8.50931 2.16958 5.50693 23.7221
6600398 3.12544 4.38106 7.70625 8.50931 2.16958 5.50693 23.7221
6600409 3.13408 4.44659 7.72727 8.48138 2.17179 5.44025 23.7893
6600419 3.13408 4.44659 7.72727 8.48138 2.17179 5.44025 23.7893
6600427 3.11681 4.44659 7.71676 8.34173 2.06879 5.39442 23.6219
6600442 3.20315 4.56828 7.64317 8.4069 2.23418 5.21292 23.8215
6600447 3.20315 4.56828 7.64317 8.4069 2.23418 5.21292 23.8215
6600458 3.16861 4.57764 7.72727 8.28587 2.07037 5.21913 23.7594
6600467 3.27222 4.59637 7.63265 8.28587 2.07819 5.07624 23.7871
6600478 3.27222 4.59637 7.63265 8.28587 2.07819 5.07624 23.7871
6600487 3.23768 4.60573 7.61163 8.29518 2.15956 5.09262 23.7502
6600498 3.23768 4.60573 7.61163 8.29518 2.15956 5.09262 23.7502
6600510 3.16861 4.587 7.56957 8.19277 2.17024 5.10677 23.518
6600520 3.23768 4.587 7.58009 8.2207 2.10571 5.06409 23.6255
6600531 3.23768 4.587 7.58009 8.2207 2.10571 5.06409 23.6255
6600539 3.23768 4.65253 7.63265 8.20208 2.09092 5.02289 23.725
6600552 3.27222 4.57764 7.64317 8.25794 2.02118 5.08479 23.751
6600573 3.23768 4.587 7.72727 8.30449 2.01889 5.16029 23.8565
6600580 3.24632 4.60573 7.7483 8.29518 1.9944 5.14203 23.8955
6600589 3.24632 4.60573 7.7483 8.29518 1.9944 5.14203 23.8955
6600607 3.26359 4.51211 7.83241 8.34173 1.83493 5.26002 23.9498
6600619 3.26359 4.51211 7.83241 8.34173 1.83493 5.26002 23.9498
6600620 3.16861 4.47467 7.85343 8.30449 1.84562 5.3661 23.8012
6600631 3.19451 4.39978 7.89549 8.3138 1.70518 5.4288 23.8036
6600641 3.19451 4.39978 7.89549 8.3138 1.70518 5.4288 23.8036
6600651 3.16861 4.39978 7.86395 8.36966 1.8243 5.46081 23.802
6600661 3.14271 4.30617 8.03216 8.46276 1.66437 5.66705 23.9438
6600671 3.14271 4.30617 8.03216 8.46276 1.66437 5.66705 23.9438
6600682 3.15998 4.21255 8.00062 8.56517 1.68885 5.76059 23.9383
6600702 3.03911 4.07214 8.05318 8.64896 1.70997 6.04129 23.8134
6600712 3.03911 4.04405 8.12678 8.70482 1.65482 6.11449 23.9148
6600724 3.03911 4.04405 8.12678 8.70482 1.65482 6.11449 23.9148
6600731 2.99594 3.92236 8.12678 8.73275 1.61116 6.27133 23.7778
6600741 2.9873 3.85683 8.18986 8.82585 1.57746 6.39458 23.8598
6600762 2.97004 3.80066 8.28448 8.8724 1.48213 6.51101 23.9276
6600772 2.97004 3.80066 8.28448 8.8724 1.48213 6.51101 23.9276
6600782 2.9355 3.68833 8.32653 8.91895 1.40897 6.67488 23.8693
6600792 2.89233 3.6696 8.26345 8.97481 1.56367 6.72872 23.8002
6600812 2.95277 3.66024 8.25294 8.94688 1.47128 6.66876 23.8128
6600822 2.90096 3.72577 8.34756 9.03998 1.57951 6.7215 24.0143
6600833 2.90096 3.72577 8.34756 9.03998 1.57951 6.7215 24.0143
6600842 2.91823 3.6696 8.31602 8.98412 1.48555 6.72659 23.888
6600862 2.90096 3.6228 8.36858 8.98412 1.4003 6.80311 23.8765
6600876 2.9096 3.71641 8.32653 8.93757 1.48372 6.67939 23.8901
6600884 2.9096 3.71641 8.32653 8.93757 1.48372 6.67939 23.8901
6600894 2.94413 3.70705 8.29499 8.90964 1.44363 6.63577 23.8558
6600904 2.8837 3.70705 8.27396 8.90033 1.52505 6.68012 23.765
6600914 2.8837 3.70705 8.27396 8.90033 1.52505 6.68012 23.765
6600924 2.91823 3.73513 8.27396 8.90964 1.52345 6.62641 23.837
6600943 2.95277 3.70705 8.29499 8.88171 1.40645 6.61813 23.8365
6600955 2.97004 3.73513 8.3055 8.89102 1.41267 6.58406 23.9017
6600965 2.97004 3.73513 8.3055 8.89102 1.41267 6.58406 23.9017
6600975 2.94413 3.82874 8.25294 8.8724 1.57341 6.49784 23.8982
6600986 2.9614 3.80066 8.18986 8.90033 1.6243 6.49506 23.8522
6600995 2.9614 3.80066 8.18986 8.90033 1.6243 6.49506 23.8522
6601009 2.9873 3.89427 8.25294 8.90033 1.61678 6.4105 24.0348
6601015 2.9873 3.89427 8.25294 8.90033 1.61678 6.4105 24.0348
6601030 2.9355 3.78194 8.24242 8.88171 1.55791 6.54741 23.8416
6601036 2.92687 3.77258 8.20037 8.88171 1.60529 6.54876 23.7815
6601046 2.92687 3.77258 8.20037 8.88171 1.60529 6.54876 23.7815
6601056 2.90096 3.77258 8.17934 8.89102 1.66705 6.5681 23.7439
6601066 2.94413 3.80066 8.23191 8.88171 1.5784 6.51897 23.8584
6601076 2.94413 3.80066 8.23191 8.88171 1.5784 6.51897 23.8584
6601086 3.00457 3.81938 8.21088 8.91895 1.58939 6.4536 23.9538
6601096 2.97867 3.7913 8.18986 8.93757 1.63233 6.5012 23.8974
6601118 2.94413 3.82874 8.18986 8.98412 1.7527 6.51511 23.9469
6601136 2.95277 3.7913 8.15832 8.90964 1.66917 6.50337 23.812
6601146 2.9614 3.81002 8.15832 8.92826 1.69604 6.48534 23.858
6601156 2.9614 3.81002 8.15832 8.92826 1.69604 6.48534 23.858
6601167 2.9614 3.81938 8.11626 8.93757 1.76139 6.46521 23.8346
6601176 2.9614 3.81938 8.11626 8.93757 1.76139 6.46521 23.8346
6601189 2.9355 3.7913 8.07421 8.89102 1.76495 6.4822 23.692
6601196 2.9873 3.87555 8.08472 8.90964 1.79522 6.37009 23.8572
6601206 2.9873 3.87555 8.08472 8.90964 1.79522 6.37009 23.8572
6601217 2.9614 3.85683 8.0637 8.91895 1.83888 6.40591 23.8009
6601227 3.0132 3.89427 8.09524 8.88171 1.74543 6.32387 23.8844
6601242 3.0132 3.89427 8.09524 8.88171 1.74543 6.32387 23.8844
6601251 2.94413 3.93172 8.03216 8.90033 1.94864 6.336 23.8083
6601260 2.94413 3.93172 8.03216 8.90033 1.94864 6.336 23.8083
6601267 3.00457 3.90363 7.99011 8.8724 1.87348 6.28145 23.7707
6601281 2.9873 3.90363 7.93754 8.84447 1.92547 6.26732 23.6729
6601287 2.9873 3.90363 7.93754 8.84447 1.92547 6.26732 23.6729
6601297 3.04774 3.96916 7.94805 8.84447 1.90874 6.15866 23.8094
6601307 3.02184 4.02533 7.93754 8.7793 1.94123 6.10356 23.764
6601319 3.02184 4.02533 7.93754 8.7793 1.94123 6.10356 23.764
6601330 3.06501 4.07214 7.97959 8.72344 1.83616 6.01876 23.8402
6601337 3.06501 4.07214 7.97959 8.72344 1.83616 6.01876 23.8402
6601353 3.07364 4.06278 7.89549 8.78861 1.97546 6.01226 23.8205
6601357 3.02184 4.10022 7.93754 8.80723 2.04057 6.04775 23.8668
6601367 3.02184 4.10022 7.93754 8.80723 2.04057 6.04775 23.8668
6601377 3.07364 4.10958 7.83241 8.76999 2.07428 5.94004 23.7856
6601387 3.03047 4.11894 7.87446 8.75137 2.06662 5.97875 23.7752
6601397 3.03047 4.11894 7.87446 8.75137 2.06662 5.97875 23.7752
6601407 3.09954 4.15639 7.94805 8.73275 1.92334 5.90611 23.9367
6601427 3.09954 4.15639 7.94805 8.73275 1.92334 5.90611 23.9367
6601429 3.03911 4.10022 7.86395 8.65827 1.96039 5.94819 23.6615
6601439 3.04774 4.18447 7.86395 8.71413 2.08619 5.8877 23.8103
6601459 3.03047 4.1283 7.82189 8.74206 2.12665 5.94694 23.7227
6601469 3.08228 4.13767 7.87446 8.75137 2.02583 5.9167 23.8458
6601479 3.08228 4.13767 7.87446 8.75137 2.02583 5.9167 23.8458
6601489 3.03047 4.16575 7.83241 8.76068 2.16857 5.92505 23.7893
6601501 3.03047 4.16575 7.83241 8.76068 2.16857 5.92505 23.7893
6601509 3.08228 4.14703 7.83241 8.73275 2.06466 5.88531 23.7945
6601522 3.05637 4.14703 7.83241 8.7793 2.13892 5.92584 23.8151
6601530 3.05637 4.14703 7.83241 8.7793 2.13892 5.92584 23.8151
6601540 3.03911 4.15639 7.82189 8.76068 2.16173 5.92168 23.7781
6601550 3.07364 4.17511 7.79035 8.72344 2.14051 5.84852 23.7625
6601570 3.04774 4.16575 7.79035 8.71413 2.15215 5.87592 23.718
6601581 2.99594 4.25 7.79035 8.6862 2.26569 5.83662 23.7225
6601601 3.03047 4.20319 7.75881 8.76999 2.29763 5.86753 23.7625
6601612 3.03047 4.20319 7.75881 8.76999 2.29763 5.86753 23.7625
6601622 3.03911 4.15639 7.79035 8.73275 2.17096 5.89892 23.7186
6601633 3.03047 4.21255 7.86395 8.84447 2.25728 5.92786 23.9514
6601653 3.03047 4.17511 7.80087 8.85378 2.30252 5.94026 23.8602
6601664 3.03911 4.15639 7.86395 8.90033 2.24717 5.99053 23.9598
6601684 3.04774 4.13767 7.82189 8.80723 2.17857 5.94829 23.8145
6601698 3.04774 4.13767 7.82189 8.80723 2.17857 5.94829 23.8145
6601703 2.99594 4.06278 7.81138 8.83516 2.20481 6.0669 23.7052
6601714 3.06501 4.22192 7.73779 8.82585 2.35316 5.83427 23.8506
6601724 3.06501 4.22192 7.73779 8.82585 2.35316 5.83427 23.8506
6601735 3.05637 4.19383 7.7483 8.80723 2.30658 5.86329 23.8057
6601745 3.05637 4.18447 7.75881 8.82585 2.30335 5.88266 23.8255
6601755 3.05637 4.18447 7.75881 8.82585 2.30335 5.88266 23.8255
6601765 3.06501 4.13767 7.85343 8.80723 2.12298 5.9451 23.8633
6601775 3.04774 4.10958 7.87446 8.78861 2.07384 5.98589 23.8204
6601786 3.04774 4.10958 7.87446 8.78861 2.07384 5.98589 23.8204
6601795 3.10818 4.18447 7.82189 8.74206 2.09215 5.8294 23.8566
6601815 3.03911 4.1283 7.85343 8.75137 2.08977 5.95489 23.7722
6601831 3.03911 4.10958 7.86395 8.76068 2.06872 5.97893 23.7733
6601846 3.04774 4.1283 7.77984 8.69551 2.11006 5.89773 23.6514
6601856 3.08228 4.15639 7.85343 8.69551 2.01385 5.87088 23.7876
6601866 3.08228 4.15639 7.85343 8.69551 2.01385 5.87088 23.7876
6601881 3.09091 4.22192 7.80087 8.72344 2.15376 5.79651 23.8371
6601900 3.09091 4.20319 7.81138 8.75137 2.15061 5.82766 23.8569
6601906 3.09954 4.27808 7.72727 8.73275 2.29051 5.71516 23.8376
6601916 3.09954 4.27808 7.72727 8.73275 2.29051 5.71516 23.8376
6601926 3.09091 4.24064 7.70625 8.66758 2.22636 5.72166 23.7054
6601936 3.12544 4.32489 7.66419 8.63034 2.28006 5.58702 23.7449
6601946 3.12544 4.32489 7.66419 8.63034 2.28006 5.58702 23.7449
6601956 3.18588 4.33425 7.53803 8.67689 2.40912 5.49491 23.7351
6601969 3.18588 4.33425 7.53803 8.67689 2.40912 5.49491 23.7351
6601976 3.16861 4.33425 7.44341 8.66758 2.53009 5.46806 23.6139
6601991 3.24632 4.36233 7.38033 8.5931 2.46881 5.32064 23.5821
6602006 3.39309 4.46531 7.39085 8.63034 2.42017 5.12747 23.8796
6602017 3.41036 4.43722 7.34879 8.62103 2.41325 5.11532 23.8174
6602027 3.41036 4.43722 7.34879 8.62103 2.41325 5.11532 23.8174
6602038 3.46216 4.49339 7.34879 8.54655 2.33637 4.99339 23.8509
6602060 3.4708 4.49339 7.32777 8.48138 2.28849 4.94985 23.7733
6602067 3.4449 4.46531 7.38033 8.52793 2.27555 5.03689 23.8185
6602087 3.41899 4.46531 7.33828 8.45345 2.28235 5.00977 23.676
6602102 3.42763 4.44659 7.47495 8.4069 2.05306 5.05616 23.7561
6602109 3.42763 4.44659 7.47495 8.4069 2.05306 5.05616 23.7561
6602119 3.46216 4.33425 7.53803 8.53724 1.95974 5.2021 23.8717
6602128 3.46216 4.33425 7.53803 8.53724 1.95974 5.2021 23.8717
6602138 3.40173 4.32489 7.47495 8.46276 2.01883 5.20473 23.6643
6602149 3.4449 4.28745 7.48547 8.42552 1.88489 5.18877 23.6433
6602159 3.4449 4.28745 7.48547 8.42552 1.88489 5.18877 23.6433
6602169 3.43626 4.25 7.54855 8.43483 1.79557 5.25807 23.6696
6602179 3.41899 4.20319 7.51701 8.36035 1.73146 5.26936 23.4995
6602189 3.41899 4.20319 7.51701 8.36035 1.73146 5.26936 23.4995
6602199 3.41036 4.24064 7.67471 8.48138 1.71897 5.35875 23.8071
6602210 3.41036 4.24064 7.67471 8.48138 1.71897 5.35875 23.8071
6602219 3.34129 4.0815 7.64317 8.50931 1.70343 5.55435 23.5753
6602232 3.33266 4.15639 7.7483 8.58379 1.74133 5.5684 23.8211
6602238 3.33266 4.15639 7.7483 8.58379 1.74133 5.5684 23.8211
6602249 3.35856 4.1283 7.81138 8.62103 1.65076 5.60984 23.9193
6602259 3.34129 4.0815 7.75881 8.55586 1.61902 5.61889 23.7375
6602269 3.34129 4.0815 7.75881 8.55586 1.61902 5.61889 23.7375
6602279 3.42763 4.14703 7.82189 8.57448 1.53517 5.52024 23.971
6602289 3.42763 4.14703 7.82189 8.57448 1.53517 5.52024 23.971
6602298 3.34992 4.05341 7.71676 8.56517 1.63805 5.62286 23.6853
6602309 3.31539 4.10958 7.72727 8.44414 1.60095 5.56003 23.5964
6602320 3.31539 4.10958 7.72727 8.44414 1.60095 5.56003 23.5964
6602329 3.38446 4.17511 7.73779 8.5 1.63134 5.47007 23.7974
6602349 3.31539 4.15639 7.72727 8.49069 1.69315 5.53796 23.6897
6602360 3.34129 4.19383 7.80087 8.53724 1.66391 5.53108 23.8732
6602380 3.35856 4.07214 7.75881 8.50931 1.54446 5.59359 23.6988
6602390 3.36719 4.17511 7.76933 8.5 1.61538 5.49754 23.8116
6602400 3.36719 4.17511 7.76933 8.5 1.61538 5.49754 23.8116
6602412 3.33266 4.16575 7.85343 8.47207 1.5234 5.55772 23.8239
6602420 3.35856 4.10022 7.82189 8.47207 1.46493 5.57947 23.7527
6602434 3.35856 4.10022 7.82189 8.47207 1.46493 5.57947 23.7527
6602440 3.29812 4.15639 7.83241 8.49069 1.59452 5.59471 23.7776
6602455 3.29812 4.15639 7.83241 8.49069 1.59452 5.59471 23.7776
6602460 3.33266 4.11894 7.83241 8.49069 1.51902 5.59723 23.7747
6602470 3.29812 4.0815 7.85343 8.51862 1.5247 5.67903 23.7517
6602490 3.34129 4.19383 7.85343 8.53724 1.60533 5.55188 23.9258
6602500 3.34129 4.19383 7.86395 8.53724 1.59364 5.55604 23.9363
6602511 3.27222 4.13767 7.86395 8.5 1.57894 5.64953 23.7738
6602523 3.28949 4.07214 7.906 8.48138 1.42957 5.70072 23.749
6602539 3.28949 4.07214 7.906 8.48138 1.42957 5.70072 23.749
6602543 3.28085 4.0815 7.906 8.5931 1.55873 5.74362 23.8615
6602551 3.29812 4.0815 7.89549 8.56517 1.52375 5.71367 23.8403
6602571 3.28949 4.1283 7.87446 8.52793 1.5662 5.65777 23.8202
6602588 3.24632 4.11894 7.89549 8.51862 1.57254 5.708 23.7794
6602592 3.24632 4.11894 7.89549 8.51862 1.57254 5.708 23.7794
6602602 3.28085 4.11894 7.85343 8.50931 1.57177 5.65782 23.7625
6602612 3.28085 4.11894 7.85343 8.50931 1.57177 5.65782 23.7625
6602622 3.26359 4.05341 7.87446 8.47207 1.4658 5.7237 23.6635
6602632 3.26359 4.10958 7.906 8.58379 1.59639 5.73061 23.863
6602654 3.30675 4.14703 7.92703 8.57448 1.55261 5.66538 23.9553
6602664 3.28949 4.10958 7.88497 8.5931 1.60009 5.70357 23.8771
6602676 3.28949 4.10958 7.88497 8.5931 1.60009 5.70357 23.8771
6602684 3.26359 4.18447 7.93754 8.55586 1.60726 5.66716 23.9415
6602698 3.26359 4.18447 7.93754 8.55586 1.60726 5.66716 23.9415
6602705 3.24632 4.05341 7.82189 8.54655 1.61795 5.74741 23.6682
6602715 3.26359 4.09086 7.80087 8.51862 1.63157 5.68033 23.6739
6602725 3.26359 4.09086 7.80087 8.51862 1.63157 5.68033 23.6739
6602735 3.20315 4.01597 7.88497 8.52793 1.54005 5.83559 23.632
6602745 3.22042 4.03469 7.83241 8.55586 1.62596 5.79432 23.6434
6602755 3.22042 4.03469 7.83241 8.55586 1.62596 5.79432 23.6434
6602768 3.30675 4.15639 7.86395 8.56517 1.62276 5.629 23.8923
6602775 3.19451 4.15639 7.87446 8.54655 1.71838 5.72321 23.7719
6602785 3.19451 4.00661 7.87446 8.54655 1.57076 5.85461 23.6221
6602796 3.26359 4.11894 7.94805 8.61172 1.58613 5.7496 23.9423
6602806 3.26359 4.11894 7.94805 8.61172 1.58613 5.7496 23.9423
6602816 3.22905 4.1283 7.906 8.63034 1.69877 5.76239 23.8937
6602826 3.22042 4.04405 7.87446 8.64896 1.67957 5.83844 23.7879
6602836 3.22042 4.04405 7.87446 8.64896 1.67957 5.83844 23.7879
6602846 3.15998 4.06278 7.85343 8.56517 1.70732 5.83459 23.6414
6602856 3.22905 4.0815 7.86395 8.63034 1.70012 5.7869 23.8048
6602866 3.22905 4.0815 7.86395 8.63034 1.70012 5.7869 23.8048
6602878 3.23768 4.14703 7.75881 8.63034 1.87272 5.68131 23.7739
6602886 3.23768 4.14703 7.75881 8.63034 1.87272 5.68131 23.7739
6602900 3.24632 4.05341 7.81138 8.57448 1.65733 5.75421 23.6856
6602906 3.22042 4.05341 7.80087 8.62103 1.74416 5.79096 23.6957
6602916 3.22042 4.05341 7.80087 8.62103 1.74416 5.79096 23.6957
6602926 3.26359 4.05341 7.83241 8.63965 1.67837 5.77265 23.7891
6602936 3.22905 4.1283 7.83241 8.60241 1.754 5.72297 23.7922
6602957 3.27222 4.09086 7.88497 8.63965 1.64658 5.75288 23.8877
6602967 3.27222 4.09086 7.88497 8.63965 1.64658 5.75288 23.8877
6602977 3.23768 4.0815 7.84292 8.69551 1.77763 5.79642 23.8576
6602987 3.21178 4.10958 7.82189 8.66758 1.83056 5.77559 23.8108
6603000 3.21178 4.10958 7.82189 8.66758 1.83056 5.77559 23.8108
6603009 3.15998 4.05341 7.89549 8.69551 1.77851 5.90916 23.8044
6603019 3.22042 4.0815 7.88497 8.72344 1.77701 5.83838 23.9103
6603032 3.22042 4.0815 7.88497 8.72344 1.77701 5.83838 23.9103
6603039 3.19451 4.10022 7.89549 8.66758 1.75813 5.82723 23.8578
6603059 3.16861 4.02533 7.94805 8.67689 1.66418 5.93919 23.8189
6603070 3.18588 4.05341 7.906 8.63034 1.67385 5.86549 23.7756
6603090 3.18588 4.00661 7.92703 8.64896 1.62259 5.92181 23.7685
6603104 3.17725 3.9598 7.89549 8.64896 1.62155 5.9587 23.6815
6603110 3.17725 3.9598 7.89549 8.64896 1.62155 5.9587 23.6815
6603120 3.14271 4.0815 7.86395 8.66758 1.83368 5.87688 23.7557
6603140 3.10818 4.00661 7.92703 8.72344 1.7829 6.01867 23.7652
6603154 3.15998 4.04405 7.906 8.72344 1.7848 5.93204 23.8335
6603179 3.09954 3.99725 7.94805 8.72344 1.75979 6.04253 23.7683
6603181 3.09954 3.97852 7.94805 8.76068 1.77788 6.07311 23.7868
6603191 3.09954 3.97852 7.94805 8.76068 1.77788 6.07311 23.7868
6603204 3.16861 4.01597 7.91651 8.70482 1.7177 5.94605 23.8059
6603211 3.09954 3.92236 7.99011 8.78861 1.70302 6.14909 23.8006
6603227 3.09954 3.92236 7.99011 8.78861 1.70302 6.14909 23.8006
6603231 3.11681 3.99725 8.00062 8.74206 1.6996 6.05402 23.8567
6603241 3.11681 3.99725 8.00062 8.74206 1.6996 6.05402 23.8567
6603252 3.11681 3.99725 7.95857 8.84447 1.84632 6.0766 23.9171
6603261 3.09091 3.98789 8.02164 8.82585 1.77752 6.12424 23.9263
6603276 3.09091 3.98789 8.02164 8.82585 1.77752 6.12424 23.9263
6603281 3.12544 3.95044 7.97959 8.76068 1.68592 6.08687 23.8162
6603291 3.12544 3.95044 7.97959 8.76068 1.68592 6.08687 23.8162
6603301 3.09091 3.93172 7.89549 8.75137 1.79207 6.09914 23.6695
6603311 3.03047 3.95044 8.00062 8.72344 1.73253 6.16525 23.705
6603322 3.03047 3.95044 8.00062 8.72344 1.73253 6.16525 23.705
6603331 3.07364 3.9598 7.88497 8.71413 1.81457 6.0715 23.6325
6603345 3.04774 3.99725 7.94805 8.75137 1.84551 6.09897 23.7444
6603352 3.04774 3.99725 7.94805 8.75137 1.84551 6.09897 23.7444
6603368 3.05637 3.97852 7.97959 8.76068 1.79098 6.12322 23.7752
6603372 3.05637 3.97852 7.99011 8.79792 1.81544 6.14102 23.8229
6603392 3.12544 4.00661 8.02164 8.76068 1.69375 6.05302 23.9144
6603414 3.13408 4.00661 8.00062 8.6862 1.63478 6.00953 23.8275
6603425 3.16861 4.02533 7.99011 8.74206 1.68087 5.9798 23.9261
6603434 3.16861 4.02533 7.99011 8.74206 1.68087 5.9798 23.9261
6603444 3.15135 4.03469 7.95857 8.75137 1.75359 5.97835 23.896
6603456 3.15135 4.01597 7.91651 8.72344 1.75529 5.96833 23.8073
6603464 3.15135 4.01597 7.91651 8.72344 1.75529 5.96833 23.8073
6603474 3.12544 4.09086 7.95857 8.73275 1.81909 5.94477 23.9076
6603484 3.12544 4.09086 7.95857 8.73275 1.81909 5.94477 23.9076
6603494 3.11681 4.02533 7.85343 8.70482 1.85641 5.95946 23.7004
6603504 3.13408 4.10958 7.87446 8.71413 1.90412 5.88169 23.8322
6603514 3.13408 4.10958 7.87446 8.71413 1.90412 5.88169 23.8322
6603523 3.16861 4.05341 7.89549 8.6862 1.75972 5.89802 23.8037
6603534 3.09091 4.00661 7.89549 8.69551 1.81071 6.01144 23.6885
6603544 3.09091 4.00661 7.89549 8.69551 1.81071 6.01144 23.6885
6603553 3.11681 4.03469 8.00062 8.75137 1.74518 6.02453 23.9035
6603575 3.10818 4.02533 7.91651 8.78861 1.87642 6.02275 23.8386
6603585 3.13408 4.04405 8.02164 8.85378 1.81066 6.04731 24.0536
6603595 3.13408 4.04405 8.02164 8.85378 1.81066 6.04731 24.0536
6603605 3.08228 4.01597 7.95857 8.76999 1.83105 6.0627 23.8268
6603615 3.08228 3.96916 8.00062 8.83516 1.80162 6.14409 23.8872
6603625 3.08228 3.96916 8.00062 8.83516 1.80162 6.14409 23.8872
6603636 3.12544 3.97852 7.94805 8.89102 1.87533 6.09891 23.943
6603645 3.12544 3.97852 7.94805 8.89102 1.87533 6.09891 23.943
6603656 3.04774 3.96916 7.99011 8.89102 1.90637 6.19145 23.898
6603665 3.03911 3.92236 8.03216 8.89102 1.82346 6.25614 23.8846
6603678 3.03911 3.92236 8.03216 8.89102 1.82346 6.25614 23.8846
6603685 3.03911 3.93172 8.04267 8.84447 1.77552 6.2346 23.858
6603695 3.03047 3.92236 7.94805 8.89102 1.92802 6.23295 23.7919
6603705 3.03047 3.92236 7.94805 8.89102 1.92802 6.23295 23.7919
6603715 2.99594 3.913 8.00062 8.98412 1.98856 6.3254 23.8937
6603725 2.99594 3.913 8.00062 8.98412 1.98856 6.3254 23.8937
6603734 3.00457 3.86619 7.906 8.88171 1.94151 6.28757 23.6585
6603747 2.92687 3.85683 8.02164 8.92826 1.93457 6.4252 23.7336
6603756 2.92687 3.85683 8.02164 8.92826 1.93457 6.4252 23.7336
6603769 2.94413 3.90363 8.01113 8.94688 1.99032 6.37045 23.8058
6603776 3.00457 3.90363 8.01113 8.91895 1.89494 6.30616 23.8383
6603791 3.00457 3.89427 8.01113 8.91895 1.88586 6.31454 23.8289
6603801 2.9614 3.88491 8.08472 8.94688 1.86958 6.39835 23.8779
6603814 2.9614 3.88491 8.08472 8.94688 1.86958 6.39835 23.8779
6603819 2.99594 3.92236 8.05318 8.89102 1.84835 6.3023 23.8625
6603826 3.00457 3.9598 7.96908 8.8724 1.95178 6.22354 23.8058
6603846 2.9614 3.88491 7.97959 8.90964 1.9523 6.34676 23.7355
6603859 3.02184 3.95044 7.91651 8.90964 2.01876 6.21083 23.7984
6603866 3.02184 3.95044 7.91651 8.90964 2.01876 6.21083 23.7984
6603882 3.03047 4.00661 7.99011 8.81654 1.88998 6.146 23.8437
6603886 3.03047 4.00661 7.99011 8.81654 1.88998 6.146 23.8437
6603896 3.0132 3.9598 8.00062 8.83516 1.87025 6.21374 23.8088
6603906 3.06501 4.01597 8.01113 8.86309 1.88155 6.13223 23.9552
6603916 3.06501 4.01597 8.01113 8.86309 1.88155 6.13223 23.9552
6603928 3.05637 3.98789 7.97959 8.79792 1.83639 6.1288 23.8218
6603950 2.99594 3.98789 7.92703 8.88171 2.04542 6.19411 23.7926
6603959 3.07364 4.07214 7.95857 8.81654 1.94022 6.03823 23.9209
6603967 3.07364 4.07214 7.95857 8.81654 1.94022 6.03823 23.9209
6603979 3.03047 3.9598 7.91651 8.81654 1.9278 6.16025 23.7233
6603989 3.02184 3.94108 8.01113 8.85378 1.84856 6.23346 23.8278
6603999 3.02184 3.94108 8.01113 8.85378 1.84856 6.23346 23.8278
6604009 3.03911 4.01597 7.97959 8.81654 1.90117 6.12614 23.8512
6604019 3.03047 3.94108 7.96908 8.82585 1.8591 6.19993 23.7665
6604029 3.03047 3.94108 7.96908 8.82585 1.8591 6.19993 23.7665
6604039 3.05637 3.9598 7.97959 8.8724 1.88141 6.18134 23.8682
6604049 3.05637 3.9598 7.97959 8.8724 1.88141 6.18134 23.8682
6604062 2.9614 3.87555 7.94805 8.8724 1.94283 6.33005 23.6574
6604070 3.0132 3.86619 8.03216 8.91895 1.82515 6.33959 23.8305
6604080 3.0132 3.86619 8.03216 8.91895 1.82515 6.33959 23.8305
6604090 2.9614 3.85683 7.95857 8.92826 1.96701 6.37117 23.7051
6604100 2.99594 3.85683 8.03216 9.01205 1.92575 6.39711 23.897
6604120 2.92687 3.81002 8.07421 8.98412 1.88385 6.50642 23.7952
6604134 2.92687 3.81002 8.07421 8.98412 1.88385 6.50642 23.7952
6604141 2.95277 3.81938 8.10575 8.98412 1.8282 6.48586 23.862
6604157 2.9355 3.7913 8.11626 9.00274 1.82661 6.53713 23.8458
6604171 2.90096 3.71641 8.02164 9.03067 1.92701 6.61285 23.6697
6604181 2.91823 3.78194 8.07421 8.97481 1.85722 6.53634 23.7492
6604191 2.91823 3.78194 8.07421 8.97481 1.85722 6.53634 23.7492
6604205 2.95277 3.84747 8.10575 9.01205 1.88247 6.47058 23.918
6604221 2.94413 3.80066 8.05318 8.93757 1.83365 6.47507 23.7355
6604232 2.9614 3.83811 8.08472 9.00274 1.87834 6.4604 23.887
6604242 2.9614 3.83811 8.08472 9.00274 1.87834 6.4604 23.887
6604254 2.97004 3.82874 8.07421 8.92826 1.79902 6.43056 23.8013
6604265 2.97004 3.89427 8.09524 8.90033 1.81196 6.36923 23.8599
6604282 3.03047 3.913 8.13729 8.90964 1.72451 6.31719 23.9904
6604292 2.9873 3.93172 8.02164 8.84447 1.8575 6.27309 23.7851
6604302 2.9873 3.93172 8.02164 8.84447 1.8575 6.27309 23.7851
6604312 3.03047 3.89427 8.05318 8.8724 1.76414 6.28975 23.8503
6604333 3.0132 3.94108 8.02164 8.86309 1.85549 6.24844 23.839
6604346 2.99594 3.96916 7.97959 8.8724 1.95871 6.22676 23.8171
6604354 2.99594 3.96916 7.97959 8.8724 1.95871 6.22676 23.8171
6604369 3.00457 4.03469 7.91651 8.81654 2.02983 6.11665 23.7723
6604375 3.02184 3.97852 7.97959 8.82585 1.89339 6.17817 23.8058
6604384 3.02184 3.97852 7.97959 8.82585 1.89339 6.17817 23.8058
6604394 3.02184 3.9598 7.95857 8.79792 1.8718 6.17667 23.7381
6604403 3.02184 3.9598 7.95857 8.79792 1.8718 6.17667 23.7381
6604414 2.99594 4.00661 8.01113 8.82585 1.91424 6.1879 23.8395
6604424 3.04774 3.96916 7.95857 8.90964 1.9599 6.18668 23.8851
6604434 3.04774 3.96916 7.95857 8.90964 1.9599 6.18668 23.8851
6604454 3.03911 4.02533 8.04267 8.85378 1.87528 6.15504 23.9609
6604460 3.04774 3.98789 8.01113 8.90033 1.90977 6.18604 23.9471
6604465 3.04774 3.98789 8.01113 8.90033 1.90977 6.18604 23.9471
6604479 3.07364 3.97852 8.03216 8.91895 1.86607 6.18599 24.0033
6604495 2.95277 3.88491 7.89549 8.88171 2.03089 6.31351 23.6149
6604505 3.00457 3.93172 8.02164 8.94688 1.93725 6.29511 23.9048
6604515 3.00457 3.93172 8.02164 8.94688 1.93725 6.29511 23.9048
6604525 3.06501 3.88491 8.01113 8.94688 1.83585 6.27915 23.9079
6604535 2.9873 3.92236 8.07421 8.97481 1.91543 6.34803 23.9587
6604557 3.0132 3.86619 8.03216 9.01205 1.91534 6.3733 23.9236
6604567 3.0132 3.86619 8.03216 9.01205 1.91534 6.3733 23.9236
6604576 2.94413 3.7913 8.03216 8.99343 1.90273 6.49603 23.761
6604590 2.94413 3.83811 8.02164 9.01205 1.97806 6.45667 23.8159
6604611 2.95277 3.80066 8.07421 8.97481 1.83646 6.48815 23.8024
6604617 2.9355 3.78194 8.03216 8.99343 1.90341 6.51232 23.743
6604633 2.9355 3.78194 8.03216 8.99343 1.90341 6.51232 23.743
6604637 2.91823 3.82874 8.05318 8.99343 1.94459 6.49311 23.7936
6604647 2.9355 3.82874 8.04267 8.99343 1.93695 6.47377 23.8003
6604657 2.9355 3.86619 8.04267 9.01205 1.99115 6.44671 23.8564
6604667 2.97004 3.81938 8.0637 8.9655 1.838 6.4486 23.8186
6604677 2.97004 3.81938 8.0637 8.9655 1.838 6.4486 23.8186
6604687 2.95277 3.86619 7.99011 9.02136 2.04012 6.41565 23.8304
6604700 2.9614 3.81938 8.04267 8.98412 1.88955 6.45551 23.8076
6604708 2.9614 3.81938 8.04267 8.98412 1.88955 6.45551 23.8076
6604722 2.94413 3.86619 8.03216 8.94688 1.93025 6.41172 23.7894
6604729 2.9614 3.83811 8.07421 8.97481 1.86312 6.44663 23.8485
6604739 2.9614 3.83811 8.07421 8.97481 1.86312 6.44663 23.8485
6604749 2.97867 3.86619 7.96908 8.9655 1.98064 6.36456 23.7794
6604769 2.95277 3.88491 8.01113 8.99343 2.0074 6.39634 23.8422
6604780 3.00457 3.97852 7.96908 8.98412 2.07738 6.2479 23.9363
6604790 3.00457 3.97852 7.96908 8.98412 2.07738 6.2479 23.9363
6604801 3.00457 3.9598 7.906 8.98412 2.13099 6.24143 23.8545
6604811 2.97867 3.95044 8.00062 8.90033 1.96337 6.27685 23.8301
6604820 2.97867 3.95044 8.00062 8.90033 1.96337 6.27685 23.8301
6604832 3.00457 3.97852 7.91651 8.90964 2.06546 6.2012 23.8092
6604841 3.00457 3.97852 7.91651 8.90964 2.06546 6.2012 23.8092
6604854 3.00457 3.92236 8.02164 8.89102 1.87415 6.28308 23.8396
6604861 3.00457 3.90363 7.91651 8.90964 1.99309 6.2681 23.7344
6604871 3.00457 3.90363 7.91651 8.90964 1.99309 6.2681 23.7344
6604881 3.03911 3.9598 7.92703 8.90033 1.9873 6.18757 23.8263
6604891 2.99594 3.97852 7.93754 8.8724 2.01544 6.20289 23.7844
6604902 2.99594 3.97852 7.93754 8.8724 2.01544 6.20289 23.7844
6604911 2.99594 3.96916 7.93754 8.90033 2.03338 6.22156 23.803
6604932 2.95277 3.93172 8.00062 8.89102 1.96558 6.31336 23.7761
6604942 3.03047 3.88491 7.99011 8.93757 1.88934 6.29887 23.8431
6604956 3.03047 3.88491 7.99011 8.93757 1.88934 6.29887 23.8431
6604962 3.00457 3.96916 7.99011 8.9655 2.02678 6.25709 23.9293
6604972 3.0132 3.97852 7.97959 8.91895 1.99315 6.2202 23.8903
6604982 3.0132 3.97852 7.97959 8.91895 1.99315 6.2202 23.8903
6604992 3.0132 4.02533 7.93754 8.88171 2.04996 6.14938 23.8578
6605002 2.97004 3.9598 7.99011 8.89102 1.98509 6.26893 23.811
6605013 2.97004 3.9598 7.99011 8.89102 1.98509 6.26893 23.811
6605024 3.04774 3.95044 7.95857 8.93757 1.96878 6.21358 23.8943
6605035 3.04774 3.95044 7.95857 8.93757 1.96878 6.21358 23.8943
6605044 3.0132 3.89427 8.01113 8.91895 1.87612 6.30682 23.8376
6605055 2.99594 3.97852 8.03216 8.93757 1.97125 6.2616 23.9442
6605063 2.99594 3.97852 8.03216 8.93757 1.97125 6.2616 23.9442
6605078 3.05637 3.99725 7.93754 8.89102 1.98302 6.13947 23.8822
6605089 2.9873 3.95044 7.97959 8.85378 1.93231 6.24432 23.7711
6605100 2.9873 3.95044 7.97959 8.85378 1.93231 6.24432 23.7711
6605108 3.00457 3.93172 8.03216 8.94688 1.92541 6.29894 23.9153
6605114 3.00457 3.93172 8.03216 8.94688 1.92541 6.29894 23.9153
6605124 2.99594 3.87555 7.97959 8.8724 1.86779 6.31052 23.7235
6605133 3.04774 3.92236 7.99011 8.8724 1.84297 6.22618 23.8326
6605148 3.04774 3.92236 7.99011 8.8724 1.84297 6.22618 23.8326
6605154 3.00457 3.9598 7.96908 8.8724 1.95178 6.22354 23.8058
6605164 2.9873 3.913 8.04267 8.86309 1.83368 6.30436 23.8061
6605197 2.9873 3.87555 8.04267 8.93757 1.86967 6.36498 23.8431
6605205 2.99594 3.93172 8.01113 8.88171 1.8958 6.27518 23.8205
6605222 3.00457 3.88491 8.02164 8.86309 1.81056 6.30636 23.7742
6605226 3.00457 3.88491 8.02164 8.86309 1.81056 6.30636 23.7742
6605236 2.9873 3.9598 7.99011 8.76068 1.83885 6.20541 23.6979
6605247 2.9355 3.96916 7.99011 8.82585 1.97023 6.26752 23.7206
6605256 2.9355 3.96916 7.99011 8.82585 1.97023 6.26752 23.7206
6605271 3.05637 3.97852 8.03216 8.84447 1.81341 6.17384 23.9115
6605286 2.9873 3.95044 8.07421 8.80723 1.78024 6.26199 23.8192
6605297 3.00457 3.9598 8.01113 8.86309 1.89523 6.23559 23.8386
6605307 3.00457 3.9598 8.01113 8.86309 1.89523 6.23559 23.8386
6605321 2.94413 3.99725 8.04267 8.85378 1.95511 6.26425 23.8378
6605327 2.9873 4.00661 7.99011 8.86309 1.98377 6.20156 23.8471
6605342 2.9873 4.00661 7.99011 8.86309 1.98377 6.20156 23.8471
6605347 2.9873 3.94108 8.03216 8.86309 1.87283 6.27541 23.8236
6605357 2.9873 3.94108 8.03216 8.86309 1.87283 6.27541 23.8236
6605367 2.9873 3.94108 8.03216 8.81654 1.82755 6.25833 23.7771
6605377 3.00457 3.90363 8.02164 8.86309 1.82881 6.28959 23.7929
6605387 3.00457 3.90363 8.02164 8.86309 1.82881 6.28959 23.7929
6605397 2.9614 3.87555 8.04267 8.79792 1.76263 6.33742 23.6775
6605411 2.99594 3.92236 8.0637 8.88171 1.82749 6.30274 23.8637
6605418 2.99594 3.92236 8.0637 8.88171 1.82749 6.30274 23.8637
6605427 2.97867 3.85683 8.09524 8.98412 1.84722 6.42521 23.9149
6605437 2.97867 3.85683 8.09524 8.98412 1.84722 6.42521 23.9149
6605447 2.9614 3.80066 8.12678 8.95619 1.74949 6.49249 23.845
6605458 2.9614 3.92236 8.12678 9.06791 1.97488 6.42333 24.0784
6605467 2.9614 3.92236 8.12678 9.06791 1.97488 6.42333 24.0784
6605478 2.9614 3.7913 8.11626 9.01205 1.80654 6.51707 23.881
6605487 2.95277 3.78194 8.08472 9.01205 1.84262 6.52209 23.8315
6605501 2.95277 3.78194 8.08472 9.01205 1.84262 6.52209 23.8315
6605507 3.00457 3.83811 8.11626 8.91895 1.71311 6.40292 23.8779
6605527 2.99594 3.87555 8.03216 8.89102 1.82654 6.33652 23.7947
6605539 2.97867 3.92236 8.15832 8.92826 1.78595 6.36926 23.9876
6605559 2.9614 3.94108 7.97959 8.91895 2.0157 6.29977 23.801
6605570 2.9614 3.9598 8.03216 8.90964 1.96526 6.29883 23.863
6605578 2.9614 3.9598 8.03216 8.90964 1.96526 6.29883 23.863
6605588 3.0132 3.98789 8.00062 8.8724 1.93354 6.20249 23.8741
6605598 3.0132 3.98789 8.00062 8.8724 1.93354 6.20249 23.8741
6605609 3.0132 3.913 7.97959 8.81654 1.83028 6.24091 23.7223
6605619 3.00457 3.97852 7.95857 8.84447 1.95477 6.19265 23.7861
6605630 3.00457 3.97852 7.95857 8.84447 1.95477 6.19265 23.7861
6605639 3.05637 4.00661 7.99011 8.84447 1.88785 6.13343 23.8976
6605649 3.02184 4.06278 8.0637 8.78861 1.84427 6.1209 23.9369
6605669 3.0132 4.04405 7.96908 8.86309 2.01434 6.1376 23.8894
6605682 3.0132 4.04405 7.96908 8.86309 2.01434 6.1376 23.8894
6605690 3.0132 4.00661 8.02164 8.76999 1.82869 6.15575 23.8114
6605705 2.99594 4.00661 7.99011 8.83516 1.94702 6.18356 23.8278
6605726 3.03047 4.04405 8.00062 8.79792 1.89637 6.10982 23.8731
6605734 3.00457 4.01597 7.94805 8.89102 2.04777 6.17269 23.8596
6605752 3.02184 4.00661 7.97959 8.86309 1.95662 6.16701 23.8711
6605760 3.02184 4.00661 7.97959 8.86309 1.95662 6.16701 23.8711
6605772 2.9614 4.00661 8.01113 8.81654 1.94427 6.2152 23.7957
