3216645 4.12174 4.81044 8.45292 8.66373 0.863293 4.71296 26.0488
3216653 4.13043 4.88516 8.41108 8.65438 0.956658 4.62971 26.0811
3216663 4.08696 4.85714 8.46338 8.66373 0.930655 4.70808 26.0712
3216673 4.08696 4.85714 8.46338 8.66373 0.930655 4.70808 26.0712
3216683 4.16522 4.85714 8.54708 8.68244 0.787842 4.68947 26.2519
3216693 4.16522 4.85714 8.54708 8.68244 0.787842 4.68947 26.2519
3216703 4.14783 4.83846 8.432 8.60759 0.832084 4.64152 26.0259
3216713 4.13913 4.81978 8.41108 8.66373 0.896248 4.67618 26.0337
3216724 4.13913 4.81978 8.41108 8.66373 0.896248 4.67618 26.0337
3216733 4.15652 4.86648 8.45292 8.67309 0.889254 4.64817 26.149
3216743 4.09565 4.85714 8.44246 8.68244 0.960088 4.70063 26.0777
3216753 4.09565 4.85714 8.44246 8.68244 0.960088 4.70063 26.0777
3216763 4.10435 4.85714 8.432 8.63566 0.918642 4.6714 26.0292
3216774 4.10435 4.85714 8.432 8.63566 0.918642 4.6714 26.0292
3216784 4.09565 4.8478 8.40062 8.64502 0.958627 4.6763 25.9891
3216793 4.07826 4.8011 8.45292 8.71051 0.941169 4.77142 26.0428
3216814 4.12174 4.87582 8.39015 8.70116 1.02063 4.65356 26.0889
3216824 4.06957 4.82912 8.37969 8.73858 1.07473 4.73898 26.017
3216844 4.13043 4.86648 8.41108 8.71051 0.991142 4.66604 26.1185
3216853 4.13043 4.86648 8.41108 8.71051 0.991142 4.66604 26.1185
3216863 4.03478 4.88516 8.432 8.71051 1.08287 4.73242 26.0625
3216873 4.10435 4.89451 8.46338 8.6918 0.97363 4.67786 26.154
3216884 4.10435 4.89451 8.46338 8.6918 0.97363 4.67786 26.154
3216893 4.13043 4.85714 8.32738 8.72922 1.0833 4.64732 26.0442
3216903 4.13043 4.85714 8.32738 8.72922 1.0833 4.64732 26.0442
3216913 4.11304 4.90385 8.32738 8.71987 1.13498 4.6215 26.0641
3216923 4.11304 4.83846 8.37969 8.71987 1.0226 4.69159 26.0511
3216934 4.11304 4.83846 8.37969 8.71987 1.0226 4.69159 26.0511
3216944 4.13043 4.92253 8.37969 8.71051 1.07381 4.61148 26.1432
3216954 4.16522 4.88516 8.27508 8.71051 1.10941 4.57168 26.036
3216974 4.13913 4.95989 8.31692 8.71051 1.16199 4.55195 26.1265
3216994 4.12174 4.91319 8.41108 8.66373 0.999728 4.6189 26.1097
3217004 4.15652 4.98791 8.30646 8.71987 1.18911 4.51758 26.1708
3217016 4.15652 4.98791 8.30646 8.71987 1.18911 4.51758 26.1708
3217024 4.13913 4.90385 8.25415 8.73858 1.19945 4.58011 26.0357
3217037 4.09565 4.90385 8.34831 8.6918 1.10571 4.63176 26.0396
3217046 4.09565 4.90385 8.34831 8.6918 1.10571 4.63176 26.0396
3217055 4.15652 4.89451 8.25415 8.66373 1.10475 4.544 25.9689
3217066 4.15652 4.89451 8.26462 8.66373 1.09423 4.54821 25.9794
3217076 4.08696 4.96923 8.26462 8.70116 1.26702 4.55937 26.022
3217085 4.10435 4.88516 8.296 8.79472 1.22654 4.6594 26.0802
3217106 4.10435 4.87582 8.30646 8.70116 1.12184 4.63339 25.9878
3217116 4.10435 4.93187 8.28554 8.81343 1.29654 4.62753 26.1352
3217137 4.11304 4.92253 8.27508 8.68244 1.17036 4.57157 25.9931
3217147 4.07826 4.88516 8.34831 8.67309 1.08879 4.65154 25.9848
3217156 4.07826 4.88516 8.34831 8.67309 1.08879 4.65154 25.9848
3217173 4.07826 4.91319 8.36923 8.72922 1.145 4.661 26.0899
3217178 4.07826 4.91319 8.36923 8.72922 1.145 4.661 26.0899
3217188 4.10435 4.89451 8.33785 8.6918 1.0989 4.62808 26.0285
3217198 4.12174 4.92253 8.25415 8.76665 1.25962 4.59036 26.0651
3217208 4.12174 4.92253 8.25415 8.76665 1.25962 4.59036 26.0651
3217218 4.13043 4.89451 8.35877 8.72922 1.08617 4.63164 26.1129
3217228 4.11304 4.88516 8.34831 8.72922 1.10547 4.64761 26.0757
3217248 4.14783 4.93187 8.36923 8.6918 1.05832 4.57983 26.1407
3217258 4.14783 4.93187 8.36923 8.6918 1.05832 4.57983 26.1407
3217268 4.06087 4.87582 8.34831 8.71051 1.13208 4.68665 25.9955
3217278 4.10435 4.92253 8.27508 8.73858 1.23047 4.60059 26.0405
3217289 4.10435 4.92253 8.27508 8.73858 1.23047 4.60059 26.0405
3217298 4.13043 4.86648 8.31692 8.67309 1.05073 4.61372 25.9869
3217308 4.14783 4.87582 8.296 8.6918 1.0801 4.59268 26.0114
3217318 4.14783 4.87582 8.296 8.6918 1.0801 4.59268 26.0114
3217328 4.14783 4.92253 8.34831 8.6918 1.07064 4.57848 26.1105
3217338 4.14783 4.92253 8.34831 8.6918 1.07064 4.57848 26.1105
3217349 4.08696 4.89451 8.25415 8.68244 1.19206 4.60401 25.9181
3217358 4.16522 4.86648 8.28554 8.72922 1.09895 4.5974 26.0465
3217368 4.16522 4.86648 8.28554 8.72922 1.09895 4.5974 26.0465
3217378 4.15652 4.96923 8.34831 8.68244 1.09614 4.53329 26.1565
3217388 4.17391 4.95055 8.26462 8.67309 1.13681 4.49689 26.0622
3217398 4.17391 4.95055 8.26462 8.67309 1.13681 4.49689 26.0622
3217408 4.16522 4.91319 8.24369 8.65438 1.1151 4.51543 25.9765
3217418 4.16522 4.91319 8.24369 8.65438 1.1151 4.51543 25.9765
3217428 4.13043 4.95055 8.21231 8.65438 1.21608 4.50081 25.9477
3217438 4.18261 4.93187 8.24369 8.66373 1.12338 4.49215 26.0219
3217449 4.18261 4.93187 8.24369 8.66373 1.12338 4.49215 26.0219
3217458 4.16522 4.95989 8.25415 8.62631 1.12171 4.47329 26.0056
3217468 4.16522 4.95989 8.25415 8.62631 1.12171 4.47329 26.0056
3217478 4.13043 4.87582 8.21231 8.61695 1.11284 4.542 25.8355
3217488 4.17391 4.97857 8.296 8.65438 1.11389 4.48106 26.1029
3217498 4.17391 4.97857 8.296 8.65438 1.11389 4.48106 26.1029
3217508 4.21739 4.94121 8.25415 8.67309 1.09518 4.46716 26.0858
3217518 4.17391 4.94121 8.25415 8.67309 1.13875 4.49966 26.0424
3217528 4.17391 4.94121 8.25415 8.67309 1.13875 4.49966 26.0424
3217541 4.24348 4.99725 8.27508 8.62631 1.05673 4.39558 26.1421
3217549 4.24348 4.99725 8.27508 8.62631 1.05673 4.39558 26.1421
3217561 4.18261 4.90385 8.27508 8.59824 1.00579 4.49938 25.9598
3217569 4.15652 4.94121 8.296 8.66373 1.10565 4.52577 26.0575
3217581 4.15652 4.94121 8.296 8.66373 1.10565 4.52577 26.0575
3217589 4.2087 4.94121 8.28554 8.60759 1.01233 4.45986 26.043
3217601 4.2 4.99725 8.26462 8.56081 1.05048 4.39704 26.0227
3217609 4.2 4.99725 8.26462 8.56081 1.05048 4.39704 26.0227
3217621 4.25217 4.98791 8.296 8.68244 1.07003 4.42723 26.2185
3217641 4.24348 4.92253 8.296 8.62631 0.967249 4.45964 26.0883
3217652 4.2 4.94121 8.17046 8.68244 1.20527 4.45006 25.9941
3217660 4.2 4.94121 8.17046 8.68244 1.20527 4.45006 25.9941
3217671 4.18261 4.99725 8.22277 8.60759 1.15288 4.41202 26.0102
3217680 4.17391 4.93187 8.17046 8.62631 1.17151 4.4538 25.9025
3217701 4.2 4.95989 8.22277 8.60759 1.1011 4.42693 25.9903
3217711 4.21739 4.95055 8.24369 8.59824 1.04547 4.42562 26.0099
3217722 4.21739 4.95055 8.24369 8.59824 1.04547 4.42562 26.0099
3217732 4.16522 4.94121 8.33785 8.6918 1.08083 4.54729 26.1361
3217742 4.16522 4.94121 8.33785 8.6918 1.08083 4.54729 26.1361
3217752 4.2087 5.00659 8.25415 8.57953 1.07804 4.38696 26.049
3217762 4.2 5.00659 8.27508 8.62631 1.10869 4.42094 26.108
3217772 4.2 5.00659 8.27508 8.62631 1.10869 4.42094 26.108
3217782 4.22609 4.99725 8.24369 8.59824 1.0797 4.38433 26.0653
3217791 4.22609 4.99725 8.25415 8.59824 1.06924 4.38859 26.0757
3217810 4.21739 4.96923 8.25415 8.59824 1.05219 4.41593 26.039
3217812 4.24348 4.96923 8.20185 8.5421 1.02672 4.3522 25.9567
3217822 4.24348 4.96923 8.20185 8.5421 1.02672 4.3522 25.9567
3217832 4.23478 5.00659 8.19138 8.49532 1.03724 4.3073 25.9281
3217842 4.30435 4.97857 8.20185 8.53275 0.965819 4.29615 26.0175
3217862 4.30435 5.04396 8.22277 8.55146 1.02239 4.26409 26.1225
3217882 4.27826 4.96923 8.20185 8.5421 0.99189 4.3263 25.9914
3217892 4.26957 4.97857 8.25415 8.5421 0.956976 4.34726 26.0444
3217903 4.26957 4.97857 8.25415 8.5421 0.956976 4.34726 26.0444
3217916 4.29565 4.95055 8.16 8.51403 0.973111 4.29847 25.9202
3217923 4.26087 5.00659 8.22277 8.55146 1.03144 4.32389 26.0417
3217933 4.26087 5.00659 8.22277 8.55146 1.03144 4.32389 26.0417
3217943 4.31304 5.02527 8.22277 8.57017 1.01376 4.27914 26.1313
3217953 4.31304 5.02527 8.22277 8.57017 1.01376 4.27914 26.1313
3217965 4.21739 4.97857 8.20185 8.49532 1.01828 4.34548 25.8931
3217975 4.26957 4.97857 8.24369 8.49532 0.924146 4.3238 25.9872
3217983 4.26957 4.97857 8.24369 8.49532 0.924146 4.3238 25.9872
3217993 4.29565 5.02527 8.14954 8.51403 1.05267 4.23867 25.9845
3218003 4.33913 5.03462 8.17046 8.42047 0.910366 4.16943 25.9647
3218013 4.33913 5.03462 8.17046 8.42047 0.910366 4.16943 25.9647
3218023 4.27826 5.0533 8.16 8.4579 1.03368 4.21184 25.9495
3218033 4.27826 5.0533 8.16 8.4579 1.03368 4.21184 25.9495
3218043 4.26957 5.02527 8.17046 8.50468 1.04922 4.26279 25.97
3218054 4.33913 4.98791 8.24369 8.46725 0.837564 4.25373 26.038
3218063 4.33913 4.98791 8.24369 8.46725 0.837564 4.25373 26.038
3218074 4.25217 5.03462 8.20185 8.5421 1.07824 4.29713 26.0307
3218083 4.31304 5.04396 8.22277 8.51403 0.979331 4.24227 26.0938
3218096 4.31304 5.04396 8.22277 8.51403 0.979331 4.24227 26.0938
3218103 4.33043 5.0533 8.19138 8.4579 0.950116 4.18635 26.033
3218113 4.33043 5.0533 8.19138 8.4579 0.950116 4.18635 26.033
3218123 4.37391 5.0533 8.21231 8.46725 0.894716 4.16693 26.1068
3218133 4.33043 5.08132 8.16 8.47661 1.02453 4.16045 26.0484
3218144 4.33043 5.08132 8.16 8.47661 1.02453 4.16045 26.0484
3218153 4.33913 5.0533 8.12862 8.42047 0.969514 4.13815 25.9415
3218163 4.33913 5.09066 8.13908 8.49532 1.06254 4.14627 26.0642
3218175 4.33913 5.09066 8.13908 8.49532 1.06254 4.14627 26.0642
3218184 4.31304 5.10934 8.12862 8.43919 1.0647 4.12391 25.9902
3218204 4.28696 5.1 8.17046 8.39241 0.997102 4.14795 25.9498
3218216 4.36522 5.1 8.11815 8.48597 1.05737 4.10764 26.0693
3218224 4.36522 5.1 8.11815 8.48597 1.05737 4.10764 26.0693
3218236 4.32174 5.15604 8.10769 8.42983 1.11131 4.07053 26.0153
3218245 4.32174 5.07198 8.14954 8.38305 0.948602 4.13029 25.9263
3218257 4.32174 5.07198 8.14954 8.38305 0.948602 4.13029 25.9263
3218265 4.41739 5.1467 8.07631 8.39241 1.00394 3.97841 26.0328
3218285 4.34783 5.1 8.11815 8.41112 1.00583 4.08905 25.9771
3218295 4.33043 5.17473 8.07631 8.4579 1.17695 4.04909 26.0394
3218305 4.33043 5.17473 8.07631 8.4579 1.17695 4.04909 26.0394
3218315 4.32174 5.11868 8.06585 8.44854 1.13624 4.08824 25.9548
3218325 4.28696 5.11868 8.04492 8.52339 1.26106 4.13646 25.974
3218345 4.37391 5.09066 8.10769 8.44854 1.0161 4.08807 26.0208
3218356 4.37391 5.09066 8.10769 8.44854 1.0161 4.08807 26.0208
3218365 4.30435 5.18407 8.024 8.46725 1.27308 4.04326 25.9797
3218375 4.33913 5.15604 8.04492 8.46725 1.19124 4.04713 26.0074
3218397 4.3913 5.15604 8.05538 8.44854 1.11117 4.00551 26.0513
3218407 4.36522 5.1467 8.01354 8.49532 1.21371 4.03347 26.0208
3218416 4.36522 5.1467 8.01354 8.49532 1.21371 4.03347 26.0208
3218432 4.36522 5.19341 7.98215 8.50468 1.29649 3.99007 26.0455
3218442 4.36522 5.19341 7.98215 8.50468 1.29649 3.99007 26.0455
3218449 4.34783 5.16538 7.92985 8.42983 1.27309 3.96929 25.8729
3218457 4.35652 5.22143 7.99262 8.42983 1.25202 3.94869 26.0004
3218467 4.35652 5.22143 7.99262 8.42983 1.25202 3.94869 26.0004
3218477 4.35652 5.18407 8.04492 8.42047 1.15656 3.99416 26.006
3218489 4.33043 5.23077 8.00308 8.42983 1.27634 3.96534 25.9941
3218508 4.42609 5.22143 7.98215 8.35498 1.1239 3.86168 25.9846
3218527 4.4087 5.15604 7.95077 8.35498 1.11281 3.90851 25.8705
3218537 4.44348 5.26813 7.91938 8.32691 1.18671 3.77612 25.9579
3218560 4.41739 5.21209 7.888 8.32691 1.19331 3.82216 25.8444
3218568 4.4 5.23077 7.96123 8.38305 1.20557 3.8769 25.975
3218580 4.4 5.23077 7.96123 8.38305 1.20557 3.8769 25.975
3218588 4.46957 5.25879 7.92985 8.33627 1.1499 3.77259 25.9945
3218608 4.41739 5.21209 7.91938 8.24271 1.0837 3.79927 25.7916
3218619 4.46087 5.23077 7.96123 8.32691 1.09276 3.80864 25.9798
3218628 4.46087 5.23077 7.96123 8.32691 1.09276 3.80864 25.9798
3218641 4.46087 5.28681 7.96123 8.3082 1.12706 3.76007 26.0171
3218649 4.46087 5.28681 7.98215 8.27078 1.07167 3.75294 26.0006
3218661 4.46087 5.28681 7.98215 8.27078 1.07167 3.75294 26.0006
3218669 4.46087 5.30549 7.99262 8.26142 1.06976 3.73995 26.0204
3218681 4.46087 5.30549 7.99262 8.26142 1.06976 3.73995 26.0204
3218689 4.43478 5.32418 7.95077 8.26142 1.15517 3.72715 25.9711
3218702 4.50435 5.29615 7.95077 8.28013 1.07675 3.70537 26.0314
3218710 4.50435 5.29615 7.95077 8.28013 1.07675 3.70537 26.0314
3218719 4.51304 5.29615 7.85662 8.28013 1.16264 3.65811 25.9459
3218729 4.49565 5.30549 7.90892 8.28013 1.13606 3.68672 25.9902
3218739 4.49565 5.30549 7.90892 8.28013 1.13606 3.68672 25.9902
3218749 4.51304 5.33352 7.90892 8.29884 1.16141 3.66228 26.0543
3218759 4.51304 5.33352 7.90892 8.29884 1.16141 3.66228 26.0543
3218769 4.44348 5.30549 7.89846 8.23335 1.15617 3.69937 25.8808
3218779 4.49565 5.36154 7.96123 8.25206 1.10922 3.65707 26.0705
3218790 4.49565 5.36154 7.96123 8.25206 1.10922 3.65707 26.0705
3218799 4.50435 5.25879 7.888 8.224 1.05356 3.68048 25.8751
3218810 4.52174 5.31484 7.89846 8.25206 1.10314 3.64447 25.9871
3218820 4.52174 5.31484 7.89846 8.25206 1.10314 3.64447 25.9871
3218830 4.48696 5.32418 7.86708 8.27078 1.19554 3.6572 25.949
3218840 4.48696 5.32418 7.86708 8.27078 1.19554 3.6572 25.949
3218850 4.44348 5.32418 7.888 8.24271 1.19255 3.6854 25.8984
3218860 4.49565 5.34286 7.96123 8.21464 1.0577 3.65415 26.0144
3218870 4.49565 5.34286 7.96123 8.21464 1.0577 3.65415 26.0144
3218882 4.47826 5.33352 7.87754 8.16786 1.1076 3.61619 25.8572
3218890 4.43478 5.33352 7.78338 8.224 1.29904 3.6308 25.7757
3218910 4.50435 5.33352 7.86708 8.23335 1.1522 3.62161 25.9383
3218920 4.50435 5.33352 7.86708 8.23335 1.1522 3.62161 25.9383
3218930 4.51304 5.3522 7.91938 8.24271 1.11659 3.62898 26.0273
3218940 4.47826 5.40824 7.97169 8.25206 1.15888 3.64067 26.1103
3218950 4.47826 5.40824 7.97169 8.25206 1.15888 3.64067 26.1103
3218960 4.49565 5.34286 7.85662 8.24271 1.1887 3.62066 25.9378
3218970 4.51304 5.42692 7.85662 8.23335 1.23955 3.544 26.0299
3218980 4.51304 5.42692 7.85662 8.23335 1.23955 3.544 26.0299
3218990 4.48696 5.38022 7.92985 8.25206 1.16653 3.63625 26.0491
3219010 4.52174 5.32418 7.87754 8.24271 1.12416 3.62452 25.9662
3219022 4.53913 5.36154 7.89846 8.25206 1.12856 3.5986 26.0512
3219030 4.53913 5.36154 7.89846 8.25206 1.12856 3.5986 26.0512
3219040 4.52174 5.36154 7.83569 8.16786 1.13182 3.54636 25.8868
3219050 4.53913 5.32418 7.80431 8.23335 1.17186 3.57575 25.901
3219060 4.53913 5.32418 7.80431 8.23335 1.17186 3.57575 25.901
3219070 4.52174 5.42692 7.86708 8.224 1.21171 3.53829 26.0397
3219089 4.52174 5.42692 7.86708 8.224 1.21171 3.53829 26.0397
3219092 4.50435 5.27747 7.84615 8.17722 1.06973 3.62808 25.8052
3219102 4.51304 5.37088 7.87754 8.17722 1.11562 3.56851 25.9387
3219112 4.51304 5.37088 7.87754 8.17722 1.11562 3.56851 25.9387
3219123 4.53913 5.38022 7.82523 8.14915 1.1248 3.50762 25.8937
3219132 4.46087 5.34286 7.86708 8.19593 1.17027 3.62973 25.8667
3219142 4.46087 5.34286 7.86708 8.19593 1.17027 3.62973 25.8667
3219152 4.50435 5.32418 7.84615 8.23335 1.16472 3.61914 25.908
3219162 4.50435 5.32418 7.84615 8.23335 1.16472 3.61914 25.908
3219172 4.51304 5.32418 7.87754 8.21464 1.10708 3.61846 25.9294
3219183 4.5913 5.32418 7.96123 8.28949 1.01384 3.63173 26.1662
3219192 4.5913 5.32418 7.96123 8.28949 1.01384 3.63173 26.1662
3219202 4.55652 5.31484 7.97169 8.28949 1.02947 3.66774 26.1325
3219212 4.49565 5.32418 7.84615 8.26142 1.1993 3.6377 25.9274
3219224 4.49565 5.32418 7.84615 8.26142 1.1993 3.6377 25.9274
3219233 4.48696 5.43626 7.90892 8.224 1.21313 3.5748 26.0561
3219243 4.48696 5.43626 7.90892 8.224 1.21313 3.5748 26.0561
3219254 4.47826 5.30549 7.888 8.19593 1.09708 3.65331 25.8677
3219263 4.46957 5.38956 7.94031 8.28949 1.2162 3.66286 26.0889
3219273 4.46957 5.38956 7.94031 8.28949 1.2162 3.66286 26.0889
3219283 4.55652 5.33352 7.888 8.224 1.0701 3.58931 26.002
3219293 4.53043 5.34286 7.95077 8.24271 1.05917 3.63692 26.0668
3219314 4.52174 5.3522 7.83569 8.28949 1.2349 3.60661 25.9991
3219325 4.52174 5.3522 7.83569 8.28949 1.2349 3.60661 25.9991
3219334 4.46087 5.30549 7.86708 8.25206 1.18755 3.68127 25.8855
3219344 4.46957 5.38022 7.91938 8.25206 1.19454 3.64414 26.0212
3219354 4.46957 5.38022 7.91938 8.25206 1.19454 3.64414 26.0212
3219364 4.46957 5.36154 7.89846 8.24271 1.18994 3.64431 25.9723
3219374 4.46957 5.30549 7.85662 8.26142 1.19794 3.67452 25.8931
3219394 4.46087 5.30549 7.87754 8.28013 1.20276 3.6981 25.924
3219404 4.46087 5.30549 7.87754 8.28013 1.20276 3.6981 25.924
3219415 4.49565 5.31484 7.81477 8.3082 1.26537 3.65116 25.9335
3219425 4.46957 5.30549 7.90892 8.34562 1.22229 3.73391 26.0296
3219435 4.46957 5.30549 7.90892 8.34562 1.22229 3.73391 26.0296
3219445 4.44348 5.26813 7.86708 8.26142 1.17937 3.72496 25.8401
3219455 4.46087 5.38956 7.84615 8.29884 1.32849 3.63212 25.9954
3219475 4.45217 5.36154 7.84615 8.28949 1.30321 3.65438 25.9494
3219497 4.48696 5.36154 7.86708 8.29884 1.25541 3.64265 26.0144
3219507 4.47826 5.36154 7.84615 8.34562 1.32795 3.66016 26.0316
3219527 4.47826 5.30549 7.85662 8.28013 1.20633 3.67643 25.9205
3219537 4.46957 5.30549 7.87754 8.26142 1.17678 3.68366 25.914
3219557 4.53043 5.38022 7.86708 8.24271 1.17736 3.57361 26.0204
3219567 4.50435 5.34286 7.81477 8.24271 1.22222 3.59603 25.9047
3219577 4.50435 5.34286 7.81477 8.24271 1.22222 3.59603 25.9047
3219587 4.48696 5.43626 7.89846 8.24271 1.24073 3.57842 26.0644
3219597 4.48696 5.43626 7.89846 8.24271 1.24073 3.57842 26.0644
3219607 4.53913 5.32418 7.81477 8.23335 1.16129 3.58036 25.9114
3219617 4.48696 5.37088 7.96123 8.224 1.10076 3.64438 26.0431
3219627 4.48696 5.37088 7.96123 8.224 1.10076 3.64438 26.0431
3219639 4.55652 5.40824 7.83569 8.25206 1.21686 3.52538 26.0525
3219647 4.55652 5.40824 7.83569 8.25206 1.21686 3.52538 26.0525
3219657 4.53043 5.28681 7.85662 8.16786 1.03285 3.60303 25.8417
3219667 4.50435 5.32418 7.81477 8.18657 1.15334 3.5847 25.8299
3219688 4.54783 5.36154 7.85662 8.1585 1.07582 3.53281 25.9245
3219698 4.55652 5.36154 7.85662 8.17722 1.08433 3.53487 25.9519
3219714 4.55652 5.36154 7.85662 8.17722 1.08433 3.53487 25.9519
3219722 4.55652 5.42692 7.89846 8.18657 1.11103 3.5109 26.0685
3219730 4.52174 5.42692 7.888 8.27078 1.23333 3.56801 26.1074
3219738 4.52174 5.3522 7.888 8.27078 1.16511 3.62131 26.0327
3219749 4.55652 5.3522 7.888 8.224 1.08728 3.57596 26.0207
3219758 4.55652 5.3522 7.888 8.224 1.08728 3.57596 26.0207
3219768 4.55652 5.31484 7.87754 8.14915 0.994208 3.56513 25.898
3219778 4.53913 5.32418 7.91938 8.13979 0.969672 3.58523 25.9225
3219788 4.53913 5.32418 7.91938 8.13979 0.969672 3.58523 25.9225
3219799 4.52174 5.32418 7.96123 8.17722 0.979841 3.63249 25.9844
3219819 4.52174 5.32418 7.90892 8.14915 1.00628 3.59722 25.904
3219831 4.53913 5.34286 7.95077 8.16786 0.981534 3.59798 26.0006
3219839 4.53913 5.34286 7.95077 8.16786 0.981534 3.59798 26.0006
3219852 4.54783 5.29615 7.95077 8.16786 0.929624 3.6252 25.9626
3219859 4.54783 5.24945 7.888 8.10237 0.888014 3.60236 25.7876
3219871 4.54783 5.24945 7.888 8.10237 0.888014 3.60236 25.7876
3219879 4.46957 5.37088 7.91938 8.25206 1.18599 3.65083 26.0119
3219891 4.5913 5.33352 7.94031 8.18657 0.948572 3.57101 26.0517
3219900 4.5913 5.33352 7.94031 8.18657 0.948572 3.57101 26.0517
3219910 4.49565 5.34286 7.86708 8.17722 1.11787 3.59647 25.8828
3219920 4.49565 5.34286 7.86708 8.17722 1.11787 3.59647 25.8828
3219931 4.54783 5.32418 7.91938 8.13043 0.952286 3.57487 25.9218
3219940 4.55652 5.36154 7.91938 8.18657 1.03001 3.56664 26.024
3219952 4.55652 5.36154 7.91938 8.18657 1.03001 3.56664 26.024
3219960 4.53913 5.38956 7.89846 8.27078 1.1713 3.58681 26.0979
3219972 4.53913 5.38956 7.89846 8.27078 1.1713 3.58681 26.0979
3219980 4.52174 5.28681 7.85662 8.224 1.09356 3.63399 25.8892
3219990 4.51304 5.34286 7.98215 8.31756 1.11373 3.69546 26.1556
3220000 4.51304 5.34286 7.98215 8.31756 1.11373 3.69546 26.1556
3220011 4.52174 5.37088 7.888 8.224 1.13935 3.58747 26.0046
3220021 4.52174 5.41758 7.86708 8.23335 1.21172 3.54906 26.0397
3220041 4.53043 5.3522 7.79385 8.26142 1.24271 3.56966 25.9379
3220061 4.50435 5.33352 7.87754 8.29884 1.20172 3.65484 26.0142
3220071 4.47826 5.28681 7.84615 8.34562 1.25981 3.71388 25.9569
3220082 4.47826 5.28681 7.84615 8.34562 1.25981 3.71388 25.9569
3220092 4.45217 5.36154 7.888 8.28013 1.25231 3.66857 25.9818
3220103 4.46087 5.36154 7.84615 8.25206 1.26017 3.63174 25.9206
3220122 4.49565 5.36154 7.84615 8.25206 1.22498 3.60678 25.9554
3220132 4.49565 5.36154 7.84615 8.25206 1.22498 3.60678 25.9554
3220142 4.51304 5.33352 7.83569 8.24271 1.1837 3.6057 25.925
3220152 4.51304 5.38956 7.89846 8.28949 1.21456 3.61358 26.0906
3220162 4.51304 5.38956 7.89846 8.28949 1.21456 3.61358 26.0906
3220173 4.47826 5.3522 7.85662 8.25206 1.22343 3.63055 25.9391
3220182 4.48696 5.36154 7.86708 8.28949 1.24686 3.63856 26.0051
3220192 4.48696 5.36154 7.86708 8.28949 1.24686 3.63856 26.0051
3220202 4.47826 5.36154 7.752 8.25206 1.33817 3.57779 25.8439
3220212 4.47826 5.36154 7.752 8.25206 1.33817 3.57779 25.8439
3220222 4.48696 5.33352 7.80431 8.19593 1.19882 3.59 25.8207
3220232 4.49565 5.33352 7.90892 8.26142 1.1446 3.65844 25.9995
3220252 4.53043 5.3522 7.89846 8.224 1.10295 3.59919 26.0051
3220262 4.49565 5.37088 7.91938 8.26142 1.16832 3.63623 26.0473
3220274 4.49565 5.37088 7.91938 8.26142 1.16832 3.63623 26.0473
3220283 4.56522 5.32418 7.95077 8.28949 1.05022 3.64578 26.1297
3220303 4.46957 5.31484 7.87754 8.29884 1.2197 3.69325 25.9608
3220313 4.46087 5.33352 7.99262 8.28949 1.12124 3.73193 26.0765
3220324 4.46087 5.33352 7.99262 8.28949 1.12124 3.73193 26.0765
3220334 4.48696 5.33352 7.86708 8.24271 1.17835 3.63821 25.9303
3220344 4.49565 5.24011 8.024 8.27078 0.95199 3.77961 26.0305
3220354 4.49565 5.24011 8.024 8.27078 0.95199 3.77961 26.0305
3220371 4.42609 5.31484 7.94031 8.21464 1.12284 3.71528 25.8959
3220374 4.47826 5.28681 7.99262 8.26142 1.03516 3.74088 26.0191
3220386 4.47826 5.28681 7.99262 8.26142 1.03516 3.74088 26.0191
3220395 4.47826 5.3522 7.99262 8.28013 1.11237 3.70201 26.1032
3220406 4.47826 5.3522 7.99262 8.28013 1.11237 3.70201 26.1032
3220415 4.48696 5.27747 7.99262 8.21464 0.974658 3.72107 25.9717
3220425 4.52174 5.32418 8.01354 8.34562 1.08235 3.72824 26.2051
3220436 4.52174 5.32418 8.01354 8.34562 1.08235 3.72824 26.2051
3220445 4.46957 5.31484 7.95077 8.24271 1.0944 3.70069 25.9779
3220456 4.45217 5.29615 7.98215 8.27078 1.08899 3.75247 26.0013
3220476 4.45217 5.32418 8.07631 8.26142 1.01202 3.76887 26.1141
3220488 4.45217 5.32418 8.07631 8.26142 1.01202 3.76887 26.1141
3220495 4.43478 5.23077 7.99262 8.21464 0.98367 3.79261 25.8728
3220508 4.48696 5.25879 8.05538 8.34562 1.01549 3.81802 26.1468
3220516 4.48696 5.25879 8.05538 8.34562 1.01549 3.81802 26.1468
3220525 4.49565 5.26813 7.98215 8.28013 1.02825 3.74538 26.0261
3220535 4.47826 5.28681 7.95077 8.27078 1.08571 3.72681 25.9866
3220556 4.47826 5.27747 7.92985 8.27078 1.09813 3.72446 25.9564
3220567 4.47826 5.27747 7.92985 8.27078 1.09813 3.72446 25.9564
3220577 4.46957 5.22143 7.90892 8.28949 1.09352 3.77032 25.8894
3220585 4.45217 5.29615 8.01354 8.29884 1.08332 3.77813 26.0607
3220609 4.45217 5.32418 7.89846 8.28013 1.20755 3.70001 25.9549
3220617 4.46087 5.25879 7.90892 8.24271 1.09359 3.72921 25.8713
3220629 4.46087 5.25879 7.90892 8.24271 1.09359 3.72921 25.8713
3220637 4.47826 5.29615 7.94031 8.27078 1.10481 3.71554 25.9855
3220658 4.43478 5.29615 7.92985 8.32691 1.21061 3.76668 25.9877
3220668 4.48696 5.34286 7.90892 8.29884 1.19618 3.67428 26.0376
3220677 4.48696 5.34286 7.90892 8.29884 1.19618 3.67428 26.0376
3220690 4.43478 5.30549 7.87754 8.28949 1.23774 3.72101 25.9073
3220697 4.47826 5.31484 7.86708 8.23335 1.16134 3.65381 25.8935
3220710 4.47826 5.31484 7.86708 8.23335 1.16134 3.65381 25.8935
3220718 4.46087 5.32418 7.92985 8.224 1.11556 3.68296 25.9389
3220738 4.46957 5.31484 7.83569 8.19593 1.1674 3.62985 25.816
3220750 4.45217 5.28681 7.86708 8.28949 1.21358 3.71738 25.8956
3220759 4.45217 5.28681 7.86708 8.28949 1.21358 3.71738 25.8956
3220769 4.45217 5.34286 7.94031 8.28013 1.18248 3.70476 26.0155
3220779 4.47826 5.36154 7.96123 8.25206 1.12665 3.66952 26.0531
3220789 4.47826 5.36154 7.96123 8.25206 1.12665 3.66952 26.0531
3220799 4.50435 5.37088 7.92985 8.3082 1.19181 3.65493 26.1133
3220811 4.50435 5.37088 7.92985 8.3082 1.19181 3.65493 26.1133
3220819 4.46087 5.33352 7.92985 8.23335 1.13276 3.68032 25.9576
3220829 4.49565 5.33352 7.95077 8.23335 1.0768 3.66444 26.0133
3220839 4.49565 5.33352 7.95077 8.23335 1.0768 3.66444 26.0133
3220850 4.43478 5.34286 7.84615 8.21464 1.23514 3.64756 25.8384
3220859 4.52174 5.30549 7.77292 8.18657 1.16087 3.5671 25.7867
3220869 4.52174 5.30549 7.77292 8.18657 1.16087 3.5671 25.7867
3220879 4.51304 5.38022 7.89846 8.17722 1.10317 3.57104 25.9689
3220889 4.51304 5.38022 7.89846 8.17722 1.10317 3.57104 25.9689
3220899 4.50435 5.38022 7.85662 8.13043 1.11096 3.53814 25.8716
3220912 4.53043 5.37088 7.94031 8.20528 1.06099 3.59598 26.0469
3220921 4.53043 5.37088 7.94031 8.20528 1.06099 3.59598 26.0469
3220930 4.51304 5.40824 7.82523 8.17722 1.20274 3.51868 25.9237
3220941 4.57391 5.43626 7.86708 8.13979 1.09069 3.45736 26.017
3220950 4.57391 5.43626 7.86708 8.13979 1.09069 3.45736 26.017
3220960 4.54783 5.42692 7.86708 8.12108 1.09107 3.47423 25.9629
3220970 4.54783 5.42692 7.86708 8.12108 1.09107 3.47423 25.9629
3220980 4.56522 5.41758 7.83569 8.02752 1.01001 3.41276 25.846
3220990 4.6 5.4456 7.82523 8.09301 1.07206 3.39278 25.9638
3221011 4.57391 5.38956 7.80431 8.0743 1.05026 3.43343 25.8421
3221021 4.55652 5.48297 7.84615 8.10237 1.13769 3.41063 25.988
3221030 4.55652 5.48297 7.84615 8.10237 1.13769 3.41063 25.988
3221041 4.5913 5.47363 7.83569 8.09301 1.09608 3.38377 25.9936
3221061 4.55652 5.46429 7.76246 8.08365 1.18777 3.37805 25.8669
3221071 4.66087 5.46429 7.82523 8.14915 1.07984 3.36168 26.0995
3221082 4.66087 5.46429 7.82523 8.14915 1.07984 3.36168 26.0995
3221092 4.6 5.51099 7.76246 8.04623 1.15237 3.29732 25.9197
3221102 4.53043 5.47363 7.78338 8.08365 1.20159 3.39934 25.8711
3221122 4.61739 5.49231 7.78338 8.11172 1.15676 3.33712 26.0048
3221142 4.6 5.47363 7.77292 8.08365 1.14187 3.3453 25.9302
3221152 4.64348 5.50165 7.82523 8.06494 1.05423 3.30996 26.0353
3221162 4.64348 5.50165 7.82523 8.06494 1.05423 3.30996 26.0353
3221172 4.66087 5.51099 7.79385 8.06494 1.07682 3.27706 26.0306
3221182 4.65217 5.52967 7.752 8.06494 1.1447 3.25117 25.9988
3221192 4.65217 5.52967 7.752 8.06494 1.1447 3.25117 25.9988
3221202 4.61739 5.4456 7.83569 8.02752 0.983596 3.3558 25.9262
3221223 4.65217 5.50165 7.752 7.99945 1.05859 3.24121 25.9053
3221236 4.6087 5.46429 7.78338 8.00881 1.04485 3.31674 25.8652
3221242 4.6087 5.46429 7.78338 8.00881 1.04485 3.31674 25.8652
3221253 4.64348 5.54835 7.71015 7.99945 1.15261 3.19545 25.9014
3221263 4.65217 5.52033 7.74154 7.95267 1.04312 3.20201 25.8667
3221273 4.65217 5.52033 7.74154 7.95267 1.04312 3.20201 25.8667
3221283 4.66957 5.58571 7.80431 7.99009 1.05753 3.18955 26.0497
3221293 4.66957 5.58571 7.80431 7.99009 1.05753 3.18955 26.0497
3221303 4.66957 5.48297 7.80431 7.99945 0.971383 3.26581 25.9563
3221313 4.64348 5.50165 7.80431 8.05559 1.06657 3.29635 26.005
3221323 4.64348 5.50165 7.80431 8.05559 1.06657 3.29635 26.005
3221333 4.63478 5.46429 7.80431 7.99945 0.988933 3.30351 25.9028
3221344 4.61739 5.55769 7.77292 7.94331 1.07245 3.21024 25.8913
3221353 4.61739 5.55769 7.77292 7.94331 1.07245 3.21024 25.8913
3221363 4.65217 5.47363 7.77292 8.00881 1.0203 3.27468 25.9075
3221373 4.65217 5.47363 7.77292 8.00881 1.0203 3.27468 25.9075
3221383 4.64348 5.48297 7.79385 8.02752 1.03396 3.29214 25.9478
3221393 4.66087 5.49231 7.77292 7.99009 1.01154 3.24691 25.9162
3221403 4.66087 5.49231 7.77292 7.99009 1.01154 3.24691 25.9162
3221413 4.65217 5.55769 7.74154 7.95267 1.07768 3.17576 25.9041
3221425 4.65217 5.54835 7.78338 7.99945 1.07015 3.22263 25.9834
3221433 4.65217 5.54835 7.78338 7.99945 1.07015 3.22263 25.9834
3221447 4.68696 5.55769 7.79385 7.99945 1.03343 3.19648 26.0379
3221454 4.68696 5.55769 7.79385 7.99945 1.03343 3.19648 26.0379
3221466 4.68696 5.6044 7.69969 7.96203 1.13645 3.10389 25.9531
3221474 4.66087 5.55769 7.752 7.99009 1.09292 3.19148 25.9607
3221485 4.66087 5.55769 7.752 7.99009 1.09292 3.19148 25.9607
3221494 4.73913 5.56703 7.76246 7.95267 0.978148 3.118 26.0213
3221505 4.73913 5.56703 7.76246 7.95267 0.978148 3.118 26.0213
3221514 4.64348 5.52033 7.72062 7.95267 1.07298 3.19859 25.8371
3221526 4.67826 5.58571 7.68923 7.99009 1.16438 3.13107 25.9433
3221534 4.67826 5.58571 7.68923 7.99009 1.16438 3.13107 25.9433
3221548 4.72174 5.55769 7.77292 8.03687 1.05398 3.17968 26.0892
3221554 4.67826 5.57637 7.68923 7.99009 1.1558 3.1376 25.934
3221567 4.67826 5.57637 7.68923 7.99009 1.1558 3.1376 25.934
3221574 4.66087 5.55769 7.69969 7.96203 1.11973 3.15481 25.8803
3221588 4.66087 5.55769 7.69969 7.96203 1.11973 3.15481 25.8803
3221594 4.67826 5.52033 7.81477 8.03687 1.02127 3.25509 26.0502
3221605 4.69565 5.55769 7.752 8.01816 1.08383 3.1799 26.0235
3221614 4.69565 5.55769 7.752 8.01816 1.08383 3.1799 26.0235
3221625 4.66087 5.50165 7.73108 7.97138 1.04493 3.2128 25.865
3221634 4.63478 5.49231 7.77292 8.08365 1.12403 3.30755 25.9837
3221651 4.63478 5.49231 7.77292 8.08365 1.12403 3.30755 25.9837
3221656 4.63478 5.58571 7.78338 8.05559 1.17341 3.23403 26.0595
3221665 4.68696 5.50165 7.72062 7.95267 1.01186 3.18114 25.8619
3221687 4.69565 5.55769 7.73108 8.00881 1.09622 3.16613 25.9932
3221695 4.69565 5.55769 7.73108 8.00881 1.09622 3.16613 25.9932
3221707 4.65217 5.52033 7.73108 7.97138 1.07098 3.20577 25.875
3221716 4.66087 5.54835 7.69969 8.01816 1.16283 3.187 25.9271
3221727 4.66087 5.54835 7.69969 8.01816 1.16283 3.187 25.9271
3221735 4.66957 5.52033 7.68923 7.99945 1.12157 3.18726 25.8786
3221747 4.66087 5.49231 7.65785 7.95267 1.09288 3.17734 25.7637
3221765 4.62609 5.49231 7.752 7.99009 1.06757 3.26195 25.8605
3221787 4.61739 5.6044 7.71015 8.04623 1.27326 3.19572 25.9782
3221797 4.66087 5.53901 7.79385 8.02752 1.06818 3.24052 26.0212
3221807 4.66087 5.53901 7.79385 8.02752 1.06818 3.24052 26.0212
3221817 4.69565 5.56703 7.74154 8.14915 1.22259 3.22788 26.1534
3221827 4.62609 5.56703 7.752 8.00881 1.15373 3.21783 25.9539
3221837 4.62609 5.56703 7.752 8.00881 1.15373 3.21783 25.9539
3221848 4.6 5.53901 7.74154 8.04623 1.19925 3.2681 25.9268
3221868 4.63478 5.57637 7.73108 7.99945 1.16604 3.19141 25.9417
3221879 4.66087 5.59506 7.71015 8.03687 1.21227 3.16759 26.003
3221898 4.6 5.49231 7.81477 8.05559 1.09111 3.33828 25.9627
3221908 4.57391 5.52033 7.81477 8.08365 1.16889 3.34951 25.9927
3221919 4.57391 5.52033 7.81477 8.08365 1.16889 3.34951 25.9927
3221929 4.6087 5.52967 7.76246 8.03687 1.15217 3.27379 25.9377
3221939 4.6087 5.52967 7.76246 8.03687 1.15217 3.27379 25.9377
3221949 4.56522 5.49231 7.72062 8.03687 1.20409 3.31201 25.815
3221959 4.55652 5.46429 7.73108 8.0743 1.21096 3.35971 25.8262
3221979 4.54783 5.48297 7.77292 8.10237 1.22035 3.38405 25.9061
3221991 4.57391 5.48297 7.79385 8.04623 1.12121 3.34973 25.897
3221999 4.57391 5.48297 7.79385 8.04623 1.12121 3.34973 25.897
3222009 4.55652 5.51099 7.83569 8.11172 1.18249 3.39031 26.0149
3222019 4.55652 5.51099 7.83569 8.11172 1.18249 3.39031 26.0149
3222029 4.49565 5.46429 7.86708 8.13979 1.19513 3.49307 25.9668
3222039 4.53913 5.46429 7.84615 8.09301 1.12943 3.43205 25.9426
3222049 4.53913 5.46429 7.84615 8.09301 1.12943 3.43205 25.9426
3222059 4.54783 5.47363 7.82523 8.11172 1.16753 3.41826 25.9584
3222069 4.55652 5.46429 7.752 8.10237 1.21557 3.38175 25.8752
3222089 4.6087 5.49231 7.84615 8.08365 1.07672 3.35879 26.0308
3222099 4.6087 5.49231 7.84615 8.08365 1.07672 3.35879 26.0308
3222109 4.54783 5.47363 7.76246 8.0743 1.19656 3.37338 25.8582
3222119 4.53913 5.46429 7.82523 8.10237 1.15912 3.42689 25.931
3222129 4.53913 5.46429 7.82523 8.10237 1.15912 3.42689 25.931
3222139 4.6 5.52033 7.81477 8.01816 1.08245 3.30167 25.9533
3222149 4.6 5.52033 7.81477 8.01816 1.08245 3.30167 25.9533
3222159 4.53913 5.51099 7.85662 8.13043 1.19606 3.42026 26.0372
3222169 4.53043 5.51099 7.89846 8.13043 1.16275 3.44499 26.0703
3222190 4.50435 5.46429 7.79385 8.0743 1.20022 3.42507 25.8368
3222199 4.53913 5.49231 7.80431 8.0743 1.18021 3.38508 25.91
3222210 4.53913 5.49231 7.80431 8.0743 1.18021 3.38508 25.91
3222219 4.56522 5.48297 7.82523 8.09301 1.14141 3.39095 25.9664
3222239 4.53913 5.42692 7.84615 8.01816 1.02573 3.42519 25.8304
3222250 4.53913 5.49231 7.85662 8.13979 1.18753 3.43765 26.0278
3222276 4.55652 5.43626 7.83569 8.12108 1.12249 3.44745 25.9496
3222285 4.56522 5.43626 7.81477 8.13043 1.14341 3.43612 25.9467
3222294 4.56522 5.43626 7.81477 8.13043 1.14341 3.43612 25.9467
3222300 4.52174 5.3989 7.91938 8.11172 1.03028 3.53182 25.9517
3222311 4.57391 5.43626 7.888 8.12108 1.05252 3.45834 26.0193
3222332 4.49565 5.49231 7.90892 8.19593 1.2299 3.51642 26.0928
3222342 4.49565 5.49231 7.90892 8.19593 1.2299 3.51642 26.0928
3222352 4.53043 5.3989 7.888 8.1585 1.09618 3.53242 25.9758
3222362 4.44348 5.38022 7.92985 8.14915 1.11576 3.62238 25.9027
3222382 4.54783 5.3522 7.89846 8.13043 0.999218 3.54558 25.9289
3222393 4.47826 5.38022 7.98215 8.11172 0.993678 3.60395 25.9524
3222410 4.47826 5.38022 7.98215 8.11172 0.993678 3.60395 25.9524
3222414 4.51304 5.37088 8.024 8.14915 0.943106 3.62045 26.0571
3222422 4.51304 5.37088 8.024 8.14915 0.943106 3.62045 26.0571
3222433 4.49565 5.24011 7.99262 8.14915 0.870439 3.71326 25.8775
3222442 4.41739 5.36154 7.90892 8.19593 1.18912 3.66596 25.8838
3222452 4.41739 5.36154 7.90892 8.19593 1.18912 3.66596 25.8838
3222462 4.43478 5.31484 8.01354 8.19593 1.02319 3.73271 25.9591
3222474 4.4087 5.24011 8.01354 8.14915 0.936621 3.78545 25.8115
3222482 4.4087 5.24011 8.01354 8.14915 0.936621 3.78545 25.8115
3222495 4.43478 5.32418 8.05538 8.20528 0.998566 3.74816 26.0196
3222503 4.43478 5.32418 8.05538 8.20528 0.998566 3.74816 26.0196
3222514 4.4 5.26813 8.024 8.24271 1.04766 3.81644 25.9348
3222523 4.4 5.32418 8.01354 8.27078 1.1356 3.78346 26.0085
3222534 4.4 5.32418 8.01354 8.27078 1.1356 3.78346 26.0085
3222543 4.46957 5.25879 8.04492 8.25206 0.957111 3.7859 26.0253
3222555 4.43478 5.25879 8.06585 8.25206 0.970942 3.82004 26.0115
3222563 4.43478 5.20275 8.06585 8.26142 0.927734 3.86469 25.9648
3222574 4.42609 5.24011 8.11815 8.31756 0.970644 3.89024 26.1019
3222596 4.43478 5.20275 8.18092 8.26142 0.813332 3.91383 26.0799
3222604 4.38261 5.25879 8.12862 8.32691 1.02932 3.91663 26.0969
3222615 4.38261 5.25879 8.12862 8.32691 1.02932 3.91663 26.0969
3222623 4.35652 5.18407 8.13908 8.35498 1.00198 4.00628 26.0346
3222634 4.35652 5.18407 8.13908 8.35498 1.00198 4.00628 26.0346
3222643 4.36522 5.13736 8.14954 8.42983 1.00878 4.06994 26.0819
3222655 4.38261 5.16538 8.13908 8.39241 0.993219 4.01666 26.0795
3222663 4.38261 5.16538 8.13908 8.39241 0.993219 4.01666 26.0795
3222674 4.31304 5.1467 8.13908 8.34562 1.00234 4.06154 25.9444
3222683 4.30435 5.15604 8.13908 8.35498 1.02834 4.06501 25.9544
3222695 4.30435 5.15604 8.13908 8.35498 1.02834 4.06501 25.9544
3222703 4.28696 5.11868 8.11815 8.35498 1.03227 4.0965 25.8788
3222717 4.28696 5.11868 8.11815 8.35498 1.03227 4.0965 25.8788
3222724 4.29565 5.09066 8.12862 8.39241 1.02171 4.1309 25.9073
3222736 4.26087 5.10934 8.23323 8.46725 1.03804 4.21754 26.0707
3222744 4.26087 5.10934 8.23323 8.46725 1.03804 4.21754 26.0707
3222757 4.27826 5.1 8.17046 8.47661 1.08345 4.18946 26.0253
3222764 4.21739 5.10934 8.27508 8.48597 1.05685 4.27459 26.0878
3222784 4.22609 5.06264 8.22277 8.57017 1.13485 4.3158 26.0817
3222804 4.23478 5.00659 8.24369 8.53275 1.01936 4.34418 26.0178
3222818 4.1913 4.97857 8.20185 8.58888 1.13085 4.40332 25.9606
3222824 4.1913 4.97857 8.20185 8.58888 1.13085 4.40332 25.9606
3222834 4.18261 4.97857 8.21231 8.62631 1.16343 4.42932 25.9998
3222844 4.18261 5.00659 8.30646 8.63566 1.10326 4.45036 26.1313
3222855 4.18261 5.00659 8.30646 8.63566 1.10326 4.45036 26.1313
3222864 4.18261 5.01593 8.33785 8.71987 1.1572 4.48988 26.2563
3222876 4.18261 5.01593 8.33785 8.71987 1.1572 4.48988 26.2563
3222884 4.12174 4.94121 8.28554 8.56081 1.05633 4.50615 25.9093
3222896 4.13913 4.95055 8.32738 8.58888 1.03142 4.51431 26.0059
3222904 4.13913 4.95055 8.32738 8.58888 1.03142 4.51431 26.0059
3222916 4.18261 4.98791 8.33785 8.56081 0.986102 4.44671 26.0692
3222933 4.09565 4.94121 8.296 8.60759 1.1152 4.54892 25.9405
3222937 4.09565 4.94121 8.296 8.60759 1.1152 4.54892 25.9405
3222944 4.10435 4.88516 8.42154 8.66373 0.980842 4.65723 26.0748
3222956 4.10435 4.88516 8.42154 8.66373 0.980842 4.65723 26.0748
3222964 4.10435 4.90385 8.432 8.66373 0.987619 4.64731 26.1039
3222976 4.08696 4.85714 8.40062 8.65438 0.984597 4.67952 25.9991
3222984 4.08696 4.85714 8.40062 8.65438 0.984597 4.67952 25.9991
3222997 4.08696 4.93187 8.41108 8.64502 1.03438 4.62356 26.0749
3223004 4.08696 4.93187 8.41108 8.64502 1.03438 4.62356 26.0749
3223017 4.11304 4.87582 8.39015 8.64502 0.977603 4.63781 26.024
3223024 4.07826 4.8011 8.33785 8.6918 1.03902 4.7186 25.909
3223037 4.07826 4.8011 8.33785 8.6918 1.03902 4.7186 25.909
3223046 4.10435 4.88516 8.44246 8.58888 0.89086 4.6358 26.0209
3223056 4.10435 4.85714 8.44246 8.67309 0.942799 4.69036 26.077
3223066 4.10435 4.85714 8.44246 8.67309 0.942799 4.69036 26.077
3223076 4.09565 4.89451 8.44246 8.67309 0.985873 4.66874 26.1057
3223086 4.09565 4.89451 8.44246 8.67309 0.985873 4.66874 26.1057
3223098 4.10435 4.83846 8.44246 8.66373 0.91691 4.70078 26.049
3223106 4.14783 4.89451 8.40062 8.71051 1.00998 4.62776 26.1535
3223118 4.14783 4.89451 8.40062 8.71051 1.00998 4.62776 26.1535
3223125 4.06957 4.81044 8.34831 8.67309 1.02856 4.71484 25.9014
3223136 4.10435 4.86648 8.39015 8.71987 1.0466 4.68113 26.0809
3223147 4.10435 4.86648 8.39015 8.71987 1.0466 4.68113 26.0809
3223160 4.13913 4.86648 8.42154 8.65438 0.920373 4.64139 26.0815
3223211 4.07826 4.81044 8.40062 8.71051 1.002 4.74374 25.9998
3223215 4.07826 4.81044 8.40062 8.71051 1.002 4.74374 25.9998
3223218 4.16522 4.89451 8.41108 8.67309 0.947925 4.60401 26.1439
3223220 4.16522 4.89451 8.41108 8.67309 0.947925 4.60401 26.1439
3223222 4.09565 4.87582 8.432 8.66373 0.970477 4.67499 26.0672
3223223 4.09565 4.82912 8.432 8.65438 0.918686 4.7066 26.0111
3223228 4.09565 4.82912 8.432 8.65438 0.918686 4.7066 26.0111
3223237 4.13913 4.92253 8.37969 8.64502 1.00505 4.57886 26.0864
3223247 4.06957 4.81044 8.432 8.68244 0.953394 4.75165 25.9944
3223258 4.06957 4.81044 8.432 8.68244 0.953394 4.75165 25.9944
3223267 4.03478 4.8478 8.42154 8.6918 1.04178 4.74926 25.9959
3223278 4.03478 4.8478 8.42154 8.6918 1.04178 4.74926 25.9959
3223287 4.07826 4.76374 8.37969 8.63566 0.910228 4.74141 25.8574
3223297 4.05217 4.89451 8.48431 8.68244 0.996104 4.72175 26.1134
3223307 4.05217 4.89451 8.48431 8.68244 0.996104 4.72175 26.1134
3223317 4.13913 4.87582 8.46338 8.71051 0.939161 4.67314 26.1889
3223328 4.13913 4.87582 8.46338 8.71051 0.939161 4.67314 26.1889
3223339 4.04348 4.82912 8.48431 8.71051 0.970414 4.78886 26.0674
3223348 4.06087 4.85714 8.51569 8.71051 0.94772 4.76675 26.1442
3223358 4.06087 4.85714 8.51569 8.71051 0.94772 4.76675 26.1442
3223368 4.10435 4.82912 8.49477 8.65438 0.84767 4.7248 26.0826
3223378 4.07826 4.74505 8.52615 8.72922 0.833884 4.84997 26.0787
3223399 4.09565 4.8478 8.52615 8.64502 0.833839 4.72593 26.1146
3223418 4.06957 4.79176 8.53662 8.59824 0.753781 4.77389 25.9962
3223429 4.08696 4.79176 8.52615 8.67309 0.816527 4.78595 26.078
3223438 4.08696 4.79176 8.52615 8.67309 0.816527 4.78595 26.078
3223449 4.06957 4.82912 8.50523 8.58888 0.810999 4.72944 25.9928
3223459 4.07826 4.78242 8.50523 8.65438 0.819841 4.78411 26.0203
3223479 4.11304 4.8478 8.48431 8.61695 0.832054 4.6852 26.0621
3223490 4.13913 4.78242 8.49477 8.61695 0.735086 4.71906 26.0333
3223501 4.13913 4.78242 8.49477 8.61695 0.735086 4.71906 26.0333
3223510 4.13043 4.85714 8.55754 8.60759 0.742528 4.69027 26.1527
3223521 4.13043 4.85714 8.55754 8.60759 0.742528 4.69027 26.1527
3223533 4.12174 4.8011 8.52615 8.56081 0.6863 4.7083 26.0098
3223543 4.09565 4.81978 8.58892 8.58888 0.69375 4.74972 26.0932
3223552 4.09565 4.81978 8.58892 8.58888 0.69375 4.74972 26.0932
3223571 4.10435 4.82912 8.48431 8.52339 0.736141 4.66877 25.9412
3223572 4.09565 4.87582 8.51569 8.5421 0.774688 4.65994 26.0293
3223582 4.09565 4.87582 8.51569 8.5421 0.774688 4.65994 26.0293
3223592 4.12174 4.8478 8.54708 8.57017 0.717947 4.68496 26.0868
3223612 4.07826 4.82912 8.46338 8.52339 0.782865 4.68024 25.8942
3223622 4.12174 4.83846 8.50523 8.57953 0.75928 4.67915 26.045
3223643 4.04348 4.76374 8.50523 8.67309 0.85443 4.83217 25.9855
3223654 4.06957 4.78242 8.58892 8.68244 0.771695 4.8344 26.1234
3223663 4.06957 4.78242 8.58892 8.68244 0.771695 4.8344 26.1234
3223673 4.08696 4.82912 8.46338 8.68244 0.922057 4.73665 26.0619
3223683 4 4.79176 8.53662 8.65438 0.875115 4.84893 25.9827
3223693 4 4.79176 8.53662 8.65438 0.875115 4.84893 25.9827
3223703 4.0087 4.81978 8.47385 8.78536 1.07579 4.84754 26.0877
3223724 4 4.7544 8.50523 8.82278 1.02746 4.93069 26.0824
3223734 4.0087 4.81044 8.52615 8.82278 1.04935 4.88943 26.1681
3223744 4.0087 4.81044 8.52615 8.82278 1.04935 4.88943 26.1681
3223755 4 4.81044 8.52615 8.78536 1.0237 4.88157 26.122
3223764 3.98261 4.78242 8.432 8.776 1.10096 4.87601 25.973
3223774 3.98261 4.78242 8.432 8.776 1.10096 4.87601 25.973
3223785 4.06087 4.85714 8.41108 8.88828 1.21434 4.7953 26.2174
3223796 4.06087 4.85714 8.41108 8.88828 1.21434 4.7953 26.2174
3223805 3.9913 4.70769 8.46338 8.96313 1.16374 5.01092 26.1255
3223815 4.0087 4.81044 8.52615 8.88828 1.10914 4.91467 26.2336
3223826 4.0087 4.81044 8.52615 8.88828 1.10914 4.91467 26.2336
3223838 3.94783 4.76374 8.47385 8.86021 1.15401 4.9658 26.0456
3223847 3.93043 4.77308 8.432 8.83214 1.19647 4.94497 25.9677
3223855 3.93043 4.77308 8.432 8.83214 1.19647 4.94497 25.9677
3223865 3.94783 4.79176 8.48431 8.8415 1.15203 4.94116 26.0654
3223886 3.93913 4.70769 8.41108 8.83214 1.14873 4.98052 25.89
3223896 3.96522 4.70769 8.42154 8.90699 1.18063 4.99335 26.0014
3223905 3.96522 4.70769 8.42154 8.90699 1.18063 4.99335 26.0014
3223916 3.9913 4.7544 8.45292 8.89763 1.15706 4.94603 26.0963
3223927 3.93043 4.74505 8.42154 8.86957 1.21565 4.97694 25.9666
3223940 3.93043 4.74505 8.42154 8.86957 1.21565 4.97694 25.9666
3223947 3.90435 4.81044 8.47385 8.98184 1.35084 5.00998 26.1705
3223967 3.94783 4.8011 8.44246 8.95377 1.30481 4.96113 26.1452
3223977 3.92174 4.74505 8.48431 8.94441 1.22954 5.03646 26.0955
3223997 3.93043 4.81044 8.36923 8.96313 1.41323 4.9427 26.0732
3224007 3.96522 4.77308 8.49477 8.95377 1.20944 4.98929 26.1868
3224017 3.96522 4.77308 8.49477 8.95377 1.20944 4.98929 26.1868
3224028 3.9913 4.73571 8.42154 8.89763 1.17148 4.94822 26.0462
3224038 3.9913 4.73571 8.42154 8.89763 1.17148 4.94822 26.0462
3224048 3.90435 4.72637 8.36923 8.91635 1.32073 5.00931 25.9163
3224061 3.93913 4.81044 8.36923 8.91635 1.36203 4.91797 26.0351
3224068 3.93913 4.81044 8.36923 8.91635 1.36203 4.91797 26.0351
3224078 3.93913 4.78242 8.40062 8.88828 1.27924 4.94071 26.0104
3224088 3.95652 4.81978 8.37969 8.82278 1.25713 4.86522 25.9788
3224098 3.95652 4.81978 8.37969 8.82278 1.25713 4.86522 25.9788
3224108 3.98261 4.8478 8.33785 8.83214 1.30718 4.81122 26.0004
3224118 3.98261 4.8478 8.33785 8.83214 1.30718 4.81122 26.0004
3224128 3.9913 4.8011 8.432 8.85085 1.17798 4.8842 26.0753
3224138 3.95652 4.79176 8.46338 8.83214 1.15574 4.92281 26.0438
3224158 4.0087 4.82912 8.42154 8.8415 1.18807 4.84192 26.1009
3224168 3.94783 4.77308 8.44246 8.86021 1.19411 4.94654 26.0236
3224178 3.94783 4.77308 8.44246 8.86021 1.19411 4.94654 26.0236
3224193 4.0087 4.81978 8.46338 8.8415 1.13762 4.86528 26.1334
3224202 4.0087 4.81978 8.46338 8.8415 1.13762 4.86528 26.1334
3224211 3.94783 4.79176 8.39015 8.80407 1.21256 4.89012 25.9338
3224219 4.01739 4.81978 8.39015 8.82278 1.18524 4.82288 26.0501
3224229 4.01739 4.81978 8.39015 8.82278 1.18524 4.82288 26.0501
3224239 3.96522 4.85714 8.44246 8.85085 1.24477 4.86544 26.1157
3224250 4.03478 4.81978 8.53662 8.78536 0.987279 4.8521 26.1765
3224259 4.03478 4.81978 8.53662 8.78536 0.987279 4.8521 26.1765
3224269 4.02609 4.85714 8.51569 8.81343 1.07659 4.83315 26.2124
3224290 3.94783 4.70769 8.52615 8.81343 1.00706 5.01098 25.9951
3224299 4.02609 4.81978 8.48431 8.79472 1.05656 4.84203 26.1249
3224319 3.97391 4.81978 8.48431 8.80407 1.11727 4.88536 26.0821
3224331 3.98261 4.81044 8.44246 8.80407 1.14195 4.8696 26.0396
3224341 3.98261 4.81044 8.44246 8.80407 1.14195 4.8696 26.0396
3224352 4.03478 4.85714 8.54708 8.74794 0.976843 4.81333 26.1869
3224361 4.03478 4.85714 8.48431 8.74794 1.03926 4.78885 26.1242
3224372 3.93913 4.82912 8.48431 8.76665 1.12641 4.89026 26.0192
3224383 4.04348 4.81978 8.53662 8.75729 0.952873 4.83461 26.1572
3224392 4.04348 4.81978 8.53662 8.75729 0.952873 4.83461 26.1572
3224400 4.04348 4.82912 8.53662 8.75729 0.961459 4.82753 26.1665
3224412 4.05217 4.7544 8.46338 8.70116 0.904843 4.82727 25.9711
3224422 4.05217 4.7544 8.46338 8.70116 0.904843 4.82727 25.9711
3224433 4.06087 4.90385 8.49477 8.71051 1.01139 4.72329 26.17
3224442 4.06087 4.8011 8.432 8.58888 0.866511 4.72837 25.8829
3224462 4.06087 4.8478 8.45292 8.60759 0.906464 4.70857 25.9692
3224472 4.06087 4.8478 8.45292 8.60759 0.906464 4.70857 25.9692
3224484 4.11304 4.8011 8.49477 8.61695 0.7783 4.72467 26.0259
3224493 4.10435 4.92253 8.48431 8.66373 0.952828 4.65398 26.1749
3224503 4.10435 4.92253 8.48431 8.66373 0.952828 4.65398 26.1749
3224513 4.06957 4.85714 8.52615 8.66373 0.885603 4.74593 26.1166
3224523 4.10435 4.89451 8.46338 8.68244 0.965029 4.67417 26.1447
3224533 4.10435 4.89451 8.46338 8.68244 0.965029 4.67417 26.1447
3224543 4.11304 4.94121 8.50523 8.73858 1.00912 4.6712 26.2981
3224553 4.11304 4.94121 8.50523 8.73858 1.00912 4.6712 26.2981
3224564 4.08696 4.86648 8.44246 8.65438 0.951469 4.68905 26.0503
3224573 4.09565 4.86648 8.46338 8.61695 0.887394 4.67594 26.0425
3224583 4.09565 4.86648 8.46338 8.61695 0.887394 4.67594 26.0425
3224594 4.12174 4.87582 8.45292 8.63566 0.897819 4.65248 26.0861
3224603 4.09565 4.89451 8.432 8.61695 0.944546 4.64232 26.0391
3224613 4.09565 4.89451 8.432 8.61695 0.944546 4.64232 26.0391
3224623 4.10435 4.95055 8.432 8.64502 1.01334 4.60478 26.1319
3224636 4.10435 4.95055 8.432 8.64502 1.01334 4.60478 26.1319
3224644 4.06087 4.91319 8.45292 8.60759 0.966975 4.65907 26.0346
3224654 4.14783 4.87582 8.49477 8.58888 0.787243 4.63089 26.1073
3224674 4.12174 4.86648 8.42154 8.62631 0.911731 4.64334 26.0361
3224684 4.13043 4.82912 8.45292 8.48597 0.706342 4.62151 25.8984
3224704 4.18261 4.86648 8.47385 8.55146 0.730112 4.58853 26.0744
3224716 4.18261 4.86648 8.47385 8.55146 0.730112 4.58853 26.0744
3224725 4.16522 4.92253 8.39015 8.46725 0.804013 4.49197 25.9452
3224735 4.2 4.93187 8.44246 8.51403 0.769922 4.49892 26.0884
3224745 4.2 4.93187 8.44246 8.51403 0.769922 4.49892 26.0884
3224758 4.18261 4.89451 8.42154 8.52339 0.781786 4.53528 26.022
3224766 4.16522 4.95055 8.41108 8.53275 0.870124 4.50586 26.0596
3224778 4.16522 4.95055 8.41108 8.53275 0.870124 4.50586 26.0596
3224785 4.23478 4.98791 8.48431 8.47661 0.711736 4.43305 26.1836
3224806 4.17391 4.90385 8.33785 8.49532 0.856212 4.48966 25.9109
3224816 4.2 4.95055 8.40062 8.48597 0.802606 4.45673 26.0371
3224826 4.2 4.95055 8.40062 8.48597 0.802606 4.45673 26.0371
3224836 4.15652 4.99725 8.39015 8.46725 0.882152 4.44249 26.0112
3224850 4.25217 4.98791 8.37969 8.46725 0.788993 4.37393 26.087
3224866 4.25217 4.98791 8.41108 8.5421 0.82728 4.41703 26.1933
3224875 4.25217 4.98791 8.41108 8.5421 0.82728 4.41703 26.1933
3224886 4.23478 4.98791 8.33785 8.46725 0.847688 4.36979 26.0278
3224895 4.2 5.00659 8.39015 8.47661 0.856286 4.4069 26.0734
3224907 4.2 5.00659 8.39015 8.47661 0.856286 4.4069 26.0734
3224917 4.33043 5.0533 8.35877 8.37369 0.706252 4.22079 26.1162
3224927 4.23478 5.02527 8.35877 8.35498 0.757205 4.30454 25.9738
3224937 4.23478 5.02527 8.35877 8.35498 0.757205 4.30454 25.9738
3224947 4.32174 5.06264 8.26462 8.39241 0.833949 4.18909 26.0414
3224967 4.29565 5.01593 8.25415 8.31756 0.75694 4.20742 25.8833
3224977 4.28696 5.04396 8.30646 8.3082 0.731084 4.21098 25.9456
3224987 4.28696 5.04396 8.30646 8.3082 0.731084 4.21098 25.9456
3224997 4.30435 5.02527 8.32738 8.3082 0.675657 4.22063 25.9652
3225009 4.31304 5.15604 8.21231 8.27078 0.868395 4.05399 25.9522
3225027 4.35652 5.17473 8.23323 8.28949 0.839084 4.02519 26.054
3225037 4.35652 5.17473 8.23323 8.28949 0.839084 4.02519 26.054
3225047 4.31304 5.16538 8.23323 8.3082 0.890964 4.0717 26.0199
3225057 4.37391 5.21209 8.24369 8.24271 0.802755 3.96994 26.0724
3225067 4.37391 5.21209 8.24369 8.24271 0.802755 3.96994 26.0724
3225077 4.3913 5.26813 8.21231 8.28949 0.911659 3.92319 26.1612
3225087 4.3913 5.24945 8.22277 8.21464 0.814876 3.90939 26.0782
3225100 4.3913 5.24945 8.22277 8.21464 0.814876 3.90939 26.0782
3225117 4.3913 5.27747 8.23323 8.18657 0.804478 3.8816 26.0886
3225127 4.37391 5.16538 8.22277 8.19593 0.736415 3.97531 25.958
3225137 4.3913 5.17473 8.08677 8.224 0.889453 3.90972 25.8768
3225147 4.3913 5.17473 8.08677 8.224 0.889453 3.90972 25.8768
3225157 4.44348 5.27747 8.22277 8.20528 0.78063 3.84743 26.149
3225167 4.44348 5.27747 8.22277 8.20528 0.78063 3.84743 26.149
3225177 4.34783 5.24945 8.18092 8.16786 0.856161 3.9032 25.9461
3225187 4.38261 5.28681 8.21231 8.18657 0.84247 3.87221 26.0683
3225197 4.38261 5.28681 8.21231 8.18657 0.84247 3.87221 26.0683
3225207 4.3913 5.19341 8.12862 8.23335 0.87375 3.91799 25.9467
3225216 4.38261 5.23077 8.18092 8.25206 0.882369 3.92739 26.0464
3225228 4.38261 5.23077 8.18092 8.25206 0.882369 3.92739 26.0464
3225238 4.4087 5.24945 8.14954 8.26142 0.913569 3.88552 26.0691
3225258 4.35652 5.24945 8.10769 8.24271 0.990069 3.89756 25.9564
3225268 4.34783 5.24011 8.16 8.32691 1.01553 3.96875 26.0748
3225288 4.38261 5.28681 8.18092 8.29884 0.977206 3.90663 26.1492
3225298 4.3913 5.20275 8.19138 8.28949 0.872052 3.96175 26.0749
3225309 4.3913 5.20275 8.19138 8.28949 0.872052 3.96175 26.0749
3225319 4.4 5.28681 8.19138 8.28013 0.932363 3.89056 26.1583
3225329 4.35652 5.21209 8.24369 8.27078 0.846002 3.99447 26.0831
3225350 4.33043 5.24011 8.17046 8.27078 0.9707 3.96207 26.0118
3225360 4.33043 5.24011 8.17046 8.27078 0.9707 3.96207 26.0118
3225372 4.36522 5.15604 8.14954 8.33627 0.939703 4.01691 26.0071
3225379 4.34783 5.20275 8.24369 8.29884 0.871947 4.01943 26.0931
3225389 4.34783 5.20275 8.24369 8.29884 0.871947 4.01943 26.0931
3225399 4.26957 5.19341 8.13908 8.28949 1.03726 4.03545 25.8915
3225409 4.26957 5.1467 8.22277 8.42047 1.03114 4.15989 26.0595
3225419 4.26957 5.1467 8.22277 8.42047 1.03114 4.15989 26.0595
3225432 4.27826 5.03462 8.28554 8.48597 0.917006 4.28913 26.0844
3225439 4.27826 5.03462 8.28554 8.48597 0.917006 4.28913 26.0844
3225449 4.26957 5.08132 8.27508 8.44854 0.944617 4.24134 26.0745
3225459 4.28696 5.08132 8.30646 8.36434 0.818229 4.20667 26.0391
3225474 4.28696 5.08132 8.30646 8.36434 0.818229 4.20667 26.0391
3225483 4.26087 5.08132 8.22277 8.33627 0.901452 4.17944 25.9012
3225500 4.28696 5.01593 8.22277 8.39241 0.866786 4.23196 25.9181
3225511 4.21739 5.02527 8.296 8.4579 0.932604 4.33398 25.9966
3225521 4.21739 5.02527 8.296 8.4579 0.932604 4.33398 25.9966
3225531 4.2087 5.04396 8.31692 8.47661 0.954983 4.34279 26.0462
3225543 4.18261 5.00659 8.432 8.48597 0.840721 4.4406 26.1072
3225550 4.18261 5.00659 8.432 8.48597 0.840721 4.4406 26.1072
3225564 4.26087 4.91319 8.432 8.46725 0.659266 4.44431 26.0733
3225571 4.23478 4.94121 8.41108 8.46725 0.731745 4.43439 26.0543
3225580 4.23478 4.94121 8.41108 8.46725 0.731745 4.43439 26.0543
3225590 4.24348 4.98791 8.39015 8.42983 0.752467 4.3694 26.0514
3225612 4.2 4.93187 8.36923 8.40176 0.737756 4.42372 25.9029
3225622 4.21739 4.92253 8.39015 8.52339 0.804472 4.47558 26.0535
3225632 4.21739 4.92253 8.39015 8.52339 0.804472 4.47558 26.0535
3225644 4.2087 5.01593 8.44246 8.48597 0.813234 4.41849 26.1531
3225652 4.23478 5.01593 8.46338 8.48597 0.766918 4.4076 26.2001
3225662 4.23478 4.90385 8.46338 8.44854 0.62784 4.47589 26.0506
3225673 4.18261 4.91319 8.50523 8.47661 0.672951 4.5361 26.0776
3225682 4.18261 4.91319 8.50523 8.47661 0.672951 4.5361 26.0776
3225692 4.2087 4.93187 8.41108 8.50468 0.783664 4.47599 26.0563
3225702 4.2 4.93187 8.432 8.51403 0.780258 4.4947 26.0779
3225712 4.2 4.93187 8.432 8.51403 0.780258 4.4947 26.0779
3225723 4.21739 4.97857 8.44246 8.51403 0.796056 4.45113 26.1525
3225732 4.21739 4.97857 8.44246 8.51403 0.796056 4.45113 26.1525
3225742 4.1913 4.90385 8.39015 8.53275 0.821674 4.51288 26.0181
3225752 4.13913 4.87582 8.49477 8.52339 0.734943 4.61136 26.0331
3225763 4.13913 4.87582 8.49477 8.52339 0.734943 4.61136 26.0331
3225772 4.15652 4.91319 8.37969 8.5421 0.884014 4.53153 25.9915
3225782 4.16522 4.92253 8.37969 8.5421 0.88402 4.51799 26.0095
3225792 4.16522 4.92253 8.37969 8.5421 0.88402 4.51799 26.0095
3225803 4.15652 4.92253 8.49477 8.57953 0.813246 4.5856 26.1533
3225812 4.15652 4.92253 8.49477 8.57953 0.813246 4.5856 26.1533
3225824 4.14783 4.91319 8.42154 8.58888 0.894374 4.57363 26.0714
3225832 4.13043 4.92253 8.49477 8.57017 0.830364 4.60143 26.1179
3225844 4.13043 4.92253 8.49477 8.57017 0.830364 4.60143 26.1179
3225852 4.16522 4.86648 8.44246 8.59824 0.82179 4.60775 26.0724
3225862 4.11304 4.89451 8.46338 8.56081 0.844055 4.61935 26.0317
3225872 4.11304 4.89451 8.46338 8.56081 0.844055 4.61935 26.0317
3225882 4.17391 4.85714 8.46338 8.59824 0.783825 4.61656 26.0927
3225902 4.08696 4.8478 8.54708 8.53275 0.717399 4.69644 26.0146
3225912 4.18261 4.87582 8.53662 8.52339 0.650874 4.59536 26.1184
3225926 4.18261 4.87582 8.53662 8.52339 0.650874 4.59536 26.1184
3225933 4.16522 4.96923 8.45292 8.58888 0.897732 4.53122 26.1763
3225943 4.16522 4.83846 8.48431 8.57953 0.736991 4.63805 26.0675
3225955 4.16522 4.83846 8.48431 8.57953 0.736991 4.63805 26.0675
3225964 4.15652 4.87582 8.44246 8.5421 0.786933 4.58484 26.0169
3225984 4.12174 4.8478 8.47385 8.56081 0.781634 4.6522 26.0042
3225994 4.15652 4.83846 8.47385 8.57953 0.755921 4.64044 26.0484
3226004 4.15652 4.83846 8.47385 8.57953 0.755921 4.64044 26.0484
3226014 4.14783 4.83846 8.48431 8.56081 0.736749 4.64372 26.0314
3226024 4.16522 4.81978 8.57846 8.59824 0.644398 4.69677 26.1617
3226034 4.16522 4.81978 8.57846 8.59824 0.644398 4.69677 26.1617
3226044 4.17391 4.8478 8.49477 8.61695 0.761545 4.64348 26.1334
3226054 4.17391 4.8478 8.49477 8.61695 0.761545 4.64348 26.1334
3226063 4.17391 4.83846 8.52615 8.52339 0.634819 4.62581 26.0619
3226075 4.15652 4.78242 8.568 8.51403 0.549489 4.69415 26.021
3226083 4.15652 4.78242 8.568 8.51403 0.549489 4.69415 26.021
3226096 4.18261 4.86648 8.55754 8.55146 0.647786 4.62184 26.1581
3226104 4.18261 4.83846 8.48431 8.57953 0.719833 4.62495 26.0849
3226117 4.18261 4.83846 8.48431 8.57953 0.719833 4.62495 26.0849
3226130 4.1913 4.88516 8.55754 8.55146 0.656644 4.60133 26.1855
3226137 4.1913 4.88516 8.55754 8.55146 0.656644 4.60133 26.1855
3226145 4.18261 4.89451 8.55754 8.49532 0.621587 4.5785 26.13
3226156 4.17391 4.86648 8.568 8.49532 0.593683 4.61022 26.1037
3226168 4.17391 4.86648 8.568 8.49532 0.593683 4.61022 26.1037
3226175 4.13913 4.83846 8.54708 8.42983 0.560677 4.62308 25.9545
3226185 4.16522 4.86648 8.51569 8.43919 0.601038 4.57342 25.9866
3226195 4.16522 4.86648 8.51569 8.43919 0.601038 4.57342 25.9866
3226205 4.1913 4.85714 8.54708 8.46725 0.562117 4.58463 26.0628
3226217 4.17391 4.83846 8.52615 8.43919 0.55584 4.59219 25.9777
3226227 4.17391 4.83846 8.52615 8.43919 0.55584 4.59219 25.9777
3226237 4.2087 4.86648 8.63077 8.46725 0.472116 4.59793 26.1732
3226247 4.2087 4.86648 8.63077 8.46725 0.472116 4.59793 26.1732
3226257 4.2 4.82912 8.62031 8.42983 0.420493 4.61345 26.0793
3226267 4.15652 4.8478 8.58892 8.52339 0.598994 4.6568 26.1166
3226289 4.22609 4.86648 8.568 8.46725 0.516355 4.5599 26.1278
3226297 4.22609 4.86648 8.568 8.46725 0.516355 4.5599 26.1278
3226310 4.18261 4.81978 8.58892 8.4579 0.48576 4.63225 26.0492
3226318 4.17391 4.83846 8.59938 8.52339 0.56299 4.65488 26.1351
3226330 4.17391 4.83846 8.59938 8.52339 0.56299 4.65488 26.1351
3226338 4.18261 4.86648 8.57846 8.46725 0.548643 4.59667 26.0948
3226352 4.2087 4.85714 8.55754 8.48597 0.552365 4.58322 26.1093
3226358 4.2087 4.85714 8.55754 8.48597 0.552365 4.58322 26.1093
3226368 4.1913 4.8478 8.57846 8.47661 0.531387 4.6079 26.0942
3226378 4.22609 4.81978 8.59938 8.46725 0.441897 4.60743 26.1125
3226388 4.22609 4.81978 8.59938 8.46725 0.441897 4.60743 26.1125
3226398 4.2087 4.85714 8.54708 8.46725 0.545073 4.57157 26.0802
3226418 4.1913 4.8478 8.568 8.49532 0.559163 4.61119 26.1024
3226428 4.1913 4.85714 8.55754 8.46725 0.551862 4.58881 26.0732
3226439 4.1913 4.85714 8.55754 8.46725 0.551862 4.58881 26.0732
3226449 4.2087 4.85714 8.51569 8.46725 0.575849 4.55901 26.0488
3226459 4.1913 4.86648 8.50523 8.42983 0.576869 4.54583 25.9928
3226469 4.1913 4.86648 8.50523 8.42983 0.576869 4.54583 25.9928
3226479 4.1913 4.92253 8.50523 8.43919 0.638166 4.50755 26.0582
3226491 4.1913 4.92253 8.50523 8.43919 0.638166 4.50755 26.0582
3226500 4.13913 4.88516 8.51569 8.48597 0.688067 4.59774 26.026
3226509 4.2087 4.8478 8.48431 8.44854 0.580373 4.54591 25.9893
3226522 4.2087 4.8478 8.48431 8.44854 0.580373 4.54591 25.9893
3226529 4.22609 4.85714 8.50523 8.44854 0.551492 4.53425 26.037
3226539 4.1913 4.91319 8.432 8.53275 0.788888 4.52272 26.0692
3226549 4.1913 4.91319 8.432 8.53275 0.788888 4.52272 26.0692
3226559 4.23478 4.87582 8.51569 8.44854 0.550231 4.51793 26.0748
3226569 4.23478 4.87582 8.51569 8.44854 0.550231 4.51793 26.0748
3226579 4.2 4.91319 8.54708 8.51403 0.649631 4.55481 26.1743
3226592 4.22609 4.88516 8.46338 8.46725 0.636426 4.50393 26.0419
3226599 4.22609 4.88516 8.46338 8.46725 0.636426 4.50393 26.0419
3226609 4.2087 4.95055 8.40062 8.5421 0.846049 4.47293 26.102
3226619 4.2087 4.95055 8.40062 8.5421 0.846049 4.47293 26.102
3226629 4.21739 4.93187 8.45292 8.47661 0.707626 4.47506 26.0788
3226639 4.21739 4.94121 8.40062 8.57953 0.8634 4.48848 26.1387
3226649 4.21739 4.94121 8.40062 8.57953 0.8634 4.48848 26.1387
3226659 4.21739 4.94121 8.45292 8.50468 0.742427 4.4794 26.1162
3226669 4.22609 4.95989 8.40062 8.46725 0.768062 4.4227 26.0538
3226679 4.22609 4.95989 8.40062 8.46725 0.768062 4.4227 26.0538
3226689 4.23478 4.95989 8.41108 8.58888 0.861737 4.46959 26.1946
3226711 4.16522 4.90385 8.37969 8.50468 0.831887 4.51692 25.9534
3226721 4.21739 4.94121 8.39015 8.55146 0.847811 4.47296 26.1002
3226730 4.21739 4.94121 8.39015 8.55146 0.847811 4.47296 26.1002
3226740 4.1913 4.98791 8.36923 8.56081 0.946209 4.45292 26.1093
3226750 4.16522 4.99725 8.32738 8.56081 1.02249 4.44848 26.0507
3226771 4.17391 4.99725 8.37969 8.57953 0.978914 4.47069 26.1304
3226790 4.16522 4.94121 8.30646 8.57017 1.00036 4.48573 25.9831
3226803 4.17391 4.95055 8.37969 8.56081 0.918627 4.49802 26.065
3226811 4.17391 4.95055 8.37969 8.56081 0.918627 4.49802 26.065
3226821 4.17391 4.97857 8.36923 8.5421 0.937629 4.4653 26.0638
3226830 4.16522 4.95989 8.33785 8.57017 0.986239 4.48443 26.0331
3226841 4.16522 4.95989 8.33785 8.57017 0.986239 4.48443 26.0331
3226851 4.15652 4.97857 8.33785 8.57017 1.01214 4.47696 26.0431
3226872 4.17391 5.00659 8.32738 8.52339 0.987932 4.41984 26.0313
3226882 4.2 4.97857 8.36923 8.58888 0.95481 4.46473 26.1367
3226902 4.2 4.94121 8.32738 8.58888 0.962013 4.47572 26.0575
3226915 4.18261 4.95055 8.33785 8.61695 1.00338 4.49727 26.088
3226922 4.18261 4.95055 8.33785 8.61695 1.00338 4.49727 26.088
3226932 4.21739 4.94121 8.34831 8.58888 0.923896 4.47118 26.0958
3226952 4.17391 4.96923 8.39015 8.52339 0.890896 4.47317 26.0567
3226962 4.2 4.98791 8.41108 8.53275 0.870192 4.45201 26.1317
3226973 4.2 4.98791 8.41108 8.53275 0.870192 4.45201 26.1317
3226983 4.26087 4.96923 8.33785 8.55146 0.882459 4.39857 26.1194
3226993 4.16522 4.99725 8.36923 8.49532 0.92032 4.4389 26.027
3227013 4.25217 4.94121 8.36923 8.49532 0.782031 4.41584 26.0579
3227023 4.25217 4.94121 8.36923 8.49532 0.782031 4.41584 26.0579
3227033 4.18261 4.98791 8.37969 8.43919 0.831872 4.41431 25.9894
3227043 4.16522 4.95055 8.39015 8.46725 0.830117 4.47094 25.9732
3227063 4.1913 4.87582 8.33785 8.4579 0.777727 4.48246 25.8629
3227073 4.2 4.97857 8.37969 8.48597 0.849366 4.42733 26.0442
3227084 4.2 4.97857 8.37969 8.48597 0.849366 4.42733 26.0442
3227094 4.2 4.99725 8.41108 8.49532 0.844228 4.42992 26.1037
3227104 4.2087 4.90385 8.36923 8.4579 0.755423 4.46107 25.9397
3227115 4.2087 4.90385 8.36923 8.4579 0.755423 4.46107 25.9397
3227125 4.2 4.94121 8.45292 8.52339 0.776947 4.49991 26.1175
3227134 4.2 4.94121 8.45292 8.52339 0.776947 4.49991 26.1175
3227144 4.18261 4.92253 8.432 8.40176 0.683993 4.46933 25.9389
3227154 4.23478 4.98791 8.37969 8.42983 0.771418 4.3716 26.0322
3227165 4.23478 4.98791 8.37969 8.42983 0.771418 4.3716 26.0322
3227175 4.26087 5.02527 8.45292 8.43919 0.71688 4.35818 26.1783
3227185 4.26087 5.02527 8.40062 8.43919 0.768369 4.33687 26.1259
3227196 4.24348 4.94121 8.40062 8.40176 0.672331 4.39701 25.9871
3227206 4.24348 4.98791 8.432 8.47661 0.754634 4.40544 26.14
3227214 4.24348 4.98791 8.432 8.47661 0.754634 4.40544 26.14
3227226 4.2087 5.00659 8.37969 8.42047 0.805941 4.37329 26.0155
3227235 4.25217 5.00659 8.40062 8.37369 0.698629 4.33038 26.0331
3227256 4.26957 4.94121 8.40062 8.41112 0.655341 4.38138 26.0225
3227269 4.26957 4.94121 8.40062 8.41112 0.655341 4.38138 26.0225
3227276 4.21739 4.95055 8.32738 8.47661 0.849363 4.41018 25.9719
3227285 4.25217 4.97857 8.37969 8.42983 0.745514 4.36561 26.0403
3227296 4.25217 4.97857 8.37969 8.42983 0.745514 4.36561 26.0403
3227305 4.22609 4.99725 8.36923 8.38305 0.755501 4.3477 25.9756
3227315 4.28696 4.98791 8.34831 8.36434 0.689739 4.29308 25.9875
3227327 4.28696 4.98791 8.34831 8.36434 0.689739 4.29308 25.9875
3227335 4.27826 4.96923 8.432 8.39241 0.624594 4.35924 26.0719
3227346 4.27826 4.96923 8.432 8.39241 0.624594 4.35924 26.0719
3227356 4.25217 4.95989 8.39015 8.42047 0.70903 4.37996 26.0227
3227365 4.27826 4.95989 8.432 8.35498 0.580794 4.35089 26.0251
3227375 4.27826 4.95989 8.432 8.35498 0.580794 4.35089 26.0251
3227386 4.26087 5.04396 8.44246 8.41112 0.718454 4.32868 26.1584
3227406 4.30435 4.97857 8.39015 8.42047 0.675017 4.32734 26.0935
3227407 4.30435 4.97857 8.39015 8.42047 0.675017 4.32734 26.0935
3227418 4.28696 4.99725 8.36923 8.39241 0.70402 4.30631 26.0458
3227437 4.28696 5.01593 8.34831 8.37369 0.724655 4.27616 26.0249
3227448 4.33913 5.03462 8.32738 8.35498 0.693774 4.20743 26.0561
3227457 4.33913 5.03462 8.32738 8.35498 0.693774 4.20743 26.0561
3227467 4.27826 5.03462 8.37969 8.44854 0.789183 4.31238 26.1411
3227477 4.30435 5.07198 8.37969 8.42983 0.780734 4.25794 26.1858
3227487 4.30435 5.07198 8.37969 8.42983 0.780734 4.25794 26.1858
3227497 4.32174 5.10934 8.28554 8.37369 0.839159 4.15565 26.0903
3227507 4.32174 5.10934 8.28554 8.37369 0.839159 4.15565 26.0903
3227518 4.26957 5.03462 8.35877 8.39241 0.766337 4.28722 26.0554
3227531 4.24348 5.07198 8.31692 8.41112 0.885722 4.26935 26.0435
3227539 4.24348 5.07198 8.31692 8.41112 0.885722 4.26935 26.0435
3227548 4.29565 5.00659 8.27508 8.34562 0.753665 4.23473 25.9229
3227560 4.26957 5.04396 8.27508 8.40176 0.866738 4.24964 25.9904
3227579 4.31304 5.10934 8.20185 8.29884 0.86149 4.09576 25.9231
3227589 4.29565 5.08132 8.24369 8.32691 0.837159 4.15856 25.9476
3227599 4.29565 5.08132 8.24369 8.32691 0.837159 4.15856 25.9476
3227609 4.33043 5.08132 8.22277 8.40176 0.892869 4.15542 26.0363
3227620 4.33043 5.08132 8.22277 8.40176 0.892869 4.15542 26.0363
3227629 4.28696 5.02527 8.31692 8.37369 0.764427 4.2563 26.0028
3227641 4.30435 5.13736 8.34831 8.32691 0.776908 4.15449 26.1169
3227649 4.30435 5.13736 8.34831 8.32691 0.776908 4.15449 26.1169
3227662 4.30435 5.04396 8.26462 8.38305 0.82517 4.21182 25.996
3227669 4.29565 5.12802 8.24369 8.38305 0.932544 4.14757 26.0504
3227679 4.29565 5.12802 8.24369 8.38305 0.932544 4.14757 26.0504
3227689 4.30435 5.12802 8.27508 8.35498 0.866744 4.14257 26.0624
3227699 4.30435 5.12802 8.27508 8.35498 0.866744 4.14257 26.0624
3227709 4.29565 5.11868 8.20185 8.34562 0.930989 4.12133 25.9618
3227720 4.35652 5.17473 8.17046 8.29884 0.91016 4.00264 26.0006
3227729 4.35652 5.17473 8.17046 8.29884 0.91016 4.00264 26.0006
3227740 4.34783 5.19341 8.19138 8.32691 0.94122 4.01604 26.0595
3227750 4.34783 5.20275 8.14954 8.28949 0.956988 3.9757 25.9896
3227764 4.34783 5.20275 8.14954 8.28949 0.956988 3.9757 25.9896
3227771 4.33043 5.25879 8.20185 8.3082 0.99113 3.97759 26.0993
3227791 4.32174 5.20275 8.19138 8.32691 0.975835 4.02826 26.0428
3227801 4.35652 5.18407 8.16 8.28949 0.920573 3.98743 25.9901
3227810 4.35652 5.18407 8.16 8.28949 0.920573 3.98743 25.9901
3227820 4.34783 5.24011 8.12862 8.29884 1.02104 3.94354 26.0154
3227831 4.34783 5.20275 8.13908 8.24271 0.92409 3.95136 25.9324
3227840 4.34783 5.20275 8.13908 8.24271 0.92409 3.95136 25.9324
3227852 4.33043 5.24945 8.21231 8.32691 0.989333 3.99669 26.1191
3227860 4.33043 5.24945 8.21231 8.32691 0.989333 3.99669 26.1191
3227870 4.34783 5.18407 8.22277 8.27078 0.849405 4.01241 26.0254
3227880 4.38261 5.17473 8.16 8.33627 0.929222 3.99499 26.0536
3227902 4.29565 5.24011 8.21231 8.25206 0.946355 3.99725 26.0001
3227912 4.33043 5.24945 8.19138 8.24271 0.932518 3.95223 26.014
3227922 4.33043 5.24945 8.19138 8.24271 0.932518 3.95223 26.014
3227932 4.34783 5.20275 8.20185 8.25206 0.870177 3.98201 26.0045
3227942 4.34783 5.20275 8.20185 8.25206 0.870177 3.98201 26.0045
3227953 4.30435 5.26813 8.23323 8.25206 0.942728 3.97932 26.0578
3227962 4.34783 5.27747 8.20185 8.26142 0.947943 3.93159 26.0886
3227982 4.36522 5.26813 8.11815 8.31756 1.05711 3.91404 26.0691
3227995 4.34783 5.26813 8.13908 8.26142 1.00191 3.91168 26.0165
3228017 4.33913 5.30549 8.14954 8.3082 1.07751 3.91523 26.1024
3228025 4.33913 5.30549 8.14954 8.3082 1.07751 3.91523 26.1024
3228036 4.34783 5.26813 8.10769 8.224 0.99875 3.88228 25.9476
3228047 4.31304 5.28681 8.11815 8.23335 1.04904 3.90248 25.9514
3228063 4.4087 5.26813 8.01354 8.18657 0.997481 3.78133 25.8769
3228073 4.33043 5.27747 8.01354 8.21464 1.11099 3.84362 25.8361
3228083 4.33043 5.27747 8.01354 8.21464 1.11099 3.84362 25.8361
3228093 4.38261 5.29615 8.03446 8.19593 1.03729 3.79304 25.9092
3228103 4.38261 5.29615 8.03446 8.19593 1.03729 3.79304 25.9092
3228113 4.3913 5.28681 7.99262 8.13043 1.00124 3.74689 25.8012
3228124 4.4 5.32418 8.11815 8.20528 0.970629 3.8003 26.0476
3228133 4.4 5.32418 8.11815 8.20528 0.970629 3.8003 26.0476
3228145 4.44348 5.33352 8.08677 8.16786 0.93264 3.73255 26.0316
3228156 4.46957 5.29615 8.06585 8.19593 0.918904 3.74377 26.0275
3228165 4.46957 5.29615 8.06585 8.19593 0.918904 3.74377 26.0275
3228173 4.44348 5.3989 8.07631 8.224 1.05489 3.70539 26.1427
3228185 4.44348 5.3989 8.07631 8.224 1.05489 3.70539 26.1427
3228193 4.46087 5.3522 8.06585 8.16786 0.953421 3.69756 26.0468
3228206 4.44348 5.38956 7.99262 8.13979 1.05261 3.63909 25.9654
3228213 4.44348 5.38956 7.99262 8.13979 1.05261 3.63909 25.9654
3228223 4.47826 5.38956 8.01354 8.10237 0.96226 3.60692 25.9837
3228233 4.47826 5.38956 8.01354 8.10237 0.96226 3.60692 25.9837
3228243 4.43478 5.38022 8.00308 8.09301 0.998965 3.63614 25.9111
3228253 4.43478 5.47363 7.97169 8.04623 1.0736 3.53473 25.9263
3228264 4.43478 5.47363 7.97169 8.04623 1.0736 3.53473 25.9263
3228274 4.49565 5.41758 7.86708 8.03687 1.05717 3.48066 25.8172
3228284 4.48696 5.50165 7.92985 8.02752 1.07181 3.45069 25.946
3228294 4.48696 5.50165 7.92985 8.02752 1.07181 3.45069 25.946
3228304 4.52174 5.51099 7.97169 8.0743 1.04669 3.45872 26.0787
3228314 4.52174 5.51099 7.97169 8.0743 1.04669 3.45872 26.0787
3228324 4.53043 5.49231 7.99262 8.0743 0.999969 3.47504 26.0897
3228334 4.48696 5.50165 7.96123 8.11172 1.11772 3.50191 26.0616
3228344 4.48696 5.50165 7.96123 8.11172 1.11772 3.50191 26.0616
3228354 4.46087 5.48297 7.96123 8.05559 1.07514 3.50895 25.9607
3228363 4.46957 5.50165 7.97169 8.00881 1.02999 3.47335 25.9517
3228374 4.46957 5.50165 7.97169 8.00881 1.02999 3.47335 25.9517
3228384 4.52174 5.50165 7.92985 8.03687 1.04553 3.43015 25.9901
3228395 4.52174 5.50165 7.92985 8.03687 1.04553 3.43015 25.9901
3228404 4.46957 5.52033 7.95077 8.0743 1.12848 3.47983 26.015
3228414 4.48696 5.50165 7.97169 8.10237 1.09867 3.5024 26.0627
3228424 4.48696 5.50165 7.97169 8.10237 1.09867 3.5024 26.0627
3228435 4.52174 5.52967 7.97169 8.06494 1.05526 3.44136 26.088
3228444 4.49565 5.49231 7.96123 8.01816 1.01434 3.46094 25.9674
3228464 4.51304 5.49231 7.94031 7.99945 1.00058 3.43094 25.9451
3228478 4.51304 5.49231 7.94031 7.99945 1.00058 3.43094 25.9451
3228484 4.46957 5.45495 7.98215 8.00881 0.976282 3.51129 25.9155
3228494 4.46957 5.52967 8.04492 8.00881 0.9826 3.48588 26.053
3228514 4.48696 5.52033 8.03446 8.01816 0.975707 3.47968 26.0599
3228524 4.48696 5.47363 8.024 8.05559 0.977582 3.52475 26.0402
3228539 4.48696 5.47363 8.024 8.05559 0.977582 3.52475 26.0402
3228545 4.47826 5.48297 8.00308 8.01816 0.981233 3.49852 25.9825
3228566 4.48696 5.46429 8.00308 7.96203 0.903174 3.48073 25.9163
3228579 4.47826 5.52967 7.98215 7.99945 1.02801 3.44774 25.9895
3228585 4.47826 5.52967 7.98215 7.99945 1.02801 3.44774 25.9895
3228596 4.47826 5.46429 7.90892 7.93396 0.980261 3.43237 25.7854
3228606 4.49565 5.47363 7.98215 7.95267 0.915387 3.4544 25.9041
3228616 4.49565 5.47363 7.98215 7.95267 0.915387 3.4544 25.9041
3228625 4.46957 5.48297 7.91938 7.9246 0.987169 3.42573 25.7965
3228638 4.46957 5.48297 7.91938 7.9246 0.987169 3.42573 25.7965
3228646 4.47826 5.46429 7.99262 7.97138 0.931031 3.48645 25.9065
3228660 4.49565 5.52033 8.00308 8.01816 0.998342 3.45962 26.0372
3228665 4.49565 5.52033 8.00308 8.01816 0.998342 3.45962 26.0372
3228685 4.57391 5.56703 7.91938 7.90589 0.943172 3.28369 25.9662
3228693 4.53043 5.56703 7.96123 7.97138 1.00533 3.36254 26.0301
3228701 4.53043 5.56703 7.96123 7.97138 1.00533 3.36254 26.0301
3228707 4.55652 5.47363 7.99262 7.97138 0.861609 3.42415 25.9941
3228717 4.55652 5.47363 7.99262 7.97138 0.861609 3.42415 25.9941
3228727 4.51304 5.51099 7.90892 7.89653 0.953907 3.35746 25.8295
3228737 4.52174 5.56703 7.97169 7.9246 0.960365 3.35242 25.9851
3228747 4.52174 5.56703 7.97169 7.9246 0.960365 3.35242 25.9851
3228757 4.58261 5.56703 7.96123 7.93396 0.918752 3.30903 26.0448
3228767 4.56522 5.53901 7.92985 7.8404 0.854456 3.28471 25.8745
3228777 4.56522 5.53901 7.92985 7.8404 0.854456 3.28471 25.8745
3228788 4.53043 5.52033 8.00308 7.90589 0.859702 3.38497 25.9597
3228809 4.56522 5.56703 7.98215 7.83104 0.819704 3.28436 25.9454
3228818 4.6087 5.52033 7.96123 7.89653 0.814778 3.30672 25.9868
3228838 4.57391 5.55769 7.96123 7.84975 0.840607 3.28382 25.9426
3228849 4.58261 5.57637 7.94031 7.7749 0.800374 3.2211 25.8742
3228858 4.58261 5.57637 7.94031 7.7749 0.800374 3.2211 25.8742
3228871 4.6 5.58571 7.90892 7.82168 0.866705 3.2093 25.9163
3228878 4.6 5.58571 7.90892 7.82168 0.866705 3.2093 25.9163
3228892 4.56522 5.54835 7.94031 7.82168 0.835258 3.27438 25.8756
3228899 4.61739 5.66978 7.99262 7.8404 0.861564 3.1848 26.1202
3228909 4.61739 5.66978 7.99262 7.8404 0.861564 3.1848 26.1202
3228919 4.6 5.62308 7.94031 7.72812 0.782973 3.15471 25.8915
3228929 4.6087 5.6511 7.92985 7.73748 0.819641 3.1285 25.9271
3228940 4.6087 5.6511 7.92985 7.73748 0.819641 3.1285 25.9271
3228949 4.68696 5.66978 7.91938 7.76555 0.795826 3.06904 26.0417
3228959 4.68696 5.66978 7.91938 7.76555 0.795826 3.06904 26.0417
3228969 4.61739 5.64176 7.84615 7.78426 0.929403 3.11202 25.8896
3228979 4.58261 5.66978 7.83569 7.74684 0.966051 3.09473 25.8349
3229000 4.63478 5.76319 7.91938 7.78426 0.951359 3.04905 26.1016
3229009 4.63478 5.62308 7.87754 7.8404 0.91542 3.15298 25.9758
3229029 4.66957 5.68846 7.888 7.84975 0.939471 3.0923 26.0958
3229049 4.61739 5.66044 7.90892 7.78426 0.88405 3.12773 25.971
3229059 4.65217 5.63242 7.85662 7.79362 0.884181 3.10334 25.9348
3229070 4.65217 5.63242 7.85662 7.79362 0.884181 3.10334 25.9348
3229080 4.61739 5.70714 7.85662 7.76555 0.962245 3.0626 25.9467
3229091 4.58261 5.70714 7.77292 7.7749 1.09 3.05257 25.8376
3229110 4.5913 5.72582 7.888 7.80297 1.00881 3.09933 26.0081
3229120 4.5913 5.72582 7.888 7.80297 1.00881 3.09933 26.0081
3229131 4.55652 5.68846 7.81477 7.78426 1.06546 3.10752 25.844
3229140 4.6087 5.67912 7.83569 7.79362 0.991958 3.09149 25.9171
3229160 4.63478 5.6978 7.87754 7.82168 0.967243 3.09235 26.0318
3229174 4.58261 5.71648 7.85662 7.7749 1.0144 3.08463 25.9306
3229181 4.58261 5.71648 7.85662 7.7749 1.0144 3.08463 25.9306
3229190 4.6087 5.66978 7.86708 7.8404 0.995156 3.13381 25.986
3229200 4.6087 5.66978 7.86708 7.8404 0.995156 3.13381 25.986
3229213 4.62609 5.71648 7.87754 7.86846 1.0362 3.10678 26.0886
3229221 4.6 5.66044 7.90892 7.88718 0.996578 3.18672 26.0565
3229230 4.6 5.66044 7.90892 7.88718 0.996578 3.18672 26.0565
3229242 4.5913 5.72582 7.85662 7.7749 1.01432 3.07206 25.9486
3229252 4.56522 5.68846 7.888 7.79362 0.991756 3.13931 25.9353
3229262 4.56522 5.68846 7.888 7.79362 0.991756 3.13931 25.9353
3229272 4.6 5.67912 7.85662 7.82168 1.00568 3.12002 25.9574
3229286 4.6 5.67912 7.85662 7.82168 1.00568 3.12002 25.9574
3229292 4.5913 5.61374 7.90892 7.8404 0.918826 3.20425 25.9544
3229302 4.5913 5.62308 7.92985 7.84975 0.915289 3.21144 25.994
3229319 4.5913 5.62308 7.92985 7.84975 0.915289 3.21144 25.994
3229328 4.58261 5.66044 7.84615 7.8404 1.03364 3.14901 25.9296
3229337 4.61739 5.64176 7.84615 7.86846 1.00744 3.15057 25.9738
3229342 4.61739 5.64176 7.84615 7.86846 1.00744 3.15057 25.9738
3229352 4.61739 5.6511 7.86708 7.89653 1.02101 3.16635 26.0321
3229362 4.61739 5.6511 7.86708 7.89653 1.02101 3.16635 26.0321
3229373 4.58261 5.59506 7.87754 7.84975 0.950262 3.21345 25.905
3229382 4.57391 5.58571 7.84615 7.86846 0.999174 3.22038 25.8742
3229396 4.57391 5.58571 7.84615 7.86846 0.999174 3.22038 25.8742
3229402 4.5913 5.62308 7.85662 7.82168 0.962475 3.16532 25.8927
3229412 4.62609 5.62308 7.83569 7.8404 0.965941 3.13994 25.9253
3229433 4.5913 5.66044 7.84615 7.84975 1.03356 3.1472 25.9476
3229445 4.5913 5.66044 7.84615 7.84975 1.03356 3.1472 25.9476
3229453 4.58261 5.66978 7.888 7.81233 0.974366 3.14877 25.9527
3229463 4.5913 5.64176 7.90892 7.83104 0.936136 3.18036 25.973
3229473 4.5913 5.64176 7.90892 7.83104 0.936136 3.18036 25.973
3229483 4.66087 5.70714 7.87754 7.87782 1.00155 3.09341 26.1234
3229493 4.65217 5.6978 7.94031 7.79362 0.861582 3.09613 26.0839
3229503 4.65217 5.6978 7.94031 7.79362 0.861582 3.09613 26.0839
3229513 4.6 5.6511 7.85662 7.83104 0.988409 3.14388 25.9388
3229525 4.6 5.6511 7.85662 7.83104 0.988409 3.14388 25.9388
3229533 4.63478 5.66044 7.80431 7.86846 1.04919 3.10626 25.968
3229546 4.58261 5.72582 7.83569 7.74684 1.01807 3.05556 25.891
3229553 4.58261 5.72582 7.83569 7.74684 1.01807 3.05556 25.891
3229566 4.63478 5.70714 7.80431 7.80297 1.03185 3.04365 25.9492
3229583 4.6087 5.62308 7.80431 7.75619 0.936586 3.09903 25.7923
3229593 4.62609 5.66044 7.81477 7.75619 0.943419 3.06552 25.8575
3229608 4.62609 5.66044 7.81477 7.75619 0.943419 3.06552 25.8575
3229614 4.61739 5.63242 7.81477 7.79362 0.960886 3.10844 25.8582
3229629 4.6 5.66044 7.79385 7.8404 1.06874 3.11288 25.8947
3229634 4.6 5.66044 7.79385 7.8404 1.06874 3.11288 25.8947
3229644 4.69565 5.64176 7.90892 7.79362 0.79762 3.09052 26.0399
3229656 4.6087 5.67912 7.84615 7.8404 1.02473 3.11773 25.9744
3229665 4.6087 5.67912 7.84615 7.8404 1.02473 3.11773 25.9744
3229676 4.69565 5.71648 7.83569 7.80297 0.948253 3.00942 26.0508
3229695 4.66957 5.66044 7.79385 7.76555 0.929505 3.02984 25.8894
3229706 4.67826 5.68846 7.87754 7.7749 0.872016 3.04721 26.0192
3229727 4.69565 5.77253 7.85662 7.73748 0.918701 2.95019 26.0623
3229738 4.71304 5.73516 7.81477 7.79362 0.960377 2.97056 26.0566
3229758 4.66087 5.79121 7.888 7.7749 0.973812 2.99301 26.115
3229768 4.66957 5.75385 7.74154 7.73748 1.04259 2.92768 25.9024
3229778 4.66957 5.75385 7.74154 7.73748 1.04259 2.92768 25.9024
3229788 4.71304 5.74451 7.752 7.75619 0.997135 2.91768 25.9657
3229808 4.63478 5.6978 7.74154 7.83104 1.11225 3.03414 25.9052
3229818 4.67826 5.70714 7.82523 7.80297 0.967401 3.02311 26.0136
3229828 4.67826 5.70714 7.82523 7.80297 0.967401 3.02311 26.0136
3229838 4.64348 5.76319 7.72062 7.7749 1.13311 2.94696 25.9022
3229848 4.6087 5.76319 7.752 7.7749 1.13654 2.98567 25.8988
3229859 4.6087 5.75385 7.752 7.78426 1.13655 2.9965 25.8988
3229868 4.5913 5.77253 7.77292 7.79362 1.15879 3.00962 25.9304
3229888 4.5913 5.74451 7.80431 7.74684 1.05819 3.02198 25.887
3229899 4.66087 5.72582 7.69969 7.81233 1.13673 2.96848 25.8987
3229919 4.66087 5.71648 7.752 7.80297 1.0668 2.99488 25.9323
3229929 4.63478 5.68846 7.74154 7.81233 1.08635 3.032 25.8771
3229955 4.5913 5.73516 7.78338 7.85911 1.17408 3.0706 25.969
3229964 4.5913 5.73516 7.78338 7.85911 1.17408 3.0706 25.969
3229973 4.6087 5.75385 7.72062 7.84975 1.22845 3.01229 25.9329
3229982 4.63478 5.73516 7.73108 7.85911 1.18298 3.0163 25.9601
3229989 4.63478 5.73516 7.73108 7.85911 1.18298 3.0163 25.9601
3229999 4.64348 5.79121 7.72062 7.7749 1.1589 2.92757 25.9302
3230009 4.6087 5.75385 7.77292 7.80297 1.13268 3.01484 25.9384
3230019 4.6087 5.75385 7.77292 7.80297 1.13268 3.01484 25.9384
3230029 4.66087 5.6978 7.81477 7.90589 1.08137 3.08404 26.0793
3230049 4.5913 5.68846 7.82523 7.87782 1.10626 3.13089 25.9828
3230059 4.5913 5.72582 7.78338 7.8404 1.14831 3.0685 25.9409
3230070 4.5913 5.72582 7.78338 7.8404 1.14831 3.0685 25.9409
3230080 4.61739 5.72582 7.84615 7.83104 1.05045 3.07488 26.0204
3230091 4.6087 5.6978 7.77292 7.8404 1.11554 3.0711 25.9198
3230101 4.6087 5.6978 7.77292 7.8404 1.11554 3.0711 25.9198
3230121 4.63478 5.66044 7.81477 7.85911 1.03007 3.10676 25.9691
3230131 4.6087 5.64176 7.84615 7.81233 0.964183 3.13098 25.9089
3230140 4.6087 5.64176 7.83569 7.83104 0.992018 3.13476 25.9172
3230152 4.6087 5.64176 7.83569 7.83104 0.992018 3.13476 25.9172
3230162 4.56522 5.74451 7.81477 7.89653 1.21157 3.11378 26.021
3230175 4.63478 5.64176 7.85662 7.84975 0.962278 3.13465 25.9829
3230182 4.63478 5.64176 7.85662 7.84975 0.962278 3.13465 25.9829
3230195 4.5913 5.70714 7.85662 7.85911 1.07473 3.12365 26.0142
3230202 4.5913 5.70714 7.85662 7.85911 1.07473 3.12365 26.0142
3230215 4.58261 5.64176 7.87754 7.8404 0.984883 3.17641 25.9423
3230222 4.54783 5.63242 7.91938 7.84975 0.977826 3.23065 25.9494
3230232 4.54783 5.63242 7.91938 7.84975 0.977826 3.23065 25.9494
3230242 4.5913 5.6511 7.78338 7.85911 1.0967 3.12929 25.8849
3230262 4.58261 5.6978 7.89846 7.82168 0.998455 3.13824 26.0006
3230272 4.58261 5.6511 7.79385 7.87782 1.11219 3.14874 25.9054
3230282 4.58261 5.6511 7.79385 7.87782 1.11219 3.14874 25.9054
3230292 4.58261 5.59506 7.87754 7.82168 0.924176 3.20067 25.8769
3230302 4.53043 5.61374 7.87754 7.83104 1.00261 3.22852 25.8527
3230312 4.53043 5.61374 7.87754 7.83104 1.00261 3.22852 25.8527
3230322 4.6087 5.6511 7.85662 7.85911 1.00566 3.15062 25.9755
3230332 4.6087 5.6511 7.85662 7.85911 1.00566 3.15062 25.9755
3230343 4.55652 5.56703 7.86708 7.91525 1.02166 3.27653 25.9059
3230354 4.53913 5.57637 8.024 7.94331 0.916845 3.36532 26.0828
3230365 4.53913 5.57637 8.024 7.94331 0.916845 3.36532 26.0828
3230372 4.6087 5.57637 7.97169 7.91525 0.873765 3.28045 26.072
3230387 4.53913 5.61374 7.888 7.91525 1.06126 3.26535 25.9561
3230393 4.53913 5.61374 7.888 7.91525 1.06126 3.26535 25.9561
3230403 4.53043 5.54835 7.90892 7.91525 0.988534 3.32706 25.903
3230413 4.50435 5.55769 7.95077 7.93396 0.998712 3.36613 25.9468
3230423 4.50435 5.55769 7.95077 7.93396 0.998712 3.36613 25.9468
3230433 4.52174 5.58571 7.99262 7.95267 0.982651 3.36116 26.0527
3230453 4.52174 5.57637 7.94031 7.93396 1.00904 3.33594 25.9724
3230464 4.55652 5.56703 7.87754 7.97138 1.063 3.3066 25.9725
3230483 4.53913 5.56703 7.89846 7.88718 0.981602 3.29031 25.8918
3230494 4.57391 5.55769 7.90892 7.88718 0.927612 3.27709 25.9277
3230504 4.57391 5.55769 7.90892 7.88718 0.927612 3.27709 25.9277
3230515 4.54783 5.57637 7.99262 7.99009 0.982523 3.36607 26.1069
3230534 4.53913 5.57637 7.94031 7.97138 1.02616 3.34046 26.0272
3230544 4.53043 5.56703 7.90892 7.94331 1.03179 3.32649 25.9497
3230557 4.53043 5.56703 7.90892 7.94331 1.03179 3.32649 25.9497
3230565 4.6 5.61374 7.94031 7.96203 0.991204 3.2673 26.1161
3230577 4.56522 5.57637 7.91938 7.9246 0.977823 3.29167 25.9856
3230604 4.57391 5.57637 7.96123 7.9246 0.927395 3.30438 26.0361
3230606 4.57391 5.57637 7.96123 7.9246 0.927395 3.30438 26.0361
3230617 4.53913 5.54835 7.90892 7.86846 0.936368 3.29979 25.8649
3230627 4.53913 5.57637 7.91938 7.9246 1.00393 3.31005 25.9595
3230637 4.53913 5.57637 7.91938 7.9246 1.00393 3.31005 25.9595
3230647 4.51304 5.52967 7.95077 7.82168 0.859517 3.32929 25.8152
3230657 4.58261 5.54835 7.96123 7.88718 0.858071 3.30115 25.9794
3230677 4.57391 5.56703 7.98215 7.91525 0.889274 3.31614 26.0383
3230697 4.52174 5.6044 7.89846 7.86846 1.01635 3.26774 25.8931
3230707 4.54783 5.55769 8.04492 7.91525 0.844204 3.36917 26.0657
3230718 4.54783 5.55769 8.04492 7.91525 0.844204 3.36917 26.0657
3230728 4.55652 5.58571 8.00308 7.88718 0.87707 3.31202 26.0325
3230739 4.6 5.52967 8.00308 7.88718 0.781873 3.32087 26.0199
3230748 4.6 5.52967 8.00308 7.88718 0.781873 3.32087 26.0199
3230758 4.61739 5.61374 7.98215 7.81233 0.793949 3.20647 26.0256
3230768 4.53043 5.4456 7.99262 7.93396 0.826666 3.44591 25.9026
3230778 4.53043 5.4456 7.99262 7.93396 0.826666 3.44591 25.9026
3230789 4.57391 5.52967 8.00308 7.93396 0.851208 3.3602 26.0406
3230798 4.57391 5.52967 8.00308 7.93396 0.851208 3.3602 26.0406
3230810 4.58261 5.56703 8.03446 7.84975 0.767958 3.30411 26.0339
3230818 4.57391 5.56703 7.99262 7.95267 0.913486 3.33759 26.0862
3230838 4.5913 5.55769 7.90892 7.91525 0.936267 3.27752 25.9732
3230848 4.57391 5.55769 7.95077 7.91525 0.911868 3.30862 25.9976
3230858 4.57391 5.46429 7.95077 7.91525 0.825009 3.37463 25.9042
3230873 4.55652 5.53901 8.04492 7.90589 0.809571 3.37203 26.0463
3230880 4.55652 5.53901 8.04492 7.90589 0.809571 3.37203 26.0463
3230889 4.51304 5.54835 8.024 7.9246 0.899568 3.39516 26.01
3230899 4.53043 5.49231 8.00308 7.91525 0.842336 3.40902 25.9411
3230909 4.53043 5.49231 8.00308 7.91525 0.842336 3.40902 25.9411
3230919 4.57391 5.54835 8.00308 7.95267 0.885832 3.3554 26.078
3230929 4.57391 5.54835 7.91938 7.90589 0.925851 3.29685 25.9475
3230949 4.6 5.53901 7.94031 7.89653 0.861603 3.29026 25.9759
3230970 4.56522 5.53901 7.89846 7.93396 0.972843 3.3128 25.9366
3230981 4.53913 5.53901 8.01354 7.9246 0.87536 3.37865 26.0163
3231001 4.54783 5.52033 7.90892 7.91525 0.945094 3.33459 25.8923
3231011 4.58261 5.52033 7.89846 7.94331 0.946793 3.31792 25.9447
3231022 4.58261 5.52033 7.89846 7.94331 0.946793 3.31792 25.9447
3231030 4.5913 5.53901 7.91938 7.91525 0.9085 3.29539 25.9649
3231051 4.55652 5.56703 7.89846 7.93396 1.00749 3.29916 25.956
3231061 4.58261 5.53901 7.96123 7.90589 0.86678 3.31615 25.9887
3231081 4.63478 5.6511 7.90892 7.90589 0.970548 3.17746 26.1007
3231092 4.57391 5.62308 7.98215 7.93396 0.958297 3.2852 26.1131
3231102 4.57391 5.62308 7.98215 7.93396 0.958297 3.2852 26.1131
3231112 4.6087 5.6044 7.86708 7.85911 0.951967 3.18808 25.9393
3231122 4.6087 5.6044 7.86708 7.85911 0.951967 3.18808 25.9393
3231132 4.56522 5.59506 7.92985 7.86846 0.932693 3.2579 25.9586
3231142 4.58261 5.58571 7.89846 7.83104 0.903249 3.22103 25.8978
3231153 4.58261 5.58571 7.89846 7.83104 0.903249 3.22103 25.8978
3231165 4.6087 5.6511 7.82523 7.88718 1.06301 3.1491 25.9722
3231173 4.61739 5.56703 7.87754 7.87782 0.915506 3.22146 25.9398
3231193 4.63478 5.57637 7.87754 7.87782 0.906813 3.2027 25.9665
3231208 4.63478 5.57637 7.87754 7.87782 0.906813 3.2027 25.9665
3231213 4.64348 5.59506 7.82523 7.86846 0.959051 3.15543 25.9322
3231223 4.56522 5.64176 7.89846 7.88718 1.02457 3.21937 25.9926
3231234 4.56522 5.64176 7.89846 7.88718 1.02457 3.21937 25.9926
3231254 4.65217 5.6044 7.89846 7.87782 0.894621 3.18043 26.0329
3231254 4.64348 5.67912 7.87754 7.86846 0.984487 3.12065 26.0686
3231264 4.64348 5.67912 7.87754 7.86846 0.984487 3.12065 26.0686
3231277 4.6087 5.6978 7.85662 7.88718 1.07453 3.13084 26.0503
3231284 4.66087 5.6978 7.888 7.83104 0.939474 3.0833 26.0777
3231297 4.66087 5.66978 7.888 7.83104 0.91359 3.10276 26.0497
3231306 4.63478 5.63242 7.81477 7.8404 0.986853 3.11775 25.9224
3231319 4.63478 5.63242 7.81477 7.8404 0.986853 3.11775 25.9224
3231325 4.63478 5.68846 7.80431 7.81233 1.02323 3.06096 25.9399
3231335 4.6087 5.6978 7.80431 7.83104 1.07533 3.08123 25.9418
3231355 4.69565 5.63242 7.84615 7.75619 0.81642 3.05102 25.9304
3231365 4.63478 5.6978 7.80431 7.7749 0.997242 3.0372 25.9118
3231377 4.63478 5.6978 7.80431 7.7749 0.997242 3.0372 25.9118
3231387 4.69565 5.67912 7.81477 7.7749 0.908554 3.01271 25.9644
3231408 4.64348 5.70714 7.82523 7.79362 0.993523 3.04294 25.9695
3231417 4.64348 5.71648 7.73108 7.75619 1.06212 2.97554 25.8472
3231427 4.64348 5.71648 7.73108 7.75619 1.06212 2.97554 25.8472
3231437 4.66087 5.72582 7.78338 7.70941 0.957304 2.95955 25.8795
3231447 4.64348 5.75385 7.76246 7.76555 1.07371 2.96853 25.9253
3231457 4.64348 5.75385 7.76246 7.76555 1.07371 2.96853 25.9253
3231467 4.73043 5.80055 7.72062 7.75619 1.06285 2.8525 26.0078
3231477 4.73043 5.80055 7.72062 7.75619 1.06285 2.8525 26.0078
3231487 4.68696 5.72582 7.74154 7.71877 0.981808 2.92632 25.8731
3231497 4.72174 5.73516 7.73108 7.78426 1.02668 2.92145 25.9722
3231508 4.72174 5.73516 7.73108 7.78426 1.02668 2.92145 25.9722
3231518 4.73043 5.78187 7.66831 7.76555 1.10678 2.84525 25.9462
3231528 4.67826 5.79121 7.72062 7.74684 1.09802 2.89046 25.9369
3231538 4.67826 5.79121 7.72062 7.74684 1.09802 2.89046 25.9369
3231549 4.66957 5.80055 7.752 7.71877 1.05793 2.89157 25.9409
3231568 4.70435 5.74451 7.71015 7.70006 0.995842 2.87792 25.8591
3231578 4.66957 5.73516 7.72062 7.70941 1.02033 2.91775 25.8348
3231588 4.66957 5.73516 7.72062 7.70941 1.02033 2.91775 25.8348
3231598 4.68696 5.80055 7.74154 7.74684 1.07685 2.88779 25.9759
3231609 4.67826 5.76319 7.66831 7.74684 1.12491 2.88535 25.8566
3231618 4.67826 5.76319 7.66831 7.74684 1.12491 2.88535 25.8566
3231631 4.70435 5.79121 7.74154 7.72812 1.03354 2.87352 25.9652
3231648 4.68696 5.79121 7.69969 7.72812 1.09307 2.86593 25.906
3231658 4.66957 5.80989 7.76246 7.76555 1.09912 2.91179 26.0075
3231673 4.66957 5.80989 7.76246 7.76555 1.09912 2.91179 26.0075
3231679 4.70435 5.76319 7.71015 7.7749 1.08235 2.90001 25.9526
3231689 4.68696 5.76319 7.81477 7.68134 0.908419 2.91717 25.9463
3231699 4.68696 5.76319 7.81477 7.68134 0.908419 2.91717 25.9463
3231712 4.75652 5.80055 7.77292 7.74684 0.975904 2.85465 26.0768
3231719 4.75652 5.80055 7.77292 7.74684 0.975904 2.85465 26.0768
3231729 4.64348 5.80989 7.72062 7.67199 1.0812 2.86654 25.846
3231741 4.73913 5.73516 7.77292 7.70941 0.898156 2.89408 25.9566
3231750 4.73913 5.73516 7.77292 7.70941 0.898156 2.89408 25.9566
3231761 4.66087 5.6978 7.77292 7.6907 0.924307 2.96543 25.8223
3231770 4.67826 5.77253 7.73108 7.71877 1.04433 2.89514 25.9006
3231780 4.67826 5.77253 7.73108 7.71877 1.04433 2.89514 25.9006
3231790 4.73043 5.80989 7.79385 7.73748 0.981033 2.87151 26.0717
3231811 4.65217 5.76319 7.78338 7.6907 0.983343 2.93096 25.8894
3231823 4.68696 5.78187 7.79385 7.65327 0.920612 2.88141 25.9159
3231831 4.68696 5.78187 7.79385 7.65327 0.920612 2.88141 25.9159
3231841 4.62609 5.77253 7.83569 7.70941 0.98305 2.97557 25.9437
3231850 4.69565 5.76319 7.76246 7.67199 0.943351 2.88237 25.8933
3231879 4.73913 5.78187 7.81477 7.72812 0.917065 2.89014 26.0639
3231880 4.73913 5.78187 7.81477 7.72812 0.917065 2.89014 26.0639
3231894 4.66087 5.73516 7.79385 7.73748 0.981519 2.97097 25.9274
3231903 4.67826 5.78187 7.71015 7.65327 1.01335 2.84816 25.8236
3231922 4.65217 5.74451 7.74154 7.70006 1.01676 2.92875 25.8383
3231933 4.77391 5.80055 7.80431 7.68134 0.866911 2.82684 26.0601
3231942 4.77391 5.80055 7.80431 7.68134 0.866911 2.82684 26.0601
3231953 4.67826 5.78187 7.71015 7.6907 1.04806 2.86574 25.861
3231962 4.67826 5.78187 7.71015 7.6907 1.04806 2.86574 25.861
3231976 4.62609 5.81923 7.81477 7.6907 1.0299 2.92485 25.9508
3231982 4.66957 5.77253 7.80431 7.70941 0.970945 2.93092 25.9558
3231992 4.66957 5.77253 7.80431 7.70941 0.970945 2.93092 25.9558
3232002 4.67826 5.73516 7.752 7.70941 0.980023 2.92639 25.8748
3232012 4.71304 5.76319 7.81477 7.70006 0.899759 2.90788 25.9911
3232022 4.71304 5.76319 7.81477 7.70006 0.899759 2.90788 25.9911
3232034 4.74783 5.77253 7.752 7.81233 1.03991 2.90054 26.0847
3232042 4.74783 5.77253 7.752 7.81233 1.03991 2.90054 26.0847
3232052 4.64348 5.67912 7.84615 7.75619 0.911942 3.05483 25.9249
3232063 4.65217 5.80989 7.79385 7.70006 1.02474 2.90791 25.956
3232073 4.65217 5.80989 7.79385 7.70006 1.02474 2.90791 25.956
3232083 4.67826 5.73516 7.73108 7.70941 1.00105 2.91661 25.8539
3232093 4.73043 5.75385 7.80431 7.73748 0.918868 2.91487 26.0261
3232103 4.73043 5.75385 7.80431 7.73748 0.918868 2.91487 26.0261
3232113 4.68696 5.80989 7.77292 7.74684 1.05399 2.89598 26.0166
3232123 4.68696 5.80989 7.77292 7.74684 1.05399 2.89598 26.0166
3232133 4.62609 5.78187 7.76246 7.75619 1.10843 2.95683 25.9266
3232144 4.65217 5.73516 7.87754 7.81233 0.975737 3.05009 26.0772
3232153 4.65217 5.73516 7.87754 7.81233 0.975737 3.05009 26.0772
3232167 4.64348 5.70714 7.84615 7.83104 1.00714 3.06974 26.0278
3232173 4.67826 5.70714 7.78338 7.83104 1.03514 3.01676 25.9998
3232183 4.67826 5.70714 7.78338 7.83104 1.03514 3.01676 25.9998
3232193 4.64348 5.72582 7.84615 7.80297 0.998488 3.04389 26.0184
3232203 4.64348 5.72582 7.84615 7.80297 0.998488 3.04389 26.0184
3232215 4.62609 5.71648 7.86708 7.76555 0.95174 3.05487 25.9752
3232223 4.62609 5.70714 7.83569 7.84975 1.05224 3.0856 26.0187
3232234 4.62609 5.70714 7.83569 7.84975 1.05224 3.0856 26.0187
3232246 4.6087 5.67912 7.80431 7.81233 1.04079 3.08566 25.9045
3232256 4.5913 5.59506 7.84615 7.83104 0.955629 3.1845 25.8636
3232263 4.5913 5.59506 7.84615 7.83104 0.955629 3.1845 25.8636
3232273 4.5913 5.66044 7.86708 7.76555 0.934547 3.11822 25.8844
3232283 4.5913 5.66044 7.86708 7.76555 0.934547 3.11822 25.8844
3232293 4.5913 5.63242 7.89846 7.80297 0.91188 3.16934 25.9252
3232303 4.62609 5.6511 7.888 7.88718 0.982815 3.16554 26.0524
3232313 4.62609 5.6511 7.888 7.88718 0.982815 3.16554 26.0524
3232323 4.68696 5.66978 7.87754 7.84975 0.915349 3.08842 26.084
3232333 4.6 5.66978 7.91938 7.89653 1.00335 3.18918 26.0857
3232345 4.6 5.6044 7.91938 7.89653 0.943056 3.23489 26.0203
3232354 4.6087 5.66044 7.92985 7.91525 0.992891 3.20283 26.1142
3232364 4.6087 5.66044 7.92985 7.91525 0.992891 3.20283 26.1142
3232374 4.54783 5.62308 7.90892 7.83104 0.962308 3.22397 25.9109
3232385 4.56522 5.6044 7.89846 7.81233 0.920624 3.21161 25.8804
3232406 4.64348 5.6978 7.94031 7.8404 0.913417 3.12348 26.122
3232425 4.64348 5.61374 7.94031 7.86846 0.861675 3.19471 26.066
3232434 4.62609 5.61374 7.91938 7.85911 0.891078 3.19314 26.0183
3232447 4.62609 5.61374 7.91938 7.85911 0.891078 3.19314 26.0183
3232454 4.63478 5.55769 7.888 7.86846 0.870338 3.21631 25.9489
3232471 4.55652 5.61374 7.888 7.88718 1.0179 3.24041 25.9454
3232474 4.55652 5.61374 7.888 7.88718 1.0179 3.24041 25.9454
3232485 4.58261 5.58571 7.91938 7.85911 0.908425 3.24327 25.9468
3232495 4.58261 5.58571 7.91938 7.85911 0.908425 3.24327 25.9468
3232504 4.61739 5.55769 7.92985 7.9246 0.898075 3.27284 26.0295
3232514 4.55652 5.57637 7.94031 7.90589 0.948292 3.29879 25.9791
3232524 4.55652 5.57637 7.94031 7.90589 0.948292 3.29879 25.9791
3232538 4.58261 5.59506 7.89846 7.90589 0.981325 3.24841 25.982
3232545 4.58261 5.58571 7.97169 7.94331 0.934243 3.3048 26.0833
3232555 4.58261 5.58571 7.97169 7.94331 0.934243 3.3048 26.0833
3232568 4.55652 5.58571 7.888 7.99945 1.09552 3.31077 26.0297
3232577 4.55652 5.58571 7.888 7.99945 1.09552 3.31077 26.0297
3232586 4.58261 5.47363 7.89846 7.94331 0.903416 3.35096 25.898
3232595 4.6 5.53901 7.98215 7.97138 0.88937 3.34263 26.0925
3232606 4.6 5.53901 7.98215 7.97138 0.88937 3.34263 26.0925
3232615 4.51304 5.56703 7.89846 7.93396 1.05112 3.32987 25.9125
3232626 4.53913 5.57637 7.95077 7.89653 0.946555 3.31154 25.9628
3232635 4.53913 5.57637 7.95077 7.89653 0.946555 3.31154 25.9628
3232646 4.56522 5.51099 7.98215 8.05559 0.975728 3.42434 26.1139
3232656 4.56522 5.51099 7.98215 8.05559 0.975728 3.42434 26.1139
3232668 4.49565 5.4456 7.94031 8.06494 1.03539 3.50567 25.9465
3232675 4.56522 5.50165 7.98215 8.0743 0.984347 3.43922 26.1233
3232688 4.56522 5.50165 7.98215 8.0743 0.984347 3.43922 26.1233
3232697 4.50435 5.50165 8.00308 8.08365 1.03274 3.49565 26.0927
3232712 4.49565 5.48297 7.92985 8.02752 1.04583 3.45779 25.936
3232733 4.50435 5.40824 7.97169 8.00881 0.908554 3.51517 25.8931
3232737 4.55652 5.43626 7.97169 8.04623 0.917199 3.47461 26.0107
3232748 4.55652 5.43626 7.97169 8.04623 0.917199 3.47461 26.0107
3232759 4.51304 5.4456 7.99262 8.08365 0.98291 3.52466 26.0349
3232768 4.51304 5.4456 7.99262 8.08365 0.98291 3.52466 26.0349
3232778 4.48696 5.38022 8.03446 7.98074 0.810918 3.56306 25.8824
3232788 4.53043 5.40824 7.94031 8.10237 1.00059 3.52407 25.9813
3232808 4.50435 5.41758 7.99262 8.08365 0.965714 3.55083 25.9982
3232821 4.48696 5.38022 7.95077 8.13043 1.03371 3.59215 25.9484
3232828 4.48696 5.38022 7.95077 8.13043 1.03371 3.59215 25.9484
3232838 4.48696 5.38022 8.03446 8.13043 0.950015 3.62882 26.0321
3232848 4.48696 5.38022 8.03446 8.13043 0.950015 3.62882 26.0321
3232858 4.51304 5.38956 7.90892 8.16786 1.09265 3.56485 25.9794
3232868 4.46957 5.38022 7.99262 8.12108 1.00056 3.61888 25.9635
3232878 4.46957 5.38022 7.99262 8.12108 1.00056 3.61888 25.9635
3232888 4.50435 5.42692 7.96123 8.12108 1.04025 3.54682 26.0136
3232899 4.46957 5.40824 7.96123 8.09301 1.03198 3.57266 25.932
3232909 4.46957 5.40824 7.96123 8.09301 1.03198 3.57266 25.932
3232919 4.46087 5.45495 7.91938 8.19593 1.22029 3.57236 26.0311
3232930 4.46087 5.45495 7.91938 8.19593 1.22029 3.57236 26.0311
3232939 4.46957 5.42692 7.96123 8.13043 1.08373 3.57577 25.9882
3232951 4.51304 5.40824 7.96123 8.12108 1.01433 3.55394 26.0036
3232959 4.51304 5.40824 7.96123 8.12108 1.01433 3.55394 26.0036
3232973 4.49565 5.4456 7.90892 8.17722 1.17016 3.54139 26.0274
3232982 4.48696 5.36154 7.96123 8.13043 1.00595 3.61014 25.9402
3232993 4.48696 5.36154 7.96123 8.13043 1.00595 3.61014 25.9402
3232999 4.44348 5.3989 7.94031 8.17722 1.14824 3.62587 25.9599
3233015 4.44348 5.3989 7.94031 8.17722 1.14824 3.62587 25.9599
3233021 4.41739 5.41758 7.97169 8.18657 1.16864 3.649 25.9932
3233030 4.48696 5.45495 7.86708 8.1585 1.21249 3.51421 25.9675
3233041 4.48696 5.45495 7.86708 8.1585 1.21249 3.51421 25.9675
3233051 4.48696 5.46429 7.90892 8.11172 1.13597 3.50537 25.9719
3233061 4.47826 5.37088 7.95077 8.13043 1.03381 3.60508 25.9303
3233081 4.49565 5.51099 7.89846 8.19593 1.25743 3.49857 26.101
3233091 4.49565 5.51099 7.89846 8.19593 1.25743 3.49857 26.101
3233102 4.44348 5.46429 7.86708 8.21464 1.31627 3.56334 25.9895
3233111 4.48696 5.46429 7.89846 8.16786 1.19797 3.52555 26.0176
3233123 4.48696 5.46429 7.89846 8.16786 1.19797 3.52555 26.0176
3233131 4.53043 5.46429 7.83569 8.11172 1.16594 3.44191 25.9421
3233150 4.47826 5.50165 7.84615 8.12108 1.25092 3.46126 25.9471
3233169 4.47826 5.50165 7.84615 8.12108 1.25092 3.46126 25.9471
3233171 4.48696 5.50165 7.95077 8.10237 1.11963 3.49316 26.0417
3233173 4.48696 5.50165 7.95077 8.10237 1.11963 3.49316 26.0417
3233182 4.48696 5.4456 7.95077 8.20528 1.16254 3.57828 26.0886
3233193 4.51304 5.47363 7.888 8.13979 1.16509 3.48332 26.0145
3233205 4.51304 5.47363 7.888 8.13979 1.16509 3.48332 26.0145
3233213 4.50435 5.43626 7.81477 8.08365 1.16181 3.45861 25.839
3233223 4.53043 5.4456 7.888 8.12108 1.10472 3.48259 25.9851
3233233 4.53043 5.4456 7.888 8.12108 1.10472 3.48259 25.9851
3233243 4.52174 5.52033 7.91938 8.11172 1.14191 3.44552 26.0732
3233253 4.53043 5.52033 7.86708 8.04623 1.12564 3.38692 25.9641
3233263 4.53043 5.43626 7.86708 8.04623 1.04809 3.44664 25.88
3233275 4.55652 5.4456 7.92985 8.09301 1.01081 3.47017 26.025
3233296 4.48696 5.45495 7.90892 8.0743 1.09292 3.49544 25.9251
3233304 4.48696 5.47363 7.888 8.05559 1.11397 3.4645 25.9042
3233324 4.53043 5.48297 7.86708 8.08365 1.1257 3.43011 25.9641
3233334 4.54783 5.48297 7.96123 8.03687 0.970829 3.43886 26.0289
3233354 4.54783 5.52033 7.96123 8.02752 0.996658 3.40827 26.0569
3233376 4.54783 5.48297 7.96123 7.99945 0.936228 3.42221 25.9915
3233386 4.57391 5.47363 7.94031 7.99009 0.913757 3.39684 25.9779
3233405 4.53043 5.49231 7.96123 8.05559 1.01406 3.45287 26.0396
3233416 4.58261 5.48297 7.90892 8.00881 0.962389 3.37841 25.9833
3233436 4.5913 5.46429 7.96123 7.99945 0.875607 3.40465 26.0163
3233447 4.5913 5.46429 7.96123 7.99945 0.875607 3.40465 26.0163
3233456 4.52174 5.50165 7.87754 7.97138 1.03755 3.37747 25.8723
3233468 4.53043 5.50165 7.92985 7.99945 1.00228 3.4073 25.9614
3233475 4.53043 5.50165 7.92985 7.99945 1.00228 3.4073 25.9614
3233486 4.5913 5.56703 7.96123 7.96203 0.936028 3.31551 26.0816
3233506 4.53913 5.46429 7.89846 7.99009 0.98176 3.40944 25.892
3233517 4.58261 5.46429 7.92985 8.01816 0.932869 3.40516 25.9949
3233525 4.58261 5.46429 7.92985 8.01816 0.932869 3.40516 25.9949
3233535 4.56522 5.49231 7.94031 8.00881 0.957051 3.39813 26.0066
3233545 4.55652 5.43626 8.01354 8.01816 0.849551 3.48071 26.0245
3233555 4.55652 5.43626 8.01354 8.01816 0.849551 3.48071 26.0245
3233566 4.5913 5.50165 7.89846 8.05559 1.02456 3.3753 26.047
3233577 4.5913 5.50165 7.89846 8.05559 1.02456 3.3753 26.047
3233585 4.57391 5.45495 7.90892 8.02752 0.962463 3.41277 25.9653
3233595 4.56522 5.45495 7.95077 8.02752 0.929359 3.43758 25.9985
3233606 4.56522 5.45495 7.95077 8.02752 0.929359 3.43758 25.9985
3233617 4.56522 5.49231 7.87754 8.02752 1.03714 3.37844 25.9626
3233627 4.56522 5.48297 7.91938 8.01816 0.977966 3.39957 25.9857
3233637 4.56522 5.48297 7.91938 8.01816 0.977966 3.39957 25.9857
3233647 4.55652 5.46429 7.86708 8.05559 1.05641 3.41234 25.9435
3233667 4.51304 5.43626 7.99262 8.08365 0.974292 3.53131 26.0256
3233677 4.53043 5.48297 7.92985 8.05559 1.03685 3.44556 25.9988
3233687 4.53043 5.48297 7.92985 8.05559 1.03685 3.44556 25.9988
3233697 4.54783 5.42692 7.84615 8.10237 1.09487 3.45661 25.9233
3233707 4.52174 5.43626 7.87754 8.05559 1.05497 3.46168 25.8911
3233727 4.49565 5.38022 7.91938 8.09301 1.02189 3.55558 25.8883
3233748 4.52174 5.46429 7.888 8.04623 1.0617 3.44221 25.9203
3233759 4.52174 5.41758 7.89846 8.08365 1.04261 3.49679 25.9214
3233770 4.52174 5.41758 7.89846 8.08365 1.04261 3.49679 25.9214
3233777 4.48696 5.46429 7.91938 8.04623 1.06511 3.48096 25.9169
3233792 4.47826 5.42692 7.97169 8.18657 1.11607 3.59876 26.0634
3233814 4.46087 5.48297 7.94031 8.1585 1.19064 3.54513 26.0426
3233822 4.46087 5.48297 7.94031 8.1585 1.19064 3.54513 26.0426
3233828 4.48696 5.38022 7.98215 8.16786 1.03678 3.62232 26.0172
3233839 4.51304 5.45495 7.89846 8.12108 1.12026 3.49295 25.9875
3233848 4.51304 5.45495 7.89846 8.12108 1.12026 3.49295 25.9875
3233858 4.46957 5.45495 7.97169 8.1585 1.12474 3.57269 26.0547
3233868 4.52174 5.41758 7.92985 8.0743 1.00246 3.50656 25.9435
3233880 4.52174 5.41758 7.92985 8.0743 1.00246 3.50656 25.9435
3233888 4.56522 5.41758 7.96123 8.13043 0.979471 3.51428 26.0745
3233901 4.56522 5.41758 7.96123 8.13043 0.979471 3.51428 26.0745
3233908 4.48696 5.41758 7.86708 8.10237 1.12653 3.51603 25.874
3233918 4.46957 5.42692 8.00308 8.13043 1.04179 3.59414 26.03
3233928 4.46957 5.42692 8.00308 8.13043 1.04179 3.59414 26.03
3233939 4.53913 5.45495 7.888 8.13043 1.11316 3.47392 26.0125
3233948 4.49565 5.42692 7.92985 8.13043 1.08904 3.54332 25.9829
3233958 4.49565 5.42692 7.92985 8.13043 1.08904 3.54332 25.9829
3233968 4.47826 5.47363 8.00308 8.0743 1.02441 3.52996 26.0293
3233990 4.47826 5.42692 7.99262 8.1585 1.06937 3.59564 26.0563
3233999 4.50435 5.3989 7.99262 8.13043 0.991663 3.58472 26.0263
3234011 4.50435 5.3989 7.99262 8.13043 0.991663 3.58472 26.0263
3234019 4.51304 5.45495 7.94031 8.09301 1.05245 3.49905 26.0013
3234029 4.52174 5.47363 7.94031 8.08365 1.05233 3.47545 26.0193
3234038 4.52174 5.47363 7.94031 8.08365 1.05233 3.47545 26.0193
3234049 4.53913 5.47363 7.92985 8.0743 1.03678 3.45433 26.0169
3234069 4.46087 5.42692 7.96123 8.09301 1.05797 3.56551 25.942
3234079 4.5913 5.43626 7.95077 8.09301 0.946635 3.4614 26.0713
3234091 4.5913 5.43626 7.95077 8.09301 0.946635 3.4614 26.0713
3234101 4.58261 5.51099 7.97169 8.00881 0.925723 3.38664 26.0741
3234110 4.52174 5.47363 7.98215 8.09301 1.01911 3.49809 26.0705
3234120 4.52174 5.47363 7.98215 8.09301 1.01911 3.49809 26.0705
3234130 4.54783 5.45495 7.92985 8.03687 0.976288 3.44478 25.9695
3234143 4.54783 5.45495 7.92985 8.03687 0.976288 3.44478 25.9695
3234151 4.53913 5.4456 7.92985 8.05559 0.993654 3.46592 25.9702
3234162 4.50435 5.46429 7.90892 8.10237 1.10988 3.48884 25.9799
3234170 4.50435 5.46429 7.90892 8.10237 1.10988 3.48884 25.9799
3234185 4.53913 5.46429 7.92985 8.03687 0.993627 3.44432 25.9701
3234191 4.52174 5.42692 7.90892 8.00881 0.971401 3.46148 25.8664
3234200 4.52174 5.42692 7.90892 8.00881 0.971401 3.46148 25.8664
3234210 4.49565 5.47363 7.90892 8.03687 1.06688 3.45929 25.9151
3234221 4.49565 5.47363 7.90892 8.03687 1.06688 3.45929 25.9151
3234231 4.52174 5.46429 7.86708 7.98074 1.02212 3.40355 25.8338
3234241 4.57391 5.4456 7.90892 7.96203 0.892985 3.39011 25.8905
3234255 4.57391 5.4456 7.90892 7.96203 0.892985 3.39011 25.8905
3234260 4.57391 5.47363 7.888 7.94331 0.92259 3.35241 25.8789
3234272 4.57391 5.46429 7.888 7.98074 0.948694 3.37586 25.9069
3234282 4.57391 5.46429 7.888 7.98074 0.948694 3.37586 25.9069
3234294 4.6087 5.52033 7.92985 7.96203 0.906786 3.32205 26.0209
3234316 4.52174 5.48297 7.91938 8.04623 1.04742 3.44292 25.9703
3234322 4.63478 5.53901 7.87754 7.98074 0.967488 3.27547 26.0321
3234337 4.63478 5.53901 7.87754 7.98074 0.967488 3.27547 26.0321
3234343 4.57391 5.52967 7.90892 7.98074 0.988308 3.33899 25.9932
3234359 4.63478 5.52967 7.888 8.00881 0.97433 3.29935 26.0613
3234363 4.63478 5.52967 7.888 8.00881 0.97433 3.29935 26.0613
3234373 4.66087 5.51099 7.83569 7.94331 0.922647 3.24102 25.9509
3234384 4.57391 5.51099 7.86708 7.98074 1.01295 3.33338 25.9327
3234394 4.57391 5.51099 7.86708 7.98074 1.01295 3.33338 25.9327
3234404 4.63478 5.52033 7.888 7.94331 0.905144 3.27644 25.9864
3234414 4.63478 5.52033 7.888 7.94331 0.905144 3.27644 25.9864
3234424 4.57391 5.52033 7.888 7.9246 0.948608 3.31092 25.9068
3234434 4.63478 5.57637 7.85662 7.91525 0.96238 3.21019 25.983
3234450 4.63478 5.57637 7.85662 7.91525 0.96238 3.21019 25.983
3234454 4.63478 5.54835 7.86708 7.90589 0.917301 3.23036 25.9561
3234469 4.61739 5.52967 7.79385 7.94331 1.02548 3.23948 25.8842
3234476 4.61739 5.52967 7.79385 7.94331 1.02548 3.23948 25.8842
3234486 4.64348 5.62308 7.79385 7.90589 1.05102 3.1386 25.9663
3234496 4.64348 5.62308 7.79385 7.90589 1.05102 3.1386 25.9663
3234506 4.62609 5.55769 7.87754 7.95267 0.967497 3.2558 26.014
3234516 4.5913 5.53901 7.85662 7.96203 1.0146 3.28818 25.949
3234526 4.5913 5.53901 7.85662 7.96203 1.0146 3.28818 25.949
3234536 4.62609 5.63242 7.82523 7.95267 1.08864 3.17981 26.0364
3234546 4.6 5.52967 7.86708 7.94331 0.969455 3.28491 25.9401
3234556 4.6 5.52967 7.86708 7.94331 0.969455 3.28491 25.9401
3234567 4.6087 5.57637 7.81477 7.97138 1.08225 3.23497 25.9712
3234577 4.6087 5.57637 7.81477 7.97138 1.08225 3.23497 25.9712
3234585 4.64348 5.52967 7.82523 7.95267 0.976485 3.23961 25.951
3234599 4.58261 5.55769 7.83569 8.01816 1.11328 3.29702 25.9942
3234605 4.58261 5.55769 7.83569 8.01816 1.11328 3.29702 25.9942
3234615 4.66087 5.58571 7.84615 7.98074 1.01581 3.21034 26.0735
3234626 4.63478 5.59506 7.78338 7.88718 1.02707 3.15095 25.9004
3234636 4.63478 5.59506 7.78338 7.88718 1.02707 3.15095 25.9004
3234646 4.62609 5.6044 7.84615 7.96203 1.05053 3.21313 26.0387
3234657 4.62609 5.6044 7.84615 7.96203 1.05053 3.21313 26.0387
3234667 4.65217 5.6044 7.79385 7.9246 1.04233 3.15412 25.975
3234677 4.6 5.62308 7.82523 7.94331 1.09762 3.20034 25.9916
3234687 4.6 5.62308 7.82523 7.94331 1.09762 3.20034 25.9916
3234697 4.63478 5.62308 7.83569 7.86846 0.983229 3.14669 25.962
3234707 4.61739 5.64176 7.79385 7.93396 1.12025 3.15658 25.987
3234717 4.61739 5.64176 7.79385 7.93396 1.12025 3.15658 25.987
3234729 4.62609 5.62308 7.81477 7.9246 1.06472 3.16882 25.9885
3234737 4.62609 5.62308 7.81477 7.9246 1.06472 3.16882 25.9885
3234750 4.63478 5.58571 7.82523 7.91525 1.00242 3.18939 25.961
3234757 4.63478 5.56703 7.79385 7.9246 1.02527 3.19246 25.9203
3234767 4.63478 5.56703 7.79385 7.9246 1.02527 3.19246 25.9203
3234785 4.65217 5.64176 7.80431 7.90589 1.04903 3.12427 26.0041
3234788 4.58261 5.59506 7.76246 7.9246 1.13532 3.19512 25.8647
3234808 4.67826 5.64176 7.82523 7.89653 0.993404 3.11139 26.0418
3234819 4.67826 5.64176 7.82523 7.89653 0.993404 3.11139 26.0418
3234828 4.68696 5.66044 7.80431 7.87782 1.00558 3.07424 26.0295
3234838 4.67826 5.62308 7.78338 7.91525 1.03527 3.11383 26
3234849 4.67826 5.62308 7.78338 7.91525 1.03527 3.11383 26
3234860 4.63478 5.64176 7.83569 7.86846 1.0005 3.13364 25.9807
3234868 4.67826 5.6044 7.77292 7.86846 0.985262 3.10064 25.924
3234882 4.67826 5.6044 7.77292 7.86846 0.985262 3.10064 25.924
3234888 4.67826 5.62308 7.83569 7.90589 0.974363 3.13343 26.0429
3234898 4.67826 5.62308 7.83569 7.90589 0.974363 3.13343 26.0429
3234908 4.66957 5.62308 7.83569 7.80297 0.887722 3.09242 25.9313
3234923 4.64348 5.6511 7.752 7.83104 1.04981 3.06547 25.8776
3234929 4.64348 5.6511 7.752 7.83104 1.04981 3.06547 25.8776
3234939 4.63478 5.6044 7.85662 7.85911 0.936341 3.16504 25.9549
3234950 4.61739 5.59506 7.73108 7.87782 1.08864 3.13488 25.8213
3234971 4.67826 5.66978 7.78338 7.89653 1.06104 3.07278 26.028
3234990 4.64348 5.6044 7.76246 7.85911 1.02202 3.11586 25.8694
3234999 4.63478 5.59506 7.83569 7.89653 0.983277 3.1791 25.9621
3235012 4.63478 5.59506 7.83569 7.89653 0.983277 3.1791 25.9621
3235019 4.67826 5.58571 7.78338 7.86846 0.957459 3.11848 25.9158
3235033 4.67826 5.61374 7.752 7.96203 1.10119 3.12737 26.006
3235039 4.67826 5.61374 7.752 7.96203 1.10119 3.12737 26.006
3235049 4.64348 5.66044 7.79385 7.93396 1.11122 3.12535 26.0317
3235059 4.64348 5.66044 7.79385 7.93396 1.11122 3.12535 26.0317
3235079 4.63478 5.6044 7.82523 7.90589 1.01103 3.17205 25.9703
3235088 4.62609 5.54835 7.82523 7.93396 0.993878 3.23022 25.9336
3235104 4.62609 5.54835 7.82523 7.93396 0.993878 3.23022 25.9336
3235109 4.66957 5.61374 7.83569 7.91525 0.983056 3.15026 26.0342
3235121 4.63478 5.61374 7.76246 7.90589 1.08267 3.13685 25.9169
3235130 4.65217 5.58571 7.84615 7.87782 0.929448 3.1697 25.9619
3235141 4.65217 5.58571 7.84615 7.87782 0.929448 3.1697 25.9619
3235152 4.64348 5.52967 7.81477 7.84975 0.89131 3.188 25.8377
3235160 4.66087 5.61374 7.82523 7.87782 0.967616 3.13449 25.9777
3235182 4.65217 5.61374 7.73108 7.87782 1.07083 3.09741 25.8748
3235197 4.67826 5.66044 7.752 7.85911 1.04942 3.04766 25.9498
3235202 4.67826 5.66044 7.752 7.85911 1.04942 3.04766 25.9498
3235212 4.63478 5.63242 7.73108 7.8404 1.07102 3.07926 25.8387
3235223 4.63478 5.63242 7.73108 7.8404 1.07102 3.07926 25.8387
3235232 4.66087 5.63242 7.76246 7.8404 1.01317 3.0755 25.8961
3235242 4.68696 5.66044 7.80431 7.88718 1.01421 3.07853 26.0389
3235252 4.68696 5.66044 7.80431 7.88718 1.01421 3.07853 26.0389
3235262 4.70435 5.6044 7.77292 7.88718 0.976461 3.09103 25.9688
3235272 4.67826 5.53901 7.78338 7.84975 0.896618 3.14262 25.8504
3235293 4.69565 5.66044 7.76246 7.86846 1.03012 3.04469 25.987
3235304 4.69565 5.66044 7.76246 7.86846 1.03012 3.04469 25.987
3235313 4.67826 5.68846 7.69969 7.8404 1.11062 2.99537 25.9068
3235326 4.69565 5.64176 7.78338 7.84975 0.974637 3.05869 25.9705
3235333 4.69565 5.64176 7.78338 7.84975 0.974637 3.05869 25.9705
3235343 4.70435 5.63242 7.73108 7.9246 1.07877 3.06949 25.9924
3235353 4.68696 5.6978 7.77292 7.84975 1.04554 3.02101 26.0074
3235363 4.68696 5.6978 7.77292 7.84975 1.04554 3.02101 26.0074
3235373 4.72174 5.70714 7.78338 7.86846 1.02613 3.00392 26.0807
3235383 4.72174 5.70714 7.78338 7.86846 1.02613 3.00392 26.0807
3235394 4.69565 5.58571 7.76246 7.82168 0.917521 3.0752 25.8655
3235404 4.66957 5.6511 7.78338 7.86846 1.02668 3.07894 25.9725
3235414 4.66957 5.6511 7.78338 7.86846 1.02668 3.07894 25.9725
3235424 4.67826 5.67912 7.66831 7.82168 1.11639 2.97861 25.8474
3235435 4.73913 5.59506 7.77292 7.90589 0.950381 3.0819 26.013
3235444 4.73913 5.59506 7.77292 7.90589 0.950381 3.0819 26.013
3235458 4.69565 5.68846 7.73108 7.83104 1.05292 2.9935 25.9462
3235474 4.71304 5.63242 7.71015 7.87782 1.04792 3.03229 25.9334
3235484 4.69565 5.61374 7.71015 7.86846 1.03947 3.05309 25.888
3235504 4.73043 5.64176 7.69969 7.86846 1.04094 3.00457 25.9403
3235516 4.74783 5.64176 7.67877 7.82168 1.0012 2.9611 25.89
3235525 4.74783 5.64176 7.67877 7.82168 1.0012 2.9611 25.89
3235534 4.70435 5.66044 7.752 7.84975 1.01462 3.02522 25.9665
3235546 4.70435 5.66044 7.752 7.84975 1.01462 3.02522 25.9665
3235554 4.69565 5.64176 7.74154 7.8404 1.0079 3.0351 25.9193
3235568 4.69565 5.64176 7.76246 7.85911 1.00423 3.05337 25.959
3235574 4.69565 5.64176 7.76246 7.85911 1.00423 3.05337 25.959
3235584 4.66087 5.64176 7.74154 7.84975 1.0515 3.06365 25.8939
3235595 4.70435 5.61374 7.66831 7.82168 1.02949 3.00598 25.8081
3235616 4.73913 5.64176 7.67877 7.93396 1.11356 3.01911 25.9936
3235628 4.73913 5.64176 7.67877 7.93396 1.11356 3.01911 25.9936
3235636 4.70435 5.6511 7.69969 7.87782 1.08441 3.02052 25.933
3235646 4.65217 5.63242 7.68923 7.88718 1.13896 3.06938 25.861
3235657 4.65217 5.63242 7.68923 7.88718 1.13896 3.06938 25.861
3235667 4.70435 5.58571 7.616 7.86846 1.09976 3.02299 25.7745
3235679 4.72174 5.6044 7.67877 7.90589 1.07076 3.04421 25.9108
3235700 4.71304 5.66044 7.65785 7.90589 1.15224 3.00162 25.9372
3235708 4.66087 5.6044 7.64738 7.91525 1.17255 3.07654 25.8279
3235724 4.66087 5.6044 7.64738 7.91525 1.17255 3.07654 25.8279
3235728 4.68696 5.66978 7.62646 7.93396 1.24466 3.01172 25.9172
3235752 4.62609 5.59506 7.66831 7.91525 1.17799 3.11711 25.8047
3235758 4.66957 5.6978 7.68923 7.91525 1.20732 3.02468 25.9718
3235768 4.66957 5.6978 7.68923 7.91525 1.20732 3.02468 25.9718
3235778 4.71304 5.68846 7.69969 7.9246 1.15302 3.01016 26.0258
3235790 4.69565 5.67912 7.63692 7.99945 1.29367 3.03424 26.0111
3235798 4.69565 5.67912 7.63692 7.99945 1.29367 3.03424 26.0111
3235813 4.72174 5.6978 7.71015 7.93396 1.1509 3.00682 26.0637
3235818 4.72174 5.6978 7.71015 7.93396 1.1509 3.00682 26.0637
3235828 4.73913 5.71648 7.65785 7.91525 1.18595 2.94914 26.0287
3235838 4.70435 5.75385 7.59508 7.90589 1.31005 2.91387 25.9592
3235858 4.73043 5.74451 7.52185 7.94331 1.38351 2.88562 25.9401
3235871 4.70435 5.74451 7.55323 7.91525 1.35254 2.90517 25.9173
3235891 4.75652 5.74451 7.57415 7.81233 1.18412 2.83078 25.8875
3235899 4.75652 5.74451 7.57415 7.81233 1.18412 2.83078 25.8875
3235912 4.77391 5.75385 7.55323 7.88718 1.26489 2.83769 25.9682
3235920 4.78261 5.70714 7.46954 7.86846 1.28104 2.81572 25.8278
3235929 4.78261 5.70714 7.46954 7.86846 1.28104 2.81572 25.8278
3235940 4.75652 5.81923 7.49046 7.85911 1.38027 2.76206 25.9253
3235949 4.81739 5.77253 7.44862 7.79362 1.25825 2.70147 25.8321
3235970 4.81739 5.82857 7.51138 7.89653 1.33985 2.7416 26.0539
3235981 4.78261 5.82857 7.43815 7.82168 1.38136 2.69529 25.871
3235990 4.78261 5.79121 7.43815 7.82168 1.34721 2.72088 25.8337
3236002 4.8 5.76319 7.52185 7.83104 1.22741 2.77224 25.9161
3236012 4.8 5.76319 7.52185 7.83104 1.22741 2.77224 25.9161
3236023 4.84348 5.82857 7.49046 7.80297 1.24936 2.66973 25.9655
3236032 4.8 5.83791 7.44862 7.80297 1.34443 2.6731 25.8895
3236042 4.8 5.83791 7.44862 7.80297 1.34443 2.6731 25.8895
3236052 4.82609 5.83791 7.52185 7.82168 1.26085 2.69895 26.0075
3236062 4.81739 5.85659 7.51138 7.71877 1.20308 2.63829 25.9041
3236072 4.81739 5.85659 7.51138 7.71877 1.20308 2.63829 25.9041
3236082 4.82609 5.85659 7.51138 7.82168 1.28846 2.68129 26.0157
3236103 4.82609 5.88462 7.50092 7.76555 1.27338 2.63064 25.9772
3236116 4.83478 5.89396 7.45908 7.75619 1.30694 2.59397 25.944
3236123 4.83478 5.89396 7.45908 7.75619 1.30694 2.59397 25.944
3236137 4.90435 5.91264 7.37538 7.72812 1.3127 2.48058 25.9205
3236143 4.88696 5.86593 7.38585 7.64392 1.1995 2.48823 25.7827
3236153 4.88696 5.86593 7.38585 7.64392 1.1995 2.48823 25.7827
3236163 4.95652 5.89396 7.38585 7.64392 1.15484 2.42228 25.8802
3236183 4.91304 5.86593 7.40677 7.65327 1.16045 2.48523 25.839
3236194 4.95652 5.9033 7.41723 7.6907 1.17477 2.45388 25.9677
3236204 4.95652 5.9033 7.41723 7.6907 1.17477 2.45388 25.9677
3236214 4.96522 5.9033 7.39631 7.60649 1.10959 2.39703 25.8713
3236225 4.92174 5.93132 7.40677 7.60649 1.1688 2.41252 25.8663
3236236 4.92174 5.93132 7.40677 7.60649 1.1688 2.41252 25.8663
3236246 4.9913 5.92198 7.44862 7.64392 1.08243 2.41057 26.0058
3236268 5.0087 5.87527 7.44862 7.59714 0.978702 2.40754 25.9297
3236276 4.98261 5.93132 7.42769 7.56907 1.05177 2.3636 25.9107
3236290 4.98261 5.93132 7.42769 7.56907 1.05177 2.3636 25.9107
3236296 4.9913 5.86593 7.33354 7.541 1.05132 2.34183 25.7318
3236306 4.9913 5.95934 7.36492 7.55971 1.12349 2.30374 25.8753
3236316 4.9913 5.95934 7.36492 7.55971 1.12349 2.30374 25.8753
3236326 5.02609 5.93132 7.39631 7.56907 1.03962 2.31918 25.9228
3236353 5.03478 5.96868 7.38585 7.49422 1.0067 2.24657 25.8835
3236363 5.01739 5.95 7.40677 7.541 1.02916 2.30389 25.9152
3236375 5.01739 5.95 7.40677 7.541 1.02916 2.30389 25.9152
3236376 4.97391 5.94066 7.27077 7.52229 1.18473 2.26304 25.7076
3236387 5 5.94066 7.29169 7.49422 1.11091 2.24199 25.7266
3236396 5 5.94066 7.29169 7.49422 1.11091 2.24199 25.7266
3236405 5.06087 6.00604 7.41723 7.53165 1.01822 2.23824 26.0158
3236416 5.06087 6.00604 7.41723 7.53165 1.01822 2.23824 26.0158
3236426 5.02609 5.92198 7.36492 7.58778 1.07984 2.31922 25.9008
3236438 5.05217 5.96868 7.37538 7.541 1.04302 2.25286 25.9372
3236445 5.05217 5.96868 7.37538 7.541 1.04302 2.25286 25.9372
3236460 5.03478 6.02473 7.40677 7.50358 1.04617 2.22422 25.9699
3236466 5.04348 5.98736 7.36492 7.53165 1.07088 2.23647 25.9274
3236485 5.03478 5.9967 7.41723 7.59714 1.09598 2.29377 26.0459
3236495 5.03478 5.9967 7.41723 7.59714 1.09598 2.29377 26.0459
3236507 4.96522 5.92198 7.35446 7.46615 1.03903 2.29507 25.7078
3236516 4.9913 5.95934 7.36492 7.55971 1.12349 2.30374 25.8753
3236527 4.9913 5.95934 7.36492 7.55971 1.12349 2.30374 25.8753
3236537 5.01739 6.00604 7.28123 7.55036 1.21619 2.20933 25.855
3236549 5 5.97802 7.37538 7.55971 1.12139 2.29058 25.9131
3236557 5 5.97802 7.37538 7.55971 1.12139 2.29058 25.9131
3236569 5.03478 6.03407 7.35446 7.57843 1.17612 2.22911 26.0017
3236577 5.03478 6.03407 7.35446 7.57843 1.17612 2.22911 26.0017
3236591 5.0087 5.93132 7.344 7.58778 1.1271 2.31435 25.8718
3236597 5 5.91264 7.35446 7.46615 0.995138 2.27797 25.7333
3236607 5 5.91264 7.35446 7.46615 0.995138 2.27797 25.7333
3236617 5.02609 5.95 7.32308 7.43808 1.00916 2.20599 25.7372
3236627 5 5.94066 7.31262 7.53165 1.12439 2.27086 25.7849
3236647 4.96522 5.95 7.344 7.541 1.14513 2.308 25.8002
3236667 5 5.9033 7.38585 7.62521 1.10234 2.37769 25.9143
3236678 4.93913 5.94066 7.37538 7.59714 1.18295 2.37468 25.8523
3236687 4.93913 5.94066 7.37538 7.59714 1.18295 2.37468 25.8523
3236697 5 6.00604 7.35446 7.62521 1.22836 2.29374 25.9857
3236707 5 6.00604 7.35446 7.62521 1.22836 2.29374 25.9857
3236717 4.94783 5.96868 7.35446 7.60649 1.22973 2.34438 25.8775
3236727 4.9913 5.89396 7.40677 7.62521 1.08141 2.39997 25.9172
3236749 4.93043 5.95 7.28123 7.56907 1.27027 2.31427 25.7307
3236758 4.94783 5.97802 7.31262 7.55971 1.23778 2.29463 25.7982
3236768 4.94783 5.97802 7.31262 7.55971 1.23778 2.29463 25.7982
3236778 4.98261 5.92198 7.36492 7.57843 1.11505 2.34376 25.8479
3236798 4.97391 5.96868 7.35446 7.65327 1.24621 2.34976 25.9503
3236811 4.95652 5.95934 7.33354 7.65327 1.27647 2.35745 25.9027
3236820 4.95652 5.95934 7.33354 7.65327 1.27647 2.35745 25.9027
3236833 4.96522 5.96868 7.33354 7.61585 1.2419 2.32708 25.8833
3236839 5.02609 5.92198 7.33354 7.65327 1.17181 2.3359 25.9349
3236849 5.02609 5.92198 7.33354 7.65327 1.17181 2.3359 25.9349
3236862 5.03478 5.97802 7.33354 7.64392 1.20586 2.28816 25.9903
3236869 4.94783 5.95 7.28123 7.66263 1.33851 2.34855 25.8417
3236879 4.94783 5.95 7.28123 7.66263 1.33851 2.34855 25.8417
3236889 5 5.95 7.36492 7.67199 1.20932 2.35902 25.9869
3236901 5 5.95 7.36492 7.67199 1.20932 2.35902 25.9869
3236909 4.93043 5.9967 7.26031 7.61585 1.37755 2.29565 25.8033
3236922 5.02609 5.96868 7.30215 7.64392 1.23778 2.2848 25.9408
3236929 5.02609 5.96868 7.30215 7.64392 1.23778 2.2848 25.9408
3236939 4.96522 5.97802 7.26031 7.63456 1.34207 2.29407 25.8381
3236949 4.92174 5.95934 7.28123 7.62521 1.33938 2.34146 25.7875
3236961 4.92174 5.95934 7.28123 7.62521 1.33938 2.34146 25.7875
3236971 4.94783 5.95934 7.28123 7.67199 1.35562 2.34686 25.8604
3236980 4.94783 5.95934 7.28123 7.67199 1.35562 2.34686 25.8604
3236992 4.92174 5.92198 7.26031 7.6907 1.38655 2.38845 25.7947
3237011 4.93043 6.03407 7.32308 7.64392 1.3733 2.31523 25.9315
3237012 4.93043 6.03407 7.32308 7.64392 1.3733 2.31523 25.9315
3237021 4.96522 5.96868 7.24985 7.66263 1.36987 2.30898 25.8464
3237033 4.95652 5.96868 7.23938 7.67199 1.39798 2.31426 25.8366
3237055 4.9913 5.93132 7.26031 7.64392 1.28125 2.31248 25.8268
3237061 4.9913 5.93132 7.26031 7.64392 1.28125 2.31248 25.8268
3237076 4.93043 5.93132 7.22892 7.57843 1.31519 2.30565 25.6691
3237081 4.9913 5.98736 7.19754 7.55971 1.3194 2.20232 25.7359
3237101 4.97391 6.06209 7.17662 7.59714 1.46136 2.17229 25.8098
3237110 4.98261 5.95934 7.17662 7.65327 1.40986 2.2629 25.7718
3237121 4.98261 5.95934 7.17662 7.65327 1.40986 2.2629 25.7718
3237131 5.0087 6.07143 7.28123 7.66263 1.38731 2.22702 26.024
3237143 5.0087 6.07143 7.28123 7.66263 1.38731 2.22702 26.024
3237151 4.98261 6.01538 7.28123 7.59714 1.30301 2.24937 25.8764
3237161 5.01739 6.04341 7.26031 7.55036 1.27173 2.17413 25.8715
3237170 5.01739 6.04341 7.26031 7.55036 1.27173 2.17413 25.8715
3237182 5.03478 6.03407 7.24985 7.63456 1.33317 2.20525 25.9533
3237202 5.0087 5.97802 7.24985 7.60649 1.28272 2.24603 25.8431
3237212 4.9913 6.00604 7.208 7.61585 1.37735 2.22288 25.8212
3237222 4.9913 6.00604 7.208 7.61585 1.37735 2.22288 25.8212
3237232 4.96522 5.98736 7.21846 7.62521 1.38479 2.26259 25.7962
3237242 5 5.97802 7.26031 7.60649 1.28092 2.257 25.8448
3237254 5 5.97802 7.26031 7.60649 1.28092 2.257 25.8448
3237262 4.9913 6.00604 7.27077 7.60649 1.30481 2.24926 25.8746
3237282 4.9913 5.95934 7.23938 7.59714 1.28532 2.26036 25.7872
3237292 4.97391 5.98736 7.32308 7.61585 1.26082 2.30364 25.9002
3237302 4.97391 5.98736 7.32308 7.61585 1.26082 2.30364 25.9002
3237312 5.0087 5.92198 7.208 7.65327 1.31684 2.28595 25.7919
3237323 4.94783 5.91264 7.26031 7.65327 1.317 2.35884 25.774
3237342 4.94783 5.95 7.36492 7.74684 1.33036 2.43022 26.0096
3237364 4.95652 5.89396 7.35446 7.67199 1.21243 2.42067 25.8769
3237373 4.91304 5.89396 7.37538 7.7749 1.32952 2.50987 25.9573
3237387 4.91304 5.89396 7.37538 7.7749 1.32952 2.50987 25.9573
3237393 4.93043 5.84725 7.37538 7.78426 1.27778 2.53416 25.9373
3237403 4.88696 5.84725 7.37538 7.76555 1.30478 2.55461 25.8751
3237413 4.88696 5.84725 7.37538 7.76555 1.30478 2.55461 25.8751
3237423 4.93043 5.82857 7.30215 7.76555 1.31795 2.50246 25.8267
3237433 4.93043 5.82857 7.30215 7.76555 1.31795 2.50246 25.8267
3237443 4.90435 5.82857 7.36492 7.74684 1.26345 2.54143 25.8447
3237454 4.8087 5.77253 7.45908 7.84975 1.30794 2.73905 25.8901
3237463 4.8087 5.77253 7.45908 7.84975 1.30794 2.73905 25.8901
3237474 4.87826 5.78187 7.41723 7.84975 1.28835 2.66527 25.9271
3237483 4.85217 5.74451 7.43815 7.91525 1.31928 2.74954 25.9501
3237496 4.85217 5.74451 7.43815 7.91525 1.31928 2.74954 25.9501
3237503 4.88696 5.78187 7.51138 7.83104 1.16735 2.69514 26.0112
3237517 4.88696 5.78187 7.51138 7.83104 1.16735 2.69514 26.0112
3237523 4.86087 5.73516 7.48 7.8404 1.19103 2.73438 25.9164
3237533 4.83478 5.71648 7.46954 7.87782 1.24522 2.77781 25.8986
3237543 4.83478 5.71648 7.46954 7.87782 1.24522 2.77781 25.8986
3237553 4.81739 5.6978 7.44862 7.86846 1.25837 2.7883 25.8323
3237563 4.7913 5.66044 7.52185 7.83104 1.14159 2.84899 25.8046
3237573 4.7913 5.66044 7.52185 7.83104 1.14159 2.84899 25.8046
3237586 4.83478 5.63242 7.53231 7.88718 1.11303 2.86959 25.8867
3237593 4.83478 5.63242 7.53231 7.88718 1.11303 2.86959 25.8867
3237603 4.83478 5.57637 7.56369 7.89653 1.03824 2.92741 25.8714
3237613 4.82609 5.59506 7.616 7.91525 1.02901 2.95354 25.9524
3237623 4.82609 5.59506 7.616 7.91525 1.02901 2.95354 25.9524
3237651 4.8087 5.62308 7.58462 7.84975 1.04337 2.90105 25.8661
3237652 4.77391 5.59506 7.66831 8.01816 1.12356 3.06126 26.0554
3237654 4.77391 5.59506 7.66831 8.01816 1.12356 3.06126 26.0554
3237664 4.81739 5.56703 7.67877 7.97138 1.00083 3.03388 26.0346
3237674 4.81739 5.56703 7.67877 7.97138 1.00083 3.03388 26.0346
3237684 4.68696 5.52967 7.67877 7.96203 1.08863 3.14658 25.8574
