528691 6.52174 9.01374 12.2818 13.1172 2.03213 3.6144 40.9345
528701 6.48696 8.95769 12.1982 13.1172 2.07913 3.6325 40.76
528712 6.48696 8.95769 12.1982 13.1172 2.07913 3.6325 40.76
528721 6.52174 8.98571 12.1668 13.1266 2.09787 3.59768 40.8008
528731 6.45217 8.97637 12.2295 13.1172 2.09188 3.64861 40.7753
528742 6.45217 8.97637 12.2295 13.1172 2.09188 3.64861 40.7753
528752 6.51304 8.97637 12.2818 13.2014 2.06413 3.65873 40.9727
528762 6.51304 8.97637 12.2818 13.2014 2.06413 3.65873 40.9727
528772 6.48696 8.92967 12.3342 13.1266 1.97856 3.6857 40.8774
528783 6.53043 8.92967 12.3237 13.1547 1.97259 3.67072 40.9384
528792 6.53043 8.92967 12.3237 13.1547 1.97259 3.67072 40.9384
528802 6.50435 8.93901 12.2609 13.1266 2.02073 3.65317 40.8309
528812 6.52174 8.93901 12.3132 13.1359 1.97995 3.66235 40.9099
528832 6.52174 8.91099 12.2714 13.1921 2.02338 3.67909 40.8962
528852 6.44348 8.87363 12.376 13.2108 1.99549 3.76603 40.9039
528863 6.50435 8.88297 12.3655 13.2201 1.97278 3.73357 40.973
528872 6.50435 8.88297 12.3655 13.2201 1.97278 3.73357 40.973
528882 6.50435 8.91099 12.3237 13.0985 1.94763 3.67561 40.8375
528892 6.46957 8.81758 12.3132 13.1172 1.93529 3.73671 40.7176
528902 6.46957 8.81758 12.3132 13.1172 1.93529 3.73671 40.7176
528912 6.48696 8.88297 12.3551 13.2295 1.99638 3.74122 40.9545
528922 6.48696 8.88297 12.3551 13.2295 1.99638 3.74122 40.9545
528932 6.44348 8.8456 12.3551 13.2201 1.99881 3.77572 40.8643
528945 6.46087 8.76154 12.3969 13.2669 1.93871 3.83067 40.8863
528952 6.46087 8.76154 12.3969 13.2669 1.93871 3.83067 40.8863
528963 6.45217 8.85495 12.3237 13.2389 2.02958 3.76395 40.8697
528973 6.46087 8.85495 12.4074 13.2576 1.97914 3.78805 40.9808
528993 6.48696 8.86429 12.3551 13.2201 1.98062 3.7472 40.9265
529003 6.48696 8.86429 12.3551 13.2201 1.98062 3.7472 40.9265
529014 6.44348 8.8456 12.3132 13.2295 2.03175 3.76679 40.8318
529023 6.46957 8.82692 12.3342 13.2108 1.9796 3.76399 40.8414
529034 6.46957 8.82692 12.3342 13.2108 1.9796 3.76399 40.8414
529044 6.45217 8.86429 12.3237 13.164 1.99271 3.73904 40.8042
529055 6.45217 8.82692 12.2923 13.1734 1.99768 3.75014 40.7448
529075 6.43478 8.87363 12.3237 13.1921 2.02529 3.75048 40.8242
529085 6.43478 8.87363 12.3237 13.1921 2.02529 3.75048 40.8242
529095 6.44348 8.83626 12.3237 13.1921 1.99848 3.76366 40.7955
529105 6.48696 8.80824 12.3446 13.2576 1.97704 3.78031 40.8974
529115 6.48696 8.80824 12.3446 13.2576 1.97704 3.78031 40.8974
529125 6.52174 8.87363 12.3132 13.1921 1.97474 3.70774 40.9007
529135 6.50435 8.93901 12.2923 13.2201 2.05252 3.68779 40.9558
529158 6.53913 8.97637 12.3028 13.1921 2.02787 3.65006 41.0103
529167 6.53913 8.97637 12.3028 13.1921 2.02787 3.65006 41.0103
529175 6.48696 8.92967 12.2714 13.164 2.04111 3.67868 40.852
529185 6.53043 8.95769 12.3028 13.2201 2.03886 3.67028 41.011
529195 6.53043 8.95769 12.3028 13.2201 2.03886 3.67028 41.011
529205 6.54783 8.94835 12.2505 13.1547 2.01993 3.63397 40.9013
529215 6.49565 8.94835 12.2505 13.2482 2.10688 3.68369 40.9427
529225 6.49565 8.94835 12.2505 13.2482 2.10688 3.68369 40.9427
529235 6.50435 8.94835 12.24 13.1827 2.07137 3.65868 40.8754
529245 6.50435 8.94835 12.24 13.1827 2.07137 3.65868 40.8754
529255 6.49565 8.92967 12.2609 13.1547 2.03702 3.66921 40.8409
529265 6.49565 8.89231 12.2714 13.1359 1.99852 3.68402 40.7953
529275 6.49565 8.89231 12.2714 13.1359 1.99852 3.68402 40.7953
529285 6.50435 8.95769 12.2714 13.2389 2.08727 3.67866 40.9723
529295 6.50435 8.95769 12.2714 13.2389 2.08727 3.67866 40.9723
529305 6.51304 8.92033 12.2818 13.1359 1.99589 3.66614 40.8512
529315 6.55652 8.96703 12.2714 13.2014 2.03711 3.6403 40.9964
529325 6.55652 8.96703 12.2714 13.2014 2.03711 3.6403 40.9964
529335 6.50435 8.89231 12.2191 13.1547 2.03796 3.67071 40.7704
529345 6.53913 8.92967 12.1877 13.1453 2.05147 3.62638 40.8018
529355 6.53913 8.92967 12.1877 13.1453 2.05147 3.62638 40.8018
529366 6.54783 8.96703 12.2818 13.1266 1.99394 3.62638 40.9233
529386 6.51304 8.92033 12.2295 13.1266 2.02523 3.64901 40.7895
529396 6.51304 8.94835 12.2714 13.1266 2.01331 3.64784 40.8594
529406 6.51304 8.94835 12.2714 13.1266 2.01331 3.64784 40.8594
529416 6.54783 8.92033 12.24 13.164 2.01635 3.64644 40.8722
529426 6.51304 8.99506 12.2295 13.0985 2.05148 3.60708 40.8362
529436 6.51304 8.99506 12.2295 13.0985 2.05148 3.60708 40.8362
529446 6.53913 8.96703 12.2295 13.1359 2.03949 3.61839 40.8716
529456 6.53913 8.96703 12.2295 13.1359 2.03949 3.61839 40.8716
529468 6.50435 9.0044 12.2086 13.1453 2.10261 3.614 40.8627
529477 6.55652 8.96703 12.24 13.164 2.03684 3.6212 40.9276
529497 6.53913 8.96703 12.2086 13.0985 2.0323 3.60212 40.8133
529507 6.53913 9.01374 12.2191 13.1453 2.07787 3.59684 40.9172
529517 6.53913 9.01374 12.2191 13.1453 2.07787 3.59684 40.9172
529527 6.56522 9.01374 12.2086 13.1172 2.05179 3.57423 40.9048
529537 6.56522 9.01374 12.2086 13.1172 2.05179 3.57423 40.9048
529547 6.53913 9.01374 12.2086 13.0798 2.04805 3.57563 40.8413
529557 6.57391 8.99506 12.1982 13.0704 2.01618 3.56276 40.8376
529568 6.57391 8.99506 12.1982 13.0704 2.01618 3.56276 40.8376
529578 6.51304 9.01374 12.1877 13.0704 2.07396 3.57903 40.7849
529587 6.5913 8.97637 12.1668 13.0611 2.00965 3.55193 40.7955
529609 6.53913 9.02308 12.1772 13.0892 2.07935 3.56522 40.8286
529619 6.53913 9.02308 12.1772 13.0892 2.07935 3.56522 40.8286
529629 6.53913 8.97637 12.2295 13.0985 2.02371 3.60371 40.8436
529638 6.49565 9.01374 12.1877 13.0985 2.10127 3.5948 40.7956
529648 6.49565 9.01374 12.1877 13.0985 2.10127 3.5948 40.7956
529658 6.54783 8.97637 12.2295 13.1734 2.05999 3.6206 40.9271
529669 6.54783 8.97637 12.24 13.2014 2.0688 3.6313 40.9656
529680 6.54783 8.97637 12.24 13.2014 2.0688 3.6313 40.9656
529690 6.53913 8.98571 12.2505 13.1359 2.03615 3.61571 40.9112
529700 6.53043 8.94835 12.1772 13.1547 2.07993 3.62152 40.8107
529710 6.53043 8.94835 12.1772 13.1547 2.07993 3.62152 40.8107
529720 6.54783 8.97637 12.2086 13.1921 2.08431 3.61998 40.9249
529730 6.54783 8.97637 12.2086 13.1921 2.08431 3.61998 40.9249
529740 6.47826 8.92967 12.1772 13.1827 2.11986 3.66171 40.7679
529750 6.49565 8.96703 12.1668 13.1359 2.10997 3.62072 40.7654
529770 6.57391 9.04176 12.2086 13.164 2.08794 3.57064 40.9883
529780 6.55652 8.92033 12.2818 13.1734 1.98825 3.65668 40.9321
529809 6.55652 8.92033 12.2818 13.1734 1.98825 3.65668 40.9321
529810 6.49565 8.93901 12.2818 13.2201 2.06517 3.68887 40.9367
529811 6.49565 8.93901 12.2818 13.2201 2.06517 3.68887 40.9367
529821 6.51304 8.91099 12.2191 13.2295 2.08475 3.67895 40.8726
529831 6.53043 8.89231 12.3028 13.2389 2.0127 3.70525 40.9644
529852 6.53913 8.88297 12.2505 13.2014 2.01522 3.68075 40.874
529861 6.43478 8.82692 12.3028 13.2856 2.06548 3.79192 40.8501
529871 6.43478 8.82692 12.3028 13.2856 2.06548 3.79192 40.8501
529881 6.48696 8.83626 12.3028 13.2669 2.02569 3.75853 40.8929
529892 6.48696 8.83626 12.3028 13.2669 2.02569 3.75853 40.8929
529902 6.42609 8.78956 12.3237 13.2576 2.02059 3.81118 40.7969
529912 6.49565 8.81758 12.2714 13.2856 2.04071 3.75962 40.8703
529923 6.49565 8.81758 12.2714 13.2856 2.04071 3.75962 40.8703
529932 6.50435 8.85495 12.2505 13.3137 2.0855 3.74047 40.9235
529942 6.46087 8.80824 12.2923 13.2389 2.01832 3.77279 40.8003
529952 6.46087 8.80824 12.2923 13.2389 2.01832 3.77279 40.8003
529962 6.48696 8.85495 12.2295 13.3043 2.10565 3.7401 40.8758
529973 6.48696 8.85495 12.2295 13.3043 2.10565 3.7401 40.8758
529982 6.3913 8.7989 12.24 13.3137 2.13609 3.81535 40.7439
529992 6.49565 8.88297 12.3655 13.2763 2.01001 3.75296 41.0204
530003 6.49565 8.88297 12.3655 13.2763 2.01001 3.75296 41.0204
530012 6.44348 8.87363 12.2609 13.2389 2.08742 3.74208 40.8169
530022 6.43478 8.87363 12.2923 13.2295 2.06712 3.75215 40.8302
530033 6.43478 8.87363 12.2923 13.2295 2.06712 3.75215 40.8302
530042 6.48696 8.85495 12.3237 13.3231 2.05383 3.77111 40.9887
530052 6.48696 8.85495 12.3237 13.3231 2.05383 3.77111 40.9887
530062 6.46087 8.92967 12.2818 13.2856 2.1196 3.72709 40.958
530072 6.53043 8.91099 12.2923 13.2014 2.00908 3.6835 40.9352
530082 6.53043 8.91099 12.2923 13.2014 2.00908 3.6835 40.9352
530092 6.46957 8.92967 12.2505 13.2014 2.0875 3.6912 40.8511
530114 6.43478 8.82692 12.1772 13.164 2.08046 3.72369 40.6029
530124 6.41739 8.85495 12.2923 13.1453 2.02073 3.7455 40.7099
530134 6.41739 8.85495 12.2923 13.1453 2.02073 3.7455 40.7099
530143 6.41739 8.88297 12.2505 13.1827 2.0854 3.73138 40.7335
530153 6.4 8.89231 12.2818 13.1827 2.08136 3.74376 40.7569
530164 6.4 8.89231 12.2818 13.1827 2.08136 3.74376 40.7569
530174 6.51304 8.91099 12.2714 13.2108 2.03964 3.68824 40.9062
530183 6.46087 8.90165 12.24 13.2014 2.08449 3.70512 40.8039
530194 6.46087 8.90165 12.24 13.2014 2.08449 3.70512 40.8039
530203 6.46087 8.92967 12.2505 13.1734 2.07752 3.68741 40.8144
530214 6.46087 8.92967 12.2505 13.1734 2.07752 3.68741 40.8144
530224 6.47826 8.8456 12.2818 13.1453 1.98203 3.7189 40.751
530233 6.50435 9.03242 12.3342 13.164 2.04577 3.64131 41.0349
530243 6.50435 9.03242 12.3342 13.164 2.04577 3.64131 41.0349
530253 6.51304 8.98571 12.2609 13.1734 2.06747 3.64089 40.933
530273 6.50435 8.96703 12.3342 13.1079 1.97759 3.65552 40.9134
530283 6.55652 8.94835 12.3446 13.164 1.95742 3.6587 41.0135
530293 6.55652 8.94835 12.3446 13.164 1.95742 3.6587 41.0135
530304 6.52174 8.94835 12.2086 13.1079 2.03858 3.62119 40.7866
530315 6.53913 8.95769 12.2818 13.1359 1.99969 3.6372 40.9146
530325 6.53913 8.95769 12.2818 13.1359 1.99969 3.6372 40.9146
530335 6.51304 8.94835 12.2505 13.0798 2.00081 3.629 40.7917
530345 6.51304 8.94835 12.2505 13.0798 2.00081 3.629 40.7917
530355 6.50435 8.91099 12.24 13.0892 1.99769 3.64975 40.7445
530365 6.51304 8.91099 12.3446 13.164 1.96502 3.69555 40.9327
530375 6.51304 8.91099 12.3446 13.164 1.96502 3.69555 40.9327
530385 6.50435 8.95769 12.3446 13.2014 2.01799 3.68854 41.0081
530395 6.50435 8.93901 12.3028 13.1266 1.99306 3.66479 40.8727
530405 6.50435 8.93901 12.3028 13.1266 1.99306 3.66479 40.8727
530415 6.52174 8.87363 12.3028 13.1921 1.98164 3.70485 40.8902
530424 6.52174 8.87363 12.3028 13.1921 1.98164 3.70485 40.8902
530436 6.46087 8.8456 12.3028 13.1359 1.97441 3.7301 40.7452
530446 6.46087 8.85495 12.3551 13.1547 1.95567 3.74542 40.8255
530455 6.46087 8.85495 12.3551 13.1547 1.95567 3.74542 40.8255
530466 6.48696 8.88297 12.3969 13.1547 1.9267 3.73214 40.9215
530475 6.47826 8.81758 12.2818 13.1921 1.99262 3.74472 40.7698
530496 6.44348 8.7989 12.3132 13.2482 2.01599 3.79342 40.8038
530506 6.44348 8.7989 12.3132 13.2482 2.01599 3.79342 40.8038
530516 6.48696 8.86429 12.4074 13.2108 1.94092 3.759 40.9694
530526 6.47826 8.87363 12.376 13.1734 1.95148 3.73979 40.9013
530536 6.47826 8.87363 12.376 13.1734 1.95148 3.73979 40.9013
530546 6.45217 8.88297 12.4283 13.2108 1.96054 3.77211 40.9742
530556 6.48696 8.85495 12.376 13.1827 1.9405 3.74694 40.9006
530566 6.48696 8.85495 12.376 13.1827 1.9405 3.74694 40.9006
530576 6.54783 8.82692 12.3655 13.1547 1.87567 3.72128 40.8949
530596 6.49565 8.87363 12.4074 13.1453 1.90355 3.73274 40.922
530606 6.48696 8.85495 12.2714 13.1266 1.97791 3.70254 40.7399
530616 6.48696 8.85495 12.2714 13.1266 1.97791 3.70254 40.7399
530626 6.48696 8.8456 12.3028 13.1359 1.95715 3.71811 40.7713
530637 6.50435 8.92033 12.3132 13.164 1.9967 3.68659 40.9019
530647 6.50435 8.92033 12.3132 13.164 1.9967 3.68659 40.9019
530658 6.46087 8.81758 12.3132 13.1827 1.97808 3.75879 40.7744
530678 6.46957 8.91099 12.3237 13.1734 2.01277 3.71224 40.8776
530687 6.46087 8.88297 12.376 13.2108 1.98927 3.75377 40.9306
530707 6.48696 8.92967 12.3865 13.1453 1.95462 3.70532 40.9484
530717 6.49565 8.91099 12.3237 13.1547 1.98502 3.69514 40.885
530738 6.51304 8.94835 12.3446 13.1921 2.00178 3.68626 40.9981
530750 6.51304 8.94835 12.2818 13.164 2.02743 3.66113 40.9072
530759 6.51304 8.91099 12.2818 13.164 2.00643 3.67819 40.8699
530770 6.52174 8.87363 12.3132 13.1921 1.97474 3.70774 40.9007
530780 6.52174 8.87363 12.3132 13.1921 1.97474 3.70774 40.9007
530790 6.46087 8.91099 12.376 13.164 1.97872 3.72807 40.9119
530800 6.46957 8.88297 12.3446 13.2295 2.01475 3.74631 40.9266
530820 6.47826 8.93901 12.3028 13.1921 2.0471 3.69484 40.9121
530830 6.4 8.87363 12.3342 13.1547 2.02032 3.75904 40.7624
530840 6.4 8.87363 12.3342 13.1547 2.02032 3.75904 40.7624
530851 6.49565 8.89231 12.3342 13.2201 2.00444 3.72464 40.9423
530860 6.49565 8.89231 12.3342 13.2201 2.00444 3.72464 40.9423
530870 6.50435 8.82692 12.3865 13.1921 1.91164 3.75727 40.9098
530880 6.46957 8.87363 12.3551 13.1827 1.97629 3.74059 40.881
530901 6.46957 8.86429 12.3551 13.3137 2.04459 3.78083 41.0026
530911 6.42609 8.82692 12.3551 13.2201 1.99978 3.79231 40.8282
530931 6.43478 8.78956 12.4074 13.2576 1.95954 3.83008 40.8893
530941 6.43478 8.78956 12.4074 13.2576 1.95954 3.83008 40.8893
530954 6.43478 8.78956 12.376 13.2389 1.9697 3.81638 40.8392
530961 6.46087 8.82692 12.4178 13.2856 1.97228 3.81143 40.9913
530972 6.46087 8.82692 12.4178 13.2856 1.97228 3.81143 40.9913
530982 6.44348 8.80824 12.3865 13.295 1.99917 3.82199 40.9332
530992 6.44348 8.85495 12.3342 13.3043 2.06516 3.78878 40.9369
531002 6.44348 8.85495 12.3342 13.3043 2.06516 3.78878 40.9369
531012 6.4087 8.78956 12.3446 13.3511 2.07083 3.8505 40.894
531023 6.4087 8.78956 12.3446 13.3511 2.07083 3.8505 40.894
531032 6.4087 8.82692 12.376 13.3418 2.06576 3.8393 40.9534
531043 6.4087 8.7989 12.4178 13.4166 2.06433 3.88389 41.0421
531070 6.4087 8.78022 12.4283 13.3511 2.0103 3.87757 40.9683
531088 6.4 8.74286 12.3655 13.3792 2.05228 3.8894 40.8876
531090 6.4 8.74286 12.3655 13.3792 2.05228 3.8894 40.8876
531092 6.35652 8.7989 12.376 13.454 2.14736 3.90673 40.9855
531102 6.35652 8.7989 12.376 13.454 2.14736 3.90673 40.9855
531112 6.4087 8.7522 12.376 13.3698 2.0396 3.88137 40.9067
531122 6.33913 8.74286 12.3865 13.3886 2.08398 3.92577 40.857
531132 6.33913 8.74286 12.3865 13.3886 2.08398 3.92577 40.857
531142 6.42609 8.73352 12.4178 13.3511 1.97949 3.88825 40.9286
531152 6.38261 8.72418 12.2818 13.3418 2.08781 3.87309 40.7304
531172 6.33913 8.80824 12.4074 13.4073 2.1172 3.90628 40.962
531182 6.33913 8.80824 12.4074 13.4073 2.1172 3.90628 40.962
531192 6.36522 8.70549 12.3237 13.3418 2.06104 3.90123 40.7362
531202 6.35652 8.77088 12.376 13.5102 2.16303 3.93484 41.0136
531212 6.35652 8.77088 12.376 13.5102 2.16303 3.93484 41.0136
531222 6.46957 8.76154 12.376 13.4821 2.06751 3.87949 41.0892
531232 6.38261 8.64945 12.4074 13.4073 1.99938 3.95965 40.8467
531242 6.38261 8.64945 12.4074 13.4073 1.99938 3.95965 40.8467
531252 6.34783 8.69615 12.3865 13.454 2.08876 3.96111 40.8845
531262 6.34783 8.69615 12.3865 13.454 2.08876 3.96111 40.8845
531273 6.33913 8.69615 12.3969 13.3886 2.05083 3.95027 40.8208
531284 6.31304 8.71484 12.3865 13.4821 2.13799 3.97615 40.8965
531294 6.31304 8.71484 12.3865 13.4821 2.13799 3.97615 40.8965
531304 6.44348 8.67747 12.376 13.3979 1.99041 3.90744 40.8949
531313 6.44348 8.67747 12.376 13.3979 1.99041 3.90744 40.8949
531323 6.32174 8.67747 12.3865 13.4166 2.07457 3.97179 40.8023
531333 6.33913 8.71484 12.3969 13.426 2.08233 3.95172 40.8769
531343 6.33913 8.71484 12.3969 13.426 2.08233 3.95172 40.8769
531353 6.37391 8.66813 12.3969 13.4166 2.02782 3.95472 40.8556
531363 6.32174 8.70549 12.3865 13.4073 2.08505 3.95624 40.821
531374 6.32174 8.70549 12.3865 13.4073 2.08505 3.95624 40.821
531385 6.35652 8.66813 12.4074 13.4166 2.03241 3.96562 40.8487
531403 6.33043 8.73352 12.3655 13.5102 2.16644 3.96135 40.9397
531413 6.34783 8.66813 12.4074 13.5382 2.10635 4.00241 40.9616
531423 6.34783 8.66813 12.4074 13.5382 2.10635 4.00241 40.9616
531433 6.28696 8.71484 12.4597 13.5289 2.13287 4.0205 40.9904
531443 6.36522 8.64011 12.4178 13.557 2.08272 4.01517 40.9801
531453 6.36522 8.64011 12.4178 13.557 2.08272 4.01517 40.9801
531463 6.37391 8.58407 12.3865 13.5195 2.04534 4.0187 40.864
531473 6.37391 8.58407 12.3865 13.5195 2.04534 4.0187 40.864
531483 6.31304 8.60275 12.4178 13.557 2.09634 4.05681 40.8906
531493 6.32174 8.60275 12.4597 13.5289 2.04715 4.05644 40.9131
531503 6.32174 8.60275 12.4597 13.5289 2.04715 4.05644 40.9131
531513 6.31304 8.60275 12.4178 13.5944 2.11728 4.06681 40.928
531524 6.29565 8.57473 12.4283 13.5289 2.06947 4.07329 40.8276
531533 6.29565 8.57473 12.4283 13.5289 2.06947 4.07329 40.8276
531544 6.30435 8.56538 12.5015 13.5757 2.03628 4.10561 40.9469
531554 6.30435 8.56538 12.5015 13.5757 2.03628 4.10561 40.9469
531564 6.29565 8.59341 12.4492 13.6412 2.12893 4.1001 40.9795
531573 6.31304 8.50934 12.4388 13.585 2.04582 4.11351 40.8462
531585 6.31304 8.50934 12.4388 13.585 2.04582 4.11351 40.8462
531596 6.31304 8.5 12.4911 13.6692 2.05323 4.15414 40.9734
531605 6.34783 8.53736 12.4911 13.6599 2.04597 4.11799 41.0361
531615 6.34783 8.53736 12.4911 13.6599 2.04597 4.11799 41.0361
531625 6.30435 8.55604 12.4806 13.6131 2.06583 4.11436 40.9541
531645 6.31304 8.51868 12.4702 13.5663 2.01979 4.11252 40.8682
531655 6.33043 8.62143 12.3342 13.5382 2.14033 4.01252 40.8243
531665 6.33043 8.62143 12.3342 13.5382 2.14033 4.01252 40.8243
531675 6.29565 8.56538 12.4283 13.5195 2.05896 4.07514 40.8089
531685 6.29565 8.56538 12.4283 13.5195 2.05896 4.07514 40.8089
531702 6.25217 8.62143 12.3969 13.4728 2.1139 4.0483 40.7433
531711 6.3913 8.65879 12.3551 13.5289 2.10173 3.97 40.9341
531729 6.3913 8.65879 12.3551 13.5289 2.10173 3.97 40.9341
531730 6.34783 8.68681 12.3132 13.4821 2.14785 3.95324 40.83
531736 6.36522 8.67747 12.3865 13.4915 2.08774 3.9718 40.9206
531756 6.37391 8.72418 12.3237 13.4915 2.1497 3.92919 40.9132
531766 6.3913 8.7522 12.3655 13.4166 2.08425 3.89926 40.9257
531776 6.3913 8.7522 12.3655 13.4166 2.08425 3.89926 40.9257
531786 6.4 8.83626 12.3551 13.4073 2.12718 3.85114 40.9986
531796 6.4 8.83626 12.3551 13.4073 2.12718 3.85114 40.9986
531806 6.38261 8.77088 12.3446 13.3886 2.09861 3.88134 40.8867
531816 6.46087 8.80824 12.3342 13.3418 2.04847 3.81248 40.945
531826 6.46087 8.80824 12.3342 13.3418 2.04847 3.81248 40.945
531836 6.43478 8.87363 12.3446 13.3418 2.09539 3.7973 40.9948
531847 6.43478 8.87363 12.3446 13.3418 2.09539 3.7973 40.9948
531856 6.45217 8.86429 12.2191 13.295 2.13567 3.74632 40.8305
531866 6.44348 8.85495 12.2295 13.2856 2.12402 3.75491 40.8136
531886 6.4 8.92033 12.3237 13.295 2.13221 3.7733 40.939
531896 6.42609 8.85495 12.3028 13.3043 2.09745 3.78817 40.8881
531907 6.42609 8.85495 12.3028 13.3043 2.09745 3.78817 40.8881
531917 6.50435 8.90165 12.2505 13.2669 2.08546 3.70621 40.9234
531926 6.50435 8.90165 12.2505 13.2669 2.08546 3.70621 40.9234
531936 6.46957 8.83626 12.3028 13.2482 2.02667 3.76136 40.8568
531946 6.46957 8.85495 12.3028 13.2108 2.01613 3.74248 40.8381
531956 6.46957 8.85495 12.3028 13.2108 2.01613 3.74248 40.8381
531966 6.48696 8.88297 12.3342 13.2389 2.01544 3.73804 40.9429
531976 6.48696 8.81758 12.3132 13.2389 1.99249 3.76226 40.8566
531986 6.48696 8.81758 12.3132 13.2389 1.99249 3.76226 40.8566
531996 6.52174 8.80824 12.2609 13.2669 2.01461 3.74391 40.8578
532007 6.52174 8.80824 12.2609 13.2669 2.01461 3.74391 40.8578
532016 6.48696 8.87363 12.24 13.2014 2.05143 3.70601 40.802
532027 6.46087 8.88297 12.3237 13.2482 2.04482 3.74968 40.9157
532037 6.46087 8.88297 12.3237 13.2482 2.04482 3.74968 40.9157
532047 6.53913 8.90165 12.2818 13.2389 2.02601 3.69125 40.9615
532057 6.50435 8.90165 12.2818 13.1921 2.02271 3.69421 40.8799
532067 6.50435 8.90165 12.2818 13.1921 2.02271 3.69421 40.8799
532077 6.55652 8.90165 12.3132 13.2108 1.97811 3.68423 40.9822
532097 6.49565 8.95769 12.2609 13.2108 2.08424 3.67197 40.9251
532107 6.50435 8.88297 12.2505 13.1453 2.00663 3.6811 40.7831
532117 6.50435 8.88297 12.2505 13.1453 2.00663 3.6811 40.7831
532127 6.54783 8.88297 12.2505 13.2014 2.00948 3.67678 40.8827
532137 6.57391 8.92967 12.3028 13.1453 1.95247 3.64252 40.9516
532147 6.57391 8.92967 12.3028 13.1453 1.95247 3.64252 40.9516
532157 6.56522 8.97637 12.2923 13.1359 1.98609 3.61973 40.9698
532167 6.56522 8.97637 12.2923 13.1359 1.98609 3.61973 40.9698
532177 6.53913 8.86429 12.3028 13.0704 1.8962 3.66747 40.7766
532187 6.54783 8.99506 12.1982 13.0517 2.02291 3.56938 40.7928
532208 6.58261 8.92033 12.2191 13.005 1.9174 3.58034 40.727
532227 6.53913 8.94835 12.2505 13.0237 1.95185 3.60142 40.7616
532238 6.52174 8.95769 12.24 13.0892 2.01251 3.62046 40.8086
532248 6.52174 8.95769 12.24 13.0892 2.01251 3.62046 40.8086
532258 6.56522 8.92033 12.1982 13.0424 1.96394 3.5929 40.7261
532268 6.58261 8.97637 12.2714 13.0985 1.96737 3.5956 40.9289
532278 6.58261 8.97637 12.2714 13.0985 1.96737 3.5956 40.9289
532288 6.6087 9.03242 12.2086 13.0892 2.0178 3.5382 40.9389
532299 6.58261 9.01374 12.3028 13.033 1.93087 3.56912 40.9321
532308 6.58261 9.01374 12.3028 13.033 1.93087 3.56912 40.9321
532318 6.57391 9.04176 12.1982 13.0798 2.04769 3.54418 40.8936
532328 6.57391 9.04176 12.1982 13.0798 2.04769 3.54418 40.8936
532338 6.5913 8.96703 12.2086 12.9956 1.93972 3.54954 40.7626
532348 6.56522 8.96703 12.2295 13.0892 1.99593 3.59347 40.8509
532370 6.57391 8.98571 12.2086 13.0424 1.98818 3.56207 40.8106
532380 6.5913 8.99506 12.1668 13.033 2.00436 3.53555 40.7861
532400 6.6 8.95769 12.3028 13.0611 1.90365 3.5945 40.9216
532410 6.6 8.95769 12.3028 13.0611 1.90365 3.5945 40.9216
532420 6.55652 9.04176 12.2505 13.0611 2.0141 3.56147 40.9098
532430 6.57391 9.0044 12.3132 13.0704 1.94552 3.59066 40.962
532450 6.6087 8.99506 12.1354 13.0798 2.03997 3.53198 40.8189
532460 6.6087 8.99506 12.1354 13.0798 2.03997 3.53198 40.8189
532470 6.53043 8.99506 12.2086 13.0517 2.02751 3.58024 40.7858
532480 6.56522 8.99506 12.2295 13.1172 2.02748 3.58856 40.907
532490 6.56522 8.99506 12.2295 13.1172 2.02748 3.58856 40.907
532500 6.58261 8.92967 12.2191 13.1266 1.99139 3.61009 40.8579
532510 6.6 9.01374 12.1982 13.164 2.06194 3.56859 40.9759
532530 6.6 9.04176 12.24 13.0424 1.9818 3.5336 40.9241
532550 6.51304 8.95769 12.1982 13.0798 2.04074 3.61014 40.7487
532560 6.52174 9.03242 12.1772 13.1359 2.12235 3.58196 40.8673
532570 6.52174 9.03242 12.1772 13.1359 2.12235 3.58196 40.8673
532580 6.5913 9.03242 12.1145 12.9956 2.039 3.49329 40.7338
532591 6.6 9.02308 12.1458 13.0517 2.03877 3.51826 40.8207
532601 6.6 9.02308 12.1458 13.0517 2.03877 3.51826 40.8207
532611 6.61739 9.0978 12.1772 13.0611 2.05371 3.48803 40.9535
532631 6.55652 9.01374 12.1458 13.164 2.12534 3.57372 40.8801
532641 6.56522 9.07912 12.104 13.1266 2.16299 3.5179 40.8749
532652 6.56522 9.07912 12.104 13.1266 2.16299 3.5179 40.8749
532662 6.6 9.0978 12.1668 13.1359 2.11398 3.51395 41.0005
532672 6.56522 9.07912 12.1354 13.1453 2.1526 3.53195 40.925
532684 6.56522 9.07912 12.1354 13.1453 2.1526 3.53195 40.925
532692 6.58261 9.06978 12.104 13.005 2.07802 3.47997 40.7613
532702 6.54783 9.06978 12.0831 13.0517 2.14135 3.50306 40.7524
532712 6.54783 9.06978 12.0831 13.0517 2.14135 3.50306 40.7524
532722 6.6087 9.12582 12.0831 13.0143 2.11132 3.43954 40.8319
532732 6.6087 9.12582 12.0831 13.0143 2.11132 3.43954 40.8319
532742 6.6087 9.07912 12.0935 12.9862 2.06238 3.45567 40.7676
532752 6.6 9.08846 12.104 13.0985 2.12943 3.49003 40.891
532763 6.6 9.08846 12.104 13.0985 2.12943 3.49003 40.891
532773 6.62609 9.14451 12.0517 13.0517 2.15201 3.42498 40.874
532785 6.58261 9.12582 12.0935 13.0517 2.14265 3.46486 40.8537
532794 6.58261 9.12582 12.0935 13.0517 2.14265 3.46486 40.8537
532803 6.61739 9.13517 12.1458 13.0611 2.09537 3.46234 40.9595
532813 6.61739 9.13517 12.1458 13.0611 2.09537 3.46234 40.9595
532823 6.58261 9.0978 12.1458 13.0611 2.09749 3.49492 40.8873
532833 6.54783 9.17253 12.0517 13.0424 2.21453 3.445 40.8144
532853 6.62609 9.13517 12.0935 13.0517 2.11902 3.44102 40.9065
532865 6.62609 9.13517 12.0517 13.0517 2.14679 3.42919 40.8647
532873 6.56522 9.10714 12.0517 13.0424 2.16637 3.46672 40.7664
532885 6.65217 9.20989 12.1145 13.0985 2.15567 3.41481 41.075
532905 6.57391 9.14451 12.0726 13.0143 2.15185 3.44385 40.8053
532915 6.6087 9.12582 12.0517 13.0424 2.14789 3.4386 40.8286
532925 6.6087 9.12582 12.0517 13.0424 2.14789 3.4386 40.8286
532935 6.63478 9.16319 12.0726 12.9207 2.06939 3.38138 40.7913
532945 6.6087 9.22857 12.0517 12.9582 2.15827 3.36839 40.8471
532955 6.6087 9.22857 12.0517 12.9582 2.15827 3.36839 40.8471
532965 6.66087 9.15385 12.0098 13.0424 2.1567 3.39058 40.8669
532976 6.66087 9.15385 12.0098 13.0424 2.1567 3.39058 40.8669
532985 6.63478 9.19121 12.0098 12.9395 2.13735 3.35619 40.7753
532994 6.67826 9.20055 12.0098 12.9675 2.1294 3.34046 40.8562
533011 6.67826 9.20055 12.0098 12.9675 2.1294 3.34046 40.8562
533015 6.66957 9.18187 12.0622 12.902 2.05325 3.349 40.8156
533025 6.72174 9.22857 12.0517 12.9207 2.06235 3.30701 40.9228
533035 6.72174 9.22857 12.0517 12.9207 2.06235 3.30701 40.9228
533045 6.73043 9.20055 12.0412 12.8646 2.01625 3.2966 40.8368
533055 6.73043 9.20055 12.0412 12.8646 2.01625 3.2966 40.8368
533065 6.73043 9.16319 11.9575 12.902 2.07177 3.30009 40.7532
533077 6.72174 9.21923 11.9785 12.9488 2.12136 3.29827 40.8682
533085 6.72174 9.21923 11.9785 12.9488 2.12136 3.29827 40.8682
533095 6.72174 9.16319 11.9994 12.874 2.03396 3.30795 40.7583
533105 6.72174 9.16319 11.9994 12.874 2.03396 3.30795 40.7583
533115 6.71304 9.16319 11.9785 12.874 2.05362 3.30585 40.7287
533125 6.71304 9.25659 11.9785 12.874 2.10613 3.26397 40.8221
533136 6.71304 9.25659 11.9785 12.874 2.10613 3.26397 40.8221
533145 6.7913 9.27527 11.9785 12.8272 2.03848 3.20722 40.8722
533155 6.71304 9.34066 11.968 12.8085 2.12349 3.20453 40.8302
533165 6.71304 9.34066 11.968 12.8085 2.12349 3.20453 40.8302
533175 6.78261 9.27527 11.968 12.874 2.07741 3.22156 40.8998
533187 6.78261 9.27527 11.968 12.874 2.07741 3.22156 40.8998
533195 6.77391 9.27527 11.9785 12.8085 2.03948 3.20957 40.8361
533205 6.77391 9.37802 11.968 12.8085 2.10403 3.16084 40.9284
533215 6.77391 9.37802 11.968 12.8085 2.10403 3.16084 40.9284
533225 6.8 9.28462 11.8948 12.7243 2.03552 3.14508 40.7037
533235 6.76522 9.27527 11.968 12.7617 2.02584 3.19689 40.7702
533245 6.76522 9.27527 11.968 12.7617 2.02584 3.19689 40.7702
533255 6.74783 9.33132 11.9366 12.7804 2.10025 3.17599 40.7962
533265 6.74783 9.33132 11.9366 12.7804 2.10025 3.17599 40.7962
533275 6.76522 9.28462 11.9575 12.743 2.02749 3.18427 40.7504
533285 6.7913 9.31264 11.9366 12.7804 2.06091 3.16495 40.821
533295 6.7913 9.31264 11.9366 12.7804 2.06091 3.16495 40.821
533305 6.8 9.35934 11.9366 12.7711 2.07611 3.13761 40.867
533316 6.8 9.35934 11.9366 12.7711 2.07611 3.13761 40.867
533325 6.75652 9.28462 11.9889 12.743 2.01246 3.19725 40.773
533335 6.7913 9.37802 11.9471 12.8085 2.10637 3.14707 40.9249
533345 6.7913 9.37802 11.9471 12.8085 2.10637 3.14707 40.9249
533356 6.75652 9.35934 11.9366 12.7149 2.07342 3.14062 40.7674
533365 6.72174 9.33132 11.968 12.8272 2.12296 3.21022 40.8482
533376 6.72174 9.33132 11.968 12.8272 2.12296 3.21022 40.8482
533386 6.76522 9.33132 11.9575 12.7711 2.06957 3.1716 40.8251
533396 6.76522 9.33132 11.9575 12.7711 2.06957 3.1716 40.8251
533417 6.77391 9.3033 11.968 12.7243 2.01478 3.16967 40.7695
533420 6.75652 9.31264 12.0517 12.7617 1.99726 3.2083 40.8825
533426 6.75652 9.31264 12.0517 12.7617 1.99726 3.2083 40.8825
533436 6.78261 9.26593 12.0935 12.7336 1.91031 3.22146 40.8757
533453 6.68696 9.3033 11.9785 12.7336 2.07083 3.21425 40.7023
533456 6.68696 9.3033 11.9785 12.7336 2.07083 3.21425 40.7023
533466 6.74783 9.25659 12.0308 12.8085 2.01162 3.24462 40.8437
533478 6.74783 9.25659 12.0308 12.8085 2.01162 3.24462 40.8437
533486 6.76522 9.14451 12.0412 12.8272 1.94053 3.2954 40.7781
533496 6.71304 9.17253 12.0831 12.9207 2.0159 3.34497 40.8894
533507 6.71304 9.17253 12.0831 12.9207 2.0159 3.34497 40.8894
533516 6.70435 9.24725 12.104 12.8553 2.01301 3.30266 40.9109
533526 6.70435 9.08846 12.1145 12.874 1.92712 3.3823 40.7812
533547 6.69565 9.06044 12.1563 12.9769 1.94755 3.43994 40.8893
533557 6.69565 9.06044 12.1563 12.9769 1.94755 3.43994 40.8893
533567 6.68696 9.03242 12.2191 12.9488 1.88029 3.4663 40.8873
533577 6.66087 9.01374 12.24 12.9582 1.87841 3.49508 40.8728
533587 6.66087 9.01374 12.24 12.9582 1.87841 3.49508 40.8728
533598 6.62609 8.95769 12.1458 13.0143 1.96352 3.52557 40.7439
533610 6.6 8.99506 12.1668 13.0798 2.02495 3.54474 40.8416
533619 6.6 8.99506 12.1668 13.0798 2.02495 3.54474 40.8416
533627 6.5913 8.99506 12.1877 13.0798 2.01686 3.55455 40.8539
533638 6.5913 8.99506 12.1877 13.0798 2.01686 3.55455 40.8539
533651 6.55652 8.96703 12.2714 13.1266 1.9951 3.61952 40.9215
533660 6.5913 8.94835 12.2295 13.1172 1.98399 3.59793 40.8864
533667 6.5913 8.94835 12.2295 13.1172 1.98399 3.59793 40.8864
533677 6.55652 8.99506 12.2086 13.1172 2.04706 3.58667 40.8774
533687 6.52174 8.93901 12.2505 13.164 2.03719 3.65272 40.8752
533697 6.52174 8.93901 12.2505 13.164 2.03719 3.65272 40.8752
533707 6.56522 8.92033 12.3446 13.2108 1.96224 3.68042 41.0409
533718 6.56522 8.92033 12.3446 13.2108 1.96224 3.68042 41.0409
533728 6.57391 8.91099 12.2818 13.164 1.96627 3.65042 40.9308
533738 6.53913 8.86429 12.3132 13.1734 1.94747 3.69889 40.89
533758 6.52174 8.86429 12.2609 13.2295 2.02508 3.7079 40.8764
533768 6.47826 8.86429 12.2609 13.1266 1.99587 3.69934 40.7301
533846 6.47826 8.86429 12.2609 13.1266 1.99587 3.69934 40.7301
533848 6.49565 8.78022 12.3028 13.1359 1.91438 3.74418 40.7146
533850 6.43478 8.70549 12.376 13.3792 2.00139 3.89343 40.8955
533861 6.43478 8.70549 12.376 13.3792 2.00139 3.89343 40.8955
533870 6.42609 8.73352 12.376 13.4166 2.04388 3.89467 40.9522
533890 6.41739 8.67747 12.4074 13.3979 1.98691 3.92801 40.9002
533900 6.3913 8.64011 12.4597 13.454 1.98018 3.98667 40.9452
533911 6.3913 8.64011 12.4597 13.454 1.98018 3.98667 40.9452
533920 6.35652 8.65879 12.3551 13.454 2.08285 3.96594 40.8244
533930 6.34783 8.66813 12.4597 13.454 2.02461 3.99384 40.9297
533940 6.34783 8.66813 12.4597 13.454 2.02461 3.99384 40.9297
533950 6.34783 8.63077 12.376 13.454 2.05899 3.98866 40.8086
533960 6.34783 8.63077 12.376 13.454 2.05899 3.98866 40.8086
533970 6.32174 8.62143 12.4806 13.5289 2.0438 4.05334 40.9527
533980 6.31304 8.62143 12.5329 13.5382 2.02028 4.07384 41.0056
534001 6.33043 8.63077 12.4388 13.5382 2.07618 4.03626 40.9382
534011 6.27826 8.56538 12.5225 13.557 2.02919 4.11838 40.9231
534022 6.27826 8.56538 12.5225 13.557 2.02919 4.11838 40.9231
534032 6.28696 8.57473 12.512 13.585 2.05134 4.11464 40.9587
534041 6.28696 8.57473 12.512 13.585 2.05134 4.11464 40.9587
534051 6.21739 8.52802 12.4702 13.6692 2.1461 4.18027 40.8848
534061 6.17391 8.55604 12.512 13.6599 2.15761 4.19612 40.9018
534081 6.21739 8.50934 12.5015 13.6505 2.10435 4.19239 40.8788
534091 6.16522 8.4533 12.5852 13.6973 2.07828 4.27765 40.901
534111 6.1913 8.41593 12.5748 13.6692 2.03121 4.27286 40.8512
534124 6.1913 8.41593 12.5748 13.6692 2.03121 4.27286 40.8512
534131 6.18261 8.35989 12.648 13.7534 2.0044 4.34458 40.9439
534141 6.14783 8.42527 12.6375 13.7909 2.09186 4.33715 41.0015
534151 6.14783 8.42527 12.6375 13.7909 2.09186 4.33715 41.0015
534161 6.14783 8.40659 12.5957 13.7815 2.10387 4.33263 40.9316
534171 6.2 8.42527 12.5852 13.8283 2.11284 4.3087 41.0388
534182 6.2 8.42527 12.5852 13.8283 2.11284 4.3087 41.0388
534191 6.21739 8.40659 12.5538 13.7909 2.09075 4.29135 40.9687
534201 6.21739 8.40659 12.5538 13.7909 2.09075 4.29135 40.9687
534211 6.18261 8.42527 12.5538 13.8002 2.12944 4.30137 40.962
534222 6.15652 8.4533 12.5957 13.8002 2.13464 4.31138 41.0057
534232 6.15652 8.4533 12.5957 13.8002 2.13464 4.31138 41.0057
534242 6.22609 8.4533 12.5643 13.7909 2.10418 4.26803 41.0346
534252 6.1913 8.39725 12.6166 13.7815 2.05606 4.32198 40.9867
534262 6.1913 8.39725 12.6166 13.7815 2.05606 4.32198 40.9867
534272 6.15652 8.36923 12.5748 13.8096 2.10676 4.34804 40.9101
534282 6.15652 8.36923 12.5748 13.8096 2.10676 4.34804 40.9101
534292 6.18261 8.37857 12.5643 13.7628 2.07544 4.31637 40.8883
534303 6.2087 8.37857 12.5434 13.7254 2.05102 4.28878 40.856
534313 6.2087 8.37857 12.5434 13.7254 2.05102 4.28878 40.856
534323 6.1913 8.38791 12.5015 13.6879 2.07452 4.27176 40.7687
534335 6.16522 8.39725 12.4911 13.7067 2.11457 4.28185 40.7602
534353 6.2087 8.5 12.5434 13.6225 2.06141 4.20451 40.8745
534363 6.2087 8.5 12.5434 13.6225 2.06141 4.20451 40.8745
534373 6.23478 8.53736 12.512 13.6318 2.09111 4.16891 40.916
534383 6.28696 8.5467 12.5015 13.6599 2.08445 4.1448 40.9951
534393 6.28696 8.5467 12.5015 13.6599 2.08445 4.1448 40.9951
534404 6.28696 8.57473 12.4702 13.6037 2.08948 4.10849 40.9356
534413 6.27826 8.57473 12.4074 13.5195 2.08964 4.07331 40.7799
534435 6.38261 8.62143 12.4492 13.5195 2.0191 4.01415 40.9728
534455 6.33043 8.62143 12.4283 13.454 2.03061 4.0152 40.8342
534465 6.4 8.67747 12.4178 13.4634 2.02828 3.95658 40.9587
534475 6.4 8.67747 12.4178 13.4634 2.02828 3.95658 40.9587
534485 6.37391 8.69615 12.376 13.3979 2.04691 3.931 40.844
534495 6.37391 8.74286 12.3132 13.3605 2.09374 3.88213 40.7905
534508 6.37391 8.74286 12.3132 13.3605 2.09374 3.88213 40.7905
534515 6.35652 8.7522 12.3865 13.3605 2.06195 3.90578 40.8557
534526 6.35652 8.7522 12.3865 13.3605 2.06195 3.90578 40.8557
534535 6.37391 8.73352 12.2923 13.3511 2.09715 3.8782 40.7509
534548 6.38261 8.77088 12.3132 13.4353 2.14559 3.88553 40.9021
534570 6.38261 8.77088 12.3132 13.4353 2.14559 3.88553 40.9021
534571 6.3913 8.78022 12.3865 13.295 2.01787 3.85893 40.853
534577 6.38261 8.77088 12.3237 13.3324 2.081 3.86035 40.8096
534586 6.38261 8.77088 12.3237 13.3324 2.081 3.86035 40.8096
534597 6.37391 8.76154 12.3865 13.295 2.01887 3.8756 40.8169
534616 6.42609 8.72418 12.3655 13.3605 2.01402 3.88089 40.8763
534626 6.4087 8.73352 12.3969 13.3886 2.0258 3.90076 40.9277
534636 6.4087 8.73352 12.3969 13.3886 2.0258 3.90076 40.9277
534648 6.4 8.78956 12.3865 13.3324 2.0384 3.86081 40.9084
534656 6.4 8.78956 12.3865 13.3324 2.0384 3.86081 40.9084
534666 6.42609 8.72418 12.2923 13.3231 2.04145 3.85071 40.7656
534676 6.46087 8.78022 12.3865 13.3324 1.99299 3.83708 40.96
534686 6.46087 8.78022 12.3865 13.3324 1.99299 3.83708 40.96
534696 6.46087 8.80824 12.3446 13.295 2.01531 3.80255 40.9087
534706 6.46957 8.81758 12.3237 13.295 2.02863 3.78853 40.9058
534716 6.46957 8.81758 12.3237 13.295 2.02863 3.78853 40.9058
534726 6.45217 8.7989 12.3237 13.295 2.02963 3.80511 40.8698
534746 6.41739 8.83626 12.4178 13.2669 1.99565 3.822 40.9384
534757 6.4087 8.80824 12.3551 13.2669 2.02711 3.82175 40.8389
534767 6.4087 8.80824 12.3551 13.2669 2.02711 3.82175 40.8389
534777 6.47826 8.86429 12.3551 13.2482 2.00213 3.75889 40.9458
534788 6.48696 8.83626 12.4074 13.2482 1.94621 3.78209 40.9788
534797 6.48696 8.83626 12.4074 13.2482 1.94621 3.78209 40.9788
534807 6.50435 8.89231 12.3237 13.2295 2.01086 3.72036 40.9498
534817 6.44348 11.2181 12.3342 13.1453 3.23693 2.71823 43.1411
534827 6.44348 8.82692 12.3342 13.1453 1.95988 3.75795 40.7498
534887 6.48696 8.8456 12.2609 13.1453 1.99013 3.70912 40.7388
534888 6.48696 8.8456 12.2609 13.1453 1.99013 3.70912 40.7388
534898 6.53913 8.90165 12.2818 13.1359 1.96813 3.66276 40.8586
534907 6.53913 8.92967 12.2818 13.1359 1.98392 3.64997 40.8866
534926 6.55652 8.92967 12.2923 13.1266 1.96028 3.64234 40.9051
534937 6.55652 8.92967 12.2923 13.1266 1.96028 3.64234 40.9051
534938 6.54783 8.92967 12.2609 13.1359 1.99199 3.64019 40.8744
534949 6.56522 8.97637 12.1877 13.1359 2.05517 3.5906 40.8652
534960 6.56522 8.97637 12.1877 13.1359 2.05517 3.5906 40.8652
534970 6.56522 8.96703 12.2086 13.1172 2.02556 3.59547 40.8581
534980 6.53043 8.94835 12.1877 13.1547 2.07299 3.62443 40.8211
534990 6.53043 8.94835 12.1877 13.1547 2.07299 3.62443 40.8211
535000 6.57391 9.0044 12.1877 13.1266 2.05989 3.5713 40.8926
535010 6.57391 9.0044 12.1877 13.1266 2.05989 3.5713 40.8926
535020 6.57391 9.0044 12.24 13.0892 2.0043 3.57545 40.9075
535030 6.52174 8.96703 12.2609 13.0985 2.0092 3.62464 40.8482
535050 6.55652 9.03242 12.1982 13.1827 2.11159 3.58505 40.9698
535062 6.57391 9.04176 12.1877 13.0611 2.0441 3.536 40.8645
535070 6.57391 9.04176 12.1877 13.0611 2.0441 3.536 40.8645
535080 6.54783 8.94835 12.1354 13.1079 2.06987 3.58881 40.7394
535102 6.56522 8.99506 12.1772 13.0611 2.03052 3.55823 40.7986
535121 6.6 9.06978 12.1249 13.1079 2.11034 3.507 40.9026
535131 6.55652 9.07912 12.1772 13.1172 2.11494 3.53975 40.9301
535141 6.57391 9.04176 12.1982 13.0985 2.05818 3.54942 40.9123
535151 6.57391 9.04176 12.1982 13.0985 2.05818 3.54942 40.9123
535161 6.5913 9.02308 12.1982 13.0985 2.0362 3.55 40.911
535172 6.5913 9.02308 12.1982 13.0985 2.0362 3.55 40.911
535182 6.55652 8.98571 12.2191 13.1079 2.02964 3.59123 40.8692
535192 6.54783 9.04176 12.1772 13.0985 2.08931 3.5554 40.8653
535202 6.54783 9.04176 12.1772 13.0985 2.08931 3.5554 40.8653
535212 6.6 9.0044 12.1354 13.0611 2.04046 3.52643 40.8009
535222 6.5913 9.02308 12.1458 13.0892 2.06557 3.53272 40.8494
535233 6.5913 9.02308 12.1458 13.0892 2.06557 3.53272 40.8494
535242 6.56522 9.04176 12.1563 13.0517 2.0654 3.5285 40.815
535252 6.56522 9.04176 12.1563 13.0517 2.0654 3.5285 40.815
535265 6.54783 9.06044 12.1772 13.1359 2.12072 3.55739 40.9214
535272 6.64348 9.07912 12.1668 13.0517 2.02768 3.47911 40.9411
535292 6.5913 9.07912 12.1145 13.0424 2.09158 3.48532 40.8273
535302 6.61739 9.0511 12.0935 13.0798 2.09343 3.49085 40.8418
535313 6.61739 9.0511 12.0935 13.0798 2.09343 3.49085 40.8418
535323 6.63478 9.10714 12.104 13.0143 2.06966 3.44212 40.8602
535332 6.63478 9.10714 12.104 13.0143 2.06966 3.44212 40.8602
535342 6.6087 9.06044 12.0517 12.9769 2.0744 3.44962 40.6977
535352 6.66087 9.06978 12.0203 12.9956 2.07637 3.41817 40.7466
535365 6.66087 9.06978 12.0203 12.9956 2.07637 3.41817 40.7466
535372 6.63478 9.10714 12.0308 12.9488 2.08146 3.40275 40.7215
535382 6.61739 9.10714 12.0726 12.902 2.03884 3.4092 40.6992
535392 6.61739 9.10714 12.0726 12.902 2.03884 3.4092 40.6992
535402 6.62609 9.13517 12.0622 12.9675 2.09266 3.40827 40.7909
535413 6.62609 9.13517 12.0622 12.9675 2.09266 3.40827 40.7909
535422 6.66087 9.10714 12.0203 12.902 2.04471 3.37463 40.6904
535432 6.67826 9.18187 12.0517 12.9301 2.07019 3.35011 40.8419
535443 6.67826 9.18187 12.0517 12.9301 2.07019 3.35011 40.8419
535452 6.70435 9.18187 12.0308 12.9395 2.07202 3.3351 40.8564
535462 6.70435 9.18187 12.0308 12.9395 2.07202 3.3351 40.8564
535472 6.66957 9.20989 11.9889 12.902 2.11761 3.31546 40.7704
535483 6.72174 9.21923 12.0308 12.902 2.06046 3.29986 40.8738
535492 6.72174 9.21923 12.0308 12.902 2.06046 3.29986 40.8738
535502 6.71304 9.20055 11.9889 12.8833 2.07297 3.29477 40.7858
535512 6.72174 9.19121 12.0412 12.902 2.0378 3.3154 40.8562
535522 6.72174 9.19121 12.0412 12.902 2.0378 3.3154 40.8562
535532 6.69565 9.20055 11.9471 12.8646 2.10182 3.28517 40.7079
535542 6.69565 9.20055 11.9471 12.8646 2.10182 3.28517 40.7079
535553 6.73043 9.18187 11.9785 12.8833 2.05786 3.29234 40.7741
535568 6.73043 9.19121 11.9994 12.9488 2.08602 3.31292 40.8698
535573 6.73043 9.19121 11.9994 12.9488 2.08602 3.31292 40.8698
535583 6.77391 9.20055 11.968 12.874 2.04121 3.2588 40.8164
535593 6.72174 9.20989 11.9575 12.902 2.10379 3.28304 40.7912
535603 6.72174 9.20989 11.9575 12.902 2.10379 3.28304 40.7912
535613 6.68696 9.26593 11.9785 12.9395 2.16535 3.29026 40.8708
535623 6.68696 9.26593 11.9785 12.9395 2.16535 3.29026 40.8708
535633 6.71304 9.17253 12.0203 12.9301 2.06269 3.32973 40.836
535644 6.74783 9.17253 11.9366 12.9769 2.12138 3.30356 40.8339
535654 6.74783 9.17253 11.9366 12.9769 2.12138 3.30356 40.8339
535663 6.73913 9.21923 11.8948 12.8833 2.12872 3.24761 40.7365
535673 6.72174 9.12582 11.9994 12.9582 2.06033 3.34884 40.8051
535693 6.72174 9.20989 12.0308 12.9395 2.07621 3.31474 40.9019
535704 6.72174 9.20989 12.0308 12.9395 2.07621 3.31474 40.9019
535713 6.68696 9.12582 12.0412 12.9769 2.06616 3.38175 40.8309
535723 6.70435 9.19121 12.0831 13.005 2.07933 3.36444 40.9836
535733 6.70435 9.19121 12.0831 13.005 2.07933 3.36444 40.9836
535743 6.66957 9.16319 12.0412 13.0237 2.12485 3.38607 40.8976
535753 6.66957 9.16319 12.0412 13.0237 2.12485 3.38607 40.8976
535764 6.65217 9.16319 12.0935 12.9488 2.05976 3.38749 40.8577
535773 6.66957 9.15385 12.0726 12.9956 2.0831 3.39121 40.8916
535784 6.66957 9.15385 12.0726 12.9956 2.0831 3.39121 40.8916
535793 6.61739 9.17253 12.104 12.9956 2.10735 3.41518 40.8895
535803 6.64348 9.11648 12.104 13.0143 2.06914 3.43398 40.8783
535824 6.68696 9.13517 12.0726 12.9769 2.05061 3.38647 40.8716
535833 6.68696 9.13517 12.0726 12.9769 2.05061 3.38647 40.8716
535843 6.61739 9.13517 12.0517 13.005 2.12638 3.41985 40.8092
535853 6.70435 9.13517 12.1145 13.005 2.02722 3.39849 40.9589
535863 6.70435 9.13517 12.1145 13.005 2.02722 3.39849 40.9589
535873 6.67826 9.12582 12.0517 12.9769 2.06499 3.38864 40.8327
535883 6.65217 9.14451 12.0726 13.0237 2.10512 3.4112 40.893
535893 6.65217 9.14451 12.0726 13.0237 2.10512 3.4112 40.893
535905 6.62609 9.11648 12.0622 12.9675 2.08216 3.4167 40.7723
535914 6.62609 9.11648 12.0622 12.9675 2.08216 3.4167 40.7723
535923 6.65217 9.13517 12.0098 12.9582 2.10483 3.37895 40.7554
535935 6.62609 9.10714 12.0308 12.9769 2.10303 3.41466 40.7409
535945 6.62609 9.10714 12.0308 12.9769 2.10303 3.41466 40.7409
535955 6.63478 9.06978 12.1249 13.005 2.02955 3.46226 40.8344
535965 6.66087 9.06978 12.104 13.0517 2.05242 3.45778 40.8864
535975 6.66087 9.06978 12.104 13.0517 2.05242 3.45778 40.8864
535985 6.66087 9.08846 12.1249 13.0143 2.02806 3.44469 40.8886
535995 6.66087 9.08846 12.1249 13.0143 2.02806 3.44469 40.8886
536007 6.63478 9.10714 12.1354 13.0611 2.07511 3.46419 40.9384
536015 6.64348 9.07912 12.1668 13.0892 2.04865 3.48963 40.9785
536025 6.64348 9.07912 12.1668 13.0892 2.04865 3.48963 40.9785
536035 6.65217 9.0978 12.1145 12.9956 2.03546 3.43615 40.86
536045 6.66957 9.0978 12.1249 13.0704 2.05904 3.45241 40.9627
536055 6.66957 9.0044 12.1249 13.0704 2.00661 3.49458 40.8693
536065 6.65217 9.0511 12.1668 13.0611 2.01146 3.49047 40.9311
536075 6.65217 9.0511 12.1668 13.0611 2.01146 3.49047 40.9311
536085 6.64348 9.07912 12.1982 13.0424 2.00172 3.48531 40.9631
536095 6.6 8.98571 12.1877 13.0704 2.00059 3.55222 40.8439
536105 6.6 8.98571 12.1877 13.0704 2.00059 3.55222 40.8439
536115 6.62609 8.97637 12.2086 13.1266 1.99587 3.56618 40.9377
536125 6.62609 8.97637 12.2086 13.1266 1.99587 3.56618 40.9377
536135 6.57391 8.94835 12.1563 13.1547 2.06498 3.59586 40.8332
536145 6.55652 8.92033 12.24 13.164 2.0106 3.64247 40.8809
536155 6.55652 8.92033 12.24 13.164 2.0106 3.64247 40.8809
536165 6.53913 8.91099 12.2609 13.0798 1.95555 3.63707 40.7908
536174 6.55652 8.89231 12.24 13.1453 1.9843 3.65006 40.8341
536190 6.55652 8.89231 12.24 13.1453 1.9843 3.65006 40.8341
536198 6.56522 8.86429 12.2191 13.1921 2.00295 3.66607 40.8407
536215 6.56522 8.91099 12.2295 13.1827 2.01704 3.64506 40.8885
536226 6.57391 8.89231 12.3237 13.2014 1.94927 3.68086 40.9913
536236 6.57391 8.89231 12.3237 13.2014 1.94927 3.68086 40.9913
536246 6.53043 8.87363 12.3237 13.2201 1.97791 3.71439 40.9479
536256 6.55652 8.93901 12.2714 13.2763 2.0633 3.67374 41.0432
536266 6.55652 8.93901 12.2714 13.2763 2.0633 3.67374 41.0432
536276 6.55652 8.91099 12.2505 13.1453 1.98791 3.64444 40.8633
536296 6.54783 8.85495 12.1982 13.1359 1.99138 3.65688 40.7369
536307 6.53043 8.92033 12.2505 13.164 2.02093 3.65728 40.8652
536316 6.53043 8.92033 12.2505 13.164 2.02093 3.65728 40.8652
536327 6.54783 8.92033 12.1982 13.1827 2.05456 3.64001 40.849
536338 6.57391 8.92033 12.1563 13.2108 2.08076 3.62428 40.8613
536357 6.55652 8.97637 12.2086 13.1827 2.07331 3.61342 40.9242
536367 6.54783 8.96703 12.3028 13.2389 2.04309 3.66328 41.0565
536379 6.54783 8.96703 12.3028 13.2389 2.04309 3.66328 41.0565
536387 6.53913 8.96703 12.2923 13.2014 2.03478 3.654 40.9999
536408 6.56522 9.01374 12.1982 13.2014 2.10586 3.5948 40.9785
536421 6.51304 8.98571 12.2086 13.1172 2.07061 3.61072 40.8246
536438 6.54783 8.95769 12.1354 13.0798 2.05933 3.57668 40.7207
536448 6.52174 9.02308 12.1354 13.1172 2.13444 3.56927 40.7974
536470 6.53913 8.93901 12.1249 13.1266 2.08788 3.59936 40.7296
536490 6.52174 8.92967 12.1458 13.1172 2.07501 3.61481 40.7145
536500 6.50435 9.0044 12.1458 13.1266 2.13382 3.59125 40.7812
536520 6.54783 8.97637 12.0935 13.1734 2.15021 3.58266 40.7911
536531 6.54783 9.04176 12.1668 13.1359 2.11721 3.56294 40.8923
536540 6.54783 9.04176 12.1668 13.1359 2.11721 3.56294 40.8923
536550 6.54783 9.04176 12.0726 13.0985 2.15884 3.52602 40.7607
536571 6.52174 9.06044 12.104 13.0985 2.16577 3.53822 40.7847
536581 6.57391 9.04176 12.1354 13.0985 2.09976 3.53182 40.8496
536591 6.57391 9.04176 12.1354 13.0985 2.09976 3.53182 40.8496
536601 6.57391 9.07912 12.104 13.0704 2.12581 3.49816 40.8275
536611 6.6087 9.14451 12.1458 13.1172 2.13768 3.47784 41.0163
536621 6.6087 9.14451 12.1458 13.1172 2.13768 3.47784 41.0163
536632 6.62609 9.0978 12.104 13.0704 2.10165 3.46611 40.8983
536642 6.62609 9.0978 12.0726 13.0704 2.12246 3.45726 40.867
536652 6.57391 9.12582 12.0726 13.0424 2.15711 3.46024 40.8147
536662 6.55652 9.08846 12.0831 13.0892 2.16699 3.50119 40.8172
536672 6.55652 9.08846 12.0831 13.0892 2.16699 3.50119 40.8172
536682 6.53043 9.06978 12.1877 13.1547 2.14099 3.56919 40.9426
536692 6.52174 9.0978 12.104 13.0985 2.18667 3.52125 40.8221
536703 6.52174 9.0978 12.104 13.0985 2.18667 3.52125 40.8221
536712 6.58261 9.08846 12.1354 13.1079 2.12538 3.50935 40.9143
536724 6.58261 9.08846 12.1354 13.1079 2.12538 3.50935 40.9143
536732 6.51304 9.06044 12.1877 13.0424 2.08443 3.54991 40.8036
536743 6.53043 9.04176 12.24 13.1547 2.0907 3.59649 40.9668
536753 6.53043 9.04176 12.24 13.1547 2.0907 3.59649 40.9668
536763 6.55652 9.02308 12.1458 13.0985 2.09388 3.55114 40.824
536774 6.53913 8.99506 12.2191 13.1079 2.04639 3.59489 40.8611
536783 6.53913 8.99506 12.2191 13.1079 2.04639 3.59489 40.8611
536793 6.52174 9.06044 12.1563 13.1172 2.14145 3.55814 40.8557
536805 6.47826 9.0044 12.2086 13.1172 2.10418 3.61806 40.8085
536814 6.47826 9.0044 12.2086 13.1172 2.10418 3.61806 40.8085
536835 6.54783 8.93901 12.2295 13.2014 2.05477 3.6454 40.9178
536836 6.54783 8.93901 12.2295 13.2014 2.05477 3.6454 40.9178
536846 6.54783 8.91099 12.2086 13.1453 2.02133 3.63677 40.8127
536856 6.51304 8.95769 12.3132 13.2201 2.04343 3.68109 41.0041
536865 6.51304 8.95769 12.3132 13.2201 2.04343 3.68109 41.0041
536875 6.46957 8.89231 12.2818 13.2108 2.05099 3.71957 40.8545
536886 6.45217 8.8456 12.24 13.295 2.11131 3.76066 40.8328
536895 6.45217 8.8456 12.24 13.295 2.11131 3.76066 40.8328
536905 6.49565 8.86429 12.3969 13.3043 1.99462 3.77777 41.0612
536915 6.49565 8.86429 12.3969 13.3043 1.99462 3.77777 41.0612
536925 6.47826 8.80824 12.3865 13.2482 1.94993 3.79321 40.9212
536936 6.43478 8.88297 12.3132 13.295 2.09521 3.77162 40.926
536945 6.43478 8.88297 12.3132 13.295 2.09521 3.77162 40.926
536955 6.52174 8.86429 12.3028 13.2856 2.02896 3.73491 40.9744
536966 6.46087 8.85495 12.3655 13.2014 1.97514 3.76118 40.8828
536976 6.46087 8.85495 12.3655 13.2014 1.97514 3.76118 40.8828
536986 6.3913 8.83626 12.376 13.2576 2.03526 3.82001 40.8611
536996 6.3913 8.83626 12.376 13.2576 2.03526 3.82001 40.8611
537006 6.4087 8.77088 12.2923 13.2295 2.02657 3.8115 40.7014
537016 6.43478 8.78956 12.2923 13.2669 2.04089 3.80112 40.7836
537026 6.43478 8.78956 12.2923 13.2669 2.04089 3.80112 40.7836
537036 6.50435 8.83626 12.3865 13.3043 1.98007 3.78376 41.0314
537046 6.44348 8.8456 12.376 13.2669 2.01129 3.79428 40.932
537057 6.44348 8.8456 12.376 13.2669 2.01129 3.79428 40.932
537067 6.4087 8.77088 12.376 13.3886 2.06057 3.87784 40.9441
537077 6.4087 8.77088 12.376 13.3886 2.06057 3.87784 40.9441
537087 6.4 8.71484 12.4178 13.3979 2.01249 3.92161 40.9306
537097 6.46087 8.78022 12.4702 13.3324 1.93794 3.85985 41.0437
537107 6.46087 8.78022 12.4702 13.3324 1.93794 3.85985 41.0437
537117 6.4087 8.67747 12.4492 13.3979 1.96506 3.94336 40.9333
537127 6.36522 8.66813 12.4492 13.3698 1.97266 3.96025 40.8524
537147 6.3913 8.71484 12.512 13.4447 1.98246 3.96364 41.0628
537165 6.3913 8.71484 12.512 13.4447 1.98246 3.96364 41.0628
537200 6.33043 8.60275 12.5434 13.426 1.92831 4.04725 40.9025
537202 6.35652 8.60275 12.512 13.4728 1.95815 4.03923 40.944
537205 6.28696 8.5467 12.5852 13.5382 1.96105 4.13475 40.9571
537208 6.31304 8.56538 12.5329 13.4821 1.95724 4.08498 40.8935
537218 6.31304 8.56538 12.5329 13.4821 1.95724 4.08498 40.8935
537228 6.29565 8.52802 12.5852 13.6225 1.99213 4.1617 41.0314
537248 6.25217 8.46264 12.5225 13.5757 1.99916 4.18372 40.813
537258 6.24348 8.47198 12.5957 13.6131 1.98287 4.21266 40.9242
537270 6.24348 8.47198 12.5957 13.6131 1.98287 4.21266 40.9242
537278 6.26957 8.40659 12.5748 13.6037 1.93736 4.22315 40.8547
537288 6.30435 8.42527 12.5748 13.6037 1.92499 4.19803 40.9081
537300 6.30435 8.42527 12.5748 13.6037 1.92499 4.19803 40.9081
537308 6.26087 8.50934 12.5015 13.6131 2.05457 4.16209 40.8848
537330 6.26957 8.43462 12.5434 13.6037 1.97387 4.20168 40.8513
537340 6.29565 8.52802 12.512 13.5382 1.99309 4.11995 40.8739
537350 6.29565 8.52802 12.512 13.5382 1.99309 4.11995 40.8739
537360 6.26087 8.57473 12.4597 13.585 2.10321 4.11291 40.8803
537370 6.27826 8.55604 12.4597 13.5195 2.04444 4.09604 40.8135
537380 6.27826 8.55604 12.4597 13.5195 2.04444 4.09604 40.8135
537394 6.33913 8.62143 12.4702 13.5476 2.04971 4.04746 40.9783
537400 6.33913 8.62143 12.4702 13.5476 2.04971 4.04746 40.9783
537412 6.32174 8.61209 12.4806 13.4821 2.0123 4.04517 40.8966
537420 6.33043 8.61209 12.4702 13.454 1.99768 4.03079 40.8667
537430 6.33043 8.61209 12.4702 13.454 1.99768 4.03079 40.8667
537440 6.35652 8.66813 12.4492 13.5102 2.05724 4.00208 40.9841
537450 6.35652 8.66813 12.4492 13.5289 2.06771 4.0071 41.0028
537460 6.35652 8.66813 12.4492 13.5289 2.06771 4.0071 41.0028
537469 6.34783 8.66813 12.3969 13.3886 2.0293 3.95924 40.8014
537480 6.34783 8.66813 12.3969 13.3886 2.0293 3.95924 40.8014
537495 6.32174 8.65879 12.4178 13.4728 2.07479 4.00408 40.8711
537500 6.35652 8.69615 12.4911 13.426 1.99814 3.97771 40.9697
537510 6.35652 8.69615 12.4911 13.426 1.99814 3.97771 40.9697
537520 6.35652 8.65879 12.3551 13.4353 2.07233 3.96088 40.8057
537530 6.37391 8.63077 12.3865 13.4073 2.00845 3.96672 40.7984
537551 6.36522 8.70549 12.376 13.4166 2.06842 3.93577 40.8633
537561 6.36522 8.70549 12.376 13.4166 2.06842 3.93577 40.8633
537571 6.36522 8.71484 12.3237 13.4353 2.11884 3.92234 40.8391
537582 6.41739 8.76154 12.3865 13.3605 2.02694 3.87335 40.9259
537591 6.41739 8.76154 12.3865 13.3605 2.02694 3.87335 40.9259
537601 6.36522 8.81758 12.3028 13.3231 2.1274 3.83854 40.8086
537611 6.41739 8.81758 12.2609 13.2482 2.07851 3.78245 40.7441
537621 6.41739 8.82692 12.2609 13.2482 2.08376 3.77814 40.7534
537631 6.43478 8.86429 12.2505 13.3043 2.13161 3.76552 40.8539
537641 6.43478 8.86429 12.2505 13.3043 2.13161 3.76552 40.8539
537651 6.42609 8.90165 12.2923 13.2482 2.0991 3.74843 40.8683
537661 6.45217 8.83626 12.3132 13.2295 2.02073 3.76708 40.8312
537671 6.45217 8.83626 12.3132 13.2295 2.02073 3.76708 40.8312
537682 6.47826 8.90165 12.2505 13.2389 2.08701 3.7104 40.8692
537691 6.48696 8.93901 12.1772 13.2389 2.15077 3.66905 40.8421
537701 6.48696 8.93901 12.1772 13.2389 2.15077 3.66905 40.8421
537711 6.47826 8.92967 12.2191 13.2014 2.10256 3.67853 40.8284
537722 6.47826 8.92967 12.2191 13.2014 2.10256 3.67853 40.8284
537731 6.48696 8.94835 12.1249 13.2014 2.16987 3.63983 40.7617
537742 6.53043 8.98571 12.1249 13.1172 2.11465 3.5794 40.7583
537753 6.53043 8.98571 12.1249 13.1172 2.11465 3.5794 40.7583
537761 6.48696 8.94835 12.1458 13.1359 2.11919 3.6274 40.7171
537772 6.48696 8.94835 12.1458 13.1359 2.11919 3.6274 40.7171
537781 6.49565 8.92967 12.2086 13.1359 2.06117 3.64947 40.7699
537791 6.53913 9.0511 12.2609 13.164 2.08158 3.59673 41.0152
537801 6.53913 9.0511 12.2609 13.164 2.08158 3.59673 41.0152
537812 6.58261 9.01374 12.1354 13.1079 2.08353 3.54322 40.8396
537821 6.56522 9.03242 12.2086 13.1172 2.06227 3.56576 40.9235
537832 6.56522 9.03242 12.2086 13.1172 2.06227 3.56576 40.9235
537842 6.58261 9.0511 12.2086 13.1266 2.06648 3.55202 40.9689
537852 6.58261 9.0511 12.2086 13.1266 2.06648 3.55202 40.9689
537862 6.58261 9.02308 12.2191 13.0892 2.02287 3.55718 40.9139
537872 6.55652 9.0511 12.1668 13.0892 2.09047 3.54166 40.8635
537885 6.55652 9.0511 12.1668 13.0892 2.09047 3.54166 40.8635
537892 6.5913 9.06978 12.1563 13.0424 2.05859 3.50134 40.8598
537902 6.56522 9.03242 12.0831 13.0704 2.11931 3.5174 40.7512
537922 6.61739 9.08846 12.1458 13.005 2.03772 3.46759 40.8567
537932 6.61739 9.08846 12.1458 13.005 2.03772 3.46759 40.8567
537942 6.6 9.0978 12.1354 13.0892 2.10861 3.49201 40.9223
537952 6.6 9.12582 12.1668 13.0704 2.09305 3.48292 40.963
537963 6.6 9.12582 12.1668 13.0704 2.09305 3.48292 40.963
537972 6.66957 9.14451 12.0412 13.0517 2.1301 3.40243 40.907
537982 6.6087 9.12582 12.0412 13.033 2.14961 3.43299 40.8088
537994 6.6087 9.12582 12.0412 13.033 2.14961 3.43299 40.8088
538003 6.6087 9.16319 11.9785 12.9769 2.18092 3.38231 40.7272
538013 6.6087 9.16319 11.9785 12.9769 2.18092 3.38231 40.7272
538023 6.58261 9.18187 11.9889 12.9582 2.19134 3.3833 40.7116
538033 6.6 9.18187 11.9157 12.9956 2.24963 3.36522 40.6932
538043 6.6 9.18187 11.9157 12.9956 2.24963 3.36522 40.6932
538053 6.64348 9.21923 11.968 12.9862 2.20129 3.34109 40.817
538063 6.64348 9.25659 11.9366 12.9488 2.22218 3.30462 40.7855
538074 6.64348 9.25659 11.9366 12.9488 2.22218 3.30462 40.7855
538084 6.64348 9.25659 12.0308 12.9862 2.18038 3.34222 40.9171
538110 6.6087 9.25659 11.9157 12.9769 2.27508 3.32229 40.7579
538118 6.65217 9.27527 11.9471 12.9769 2.23548 3.30338 40.8514
538127 6.65217 9.27527 11.9471 12.9769 2.23548 3.30338 40.8514
538133 6.65217 9.3033 11.8948 12.9207 2.25473 3.25969 40.771
538143 6.67826 9.31264 11.9157 12.9488 2.2442 3.25793 40.8554
538153 6.67826 9.31264 11.9157 12.9488 2.2442 3.25793 40.8554
538163 6.64348 9.29396 11.9366 12.9301 2.2326 3.28249 40.8042
538173 6.64348 9.29396 11.9366 12.9301 2.2326 3.28249 40.8042
538183 6.63478 9.33132 11.8529 12.9114 2.30479 3.24017 40.7304
538193 6.65217 9.25659 11.9262 12.9862 2.24425 3.30844 40.8212
538205 6.65217 9.25659 11.9262 12.9862 2.24425 3.30844 40.8212
538213 6.67826 9.26593 11.9889 12.9395 2.16417 3.29714 40.8726
538224 6.67826 9.26593 11.9889 12.9395 2.16417 3.29714 40.8726
538233 6.66087 9.33132 11.9575 12.9395 2.23309 3.26669 40.8892
538244 6.67826 9.25659 12.0098 12.9395 2.14505 3.30731 40.8842
538253 6.67826 9.25659 12.0098 12.9395 2.14505 3.30731 40.8842
538263 6.64348 9.31264 11.9471 12.9582 2.25167 3.28518 40.8614
538273 6.63478 9.27527 11.9157 12.9207 2.23672 3.28607 40.7465
538295 6.65217 9.31264 11.9471 12.902 2.21457 3.26517 40.8139
538306 6.65217 9.31264 11.9471 12.902 2.21457 3.26517 40.8139
538316 6.6087 9.21923 11.968 12.9207 2.18785 3.338 40.7167
538326 6.65217 9.29396 11.9262 12.8927 2.21287 3.26483 40.765
538336 6.65217 9.29396 11.9262 12.8927 2.21287 3.26483 40.765
538346 6.66957 9.3033 11.9785 12.902 2.17687 3.27059 40.8534
538356 6.70435 9.35 11.968 12.9488 2.21282 3.24465 40.9712
538366 6.70435 9.35 11.968 12.9488 2.21282 3.24465 40.9712
538376 6.66957 9.25659 11.9575 12.8553 2.13846 3.27204 40.739
538386 6.64348 9.31264 11.9471 12.8833 2.20992 3.26368 40.7865
538396 6.64348 9.31264 11.9471 12.8833 2.20992 3.26368 40.7865
538406 6.70435 9.27527 11.9471 12.9301 2.17464 3.26661 40.8568
538417 6.70435 9.27527 11.9471 12.9301 2.17464 3.26661 40.8568
538426 6.68696 9.24725 11.9366 12.9114 2.16705 3.27856 40.7822
538436 6.70435 9.33132 12.0098 12.902 2.14858 3.25156 40.9475
538457 6.70435 9.35 11.9157 12.9207 2.23199 3.22154 40.8908
538467 6.66957 9.29396 11.8634 12.902 2.24842 3.24164 40.7289
538487 6.69565 9.31264 11.9366 12.9675 2.22909 3.26155 40.9124
538507 6.67826 9.3033 11.9785 13.0143 2.23365 3.29885 40.9743
538519 6.68696 9.33132 11.9471 12.8833 2.19139 3.23589 40.8487
538528 6.68696 9.33132 11.9471 12.8833 2.19139 3.23589 40.8487
538538 6.72174 9.33132 11.9366 12.8459 2.15429 3.20656 40.8356
538548 6.69565 9.29396 11.9157 12.9114 2.20131 3.24774 40.8167
538568 6.73043 9.3033 11.832 12.8553 2.20778 3.18762 40.721
538579 6.73043 9.3033 11.832 12.8553 2.20778 3.18762 40.721
538588 6.69565 9.22857 11.968 12.8272 2.08261 3.26784 40.7194
538599 6.69565 9.27527 11.9366 12.9114 2.17693 3.26212 40.8189
538608 6.69565 9.27527 11.9366 12.9114 2.17693 3.26212 40.8189
538620 6.73913 9.27527 11.9262 12.8833 2.13926 3.23159 40.8239
538630 6.72174 9.31264 12.0203 12.9395 2.14058 3.26585 40.9941
538640 6.72174 9.31264 12.0203 12.9395 2.14058 3.26585 40.9941
538650 6.73043 9.35 11.8425 12.8365 2.21645 3.16438 40.7594
538661 6.73043 9.35 11.8425 12.8365 2.21645 3.16438 40.7594
538670 6.71304 9.26593 11.8843 12.8553 2.16354 3.22725 40.7185
538680 6.74783 9.32198 11.9575 12.8646 2.12831 3.21054 40.892
538691 6.74783 9.32198 11.9575 12.8646 2.12831 3.21054 40.892
538700 6.73913 9.28462 11.9366 12.8833 2.13754 3.23043 40.8437
538710 6.75652 9.29396 11.9471 12.8365 2.09807 3.20803 40.8341
538721 6.75652 9.29396 11.9471 12.8365 2.09807 3.20803 40.8341
538730 6.75652 9.27527 11.8425 12.7898 2.13091 3.1725 40.664
538741 6.75652 9.27527 11.8425 12.7898 2.13091 3.1725 40.664
538750 6.77391 9.3033 11.8738 12.8365 2.14041 3.17493 40.7876
538768 6.78261 9.28462 11.9471 12.9301 2.12791 3.22753 40.9444
538773 6.78261 9.28462 11.9471 12.9301 2.12791 3.22753 40.9444
538781 6.75652 9.3033 11.9575 12.8833 2.12256 3.22038 40.9007
538791 6.72174 9.20055 11.9785 12.9395 2.10565 3.30396 40.8402
538801 6.72174 9.20055 11.9785 12.9395 2.10565 3.30396 40.8402
538812 6.76522 9.22857 11.9471 12.874 2.0766 3.24414 40.8148
538821 6.76522 9.22857 11.9471 12.874 2.0766 3.24414 40.8148
538833 6.68696 9.20055 11.9994 12.9207 2.10436 3.3202 40.8076
538842 6.67826 9.22857 11.9889 12.9675 2.15898 3.32191 40.8633
538852 6.67826 9.22857 11.9889 12.9675 2.15898 3.32191 40.8633
538862 6.66087 9.18187 11.9575 12.9207 2.13907 3.32834 40.721
538872 6.66087 9.20055 11.9994 12.9301 2.12694 3.33459 40.7909
538882 6.66087 9.20055 11.9994 12.9301 2.12694 3.33459 40.7909
538892 6.66957 9.22857 11.968 12.9207 2.1525 3.30643 40.7869
538902 6.66957 9.22857 11.9785 12.9207 2.14554 3.30943 40.7973
538912 6.66957 9.16319 11.9785 12.902 2.09833 3.33346 40.7132
538922 6.6087 9.20989 12.0935 12.9582 2.12002 3.38869 40.8703
538933 6.6087 9.20989 12.0935 12.9582 2.12002 3.38869 40.8703
538942 6.63478 9.21923 12.0412 12.9395 2.13218 3.35254 40.8347
538952 6.70435 9.20989 12.0098 12.9862 2.12779 3.32991 40.9103
538962 6.70435 9.20989 12.0098 12.9862 2.12779 3.32991 40.9103
538972 6.68696 9.15385 12.1249 12.9862 2.03178 3.39557 40.952
538993 6.6 9.14451 12.0412 12.9675 2.12916 3.40988 40.7533
539003 6.68696 9.19121 12.0622 13.0143 2.1099 3.36896 40.9546
539023 6.66957 9.19121 12.1354 13.033 2.08344 3.40281 41.0292
539036 6.66087 9.19121 12.0831 13.005 2.10809 3.38395 40.9401
539043 6.66087 9.19121 12.0831 13.005 2.10809 3.38395 40.9401
539055 6.71304 9.20055 12.0726 13.0424 2.10662 3.36402 41.0286
539064 6.62609 9.11648 12.0517 12.9862 2.09962 3.41905 40.7805
539073 6.62609 9.11648 12.0517 12.9862 2.09962 3.41905 40.7805
539083 6.63478 9.13517 12.0098 12.9488 2.11114 3.38413 40.7286
539097 6.63478 9.13517 12.0098 12.9488 2.11114 3.38413 40.7286
539105 6.56522 9.16319 11.9785 12.9862 2.21521 3.40462 40.6931
539115 6.63478 9.12582 12.0308 12.9956 2.11824 3.40762 40.787
539125 6.63478 9.12582 12.0308 12.9956 2.11824 3.40762 40.787
539135 6.68696 9.14451 12.0203 13.0237 2.11674 3.3807 40.8754
539147 6.64348 9.20055 11.9785 13.0237 2.20478 3.36314 40.8462
539156 6.64348 9.20055 11.9785 13.0237 2.20478 3.36314 40.8462
539165 6.62609 9.14451 11.9575 12.9769 2.17281 3.37692 40.705
539176 6.62609 9.14451 11.9575 12.9769 2.17281 3.37692 40.705
539186 6.66957 9.10714 11.9785 13.0424 2.14565 3.39878 40.7975
539195 6.66957 9.20989 11.9994 13.0237 2.17872 3.35319 40.9025
539206 6.66957 9.20989 11.9994 13.0237 2.17872 3.35319 40.9025
539215 6.69565 9.23791 12.0412 12.902 2.08129 3.30617 40.8768
539225 6.67826 9.20989 11.9889 12.9675 2.14853 3.33029 40.8446
539237 6.67826 9.20989 11.9889 12.9675 2.14853 3.33029 40.8446
539246 6.68696 9.20989 12.0622 12.9675 2.09419 3.34728 40.9265
539258 6.68696 9.20989 12.0622 12.9675 2.09419 3.34728 40.9265
539266 6.66957 9.20989 11.9889 12.9301 2.13336 3.3235 40.7985
539277 6.71304 9.21923 12.0203 12.9395 2.09413 3.31146 40.892
539297 6.71304 9.18187 11.9471 12.9207 2.1113 3.30188 40.7627
539307 6.67826 9.22857 12.0203 12.9582 2.1329 3.32821 40.8853
539327 6.67826 9.16319 12.1145 12.9395 2.02341 3.37904 40.8954
539337 6.67826 9.16319 12.1145 12.9395 2.02341 3.37904 40.8954
539348 6.66957 9.13517 11.9471 12.874 2.08764 3.32904 40.6258
539358 6.66957 9.18187 12.0412 12.9395 2.08814 3.3537 40.8321
539367 6.66957 9.18187 12.0412 12.9395 2.08814 3.3537 40.8321
539377 6.68696 9.18187 12.0517 12.9488 2.07493 3.35154 40.8693
539392 6.70435 9.16319 12.0412 12.902 2.03356 3.33578 40.8108
539402 6.70435 9.16319 12.0412 12.902 2.03356 3.33578 40.8108
539410 6.66957 9.19121 12.104 12.902 2.03079 3.35673 40.8668
539418 6.66957 9.19121 12.104 12.902 2.03079 3.35673 40.8668
539428 6.6 9.16319 12.0831 12.9395 2.09606 3.40536 40.7857
539439 6.66957 9.15385 12.1354 12.9395 2.01009 3.39309 40.8983
539459 6.69565 9.17253 12.0308 12.8459 2.01989 3.31643 40.7449
539470 6.69565 9.15385 12.1458 12.9395 1.98597 3.38434 40.9348
539490 6.65217 9.17253 12.1354 12.9675 2.04782 3.40047 40.9276
539501 6.68696 9.14451 12.0517 12.9582 2.05921 3.371 40.8413
539520 6.64348 9.18187 12.0935 12.9675 2.0865 3.38831 40.8864
539531 6.64348 9.18187 12.0935 12.9675 2.0865 3.38831 40.8864
539541 6.69565 9.10714 12.0935 12.9675 2.01002 3.39846 40.8639
539550 6.66957 9.20055 12.1145 13.0143 2.09203 3.3874 40.9989
539560 6.66957 9.20055 12.1145 13.0143 2.09203 3.3874 40.9989
539571 6.68696 9.18187 12.1458 12.9675 2.02319 3.38362 40.9822
539581 6.64348 9.06044 12.1772 12.9582 1.95761 3.46412 40.8393
539591 6.64348 9.06044 12.1772 12.9582 1.95761 3.46412 40.8393
539601 6.65217 9.10714 12.104 12.9862 2.04238 3.42633 40.8496
539611 6.65217 9.10714 12.104 12.9862 2.04238 3.42633 40.8496
539622 6.62609 9.10714 12.1354 12.9488 2.01782 3.43639 40.8174
539631 6.61739 9.0511 12.1249 12.9395 1.99363 3.46007 40.7329
539641 6.61739 9.0511 12.1249 12.9395 1.99363 3.46007 40.7329
539651 6.66957 9.13517 12.1458 13.005 2.02946 3.42301 40.9555
539663 6.66957 9.13517 12.1458 13.005 2.02946 3.42301 40.9555
539672 6.58261 9.06978 12.1772 13.0517 2.05575 3.51379 40.8814
539681 6.66087 9.0511 12.1563 13.0517 2.00737 3.48097 40.92
539701 6.63478 9.0511 12.1458 13.0237 2.01573 3.4819 40.8554
539711 6.6 9.02308 12.2086 13.0611 2.00253 3.53851 40.8928
539732 6.65217 9.11648 12.1982 13.0237 2.00645 3.45928 40.9905
539742 6.65217 9.11648 12.1982 13.0237 2.00645 3.45928 40.9905
539752 6.63478 9.03242 12.1877 13.0611 1.99863 3.51266 40.916
539762 6.61739 9.01374 12.2086 13.0143 1.95944 3.52173 40.8541
539775 6.61739 9.01374 12.2086 13.0143 1.95944 3.52173 40.8541
539782 6.6 8.97637 12.1354 13.0424 2.01413 3.53389 40.7541
539792 6.63478 9.02308 12.2505 13.1172 1.98356 3.55016 41.0255
539813 6.56522 8.95769 12.1877 13.1734 2.06569 3.60954 40.884
539833 6.52174 8.98571 12.2191 13.1079 2.05266 3.60707 40.8344
539842 6.52174 8.94835 12.2295 13.2014 2.07727 3.65304 40.9011
539852 6.52174 8.94835 12.2295 13.2014 2.07727 3.65304 40.9011
539862 6.47826 8.92967 12.2191 13.2389 2.12353 3.6889 40.8659
539872 6.52174 8.90165 12.24 13.2763 2.08611 3.69796 40.9397
539894 6.43478 8.90165 12.3132 13.295 2.10567 3.76305 40.9447
539903 6.4 8.77088 12.2923 13.3605 2.10604 3.85141 40.8237
539915 6.4 8.77088 12.2923 13.3605 2.10604 3.85141 40.8237
539923 6.4 8.73352 12.3446 13.4073 2.07664 3.89566 40.8854
539943 6.34783 8.68681 12.376 13.4447 2.08521 3.96009 40.8553
539954 6.37391 8.64945 12.3237 13.5382 2.13408 3.97646 40.8853
539963 6.37391 8.64945 12.3237 13.5382 2.13408 3.97646 40.8853
539973 6.3913 8.66813 12.3655 13.454 2.05811 3.94829 40.879
539985 6.3913 8.66813 12.3969 13.454 2.03735 3.95677 40.9104
539993 6.32174 8.58407 12.3969 13.5382 2.08348 4.05085 40.841
540003 6.37391 8.66813 12.4388 13.557 2.07882 4.00376 41.0378
540030 6.33913 8.63077 12.3342 13.5195 2.1293 3.99908 40.8236
540047 6.32174 8.67747 12.3865 13.5102 2.12702 3.99702 40.8959
540048 6.32174 8.67747 12.3865 13.5102 2.12702 3.99702 40.8959
540055 6.41739 8.69615 12.376 13.5008 2.07585 3.93871 40.9904
540066 6.43478 8.64011 12.3551 13.4634 2.02579 3.94083 40.8934
540075 6.43478 8.64011 12.3551 13.4634 2.02579 3.94083 40.8934
540085 6.43478 8.72418 12.3655 13.4821 2.07647 3.90987 41.0066
540099 6.43478 8.72418 12.3655 13.4821 2.07647 3.90987 41.0066
540116 6.36522 8.69615 12.2923 13.3979 2.10823 3.91231 40.7516
540136 6.4 8.71484 12.3551 13.426 2.06973 3.91221 40.8959
540146 6.3913 8.71484 12.2714 13.3792 2.10477 3.88075 40.7567
540159 6.3913 8.71484 12.2714 13.3792 2.10477 3.88075 40.7567
540166 6.33043 8.71484 12.3342 13.426 2.12976 3.93877 40.8054
540177 6.33043 8.71484 12.3342 13.426 2.12976 3.93877 40.8054
540187 6.34783 8.73352 12.2923 13.3792 2.13027 3.89795 40.7528
540196 6.4087 8.74286 12.3342 13.3792 2.0673 3.87685 40.8649
540207 6.4087 8.74286 12.3342 13.3792 2.0673 3.87685 40.8649
540217 6.38261 8.80824 12.2818 13.3605 2.14548 3.83933 40.8332
540228 6.46087 8.76154 12.376 13.3698 2.01041 3.85302 40.9682
540249 6.45217 8.8456 12.2191 13.4166 2.19318 3.78831 40.9335
540257 6.45217 8.8456 12.2191 13.4166 2.19318 3.78831 40.9335
540269 6.38261 8.77088 12.2923 13.3605 2.11759 3.85944 40.8063
540277 6.46087 8.7989 12.2818 13.2856 2.04632 3.78707 40.8273
540288 6.46087 8.7989 12.2818 13.2856 2.04632 3.78707 40.8273
540297 6.45217 8.81758 12.2923 13.3792 2.10808 3.81098 40.9413
540308 6.46957 8.80824 12.3028 13.3137 2.04772 3.79222 40.8943
540318 6.46957 8.80824 12.3028 13.3137 2.04772 3.79222 40.8943
540328 6.45217 8.85495 12.2191 13.3137 2.14092 3.75576 40.8399
540348 6.45217 8.78022 12.3342 13.3137 2.02274 3.8217 40.8802
540358 6.48696 8.7989 12.3551 13.3043 1.9912 3.80028 40.9453
540369 6.48696 8.7989 12.3551 13.3043 1.9912 3.80028 40.9453
540378 6.51304 8.80824 12.2609 13.295 2.03614 3.75563 40.8772
540388 6.48696 8.87363 12.2923 13.2763 2.05883 3.7411 40.9292
540398 6.48696 8.87363 12.2923 13.2763 2.05883 3.7411 40.9292
540411 6.49565 8.87363 12.24 13.2201 2.05619 3.7072 40.8294
540420 6.49565 8.87363 12.24 13.2201 2.05619 3.7072 40.8294
540430 6.52174 8.8456 12.2818 13.2201 1.99548 3.71965 40.8693
540440 6.53913 8.86429 12.2609 13.2295 2.01359 3.69995 40.8938
540450 6.53913 8.86429 12.2609 13.2295 2.01359 3.69995 40.8938
540460 6.53043 8.92033 12.24 13.2014 2.04888 3.66476 40.8922
540471 6.53043 8.88297 12.2295 13.1734 2.01902 3.67114 40.8163
540481 6.53043 8.88297 12.2295 13.1734 2.01902 3.67114 40.8163
540490 6.5913 8.91099 12.2505 13.164 1.97549 3.63378 40.9168
540502 6.5913 8.91099 12.2505 13.164 1.97549 3.63378 40.9168
540511 6.51304 8.88297 12.24 13.1359 2.00252 3.67162 40.7719
540520 6.55652 8.86429 12.1982 13.1453 1.99617 3.65123 40.7643
540530 6.55652 8.86429 12.1982 13.1453 1.99617 3.65123 40.7643
540540 6.55652 8.98571 12.1458 13.1266 2.08867 3.57599 40.8147
540550 6.58261 9.0044 12.1982 13.0237 1.98934 3.54145 40.8088
540571 6.6087 9.04176 12.2295 13.1827 2.06163 3.56594 41.0627
540581 6.6087 9.04176 12.2295 13.1827 2.06163 3.56594 41.0627
540591 6.61739 8.98571 12.2086 13.0798 1.98055 3.55281 40.8915
540601 6.61739 8.97637 12.1982 13.1079 1.99799 3.56197 40.8998
540621 6.62609 8.99506 12.1668 12.9956 1.96023 3.50922 40.7835
540631 6.68696 9.07912 12.2086 13.0798 1.9872 3.47916 41.0545
540642 6.68696 9.07912 12.2086 13.0798 1.9872 3.47916 41.0545
540652 6.66957 9.01374 12.2191 13.0424 1.93399 3.50893 40.9448
540662 6.66957 9.01374 12.2191 13.0424 1.93399 3.50893 40.9448
540672 6.56522 8.98571 12.1458 12.9956 2.00913 3.53525 40.6924
540688 6.5913 9.06978 12.1354 12.9769 2.03563 3.47697 40.7734
540702 6.6087 9.0044 12.1563 12.9675 1.96807 3.50201 40.7369
540713 6.63478 9.02308 12.1145 12.9582 1.98378 3.46722 40.7305
540723 6.63478 9.02308 12.1145 12.9582 1.98378 3.46722 40.7305
540733 6.6087 9.06044 12.1563 13.0611 2.05234 3.50296 40.8865
540743 6.64348 9.01374 12.1877 13.0237 1.96131 3.50666 40.8686
540754 6.64348 9.01374 12.1877 13.0237 1.96131 3.50666 40.8686
540763 6.67826 9.10714 12.24 13.0798 1.988 3.47927 41.1052
540784 6.63478 9.04176 12.1982 12.9956 1.96011 3.49295 40.8703
540793 6.66087 8.97637 12.2191 13.005 1.8975 3.51927 40.8613
540805 6.66087 8.97637 12.2191 13.005 1.8975 3.51927 40.8613
540813 6.69565 9.02308 12.1354 12.9956 1.95083 3.45617 40.8497
540823 6.66957 9.07912 12.1145 13.0143 2.02398 3.44203 40.8775
540835 6.66957 9.07912 12.1145 13.0143 2.02398 3.44203 40.8775
540847 6.62609 9.03242 12.1354 13.0237 2.01789 3.49135 40.8176
540855 6.62609 9.03242 12.1354 13.0237 2.01789 3.49135 40.8176
540865 6.62609 9.02308 12.1354 13.0143 2.00736 3.49294 40.7989
540875 6.61739 9.0511 12.1354 13.005 2.02363 3.48154 40.8088
540885 6.61739 9.0511 12.1354 13.005 2.02363 3.48154 40.8088
540895 6.66087 9.10714 12.0935 13.0424 2.07506 3.43533 40.9039
540905 6.66087 9.10714 12.0935 13.0424 2.07506 3.43533 40.9039
540915 6.63478 9.04176 12.104 13.005 2.02764 3.46903 40.7855
540925 6.6 9.0511 12.1458 13.0704 2.06503 3.51082 40.8674
540936 6.6 9.0511 12.1458 13.0704 2.06503 3.51082 40.8674
540945 6.64348 9.12582 11.9994 12.9675 2.11758 3.38677 40.7362
540955 6.6 9.0978 12.0726 13.0704 2.13979 3.46905 40.8409
540965 6.6 9.0978 12.0726 13.0704 2.13979 3.46905 40.8409
540976 6.64348 9.10714 12.0622 12.9862 2.07588 3.41838 40.799
540985 6.64348 9.10714 12.0622 12.9862 2.07588 3.41838 40.799
540995 6.66087 9.07912 12.0726 13.0704 2.08893 3.44999 40.8831
541005 6.65217 9.11648 12.0412 13.0237 2.11024 3.41493 40.8336
541015 6.65217 9.11648 12.0412 13.0237 2.11024 3.41493 40.8336
541025 6.66087 9.13517 12.0831 13.033 2.09244 3.4171 40.9121
541037 6.64348 9.19121 12.0308 13.0424 2.17522 3.38754 40.9078
541045 6.64348 9.19121 12.0308 13.0424 2.17522 3.38754 40.9078
541056 6.68696 9.13517 12.0726 12.9862 2.05587 3.38913 40.881
541066 6.61739 9.11648 12.0098 13.005 2.14375 3.4164 40.7487
541076 6.61739 9.11648 12.0098 13.005 2.14375 3.4164 40.7487
541087 6.61739 9.19121 12.0203 13.0424 2.19952 3.3963 40.8713
541106 6.66087 9.13517 11.968 13.0237 2.16362 3.38176 40.7877
541116 6.71304 9.17253 12.0098 13.0424 2.13251 3.35875 40.9378
541137 6.68696 9.18187 11.9575 13.033 2.18456 3.34871 40.8594
541149 6.64348 9.21923 11.968 13.0143 2.21696 3.3491 40.845
541157 6.64348 9.21923 11.968 13.0143 2.21696 3.3491 40.845
541168 6.63478 9.18187 11.9889 13.033 2.1984 3.3811 40.8386
541188 6.61739 9.18187 11.9575 13.0237 2.2257 3.37733 40.7805
541199 6.66957 9.22857 11.9889 13.0424 2.20652 3.34716 40.9294
541209 6.66957 9.22857 11.9889 13.0424 2.20652 3.34716 40.9294
541218 6.5913 9.12582 11.9785 12.9488 2.15581 3.39905 40.6444
541228 6.63478 9.15385 11.9157 13.0143 2.22115 3.36752 40.7186
541238 6.63478 9.15385 11.9157 13.0143 2.22115 3.36752 40.7186
541252 6.65217 9.15385 11.9262 13.005 2.1973 3.35999 40.7371
541268 6.66957 9.11648 11.9262 12.9488 2.13324 3.35294 40.661
541279 6.65217 9.24725 11.9575 12.9769 2.21288 3.31894 40.8338
541290 6.65217 9.24725 11.9575 12.9769 2.21288 3.31894 40.8338
541300 6.67826 9.21923 11.9366 12.9862 2.19902 3.31649 40.8203
541309 6.66087 9.16319 11.9889 13.0517 2.18105 3.38309 40.8647
541329 6.66087 9.16319 11.9889 13.0517 2.18105 3.38309 40.8647
541332 6.66087 9.15385 12.0098 13.0517 2.16193 3.39324 40.8763
541350 6.64348 9.16319 11.9052 12.9956 2.21708 3.35104 40.7075
541360 6.67826 9.20055 11.9262 12.9488 2.17461 3.31116 40.7538
541370 6.67826 9.20055 11.9262 12.9488 2.17461 3.31116 40.7538
541380 6.67826 9.21923 11.9471 13.0143 2.20772 3.32751 40.8589
541390 6.72174 9.23791 11.9575 12.9488 2.1457 3.28392 40.866
541400 6.72174 9.23791 11.9575 12.9488 2.1457 3.28392 40.866
541410 6.75652 9.33132 11.9262 12.9862 2.21638 3.22848 41.0002
541420 6.75652 9.33132 11.9262 12.9862 2.21638 3.22848 41.0002
541430 6.66957 9.20055 11.9262 12.9769 2.19612 3.32311 40.7732
541440 6.67826 9.20989 11.968 12.9769 2.16768 3.32699 40.833
541461 6.66087 9.23791 11.9366 12.9769 2.21583 3.31324 40.8123
541471 6.73913 9.20055 11.8948 12.9956 2.18114 3.28827 40.83
541480 6.73913 9.20055 11.8948 12.9956 2.18114 3.28827 40.83
541490 6.67826 9.22857 11.9575 12.9488 2.16939 3.30758 40.8132
541501 6.67826 9.22857 11.9575 12.9488 2.16939 3.30758 40.8132
541511 6.67826 9.20989 11.9157 12.9207 2.1711 3.2959 40.7246
541521 6.68696 9.22857 11.9994 12.9769 2.15148 3.32368 40.8918
541531 6.68696 9.22857 11.9994 12.9769 2.15148 3.32368 40.8918
541540 6.67826 9.21923 11.9785 12.9582 2.15548 3.32044 40.8341
541551 6.63478 9.21923 11.968 12.9114 2.1652 3.32358 40.7334
541562 6.63478 9.14451 11.968 12.9114 2.12323 3.35725 40.6587
541570 6.73043 9.22857 11.9889 13.005 2.14525 3.30925 40.9529
541581 6.73043 9.22857 11.9889 13.005 2.14525 3.30925 40.9529
541591 6.69565 9.14451 12.0517 12.9862 2.06921 3.37508 40.8781
541601 6.69565 9.22857 12.0098 12.9675 2.13354 3.3201 40.9016
541611 6.69565 9.22857 12.0098 12.9675 2.13354 3.3201 40.9016
541621 6.68696 9.23791 12.0517 12.9582 2.11155 3.32908 40.9347
541631 6.68696 9.23791 12.0517 12.9582 2.11155 3.32908 40.9347
541641 6.6 9.11648 12.0412 13.0424 2.15541 3.44379 40.8001
541651 6.61739 9.08846 12.0935 12.9862 2.06186 3.44751 40.7856
541661 6.61739 9.08846 12.0935 12.9862 2.06186 3.44751 40.7856
541671 6.63478 9.10714 12.0622 13.0704 2.12886 3.44616 40.8745
541682 6.6 9.07912 12.0831 13.0704 2.12238 3.48045 40.8326
541691 6.6 9.07912 12.0831 13.0704 2.12238 3.48045 40.8326
541701 6.67826 9.10714 12.0726 13.1172 2.11926 3.44273 40.9752
541711 6.67826 9.10714 12.0726 13.1172 2.11926 3.44273 40.9752
541721 6.61739 9.10714 12.0517 13.1827 2.21 3.48271 40.9589
541731 6.6087 9.0511 12.0831 13.1079 2.12187 3.49975 40.8507
541741 6.6087 9.0511 12.0831 13.1079 2.12187 3.49975 40.8507
541753 6.5913 9.06044 12.0622 13.0798 2.13684 3.48959 40.7937
541761 6.5913 9.11648 12.0726 13.0892 2.16648 3.46981 40.8696
541772 6.5913 9.11648 12.0726 13.0892 2.16648 3.46981 40.8696
541783 6.61739 9.06978 12.1458 13.1266 2.09543 3.51026 40.9596
541792 6.61739 9.06978 12.1458 13.1266 2.09543 3.51026 40.9596
541802 6.6 8.98571 12.1249 13.0143 2.0105 3.5188 40.7249
541812 6.6087 9.02308 12.1145 12.9769 2.01164 3.48435 40.7231
541822 6.6087 9.02308 12.1145 12.9769 2.01164 3.48435 40.7231
541832 6.56522 9.07912 12.104 12.9956 2.08957 3.48098 40.7439
541844 6.6 9.03242 12.1354 12.9956 2.01935 3.49525 40.7634
541852 6.6 9.03242 12.1354 12.9956 2.01935 3.49525 40.7634
541862 6.62609 9.06978 12.1877 13.005 1.99381 3.48391 40.8885
541874 6.62609 9.06978 12.1877 13.005 1.99381 3.48391 40.8885
541885 6.64348 9.0044 12.1458 13.0143 1.9784 3.49647 40.808
541892 6.63478 9.07912 12.1772 12.9675 1.97916 3.46225 40.8587
541913 6.6087 9.06044 12.1145 12.9395 2.0116 3.45681 40.7231
541922 6.64348 9.06044 12.1354 12.9582 1.98526 3.45229 40.7975
541932 6.64348 9.06044 12.1354 12.9582 1.98526 3.45229 40.7975
541943 6.67826 9.07912 12.1458 12.9769 1.97645 3.4364 40.8801
541952 6.67826 9.07912 12.1458 12.9769 1.97645 3.4364 40.8801
541968 6.70435 9.03242 12.1668 12.9207 1.88739 3.43573 40.8243
541975 6.66957 9.0511 12.1354 12.9769 1.97331 3.45001 40.8329
541986 6.66957 9.0511 12.1354 12.9769 1.97331 3.45001 40.8329
541993 6.69565 9.07912 12.0935 12.9207 1.96786 3.39779 40.7891
542006 6.65217 9.07912 12.1354 12.902 1.95836 3.424 40.7687
542015 6.65217 9.07912 12.1354 12.902 1.95836 3.424 40.7687
542027 6.68696 9.07912 12.1458 12.9114 1.93377 3.41392 40.8233
542035 6.68696 9.07912 12.0726 12.874 1.96101 3.38243 40.7127
542046 6.68696 9.04176 12.0726 12.874 1.93985 3.39931 40.6753
542055 6.64348 9.07912 12.0412 12.9582 2.05821 3.41712 40.722
542067 6.64348 9.07912 12.0412 12.9582 2.05821 3.41712 40.722
542075 6.69565 9.0978 12.0831 12.9395 1.99587 3.39172 40.816
542086 6.66087 9.06044 12.104 12.8927 1.95752 3.41693 40.718
542096 6.66087 9.06044 12.104 12.8927 1.95752 3.41693 40.718
542106 6.68696 9.10714 12.1249 12.9488 1.98449 3.40597 40.8678
542116 6.66087 9.07912 12.104 12.9114 1.97866 3.41381 40.7554
542126 6.66087 9.07912 12.104 12.9114 1.97866 3.41381 40.7554
542136 6.69565 9.16319 12.1145 13.005 2.04866 3.38981 40.9783
542156 6.65217 9.08846 12.1354 12.9675 2.00058 3.43834 40.8436
542166 6.68696 9.10714 12.1145 12.9207 1.97558 3.39503 40.8293
542176 6.68696 9.10714 12.1145 12.9207 1.97558 3.39503 40.8293
542186 6.76522 9.19121 12.1249 12.902 1.95391 3.31983 40.9834
542197 6.71304 9.14451 12.0935 12.9207 1.99322 3.36053 40.8718
542207 6.71304 9.14451 12.0935 12.9207 1.99322 3.36053 40.8718
542217 6.72174 9.17253 12.0412 12.9488 2.05358 3.33714 40.8843
542227 6.72174 9.17253 12.0412 12.9488 2.05358 3.33714 40.8843
542243 6.66957 9.20055 12.0831 12.9395 2.07089 3.35724 40.8927
542248 6.66957 9.19121 12.0308 12.9114 2.08457 3.3385 40.8029
542257 6.66957 9.19121 12.0308 12.9114 2.08457 3.3385 40.8029
542267 6.73043 9.16319 12.0203 12.902 2.03014 3.31809 40.816
542277 6.73043 9.16319 11.968 12.902 2.06482 3.3031 40.7637
542287 6.73043 9.10714 11.968 12.9395 2.05434 3.33901 40.745
542297 6.73043 9.15385 12.0517 12.8833 1.99357 3.3259 40.8193
542307 6.73043 9.15385 12.0517 12.8833 1.99357 3.3259 40.8193
542318 6.73913 9.17253 12.0203 12.874 2.01384 3.30195 40.8059
542328 6.73043 9.20989 12.0622 12.9395 2.04971 3.31981 40.9419
542349 6.73913 9.22857 11.9785 12.874 2.07309 3.26483 40.8201
542357 6.73913 9.22857 11.9785 12.874 2.07309 3.26483 40.8201
542370 6.73043 9.21923 12.0308 12.8833 2.0442 3.2906 40.8638
542377 6.71304 9.18187 12.0203 12.8833 2.04164 3.31215 40.7985
542387 6.71304 9.18187 12.0203 12.8833 2.04164 3.31215 40.7985
542398 6.71304 9.0978 11.9575 12.8553 2.02005 3.32391 40.6236
542412 6.67826 9.23791 12.0308 12.874 2.08401 3.30293 40.8209
542418 6.67826 9.23791 12.0308 12.874 2.08401 3.30293 40.8209
542429 6.73913 9.24725 12.0098 12.9488 2.10471 3.28695 40.945
542438 6.70435 9.15385 11.9471 12.902 2.09081 3.31301 40.7073
542448 6.70435 9.15385 11.9471 12.902 2.09081 3.31301 40.7073
542458 6.73043 9.24725 12.0412 12.902 2.0635 3.28643 40.921
542479 6.73913 9.21923 11.8948 12.9395 2.16019 3.26378 40.7926
542488 6.74783 9.22857 11.968 12.9114 2.09526 3.26869 40.8558
542498 6.74783 9.22857 11.968 12.9114 2.09526 3.26869 40.8558
542510 6.74783 9.28462 11.9994 12.8927 2.09537 3.2473 40.9245
542520 6.74783 9.24725 11.8634 12.8646 2.14906 3.2167 40.7231
542540 6.73043 9.3033 11.9785 12.874 2.12075 3.23533 40.8862
542550 6.73043 9.3033 11.9785 12.874 2.12075 3.23533 40.8862
542560 6.73913 9.23791 11.9471 12.874 2.09916 3.25162 40.7981
542570 6.77391 9.22857 12.0098 12.8459 2.01349 3.25024 40.8582
542590 6.78261 9.3033 11.9366 12.7804 2.06142 3.17298 40.8029
542608 6.78261 9.3033 11.8948 12.7804 2.0892 3.16083 40.7611
542612 6.76522 9.28462 11.8948 12.902 2.15848 3.21213 40.8466
542621 6.73043 9.25659 11.9262 12.8085 2.09255 3.22222 40.7217
542630 6.73043 9.25659 11.9262 12.8085 2.09255 3.22222 40.7217
542641 6.73043 9.26593 11.8843 12.8272 2.13618 3.21134 40.7079
542651 6.73043 9.23791 11.9262 12.8833 2.1241 3.25218 40.7778
542661 6.73043 9.23791 11.9262 12.8833 2.1241 3.25218 40.7778
542671 6.7913 9.29396 11.9575 12.8085 2.05232 3.18745 40.8513
542681 6.75652 9.24725 11.8843 12.8646 2.12933 3.21886 40.7527
542701 6.75652 9.25659 11.9785 12.874 2.07728 3.24453 40.8655
542711 6.75652 9.25659 11.9785 12.874 2.07728 3.24453 40.8655
542722 6.71304 9.25659 11.9157 12.9114 2.16883 3.25668 40.7967
542732 6.71304 9.29396 11.9471 12.874 2.14791 3.23823 40.828
542742 6.71304 9.29396 11.9471 12.874 2.14791 3.23823 40.828
542752 6.71304 9.26593 11.9575 12.874 2.12526 3.25377 40.8105
542762 6.71304 9.26593 11.8948 12.8646 2.1618 3.23297 40.7384
542782 6.73913 9.23791 11.9262 12.9488 2.155 3.26713 40.852
542802 6.68696 9.18187 11.9575 12.9207 2.1217 3.3166 40.7471
542812 6.73913 9.25659 11.968 12.902 2.11149 3.25737 40.8658
542822 6.73913 9.25659 11.968 12.902 2.11149 3.25737 40.8658
542832 6.72174 9.22857 11.9471 12.8459 2.0897 3.25551 40.7433
542842 6.73913 9.21923 12.0308 12.8646 2.02793 3.28135 40.8537
542863 6.73043 9.23791 12.0412 12.9114 2.06351 3.29328 40.921
542873 6.73043 9.23791 12.0412 12.9114 2.06351 3.29328 40.921
542883 6.68696 9.23791 11.9889 12.8833 2.11128 3.28971 40.7971
542893 6.75652 9.19121 12.0308 12.902 2.02172 3.29683 40.8805
542903 6.75652 9.19121 12.0308 12.902 2.02172 3.29683 40.8805
542913 6.68696 9.18187 11.968 12.8272 2.06208 3.29273 40.664
542923 6.69565 9.11648 11.9366 12.8927 2.07725 3.32807 40.6414
542935 6.69565 9.11648 11.9366 12.8927 2.07725 3.32807 40.6414
542943 6.74783 9.16319 11.968 12.8646 2.0322 3.28454 40.7436
542955 6.74783 9.16319 11.968 12.8646 2.0322 3.28454 40.7436
542963 6.70435 9.12582 12.0517 12.902 2.00559 3.35557 40.7839
542975 6.73043 9.16319 12.0098 12.8646 2.01599 3.30436 40.7681
542985 6.73043 9.16319 12.0098 12.8646 2.01599 3.30436 40.7681
542995 6.72174 9.17253 12.0203 12.8927 2.03589 3.31512 40.8073
543005 6.69565 9.17253 12.0412 12.9207 2.0551 3.34084 40.8302
543015 6.69565 9.17253 12.0412 12.9207 2.0551 3.34084 40.8302
543025 6.70435 9.19121 12.0622 12.8833 2.02495 3.32383 40.841
543036 6.70435 9.19121 12.0622 12.8833 2.02495 3.32383 40.841
543045 6.72174 9.21923 12.0203 12.9395 2.08838 3.30757 40.9007
543055 6.72174 9.21923 12.0517 12.9395 2.06761 3.31654 40.9321
543065 6.72174 9.21923 12.0517 12.9395 2.06761 3.31654 40.9321
543075 6.68696 9.20055 12.0726 12.874 2.02952 3.32776 40.8341
543085 6.72174 9.11648 12.0098 12.8646 1.99539 3.32927 40.7127
543095 6.72174 9.11648 12.0098 12.8646 1.99539 3.32927 40.7127
543105 6.71304 9.15385 12.1145 12.8927 1.96887 3.3543 40.874
543115 6.71304 9.15385 12.1145 12.8927 1.96887 3.3543 40.874
543125 6.66957 9.13517 12.1145 12.8553 1.96593 3.37159 40.7744
543135 6.69565 9.12582 12.104 12.8553 1.95032 3.36107 40.7807
543155 6.69565 9.16319 12.1249 12.902 1.98397 3.36356 40.8858
543166 6.67826 9.11648 12.0831 12.8553 1.97039 3.36713 40.7331
543176 6.67826 9.11648 12.0831 12.8553 1.97039 3.36713 40.7331
543186 6.66957 9.21923 12.0831 12.8646 2.03936 3.3275 40.8365
543196 6.66957 9.21923 12.0831 12.8646 2.03936 3.3275 40.8365
543206 6.71304 9.15385 12.104 12.8553 1.95467 3.34064 40.8261
543216 6.66087 9.11648 12.1249 12.874 1.96478 3.39225 40.7762
543231 6.66087 9.11648 12.1249 12.874 1.96478 3.39225 40.7762
543241 6.72174 9.15385 12.1563 12.9301 1.95663 3.37294 40.962
543250 6.65217 9.10714 12.1249 12.8927 1.97583 3.40571 40.7769
543266 6.70435 9.06044 12.1772 12.9301 1.90164 3.4287 40.8721
543276 6.70435 9.06044 12.1772 12.9301 1.90164 3.4287 40.8721
543286 6.69565 9.04176 12.104 12.902 1.92923 3.41231 40.7434
543296 6.67826 9.0044 12.104 12.9395 1.94077 3.44772 40.7261
543306 6.67826 9.0044 12.104 12.9395 1.94077 3.44772 40.7261
543316 6.68696 9.0978 12.1145 12.9582 1.99142 3.40987 40.8574
543326 6.68696 9.0978 12.1145 12.9582 1.99142 3.40987 40.8574
543336 6.68696 9.03242 12.1249 13.0237 1.98457 3.46086 40.868
543347 6.66087 9.04176 12.1877 12.9956 1.94981 3.47821 40.8859
543356 6.66087 9.04176 12.1877 12.9956 1.94981 3.47821 40.8859
543367 6.68696 9.0044 12.104 12.9862 1.96147 3.45703 40.7816
543378 6.67826 9.0511 12.1563 13.0424 1.99063 3.47048 40.928
543387 6.67826 9.0511 12.1563 13.0424 1.99063 3.47048 40.928
543399 6.70435 9.0978 12.1563 13.0237 1.98917 3.43241 40.9821
543408 6.70435 9.0978 12.1563 13.0237 1.98917 3.43241 40.9821
543417 6.63478 9.01374 12.0935 13.0798 2.06091 3.4999 40.8219
543427 6.64348 9.04176 12.1249 13.0237 2.01856 3.47629 40.8338
543437 6.64348 9.04176 12.1249 13.0237 2.01856 3.47629 40.8338
543446 6.65217 9.0511 12.1563 12.9862 1.97625 3.46643 40.8458
543456 6.61739 9.06044 12.1458 12.9675 2.00088 3.4697 40.7912
543466 6.61739 9.06044 12.1458 12.9675 2.00088 3.4697 40.7912
543477 6.66087 9.06044 12.1145 12.9675 1.99288 3.44115 40.8033
543487 6.66087 9.06044 12.1145 12.9675 1.99288 3.44115 40.8033
543497 6.63478 9.08846 12.104 12.9395 2.01705 3.42935 40.7667
543507 6.63478 9.06978 12.0831 12.9207 2.00982 3.42654 40.7084
543527 6.64348 9.04176 12.0412 13.0517 2.08983 3.46057 40.7782
543537 6.65217 9.14451 12.0412 12.9956 2.11021 3.39432 40.8335
543550 6.65217 9.14451 12.0412 12.9956 2.11021 3.39432 40.8335
543557 6.66087 9.11648 12.104 13.005 2.05238 3.42349 40.8863
543567 6.66087 9.11648 12.104 13.005 2.05238 3.42349 40.8863
543578 6.67826 9.07912 12.0098 13.0143 2.08754 3.40844 40.7815
543587 6.66087 9.15385 12.0203 12.9956 2.12357 3.38025 40.8306
543597 6.66087 9.15385 12.0203 12.9956 2.12357 3.38025 40.8306
543607 6.68696 9.18187 11.9994 12.9582 2.11487 3.33929 40.8264
543617 6.65217 9.12582 12.0412 12.8927 2.04185 3.37343 40.7119
543628 6.65217 9.12582 12.0412 12.8927 2.04185 3.37343 40.7119
543637 6.69565 9.12582 12.0098 12.9395 2.06017 3.35822 40.7708
543647 6.69565 9.12582 12.0098 12.9395 2.06017 3.35822 40.7708
543658 6.66087 9.17253 12.0412 12.9582 2.09917 3.36715 40.8328
543667 6.68696 9.18187 11.9994 13.005 2.14106 3.35263 40.8732
543678 6.68696 9.18187 11.9994 13.005 2.14106 3.35263 40.8732
543688 6.72174 9.16319 11.9994 12.902 2.04977 3.316 40.7863
543698 6.66957 9.06044 12.0517 12.9207 2.00229 3.4061 40.7024
543709 6.66957 9.06044 12.0517 12.9207 2.00229 3.4061 40.7024
543719 6.69565 9.20055 12.0308 12.9114 2.07251 3.3226 40.8384
543728 6.69565 9.20055 12.0308 12.9114 2.07251 3.3226 40.8384
543740 6.64348 9.06044 12.0517 12.9488 2.03546 3.42589 40.7044
543749 6.69565 9.14451 12.0831 12.8927 1.99583 3.35737 40.8159
543758 6.69565 9.14451 12.0831 12.8927 1.99583 3.35737 40.8159
543769 6.73913 9.16319 12.0831 12.9395 2.00394 3.34279 40.9249
543779 6.73043 9.12582 11.9994 12.9488 2.0493 3.34226 40.8045
543788 6.73043 9.12582 11.9994 12.9488 2.0493 3.34226 40.8045
543799 6.73913 9.13517 12.1249 12.9956 1.99215 3.38319 40.9948
543809 6.73913 9.13517 12.1249 12.9956 1.99215 3.38319 40.9948
543820 6.66087 9.19121 12.0203 12.9769 2.13401 3.35812 40.8493
543830 6.72174 9.17253 12.0412 12.9862 2.07457 3.34781 40.9217
543840 6.72174 9.17253 12.0412 12.9862 2.07457 3.34781 40.9217
543850 6.68696 9.10714 12.0203 12.9207 2.03794 3.3682 40.7352
543860 6.68696 9.10714 12.0098 12.9207 2.04488 3.36522 40.7247
543870 6.69565 9.15385 12.0098 12.9207 2.06541 3.34027 40.7801
543878 6.71304 9.08846 12.1145 13.005 1.99526 3.41558 40.9209
543897 6.71304 9.08846 12.1145 13.005 1.99526 3.41558 40.9209
543900 6.67826 9.12582 11.9994 12.9675 2.09445 3.37108 40.771
543910 6.64348 9.10714 12.1249 12.9862 2.03429 3.43617 40.8618
543930 6.69565 9.08846 12.0098 12.9675 2.05494 3.38307 40.7615
543940 6.66087 9.0511 11.9994 13.0611 2.11658 3.43927 40.7724
543951 6.66087 9.0511 11.9994 13.0611 2.11658 3.43927 40.7724
543961 6.63478 9.11648 12.104 13.0424 2.09063 3.44584 40.8976
543972 6.63478 9.11648 12.104 13.0424 2.09063 3.44584 40.8976
543981 6.70435 9.06044 12.0098 13.0237 2.06498 3.40776 40.7983
543991 6.68696 9.15385 12.0831 13.0424 2.09086 3.39962 40.9663
544001 6.68696 9.15385 12.0831 13.0424 2.09086 3.39962 40.9663
544011 6.63478 9.13517 12.1354 13.0237 2.06984 3.441 40.929
544021 6.65217 9.12582 12.0935 13.0611 2.10175 3.43612 40.9326
544041 6.68696 9.11648 12.104 13.0143 2.04038 3.41439 40.9217
544051 6.68696 9.11648 12.104 13.0143 2.04038 3.41439 40.9217
544062 6.63478 9.12582 12.0412 12.9395 2.07975 3.39462 40.7413
544074 6.63478 9.0511 11.9889 12.9769 2.09357 3.42419 40.6517
544082 6.63478 9.0511 11.9889 12.9769 2.09357 3.42419 40.6517
544092 6.64348 9.10714 11.9575 12.9301 2.11391 3.37257 40.6383
544102 6.6 9.08846 12.0098 13.0237 2.15012 3.44226 40.722
544112 6.6 9.08846 12.0098 13.0237 2.15012 3.44226 40.722
544122 6.66957 9.14451 12.0412 13.0424 2.12487 3.39978 40.8977
544132 6.66957 9.14451 12.0412 13.0424 2.12487 3.39978 40.8977
544142 6.66957 9.12582 12.0098 13.0517 2.14049 3.40194 40.857
544152 6.67826 9.11648 12.0935 13.0611 2.07926 3.42858 40.9494
544162 6.67826 9.11648 12.0935 13.0611 2.07926 3.42858 40.9494
544172 6.68696 9.10714 12.0831 13.0985 2.09613 3.43649 40.9757
544183 6.66087 9.06978 12.104 13.0424 2.04717 3.45514 40.877
544192 6.66087 9.06978 12.104 13.0424 2.04717 3.45514 40.877
544203 6.67826 9.07912 12.0935 13.0798 2.06881 3.45069 40.9307
544223 6.63478 9.02308 12.0726 13.005 2.03793 3.46862 40.7354
544233 6.63478 9.06978 12.1145 13.0892 2.08375 3.48306 40.9082
544244 6.63478 9.06978 12.1145 13.0892 2.08375 3.48306 40.9082
544253 6.65217 9.06978 12.0935 12.9862 2.02829 3.44023 40.8017
544264 6.65217 9.0978 12.1668 13.005 2.00616 3.45357 40.9217
544283 6.66957 9.04176 12.1145 13.0517 2.02401 3.46946 40.8775
544295 6.66957 9.04176 12.1145 13.0517 2.02401 3.46946 40.8775
544305 6.66087 9.06978 12.104 13.0704 2.06292 3.46306 40.9051
544316 6.64348 9.03242 12.1458 13.0704 2.02578 3.49959 40.8922
544325 6.64348 9.03242 12.1458 13.0704 2.02578 3.49959 40.8922
544335 6.64348 9.06978 12.0726 13.0517 2.08473 3.45677 40.8376
544345 6.62609 9.04176 12.1458 13.0143 2.01096 3.48743 40.828
544355 6.62609 9.04176 12.1458 13.0143 2.01096 3.48743 40.828
544365 6.58261 9.04176 12.1354 13.0517 2.06774 3.51473 40.8115
544375 6.58261 9.04176 12.1354 13.0517 2.06774 3.51473 40.8115
544385 6.64348 8.92033 12.1563 13.0517 1.94514 3.54812 40.7719
544393 6.6 9.03242 12.1458 13.0611 2.04929 3.51665 40.8394
544405 6.6 9.03242 12.1458 13.0611 2.04929 3.51665 40.8394
544414 6.67826 9.07912 12.104 13.0892 2.06714 3.45628 40.9505
544425 6.67826 9.07912 12.1249 13.0892 2.05331 3.46218 40.9715
544435 6.6 8.98571 12.1249 13.0424 2.02633 3.5267 40.753
544445 6.67826 8.98571 12.1354 13.0985 1.99924 3.50994 40.8979
544455 6.67826 8.98571 12.1354 13.0985 1.99924 3.50994 40.8979
544465 6.64348 9.07912 12.1458 13.0517 2.04149 3.47322 40.9202
544475 6.58261 8.98571 12.1458 13.0517 2.02927 3.54313 40.7659
544496 6.6087 9.0511 12.1458 13.1172 2.0855 3.52002 40.9229
544505 6.6087 9.0511 12.1458 13.1172 2.0855 3.52002 40.9229
544516 6.63478 9.02308 12.1354 13.1172 2.05946 3.51796 40.9105
544523 6.61739 9.02308 12.1563 13.1266 2.06237 3.53432 40.9234
544535 6.61739 9.02308 12.1563 13.1266 2.06237 3.53432 40.9234
544545 6.62609 9.07912 12.1354 13.1172 2.09659 3.49655 40.9578
544555 6.64348 9.07912 12.1563 13.0892 2.05556 3.48669 40.9681
544565 6.64348 9.07912 12.1563 13.0892 2.05556 3.48669 40.9681
544575 6.6 9.04176 12.1458 13.0985 2.07554 3.52293 40.8861
544586 6.6 9.04176 12.1458 13.0985 2.07554 3.52293 40.8861
544597 6.57391 9.07912 12.1458 13.0985 2.11375 3.51782 40.8974
544605 6.61739 8.96703 12.1772 13.0611 1.98021 3.54725 40.8227
544615 6.61739 8.96703 12.1772 13.0611 1.98021 3.54725 40.8227
544626 6.63478 8.97637 12.1563 13.0611 1.98781 3.52924 40.8286
544636 6.53913 9.0044 12.0831 13.0704 2.12094 3.54203 40.697
544646 6.53913 9.0044 12.0831 13.0704 2.12094 3.54203 40.697
544656 6.61739 8.99506 12.1877 13.0704 1.99436 3.54009 40.8706
544666 6.61739 8.99506 12.1877 13.0704 1.99436 3.54009 40.8706
544676 6.56522 8.90165 12.1982 13.033 1.94806 3.59881 40.698
544686 6.56522 8.95769 12.2295 13.0704 1.98013 3.5925 40.8229
544696 6.56522 8.95769 12.2295 13.0704 1.98013 3.5925 40.8229
544707 6.55652 8.92033 12.24 13.1734 2.01587 3.64507 40.8902
544716 6.58261 8.91099 12.2505 13.1827 1.99175 3.64294 40.9268
544727 6.58261 8.91099 12.2505 13.1827 1.99175 3.64294 40.9268
544737 6.57391 8.91099 12.24 13.1827 2.00439 3.644 40.9076
544748 6.57391 8.91099 12.24 13.1827 2.00439 3.644 40.9076
544757 6.53043 8.94835 12.2818 13.2108 2.04219 3.66616 40.9714
544767 6.54783 8.92033 12.3028 13.1547 1.96966 3.66125 40.9256
544777 6.54783 8.92033 12.3028 13.1547 1.96966 3.66125 40.9256
544787 6.54783 8.94835 12.2714 13.1453 2.00086 3.63718 40.9129
544797 6.53913 8.93901 12.2923 13.1359 1.98228 3.64861 40.9064
544809 6.53913 8.93901 12.2923 13.1359 1.98228 3.64861 40.9064
544817 6.53913 8.92033 12.3237 13.1172 1.94053 3.66065 40.9004
544827 6.53913 8.92033 12.3237 13.1172 1.94053 3.66065 40.9004
544838 6.48696 8.87363 12.2818 13.1921 2.01845 3.715 40.8345
544847 6.51304 8.85495 12.2714 13.2201 2.0134 3.71647 40.8595
544857 6.51304 8.85495 12.2714 13.2201 2.0134 3.71647 40.8595
544867 6.48696 8.77088 12.3132 13.1827 1.93443 3.76828 40.7538
544877 6.45217 8.88297 12.3446 13.2108 2.01573 3.74913 40.8905
544887 6.45217 8.88297 12.3446 13.2108 2.01573 3.74913 40.8905
544897 6.54783 8.7989 12.3551 13.2763 1.93535 3.76468 40.9781
544910 6.54783 8.7989 12.3551 13.2763 1.93535 3.76468 40.9781
544917 6.43478 8.87363 12.2923 13.2295 2.06712 3.75215 40.8302
544929 6.46957 8.86429 12.376 13.2482 1.99407 3.76862 40.9581
544939 6.46957 8.86429 12.376 13.2482 1.99407 3.76862 40.9581
544949 6.47826 8.7989 12.3655 13.3137 1.9953 3.80969 40.9564
544958 6.44348 8.78956 12.3655 13.3137 2.01299 3.82998 40.9123
544969 6.44348 8.78956 12.3655 13.3137 2.01299 3.82998 40.9123
544979 6.45217 8.77088 12.3446 13.3418 2.02634 3.83652 40.9094
544998 6.42609 8.7989 12.4283 13.295 1.9778 3.8457 40.9483
545011 6.44348 8.76154 12.3132 13.295 2.02129 3.82347 40.8132
545018 6.44348 8.76154 12.3132 13.295 2.02129 3.82347 40.8132
545031 6.49565 8.78956 12.3446 13.3043 1.98712 3.79771 40.9342
545040 6.4087 8.78022 12.3446 13.3511 2.06559 3.85481 40.8847
545050 6.4087 8.78022 12.3446 13.3511 2.06559 3.85481 40.8847
545060 6.43478 8.73352 12.2609 13.3418 2.0723 3.8389 40.771
545070 6.43478 8.73352 12.2609 13.3418 2.0723 3.8389 40.771
545080 6.43478 8.76154 12.3237 13.3792 2.06744 3.85334 40.8992
545090 6.42609 8.76154 12.3446 13.3886 2.06459 3.86559 40.9208
545101 6.42609 8.76154 12.3446 13.3886 2.06459 3.86559 40.9208
545120 6.4087 8.72418 12.3655 13.4166 2.05705 3.90417 40.915
545130 6.4087 8.72418 12.3655 13.4166 2.05705 3.90417 40.915
545140 6.41739 8.77088 12.3342 13.3698 2.07202 3.85735 40.8923
545149 6.41739 8.77088 12.3342 13.3698 2.07202 3.85735 40.8923
545168 6.4 8.72418 12.376 13.3418 2.01383 3.89071 40.8419
545170 6.43478 8.76154 12.2923 13.3979 2.09871 3.84989 40.8865
545180 6.43478 8.76154 12.2923 13.3979 2.09871 3.84989 40.8865
545190 6.45217 8.7522 12.3132 13.3324 2.03134 3.834 40.85
545200 6.45217 8.7522 12.3132 13.3324 2.03134 3.834 40.85
545210 6.42609 8.76154 12.3446 13.3511 2.0436 3.8554 40.8834
545221 6.44348 8.68681 12.3655 13.3979 2.00257 3.90029 40.8937
545231 6.44348 8.68681 12.3655 13.3979 2.00257 3.90029 40.8937
545240 6.37391 8.7522 12.3551 13.3605 2.07123 3.88921 40.8417
545250 6.3913 8.71484 12.3865 13.3979 2.03897 3.91713 40.8905
545260 6.3913 8.71484 12.3865 13.3979 2.03897 3.91713 40.8905
545270 6.44348 8.69615 12.3865 13.3698 1.97822 3.89403 40.8959
545280 6.44348 8.69615 12.3865 13.3698 1.97822 3.89403 40.8959
545290 6.41739 8.66813 12.3865 13.4915 2.04801 3.95196 40.9635
545300 6.37391 8.68681 12.3865 13.4915 2.08721 3.96344 40.9387
545310 6.37391 8.68681 12.3865 13.4915 2.08721 3.96344 40.9387
545321 6.32174 8.64011 12.376 13.4728 2.09206 4.0015 40.8106
545331 6.33043 8.66813 12.3969 13.5008 2.10386 3.99761 40.8963
545340 6.33043 8.66813 12.3969 13.5008 2.10386 3.99761 40.8963
545351 6.41739 8.60275 12.4388 13.5289 1.99784 4.00638 40.9878
545361 6.41739 8.60275 12.4388 13.5289 1.99784 4.00638 40.9878
545371 6.31304 8.58407 12.4702 13.5102 2.02499 4.067 40.8774
545381 6.36522 8.55604 12.4702 13.5289 1.9853 4.06074 40.9203
545392 6.36522 8.55604 12.4702 13.5289 1.9853 4.06074 40.9203
545401 6.32174 8.58407 12.512 13.557 2.01789 4.0866 40.9748
545412 6.35652 8.53736 12.5015 13.5195 1.95456 4.07938 40.915
545421 6.35652 8.53736 12.5015 13.5195 1.95456 4.07938 40.915
545432 6.33913 8.56538 12.4806 13.5663 2.02188 4.08133 40.9515
545441 6.33913 8.56538 12.4806 13.5663 2.02188 4.08133 40.9515
545451 6.30435 8.50934 12.4283 13.5944 2.06376 4.11729 40.8364
545461 6.4087 8.47198 12.512 13.6505 1.95026 4.12316 41.0432
545471 6.4087 8.47198 12.512 13.6505 1.95026 4.12316 41.0432
545481 6.29565 8.50934 12.5434 13.6692 2.03543 4.17173 41.0176
545491 6.25217 8.5 12.6166 13.7347 2.04723 4.23291 41.1035
545501 6.25217 8.5 12.6166 13.7347 2.04723 4.23291 41.1035
545511 6.33913 8.48132 12.5643 13.6973 1.99307 4.17743 41.0821
545521 6.33913 8.48132 12.5643 13.6973 1.99307 4.17743 41.0821
545533 6.24348 8.40659 12.6062 13.7441 2.01282 4.28052 41.0003
545542 6.24348 8.38791 12.5957 13.7067 1.98821 4.27678 40.9337
545552 6.24348 8.38791 12.5957 13.7067 1.98821 4.27678 40.9337
545562 6.2 8.34121 12.5538 13.6973 2.01304 4.30593 40.7924
545573 6.23478 8.29451 12.5538 13.7254 1.97952 4.31892 40.8085
545592 6.23478 8.28516 12.6375 13.8283 1.97698 4.37196 40.9858
545602 6.23478 8.28516 12.6375 13.8283 1.97698 4.37196 40.9858
545612 6.17391 8.2478 12.5748 13.8096 2.02709 4.39737 40.8061
545622 6.2087 8.30385 12.5957 13.8657 2.05324 4.37432 40.9739
545632 6.2087 8.30385 12.5957 13.8657 2.05324 4.37432 40.9739
545642 6.25217 8.33187 12.5957 13.847 2.02977 4.3357 41.0267
545652 6.18261 8.29451 12.6271 13.8283 2.02352 4.38952 40.9325
545662 6.18261 8.29451 12.6271 13.8283 2.02352 4.38952 40.9325
545672 6.25217 8.31319 12.6375 13.8844 2.01272 4.36507 41.0873
545684 6.25217 8.31319 12.6375 13.8844 2.01272 4.36507 41.0873
545693 6.18261 8.33187 12.5329 13.8283 2.10677 4.34735 40.8757
545703 6.23478 8.33187 12.6689 13.8564 1.99828 4.36532 41.0919
545713 6.23478 8.33187 12.6689 13.8564 1.99828 4.36532 41.0919
545723 6.27826 8.33187 12.4911 13.7909 2.05015 4.28145 40.8921
545733 6.23478 8.36923 12.5225 13.7722 2.06861 4.28765 40.8986
545742 6.23478 8.36923 12.5225 13.7722 2.06861 4.28765 40.8986
545752 6.24348 8.34121 12.5329 13.8096 2.06121 4.30929 40.9272
545773 6.1913 8.36923 12.5538 13.7347 2.05562 4.3066 40.8491
545784 6.24348 8.42527 12.4806 13.716 2.09052 4.23141 40.8654
545793 6.24348 8.42527 12.4806 13.716 2.09052 4.23141 40.8654
545810 6.34783 8.4533 12.4806 13.6879 2.02149 4.1619 40.9697
545815 6.25217 8.49066 12.4492 13.6786 2.12123 4.17842 40.8707
545825 6.25217 8.49066 12.4492 13.6786 2.12123 4.17842 40.8707
545833 6.32174 8.57473 12.4702 13.6692 2.10308 4.10967 41.0359
545843 6.32174 8.57473 12.4702 13.6692 2.10308 4.10967 41.0359
545855 6.27826 8.5467 12.4702 13.5663 2.05855 4.11568 40.8614
545866 6.33043 8.5 12.5329 13.585 1.96691 4.13479 40.9484
545875 6.33043 8.5 12.5329 13.585 1.96691 4.13479 40.9484
545885 6.33913 8.57473 12.4597 13.5476 2.03044 4.0664 40.9212
545895 6.31304 8.55604 12.4911 13.5476 2.01645 4.09565 40.9078
545905 6.31304 8.55604 12.4911 13.5476 2.01645 4.09565 40.9078
545915 6.41739 8.63077 12.4074 13.5102 2.02375 3.97994 40.9657
545925 6.41739 8.63077 12.4074 13.5102 2.02375 3.97994 40.9657
545935 6.36522 8.55604 12.4492 13.4728 1.9675 4.0401 40.8432
545946 6.38261 8.59341 12.4492 13.4353 1.95598 4.00455 40.8606
545957 6.38261 8.59341 12.4492 13.4353 1.95598 4.00455 40.8606
545966 6.34783 8.63077 12.3865 13.426 2.03627 3.98391 40.791
545976 6.37391 8.63077 12.4283 13.454 2.00711 3.99063 40.887
545986 6.37391 8.63077 12.4283 13.454 2.00711 3.99063 40.887
545996 6.33913 8.67747 12.4283 13.426 2.04058 3.97753 40.8709
546006 6.33913 8.67747 12.4283 13.426 2.04058 3.97753 40.8709
546016 6.38261 8.59341 12.3865 13.426 1.99218 3.98511 40.7885
546028 6.38261 8.5467 12.5015 13.4821 1.92156 4.05288 40.913
546036 6.38261 8.5467 12.5015 13.4821 1.92156 4.05288 40.913
546046 6.4 8.60275 12.4911 13.454 1.93277 4.0084 40.9479
546057 6.35652 8.64945 12.4178 13.3979 2.00444 3.97207 40.8217
546066 6.35652 8.64945 12.4178 13.3979 2.00444 3.97207 40.8217
546076 6.43478 8.66813 12.3969 13.3324 1.94016 3.90369 40.8323
546086 6.43478 8.66813 12.3969 13.3324 1.94016 3.90369 40.8323
546097 6.4087 8.68681 12.4492 13.3698 1.95451 3.93145 40.9146
546107 6.4087 8.76154 12.4074 13.3137 1.99257 3.87033 40.8913
546117 6.4087 8.76154 12.4074 13.3137 1.99257 3.87033 40.8913
546127 6.49565 8.78022 12.3446 13.2201 1.93441 3.77892 40.8406
546137 6.46957 8.81758 12.2923 13.1734 1.98089 3.74644 40.7528
546148 6.46957 8.81758 12.2923 13.1734 1.98089 3.74644 40.7528
546160 6.54783 8.82692 12.3342 13.1827 1.91216 3.72037 40.8916
546168 6.53043 8.83626 12.2818 13.1359 1.93696 3.69666 40.7845
546178 6.53043 8.83626 12.2818 13.1359 1.93696 3.69666 40.7845
546190 6.57391 8.89231 12.2086 13.1359 1.98827 3.63078 40.8108
546200 6.57391 8.89231 12.2086 13.1359 1.98827 3.63078 40.8108
546210 6.58261 8.92967 12.2923 13.0517 1.90086 3.60963 40.8563
546220 6.62609 8.89231 12.2714 13.0611 1.87017 3.60362 40.8509
546230 6.62609 8.89231 12.2714 13.0611 1.87017 3.60362 40.8509
546240 6.6087 8.99506 12.2505 12.9675 1.9006 3.53277 40.8217
546257 6.61739 8.90165 12.2714 12.9488 1.81746 3.57192 40.7392
546258 6.61739 8.90165 12.2714 12.9488 1.81746 3.57192 40.7392
546268 6.64348 8.98571 12.24 13.0237 1.91103 3.53404 40.8929
546280 6.64348 8.98571 12.24 13.0237 1.91103 3.53404 40.8929
546290 6.65217 8.92967 12.2714 12.9114 1.78924 3.53282 40.7646
546300 6.63478 8.93901 12.2295 12.9956 1.88135 3.54838 40.7989
546310 6.63478 8.93901 12.2295 12.9956 1.88135 3.54838 40.7989
546320 6.72174 8.92033 12.2714 12.9675 1.77022 3.52126 40.881
546330 6.72174 8.92033 12.3132 12.9675 1.74285 3.533 40.9228
546340 6.61739 8.89231 12.3132 12.9582 1.78996 3.59053 40.7811
546351 6.66087 8.95769 12.24 12.9956 1.86788 3.53099 40.8542
546362 6.66087 8.95769 12.24 12.9956 1.86788 3.53099 40.8542
546370 6.63478 8.94835 12.3342 12.9582 1.79667 3.56297 40.8755
546380 6.67826 8.98571 12.2714 12.9769 1.84111 3.51397 40.9122
546390 6.67826 8.98571 12.2714 12.9769 1.84111 3.51397 40.9122
546400 6.71304 9.0044 12.2609 12.9582 1.82514 3.48161 40.9365
546410 6.71304 9.0044 12.2609 12.9582 1.82514 3.48161 40.9365
546420 6.64348 8.90165 12.2714 12.9395 1.79498 3.55741 40.756
546429 6.66957 8.91099 12.24 12.9301 1.79846 3.52984 40.7507
546448 6.66957 8.91099 12.24 12.9301 1.79846 3.52984 40.7507
546451 6.62609 8.94835 12.3655 13.0237 1.81893 3.59395 40.9636
546461 6.65217 8.92967 12.3551 12.9207 1.73968 3.55893 40.8577
546472 6.65217 8.92967 12.3551 12.9207 1.73968 3.55893 40.8577
546482 6.66957 8.96703 12.2818 12.9582 1.81876 3.52405 40.8766
546492 6.66087 8.92033 12.2923 12.9488 1.78577 3.5495 40.8223
546502 6.66087 8.92033 12.2923 12.9488 1.78577 3.5495 40.8223
546513 6.65217 8.95769 12.2505 12.9582 1.84551 3.52736 40.8185
546522 6.65217 8.95769 12.2505 12.9582 1.84551 3.52736 40.8185
546532 6.63478 8.91099 12.3132 12.9675 1.79448 3.57671 40.8265
546542 6.68696 8.93901 12.3028 12.9207 1.75647 3.52424 40.8495
546552 6.68696 8.93901 12.3028 12.9207 1.75647 3.52424 40.8495
546562 6.66957 8.95769 12.2609 12.9207 1.80595 3.51188 40.8089
546573 6.65217 8.94835 12.2295 12.9862 1.86989 3.53361 40.8163
546582 6.65217 8.94835 12.2295 12.9862 1.86989 3.53361 40.8163
546592 6.69565 9.0044 12.2505 13.005 1.86986 3.49967 40.9555
546602 6.69565 9.0044 12.2505 13.005 1.86986 3.49967 40.9555
546612 6.68696 9.01374 12.1877 12.9301 1.87978 3.4606 40.8185
546622 6.67826 8.98571 12.2295 12.9488 1.85269 3.49431 40.8423
546642 6.69565 9.0511 12.1982 12.9301 1.88832 3.44275 40.875
546652 6.66087 8.99506 12.2086 12.9301 1.8726 3.48678 40.7946
546663 6.66087 8.99506 12.2086 12.9301 1.8726 3.48678 40.7946
546676 6.70435 9.0044 12.2191 12.9862 1.87418 3.48165 40.9141
546684 6.70435 9.0044 12.2191 12.9862 1.87418 3.48165 40.9141
546693 6.62609 8.98571 12.1982 12.9956 1.93422 3.52229 40.8056
546703 6.65217 9.06978 12.1249 12.9769 2.00225 3.44647 40.8238
546713 6.65217 9.06978 12.1249 12.9769 2.00225 3.44647 40.8238
546723 6.69565 9.0511 12.1668 12.9769 1.9354 3.44711 40.8904
546733 6.65217 9.0511 12.1982 12.9488 1.92752 3.46768 40.8502
546745 6.65217 9.0511 12.1982 12.9488 1.92752 3.46768 40.8502
546755 6.66087 9.06044 12.1563 13.0143 1.99157 3.4662 40.8919
546765 6.66087 9.06044 12.1563 13.0143 1.99157 3.4662 40.8919
546775 6.65217 8.98571 12.1877 12.9488 1.89743 3.49433 40.7744
546786 6.69565 8.97637 12.1563 12.9395 1.87886 3.46735 40.7678
546795 6.69565 8.97637 12.1563 12.9395 1.87886 3.46735 40.7678
546805 6.70435 9.07912 12.0726 12.9395 1.9865 3.39324 40.7955
546816 6.70435 9.07912 12.0622 12.9582 2.00397 3.39559 40.8038
546837 6.73913 9.08846 12.1145 12.8927 1.91476 3.37196 40.8347
546847 6.73913 9.08846 12.1145 12.8927 1.91476 3.37196 40.8347
546856 6.66957 9.04176 12.104 12.9301 1.96237 3.43208 40.7454
546866 6.73043 9.06978 12.0622 12.9207 1.96033 3.37738 40.7831
546876 6.73043 9.06978 12.0622 12.9207 1.96033 3.37738 40.7831
546886 6.67826 9.0978 12.0726 12.8646 1.97204 3.37525 40.7133
546897 6.76522 9.16319 12.0935 12.874 1.94298 3.31541 40.8959
546907 6.76522 9.16319 12.0935 12.874 1.94298 3.31541 40.8959
546917 6.78261 9.16319 12.104 12.8927 1.93519 3.31595 40.9425
546927 6.78261 9.16319 12.104 12.8927 1.93519 3.31595 40.9425
546937 6.70435 9.24725 12.0517 12.8272 2.03182 3.27964 40.8305
546947 6.74783 9.20989 12.0203 12.8553 2.01858 3.27595 40.8333
546958 6.74783 9.20989 12.0203 12.8553 2.01858 3.27595 40.8333
546967 6.75652 9.23791 12.0098 12.743 1.97224 3.22417 40.7473
546977 6.78261 9.20989 11.9994 12.8178 1.98833 3.24361 40.8097
546987 6.78261 9.20989 11.9994 12.8178 1.98833 3.24361 40.8097
546996 6.77391 9.28462 11.9889 12.7991 2.03255 3.20572 40.8466
547017 6.77391 9.3033 12.0726 12.7804 1.97725 3.21614 40.9302
547027 6.76522 9.27527 12.0308 12.7991 2.00537 3.22583 40.8704
547037 6.76522 9.27527 12.0308 12.7991 2.00537 3.22583 40.8704
547047 6.74783 9.3033 11.9994 12.743 2.02181 3.19582 40.7935
547057 6.78261 9.3033 12.0412 12.7336 1.96587 3.18972 40.8608
547072 6.78261 9.3033 12.0412 12.7336 1.96587 3.18972 40.8608
547085 6.74783 9.3033 11.9889 12.7243 2.0182 3.18737 40.7643
547098 6.8 9.25659 12.0517 12.7243 1.91586 3.20309 40.8326
547107 6.76522 9.25659 12.0203 12.7243 1.95954 3.20955 40.7664
547117 6.76522 9.25659 12.0203 12.7243 1.95954 3.20955 40.7664
547127 6.75652 9.27527 12.0517 12.743 1.96566 3.21956 40.8265
547140 6.8087 9.21923 12.0203 12.7056 1.89908 3.2014 40.7538
547147 6.8087 9.21923 12.0203 12.7056 1.89908 3.2014 40.7538
547157 6.8087 9.21923 12.0622 12.8178 1.93496 3.24585 40.9079
547167 6.8087 9.21923 12.0622 12.8178 1.93496 3.24585 40.9079
547178 6.74783 9.21923 12.0308 12.7243 1.94299 3.23706 40.7221
547187 6.75652 9.31264 12.0412 12.7149 1.97782 3.19177 40.8253
547200 6.75652 9.31264 12.0412 12.7149 1.97782 3.19177 40.8253
547207 6.82609 9.24725 12.0203 12.7711 1.94049 3.20008 40.8647
547217 6.8 9.20055 12.0517 12.6962 1.86821 3.22 40.7484
547238 6.78261 9.22857 12.0098 12.7243 1.93911 3.21127 40.7453
547249 6.78261 9.22857 12.0098 12.7243 1.93911 3.21127 40.7453
547258 6.75652 9.25659 12.0517 12.6962 1.92867 3.21439 40.761
547268 6.82609 9.19121 12.0517 12.7056 1.85102 3.21522 40.7745
547279 6.82609 9.19121 12.0517 12.7056 1.85102 3.21522 40.7745
547288 6.8087 9.27527 12.0412 12.7149 1.92229 3.18517 40.8401
547299 6.8087 9.23791 12.0622 12.7243 1.89267 3.21057 40.833
547319 6.87826 9.25659 12.0831 12.6868 1.82259 3.16653 40.9048
547329 6.87826 9.25659 12.0831 12.6868 1.82259 3.16653 40.9048
547339 6.81739 9.25659 12.0308 12.6868 1.897 3.17846 40.7916
547349 6.85217 9.3033 12.0308 12.5746 1.83689 3.10956 40.7608
547360 6.85217 9.3033 12.0308 12.5746 1.83689 3.10956 40.7608
547370 6.90435 9.28462 12.0517 12.5652 1.7729 3.09806 40.8059
547380 6.90435 9.33132 11.8948 12.5371 1.88685 3.02314 40.6676
547400 6.93043 9.26593 11.9157 12.5465 1.82392 3.04948 40.6586
547410 6.93043 9.26593 11.9157 12.5465 1.82392 3.04948 40.6586
547420 6.87826 9.34066 11.9889 12.4997 1.82595 3.04724 40.7076
547430 6.87826 9.34066 11.9262 12.5091 1.8727 3.03154 40.6542
547440 6.87826 9.34066 11.9262 12.5091 1.8727 3.03154 40.6542
547450 6.97391 9.37802 11.9366 12.5652 1.85583 2.99234 40.8538
547461 6.93043 9.41538 11.9366 12.5371 1.88971 2.98678 40.8196
547470 6.93043 9.41538 11.9366 12.5371 1.88971 2.98678 40.8196
547480 6.92174 9.40604 11.9052 12.6026 1.94788 3.00476 40.8357
547490 6.92174 9.40604 11.9052 12.6026 1.94788 3.00476 40.8357
547500 6.89565 9.40604 11.8634 12.5559 1.96635 2.99019 40.7209
547510 6.92174 9.36868 11.8529 12.5839 1.95075 3.00036 40.7273
547521 6.92174 9.36868 11.8529 12.5839 1.95075 3.00036 40.7273
547532 6.94783 9.44341 11.8425 12.6214 2.00371 2.96386 40.855
547541 6.92174 9.46209 11.8529 12.6681 2.05083 2.98396 40.9049
547551 6.92174 9.46209 11.8529 12.6681 2.05083 2.98396 40.9049
547561 6.94783 9.41538 11.832 12.6494 2.01066 2.98138 40.8446
547571 6.94783 9.41538 11.832 12.6494 2.01066 2.98138 40.8446
547581 6.89565 9.44341 11.8006 12.6026 2.05547 2.96898 40.7423
547591 6.91304 9.42473 11.7169 12.6962 2.14165 2.97246 40.7509
547601 6.91304 9.42473 11.7169 12.6962 2.14165 2.97246 40.7509
547611 6.94783 9.49945 11.8425 12.5933 2.01945 2.93097 40.883
547621 6.94783 9.49945 11.8425 12.5933 2.01945 2.93097 40.883
547630 6.87826 9.41538 11.8006 12.5933 2.04596 2.98627 40.6875
547640 6.96522 9.46209 11.7692 12.6214 2.05118 2.92639 40.8179
547651 6.96522 9.46209 11.7692 12.6214 2.05118 2.92639 40.8179
547661 6.89565 9.49011 11.7692 12.6214 2.1131 2.94466 40.7763
547671 6.93913 9.43407 11.7692 12.6401 2.06324 2.95572 40.7825
547681 6.93913 9.43407 11.7692 12.6401 2.06324 2.95572 40.7825
547691 6.92174 9.50879 11.8425 12.612 2.05246 2.94384 40.885
547701 6.92174 9.50879 11.8425 12.612 2.05246 2.94384 40.885
547711 6.88696 9.43407 11.7797 12.5933 2.06462 2.96799 40.694
547728 6.87826 9.49945 11.7797 12.6401 2.13344 2.95682 40.7975
547732 6.87826 9.49945 11.7797 12.6401 2.13344 2.95682 40.7975
547741 6.88696 9.47143 11.8425 12.6307 2.06502 2.98107 40.8316
547751 6.90435 9.46209 11.7588 12.6214 2.09854 2.95007 40.7466
547761 6.90435 9.46209 11.7588 12.6214 2.09854 2.95007 40.7466
547771 6.92174 9.53681 11.8529 12.7056 2.11358 2.96216 41.017
547784 6.92174 9.53681 11.8529 12.7056 2.11358 2.96216 41.017
547791 6.86957 9.43407 11.7797 12.6775 2.12355 3.00051 40.7608
547801 6.87826 9.49011 11.8634 12.7149 2.11457 3.00754 40.9467
547811 6.87826 9.49011 11.8634 12.7149 2.11457 3.00754 40.9467
547821 6.89565 9.40604 11.832 12.7243 2.08201 3.03046 40.858
547841 6.85217 9.35934 11.8006 12.7243 2.1055 3.06116 40.7364
547852 6.82609 9.37802 11.9262 12.743 2.0605 3.10656 40.8732
547871 6.8 9.35 11.8843 12.7523 2.09507 3.12111 40.7866
547881 6.7913 9.35 11.9366 12.7149 2.04509 3.12931 40.7928
547892 6.7913 9.35 11.9366 12.7149 2.04509 3.12931 40.7928
547901 6.81739 9.37802 11.9262 12.743 2.06625 3.11042 40.8645
547911 6.81739 9.37802 11.9262 12.743 2.06625 3.11042 40.8645
547921 6.7913 9.29396 11.8425 12.7056 2.07081 3.12407 40.6333
547931 6.8 9.35 11.9052 12.7149 2.06014 3.1163 40.7701
547944 6.8 9.35 11.9052 12.7149 2.06014 3.1163 40.7701
547951 6.8 9.33132 11.8529 12.8085 2.13694 3.13662 40.7927
547961 6.7913 9.34066 11.8634 12.8085 2.141 3.13937 40.8038
547972 6.7913 9.34066 11.8634 12.8085 2.141 3.13937 40.8038
547982 6.7913 9.31264 11.9366 12.7804 2.06091 3.16495 40.821
547992 6.7913 9.31264 11.9366 12.7804 2.06091 3.16495 40.821
548007 6.77391 9.26593 12.0203 12.8178 2.01181 3.22849 40.878
548012 6.76522 9.18187 11.9575 12.8553 2.03286 3.26266 40.7599
548022 6.76522 9.18187 11.9575 12.8553 2.03286 3.26266 40.7599
548032 6.74783 9.29396 11.9157 12.8646 2.14041 3.21095 40.8221
548045 6.72174 9.21923 11.9471 12.8927 2.11074 3.27316 40.7807
548052 6.72174 9.21923 11.9471 12.8927 2.11074 3.27316 40.7807
548063 6.69565 9.25659 11.9785 12.8365 2.09667 3.26099 40.7673
548074 6.69565 9.25659 11.9785 12.8365 2.09667 3.26099 40.7673
548082 6.73043 9.20055 11.9785 12.9956 2.13131 3.31612 40.905
548094 6.74783 9.20055 11.9785 12.9395 2.08835 3.29228 40.8663
548114 6.69565 9.18187 12.0098 12.8833 2.06012 3.31696 40.7707
548125 6.72174 9.17253 12.0308 12.9301 2.05 3.32881 40.8551
548134 6.72174 9.17253 12.0308 12.9301 2.05 3.32881 40.8551
548146 6.72174 9.18187 12.0203 12.9207 2.05692 3.31896 40.8447
548154 6.72174 9.18187 12.0203 12.9207 2.05692 3.31896 40.8447
548163 6.68696 9.18187 12.0831 12.8646 2.00681 3.33647 40.8165
548174 6.70435 9.17253 12.0726 12.9488 2.04433 3.35389 40.8983
548183 6.70435 9.17253 12.0726 12.9488 2.04433 3.35389 40.8983
548194 6.70435 9.10714 12.0935 12.9207 1.97792 3.38124 40.8258
548204 6.68696 9.11648 12.0412 12.902 2.01877 3.36463 40.7467
548215 6.68696 9.11648 12.0412 12.902 2.01877 3.36463 40.7467
548223 6.72174 9.15385 12.0517 12.8833 1.99932 3.32981 40.8106
548234 6.72174 9.15385 12.0517 12.8833 1.99932 3.32981 40.8106
548244 6.65217 9.14451 12.1354 12.9207 2.00579 3.39981 40.8528
548255 6.73043 9.20055 12.104 12.8833 1.98532 3.31991 40.9183
548263 6.73043 9.20055 12.104 12.8833 1.98532 3.31991 40.9183
548275 6.69565 9.13517 12.0935 12.9301 2.00473 3.37521 40.8545
548286 6.73043 9.14451 12.1249 12.902 1.95051 3.35633 40.9019
548295 6.73043 9.14451 12.1249 12.902 1.95051 3.35633 40.9019
548305 6.73043 9.21923 12.0726 12.874 2.01128 3.29991 40.8962
548315 6.73043 9.21923 12.0726 12.874 2.01128 3.29991 40.8962
548325 6.67826 9.16319 12.0622 12.8927 2.03171 3.35081 40.7963
548334 6.72174 9.19121 12.0831 12.9114 2.01539 3.33003 40.9074
548349 6.72174 9.19121 12.0831 12.9114 2.01539 3.33003 40.9074
548358 6.71304 9.20055 12.104 12.902 2.00731 3.33304 40.9196
548367 6.75652 9.20055 12.0098 12.8178 1.9934 3.26247 40.7847
548375 6.75652 9.20055 12.0098 12.8178 1.9934 3.26247 40.7847
548385 6.69565 9.22857 12.0622 12.8833 2.0517 3.31098 40.8697
548395 6.69565 9.22857 12.0622 12.8833 2.0517 3.31098 40.8697
548405 6.70435 9.19121 12.0203 12.8365 2.02632 3.29844 40.7524
548415 6.77391 9.16319 12.0831 12.8646 1.93887 3.30585 40.8848
548425 6.77391 9.16319 12.0831 12.8646 1.93887 3.30585 40.8848
548435 6.8087 9.25659 12.1145 12.8272 1.92688 3.2469 41.0069
548445 6.74783 9.17253 12.0831 12.8365 1.9455 3.30532 40.84
548455 6.74783 9.17253 12.0831 12.8365 1.9455 3.30532 40.84
548466 6.73913 9.18187 12.0935 12.8085 1.93376 3.29998 40.823
548476 6.73913 9.18187 12.0935 12.8085 1.93376 3.29998 40.823
548486 6.72174 9.17253 12.0308 12.7804 1.9656 3.28589 40.7054
548496 6.73913 9.15385 12.0726 12.743 1.89461 3.28774 40.7086
548506 6.73913 9.15385 12.0726 12.743 1.89461 3.28774 40.7086
548516 6.8 9.22857 12.0517 12.7523 1.91588 3.2237 40.8326
548526 6.75652 9.19121 12.0622 12.7711 1.92712 3.26825 40.7809
548536 6.75652 9.19121 12.0622 12.7711 1.92712 3.26825 40.7809
548546 6.8087 9.22857 12.0622 12.8459 1.95604 3.24974 40.9453
548566 6.75652 9.20989 12.0203 12.7711 1.96534 3.24783 40.7578
548576 6.73913 9.16319 12.0203 12.8085 1.9716 3.28734 40.7311
548596 6.78261 9.27527 12.0412 12.7898 1.98171 3.2184 40.8889
548607 6.69565 9.15385 12.0517 12.8178 1.97963 3.32278 40.719
548627 6.73913 9.20989 12.0203 12.8365 2.0138 3.27447 40.8059
548637 6.73913 9.20989 12.0203 12.8365 2.0138 3.27447 40.8059
548648 6.73043 9.20989 11.9785 12.7991 2.02621 3.25554 40.7179
548657 6.73913 9.19121 12.0517 12.8646 1.99833 3.29989 40.8466
548667 6.73913 9.19121 12.0517 12.8646 1.99833 3.29989 40.8466
548677 6.81739 9.20055 11.9994 12.8272 1.96536 3.23494 40.8445
548687 6.73913 9.20055 12.0412 12.7991 1.97358 3.27391 40.78
548699 6.73913 9.20055 12.0412 12.7991 1.97358 3.27391 40.78
548708 6.73913 9.25659 12.0203 12.8646 2.05584 3.26164 40.8806
548729 6.70435 9.19121 12.0098 12.8459 2.03853 3.29812 40.7513
548739 6.73913 9.20989 12.0308 12.8646 2.02267 3.28553 40.8444
548748 6.73913 9.20989 12.0308 12.8646 2.02267 3.28553 40.8444
548759 6.74783 9.19121 12.0517 12.8459 1.98204 3.29063 40.8366
548768 6.73913 9.17253 12.0622 12.8553 1.97561 3.30858 40.8291
548780 6.73913 9.17253 12.0622 12.8553 1.97561 3.30858 40.8291
548788 6.8 9.15385 12.0726 12.8459 1.91274 3.29 40.8724
548810 6.69565 9.19121 12.0203 12.874 2.05317 3.31308 40.7811
548820 6.78261 9.13517 12.0517 12.8646 1.93801 3.30552 40.8341
548840 6.66957 9.08846 12.0308 12.8553 1.99499 3.36876 40.6441
548850 6.70435 9.20055 12.104 12.8646 1.99201 3.32626 40.8735
548860 6.70435 9.20055 12.104 12.8646 1.99201 3.32626 40.8735
548870 6.70435 9.14451 12.0831 12.8833 1.9848 3.35079 40.8153
548890 6.70435 9.16319 12.1249 12.874 1.96242 3.35166 40.8664
548900 6.73913 9.12582 12.0935 12.874 1.9391 3.34387 40.8325
548921 6.70435 9.11648 12.104 12.7991 1.90751 3.34531 40.7239
548931 6.76522 9.13517 12.1145 12.8646 1.90811 3.33127 40.8795
548941 6.76522 9.13517 12.1145 12.8646 1.90811 3.33127 40.8795
548951 6.73043 9.16319 12.0726 12.8272 1.95333 3.31163 40.7934
548961 6.72174 9.16319 12.0517 12.8272 1.97292 3.30954 40.7638
548971 6.72174 9.16319 12.0517 12.8365 1.9782 3.31222 40.7732
548981 6.74783 9.21923 12.1563 12.8272 1.91834 3.30268 40.9506
548992 6.74783 9.21923 12.1563 12.8272 1.91834 3.30268 40.9506
549009 6.73913 9.15385 12.104 12.8085 1.91101 3.31555 40.8055
549014 6.72174 9.18187 12.0935 12.7804 1.92937 3.29973 40.7776
549022 6.72174 9.18187 12.0935 12.7804 1.92937 3.29973 40.7776
549033 6.69565 9.19121 12.0622 12.743 1.95148 3.28748 40.692
549042 6.72174 9.16319 11.968 12.7617 1.99136 3.2666 40.6146
549052 6.72174 9.16319 11.968 12.7617 1.99136 3.2666 40.6146
549062 6.73913 9.20055 12.1249 12.7898 1.91305 3.29524 40.8544
549082 6.73913 9.17253 12.0308 12.7991 1.96467 3.28346 40.7415
549092 6.74783 9.15385 12.104 12.874 1.94228 3.33037 40.8796
549102 6.74783 9.15385 12.104 12.874 1.94228 3.33037 40.8796
549112 6.81739 9.18187 12.1249 12.8272 1.87218 3.27932 40.9514
549124 6.73043 9.18187 12.1354 12.9114 1.96992 3.34522 40.9591
549133 6.73043 9.18187 12.1354 12.9114 1.96992 3.34522 40.9591
549144 6.78261 9.19121 12.0831 12.8646 1.94893 3.28942 40.9215
549154 6.78261 9.19121 12.0831 12.8646 1.94893 3.28942 40.9215
549162 6.73043 9.18187 12.0517 12.7991 1.96186 3.28919 40.7631
549172 6.72174 9.23791 12.104 12.8085 1.96995 3.28567 40.8721
549182 6.72174 9.23791 12.104 12.8085 1.96995 3.28567 40.8721
549192 6.82609 9.22857 12.0622 12.8178 1.92878 3.23393 40.9346
549204 6.82609 9.22857 12.0622 12.8178 1.92878 3.23393 40.9346
549213 6.76522 9.19121 12.0412 12.8459 1.97746 3.27984 40.8436
549224 6.77391 9.21923 12.104 12.7898 1.91448 3.26533 40.8869
549234 6.77391 9.21923 12.104 12.7898 1.91448 3.26533 40.8869
549243 6.68696 9.17253 12.0935 12.8459 1.98408 3.33831 40.7989
549253 6.72174 9.20055 12.0203 12.8459 2.02532 3.28913 40.7885
549275 6.74783 9.18187 11.9889 12.874 2.03412 3.28486 40.7926
549285 6.71304 9.13517 12.0412 12.8833 2.00147 3.33912 40.7728
549295 6.71304 9.13517 12.0412 12.8833 2.00147 3.33912 40.7728
549305 6.66957 9.13517 12.0935 12.7991 1.94803 3.34957 40.6974
549316 6.66957 9.13517 12.0935 12.7991 1.94803 3.34957 40.6974
549326 6.66957 9.10714 12.104 12.8553 1.95701 3.38124 40.736
549336 6.73913 9.12582 12.0622 12.8459 1.94395 3.32687 40.773
549346 6.73913 9.12582 12.0622 12.8459 1.94395 3.32687 40.773
549356 6.70435 9.17253 12.104 12.8833 1.98676 3.34417 40.8642
549366 6.70435 9.11648 12.1354 12.8459 1.91329 3.36764 40.8021
549376 6.70435 9.11648 12.1354 12.8459 1.91329 3.36764 40.8021
549386 6.71304 9.19121 12.1145 12.8833 1.98464 3.33487 40.902
549406 6.72174 9.12582 12.1249 12.8553 1.91929 3.3553 40.8277
549417 6.66957 9.11648 12.0935 12.8833 1.98508 3.38205 40.7629
549437 6.65217 9.10714 12.1354 12.9488 2.00056 3.42461 40.8435
549447 6.66957 9.12582 12.1458 12.9301 1.98214 3.40602 40.8713
549457 6.66957 9.12582 12.1458 12.9301 1.98214 3.40602 40.8713
549467 6.69565 9.13517 12.1354 12.9488 1.98762 3.39242 40.915
549477 6.69565 9.13517 12.1354 12.9488 1.98762 3.39242 40.915
549487 6.64348 9.06978 12.0935 12.9488 2.01296 3.43355 40.7556
549497 6.66087 9.14451 12.1249 12.9582 2.02801 3.40355 40.8885
549507 6.66087 9.14451 12.1249 12.9582 2.02801 3.40355 40.8885
549519 6.68696 9.07912 12.1772 12.874 1.89191 3.4122 40.8173
549527 6.67826 9.04176 12.1354 12.9207 1.93058 3.4344 40.7762
549537 6.67826 9.04176 12.1354 12.9207 1.93058 3.4344 40.7762
549548 6.64348 9.07912 12.1458 12.9956 2.00995 3.45738 40.864
549567 6.66087 9.0978 12.1249 12.9675 2.007 3.42724 40.8511
549578 6.63478 9.06978 12.1249 12.9488 1.99793 3.44638 40.7783
549588 6.63478 9.06978 12.1249 12.9488 1.99793 3.44638 40.7783
549598 6.63478 9.10714 12.0726 12.9488 2.05366 3.41465 40.7634
549609 6.6087 9.0978 12.1563 13.0237 2.05231 3.47553 40.8865
549618 6.6087 9.0978 12.1563 13.0237 2.05231 3.47553 40.8865
549627 6.66087 9.08846 12.2191 12.9862 1.95018 3.46334 40.9547
549637 6.66087 9.08846 12.2191 12.9862 1.95018 3.46334 40.9547
549653 6.6087 9.10714 12.2505 12.9488 1.95331 3.47675 40.9151
549658 6.6087 9.13517 12.1668 12.9395 2.01907 3.43783 40.8501
549669 6.6087 9.13517 12.1668 12.9395 2.01907 3.43783 40.8501
549678 6.57391 9.03242 12.1145 12.9395 2.01886 3.48532 40.6603
549688 6.66087 9.0511 12.1563 12.9862 1.97051 3.4625 40.8545
549698 6.66087 9.0511 12.1563 12.9862 1.97051 3.4625 40.8545
549708 6.6 9.0044 12.1458 12.9675 1.98075 3.50301 40.7178
549720 6.6 9.0044 12.1458 12.9675 1.98075 3.50301 40.7178
549731 6.62609 8.95769 12.1772 13.0611 1.96919 3.54754 40.8221
549740 6.6087 8.99506 12.2505 13.0237 1.93232 3.54851 40.8779
549750 6.6087 8.99506 12.2505 13.0237 1.93232 3.54851 40.8779
549760 6.58261 9.01374 12.1877 13.0424 2.01206 3.53952 40.8264
