2687836 4.66957 5.38022 7.83569 7.59714 0.463158 3.16866 25.4826
2687840 4.66957 5.38022 7.83569 7.59714 0.463158 3.16866 25.4826
2687841 4.64348 5.38022 7.73108 7.53165 0.53122 3.10781 25.2864
2687842 4.71304 5.41758 7.73108 7.49422 0.461119 3.01389 25.3559
2687845 4.71304 5.41758 7.73108 7.49422 0.461119 3.01389 25.3559
2687846 4.64348 5.45495 7.62646 7.51293 0.691363 2.99608 25.2378
2687849 4.63478 5.45495 7.616 7.47551 0.674781 2.97947 25.1812
2687875 4.73043 5.52033 7.57415 7.53165 0.736877 2.87206 25.3566
2687884 4.72174 5.47363 7.752 7.541 0.530523 2.99998 25.4884
2687894 4.72174 5.47363 7.752 7.541 0.530523 2.99998 25.4884
2687899 4.66957 5.45495 7.65785 7.52229 0.641999 2.99686 25.3046
2687909 4.66957 5.45495 7.65785 7.52229 0.641999 2.99686 25.3046
2687919 4.73043 5.51099 7.616 7.52229 0.676566 2.89416 25.3797
2687930 4.69565 5.52967 7.65785 7.541 0.705206 2.93433 25.4242
2687939 4.69565 5.52967 7.65785 7.541 0.705206 2.93433 25.4242
2687949 4.69565 5.54835 7.616 7.48487 0.711745 2.87446 25.3449
2687959 4.69565 5.57637 7.49046 7.48487 0.866553 2.79433 25.2474
2687969 4.69565 5.57637 7.49046 7.48487 0.866553 2.79433 25.2474
2687979 4.69565 5.59506 7.56369 7.49422 0.818518 2.82099 25.3486
2687990 4.69565 5.59506 7.56369 7.49422 0.818518 2.82099 25.3486
2687999 4.74783 5.59506 7.51138 7.41937 0.74704 2.72292 25.2736
2688009 4.77391 5.63242 7.52185 7.46615 0.790346 2.70632 25.3943
2688019 4.77391 5.63242 7.52185 7.46615 0.790346 2.70632 25.3943
2688030 4.7913 5.68846 7.50092 7.46615 0.847244 2.64511 25.4468
2688040 4.7913 5.68846 7.50092 7.46615 0.847244 2.64511 25.4468
2688052 4.76522 5.66978 7.46954 7.42873 0.852388 2.64273 25.3333
2688060 4.73913 5.66978 7.48 7.44744 0.886169 2.67513 25.3364
2688072 4.73913 5.66978 7.48 7.44744 0.886169 2.67513 25.3364
2688080 4.75652 5.64176 7.37538 7.47551 0.975636 2.6452 25.2492
2688091 4.69565 5.6978 7.37538 7.43808 1.05611 2.63024 25.2069
2688100 4.69565 5.6978 7.37538 7.43808 1.05611 2.63024 25.2069
2688111 4.78261 5.66978 7.44862 7.52229 0.944847 2.66597 25.4233
2688120 4.78261 5.66978 7.44862 7.52229 0.944847 2.66597 25.4233
2688132 4.73043 5.66978 7.39631 7.44744 0.980908 2.64035 25.244
2688141 4.75652 5.66978 7.49046 7.541 0.946468 2.71341 25.4578
2688150 4.75652 5.66978 7.49046 7.541 0.946468 2.71341 25.4578
2688160 4.77391 5.61374 7.48 7.50358 0.850767 2.71721 25.3712
2688171 4.73043 5.63242 7.42769 7.46615 0.930884 2.69097 25.2567
2688181 4.73043 5.63242 7.42769 7.46615 0.930884 2.69097 25.2567
2688191 4.7913 5.62308 7.46954 7.42873 0.781193 2.6571 25.3126
2688202 4.7913 5.62308 7.46954 7.42873 0.781193 2.6571 25.3126
2688211 4.75652 5.64176 7.49046 7.38195 0.768405 2.65572 25.2707
2688224 4.76522 5.6044 7.41723 7.43808 0.852367 2.66742 25.2249
2688241 4.72174 5.67912 7.37538 7.42873 1.00251 2.62047 25.205
2688251 4.8 5.62308 7.44862 7.41002 0.775737 2.63168 25.2817
2688261 4.8 5.62308 7.44862 7.41002 0.775737 2.63168 25.2817
2688271 4.81739 5.68846 7.44862 7.47551 0.882781 2.60614 25.43
2688281 4.81739 5.68846 7.44862 7.47551 0.882781 2.60614 25.43
2688291 4.75652 5.6511 7.44862 7.35388 0.793174 2.61495 25.2101
2688301 4.81739 5.74451 7.48 7.44744 0.87738 2.56904 25.4893
2688321 4.85217 5.67912 7.44862 7.38195 0.749433 2.54276 25.3619
2688331 4.86957 5.63242 7.59508 7.38195 0.539389 2.63455 25.479
2688343 4.86957 5.63242 7.59508 7.38195 0.539389 2.63455 25.479
2688353 4.92174 5.6978 7.40677 7.33517 0.694424 2.43819 25.3615
2688373 4.78261 5.66978 7.41723 7.41002 0.870225 2.59588 25.2796
2688383 4.78261 5.72582 7.46954 7.35388 0.816718 2.55508 25.3319
2688393 4.78261 5.72582 7.46954 7.35388 0.816718 2.55508 25.3319
2688403 4.83478 5.68846 7.39631 7.35388 0.802475 2.50873 25.2734
2688413 4.84348 5.67912 7.36492 7.41002 0.87038 2.5214 25.2975
2688423 4.84348 5.67912 7.36492 7.41002 0.87038 2.5214 25.2975
2688433 4.88696 5.75385 7.40677 7.36324 0.810048 2.43747 25.4108
2688445 4.88696 5.75385 7.40677 7.36324 0.810048 2.43747 25.4108
2688453 4.85217 5.6511 7.31262 7.3913 0.870401 2.49967 25.2072
2688463 4.89565 5.84725 7.33354 7.3071 0.911182 2.3033 25.3835
2688473 4.89565 5.84725 7.33354 7.3071 0.911182 2.3033 25.3835
2688483 4.91304 5.80055 7.28123 7.20418 0.804058 2.24522 25.199
2688493 4.93043 5.84725 7.30215 7.25096 0.854322 2.23567 25.3308
2688503 4.93043 5.84725 7.30215 7.25096 0.854322 2.23567 25.3308
2688512 4.95652 5.87527 7.344 7.26032 0.820753 2.2247 25.4361
2688530 4.95652 5.87527 7.344 7.26032 0.820753 2.2247 25.4361
2688534 4.92174 5.9033 7.26031 7.16676 0.879142 2.13964 25.2521
2688545 4.9913 5.88462 7.21846 7.22289 0.886494 2.11245 25.3173
2688554 4.9913 5.88462 7.21846 7.22289 0.886494 2.11245 25.3173
2688564 4.97391 5.93132 7.18708 7.18547 0.945297 2.05753 25.2778
2688574 4.98261 5.97802 7.18708 7.10127 0.900635 1.97694 25.249
2688595 5.04348 5.95 7.208 7.11998 0.808108 1.9753 25.3215
2688604 5.04348 5.95 7.208 7.11998 0.808108 1.9753 25.3215
2688614 5.01739 5.92198 7.12431 7.13869 0.91159 1.97816 25.2024
2688624 5.03478 5.95934 7.26031 7.05449 0.709963 1.96808 25.3089
2688634 5.03478 5.95934 7.26031 7.05449 0.709963 1.96808 25.3089
2688645 5.03478 5.96868 7.15569 7.06384 0.834602 1.91258 25.223
2688655 5.01739 5.89396 7.21846 7.08255 0.734419 2.01667 25.2124
2688665 5.01739 5.89396 7.21846 7.08255 0.734419 2.01667 25.2124
2688675 5.04348 5.93132 7.208 7.13869 0.808138 1.99745 25.3215
2688686 5.04348 5.93132 7.208 7.13869 0.808138 1.99745 25.3215
2688695 5.04348 5.87527 7.17662 7.23225 0.875956 2.06698 25.3276
2688705 5.04348 5.91264 7.21846 7.21354 0.851023 2.05365 25.3881
2688725 5.06957 5.86593 7.21846 7.11998 0.69032 2.01963 25.2739
2688735 5.0087 5.89396 7.27077 7.16676 0.770763 2.09245 25.3402
2688746 5.0087 5.89396 7.27077 7.16676 0.770763 2.09245 25.3402
2688757 5.06957 5.85659 7.29169 7.14805 0.634101 2.07774 25.3659
2688768 5.06957 5.85659 7.31262 7.14805 0.612974 2.08839 25.3868
2688776 4.9913 5.80989 7.31262 7.12933 0.629184 2.16341 25.2431
2688786 5.01739 5.85659 7.32308 7.20418 0.708929 2.15734 25.4012
2688796 5.01739 5.85659 7.32308 7.20418 0.708929 2.15734 25.4012
2688806 4.98261 5.76319 7.40677 7.16676 0.533748 2.26767 25.3193
2688816 5.01739 5.71648 7.43815 7.18547 0.440115 2.30095 25.3575
2688826 5.01739 5.71648 7.43815 7.18547 0.440115 2.30095 25.3575
2688836 5.01739 5.73516 7.53231 7.21354 0.391206 2.34914 25.4984
2688846 5.01739 5.73516 7.53231 7.21354 0.391206 2.34914 25.4984
2688857 5.02609 5.6978 7.46954 7.22289 0.418106 2.34212 25.4163
2688866 4.9913 5.66044 7.54277 7.21354 0.334445 2.42319 25.4081
2688876 4.9913 5.66044 7.54277 7.21354 0.334445 2.42319 25.4081
2688888 4.96522 5.62308 7.50092 7.22289 0.375149 2.45072 25.3121
2688898 4.97391 5.57637 7.59508 7.25096 0.254315 2.53723 25.3963
2688908 4.97391 5.57637 7.59508 7.25096 0.254315 2.53723 25.3963
2688918 4.95652 5.51099 7.62646 7.29774 0.222269 2.63277 25.3917
2688928 4.95652 5.51099 7.62646 7.29774 0.222269 2.63277 25.3917
2688938 4.86957 5.4456 7.60554 7.29774 0.26592 2.72902 25.2185
2688948 4.86957 5.38022 7.71015 7.33517 0.134087 2.84375 25.2951
2688958 4.86957 5.38022 7.71015 7.33517 0.134087 2.84375 25.2951
2688969 4.87826 5.3989 7.66831 7.43808 0.286028 2.85375 25.3836
2688979 4.86087 5.40824 7.64738 7.50358 0.396895 2.8807 25.4201
2688988 4.86087 5.40824 7.64738 7.50358 0.396895 2.8807 25.4201
2688998 4.77391 5.40824 7.77292 7.44744 0.303951 2.97502 25.4025
2689018 4.75652 5.31484 7.71015 7.53165 0.375107 3.06389 25.3132
2689028 4.78261 5.28681 7.77292 7.52229 0.249928 3.0904 25.3646
2689038 4.78261 5.28681 7.77292 7.52229 0.249928 3.0904 25.3646
2689048 4.78261 5.30549 7.73108 7.53165 0.318977 3.0618 25.3508
2689058 4.75652 5.25879 7.73108 7.55971 0.326905 3.127 25.3061
2689069 4.75652 5.25879 7.73108 7.55971 0.326905 3.127 25.3061
2689079 4.76522 5.38022 7.74154 7.55971 0.425574 3.03919 25.4467
2689089 4.76522 5.38022 7.74154 7.55971 0.425574 3.03919 25.4467
2689099 4.74783 5.37088 7.76246 7.56907 0.42206 3.07236 25.4502
2689109 4.78261 5.38022 7.72062 7.48487 0.356609 2.98167 25.3683
2689119 4.78261 5.38022 7.72062 7.48487 0.356609 2.98167 25.3683
2689129 4.72174 5.33352 7.68923 7.4568 0.376314 3.03007 25.2013
2689139 4.68696 5.4456 7.68923 7.53165 0.592682 3.01043 25.3534
2689154 4.68696 5.4456 7.68923 7.53165 0.592682 3.01043 25.3534
2689163 4.71304 5.41758 7.64738 7.48487 0.536379 2.96975 25.2629
2689172 4.71304 5.41758 7.64738 7.48487 0.536379 2.96975 25.2629
2689181 4.73913 5.43626 7.65785 7.51293 0.544676 2.9563 25.3462
2689190 4.81739 5.47363 7.52185 7.51293 0.638992 2.80964 25.3258
2689200 4.81739 5.47363 7.52185 7.51293 0.638992 2.80964 25.3258
2689210 4.73913 5.48297 7.51138 7.47551 0.702092 2.83518 25.209
2689222 4.75652 5.51099 7.50092 7.55971 0.802723 2.83862 25.3281
2689241 4.81739 5.58571 7.46954 7.4568 0.745752 2.67864 25.3294
2689250 4.81739 5.58571 7.46954 7.4568 0.745752 2.67864 25.3294
2689261 4.81739 5.56703 7.50092 7.48487 0.722879 2.72053 25.3702
2689271 4.8 5.66044 7.45908 7.42873 0.818688 2.61992 25.3482
2689291 4.84348 5.61374 7.46954 7.3913 0.683331 2.60898 25.3181
2689301 4.82609 5.6044 7.36492 7.41937 0.825661 2.59004 25.2148
2689312 4.82609 5.6044 7.36492 7.41937 0.825661 2.59004 25.2148
2689321 4.91304 5.77253 7.344 7.37259 0.874016 2.38032 25.4022
2689341 4.91304 5.76319 7.32308 7.3913 0.904244 2.38562 25.3906
2689351 4.92174 5.71648 7.344 7.31646 0.758144 2.38485 25.2987
2689363 4.92174 5.71648 7.344 7.31646 0.758144 2.38485 25.2987
2689373 4.92174 5.76319 7.27077 7.3071 0.868645 2.31147 25.2628
2689383 4.96522 5.81923 7.22892 7.26032 0.875822 2.19881 25.2737
2689398 4.96522 5.81923 7.22892 7.26032 0.875822 2.19881 25.2737
2689403 4.97391 5.87527 7.21846 7.21354 0.886467 2.12578 25.2812
2689413 5.0087 5.89396 7.18708 7.22289 0.909701 2.0784 25.3126
2689423 5.0087 5.89396 7.18708 7.22289 0.909701 2.0784 25.3126
2689433 5.0087 5.93132 7.15569 7.17611 0.932902 2.01319 25.2718
2689443 5.0087 5.93132 7.15569 7.17611 0.932902 2.01319 25.2718
2689456 4.97391 5.95 7.13477 7.12933 0.963408 1.98915 25.188
2689464 5.04348 5.94066 7.11385 7.16676 0.940135 1.95715 25.2647
2689484 5.03478 5.97802 7.09292 7.13869 0.979429 1.91258 25.2444
2689496 5.06087 6.01538 7.13477 7.08255 0.891829 1.86277 25.2936
2689505 5.06087 6.01538 7.13477 7.08255 0.891829 1.86277 25.2936
2689517 5.09565 6.07143 7.06154 7.03577 0.94007 1.73974 25.2644
2689535 5.13043 6.02473 7.04062 7.0732 0.917006 1.7563 25.269
2689545 5.08696 6.09945 7.08246 7.02642 0.945285 1.73301 25.2953
2689558 5.08696 6.09945 7.08246 7.02642 0.945285 1.73301 25.2953
2689566 5.12174 6.09011 6.92554 7.01706 1.05338 1.62839 25.1544
2689578 5.15652 6.06209 6.97785 6.94221 0.865135 1.61193 25.1387
2689599 5.18261 6.12747 7.03015 6.93286 0.838411 1.57456 25.2731
2689608 5.11304 6.12747 7.01969 6.90479 0.893626 1.59982 25.165
2689616 5.11304 6.12747 7.01969 6.90479 0.893626 1.59982 25.165
2689626 5.16522 6.12747 7.06154 6.9235 0.815159 1.59766 25.2777
2689636 5.16522 6.12747 7.06154 6.9235 0.815159 1.59766 25.2777
2689646 5.18261 6.07143 6.98831 6.96092 0.854489 1.60407 25.2033
2689657 5.14783 6.08077 7.06154 6.96092 0.824052 1.65965 25.2511
2689666 5.14783 6.08077 7.06154 6.96092 0.824052 1.65965 25.2511
2689678 5.18261 6.05275 7.05108 6.9235 0.73638 1.62985 25.2099
2689686 5.16522 6.09011 7.03015 6.95157 0.838357 1.62047 25.237
2689696 5.16522 6.09011 7.03015 6.95157 0.838357 1.62047 25.237
2689708 5.14783 6.04341 7.04062 6.9235 0.773656 1.65345 25.1553
2689720 5.14783 6.04341 7.04062 6.9235 0.773656 1.65345 25.1553
2689728 5.09565 6.06209 7.15569 6.93286 0.736347 1.74133 25.2463
2689740 5.13913 6.09011 7.10338 6.97964 0.817025 1.69115 25.3123
2689748 5.13913 6.09011 7.10338 6.97964 0.817025 1.69115 25.3123
2689758 5.17391 6.01538 7.10338 6.97964 0.70999 1.71753 25.2723
2689768 5.13043 6.00604 7.17662 6.9235 0.616661 1.76151 25.2366
2689780 5.13043 6.00604 7.17662 6.9235 0.616661 1.76151 25.2366
2689793 5.17391 6.08077 7.18708 6.97028 0.67887 1.71337 25.412
2689802 5.17391 6.08077 7.18708 6.97028 0.67887 1.71337 25.412
2689811 5.15652 6.01538 7.13477 6.87672 0.59644 1.69134 25.1834
2689818 5.18261 6.07143 7.17662 6.9235 0.626823 1.68379 25.3542
2689828 5.18261 6.07143 7.17662 6.9235 0.626823 1.68379 25.3542
2689838 5.13043 6.04341 7.15569 6.90479 0.655919 1.7159 25.2343
2689858 5.21739 6.02473 7.14523 6.91414 0.569379 1.67021 25.3015
2689868 5.13043 6.03407 7.17662 6.91414 0.634679 1.73801 25.2553
2689879 5.13043 6.03407 7.17662 6.91414 0.634679 1.73801 25.2553
2689889 5.14783 6.00604 7.12431 6.89543 0.625002 1.70766 25.1736
2689899 5.18261 6.00604 7.12431 6.88608 0.580582 1.67967 25.199
2689919 5.22609 6.05275 7.10338 6.85801 0.575751 1.59422 25.2402
2689929 5.17391 6.07143 7.06154 6.85801 0.689438 1.59401 25.1649
2689939 5.17391 6.07143 7.06154 6.85801 0.689438 1.59401 25.1649
2689949 5.27826 6.09945 7.21846 6.79252 0.389194 1.55577 25.3887
2689959 5.27826 6.09945 7.21846 6.79252 0.389194 1.55577 25.3887
2689969 5.2 6.08077 7.09292 6.86736 0.648955 1.59236 25.2411
2689980 5.16522 6.07143 7.04062 6.84865 0.710666 1.5836 25.1259
2689989 5.16522 6.07143 7.04062 6.84865 0.710666 1.5836 25.1259
2689999 5.23478 6.16483 6.98831 6.80187 0.738013 1.42353 25.1898
2690019 5.21739 6.10879 7.03015 6.75509 0.613603 1.46889 25.1114
2690029 5.22609 6.17418 7.11385 6.82058 0.646174 1.50041 25.3347
2690049 5.25217 6.22088 7.05108 6.76445 0.674292 1.38944 25.2886
2690060 5.21739 6.15549 7.04062 6.75509 0.648206 1.44395 25.1686
2690080 5.26087 6.15549 7.08246 6.8393 0.642768 1.48318 25.3381
2690091 5.26087 6.15549 7.08246 6.8393 0.642768 1.48318 25.3381
2690102 5.24348 6.14615 7.08246 6.73638 0.551987 1.44547 25.2085
2690123 5.28696 6.13681 7.11385 6.78316 0.512594 1.46514 25.3208
2690130 5.24348 6.18352 7.05108 6.71767 0.601915 1.39413 25.1957
2690140 5.25217 6.23956 7.08246 6.70831 0.606382 1.36401 25.2825
2690150 5.25217 6.23956 7.08246 6.70831 0.606382 1.36401 25.2825
2690160 5.29565 6.21154 7.05108 6.6896 0.548965 1.32694 25.2479
2690170 5.24348 6.21154 7.05108 6.70831 0.619978 1.37087 25.2144
2690180 5.24348 6.2022 7.05108 6.70831 0.610942 1.37693 25.2051
2690190 5.24348 6.2489 7.11385 6.66153 0.547245 1.35528 25.2678
2690211 5.26087 6.2489 7.072 6.61475 0.52664 1.296 25.1965
2690222 5.29565 6.19286 7.12431 6.59604 0.365877 1.32801 25.2089
2690233 5.29565 6.19286 7.12431 6.59604 0.365877 1.32801 25.2089
2690242 5.31304 6.22088 7.10338 6.60539 0.405908 1.29237 25.2427
2690251 5.26087 6.15549 7.00923 6.60539 0.490183 1.31732 25.031
2690261 5.26087 6.15549 7.00923 6.60539 0.490183 1.31732 25.031
2690271 5.32174 6.22088 7.11385 6.68024 0.459349 1.33293 25.3367
2690281 5.32174 6.22088 7.11385 6.68024 0.459349 1.33293 25.3367
2690291 5.28696 6.26758 7.12431 6.68024 0.528961 1.33089 25.3591
2690302 5.30435 6.23956 7.18708 6.65217 0.394267 1.35642 25.3832
2690322 5.27826 6.21154 7.16615 6.6896 0.450495 1.40022 25.3456
2690334 5.27826 6.21154 7.16615 6.6896 0.450495 1.40022 25.3456
2690341 5.26087 6.23022 7.15569 6.65217 0.460327 1.37364 25.299
2690351 5.28696 6.2022 7.12431 6.6896 0.474775 1.37814 25.3031
2690362 5.28696 6.2022 7.12431 6.6896 0.474775 1.37814 25.3031
2690371 5.26957 6.16483 7.18708 6.66153 0.365585 1.43231 25.283
2690381 5.21739 6.25824 7.15569 6.65217 0.531307 1.38365 25.2835
2690392 5.21739 6.25824 7.15569 6.65217 0.531307 1.38365 25.2835
2690403 5.22609 6.25824 7.18708 6.6896 0.527066 1.41497 25.361
2690413 5.22609 6.25824 7.18708 6.6896 0.527066 1.41497 25.361
2690423 5.2087 6.23022 7.16615 6.68024 0.529569 1.42819 25.2853
2690432 5.28696 6.25824 7.14523 6.70831 0.525975 1.36326 25.3987
2690450 5.28696 6.25824 7.14523 6.70831 0.525975 1.36326 25.3987
2690454 5.26957 6.23956 7.12431 6.61475 0.45591 1.32481 25.2482
2690464 5.22609 6.27692 7.16615 6.65217 0.530043 1.37156 25.3213
2690474 5.22609 6.27692 7.16615 6.65217 0.530043 1.37156 25.3213
2690484 5.22609 6.26758 7.05108 6.67089 0.655648 1.32554 25.2156
2690494 5.23478 6.31429 7.03015 6.59604 0.640896 1.2376 25.1753
2690504 5.23478 6.31429 7.03015 6.59604 0.640896 1.2376 25.1753
2690514 5.23478 6.33297 7.01969 6.6896 0.759673 1.27084 25.277
2690524 5.23478 6.33297 7.01969 6.6896 0.759673 1.27084 25.277
2690534 5.23478 6.32363 7.01969 6.62411 0.687695 1.24119 25.2022
2690544 5.2087 6.39835 6.99877 6.57733 0.762624 1.17284 25.1831
2690565 5.25217 6.41703 6.99877 6.66153 0.816855 1.17912 25.3295
2690574 5.25217 6.41703 6.99877 6.66153 0.816855 1.17912 25.3295
2690584 5.14783 6.40769 6.97785 6.61475 0.891486 1.21505 25.1481
2690595 5.23478 6.4544 6.92554 6.61475 0.900558 1.10056 25.2295
2690605 5.23478 6.4544 6.92554 6.61475 0.900558 1.10056 25.2295
2690615 5.23478 6.47308 6.97785 6.55861 0.811136 1.08654 25.2443
2690625 5.26957 6.44506 6.91508 6.68024 0.929135 1.1146 25.3099
2690635 5.26957 6.44506 6.91508 6.68024 0.929135 1.1146 25.3099
2690645 5.13913 6.43571 6.91508 6.61475 0.992101 1.1681 25.1047
2690655 5.14783 6.43571 6.99877 6.58668 0.869921 1.19308 25.169
2690675 5.15652 6.41703 6.98831 6.6896 0.952223 1.25004 25.2515
2690696 5.10435 6.34231 7.072 6.70831 0.866404 1.38759 25.227
2690706 5.13913 6.34231 7.06154 6.75509 0.886166 1.38461 25.2981
2690717 5.13913 6.34231 7.06154 6.75509 0.886166 1.38461 25.2981
2690726 5.08696 6.35165 7.03015 6.74573 0.971934 1.39044 25.2145
2690736 5.08696 6.32363 7.09292 6.79252 0.925308 1.46754 25.296
2690747 5.08696 6.32363 7.09292 6.79252 0.925308 1.46754 25.296
2690758 5.06957 6.27692 7.04062 6.88608 1.04144 1.53139 25.2732
2690779 5.03478 6.26758 7.09292 6.82994 0.961158 1.55826 25.2252
2690786 5.06087 6.2489 7.16615 6.82994 0.841519 1.59231 25.3059
2690798 5.06087 6.2489 7.16615 6.82994 0.841519 1.59231 25.3059
2690807 5.03478 6.23022 7.11385 6.81123 0.88608 1.584 25.1901
2690818 5.06087 6.16483 7.16615 6.82994 0.760999 1.64762 25.2218
2690828 5.06087 6.16483 7.16615 6.82994 0.760999 1.64762 25.2218
2690838 5.06087 6.17418 7.27077 6.87672 0.708419 1.72113 25.3825
2690848 5.06087 6.17418 7.27077 6.87672 0.708419 1.72113 25.3825
2690858 4.9913 6.12747 7.17662 6.87672 0.830555 1.7487 25.1721
2690868 4.94783 6.11813 7.208 6.84865 0.806999 1.78566 25.1226
2690879 4.94783 6.11813 7.208 6.84865 0.806999 1.78566 25.1226
2690888 5.03478 6.12747 7.22892 6.87672 0.732636 1.74731 25.2679
2690898 5 6.07143 7.33354 6.89543 0.625804 1.87203 25.3004
2690908 5 6.07143 7.33354 6.89543 0.625804 1.87203 25.3004
2690918 5.06087 6.13681 7.35446 6.94221 0.650823 1.82334 25.4944
2690938 5.0087 6.06209 7.32308 6.88608 0.609568 1.86217 25.2799
2690949 5.05217 6.07143 7.33354 6.9235 0.600079 1.85187 25.3806
2690959 5.05217 6.07143 7.33354 6.9235 0.600079 1.85187 25.3806
2690969 5.04348 6.06209 7.32308 6.87672 0.56535 1.83414 25.3054
2690980 5.06087 6.04341 7.36492 6.88608 0.496632 1.86158 25.3553
2690989 5.06087 6.04341 7.36492 6.88608 0.496632 1.86158 25.3553
2690999 5.02609 6.01538 7.35446 6.85801 0.487888 1.88347 25.2539
2691009 5.02609 6.01538 7.35446 6.85801 0.487888 1.88347 25.2539
2691019 5.0087 6.08077 7.33354 6.91414 0.643995 1.86972 25.3371
2691029 5.07826 6.08077 7.38585 6.90479 0.512236 1.84576 25.4497
2691049 5.09565 6.11813 7.32308 6.86736 0.557747 1.75758 25.4042
2691059 5.02609 6.09945 7.35446 6.8393 0.551158 1.81772 25.3193
2691083 5.07826 6.08077 7.43815 6.78316 0.342306 1.80984 25.3803
2691092 5.07826 6.08077 7.43815 6.78316 0.342306 1.80984 25.3803
2691100 5.04348 6.09011 7.38585 6.8393 0.493005 1.82869 25.3587
2691110 5.03478 6.02473 7.37538 6.85801 0.467095 1.88228 25.2929
2691120 5.03478 6.02473 7.37538 6.85801 0.467095 1.88228 25.2929
2691130 4.9913 6.11813 7.36492 6.84865 0.602767 1.83873 25.323
2691140 5.04348 6.06209 7.35446 6.85801 0.515598 1.84072 25.318
2691161 5.06087 6.10879 7.38585 6.82994 0.484544 1.79992 25.3854
2691170 5.06087 6.10879 7.38585 6.82994 0.484544 1.79992 25.3854
2691181 5.03478 6.09945 7.35446 6.84865 0.551417 1.81681 25.3373
2691191 5.04348 6.10879 7.39631 6.86736 0.527593 1.83629 25.4159
2691211 4.9913 6.10879 7.37538 6.80187 0.538006 1.82604 25.2774
2691221 4.98261 6.11813 7.41723 6.81123 0.522637 1.85224 25.3292
2691231 4.98261 6.11813 7.41723 6.81123 0.522637 1.85224 25.3292
2691241 5.01739 6.13681 7.35446 6.84865 0.604963 1.80357 25.3573
2691252 5.01739 6.13681 7.35446 6.84865 0.604963 1.80357 25.3573
2691261 4.97391 6.07143 7.38585 6.81123 0.517875 1.87288 25.2424
2691272 5 6.05275 7.38585 6.82994 0.49156 1.87765 25.2685
2691285 5 6.05275 7.38585 6.82994 0.49156 1.87765 25.2685
2691293 5 6.06209 7.36492 6.78316 0.476319 1.83616 25.2102
2691303 5.01739 6.09945 7.33354 6.86736 0.608152 1.82721 25.3177
2691314 5.01739 6.09945 7.33354 6.86736 0.608152 1.82721 25.3177
2691324 5.0087 6.15549 7.32308 6.84865 0.663459 1.7806 25.3359
2691334 5.01739 6.10879 7.31262 6.89543 0.665322 1.82472 25.3342
2691344 5.01739 6.10879 7.31262 6.89543 0.665322 1.82472 25.3342
2691355 5.04348 6.10879 7.29169 6.89543 0.660092 1.79652 25.3394
2691364 5.04348 6.10879 7.29169 6.89543 0.660092 1.79652 25.3394
2691375 5.0087 6.14615 7.30215 6.82058 0.648686 1.76118 25.2776
2691387 4.98261 6.08077 7.37538 6.87672 0.592023 1.88939 25.3155
2691396 4.98261 6.08077 7.37538 6.87672 0.592023 1.88939 25.3155
2691404 4.9913 6.09011 7.37538 6.85801 0.574201 1.86767 25.3148
2691416 4.98261 6.07143 7.32308 6.82058 0.581726 1.83923 25.1977
2691436 4.97391 6.14615 7.35446 6.82058 0.630915 1.8116 25.2951
2691445 4.97391 6.14615 7.35446 6.82058 0.630915 1.8116 25.2951
2691456 4.97391 6.11813 7.43815 6.82994 0.528392 1.87857 25.3601
2691466 5.0087 6.07143 7.42769 6.79252 0.422481 1.86169 25.3003
2691476 5.0087 6.07143 7.42769 6.79252 0.422481 1.86169 25.3003
2691486 4.9913 6.07143 7.39631 6.7738 0.453401 1.84722 25.2328
2691498 5.0087 6.04341 7.41723 6.82994 0.442126 1.89436 25.2993
2691506 5.0087 6.04341 7.41723 6.82994 0.442126 1.89436 25.2993
2691516 5.0087 6.07143 7.41723 6.84865 0.487408 1.88536 25.346
2691527 5 6.08077 7.37538 6.86736 0.565434 1.87295 25.3235
2691536 5 6.08077 7.37538 6.86736 0.565434 1.87295 25.3235
2691546 4.96522 6.07143 7.49046 6.97964 0.583559 2.01914 25.5067
2691566 5.0087 5.96868 7.45908 6.94221 0.436509 2.02369 25.3787
2691577 4.86087 5.94066 7.43815 6.95157 0.5887 2.13657 25.1913
2691586 4.86087 5.94066 7.43815 6.95157 0.5887 2.13657 25.1913
2691596 4.90435 6.00604 7.45908 7.03577 0.667569 2.11637 25.4052
2691608 4.93043 5.92198 7.51138 7.02642 0.49879 2.17725 25.3902
2691618 4.93043 5.92198 7.51138 7.02642 0.49879 2.17725 25.3902
2691628 4.90435 5.83791 7.57415 7.1574 0.5072 2.34906 25.4738
2691638 4.90435 5.83791 7.57415 7.1574 0.5072 2.34906 25.4738
2691648 4.89565 5.79121 7.54277 7.09191 0.439051 2.33861 25.3215
2691658 4.88696 5.84725 7.49046 7.12933 0.590804 2.2988 25.354
2691668 4.88696 5.84725 7.49046 7.12933 0.590804 2.2988 25.354
2691678 4.86957 5.77253 7.616 7.16676 0.446141 2.44289 25.4249
2691688 4.86957 5.77253 7.616 7.16676 0.446141 2.44289 25.4249
2691697 4.8087 5.77253 7.56369 7.16676 0.559917 2.45888 25.3117
2691713 4.8 5.76319 7.63692 7.18547 0.503963 2.51671 25.3856
2691722 4.8 5.76319 7.63692 7.18547 0.503963 2.51671 25.3856
2691730 4.8 5.76319 7.60554 7.19483 0.544557 2.50587 25.3636
2691738 4.7913 5.77253 7.65785 7.19483 0.509712 2.53114 25.4165
2691748 4.7913 5.77253 7.65785 7.19483 0.509712 2.53114 25.4165
2691758 4.74783 5.6978 7.60554 7.20418 0.543076 2.59198 25.2553
2691768 4.74783 5.6978 7.60554 7.20418 0.543076 2.59198 25.2553
2691778 4.69565 5.66044 7.71015 7.18547 0.435716 2.69657 25.2517
2691788 4.71304 5.75385 7.72062 7.26968 0.579271 2.6653 25.4572
2691798 4.71304 5.75385 7.72062 7.26968 0.579271 2.6653 25.4572
2691810 4.71304 5.71648 7.67877 7.22289 0.540408 2.6482 25.3312
2691818 4.75652 5.73516 7.73108 7.16676 0.407967 2.60313 25.3895
2691829 4.75652 5.73516 7.73108 7.16676 0.407967 2.60313 25.3895
2691839 4.75652 5.75385 7.69969 7.23225 0.520673 2.60682 25.4423
2691859 4.73913 5.72582 7.69969 7.22289 0.502113 2.63375 25.3875
2691869 4.7913 5.75385 7.69969 7.23225 0.485831 2.58279 25.4771
2691880 4.7913 5.75385 7.69969 7.23225 0.485831 2.58279 25.4771
2691890 4.78261 5.68846 7.73108 7.11998 0.291005 2.59456 25.3221
2691900 4.73913 5.77253 7.616 7.11998 0.532103 2.50973 25.2476
2691910 4.73913 5.77253 7.616 7.11998 0.532103 2.50973 25.2476
2691921 4.8087 5.77253 7.64738 7.13869 0.448546 2.48638 25.3673
2691930 4.78261 5.76319 7.63692 7.19483 0.530472 2.53332 25.3775
2691940 4.78261 5.76319 7.63692 7.19483 0.530472 2.53332 25.3775
2691950 4.81739 5.78187 7.64738 7.12933 0.439811 2.46934 25.376
2691961 4.81739 5.78187 7.64738 7.12933 0.439811 2.46934 25.376
2691972 4.8 5.78187 7.65785 7.11062 0.428638 2.47725 25.3503
2691982 4.86957 5.83791 7.59508 7.13869 0.503081 2.37387 25.4412
2691991 4.86957 5.83791 7.59508 7.13869 0.503081 2.37387 25.4412
2692001 4.86087 5.84725 7.63692 7.11062 0.451845 2.38027 25.4557
2692013 4.7913 5.80055 7.65785 7.14805 0.491622 2.48883 25.3977
2692021 4.7913 5.80055 7.65785 7.14805 0.491622 2.48883 25.3977
2692035 4.83478 5.77253 7.63692 7.12933 0.423822 2.45863 25.3736
2692041 4.83478 5.77253 7.63692 7.12933 0.423822 2.45863 25.3736
2692051 4.75652 5.80989 7.64738 7.03577 0.437391 2.44563 25.2496
2692063 4.81739 5.80989 7.59508 7.11062 0.501364 2.41489 25.333
2692074 4.81739 5.80989 7.59508 7.11062 0.501364 2.41489 25.333
2692083 4.82609 5.88462 7.58462 7.0732 0.539163 2.33386 25.3685
2692093 4.77391 5.82857 7.60554 7.04513 0.489295 2.40456 25.2532
2692113 4.82609 5.87527 7.62646 7.0732 0.488093 2.36111 25.401
2692125 4.82609 5.87527 7.62646 7.0732 0.488093 2.36111 25.401
2692134 4.7913 5.84725 7.56369 7.10127 0.586402 2.38686 25.3035
2692144 4.8087 5.89396 7.69969 7.14805 0.522119 2.43348 25.5504
2692154 4.8087 5.89396 7.69969 7.14805 0.522119 2.43348 25.5504
2692164 4.78261 5.86593 7.60554 7.12933 0.597951 2.41476 25.3834
2692174 4.8 5.82857 7.49046 7.16676 0.6969 2.38987 25.2858
2692194 4.81739 5.86593 7.60554 7.20418 0.63467 2.42795 25.493
2692204 4.81739 5.86593 7.60554 7.20418 0.63467 2.42795 25.493
2692214 4.84348 5.83791 7.49046 7.1574 0.652778 2.34895 25.3293
2692224 4.7913 5.82857 7.56369 7.16676 0.631484 2.43226 25.3503
2692245 4.74783 5.85659 7.48 7.11998 0.742674 2.37789 25.2044
2692255 4.8 5.9033 7.58462 7.11062 0.619426 2.35758 25.3985
2692276 4.74783 5.80989 7.57415 7.13869 0.619888 2.46638 25.2706
2692285 4.74783 5.85659 7.55323 7.17611 0.722012 2.44235 25.3338
2692297 4.74783 5.85659 7.55323 7.17611 0.722012 2.44235 25.3338
2692306 4.78261 5.78187 7.57415 7.21354 0.629774 2.49873 25.3522
2692316 4.78261 5.78187 7.57415 7.21354 0.629774 2.49873 25.3522
2692326 4.73043 5.74451 7.62646 7.13869 0.521293 2.54964 25.2401
2692336 4.67826 5.72582 7.65785 7.14805 0.533286 2.61909 25.21
2692364 4.73913 5.76319 7.616 7.25096 0.649428 2.58067 25.3693
2692373 4.72174 5.81923 7.616 7.23225 0.702798 2.54475 25.3892
2692378 4.72174 5.81923 7.616 7.23225 0.702798 2.54475 25.3892
2692386 4.69565 5.72582 7.63692 7.24161 0.62733 2.64252 25.3
2692397 4.69565 5.72582 7.63692 7.24161 0.62733 2.64252 25.3
2692407 4.66957 5.73516 7.60554 7.26032 0.712666 2.64802 25.2706
2692416 4.66957 5.77253 7.64738 7.27903 0.723937 2.65151 25.3685
2692426 4.66957 5.77253 7.64738 7.27903 0.723937 2.65151 25.3685
2692436 4.73913 5.76319 7.60554 7.26968 0.677952 2.5847 25.3775
2692448 4.64348 5.77253 7.68923 7.37259 0.797173 2.73521 25.4778
2692457 4.64348 5.77253 7.68923 7.37259 0.797173 2.73521 25.4778
2692466 4.64348 5.73516 7.77292 7.3071 0.614589 2.77001 25.4587
2692476 4.64348 5.73516 7.77292 7.3071 0.614589 2.77001 25.4587
2692486 4.66087 5.72582 7.71015 7.25096 0.597453 2.70699 25.3478
2692497 4.65217 5.68846 7.74154 7.24161 0.529498 2.74989 25.3238
2692506 4.65217 5.68846 7.74154 7.24161 0.529498 2.74989 25.3238
2692516 4.69565 5.66044 7.74154 7.27903 0.494823 2.75715 25.3767
2692526 4.69565 5.66044 7.74154 7.27903 0.494823 2.75715 25.3767
2692537 4.6087 5.6978 7.81477 7.26032 0.526619 2.81814 25.3816
2692549 4.67826 5.74451 7.84615 7.29774 0.506359 2.7699 25.5667
2692557 4.67826 5.74451 7.84615 7.29774 0.506359 2.7699 25.5667
2692566 4.67826 5.66044 7.74154 7.27903 0.512308 2.76932 25.3593
2692577 4.70435 5.6978 7.82523 7.3071 0.465375 2.7787 25.5345
2692586 4.70435 5.6978 7.82523 7.3071 0.465375 2.7787 25.5345
2692598 4.66087 5.66978 7.84615 7.28839 0.442904 2.82968 25.4652
2692618 4.64348 5.63242 7.78338 7.19483 0.396353 2.793 25.2541
2692628 4.66957 5.70714 7.77292 7.25096 0.507486 2.74433 25.4006
2692639 4.66957 5.70714 7.77292 7.25096 0.507486 2.74433 25.4006
2692649 4.65217 5.66978 7.80431 7.23225 0.43925 2.78877 25.3585
2692659 4.66957 5.71648 7.71015 7.29774 0.624666 2.73009 25.3939
2692669 4.66957 5.71648 7.71015 7.29774 0.624666 2.73009 25.3939
2692679 4.69565 5.66978 7.72062 7.23225 0.479656 2.71786 25.3183
2692689 4.66957 5.66978 7.78338 7.23225 0.442794 2.76649 25.355
2692699 4.66957 5.66044 7.78338 7.19483 0.397417 2.75496 25.3082
2692710 4.69565 5.64176 7.82523 7.20418 0.32036 2.77449 25.3668
2692719 4.69565 5.64176 7.82523 7.20418 0.32036 2.77449 25.3668
2692729 4.68696 5.67912 7.79385 7.19483 0.387645 2.73475 25.3547
2692739 4.69565 5.6978 7.82523 7.26032 0.429019 2.76233 25.479
2692749 4.69565 5.6978 7.82523 7.26032 0.429019 2.76233 25.479
2692760 4.66087 5.66044 7.83569 7.22289 0.380984 2.79982 25.3799
2692769 4.66087 5.66044 7.83569 7.22289 0.380984 2.79982 25.3799
2692779 4.70435 5.71648 7.78338 7.16676 0.389725 2.67785 25.371
2692789 4.67826 5.6511 7.78338 7.23225 0.415966 2.77349 25.345
2692800 4.67826 5.6511 7.78338 7.23225 0.415966 2.77349 25.345
2692809 4.66957 5.72582 7.82523 7.20418 0.42794 2.73396 25.4248
2692819 4.71304 5.68846 7.85662 7.18547 0.298968 2.73581 25.4436
2692829 4.71304 5.68846 7.85662 7.18547 0.298968 2.73581 25.4436
2692839 4.73913 5.71648 7.81477 7.18547 0.341821 2.67795 25.4559
2692849 4.73913 5.71648 7.81477 7.18547 0.341821 2.67795 25.4559
2692861 4.66087 5.6511 7.78338 7.16676 0.369728 2.75403 25.2621
2692869 4.68696 5.66044 7.82523 7.27903 0.4197 2.80347 25.4517
2692881 4.68696 5.66044 7.82523 7.27903 0.4197 2.80347 25.4517
2692890 4.69565 5.58571 7.86708 7.3071 0.324178 2.88315 25.4555
2692901 4.69565 5.51099 7.87754 7.33517 0.268465 2.95409 25.4193
2692921 4.71304 5.51099 7.86708 7.28839 0.215977 2.91462 25.3795
2692930 4.71304 5.51099 7.86708 7.28839 0.215977 2.91462 25.3795
2692940 4.65217 5.49231 7.85662 7.36324 0.341773 3.00148 25.3643
2692951 4.65217 5.55769 7.888 7.41937 0.428036 2.99651 25.5172
2692964 4.65217 5.55769 7.888 7.41937 0.428036 2.99651 25.5172
2692971 4.69565 5.53901 7.84615 7.27903 0.272319 2.89268 25.3598
2692981 4.65217 5.52967 7.81477 7.3913 0.447094 2.96848 25.3879
2692991 4.65217 5.52967 7.81477 7.3913 0.447094 2.96848 25.3879
2693010 4.70435 5.53901 7.77292 7.34452 0.400487 2.88285 25.3608
2693013 4.69565 5.62308 7.76246 7.31646 0.473881 2.81139 25.3976
2693023 4.69565 5.62308 7.76246 7.31646 0.473881 2.81139 25.3976
2693033 4.68696 5.6978 7.72062 7.24161 0.524557 2.70888 25.347
2693054 4.73913 5.57637 7.63692 7.20418 0.401986 2.69846 25.1566
2693064 4.74783 5.72582 7.68923 7.19483 0.476775 2.60892 25.3577
2693073 4.74783 5.72582 7.68923 7.19483 0.476775 2.60892 25.3577
2693085 4.74783 5.74451 7.68923 7.20418 0.503856 2.60052 25.3857
2693093 4.82609 5.72582 7.55323 7.19483 0.534913 2.48784 25.3
2693105 4.82609 5.72582 7.55323 7.19483 0.534913 2.48784 25.3
2693113 4.81739 5.78187 7.55323 7.1574 0.561684 2.43662 25.3099
2693134 4.85217 5.77253 7.51138 7.17611 0.577867 2.40761 25.3122
2693144 4.90435 5.80989 7.55323 7.12933 0.474119 2.34379 25.3968
2693154 4.90435 5.80989 7.55323 7.12933 0.474119 2.34379 25.3968
2693164 4.94783 5.80989 7.56369 7.08255 0.374871 2.29602 25.404
2693175 4.92174 5.74451 7.52185 7.0732 0.370249 2.3329 25.2613
2693184 4.92174 5.74451 7.52185 7.0732 0.370249 2.3329 25.2613
2693194 4.97391 5.77253 7.52185 7.06384 0.336143 2.27335 25.3321
2693214 4.91304 5.73516 7.54277 7.11998 0.394422 2.37913 25.311
2693224 4.93043 5.74451 7.52185 7.09191 0.37975 2.33631 25.2887
2693234 4.93043 5.74451 7.52185 7.09191 0.37975 2.33631 25.2887
2693244 4.82609 5.72582 7.45908 7.1574 0.594062 2.42242 25.1684
2693254 4.87826 5.6978 7.53231 7.17611 0.458133 2.45152 25.2845
2693264 4.87826 5.6978 7.53231 7.17611 0.458133 2.45152 25.2845
2693275 4.84348 5.67912 7.57415 7.23225 0.487328 2.5369 25.329
2693285 4.84348 5.67912 7.57415 7.23225 0.487328 2.5369 25.329
2693295 4.81739 5.61374 7.59508 7.21354 0.410864 2.60154 25.2397
2693305 4.8 5.66044 7.62646 7.31646 0.541693 2.64678 25.4034
2693315 4.8 5.66044 7.62646 7.31646 0.541693 2.64678 25.4034
2693326 4.7913 5.64176 7.55323 7.36324 0.651354 2.65295 25.3495
2693335 4.7913 5.6044 7.60554 7.32581 0.526479 2.68625 25.327
2693345 4.7913 5.6044 7.60554 7.32581 0.526479 2.68625 25.327
2693356 4.74783 5.56703 7.64738 7.34452 0.510085 2.77221 25.3068
2693365 4.74783 5.56703 7.64738 7.34452 0.510085 2.77221 25.3068
2693375 4.74783 5.55769 7.60554 7.32581 0.525165 2.74945 25.2369
2693386 4.74783 5.54835 7.57415 7.43808 0.656363 2.79516 25.3084
2693395 4.74783 5.54835 7.57415 7.43808 0.656363 2.79516 25.3084
2693405 4.67826 5.57637 7.65785 7.38195 0.614974 2.83768 25.2944
2693415 4.69565 5.51099 7.68923 7.43808 0.556752 2.91349 25.334
2693426 4.69565 5.51099 7.68923 7.43808 0.556752 2.91349 25.334
2693435 4.71304 5.57637 7.66831 7.47551 0.659108 2.86302 25.4332
2693446 4.71304 5.57637 7.66831 7.47551 0.659108 2.86302 25.4332
2693455 4.70435 5.48297 7.67877 7.40066 0.495222 2.90428 25.2667
2693465 4.74783 5.51099 7.73108 7.48487 0.507316 2.91885 25.4748
2693475 4.74783 5.51099 7.73108 7.48487 0.507316 2.91885 25.4748
2693487 4.75652 5.51099 7.69969 7.4568 0.503042 2.88447 25.424
2693495 4.69565 5.51099 7.71015 7.44744 0.544685 2.92791 25.3642
2693505 4.69565 5.47363 7.71015 7.44744 0.508609 2.95436 25.3269
2693515 4.73043 5.43626 7.71015 7.50358 0.491768 2.98283 25.3804
2693526 4.73043 5.43626 7.71015 7.50358 0.491768 2.98283 25.3804
2693535 4.73043 5.52967 7.62646 7.43808 0.603029 2.84571 25.3246
2693545 4.68696 5.55769 7.58462 7.50358 0.779325 2.86794 25.3328
2693555 4.68696 5.55769 7.58462 7.50358 0.779325 2.86794 25.3328
2693566 4.74783 5.52967 7.62646 7.4568 0.603473 2.84244 25.3608
2693575 4.74783 5.52967 7.62646 7.4568 0.603473 2.84244 25.3608
2693586 4.66957 5.52033 7.65785 7.541 0.722682 2.95935 25.3887
2693596 4.66957 5.6044 7.66831 7.53165 0.783318 2.90061 25.4739
2693606 4.66957 5.6044 7.66831 7.53165 0.783318 2.90061 25.4739
2693616 4.67826 5.6044 7.62646 7.49422 0.781292 2.85673 25.4033
2693631 4.71304 5.62308 7.55323 7.44744 0.793552 2.76153 25.3368
2693640 4.71304 5.62308 7.55323 7.44744 0.793552 2.76153 25.3368
2693649 4.73913 5.52967 7.54277 7.41937 0.661039 2.79023 25.2309
2693666 4.66957 5.58571 7.57415 7.44744 0.780788 2.82846 25.2769
2693676 4.71304 5.58571 7.57415 7.46615 0.754437 2.80686 25.3391
2693689 4.71304 5.58571 7.57415 7.46615 0.754437 2.80686 25.3391
2693697 4.72174 5.64176 7.58462 7.55036 0.868446 2.80692 25.4985
2693706 4.67826 5.6044 7.57415 7.49422 0.834486 2.83167 25.351
2693718 4.67826 5.6044 7.57415 7.49422 0.834486 2.83167 25.351
2693728 4.69565 5.59506 7.60554 7.52229 0.802717 2.85449 25.4185
2693738 4.69565 5.59506 7.60554 7.52229 0.802717 2.85449 25.4185
2693748 4.68696 5.58571 7.59508 7.52229 0.813282 2.86216 25.39
2693758 4.64348 5.59506 7.60554 7.49422 0.829044 2.8778 25.3383
2693768 4.64348 5.59506 7.60554 7.49422 0.829044 2.8778 25.3383
2693778 4.67826 5.56703 7.57415 7.55036 0.852367 2.88486 25.3698
2693788 4.58261 5.52967 7.62646 7.51293 0.825223 2.98621 25.2517
2693798 4.58261 5.52967 7.62646 7.51293 0.825223 2.98621 25.2517
2693808 4.66087 5.53901 7.66831 7.51293 0.711915 2.94394 25.3811
2693828 4.58261 5.54835 7.66831 7.53165 0.818253 3.00166 25.3309
2693838 4.58261 5.43626 7.64738 7.57843 0.77709 3.09388 25.2447
2693848 4.58261 5.43626 7.64738 7.57843 0.77709 3.09388 25.2447
2693858 4.66087 5.46429 7.68923 7.53165 0.637016 3.01569 25.346
2693868 4.5913 5.46429 7.752 7.59714 0.706679 3.12553 25.4047
2693878 4.5913 5.46429 7.752 7.59714 0.706679 3.12553 25.4047
2693888 4.65217 5.50165 7.74154 7.58778 0.682527 3.04642 25.4831
2693900 4.65217 5.50165 7.74154 7.58778 0.682527 3.04642 25.4831
2693909 4.5913 5.42692 7.81477 7.56907 0.580582 3.16841 25.4021
2693919 4.66957 5.45495 7.80431 7.58778 0.557336 3.09656 25.5166
2693929 4.66957 5.45495 7.80431 7.58778 0.557336 3.09656 25.5166
2693939 4.6087 5.38956 7.82523 7.59714 0.543627 3.20062 25.4206
2693949 4.5913 5.37088 7.80431 7.52229 0.491875 3.18189 25.2888
2693971 4.65217 5.41758 7.79385 7.541 0.504401 3.10874 25.4046
2693979 4.65217 5.41758 7.79385 7.541 0.504401 3.10874 25.4046
2693990 4.61739 5.3989 7.84615 7.51293 0.441658 3.15825 25.3754
2693999 4.61739 5.37088 7.79385 7.57843 0.530419 3.18448 25.3605
2694010 4.61739 5.37088 7.79385 7.57843 0.530419 3.18448 25.3605
2694020 4.64348 5.28681 7.92985 7.56907 0.27779 3.28478 25.4292
2694030 4.62609 5.25879 7.85662 7.60649 0.37733 3.30099 25.348
2694050 4.68696 5.32418 7.89846 7.46615 0.201875 3.16453 25.3757
2694060 4.68696 5.32418 7.94031 7.46615 0.160387 3.18401 25.4176
2694070 4.62609 5.32418 7.94031 7.56907 0.32095 3.27525 25.4596
2694082 4.64348 5.28681 8.00308 7.56907 0.205204 3.31842 25.5024
2694090 4.64348 5.28681 8.00308 7.56907 0.205204 3.31842 25.5024
2694103 4.71304 5.32418 7.91938 7.51293 0.200906 3.17738 25.4695
2694110 4.67826 5.38022 7.91938 7.49422 0.271666 3.15352 25.4721
2694120 4.67826 5.38022 7.91938 7.49422 0.271666 3.15352 25.4721
2694132 4.70435 5.32418 7.87754 7.43808 0.177926 3.12918 25.3441
2694143 4.70435 5.32418 7.87754 7.43808 0.177926 3.12918 25.3441
2694151 4.68696 5.36154 7.87754 7.40066 0.195155 3.09735 25.3267
2694161 4.73043 5.3989 7.87754 7.3913 0.179374 3.03536 25.3982
2694171 4.73043 5.3989 7.87754 7.3913 0.179374 3.03536 25.3982
2694181 4.69565 5.38022 7.86708 7.40066 0.215194 3.07289 25.3436
2694191 4.78261 5.41758 7.82523 7.34452 0.152016 2.93826 25.3699
2694201 4.78261 5.41758 7.82523 7.34452 0.152016 2.93826 25.3699
2694211 4.77391 5.4456 7.84615 7.38195 0.203836 2.95229 25.4476
2694224 4.77391 5.4456 7.84615 7.38195 0.203836 2.95229 25.4476
2694231 4.77391 5.40824 7.78338 7.34452 0.193071 2.9311 25.3101
2694244 4.75652 5.45495 7.82523 7.33517 0.205308 2.92584 25.3719
2694251 4.75652 5.45495 7.82523 7.33517 0.205308 2.92584 25.3719
2694264 4.78261 5.45495 7.73108 7.25096 0.19055 2.82191 25.2196
2694271 4.8 5.47363 7.888 7.31646 0.100166 2.90298 25.4781
2694290 4.8 5.47363 7.888 7.31646 0.100166 2.90298 25.4781
2694291 4.85217 5.52967 7.85662 7.25096 0.0704676 2.781 25.4894
2694305 4.85217 5.52967 7.85662 7.25096 0.0704676 2.781 25.4894
2694312 4.84348 5.45495 7.82523 7.29774 0.0825882 2.84675 25.4214
2694324 4.84348 5.46429 7.80431 7.26032 0.0756919 2.81223 25.3724
2694333 4.84348 5.46429 7.80431 7.26032 0.0756919 2.81223 25.3724
2694344 4.82609 5.51099 7.76246 7.23225 0.152668 2.75798 25.3318
2694353 4.8 5.50165 7.78338 7.22289 0.139439 2.78843 25.3079
2694373 4.8 5.46429 7.79385 7.25096 0.119919 2.83328 25.3091
2694384 4.8 5.46429 7.79385 7.25096 0.119919 2.83328 25.3091
2694394 4.8 5.42692 7.752 7.22289 0.0970364 2.82597 25.2018
2694404 4.77391 5.49231 7.82523 7.26968 0.160521 2.85596 25.3611
2694414 4.77391 5.49231 7.82523 7.26968 0.160521 2.85596 25.3611
2694426 4.8 5.46429 7.82523 7.28839 0.125545 2.86627 25.3779
2694434 4.85217 5.4456 7.83569 7.3071 0.0637144 2.85667 25.4406
2694444 4.85217 5.4456 7.83569 7.3071 0.0637144 2.85667 25.4406
2694455 4.76522 5.46429 7.90892 7.31646 0.104696 2.94396 25.4549
2694465 4.7913 5.36154 7.82523 7.3071 0.0515163 2.954 25.2852
2694475 4.7913 5.36154 7.82523 7.3071 0.0515163 2.954 25.2852
2694485 4.8087 5.51099 7.86708 7.26968 0.103012 2.83842 25.4564
2694495 4.8087 5.51099 7.86708 7.26968 0.103012 2.83842 25.4564
2694505 4.78261 5.48297 7.888 7.24161 0.0531256 2.873 25.3952
2694515 4.7913 5.50165 7.89846 7.34452 0.153124 2.90768 25.5359
2694535 4.76522 5.47363 7.86708 7.31646 0.155166 2.91752 25.4224
2694548 4.73043 5.42692 7.80431 7.37259 0.261277 2.97199 25.3343
2694555 4.73043 5.42692 7.80431 7.37259 0.261277 2.97199 25.3343
2694568 4.72174 5.40824 7.888 7.3071 0.104246 3.00006 25.3251
2694575 4.72174 5.40824 7.888 7.3071 0.104246 3.00006 25.3251
2694585 4.73913 5.41758 7.80431 7.32581 0.197688 2.9502 25.2868
2694595 4.76522 5.41758 7.82523 7.37259 0.196731 2.96389 25.3806
2694605 4.76522 5.41758 7.82523 7.37259 0.196731 2.96389 25.3806
2694615 4.70435 5.4456 7.79385 7.37259 0.316003 2.97228 25.3164
2694625 4.70435 5.4456 7.79385 7.37259 0.316003 2.97228 25.3164
2694635 4.70435 5.42692 7.84615 7.3913 0.263837 3.01918 25.3687
2694648 4.62609 5.47363 7.81477 7.50358 0.527525 3.07968 25.4181
2694665 4.65217 5.40824 7.84615 7.51293 0.415871 3.12674 25.4195
2694675 4.65217 5.41758 7.81477 7.53165 0.474387 3.11415 25.4162
2694689 4.65217 5.41758 7.81477 7.53165 0.474387 3.11415 25.4162
2694696 4.69565 5.4456 7.84615 7.541 0.435594 3.08239 25.5284
2694706 4.66087 5.4456 7.77292 7.541 0.543672 3.0728 25.4204
2694716 4.66087 5.40824 7.77292 7.56907 0.534728 3.11255 25.4111
2694729 4.62609 5.38022 7.78338 7.60649 0.568238 3.17975 25.3962
2694736 4.62609 5.38022 7.78338 7.60649 0.568238 3.17975 25.3962
2694748 4.6 5.38956 7.84615 7.60649 0.540343 3.22088 25.4422
2694756 4.58261 5.42692 7.752 7.64392 0.724483 3.18025 25.4055
2694776 4.57391 5.37088 7.74154 7.63456 0.681245 3.21749 25.3209
2694786 4.57391 5.38022 7.72062 7.63456 0.71145 3.20102 25.3093
2694796 4.57391 5.38022 7.72062 7.63456 0.71145 3.20102 25.3093
2694806 4.6087 5.4456 7.76246 7.66263 0.72321 3.16185 25.4794
2694817 4.6087 5.4456 7.76246 7.66263 0.72321 3.16185 25.4794
2694830 4.54783 5.34286 7.79385 7.62521 0.618726 3.27643 25.3097
2694837 4.58261 5.38956 7.83569 7.6907 0.649017 3.26738 25.4986
2694849 4.58261 5.38956 7.83569 7.6907 0.649017 3.26738 25.4986
2694858 4.58261 5.37088 7.79385 7.70941 0.691205 3.27012 25.4567
2694868 4.49565 5.26813 7.79385 7.58778 0.563139 3.35121 25.1454
2694878 4.49565 5.26813 7.79385 7.58778 0.563139 3.35121 25.1454
2694888 4.55652 5.37088 7.85662 7.59714 0.546551 3.26602 25.3812
2694897 4.55652 5.37088 7.85662 7.59714 0.546551 3.26602 25.3812
2694913 4.57391 5.31484 7.86708 7.61585 0.48252 3.30734 25.3717
2694921 4.53913 5.30549 7.84615 7.61585 0.529566 3.32959 25.3066
2694931 4.53913 5.30549 7.84615 7.61585 0.529566 3.32959 25.3066
2694938 4.6087 5.30549 7.91938 7.55971 0.331905 3.28723 25.3933
2694951 4.6087 5.30549 7.91938 7.55971 0.331905 3.28723 25.3933
2694959 4.62609 5.30549 7.86708 7.65327 0.457337 3.29372 25.4519
2694971 4.57391 5.36154 7.95077 7.62521 0.452799 3.31647 25.5114
2694979 4.57391 5.36154 7.95077 7.62521 0.452799 3.31647 25.5114
2694992 4.58261 5.32418 7.91938 7.61585 0.430423 3.3184 25.442
2694999 4.6087 5.38022 7.83569 7.60649 0.533134 3.2165 25.4311
2695009 4.6087 5.38022 7.83569 7.60649 0.533134 3.2165 25.4311
2695019 4.62609 5.42692 7.87754 7.57843 0.491711 3.17709 25.509
2695029 4.62609 5.42692 7.87754 7.57843 0.491711 3.17709 25.509
2695039 4.61739 5.34286 7.81477 7.55971 0.464195 3.20562 25.3347
2695049 4.62609 5.3989 7.78338 7.541 0.52312 3.13582 25.3494
2695059 4.62609 5.3989 7.78338 7.541 0.52312 3.13582 25.3494
2695069 4.58261 5.3989 7.87754 7.51293 0.445065 3.1978 25.372
2695079 4.62609 5.48297 7.79385 7.56907 0.620392 3.09391 25.472
2695089 4.62609 5.48297 7.79385 7.56907 0.620392 3.09391 25.472
2695104 4.6087 5.4456 7.752 7.50358 0.581279 3.08256 25.3099
2695119 4.54783 5.43626 7.72062 7.44744 0.611541 3.09157 25.1521
2695129 4.64348 5.52033 7.81477 7.44744 0.500983 3.00779 25.426
2695139 4.64348 5.52033 7.81477 7.44744 0.500983 3.00779 25.426
2695149 4.65217 5.46429 7.76246 7.40066 0.44533 2.99451 25.2796
2695160 4.68696 5.53901 7.76246 7.41937 0.500795 2.92579 25.4078
2695180 4.69565 5.55769 7.74154 7.3913 0.504023 2.88316 25.3862
2695190 4.69565 5.55769 7.74154 7.3913 0.504023 2.88316 25.3862
2695200 4.67826 5.52033 7.69969 7.3913 0.52757 2.90183 25.2896
2695211 4.69565 5.54835 7.80431 7.38195 0.423059 2.91518 25.4303
2695222 4.69565 5.54835 7.80431 7.38195 0.423059 2.91518 25.4303
2695231 4.73913 5.52967 7.752 7.33517 0.368461 2.85043 25.356
2695241 4.76522 5.50165 7.752 7.38195 0.360596 2.87417 25.4008
2695262 4.74783 5.54835 7.72062 7.36324 0.436512 2.82959 25.38
2695274 4.73043 5.52967 7.69969 7.32581 0.420552 2.82694 25.2856
2695283 4.73043 5.52967 7.69969 7.32581 0.420552 2.82694 25.2856
2695293 4.71304 5.55769 7.78338 7.33517 0.390354 2.86409 25.3893
2695303 4.71304 5.55769 7.78338 7.33517 0.390354 2.86409 25.3893
2695313 4.67826 5.54835 7.73108 7.38195 0.51398 2.89255 25.3396
2695323 4.73913 5.52967 7.68923 7.38195 0.476775 2.84277 25.34
2695333 4.73913 5.52967 7.68923 7.38195 0.476775 2.84277 25.34
2695343 4.77391 5.53901 7.78338 7.38195 0.356835 2.85679 25.4783
2695353 4.68696 5.52967 7.752 7.38195 0.466126 2.90959 25.3506
2695363 4.68696 5.52967 7.752 7.38195 0.466126 2.90959 25.3506
2695373 4.73913 5.51099 7.79385 7.3913 0.362998 2.91035 25.4353
2695384 4.73913 5.51099 7.79385 7.3913 0.362998 2.91035 25.4353
2695393 4.71304 5.51099 7.83569 7.3913 0.347292 2.94858 25.451
2695403 4.74783 5.48297 7.78338 7.40066 0.346664 2.92344 25.4148
2695413 4.74783 5.48297 7.78338 7.40066 0.346664 2.92344 25.4148
2695423 4.73043 5.50165 7.888 7.34452 0.223583 2.94552 25.4646
2695433 4.67826 5.47363 7.78338 7.3913 0.398085 2.97482 25.3266
2695443 4.67826 5.47363 7.78338 7.3913 0.398085 2.97482 25.3266
2695453 4.68696 5.40824 7.84615 7.41937 0.290316 3.05807 25.3607
2695463 4.68696 5.40824 7.84615 7.41937 0.290316 3.05807 25.3607
2695473 4.71304 5.40824 7.86708 7.35388 0.179544 3.01848 25.3422
2695483 4.66957 5.41758 7.87754 7.41002 0.276351 3.07417 25.3747
2695494 4.66957 5.41758 7.87754 7.41002 0.276351 3.07417 25.3747
2695503 4.73043 5.46429 7.82523 7.43808 0.340468 2.98644 25.458
2695513 4.6087 5.46429 7.86708 7.41937 0.402105 3.08374 25.3594
2695523 4.6087 5.41758 7.86708 7.41937 0.356722 3.11711 25.3127
2695533 4.68696 5.41758 7.888 7.37259 0.212121 3.0491 25.3651
2695569 4.69565 5.4456 7.85662 7.38195 0.271165 3.01261 25.3798
2695571 4.71304 5.3989 7.85662 7.40066 0.226557 3.04227 25.3692
2695574 4.71304 5.3989 7.85662 7.40066 0.226557 3.04227 25.3692
2695586 4.72174 5.3989 7.80431 7.3913 0.26086 3.00695 25.3163
2695596 4.72174 5.41758 7.87754 7.3913 0.206244 3.02827 25.4082
2695616 4.70435 5.43626 7.80431 7.3913 0.31468 2.99275 25.3362
2695626 4.70435 5.43626 7.80431 7.3913 0.31468 2.99275 25.3362
2695636 4.71304 5.4456 7.85662 7.3913 0.262973 3.0047 25.4066
2695646 4.73043 5.47363 7.84615 7.36324 0.256041 2.95434 25.4135
2695657 4.73043 5.47363 7.84615 7.36324 0.256041 2.95434 25.4135
2695666 4.72174 5.47363 7.94031 7.38195 0.189602 3.01374 25.5176
2695677 4.73913 5.47363 7.888 7.37259 0.215015 2.97242 25.4734
2695688 4.73913 5.47363 7.888 7.37259 0.215015 2.97242 25.4734
2695696 4.72174 5.4456 7.85662 7.41002 0.272536 3.00737 25.434
2695708 4.72174 5.4456 7.85662 7.41002 0.272536 3.00737 25.434
2695716 4.69565 5.40824 7.87754 7.41937 0.250408 3.06665 25.4008
2695727 4.71304 5.43626 7.87754 7.40066 0.2422 3.0256 25.4275
2695736 4.71304 5.43626 7.87754 7.40066 0.2422 3.0256 25.4275
2695747 4.67826 5.41758 7.87754 7.43808 0.295013 3.08116 25.4115
2695757 4.66957 5.38956 7.90892 7.46615 0.272492 3.13512 25.4342
2695768 4.66957 5.38956 7.90892 7.46615 0.272492 3.13512 25.4342
2695776 4.67826 5.41758 7.86708 7.44744 0.314522 3.08064 25.4104
2695796 4.6087 5.4456 7.89846 7.48487 0.416028 3.14241 25.4376
2695808 4.62609 5.32418 7.97169 7.50358 0.226125 3.25952 25.4255
2695818 4.62609 5.32418 7.97169 7.50358 0.226125 3.25952 25.4255
2695830 4.66087 5.38956 7.89846 7.51293 0.336939 3.15824 25.4618
2695838 4.64348 5.3522 7.94031 7.52229 0.285468 3.22111 25.4583
2695858 4.61739 5.43626 7.99262 7.51293 0.331768 3.19957 25.5592
2695868 4.61739 5.43626 7.99262 7.51293 0.331768 3.19957 25.5592
2695879 4.62609 5.42692 7.83569 7.47551 0.434324 3.10961 25.3642
2695890 4.68696 5.36154 7.888 7.55036 0.330502 3.17214 25.4869
2695899 4.68696 5.36154 7.888 7.55036 0.330502 3.17214 25.4869
2695909 4.58261 5.42692 7.83569 7.48487 0.487056 3.14509 25.3301
2695920 4.56522 5.36154 7.83569 7.47551 0.432026 3.20021 25.238
2695929 4.56522 5.36154 7.83569 7.47551 0.432026 3.20021 25.238
2695939 4.58261 5.43626 7.85662 7.51293 0.502169 3.16129 25.3884
2695949 4.62609 5.37088 7.87754 7.51293 0.374383 3.18672 25.3874
2695959 4.62609 5.37088 7.87754 7.51293 0.374383 3.18672 25.3874
2695969 4.69565 5.3989 7.95077 7.541 0.286758 3.16412 25.5863
2695979 4.69565 5.3989 7.95077 7.541 0.286758 3.16412 25.5863
2695989 4.63478 5.34286 7.86708 7.47551 0.312504 3.17826 25.3202
2695999 4.55652 5.37088 7.87754 7.541 0.471297 3.24972 25.3459
2696009 4.55652 5.37088 7.87754 7.541 0.471297 3.24972 25.3459
2696019 4.63478 5.37088 7.85662 7.49422 0.368449 3.16201 25.3565
2696040 4.58261 5.36154 7.89846 7.50358 0.378799 3.23001 25.3462
2696050 4.57391 5.3522 7.90892 7.51293 0.377047 3.25218 25.348
2696060 4.57391 5.3522 7.90892 7.51293 0.377047 3.25218 25.348
2696070 4.53913 5.3522 7.888 7.62521 0.541511 3.31942 25.4045
2696080 4.6 5.32418 7.95077 7.55971 0.327429 3.29451 25.4347
2696093 4.6 5.32418 7.95077 7.55971 0.327429 3.29451 25.4347
2696100 4.62609 5.3522 7.95077 7.53165 0.30143 3.24272 25.4607
2696113 4.55652 5.40824 7.94031 7.57843 0.480545 3.26916 25.4835
2696123 4.55652 5.40824 7.94031 7.57843 0.480545 3.26916 25.4835
2696131 4.6087 5.3522 7.94031 7.55971 0.356337 3.26331 25.4609
2696141 4.6087 5.3522 7.94031 7.55971 0.356337 3.26331 25.4609
2696151 4.53913 5.32418 7.99262 7.55971 0.346386 3.35759 25.4156
2696161 4.53913 5.32418 8.03446 7.55036 0.295642 3.37246 25.4481
2696171 4.53913 5.32418 8.03446 7.55036 0.295642 3.37246 25.4481
2696181 4.58261 5.32418 8.00308 7.55036 0.283629 3.32675 25.4602
2696191 4.58261 5.32418 7.94031 7.55036 0.346115 3.2979 25.3974
2696210 4.53043 5.26813 7.94031 7.52229 0.316373 3.36328 25.2612
2696211 4.54783 5.31484 7.98215 7.55971 0.339085 3.35327 25.4045
2696222 4.54783 5.31484 7.98215 7.55971 0.339085 3.35327 25.4045
2696233 4.58261 5.29615 8.00308 7.52229 0.229055 3.33407 25.4041
2696241 4.55652 5.31484 7.89846 7.55971 0.414109 3.30848 25.3295
2696251 4.55652 5.31484 7.89846 7.55971 0.414109 3.30848 25.3295
2696263 4.6 5.31484 8.03446 7.51293 0.189796 3.31819 25.4622
2696273 4.57391 5.27747 7.96123 7.55971 0.297612 3.35182 25.3723
2696283 4.57391 5.27747 7.96123 7.55971 0.297612 3.35182 25.3723
2696293 4.53043 5.24945 8.07631 7.59714 0.235572 3.47316 25.4533
2696313 4.51304 5.28681 8.05538 7.541 0.25534 3.42365 25.3962
2696323 4.56522 5.26813 8.08677 7.53165 0.14517 3.40943 25.4518
2696334 4.56522 5.26813 8.08677 7.53165 0.14517 3.40943 25.4518
2696343 4.56522 5.24945 8.04492 7.55971 0.195739 3.41668 25.4193
2696353 4.61739 5.27747 8.00308 7.56907 0.221929 3.3439 25.467
2696364 4.61739 5.27747 8.00308 7.56907 0.221929 3.3439 25.467
2696374 4.52174 5.17473 8.05538 7.55036 0.146189 3.50322 25.3022
2696384 4.52174 5.17473 8.05538 7.55036 0.146189 3.50322 25.3022
2696394 4.56522 5.23077 8.07631 7.57843 0.1647 3.453 25.4507
2696404 4.46957 5.19341 8.06585 7.61585 0.270122 3.56213 25.3447
2696414 4.46957 5.19341 8.06585 7.61585 0.270122 3.56213 25.3447
2696424 4.50435 5.18407 8.11815 7.59714 0.156182 3.55866 25.4037
2696435 4.54783 5.16538 8.13908 7.67199 0.147381 3.58356 25.5243
2696444 4.54783 5.16538 8.13908 7.67199 0.147381 3.58356 25.5243
2696454 4.54783 5.18407 8.14954 7.63456 0.118813 3.55789 25.516
2696464 4.54783 5.18407 8.14954 7.63456 0.118813 3.55789 25.516
2696474 4.50435 5.13736 8.22277 7.65327 0.0622302 3.6647 25.5178
2696484 4.47826 5.13736 8.18092 7.62521 0.101671 3.65268 25.4218
2696494 4.47826 5.13736 8.18092 7.62521 0.101671 3.65268 25.4218
2696504 4.53043 5.09066 8.20185 7.6907 0.048089 3.68712 25.5136
2696514 4.43478 5.12802 8.10769 7.64392 0.226614 3.66716 25.3144
2696524 4.43478 5.12802 8.10769 7.64392 0.226614 3.66716 25.3144
2696534 4.47826 5.07198 8.24369 7.68134 0.0307798 3.75352 25.4753
2696545 4.47826 5.07198 8.24369 7.68134 0.0307798 3.75352 25.4753
2696554 4.51304 5.06264 8.24369 7.60649 -0.0861377 3.70165 25.4259
2696564 4.46087 5.11868 8.19138 7.66263 0.12686 3.7005 25.4336
2696574 4.46087 5.11868 8.19138 7.66263 0.12686 3.7005 25.4336
2696585 4.49565 5.07198 8.22277 7.6907 0.043422 3.73561 25.4811
2696594 4.49565 5.07198 8.22277 7.6907 0.043422 3.73561 25.4811
2696605 4.4087 5.09066 8.23323 7.66263 0.109631 3.77818 25.3952
2696614 4.48696 5.08132 8.20185 7.64392 0.0358373 3.70513 25.414
2696635 4.45217 5.04396 8.22277 7.63456 0.00352561 3.76351 25.3535
2696647 4.46957 5.07198 8.20185 7.68134 0.0805408 3.74142 25.4247
2696655 4.46957 5.07198 8.20185 7.68134 0.0805408 3.74142 25.4247
2696669 4.46087 5.03462 8.22277 7.73748 0.0868708 3.80941 25.4557
2696677 4.4 5.08132 8.28554 7.67199 0.0665992 3.81869 25.4388
2696689 4.4 5.08132 8.28554 7.67199 0.0665992 3.81869 25.4388
2696696 4.47826 5.06264 8.28554 7.70006 -0.0010848 3.78706 25.5265
2696707 4.47826 5.06264 8.28554 7.70006 -0.0010848 3.78706 25.5265
2696716 4.41739 5.07198 8.25415 7.67199 0.0712395 3.79893 25.4155
2696730 4.43478 5.04396 8.22277 7.71877 0.103435 3.81357 25.4203
2696738 4.43478 5.04396 8.22277 7.71877 0.103435 3.81357 25.4203
2696750 4.4 5.09066 8.09723 7.67199 0.262684 3.72838 25.2599
2696758 4.46957 5.03462 8.17046 7.70006 0.0932455 3.76339 25.3747
2696768 4.46957 5.03462 8.17046 7.70006 0.0932455 3.76339 25.3747
2696778 4.4087 5.12802 8.28554 7.70941 0.140214 3.79425 25.5317
2696788 4.4087 5.12802 8.28554 7.70941 0.140214 3.79425 25.5317
2696799 4.4087 5.01593 8.24369 7.70006 0.0626773 3.85467 25.3684
2696812 4.43478 5.15604 8.30646 7.73748 0.148511 3.776 25.6348
2696819 4.43478 5.15604 8.30646 7.73748 0.148511 3.776 25.6348
2696834 4.43478 5.10934 8.11815 7.70006 0.252795 3.71067 25.3623
2696843 4.47826 5.16538 8.16 7.64392 0.168034 3.63116 25.4476
2696852 4.47826 5.16538 8.16 7.64392 0.168034 3.63116 25.4476
2696859 4.50435 5.19341 8.07631 7.63456 0.243336 3.54985 25.4086
2696869 4.44348 5.13736 8.08677 7.65327 0.25709 3.64869 25.3209
2696881 4.44348 5.13736 8.08677 7.65327 0.25709 3.64869 25.3209
2696893 4.51304 5.20275 8.10769 7.64392 0.221786 3.55503 25.4674
2696900 4.51304 5.20275 8.10769 7.64392 0.221786 3.55503 25.4674
2696910 4.48696 5.17473 8.05538 7.62521 0.25411 3.56257 25.3423
2696920 4.51304 5.20275 8.08677 7.61585 0.215185 3.53297 25.4184
2696930 4.51304 5.20275 8.08677 7.61585 0.215185 3.53297 25.4184
2696940 4.54783 5.26813 8.11815 7.65327 0.249562 3.49125 25.5874
2696950 4.53913 5.18407 8.04492 7.64392 0.239974 3.52135 25.412
2696963 4.53913 5.18407 8.04492 7.64392 0.239974 3.52135 25.412
2696970 4.53043 5.26813 8.07631 7.70006 0.353321 3.50605 25.5749
2696980 4.53043 5.26813 8.07631 7.70006 0.353321 3.50605 25.5749
2696990 4.47826 5.17473 7.98215 7.66263 0.372505 3.55276 25.2978
2697000 4.48696 5.23077 8.11815 7.76555 0.382015 3.61267 25.6014
2697012 4.48696 5.23077 8.11815 7.76555 0.382015 3.61267 25.6014
2697021 4.50435 5.21209 8.03446 7.6907 0.357661 3.54266 25.4416
2697031 4.46087 5.15604 8.08677 7.70941 0.31265 3.64729 25.4131
2697041 4.46087 5.15604 8.08677 7.70941 0.31265 3.64729 25.4131
2697051 4.48696 5.10934 8.08677 7.72812 0.259468 3.67078 25.4112
2697064 4.48696 5.10934 8.08677 7.72812 0.259468 3.67078 25.4112
2697071 4.44348 5.07198 8.10769 7.70941 0.227195 3.73135 25.3326
2697081 4.45217 5.08132 8.16 7.80297 0.26682 3.78257 25.4965
2697091 4.45217 5.08132 8.16 7.80297 0.26682 3.78257 25.4965
2697102 4.45217 5.06264 8.14954 7.75619 0.213525 3.77111 25.4205
2697112 4.37391 5.02527 8.10769 7.79362 0.333279 3.85494 25.3005
2697122 4.37391 5.02527 8.10769 7.79362 0.333279 3.85494 25.3005
2697131 4.44348 5.1 8.12862 7.8404 0.360906 3.77788 25.5125
2697141 4.44348 5.1 8.12862 7.8404 0.360906 3.77788 25.5125
2697153 4.38261 5.10934 8.16 7.83104 0.390232 3.82555 25.483
2697163 4.38261 5.08132 8.22277 7.85911 0.327891 3.88593 25.5458
2697173 4.38261 5.08132 8.22277 7.85911 0.327891 3.88593 25.5458
2697184 4.4 5.0533 8.16 7.80297 0.291416 3.84184 25.4163
2697193 4.36522 5.06264 8.11815 7.82168 0.395137 3.85056 25.3677
2697204 4.36522 5.06264 8.11815 7.82168 0.395137 3.85056 25.3677
2697213 4.4087 5.06264 8.13908 7.78426 0.294477 3.81104 25.3947
2697233 4.38261 5.09066 8.11815 7.7749 0.359529 3.79624 25.3663
2697243 4.4 5.07198 8.20185 7.79362 0.258908 3.84225 25.4674
2697254 4.4 5.07198 8.20185 7.79362 0.258908 3.84225 25.4674
2697264 4.3913 5.10934 8.16 7.81233 0.363487 3.81091 25.473
2697274 4.33913 5.12802 8.11815 7.8404 0.502574 3.82963 25.4257
2697284 4.33913 5.12802 8.11815 7.8404 0.502574 3.82963 25.4257
2697294 4.3913 5.13736 8.18092 7.81233 0.369743 3.79943 25.5219
2697304 4.3913 5.13736 8.18092 7.81233 0.369743 3.79943 25.5219
2697314 4.3913 5.03462 8.13908 7.82168 0.320953 3.86118 25.3867
2697324 4.4 5.11868 8.18092 7.8404 0.37016 3.81909 25.54
2697334 4.4 5.11868 8.18092 7.8404 0.37016 3.81909 25.54
2697344 4.4087 5.16538 8.09723 7.72812 0.381488 3.69178 25.3994
2697354 4.4087 5.11868 8.06585 7.71877 0.358433 3.70807 25.312
2697364 4.4087 5.11868 8.06585 7.71877 0.358433 3.70807 25.312
2697374 4.42609 5.17473 8.12862 7.76555 0.378084 3.7027 25.495
2697384 4.42609 5.17473 8.12862 7.76555 0.378084 3.7027 25.495
2697394 4.43478 5.13736 8.04492 7.71877 0.371432 3.66568 25.3358
2697404 4.45217 5.18407 8.11815 7.73748 0.344437 3.65963 25.4919
2697424 4.47826 5.19341 8.06585 7.59714 0.243181 3.54731 25.3347
2697435 4.47826 5.24945 7.97169 7.63456 0.42834 3.48063 25.334
2697455 4.53043 5.28681 7.96123 7.56907 0.359222 3.38083 25.3475
2697465 4.53043 5.28681 7.96123 7.56907 0.359222 3.38083 25.3475
2697475 4.50435 5.31484 7.98215 7.51293 0.337029 3.36326 25.3143
2697485 4.51304 5.30549 8.01354 7.56907 0.342488 3.40383 25.4011
2697497 4.51304 5.30549 8.01354 7.56907 0.342488 3.40383 25.4011
2697507 4.5913 5.41758 7.95077 7.55971 0.426367 3.23378 25.5194
2697516 4.53913 5.32418 7.94031 7.55971 0.39866 3.33358 25.3633
2697526 4.53913 5.32418 7.94031 7.55971 0.39866 3.33358 25.3633
2697536 4.57391 5.43626 7.91938 7.47551 0.411803 3.17932 25.4051
2697556 4.53913 5.38022 7.98215 7.52229 0.374871 3.2952 25.4238
2697567 4.6087 5.38022 7.94031 7.52229 0.347236 3.22595 25.4515
2697577 4.6087 5.38022 7.94031 7.52229 0.347236 3.22595 25.4515
2697586 4.55652 5.36154 7.92985 7.51293 0.382581 3.26767 25.3608
2697598 4.62609 5.40824 7.888 7.51293 0.40012 3.16486 25.4353
2697608 4.62609 5.40824 7.888 7.51293 0.40012 3.16486 25.4353
2697619 4.56522 5.3522 7.89846 7.51293 0.396243 3.25359 25.3288
2697628 4.56522 5.3522 7.89846 7.51293 0.396243 3.25359 25.3288
2697640 4.58261 5.36154 7.888 7.53165 0.416517 3.23818 25.3638
2697648 4.58261 5.26813 8.03446 7.49422 0.143111 3.35583 25.3794
2697660 4.58261 5.26813 8.03446 7.49422 0.143111 3.35583 25.3794
2697668 4.57391 5.37088 8.05538 7.53165 0.267535 3.31483 25.5318
2697680 4.55652 5.28681 8.01354 7.44744 0.16222 3.33005 25.3043
2697688 4.55652 5.28681 8.01354 7.44744 0.16222 3.33005 25.3043
2697701 4.56522 5.24945 8.06585 7.55971 0.175017 3.4262 25.4402
2697708 4.56522 5.24945 8.06585 7.55971 0.175017 3.4262 25.4402
2697721 4.57391 5.19341 8.13908 7.56907 0.0485599 3.49797 25.4755
2697728 4.57391 5.18407 8.11815 7.57843 0.0691652 3.49953 25.4546
2697739 4.57391 5.18407 8.11815 7.57843 0.0691652 3.49953 25.4546
2697749 4.53913 5.1467 8.11815 7.55036 0.0392228 3.53944 25.3543
2697759 4.53043 5.18407 8.14954 7.55971 0.0627458 3.5369 25.4238
2697769 4.53043 5.18407 8.14954 7.55971 0.0627458 3.5369 25.4238
2697779 4.53913 5.13736 8.20185 7.53165 -0.0708073 3.57556 25.41
2697789 4.53913 5.13736 8.20185 7.53165 -0.0708073 3.57556 25.41
2697799 4.52174 5.15604 8.14954 7.4568 -0.0577793 3.51716 25.2841
2697810 4.53043 5.17473 8.16 7.50358 -0.0119537 3.52309 25.3687
2697819 4.53043 5.17473 8.16 7.50358 -0.0119537 3.52309 25.3687
2697829 4.49565 5.1467 8.19138 7.55036 0.00987351 3.60426 25.3841
2697839 4.53043 5.12802 8.27508 7.53165 -0.143179 3.62157 25.4652
2697860 4.53913 5.13736 8.30646 7.64392 -0.0627384 3.67225 25.6269
2697870 4.46087 5.17473 8.25415 7.64392 0.101453 3.67895 25.5337
2697880 4.46087 5.17473 8.25415 7.64392 0.101453 3.67895 25.5337
2697890 4.45217 5.11868 8.23323 7.67199 0.103301 3.7296 25.4761
2697900 4.45217 5.11868 8.23323 7.67199 0.103301 3.7296 25.4761
2697912 4.48696 5.10934 8.23323 7.64392 0.0324577 3.69847 25.4734
2697920 4.45217 5.10934 8.25415 7.60649 0.00934899 3.71672 25.4222
2697930 4.45217 5.10934 8.25415 7.60649 0.00934899 3.71672 25.4222
2697941 4.48696 5.09066 8.23323 7.65327 0.0233144 3.71634 25.4641
2697952 4.42609 5.1 8.17046 7.59714 0.0994205 3.70143 25.2937
2697961 4.42609 5.1 8.17046 7.59714 0.0994205 3.70143 25.2937
2697972 4.50435 5.09066 8.24369 7.61585 -0.0407889 3.6916 25.4545
2697981 4.50435 5.09066 8.24369 7.61585 -0.0407889 3.6916 25.4545
2697992 4.47826 5.06264 8.21231 7.67199 0.0433177 3.74239 25.4252
2698001 4.52174 5.16538 8.26462 7.60649 -0.0141606 3.62935 25.5582
2698012 4.52174 5.16538 8.26462 7.60649 -0.0141606 3.62935 25.5582
2698021 4.42609 5.16538 8.21231 7.66263 0.186148 3.70103 25.4664
2698033 4.47826 5.1467 8.25415 7.57843 -0.00715554 3.65763 25.4575
2698041 4.47826 5.1467 8.25415 7.57843 -0.00715554 3.65763 25.4575
2698055 4.46957 5.12802 8.24369 7.64392 0.0575632 3.70216 25.4852
2698061 4.46957 5.12802 8.24369 7.64392 0.0575632 3.70216 25.4852
2698075 4.46957 5.11868 8.19138 7.53165 -0.0104934 3.6356 25.3113
2698082 4.51304 5.11868 8.25415 7.62521 -0.022842 3.67348 25.5111
2698092 4.51304 5.11868 8.25415 7.62521 -0.022842 3.67348 25.5111
2698101 4.54783 5.18407 8.22277 7.60649 0.0195265 3.57811 25.5612
2698130 4.46087 5.21209 8.13908 7.541 0.151011 3.55408 25.353
2698131 4.51304 5.15604 8.19138 7.57843 0.0295252 3.59728 25.4389
2698152 4.54783 5.23077 8.10769 7.56907 0.14174 3.4756 25.4554
2698163 4.50435 5.24011 8.13908 7.49422 0.089556 3.48071 25.3778
2698173 4.50435 5.24011 8.13908 7.49422 0.089556 3.48071 25.3778
2698183 4.53913 5.28681 8.08677 7.52229 0.180072 3.41053 25.435
2698193 4.53913 5.28681 8.08677 7.52229 0.180072 3.41053 25.435
2698203 4.52174 5.23077 8.09723 7.55036 0.159603 3.48133 25.4001
2698215 4.55652 5.22143 8.14954 7.541 0.055334 3.4823 25.4685
2698224 4.55652 5.22143 8.14954 7.541 0.055334 3.4823 25.4685
2698233 4.55652 5.28681 8.13908 7.43808 0.0288129 3.38339 25.4205
2698244 4.53043 5.21209 8.14954 7.47551 0.00751317 3.47837 25.3676
2698254 4.53043 5.21209 8.14954 7.47551 0.00751317 3.47837 25.3676
2698264 4.58261 5.38956 8.12862 7.50358 0.177619 3.31585 25.6044
2698274 4.56522 5.29615 8.17046 7.46615 0.0261098 3.39747 25.498
2698284 4.56522 5.29615 8.17046 7.46615 0.0261098 3.39747 25.498
2698294 4.58261 5.27747 8.14954 7.50358 0.0479221 3.4059 25.5132
2698304 4.58261 5.27747 8.14954 7.50358 0.0479221 3.4059 25.5132
2698314 4.56522 5.30549 8.10769 7.42873 0.0603288 3.34495 25.4071
2698325 4.5913 5.28681 8.08677 7.46615 0.0736237 3.34717 25.431
2698334 4.5913 5.28681 8.08677 7.46615 0.0736237 3.34717 25.431
2698347 4.64348 5.23077 8.19138 7.48487 -0.11666 3.4062 25.5505
2698354 4.64348 5.23077 8.19138 7.48487 -0.11666 3.4062 25.5505
2698367 4.6 5.23077 8.17046 7.47551 -0.0629827 3.42383 25.4767
2698374 4.61739 5.22143 8.19138 7.49422 -0.091213 3.436 25.5244
2698384 4.61739 5.22143 8.19138 7.49422 -0.091213 3.436 25.5244
2698394 4.53043 5.21209 8.20185 7.48487 -0.0347331 3.50631 25.4292
2698404 4.6 5.22143 8.13908 7.4568 -0.0598535 3.40778 25.4173
2698414 4.6 5.22143 8.13908 7.4568 -0.0598535 3.40778 25.4173
2698424 4.6087 5.23077 8.18092 7.48487 -0.072518 3.42654 25.5053
2698434 4.6087 5.23077 8.18092 7.48487 -0.072518 3.42654 25.5053
2698444 4.57391 5.18407 8.21231 7.43808 -0.161433 3.47862 25.4084
2698454 4.6087 5.24011 8.22277 7.49422 -0.0949845 3.44299 25.5658
2698474 4.66087 5.24011 8.14954 7.42873 -0.138906 3.3423 25.4792
2698484 4.66087 5.20275 8.12862 7.41937 -0.164655 3.35538 25.4116
2698495 4.66087 5.20275 8.12862 7.41937 -0.164655 3.35538 25.4116
2698505 4.66087 5.27747 8.07631 7.47551 0.0155002 3.30332 25.4902
2698515 4.66087 5.27747 8.07631 7.47551 0.0155002 3.30332 25.4902
2698525 4.6087 5.30549 8.14954 7.43808 -0.0143662 3.33708 25.5018
2698535 4.61739 5.24011 8.09723 7.47551 0.000980496 3.37113 25.4302
2698555 4.57391 5.27747 8.04492 7.48487 0.141346 3.35587 25.3812
2698565 4.61739 5.20275 8.08677 7.46615 -0.0347421 3.3891 25.3731
2698577 4.61739 5.20275 8.08677 7.46615 -0.0347421 3.3891 25.3731
2698586 4.5913 5.26813 8.08677 7.53165 0.119421 3.39058 25.4779
2698597 4.63478 5.29615 8.10769 7.52229 0.0743002 3.34439 25.5609
2698606 4.63478 5.29615 8.10769 7.52229 0.0743002 3.34439 25.5609
2698616 4.62609 5.26813 7.99262 7.55971 0.205475 3.33529 25.4465
2698636 4.54783 5.28681 7.99262 7.53165 0.27408 3.36546 25.3589
2698647 4.5913 5.26813 8.05538 7.58778 0.2051 3.40185 25.5026
2698656 4.5913 5.26813 8.05538 7.58778 0.2051 3.40185 25.5026
2698670 4.54783 5.32418 7.99262 7.55971 0.337717 3.35131 25.4243
2698676 4.54783 5.32418 7.99262 7.55971 0.337717 3.35131 25.4243
2698686 4.57391 5.25879 8.09723 7.53165 0.117132 3.41466 25.4616
2698697 4.51304 5.27747 8.06585 7.59714 0.290453 3.46071 25.4535
2698706 4.51304 5.27747 8.06585 7.59714 0.290453 3.46071 25.4535
2698716 4.52174 5.27747 8.01354 7.53165 0.270119 3.40074 25.3444
2698726 4.6 5.27747 7.98215 7.55036 0.241712 3.33828 25.41
2698765 4.61739 5.36154 7.99262 7.59714 0.340915 3.29162 25.5687
2698766 4.52174 5.34286 7.96123 7.55971 0.41323 3.34227 25.3855
2698776 4.54783 5.26813 7.97169 7.61585 0.358674 3.40795 25.4035
2698786 4.54783 5.26813 7.97169 7.61585 0.358674 3.40795 25.4035
2698796 4.55652 5.29615 7.99262 7.58778 0.329098 3.37811 25.4331
2698806 4.50435 5.37088 7.92985 7.57843 0.507328 3.32876 25.3835
2698816 4.50435 5.37088 7.92985 7.57843 0.507328 3.32876 25.3835
2698827 4.6 5.37088 7.98215 7.55971 0.341436 3.27542 25.5127
2698846 4.49565 5.26813 7.91938 7.56907 0.417948 3.40049 25.2522
2698857 4.53913 5.31484 7.96123 7.60649 0.413984 3.37139 25.4217
2698867 4.53913 5.31484 7.96123 7.60649 0.413984 3.37139 25.4217
2698876 4.58261 5.3989 7.95077 7.56907 0.426048 3.25767 25.5014
2698886 4.58261 5.32418 7.92985 7.59714 0.401887 3.31461 25.4338
2698898 4.58261 5.32418 7.92985 7.59714 0.401887 3.31461 25.4338
2698906 4.53043 5.29615 7.98215 7.61585 0.392747 3.40502 25.4246
2698917 4.53043 5.29615 7.98215 7.61585 0.392747 3.40502 25.4246
2698926 4.55652 5.29615 7.92985 7.541 0.346306 3.32784 25.3235
2698937 4.53913 5.31484 8.00308 7.55036 0.317806 3.36485 25.4074
2698947 4.53913 5.31484 8.00308 7.55036 0.317806 3.36485 25.4074
2698958 4.54783 5.28681 8.00308 7.59714 0.327355 3.4002 25.4349
2698968 4.53913 5.29615 7.99262 7.58778 0.346431 3.39069 25.4157
2698978 4.53913 5.29615 7.99262 7.58778 0.346431 3.39069 25.4157
2698988 4.53913 5.24011 8.12862 7.61585 0.184354 3.5057 25.5237
2699008 4.50435 5.17473 8.12862 7.62521 0.164124 3.58281 25.4329
2699018 4.51304 5.20275 8.14954 7.68134 0.216767 3.59054 25.5467
2699028 4.51304 5.20275 8.14954 7.68134 0.216767 3.59054 25.5467
2699038 4.53043 5.15604 8.08677 7.63456 0.170618 3.56279 25.4078
2699049 4.45217 5.13736 8.09723 7.63456 0.219694 3.63859 25.3213
2699060 4.45217 5.13736 8.09723 7.63456 0.219694 3.63859 25.3213
2699069 4.53913 5.16538 8.13908 7.67199 0.15595 3.58989 25.5156
2699079 4.53913 5.16538 8.13908 7.67199 0.15595 3.58989 25.5156
2699089 4.46087 5.13736 8.18092 7.61585 0.109687 3.66128 25.395
2699099 4.44348 5.15604 8.17046 7.66263 0.201252 3.67652 25.4326
2699109 4.44348 5.15604 8.17046 7.66263 0.201252 3.67652 25.4326
2699121 4.53043 5.18407 8.18092 7.62521 0.0959188 3.58041 25.5206
2699129 4.50435 5.12802 8.18092 7.63456 0.0759512 3.64458 25.4479
2699142 4.50435 5.12802 8.18092 7.63456 0.0759512 3.64458 25.4479
2699149 4.50435 5.1467 8.17046 7.63456 0.10455 3.62623 25.4561
2699162 4.50435 5.1467 8.17046 7.63456 0.10455 3.62623 25.4561
2699170 4.45217 5.09066 8.18092 7.60649 0.0632197 3.6979 25.3303
2699179 4.46087 5.10934 8.23323 7.63456 0.0489444 3.71349 25.438
2699190 4.46087 5.10934 8.23323 7.63456 0.0489444 3.71349 25.438
2699202 4.46957 5.15604 8.17046 7.56907 0.0838637 3.61555 25.3651
2699209 4.48696 5.17473 8.22277 7.62521 0.0884026 3.63762 25.5097
2699230 4.46957 5.17473 8.20185 7.66263 0.162634 3.65767 25.5088
2699250 4.43478 5.08132 8.20185 7.62521 0.0689507 3.7353 25.3432
2699264 4.44348 5.11868 8.23323 7.64392 0.0844061 3.72356 25.4393
2699270 4.44348 5.11868 8.23323 7.64392 0.0844061 3.72356 25.4393
2699280 4.47826 5.07198 8.23323 7.59714 -0.0417396 3.71157 25.3806
2699290 4.42609 5.06264 8.27508 7.70006 0.0604093 3.82095 25.4639
2699305 4.42609 5.06264 8.27508 7.70006 0.0604093 3.82095 25.4639
2699311 4.41739 5.0533 8.21231 7.68134 0.103435 3.79842 25.3643
2699321 4.41739 5.0533 8.21231 7.68134 0.103435 3.79842 25.3643
2699332 4.43478 5.03462 8.28554 7.70941 0.0232726 3.84393 25.4643
2699341 4.4087 5.04396 8.296 7.70941 0.047797 3.86091 25.4581
2699351 4.4087 5.04396 8.296 7.70941 0.047797 3.86091 25.4581
2699365 4.37391 5.0533 8.296 7.74684 0.127816 3.89612 25.47
2699373 4.41739 5.02527 8.31692 7.73748 0.0278831 3.8897 25.4971
2699385 4.41739 5.02527 8.31692 7.73748 0.0278831 3.8897 25.4971
2699392 4.38261 4.99725 8.32738 7.80297 0.0884235 3.96929 25.5102
2699410 4.38261 4.99725 8.32738 7.80297 0.0884235 3.96929 25.5102
2699413 4.36522 4.88516 8.32738 7.80297 -0.00439584 4.06606 25.3807
2699423 4.36522 4.96923 8.296 7.78426 0.0907689 3.98144 25.4147
2699433 4.36522 4.96923 8.296 7.78426 0.0907689 3.98144 25.4147
2699443 4.31304 4.95989 8.296 7.84975 0.197294 4.05577 25.4187
2699453 4.35652 4.93187 8.34831 7.80297 0.0294954 4.04657 25.4397
2699463 4.35652 4.93187 8.34831 7.80297 0.0294954 4.04657 25.4397
2699473 4.29565 4.98791 8.33785 7.84975 0.200391 4.0658 25.4712
2699493 4.34783 4.83846 8.33785 7.87782 0.0301272 4.15089 25.402
2699503 4.31304 4.87582 8.40062 7.93396 0.0941485 4.19949 25.5234
2699513 4.31304 4.87582 8.40062 7.93396 0.0941485 4.19949 25.5234
2699524 4.27826 4.89451 8.37969 7.94331 0.176367 4.20672 25.4958
2699534 4.29565 4.87582 8.37969 7.98074 0.177443 4.22351 25.5319
2699544 4.29565 4.87582 8.37969 7.98074 0.177443 4.22351 25.5319
2699556 4.30435 4.90385 8.34831 7.98074 0.227049 4.18263 25.5372
2699564 4.30435 4.90385 8.34831 7.98074 0.227049 4.18263 25.5372
2699574 4.26957 4.87582 8.33785 7.9246 0.189915 4.20169 25.4078
2699584 4.26957 4.85714 8.40062 7.95267 0.137001 4.25426 25.48
2699595 4.26957 4.85714 8.40062 7.95267 0.137001 4.25426 25.48
2699604 4.26087 4.86648 8.37969 7.89653 0.120509 4.22118 25.4036
2699614 4.28696 4.90385 8.30646 7.91525 0.222009 4.15006 25.4125
2699624 4.28696 4.90385 8.30646 7.91525 0.222009 4.15006 25.4125
2699634 4.24348 4.93187 8.30646 7.94331 0.319803 4.17368 25.4251
2699644 4.24348 4.93187 8.30646 7.94331 0.319803 4.17368 25.4251
2699654 4.25217 4.94121 8.34831 7.86846 0.205815 4.14601 25.4102
2699668 4.25217 4.95989 8.33785 7.96203 0.325236 4.16735 25.5119
2699674 4.25217 4.95989 8.33785 7.96203 0.325236 4.16735 25.5119
2699684 4.36522 4.88516 8.37969 7.97138 0.109014 4.16033 25.6015
2699695 4.27826 4.85714 8.33785 7.93396 0.172186 4.21321 25.4072
2699704 4.27826 4.85714 8.33785 7.93396 0.172186 4.21321 25.4072
2699714 4.26957 4.88516 8.30646 7.97138 0.275749 4.20118 25.4326
2699724 4.26957 4.88516 8.30646 7.97138 0.275749 4.20118 25.4326
2699737 4.22609 4.76374 8.40062 7.99945 0.134388 4.37787 25.3899
2699744 4.25217 4.82912 8.44246 7.96203 0.0946701 4.31016 25.4858
2699754 4.25217 4.82912 8.44246 7.96203 0.0946701 4.31016 25.4858
2699764 4.30435 4.8478 8.432 8.00881 0.117472 4.27187 25.593
2699774 4.21739 4.81044 8.40062 8.03687 0.225115 4.36456 25.4653
2699784 4.21739 4.81044 8.40062 8.03687 0.225115 4.36456 25.4653
2699794 4.26957 4.90385 8.52615 7.98074 0.0865102 4.28352 25.6803
2699805 4.26957 4.90385 8.52615 7.98074 0.0865102 4.28352 25.6803
2699814 4.21739 4.8478 8.51569 8.03687 0.147936 4.38409 25.6178
2699824 4.22609 4.77308 8.50523 8.01816 0.0586957 4.4221 25.5226
2699845 4.2087 4.81044 8.46338 8.01816 0.153449 4.38953 25.5007
2699855 4.2087 4.81044 8.46338 8.01816 0.153449 4.38953 25.5007
2699867 4.21739 4.7544 8.45292 8.0743 0.155279 4.44455 25.499
2699874 4.21739 4.79176 8.50523 8.12108 0.185499 4.457 25.6355
2699888 4.21739 4.79176 8.50523 8.12108 0.185499 4.457 25.6355
2699894 4.17391 4.71703 8.54708 8.02752 0.0231296 4.52591 25.4655
2699909 4.15652 4.67967 8.54708 8.1585 0.131717 4.62148 25.5418
2699925 4.22609 4.7544 8.49477 8.14915 0.178236 4.48602 25.6244
2699935 4.1913 4.7544 8.45292 8.14915 0.253755 4.49533 25.5478
2699945 4.1913 4.68901 8.45292 8.03687 0.0804663 4.49908 25.3701
2699955 4.2087 4.66099 8.55754 8.08365 -0.0211582 4.56953 25.5109
2699976 4.15652 4.61429 8.49477 8.11172 0.0736088 4.63151 25.3773
2699986 4.13913 4.63297 8.53662 8.12108 0.0769764 4.65139 25.4298
2699996 4.13913 4.63297 8.53662 8.12108 0.0769764 4.65139 25.4298
2700008 4.2 4.63297 8.59938 8.09301 -0.0718936 4.6186 25.5254
2700016 4.2 4.63297 8.59938 8.09301 -0.0718936 4.6186 25.5254
2700026 4.18261 4.64231 8.64123 8.13043 -0.049907 4.65692 25.5966
2700036 4.18261 4.61429 8.65169 8.21464 -0.00523478 4.71654 25.6632
2700051 4.18261 4.61429 8.65169 8.21464 -0.00523478 4.71654 25.6632
2700058 4.10435 4.5489 8.62031 8.19593 0.0198036 4.80751 25.4695
2700066 4.09565 4.57692 8.68308 8.14915 -0.0516161 4.79889 25.5048
2700080 4.09565 4.57692 8.68308 8.14915 -0.0516161 4.79889 25.5048
2700087 4.16522 4.57692 8.66215 8.09301 -0.154366 4.71404 25.4973
2700102 4.16522 4.57692 8.66215 8.09301 -0.154366 4.71404 25.4973
2700116 4.18261 4.56758 8.60985 8.18657 -0.0374794 4.72444 25.5466
2700129 4.18261 4.56758 8.60985 8.18657 -0.0374794 4.72444 25.5466
2700138 4.16522 4.5489 8.59938 8.20528 -0.0102058 4.75564 25.5188
2700149 4.17391 4.55824 8.51569 8.27078 0.136578 4.73437 25.5186
2700158 4.17391 4.55824 8.51569 8.27078 0.136578 4.73437 25.5186
2700171 4.13043 4.64231 8.54708 8.23335 0.193858 4.7006 25.5532
2700178 4.13043 4.64231 8.54708 8.23335 0.193858 4.7006 25.5532
2700188 4.09565 4.58626 8.50523 8.28013 0.260642 4.77286 25.4673
2700198 4.09565 4.60495 8.53662 8.34562 0.31105 4.79715 25.5828
2700218 4.01739 4.65165 8.47385 8.39241 0.541225 4.81523 25.5353
2700228 4.04348 4.62363 8.45292 8.42047 0.536108 4.81958 25.5405
2700238 4.04348 4.62363 8.45292 8.42047 0.536108 4.81958 25.5405
2700248 4.02609 4.64231 8.48431 8.4579 0.575748 4.84593 25.6106
2700258 4.02609 4.64231 8.48431 8.4579 0.575748 4.84593 25.6106
2700268 3.92174 4.53022 8.55754 8.43919 0.481486 5.03647 25.4487
2700279 3.93913 4.57692 8.63077 8.47661 0.471869 5.02938 25.6234
2700302 3.89565 4.56758 8.76677 8.40176 0.299358 5.09444 25.6318
2700310 3.89565 4.47418 8.77723 8.41112 0.20777 5.17556 25.5582
2700318 3.89565 4.47418 8.77723 8.41112 0.20777 5.17556 25.5582
2700329 3.83478 4.46484 8.88185 8.42047 0.164711 5.27462 25.6019
2700339 3.83478 4.46484 8.88185 8.42047 0.164711 5.27462 25.6019
2700349 3.8087 4.48352 8.93415 8.40176 0.138935 5.29323 25.6281
2700359 3.8 4.39011 9.01785 8.42983 0.00204146 5.41636 25.6378
2700379 3.8 4.40879 9.07015 8.33627 -0.122091 5.38603 25.6152
2700390 3.74783 4.37143 9.112 8.31756 -0.167172 5.46619 25.5488
2700400 3.74783 4.37143 9.112 8.31756 -0.167172 5.46619 25.5488
2700410 3.83478 4.39945 9.248 8.31756 -0.354439 5.42523 25.7998
2700421 3.74783 4.35275 9.31077 8.24271 -0.451332 5.52714 25.6541
2700432 3.74783 4.35275 9.31077 8.24271 -0.451332 5.52714 25.6541
2700440 3.76522 4.28736 9.35262 8.224 -0.591585 5.57413 25.6292
2700454 3.76522 4.28736 9.35262 8.224 -0.591585 5.57413 25.6292
2700460 3.72174 4.21264 9.40492 8.18657 -0.712468 5.6749 25.5259
2700471 3.82609 4.27802 9.40492 8.13979 -0.792627 5.52108 25.6488
2700480 3.82609 4.27802 9.40492 8.13979 -0.792627 5.52108 25.6488
2700490 3.8 4.25934 9.39446 8.11172 -0.805184 5.54272 25.5655
2700500 3.76522 4.25934 9.41538 8.08365 -0.820424 5.56807 25.5236
2700510 3.76522 4.2967 9.41538 8.08365 -0.782682 5.53801 25.561
2700522 3.8 4.25934 9.44677 8.14915 -0.816871 5.5758 25.6553
2700543 3.81739 4.2033 9.45723 8.10237 -0.946978 5.59351 25.5803
2700551 3.73913 4.22198 9.55138 8.16786 -0.876816 5.69977 25.6804
2700565 3.73913 4.22198 9.55138 8.16786 -0.876816 5.69977 25.6804
2700571 3.8 4.25 9.58277 8.11172 -0.99152 5.61935 25.7445
2700582 3.75652 4.25 9.656 8.11172 -1.01923 5.68079 25.7742
2700591 3.75652 4.25 9.656 8.09301 -1.03814 5.67402 25.7555
2700601 3.74783 4.17527 9.60369 8.13043 -1.01902 5.73583 25.6572
2700622 3.75652 4.15659 9.60369 8.11172 -1.06512 5.73714 25.6285
2700633 3.72174 4.22198 9.61415 8.12108 -0.966586 5.71958 25.6789
2700643 3.72174 4.22198 9.61415 8.12108 -0.966586 5.71958 25.6789
2700652 3.70435 4.19396 9.64554 8.13043 -0.998566 5.77095 25.6743
2700662 3.73913 4.18462 9.67692 8.04623 -1.15531 5.73134 25.6469
2700672 3.73913 4.18462 9.67692 8.04623 -1.15531 5.73134 25.6469
2700693 3.73913 4.21264 9.67692 8.02752 -1.14582 5.70194 25.6562
2700694 3.73913 4.21264 9.67692 8.02752 -1.14582 5.70194 25.6562
2700703 3.74783 4.23132 9.61415 7.97138 -1.13367 5.63652 25.5647
2700715 3.77391 4.22198 9.68738 7.93396 -1.27391 5.63612 25.6172
2700725 3.77391 4.22198 9.68738 7.93396 -1.27391 5.63612 25.6172
2700733 3.8087 4.26868 9.64554 7.99009 -1.16231 5.57592 25.713
2700744 3.73913 4.25934 9.67692 8.02752 -1.09831 5.66432 25.7029
2700764 3.69565 4.25 9.71877 8.08365 -1.04937 5.74224 25.7481
2700774 3.69565 4.25 9.71877 8.08365 -1.04937 5.74224 25.7481
2700785 3.64348 4.19396 9.71877 8.18657 -0.953391 5.86645 25.7428
2700794 3.61739 4.21264 9.73969 8.1585 -0.958037 5.86992 25.7282
2700808 3.61739 4.21264 9.73969 8.1585 -0.958037 5.86992 25.7282
2700814 3.54783 4.18462 9.69785 8.19593 -0.84399 5.94781 25.6262
2700825 3.58261 4.2033 9.70831 8.19593 -0.867736 5.90791 25.6901
2700836 3.58261 4.2033 9.70831 8.19593 -0.867736 5.90791 25.6901
2700845 3.54783 4.27802 9.72923 8.16786 -0.807817 5.87292 25.7229
2700855 3.54783 4.27802 9.72923 8.16786 -0.807817 5.87292 25.7229
2700865 3.53043 4.27802 9.66646 8.19593 -0.704053 5.87472 25.6708
2700875 3.52174 4.24066 9.69785 8.25206 -0.706726 5.94317 25.7123
2700885 3.52174 4.24066 9.69785 8.25206 -0.706726 5.94317 25.7123
2700896 3.46957 4.23132 9.72923 8.27078 -0.677702 6.01096 25.7009
2700906 3.46957 4.25934 9.73969 8.28013 -0.650309 5.99501 25.7487
2700916 3.46957 4.25934 9.73969 8.28013 -0.650309 5.99501 25.7487
2700926 3.46087 4.24066 9.69785 8.3082 -0.593074 6.01254 25.7076
2700940 3.46087 4.24066 9.69785 8.3082 -0.593074 6.01254 25.7076
2700947 3.4 4.19396 9.70831 8.35498 -0.545041 6.12069 25.6572
2700956 3.41739 4.26868 9.80246 8.38305 -0.548984 6.08743 25.8716
2700966 3.41739 4.26868 9.80246 8.38305 -0.548984 6.08743 25.8716
2700977 3.33913 4.19396 9.86523 8.33627 -0.654894 6.21833 25.7346
2700986 3.33043 4.13791 9.87569 8.37369 -0.67514 6.2881 25.7177
2700998 3.33043 4.13791 9.87569 8.37369 -0.67514 6.2881 25.7177
2701006 3.22609 4.14725 9.88615 8.47661 -0.47441 6.40506 25.7361
2701020 3.22609 4.14725 9.88615 8.47661 -0.47441 6.40506 25.7361
2701026 3.2087 4.08187 9.93846 8.42047 -0.628488 6.47286 25.6495
2701036 3.21739 4.07253 10.0012 8.4579 -0.668178 6.50658 25.749
2701047 3.21739 4.07253 10.0012 8.4579 -0.668178 6.50658 25.749
2701056 3.1913 4.04451 10.0222 8.44854 -0.700612 6.55567 25.7065
2701066 3.14783 4.05385 10.0535 8.50468 -0.623876 6.61292 25.7599
2701087 3.13043 4.14725 10.0849 8.46725 -0.581549 6.54736 25.8299
2701108 3.13043 4.10055 10.064 8.4579 -0.617394 6.5765 25.7529
2701118 3.18261 4.10989 10.064 8.42047 -0.694656 6.51278 25.777
2701128 3.18261 4.10989 10.064 8.42047 -0.694656 6.51278 25.777
2701138 3.2087 4.16593 9.90708 8.40176 -0.533491 6.38594 25.6835
2701149 3.24348 4.24066 9.95938 8.36434 -0.579154 6.30016 25.8079
2701159 3.24348 4.24066 9.95938 8.36434 -0.579154 6.30016 25.8079
2701171 3.26957 4.2033 9.84431 8.33627 -0.55968 6.26098 25.6534
2701178 3.26957 4.2033 9.84431 8.33627 -0.55968 6.26098 25.6534
2701188 3.35652 4.22198 9.84431 8.28949 -0.670266 6.15773 25.7123
2701198 3.4 4.2033 9.82338 8.26142 -0.738347 6.12044 25.6881
2701208 3.4 4.2033 9.82338 8.26142 -0.738347 6.12044 25.6881
2701218 3.43478 4.28736 9.77108 8.23335 -0.665796 5.99513 25.7266
2701228 3.49565 4.31538 9.75015 8.25206 -0.656986 5.92206 25.8133
2701238 3.49565 4.31538 9.75015 8.25206 -0.656986 5.92206 25.8133
2701248 3.52174 4.30604 9.792 8.14915 -0.83293 5.88695 25.7689
2701258 3.52174 4.30604 9.792 8.14915 -0.83293 5.88695 25.7689
2701268 3.49565 4.24066 9.792 8.16786 -0.855318 5.96794 25.6962
2701278 3.46957 4.25934 9.80246 8.16786 -0.821839 5.97766 25.6992
2701288 3.46957 4.25934 9.80246 8.16786 -0.821839 5.97766 25.6992
2701298 3.51304 4.2967 9.73969 8.19593 -0.738098 5.89963 25.7454
2701313 3.46957 4.19396 9.71877 8.17722 -0.799273 6.00508 25.5595
2701322 3.46957 4.19396 9.71877 8.17722 -0.799273 6.00508 25.5595
2701330 3.53043 4.27802 9.75015 8.17722 -0.801753 5.89776 25.7358
2701340 3.53043 4.27802 9.75015 8.17722 -0.801753 5.89776 25.7358
2701349 3.50435 4.22198 9.656 8.12108 -0.801159 5.91142 25.5034
2701361 3.55652 4.22198 9.68738 8.12108 -0.880185 5.87993 25.587
2701369 3.55652 4.22198 9.68738 8.12108 -0.880185 5.87993 25.587
2701383 3.55652 4.27802 9.70831 8.1585 -0.805701 5.8551 25.7014
2701389 3.55652 4.25 9.68738 8.17722 -0.795339 5.87708 25.6711
2701399 3.55652 4.25 9.68738 8.17722 -0.795339 5.87708 25.6711
2701409 3.53043 4.24066 9.70831 8.17722 -0.799857 5.91335 25.6566
2701429 3.52174 4.22198 9.69785 8.20528 -0.772341 5.94191 25.6468
2701439 3.50435 4.22198 9.68738 8.27078 -0.680351 5.97549 25.6845
2701449 3.50435 4.22198 9.68738 8.27078 -0.680351 5.97549 25.6845
2701460 3.53043 4.31538 9.63508 8.32691 -0.506835 5.87972 25.8078
2701471 3.47826 4.24066 9.63508 8.28013 -0.577886 5.96643 25.6341
2701480 3.47826 4.24066 9.63508 8.28013 -0.577886 5.96643 25.6341
2701490 3.46087 4.25934 9.60369 8.3082 -0.484765 5.96421 25.6321
2701511 3.46957 4.25934 9.60369 8.31756 -0.48378 5.9604 25.6502
2701520 3.50435 4.27802 9.61415 8.31756 -0.508401 5.9205 25.7141
2701534 3.50435 4.27802 9.61415 8.31756 -0.508401 5.9205 25.7141
2701541 3.49565 4.28736 9.53046 8.31756 -0.410825 5.89032 25.631
2701551 3.51304 4.31538 9.49908 8.33627 -0.351143 5.84886 25.6638
2701562 3.51304 4.31538 9.49908 8.33627 -0.351143 5.84886 25.6638
2701573 3.50435 4.31538 9.56185 8.25206 -0.486419 5.84828 25.6336
2701593 3.54783 4.25 9.40492 8.19593 -0.498867 5.78949 25.3987
2701603 3.53043 4.35275 9.53046 8.20528 -0.490716 5.76872 25.6189
2701613 3.53043 4.35275 9.53046 8.20528 -0.490716 5.76872 25.6189
2701623 3.56522 4.32473 9.54092 8.18657 -0.580508 5.76027 25.6174
2701633 3.57391 4.38077 9.61415 8.26142 -0.528333 5.7612 25.8303
2701643 3.57391 4.38077 9.61415 8.26142 -0.528333 5.7612 25.8303
2701653 3.6 4.39945 9.55138 8.24271 -0.493559 5.69599 25.7935
2701664 3.6087 4.34341 9.49908 8.21464 -0.535466 5.70503 25.6658
2701674 3.6087 4.34341 9.49908 8.21464 -0.535466 5.70503 25.6658
2701687 3.66087 4.42747 9.57231 8.13979 -0.645258 5.59511 25.8004
2701694 3.66087 4.42747 9.57231 8.13979 -0.645258 5.59511 25.8004
2701704 3.62609 4.30604 9.43631 8.04623 -0.698535 5.63675 25.4147
2701714 3.66087 4.37143 9.54092 8.01816 -0.793433 5.58398 25.5914
2701724 3.66087 4.37143 9.54092 8.01816 -0.793433 5.58398 25.5914
2701734 3.65217 4.45549 9.52 7.97138 -0.727856 5.49848 25.599
2701744 3.72174 4.40879 9.48862 7.96203 -0.820464 5.46502 25.5812
2701754 3.72174 4.40879 9.48862 7.96203 -0.820464 5.46502 25.5812
2701764 3.77391 4.45549 9.47815 7.93396 -0.841032 5.37178 25.6415
2701784 3.73043 4.45549 9.42585 7.86846 -0.816634 5.36203 25.4802
2701794 3.81739 4.52088 9.44677 7.90589 -0.81487 5.26317 25.6909
2701804 3.81739 4.52088 9.44677 7.90589 -0.81487 5.26317 25.6909
2701814 3.85217 4.48352 9.49908 7.80297 -1.03827 5.24599 25.6377
2701824 3.85217 4.48352 9.49908 7.80297 -1.03827 5.24599 25.6377
2701835 3.77391 4.49286 9.44677 7.87782 -0.830363 5.30911 25.5914
2701845 3.82609 4.56758 9.46769 7.84975 -0.852203 5.20618 25.7111
2701864 3.81739 4.48352 9.43631 7.86846 -0.88039 5.27453 25.6057
2701878 3.84348 4.51154 9.41538 7.76555 -0.961171 5.1844 25.5359
2701885 3.84348 4.51154 9.41538 7.76555 -0.961171 5.1844 25.5359
2701895 3.87826 4.5956 9.43631 7.8404 -0.85296 5.12775 25.7506
2701905 3.8 4.5956 9.35262 7.70006 -0.841857 5.10274 25.4483
2701915 3.8 4.49286 9.35262 7.70006 -0.94662 5.18423 25.3455
2701925 3.87826 4.56758 9.384 7.79362 -0.879137 5.11159 25.6235
2701935 3.87826 4.56758 9.384 7.79362 -0.879137 5.11159 25.6235
2701945 3.86957 4.56758 9.31077 7.70941 -0.887114 5.05731 25.4573
2701955 3.93913 4.57692 9.31077 7.73748 -0.914848 5.00631 25.5643
2701970 3.93913 4.57692 9.31077 7.73748 -0.914848 5.00631 25.5643
2701975 3.93043 4.65165 9.26892 7.70941 -0.819919 4.9273 25.5604
2701988 3.93043 4.65165 9.26892 7.70941 -0.819919 4.9273 25.5604
2701995 3.93913 4.65165 9.19569 7.71877 -0.749266 4.89528 25.5052
2702005 4.03478 4.72637 9.17477 7.71877 -0.744903 4.75491 25.6547
2702016 4.03478 4.72637 9.17477 7.71877 -0.744903 4.75491 25.6547
2702026 3.95652 4.70769 9.19569 7.72812 -0.699933 4.84188 25.588
2702036 4.0087 4.69835 9.17477 7.66263 -0.80495 4.77424 25.5444
2702056 3.98261 4.74505 9.112 7.70006 -0.635773 4.74813 25.5397
2702066 4.06087 4.81044 9.03877 7.65327 -0.621909 4.58903 25.5634
2702078 4.06087 4.81044 9.03877 7.65327 -0.621909 4.58903 25.5634
2702088 4.01739 4.81044 9.08062 7.70941 -0.564213 4.66209 25.6179
2702099 4.01739 4.81044 9.08062 7.70941 -0.564213 4.66209 25.6179
2702108 4.09565 4.81044 9.04923 7.66263 -0.655606 4.57049 25.618
2702119 4.11304 4.77308 9.04923 7.67199 -0.700201 4.58956 25.6073
2702129 4.11304 4.77308 9.04923 7.67199 -0.700201 4.58956 25.6073
2702141 4.10435 4.81978 8.95508 7.55036 -0.677642 4.47195 25.4296
2702149 4.11304 4.89451 8.96554 7.53165 -0.639521 4.40485 25.5047
2702169 4.1913 4.92253 8.89231 7.541 -0.606801 4.29763 25.5471
2702179 4.2 4.86648 8.92369 7.47551 -0.767405 4.31918 25.4657
2702189 4.2 4.86648 8.92369 7.47551 -0.767405 4.31918 25.4657
2702200 4.25217 4.92253 8.93415 7.50358 -0.742047 4.25361 25.6124
2702210 4.25217 4.92253 8.93415 7.50358 -0.742047 4.25361 25.6124
2702220 4.21739 4.93187 8.81908 7.48487 -0.608701 4.21638 25.4532
2702230 4.29565 4.96923 8.85046 7.4568 -0.703976 4.13089 25.5721
2702240 4.29565 4.96923 8.85046 7.4568 -0.703976 4.13089 25.5721
2702251 4.26957 5.00659 8.81908 7.41937 -0.649309 4.09312 25.5146
2702260 4.28696 5.04396 8.82954 7.41002 -0.64774 4.05271 25.5705
2702270 4.28696 5.04396 8.82954 7.41002 -0.64774 4.05271 25.5705
2702280 4.26957 5.06264 8.72492 7.35388 -0.568622 3.98249 25.411
2702306 4.30435 5.0533 8.72492 7.44744 -0.517564 4.00394 25.53
2702314 4.23478 5.04396 8.79815 7.48487 -0.493036 4.11021 25.5618
2702320 4.23478 5.04396 8.79815 7.48487 -0.493036 4.11021 25.5618
2702330 4.23478 5.01593 8.76677 7.53165 -0.444217 4.13773 25.5491
2702340 4.23478 5.01593 8.76677 7.53165 -0.444217 4.13773 25.5491
2702350 4.21739 5.00659 8.84 7.4568 -0.581878 4.15709 25.5208
2702360 4.26087 5.06264 8.76677 7.48487 -0.469339 4.06339 25.5751
2702370 4.26087 5.06264 8.76677 7.48487 -0.469339 4.06339 25.5751
2702380 4.22609 5.07198 8.69354 7.48487 -0.355999 4.051 25.4765
2702391 4.18261 5.04396 8.82954 7.51293 -0.445126 4.17453 25.569
2702403 4.18261 5.04396 8.82954 7.51293 -0.445126 4.17453 25.569
2702410 4.1913 5.08132 8.74585 7.52229 -0.32648 4.10844 25.5408
2702421 4.1913 5.08132 8.74585 7.52229 -0.32648 4.10844 25.5408
2702430 4.16522 5.06264 8.78769 7.55971 -0.323124 4.17565 25.5753
2702444 4.16522 5.00659 8.76677 7.55036 -0.36784 4.20495 25.4889
2702451 4.16522 5.00659 8.76677 7.55036 -0.36784 4.20495 25.4889
2702461 4.18261 5.02527 8.71446 7.55971 -0.306177 4.15957 25.4821
2702471 4.1913 5.00659 8.82954 7.53165 -0.472048 4.20396 25.5591
2702491 4.14783 5.04396 8.80862 7.57843 -0.326499 4.21946 25.5788
2702513 4.08696 4.95055 8.81908 7.59714 -0.351958 4.34831 25.4537
2702521 4.09565 4.97857 8.89231 7.60649 -0.393866 4.35493 25.573
2702533 4.09565 4.97857 8.89231 7.60649 -0.393866 4.35493 25.573
2702541 4.06087 5.02527 8.87138 7.60649 -0.293855 4.33719 25.564
2702554 4.10435 5.00659 8.80862 7.61585 -0.284426 4.29611 25.5354
2702563 4.10435 5.00659 8.80862 7.61585 -0.284426 4.29611 25.5354
2702573 4.05217 5.0533 8.88185 7.52229 -0.351273 4.29172 25.5096
2702583 4.05217 5.0533 8.88185 7.52229 -0.351273 4.29172 25.5096
2702592 4.07826 4.95989 8.82954 7.56907 -0.372337 4.34045 25.4368
2702610 4.09565 4.97857 8.89231 7.55971 -0.440402 4.33542 25.5262
2702613 4.09565 4.97857 8.89231 7.55971 -0.440402 4.33542 25.5262
2702625 4.08696 5.01593 8.90277 7.57843 -0.386338 4.32591 25.5841
2702633 4.10435 5.0533 8.93415 7.56907 -0.405417 4.29384 25.6609
2702646 4.10435 5.0533 8.93415 7.56907 -0.405417 4.29384 25.6609
2702653 4.11304 5.01593 8.95508 7.47551 -0.564051 4.28506 25.5596
2702667 4.11304 5.01593 8.95508 7.47551 -0.564051 4.28506 25.5596
2702673 4.10435 4.94121 8.93415 7.42873 -0.657815 4.31982 25.4084
2702683 4.16522 4.99725 8.93415 7.47551 -0.612588 4.25103 25.5721
2702693 4.16522 4.99725 8.93415 7.47551 -0.612588 4.25103 25.5721
2702703 4.16522 4.98791 8.86092 7.43808 -0.589482 4.21136 25.4521
2702713 4.18261 5.01593 8.93415 7.42873 -0.657338 4.20419 25.5614
2702725 4.18261 5.01593 8.93415 7.42873 -0.657338 4.20419 25.5614
2702734 4.2 4.99725 8.96554 7.46615 -0.684902 4.23414 25.6289
2702743 4.2 4.99725 8.96554 7.46615 -0.684902 4.23414 25.6289
2702755 4.1913 5.02527 8.87138 7.4568 -0.568233 4.17597 25.5448
2702763 4.17391 4.93187 8.88185 7.51293 -0.598967 4.28755 25.5006
2702777 4.17391 4.93187 8.88185 7.51293 -0.598967 4.28755 25.5006
2702783 4.16522 4.94121 8.95508 7.49422 -0.669971 4.30992 25.5557
2702793 4.18261 4.90385 8.87138 7.4568 -0.682038 4.27415 25.4146
2702803 4.18261 4.90385 8.87138 7.4568 -0.682038 4.27415 25.4146
2702814 4.2 4.87582 8.976 7.53165 -0.751002 4.3574 25.5835
2702823 4.2 4.87582 8.976 7.53165 -0.751002 4.3574 25.5835
2702834 4.14783 4.81044 8.95508 7.48487 -0.794934 4.41862 25.3982
2702843 4.2087 4.86648 9.03877 7.46615 -0.894082 4.35675 25.5801
2702854 4.2087 4.86648 9.03877 7.46615 -0.894082 4.35675 25.5801
2702864 4.18261 4.95055 8.96554 7.42873 -0.752982 4.26665 25.5274
2702874 4.2 4.81044 9.04923 7.4568 -0.962117 4.40632 25.5165
2702886 4.2 4.81044 9.04923 7.4568 -0.962117 4.40632 25.5165
2702894 4.18261 4.90385 9.08062 7.43808 -0.899518 4.35396 25.6052
2702908 4.18261 4.90385 9.08062 7.43808 -0.899518 4.35396 25.6052
2702914 4.25217 4.83846 8.96554 7.41937 -0.941961 4.29487 25.4755
2702924 4.1913 4.8478 9.01785 7.38195 -0.962503 4.34022 25.4389
2702935 4.1913 4.8478 9.01785 7.38195 -0.962503 4.34022 25.4389
2702944 4.26957 4.88516 9.04923 7.37259 -1.03712 4.26196 25.5766
2702954 4.22609 4.85714 9.01785 7.3913 -0.976257 4.31065 25.4924
2702975 4.22609 4.89451 8.99692 7.46615 -0.842677 4.30499 25.5837
2702995 4.25217 4.92253 8.98646 7.42873 -0.866924 4.24415 25.5899
2703005 4.21739 4.94121 8.96554 7.48487 -0.738856 4.27104 25.609
2703015 4.21739 4.94121 8.96554 7.48487 -0.738856 4.27104 25.609
2703025 4.1913 4.96923 8.95508 7.47551 -0.685434 4.26127 25.5911
2703037 4.2 4.86648 8.96554 7.44744 -0.835587 4.32495 25.4795
2703045 4.2 4.86648 8.96554 7.44744 -0.835587 4.32495 25.4795
2703055 4.2 4.92253 8.93415 7.53165 -0.664346 4.30466 25.5883
2703075 4.21739 4.90385 8.90277 7.53165 -0.669783 4.2925 25.5557
2703085 4.21739 4.89451 8.93415 7.47551 -0.765561 4.28918 25.5216
2703107 4.2087 4.94121 8.87138 7.51293 -0.612845 4.24983 25.5342
2703116 4.2087 4.97857 8.80862 7.48487 -0.543427 4.18328 25.4807
2703143 4.1913 4.97857 8.89231 7.4568 -0.635059 4.21993 25.519
2703148 4.1913 4.97857 8.89231 7.4568 -0.635059 4.21993 25.519
2703156 4.23478 4.95055 8.81908 7.48487 -0.606573 4.18918 25.4893
2703170 4.2 4.93187 8.89231 7.4568 -0.69036 4.2486 25.481
2703176 4.2 4.93187 8.89231 7.4568 -0.69036 4.2486 25.481
2703186 4.29565 5.04396 8.87138 7.47551 -0.630267 4.092 25.6865
2703196 4.25217 4.97857 8.84 7.49422 -0.605693 4.1679 25.565
2703206 4.25217 4.97857 8.84 7.49422 -0.605693 4.1679 25.565
2703216 4.23478 5.03462 8.89231 7.47551 -0.601631 4.15319 25.6372
2703240 4.26087 5.01593 8.77723 7.41937 -0.591592 4.07472 25.4734
2703249 4.26087 4.99725 8.80862 7.42873 -0.630997 4.10616 25.4955
2703261 4.26087 4.99725 8.80862 7.42873 -0.630997 4.10616 25.4955
2703266 4.26087 5.01593 8.81908 7.42873 -0.622228 4.09663 25.5246
2703276 4.26087 5.01593 8.81908 7.42873 -0.622228 4.09663 25.5246
2703286 4.23478 4.96923 8.78769 7.42873 -0.614189 4.13786 25.4204
2703296 4.28696 4.98791 8.80862 7.46615 -0.627705 4.10959 25.5496
2703306 4.28696 4.98791 8.80862 7.46615 -0.627705 4.10959 25.5496
2703316 4.26957 4.98791 8.81908 7.48487 -0.602338 4.13502 25.5614
2703329 4.2 4.93187 8.89231 7.541 -0.605744 4.28402 25.5652
2703351 4.26087 4.95989 8.90277 7.48487 -0.701803 4.19796 25.6084
2703356 4.26087 4.95989 8.90277 7.48487 -0.701803 4.19796 25.6084
2703366 4.27826 4.94121 8.84 7.50358 -0.65864 4.18032 25.563
2703376 4.23478 4.94121 8.80862 7.48487 -0.605945 4.19178 25.4695
2703386 4.23478 4.94121 8.80862 7.48487 -0.605945 4.19178 25.4695
2703396 4.28696 4.95055 8.80862 7.47551 -0.65583 4.14156 25.5216
2703406 4.24348 4.89451 8.82954 7.52229 -0.643611 4.24513 25.4898
2703417 4.24348 4.89451 8.82954 7.52229 -0.643611 4.24513 25.4898
2703426 4.23478 4.99725 8.89231 7.50358 -0.610918 4.19299 25.6279
2703439 4.23478 4.99725 8.89231 7.50358 -0.610918 4.19299 25.6279
2703448 4.26087 4.97857 8.79815 7.541 -0.527248 4.16347 25.5786
2703456 4.23478 4.95989 8.85046 7.57843 -0.533621 4.2349 25.6236
2703466 4.23478 4.95989 8.85046 7.57843 -0.533621 4.2349 25.6236
2703476 4.2087 5.02527 8.84 7.48487 -0.526781 4.16151 25.5588
2703486 4.21739 4.91319 8.88185 7.52229 -0.649862 4.27275 25.5347
2703498 4.21739 4.91319 8.88185 7.52229 -0.649862 4.27275 25.5347
2703508 4.24348 4.95055 8.82954 7.57843 -0.53125 4.22659 25.602
2703528 4.18261 4.86648 8.80862 7.55971 -0.555748 4.31942 25.4174
2703538 4.1913 4.83846 8.89231 7.62521 -0.606664 4.39641 25.5473
2703550 4.1913 4.83846 8.89231 7.62521 -0.606664 4.39641 25.5473
2703559 4.2 4.91319 8.91323 7.61585 -0.56956 4.33809 25.6423
2703571 4.13913 4.85714 8.93415 7.59714 -0.606211 4.42758 25.5276
2703593 4.06957 4.83846 9.01785 7.65327 -0.58219 4.5524 25.5791
2703599 4.06957 4.83846 9.01785 7.65327 -0.58219 4.5524 25.5791
2703610 4.12174 4.81978 8.95508 7.64392 -0.60014 4.49725 25.5405
2703619 4.13043 4.7544 8.93415 7.67199 -0.625914 4.54356 25.491
2703630 4.13043 4.7544 8.93415 7.67199 -0.625914 4.54356 25.491
2703640 4.12174 4.77308 8.94462 7.67199 -0.608836 4.54019 25.5114
2703650 4.10435 4.76374 9.02831 7.72812 -0.62518 4.61766 25.6245
2703661 4.10435 4.76374 9.02831 7.72812 -0.62518 4.61766 25.6245
2703670 4.11304 4.78242 8.976 7.71877 -0.5743 4.57165 25.5902
2703682 4.06087 4.72637 8.93415 7.67199 -0.587419 4.61866 25.3934
2703690 4.06087 4.72637 8.93415 7.67199 -0.587419 4.61866 25.3934
2703703 4.09565 4.79176 8.976 7.72812 -0.539017 4.58162 25.5915
2703710 4.09565 4.79176 8.976 7.72812 -0.539017 4.58162 25.5915
2703725 4.08696 4.73571 9.01785 7.73748 -0.617334 4.65204 25.578
2703730 4.07826 4.74505 9.00738 7.80297 -0.524327 4.67376 25.6337
2703740 4.07826 4.74505 9.00738 7.80297 -0.524327 4.67376 25.6337
2703750 4.12174 4.7544 8.94462 7.80297 -0.496598 4.60791 25.6237
2703760 4.12174 4.7544 8.94462 7.80297 -0.496598 4.60791 25.6237
2703770 4.07826 4.66099 9.07015 7.78426 -0.686857 4.75616 25.5937
2703780 4.09565 4.72637 8.96554 7.82168 -0.500925 4.66542 25.6092
2703790 4.09565 4.72637 8.96554 7.82168 -0.500925 4.66542 25.6092
2703800 4.07826 4.71703 9.05969 7.73748 -0.66762 4.68998 25.5925
2703812 4.01739 4.74505 8.96554 7.83104 -0.397936 4.71504 25.559
2703820 4.01739 4.74505 8.96554 7.83104 -0.397936 4.71504 25.559
2703835 4.06087 4.71703 9.03877 7.78426 -0.5843 4.71377 25.6009
2703840 4.06087 4.71703 9.03877 7.78426 -0.5843 4.71377 25.6009
2703850 4.06087 4.62363 9.10154 7.8404 -0.681314 4.83335 25.6264
2703860 4.06957 4.68901 9.04923 7.82168 -0.593168 4.74785 25.6295
2703870 4.06957 4.68901 9.04923 7.82168 -0.593168 4.74785 25.6295
2703880 4.06087 4.68901 9.112 7.80297 -0.663246 4.77215 25.6649
2703895 4.04348 4.67033 9.03877 7.84975 -0.548938 4.78943 25.6023
2703902 4.04348 4.67033 9.03877 7.84975 -0.548938 4.78943 25.6023
2703911 4.06087 4.67967 9.03877 7.78426 -0.621693 4.74258 25.5636
2703922 4.06087 4.67967 9.03877 7.78426 -0.621693 4.74258 25.5636
2703932 4.01739 4.5956 9.08062 7.86846 -0.619999 4.89167 25.5621
2703942 4.0087 4.62363 9.03877 7.86846 -0.543641 4.86006 25.5396
2703964 4.01739 4.60495 9.08062 7.86846 -0.610639 4.88441 25.5714
2703971 4.0087 4.57692 9.12246 7.88718 -0.651544 4.93686 25.5953
2703987 4.0087 4.57692 9.12246 7.88718 -0.651544 4.93686 25.5953
2703993 4.03478 4.57692 9.13292 7.9246 -0.648813 4.93538 25.6692
2704013 3.94783 4.53956 9.16431 7.91525 -0.642754 5.04098 25.5669
2704023 3.88696 4.52088 9.17477 7.94331 -0.585222 5.11847 25.5259
2704033 3.88696 4.52088 9.17477 7.94331 -0.585222 5.11847 25.5259
2704043 3.92174 4.56758 9.15385 7.91525 -0.579806 5.03539 25.5584
2704055 3.95652 4.49286 9.18523 7.98074 -0.652106 5.10432 25.6153
2704078 3.93043 4.43681 9.25846 7.99945 -0.734273 5.20426 25.6252
2704085 3.93043 4.43681 9.25846 7.99945 -0.734273 5.20426 25.6252
2704094 3.87826 4.41813 9.21662 8.03687 -0.626099 5.2586 25.5499
2704104 3.90435 4.45549 9.28985 8.05559 -0.664373 5.24343 25.7053
2704114 3.90435 4.45549 9.28985 8.05559 -0.664373 5.24343 25.7053
2704124 3.86087 4.43681 9.31077 8.12108 -0.596344 5.3251 25.7295
2704134 3.87826 4.33407 9.31077 8.06494 -0.771868 5.37168 25.588
2704144 3.87826 4.33407 9.31077 8.06494 -0.771868 5.37168 25.588
2704154 3.84348 4.39945 9.35262 8.09301 -0.684772 5.37361 25.6886
2704164 3.84348 4.39945 9.35262 8.09301 -0.684772 5.37361 25.6886
2704174 3.78261 4.32473 9.37354 8.14915 -0.665505 5.51035 25.63
2704187 3.8087 4.36209 9.41538 8.17722 -0.664486 5.48559 25.7634
2704194 3.8087 4.36209 9.41538 8.17722 -0.664486 5.48559 25.7634
2704208 3.82609 4.37143 9.37354 8.13043 -0.678717 5.43147 25.7015
2704214 3.74783 4.34341 9.384 8.18657 -0.586325 5.54093 25.6618
2704234 3.73043 4.31538 9.44677 8.224 -0.620052 5.61405 25.7166
2704244 3.73043 4.31538 9.44677 8.224 -0.620052 5.61405 25.7166
2704255 3.63478 4.28736 9.40492 8.24271 -0.498278 5.70526 25.5698
2704265 3.63478 4.2967 9.49908 8.31756 -0.504503 5.75876 25.7481
2704276 3.63478 4.2967 9.49908 8.31756 -0.504503 5.75876 25.7481
2704285 3.62609 4.23132 9.52 8.3082 -0.590381 5.82279 25.6856
2704298 3.6 4.23132 9.55138 8.34562 -0.55818 5.86845 25.7283
2704305 3.6 4.23132 9.55138 8.34562 -0.55818 5.86845 25.7283
2704318 3.52174 4.25 9.60369 8.35498 -0.505677 5.93865 25.7304
2704325 3.52174 4.25 9.60369 8.35498 -0.505677 5.93865 25.7304
2704335 3.54783 4.17527 9.63508 8.37369 -0.615904 5.99587 25.7319
2704346 3.46957 4.24066 9.58277 8.40176 -0.398833 5.9979 25.6948
2704356 3.46957 4.24066 9.58277 8.40176 -0.398833 5.9979 25.6948
2704366 3.46087 4.24066 9.63508 8.35498 -0.486837 6.00694 25.6916
2704376 3.48696 4.26868 9.49908 8.41112 -0.29829 5.93467 25.6658
2704396 3.52174 4.26868 9.53046 8.38305 -0.389501 5.90751 25.7039
2704410 3.49565 4.22198 9.49908 8.38305 -0.380571 5.95582 25.5998
2704431 3.52174 4.32473 9.53046 8.32691 -0.389594 5.84207 25.7038
2704438 3.52174 4.32473 9.53046 8.32691 -0.389594 5.84207 25.7038
2704448 3.52174 4.33407 9.54092 8.32691 -0.390384 5.83823 25.7236
2704458 3.56522 4.31538 9.49908 8.41112 -0.327437 5.83324 25.7908
2704468 3.56522 4.31538 9.49908 8.41112 -0.327437 5.83324 25.7908
2704478 3.51304 4.28736 9.56185 8.3082 -0.466809 5.88399 25.6705
2704488 3.51304 4.28736 9.56185 8.3082 -0.466809 5.88399 25.6705
2704499 3.52174 4.30604 9.45723 8.224 -0.439975 5.79409 25.509
2704513 3.62609 4.42747 9.54092 8.17722 -0.545482 5.62511 25.7717
2704522 3.62609 4.42747 9.54092 8.17722 -0.545482 5.62511 25.7717
2704530 3.56522 4.35275 9.46769 8.16786 -0.501205 5.70426 25.5535
2704538 3.61739 4.46484 9.45723 8.0743 -0.522657 5.53373 25.6138
2704548 3.61739 4.46484 9.45723 8.0743 -0.522657 5.53373 25.6138
2704558 3.66087 4.47418 9.43631 8.13043 -0.47912 5.5045 25.7018
2704568 3.70435 4.47418 9.43631 8.05559 -0.594939 5.44208 25.6704
2704578 3.70435 4.43681 9.43631 8.05559 -0.632246 5.47188 25.6331
2704591 3.68696 4.49286 9.42585 7.98074 -0.624558 5.40919 25.5864
2704598 3.68696 4.49286 9.42585 7.98074 -0.624558 5.40919 25.5864
2704611 3.75652 4.47418 9.33169 7.99009 -0.610453 5.33672 25.5525
2704619 3.78261 4.52088 9.384 7.99009 -0.638334 5.29875 25.6776
2704633 3.78261 4.52088 9.384 7.99009 -0.638334 5.29875 25.6776
2704639 3.73913 4.48352 9.33169 7.95267 -0.622024 5.32896 25.507
2704652 3.8 4.60495 9.26892 7.91525 -0.536099 5.14627 25.5891
2704659 3.8 4.60495 9.26892 7.91525 -0.536099 5.14627 25.5891
2704672 3.83478 4.5956 9.20615 7.86846 -0.565444 5.08384 25.505
2704679 3.83478 4.5956 9.20615 7.86846 -0.565444 5.08384 25.505
2704689 3.88696 4.65165 9.13292 7.79362 -0.564118 4.94083 25.4651
2704699 4 4.70769 9.12246 7.8404 -0.559372 4.82372 25.6706
2704709 4 4.70769 9.12246 7.8404 -0.559372 4.82372 25.6706
2704721 4 4.79176 9.00738 7.74684 -0.458771 4.67537 25.546
2704730 3.95652 4.8011 8.96554 7.68134 -0.432619 4.65819 25.4045
2704741 3.95652 4.8011 8.96554 7.68134 -0.432619 4.65819 25.4045
2704750 4.03478 4.82912 8.96554 7.67199 -0.489394 4.57246 25.5014
2704762 4.03478 4.82912 8.96554 7.67199 -0.489394 4.57246 25.5014
2704770 4.04348 4.83846 8.90277 7.59714 -0.502966 4.50202 25.3818
2704785 4.11304 4.99725 8.89231 7.59714 -0.401331 4.32376 25.5997
2704790 4.11304 4.99725 8.89231 7.59714 -0.401331 4.32376 25.5997
2704805 4.11304 4.98791 8.80862 7.52229 -0.404473 4.26431 25.4319
2704810 4.11304 4.98791 8.80862 7.52229 -0.404473 4.26431 25.4319
2704827 4.2 5.00659 8.85046 7.55971 -0.472496 4.21809 25.6168
2704830 4.11304 5.04396 8.89231 7.58778 -0.364327 4.28466 25.6371
2704841 4.11304 5.04396 8.89231 7.58778 -0.364327 4.28466 25.6371
2704851 4.13913 4.93187 8.78769 7.56907 -0.41872 4.29792 25.4278
2704862 4.16522 4.95055 8.90277 7.56907 -0.535774 4.31229 25.5876
2704872 4.16522 4.95055 8.90277 7.56907 -0.535774 4.31229 25.5876
2704882 4.17391 5.07198 8.80862 7.55971 -0.342424 4.17099 25.6142
2704894 4.2087 5.02527 8.82954 7.47551 -0.526108 4.1531 25.539
2704902 4.2087 5.02527 8.82954 7.47551 -0.526108 4.1531 25.539
2704911 4.21739 5.0533 8.81908 7.56907 -0.403468 4.16082 25.6588
2704921 4.21739 5.0533 8.81908 7.56907 -0.403468 4.16082 25.6588
2704933 4.2 5.02527 8.75631 7.47551 -0.447345 4.12844 25.4571
2704942 4.21739 5.02527 8.80862 7.55036 -0.439791 4.16945 25.6016
2704953 4.21739 5.02527 8.80862 7.55036 -0.439791 4.16945 25.6016
2704963 4.12174 4.98791 8.84 7.53165 -0.433828 4.2749 25.4813
2704973 4.12174 4.98791 8.86092 7.51293 -0.472675 4.27583 25.4835
2704984 4.12174 4.98791 8.86092 7.51293 -0.472675 4.27583 25.4835
2704993 4.18261 4.92253 8.88185 7.62521 -0.504372 4.335 25.6122
2705006 4.18261 4.92253 8.88185 7.62521 -0.504372 4.335 25.6122
2705013 4.06957 4.92253 8.88185 7.58778 -0.433104 4.40516 25.4617
2705023 4.15652 4.95055 8.94462 7.62521 -0.511529 4.35961 25.6769
2705043 4.12174 5.01593 8.91323 7.65327 -0.35574 4.33519 25.7042
2705053 4.10435 4.90385 8.91323 7.61585 -0.487407 4.41759 25.5373
2705073 4.12174 4.96923 8.85046 7.65327 -0.34157 4.34432 25.5947
2705083 4.12174 4.96923 8.85046 7.65327 -0.34157 4.34432 25.5947
2705095 4.10435 4.93187 8.91323 7.58778 -0.487456 4.38466 25.5372
2705105 4.13043 4.95055 8.89231 7.70006 -0.362378 4.38862 25.6733
2705124 4.11304 4.87582 8.90277 7.58778 -0.541815 4.41632 25.4794
2705134 4.08696 4.89451 8.92369 7.70941 -0.396976 4.48083 25.6146
2705144 4.08696 4.89451 8.92369 7.70941 -0.396976 4.48083 25.6146
2705161 4.06957 4.90385 8.92369 7.72812 -0.352474 4.49463 25.6252
2705178 3.9913 4.90385 8.92369 7.72812 -0.276968 4.55436 25.547
2705179 3.9913 4.86648 8.92369 7.72812 -0.31399 4.583 25.5096
2705189 4.06087 4.88516 8.94462 7.71877 -0.391999 4.52022 25.6094
2705196 4.06087 4.88516 8.94462 7.71877 -0.391999 4.52022 25.6094
2705211 4.01739 4.82912 8.93415 7.73748 -0.377129 4.59974 25.5181
2705216 4.05217 4.85714 8.94462 7.73748 -0.392874 4.55589 25.5914
2705227 4.05217 4.85714 8.94462 7.73748 -0.392874 4.55589 25.5914
2705236 4.03478 4.91319 9.03877 7.66263 -0.485133 4.53428 25.6494
2705248 3.97391 4.86648 8.95508 7.71877 -0.336812 4.60534 25.5142
2705257 3.97391 4.86648 8.95508 7.71877 -0.336812 4.60534 25.5142
2705266 4.03478 4.89451 8.92369 7.68134 -0.374621 4.50908 25.5343
2705278 4.03478 4.89451 8.92369 7.68134 -0.374621 4.50908 25.5343
2705286 4.02609 4.92253 8.89231 7.6907 -0.298814 4.48526 25.5316
2705300 4.06957 4.91319 8.88185 7.61585 -0.414409 4.42395 25.4804
2705320 4.13043 4.98791 8.82954 7.61585 -0.348355 4.29928 25.5637
2705328 4.17391 5.01593 8.78769 7.59714 -0.340702 4.21999 25.5747
2705343 4.17391 5.01593 8.78769 7.59714 -0.340702 4.21999 25.5747
2705348 4.15652 5.04396 8.74585 7.58778 -0.264966 4.19037 25.5341
2705359 4.15652 5.04396 8.74585 7.58778 -0.264966 4.19037 25.5341
2705368 4.09565 5.01593 8.73538 7.56907 -0.242004 4.24508 25.416
2705378 4.18261 5.01593 8.75631 7.56907 -0.346646 4.18833 25.5239
2705388 4.18261 5.01593 8.75631 7.56907 -0.346646 4.18833 25.5239
2705399 4.2 5.09066 8.75631 7.58778 -0.270987 4.12727 25.6347
2705411 4.25217 5.11868 8.72492 7.42873 -0.420858 3.98605 25.5245
2705419 4.25217 5.11868 8.72492 7.42873 -0.420858 3.98605 25.5245
2705429 4.16522 5.09066 8.69354 7.49422 -0.269099 4.08661 25.4436
2705439 4.16522 5.09066 8.69354 7.49422 -0.269099 4.08661 25.4436
2705449 4.16522 5.1 8.71446 7.51293 -0.261591 4.09658 25.4926
2705460 4.22609 5.13736 8.704 7.541 -0.245744 4.03083 25.6085
2705470 4.22609 5.13736 8.704 7.541 -0.245744 4.03083 25.6085
2705479 4.1913 5.11868 8.67262 7.52229 -0.218536 4.04918 25.5049
2705489 4.18261 5.1 8.66215 7.51293 -0.227663 4.06114 25.4577
2705500 4.18261 5.1 8.66215 7.51293 -0.227663 4.06114 25.4577
2705509 4.22609 5.12802 8.69354 7.541 -0.244838 4.03329 25.5886
2705523 4.22609 5.12802 8.69354 7.541 -0.244838 4.03329 25.5886
2705529 4.15652 5.1 8.69354 7.49422 -0.251371 4.08613 25.4443
2705539 4.17391 5.1467 8.71446 7.49422 -0.242318 4.04715 25.5293
2705549 4.17391 5.1467 8.71446 7.49422 -0.242318 4.04715 25.5293
2705559 4.22609 5.16538 8.71446 7.46615 -0.302097 3.98236 25.5721
2705571 4.21739 5.1 8.66215 7.52229 -0.252193 4.03915 25.5018
2705580 4.21739 5.1 8.66215 7.52229 -0.252193 4.03915 25.5018
2705594 4.2 5.17473 8.76677 7.59714 -0.189313 4.07317 25.7386
2705610 4.17391 5.07198 8.76677 7.49422 -0.367041 4.12541 25.5069
2705620 4.2087 5.1 8.704 7.63456 -0.173639 4.11147 25.6473
2705630 4.2087 5.1 8.704 7.63456 -0.173639 4.11147 25.6473
2705641 4.1913 5.10934 8.69354 7.541 -0.229584 4.07314 25.5352
2705650 4.14783 5.0533 8.76677 7.541 -0.313908 4.17892 25.5089
2705661 4.14783 5.0533 8.76677 7.541 -0.313908 4.17892 25.5089
2705670 4.17391 5.0533 8.78769 7.46615 -0.433807 4.13639 25.4811
2705690 4.14783 5.0533 8.72492 7.52229 -0.291926 4.15317 25.4483
2705704 4.17391 5.02527 8.71446 7.52229 -0.334972 4.15017 25.4359
2705710 4.17391 5.02527 8.71446 7.52229 -0.334972 4.15017 25.4359
2705722 4.26957 5.02527 8.73538 7.50358 -0.466144 4.07937 25.5338
2705731 4.17391 5.09066 8.71446 7.541 -0.251484 4.10906 25.52
2705741 4.17391 5.09066 8.71446 7.541 -0.251484 4.10906 25.52
2705751 4.22609 5.10934 8.71446 7.51293 -0.311266 4.04413 25.5628
2705773 4.23478 5.08132 8.68308 7.46615 -0.36362 4.02496 25.4653
2705781 4.24348 5.09066 8.66215 7.42873 -0.379787 3.98628 25.425
2705796 4.24348 5.09066 8.66215 7.42873 -0.379787 3.98628 25.425
2705810 4.26087 5.08132 8.704 7.46615 -0.409015 4.01451 25.5123
2705811 4.31304 5.03462 8.69354 7.42873 -0.533214 3.98977 25.4699
2705822 4.31304 5.03462 8.69354 7.42873 -0.533214 3.98977 25.4699
2705831 4.26957 5.09066 8.68308 7.44744 -0.406562 3.98397 25.4907
2705841 4.26957 5.09066 8.68308 7.44744 -0.406562 3.98397 25.4907
2705851 4.28696 5.15604 8.67262 7.3913 -0.404032 3.8936 25.5069
2705864 4.32174 5.06264 8.73538 7.41002 -0.572342 3.97243 25.5298
2705873 4.32174 5.06264 8.73538 7.41002 -0.572342 3.97243 25.5298
2705887 4.29565 5.12802 8.72492 7.43808 -0.444047 3.95088 25.5867
2705893 4.28696 5.04396 8.76677 7.41002 -0.587817 4.02577 25.5077
2705903 4.28696 5.04396 8.76677 7.41002 -0.587817 4.02577 25.5077
2705913 4.34783 5.06264 8.77723 7.41002 -0.637169 3.97113 25.5977
2705924 4.34783 5.06264 8.71446 7.41002 -0.57728 3.94402 25.5349
2705934 4.28696 5.07198 8.71446 7.41002 -0.509569 3.98232 25.4834
2705944 4.27826 5.06264 8.71446 7.48487 -0.435802 4.02801 25.5402
2705965 4.26957 5.08132 8.71446 7.41002 -0.483499 3.98832 25.4754
2705975 4.26087 4.99725 8.76677 7.42873 -0.590934 4.08825 25.4536
2705986 4.26087 4.99725 8.76677 7.42873 -0.590934 4.08825 25.4536
2705998 4.27826 5.0533 8.77723 7.44744 -0.542679 4.04585 25.5562
2706004 4.27826 5.0533 8.75631 7.44744 -0.52264 4.03688 25.5353
2706014 4.27826 5.02527 8.75631 7.43808 -0.560054 4.05377 25.4979
2706025 4.23478 5.04396 8.80862 7.47551 -0.512397 4.11068 25.5629
2706035 4.23478 5.04396 8.80862 7.47551 -0.512397 4.11068 25.5629
2706045 4.27826 5.01593 8.73538 7.3913 -0.596367 4.03162 25.4209
2706055 4.26957 5.09066 8.72492 7.42873 -0.46553 3.99396 25.5139
2706075 4.27826 5.12802 8.69354 7.50358 -0.332181 3.97848 25.6034
2706088 4.23478 5.0533 8.66215 7.48487 -0.352637 4.04496 25.4351
2706107 4.22609 5.06264 8.72492 7.50358 -0.376998 4.07946 25.5172
2706116 4.22609 5.06264 8.72492 7.50358 -0.376998 4.07946 25.5172
2706129 4.26087 5.06264 8.67262 7.48487 -0.378697 4.02298 25.481
2706136 4.24348 4.99725 8.62031 7.51293 -0.348388 4.07456 25.374
2706146 4.24348 4.99725 8.62031 7.51293 -0.348388 4.07456 25.374
2706156 4.26087 5.07198 8.71446 7.47551 -0.41908 4.02999 25.5228
2706166 4.24348 5.0533 8.69354 7.44744 -0.428773 4.03585 25.4378
2706186 4.28696 5.1467 8.71446 7.541 -0.305298 3.98328 25.6891
2706198 4.28696 5.1467 8.71446 7.541 -0.305298 3.98328 25.6891
2706206 4.27826 5.07198 8.62031 7.41002 -0.410329 3.94795 25.3806
2706222 4.31304 5.09066 8.67262 7.48487 -0.401129 3.9633 25.5612
2706226 4.31304 5.09066 8.67262 7.48487 -0.401129 3.9633 25.5612
2706236 4.32174 5.10934 8.67262 7.48487 -0.390944 3.94301 25.5886
2706246 4.30435 5.16538 8.63077 7.4568 -0.306112 3.88412 25.5573
2706256 4.30435 5.16538 8.63077 7.4568 -0.306112 3.88412 25.5573
2706266 4.32174 5.12802 8.59938 7.47551 -0.311065 3.89337 25.5247
2706276 4.32174 5.12802 8.59938 7.47551 -0.311065 3.89337 25.5247
2706290 4.31304 5.1 8.55754 7.42873 -0.336477 3.88193 25.3993
2706299 4.29565 5.11868 8.65169 7.4568 -0.364247 3.93422 25.5228
2706311 4.29565 5.11868 8.65169 7.4568 -0.364247 3.93422 25.5228
2706316 4.36522 5.10934 8.60985 7.42873 -0.428206 3.8592 25.5131
2706326 4.36522 5.10934 8.60985 7.42873 -0.428206 3.8592 25.5131
2706337 4.23478 5.07198 8.65169 7.4568 -0.351857 4.01436 25.4153
2706346 4.32174 5.08132 8.67262 7.541 -0.363079 3.98797 25.6167
2706358 4.32174 5.08132 8.67262 7.541 -0.363079 3.98797 25.6167
2706367 4.25217 5.12802 8.59938 7.4568 -0.262161 3.93687 25.4364
2706381 4.22609 5.1 8.68308 7.47551 -0.327308 4.02153 25.4847
2706386 4.22609 5.1 8.68308 7.47551 -0.327308 4.02153 25.4847
2706396 4.29565 5.03462 8.72492 7.50358 -0.471838 4.04845 25.5588
2706418 4.24348 5.00659 8.704 7.56907 -0.364193 4.12743 25.5231
2706427 4.30435 5.03462 8.74585 7.56907 -0.435126 4.07889 25.6539
2706437 4.30435 5.03462 8.74585 7.56907 -0.435126 4.07889 25.6539
2706453 4.25217 5.06264 8.73538 7.51293 -0.402914 4.06846 25.5631
2706458 4.24348 5.02527 8.75631 7.47551 -0.489207 4.09583 25.5006
2706478 4.28696 4.99725 8.75631 7.4568 -0.57772 4.07625 25.4973
2706492 4.28696 4.99725 8.75631 7.4568 -0.57772 4.07625 25.4973
2706500 4.23478 5.01593 8.74585 7.52229 -0.433411 4.12484 25.5189
2706508 4.29565 5.04396 8.76677 7.48487 -0.521272 4.0514 25.5912
2706519 4.29565 5.04396 8.76677 7.48487 -0.521272 4.0514 25.5912
2706529 4.29565 5.02527 8.77723 7.51293 -0.521918 4.08177 25.6111
2706539 4.28696 5.02527 8.75631 7.55036 -0.456335 4.09528 25.6189
2706549 4.28696 5.02527 8.75631 7.55036 -0.456335 4.09528 25.6189
2706559 4.26957 4.98791 8.74585 7.55036 -0.466803 4.13173 25.5537
2706569 4.26957 4.98791 8.74585 7.55036 -0.466803 4.13173 25.5537
2706580 4.2 4.92253 8.74585 7.59714 -0.418392 4.25308 25.4655
2706589 4.24348 4.95055 8.76677 7.60649 -0.443147 4.21197 25.5673
2706602 4.24348 4.95055 8.76677 7.60649 -0.443147 4.21197 25.5673
2706609 4.23478 4.93187 8.77723 7.60649 -0.463448 4.23697 25.5504
2706624 4.15652 4.91319 8.76677 7.63456 -0.368598 4.31762 25.471
2706629 4.15652 4.91319 8.76677 7.63456 -0.368598 4.31762 25.471
2706639 4.17391 4.93187 8.85046 7.6907 -0.391673 4.34869 25.6469
2706660 4.2 4.88516 8.76677 7.70006 -0.373307 4.33332 25.552
2706671 4.2 4.88516 8.87138 7.67199 -0.501621 4.36518 25.6285
2706693 4.17391 4.8478 8.79815 7.6907 -0.424887 4.39062 25.5106
2706700 4.14783 4.81978 8.77723 7.67199 -0.426185 4.41535 25.4168
2706710 4.14783 4.81978 8.77723 7.67199 -0.426185 4.41535 25.4168
2706721 4.16522 4.89451 8.81908 7.64392 -0.43674 4.35099 25.5227
2706730 4.16522 4.89451 8.81908 7.64392 -0.43674 4.35099 25.5227
2706741 4.12174 4.88516 8.73538 7.65327 -0.313722 4.36007 25.3956
2706750 4.15652 4.86648 8.85046 7.75619 -0.374867 4.4384 25.6297
2706771 4.15652 4.93187 8.74585 7.6907 -0.274046 4.31822 25.5249
2706784 4.14783 5.01593 8.82954 7.64392 -0.309619 4.27681 25.6372
2706806 4.2 4.98791 8.68308 7.65327 -0.236921 4.20097 25.5243
2706811 4.2 4.98791 8.68308 7.65327 -0.236921 4.20097 25.5243
2706821 4.17391 4.95989 8.71446 7.62521 -0.297639 4.24316 25.4735
2706831 4.22609 4.99725 8.69354 7.57843 -0.337264 4.14701 25.4953
2706853 4.25217 5.03462 8.55754 7.541 -0.230542 4.02501 25.3853
2706863 4.24348 5.09066 8.67262 7.56907 -0.250591 4.05122 25.5758
2706874 4.24348 5.09066 8.67262 7.56907 -0.250591 4.05122 25.5758
2706883 4.32174 5.09066 8.54708 7.47551 -0.297475 3.89828 25.435
2706897 4.28696 5.16538 8.55754 7.48487 -0.190477 3.87731 25.4947
2706903 4.28696 5.16538 8.55754 7.48487 -0.190477 3.87731 25.4947
2706913 4.33043 5.16538 8.51569 7.41937 -0.256944 3.79808 25.4309
2706924 4.33043 5.16538 8.51569 7.41937 -0.256944 3.79808 25.4309
2706933 4.33043 5.13736 8.54708 7.40066 -0.333938 3.8244 25.4155
2706943 4.36522 5.21209 8.47385 7.37259 -0.250143 3.69879 25.4237
2706953 4.36522 5.21209 8.47385 7.37259 -0.250143 3.69879 25.4237
2706963 4.41739 5.26813 8.432 7.38195 -0.195408 3.60503 25.4995
2706973 4.3913 5.20275 8.41108 7.3913 -0.205076 3.66685 25.3964
2706994 4.42609 5.33352 8.44246 7.35388 -0.177209 3.54325 25.5559
2707006 4.42609 5.33352 8.44246 7.35388 -0.177209 3.54325 25.5559
2707014 4.46087 5.25879 8.42154 7.32581 -0.292344 3.55029 25.467
2707028 4.4087 5.28681 8.432 7.41002 -0.14084 3.61028 25.5375
2707033 4.4087 5.28681 8.432 7.41002 -0.14084 3.61028 25.5375
2707044 4.42609 5.34286 8.33785 7.32581 -0.0936419 3.47667 25.4326
2707054 4.48696 5.30549 8.32738 7.36324 -0.14285 3.47182 25.4831
2707064 4.48696 5.30549 8.32738 7.36324 -0.14285 3.47182 25.4831
2707075 4.42609 5.37088 8.35877 7.36324 -0.0497073 3.48273 25.519
2707090 4.42609 5.37088 8.35877 7.36324 -0.0497073 3.48273 25.519
2707096 4.45217 5.31484 8.32738 7.3071 -0.155134 3.46484 25.4015
2707105 4.43478 5.3522 8.34831 7.33517 -0.0939563 3.47255 25.4705
2707125 4.48696 5.38022 8.25415 7.29774 -0.0621051 3.3546 25.4191
2707140 4.53913 5.36154 8.296 7.25096 -0.218713 3.32818 25.4476
2707156 4.49565 5.42692 8.32738 7.28839 -0.105454 3.34391 25.5383
2707166 4.49565 5.42692 8.32738 7.28839 -0.105454 3.34391 25.5383
2707176 4.46087 5.37088 8.31692 7.26968 -0.134979 3.39608 25.4183
2707187 4.51304 5.3522 8.33785 7.33517 -0.160076 3.41122 25.5383
2707208 4.50435 5.36154 8.32738 7.27903 -0.187619 3.38045 25.4723
2707216 4.55652 5.38956 8.32738 7.27903 -0.210661 3.32277 25.5525
2707231 4.55652 5.38956 8.32738 7.27903 -0.210661 3.32277 25.5525
2707238 4.54783 5.38022 8.25415 7.24161 -0.177151 3.28494 25.4238
2707247 4.54783 5.38022 8.25415 7.24161 -0.177151 3.28494 25.4238
2707256 4.51304 5.33352 8.32738 7.23225 -0.270271 3.37304 25.4062
2707266 4.53913 5.3989 8.32738 7.18547 -0.277144 3.28564 25.4509
2707276 4.53913 5.3989 8.32738 7.18547 -0.277144 3.28564 25.4509
2707286 4.50435 5.42692 8.26462 7.25096 -0.089474 3.29175 25.4468
2707300 4.51304 5.30549 8.33785 7.23225 -0.30835 3.39811 25.3886
2707306 4.51304 5.30549 8.33785 7.23225 -0.30835 3.39811 25.3886
2707316 4.46957 5.38956 8.35877 7.26032 -0.175107 3.39111 25.4782
2707327 4.46957 5.38956 8.35877 7.26032 -0.175107 3.39111 25.4782
2707339 4.48696 5.23077 8.31692 7.32581 -0.243783 3.50448 25.3605
2707346 4.49565 5.28681 8.36923 7.31646 -0.256804 3.47683 25.4682
2707356 4.49565 5.28681 8.36923 7.31646 -0.256804 3.47683 25.4682
2707366 4.50435 5.32418 8.37969 7.34452 -0.210683 3.4609 25.5527
2707377 4.51304 5.33352 8.34831 7.33517 -0.188665 3.42944 25.53
2707389 4.51304 5.33352 8.34831 7.33517 -0.188665 3.42944 25.53
2707396 4.49565 5.26813 8.37969 7.32581 -0.276215 3.49934 25.4693
2707412 4.49565 5.26813 8.37969 7.32581 -0.276215 3.49934 25.4693
2707416 4.49565 5.27747 8.42154 7.28839 -0.344671 3.49456 25.4831
2707426 4.48696 5.27747 8.35877 7.3071 -0.256737 3.48095 25.4303
2707447 4.51304 5.24945 8.39015 7.37259 -0.27537 3.52607 25.5252
2707458 4.44348 5.17473 8.37969 7.3913 -0.253198 3.63509 25.3892
2707468 4.44348 5.17473 8.37969 7.3913 -0.253198 3.63509 25.3892
2707479 4.45217 5.15604 8.48431 7.44744 -0.325955 3.7139 25.54
2707488 4.45217 5.15604 8.48431 7.44744 -0.325955 3.7139 25.54
2707502 4.43478 5.18407 8.52615 7.41937 -0.349605 3.7122 25.5644
2707508 4.42609 5.18407 8.45292 7.3913 -0.298218 3.67368 25.4544
2707518 4.42609 5.18407 8.45292 7.3913 -0.298218 3.67368 25.4544
2707528 4.46087 5.23077 8.48431 7.50358 -0.205252 3.67778 25.6795
2707538 4.46087 5.23077 8.48431 7.50358 -0.205252 3.67778 25.6795
2707549 4.36522 5.18407 8.42154 7.4568 -0.143437 3.73357 25.4276
2707558 4.35652 5.19341 8.45292 7.41937 -0.193399 3.73042 25.4222
2707572 4.35652 5.19341 8.45292 7.41937 -0.193399 3.73042 25.4222
2707578 4.41739 5.15604 8.39015 7.38195 -0.265877 3.6685 25.3455
2707588 4.44348 5.24011 8.46338 7.40066 -0.26039 3.62878 25.5476
2707598 4.44348 5.24011 8.46338 7.40066 -0.26039 3.62878 25.5476
2707608 4.46957 5.22143 8.432 7.38195 -0.292286 3.60104 25.5049
2707619 4.46957 5.22143 8.432 7.38195 -0.292286 3.60104 25.5049
2707628 4.4087 5.19341 8.40062 7.37259 -0.239713 3.6479 25.3753
2707641 4.46957 5.19341 8.432 7.34452 -0.357352 3.60476 25.4395
2707664 4.4087 5.27747 8.37969 7.36324 -0.145186 3.57273 25.4291
2707669 4.4087 5.25879 8.36923 7.38195 -0.134929 3.59009 25.4187
2707679 4.4087 5.25879 8.36923 7.38195 -0.134929 3.59009 25.4187
2707689 4.45217 5.23077 8.36923 7.37259 -0.214401 3.57459 25.4248
2707699 4.45217 5.23077 8.36923 7.37259 -0.214401 3.57459 25.4248
2707714 4.46957 5.27747 8.37969 7.35388 -0.213794 3.52417 25.4806
2707723 4.47826 5.27747 8.36923 7.35388 -0.212079 3.51314 25.4788
2707736 4.47826 5.27747 8.36923 7.35388 -0.212079 3.51314 25.4788
2707739 4.43478 5.24011 8.31692 7.26968 -0.239417 3.51031 25.2615
2707751 4.46957 5.31484 8.32738 7.36324 -0.116663 3.47765 25.475
2707759 4.46957 5.31484 8.32738 7.36324 -0.116663 3.47765 25.475
2707769 4.45217 5.30549 8.35877 7.36324 -0.139534 3.51124 25.4797
2707790 4.44348 5.36154 8.33785 7.34452 -0.0738233 3.45898 25.4874
2707803 4.46087 5.33352 8.41108 7.3913 -0.143695 3.52076 25.5968
2707810 4.46087 5.33352 8.41108 7.3913 -0.143695 3.52076 25.5968
2707825 4.45217 5.34286 8.296 7.34452 -0.0597507 3.44724 25.4356
2707830 4.3913 5.26813 8.296 7.36324 -0.0552326 3.55457 25.3187
2707840 4.3913 5.26813 8.296 7.36324 -0.0552326 3.55457 25.3187
2707850 4.46087 5.29615 8.33785 7.32581 -0.173825 3.48533 25.4207
2707859 4.46087 5.29615 8.33785 7.32581 -0.173825 3.48533 25.4207
2707871 4.46087 5.27747 8.26462 7.29774 -0.148481 3.45288 25.3007
2707880 4.51304 5.36154 8.31692 7.26032 -0.204414 3.36085 25.4518
2707895 4.51304 5.36154 8.31692 7.26032 -0.204414 3.36085 25.4518
2707900 4.45217 5.36154 8.31692 7.3071 -0.0987291 3.4262 25.4377
2707910 4.51304 5.32418 8.32738 7.32581 -0.186776 3.42245 25.4904
2707920 4.51304 5.32418 8.32738 7.32581 -0.186776 3.42245 25.4904
2707930 4.50435 5.33352 8.31692 7.35388 -0.131203 3.42998 25.5087
2707940 4.50435 5.33352 8.31692 7.35388 -0.131203 3.42998 25.5087
2707950 4.46087 5.3522 8.30646 7.28839 -0.124712 3.41337 25.4079
2707962 4.52174 5.3989 8.30646 7.27903 -0.147285 3.33147 25.5061
2707970 4.52174 5.3989 8.30646 7.27903 -0.147285 3.33147 25.5061
2707984 4.49565 5.40824 8.296 7.26032 -0.120866 3.33015 25.4602
