1014900	5.18029	5.69163	13.047	10.2782	-1.65033	5.46242	34.1971
1014910	5.18029	5.69163	13.047	10.2782	-1.65033	5.46242	34.1971
1014920	5.14576	5.70099	13.026	10.2503	-1.62681	5.46384	34.123
1014930	5.12849	5.86013	13.0785	10.2782	-1.5058	5.40166	34.3454
1014940	5.12849	5.86013	13.0785	10.2782	-1.5058	5.40166	34.3454
1014950	5.18029	5.7946	13.047	10.2317	-1.60643	5.38795	34.2536
1014961	5.18029	5.7946	13.047	10.2317	-1.60643	5.38795	34.2536
1014970	5.07669	5.67291	13.0155	10.1665	-1.65978	5.49593	33.9315
1014983	5.18029	5.73844	13.026	10.1572	-1.69394	5.39461	34.1019
1014993	5.18029	5.73844	13.026	10.1572	-1.69394	5.39461	34.1019
1015000	5.14576	5.7478	12.9944	10.1665	-1.63408	5.40342	34.0545
1015013	5.15439	5.83205	13.0155	10.1944	-1.56698	5.36173	34.1963
1015020	5.15439	5.83205	13.0155	10.1944	-1.56698	5.36173	34.1963
1015030	5.2062	5.78524	13.0365	10.2596	-1.60252	5.38299	34.2875
1015040	5.2062	5.78524	13.0365	10.2596	-1.60252	5.38299	34.2875
1015050	5.2062	5.7478	13.068	10.2223	-1.68209	5.40368	34.2444
1015060	5.18893	5.71971	13.068	10.2317	-1.68496	5.43334	34.2083
1015070	5.18893	5.71971	13.068	10.2317	-1.68496	5.43334	34.2083
1015083	5.15439	5.77588	12.9629	10.213	-1.56011	5.38567	34.1062
1015090	5.16303	5.76652	13.0575	10.2596	-1.60193	5.42574	34.2466
1015101	5.16303	5.76652	13.0575	10.2596	-1.60193	5.42574	34.2466
1015111	5.17166	5.75716	13.0049	10.2689	-1.57192	5.41406	34.2027
1015121	5.17166	5.75716	13.0049	10.2689	-1.57192	5.41406	34.2027
1015131	5.13713	5.72907	13.026	10.213	-1.62805	5.44175	34.1052
1015141	5.11122	5.78524	13.047	10.2317	-1.56644	5.43474	34.1751
1015161	5.12849	5.71035	13.0155	10.3248	-1.5425	5.48642	34.1791
1015171	5.10259	5.75716	13.026	10.2596	-1.5462	5.45865	34.1453
1015191	5.18029	5.71971	13.0155	10.241	-1.63591	5.42639	34.1564
1015211	5.17166	5.66355	13.026	10.213	-1.70294	5.46035	34.0742
1015221	5.12849	5.71971	13.026	10.2875	-1.57138	5.47336	34.1617
1015233	5.12849	5.71971	13.026	10.2875	-1.57138	5.47336	34.1617
1015242	5.17166	5.73844	13.068	10.2317	-1.65859	5.43248	34.2098
1015253	5.14576	5.71971	12.9839	10.241	-1.59063	5.43823	34.0904
1015264	5.14576	5.71971	12.9839	10.241	-1.59063	5.43823	34.0904
1015273	5.16303	5.72907	13.026	10.3061	-1.5733	5.45228	34.2242
1015283	5.16303	5.72907	13.026	10.3061	-1.5733	5.45228	34.2242
1015300	5.12849	5.70099	13.026	10.2503	-1.61498	5.4742	34.1057
1015311	5.11986	5.69163	13.047	10.3341	-1.56552	5.51417	34.1926
1015312	5.11986	5.69163	13.047	10.3341	-1.56552	5.51417	34.1926
1015322	5.13713	5.77588	12.9944	10.2968	-1.50482	5.42838	34.2043
1015336	5.10259	5.71971	12.9734	10.2782	-1.52469	5.47162	34.0739
1015344	5.10259	5.71971	12.9734	10.2782	-1.52469	5.47162	34.0739
1015354	5.13713	5.71971	12.9839	10.2968	-1.5412	5.45905	34.1376
1015364	5.13713	5.71971	13.0785	10.2968	-1.60604	5.48542	34.2322
1015374	5.06805	5.73844	13.0785	10.3061	-1.53697	5.51817	34.1912
1015384	5.11986	5.78524	13.0996	10.3248	-1.53617	5.47018	34.3294
1015396	5.11986	5.78524	13.0996	10.3248	-1.53617	5.47018	34.3294
1015405	5.14576	5.72907	13.0891	10.2503	-1.64805	5.46462	34.2142
1015415	5.13713	5.71971	13.0575	10.3899	-1.51949	5.50541	34.3043
1015435	5.11986	5.73844	13.068	10.362	-1.52199	5.49971	34.2883
1015447	5.11986	5.61674	13.0891	10.3434	-1.64535	5.57339	34.169
1015455	5.11986	5.61674	13.0891	10.3434	-1.64535	5.57339	34.169
1015465	5.07669	5.71035	13.0155	10.3341	-1.49966	5.5201	34.1366
1015475	5.07669	5.71035	13.0155	10.3341	-1.49966	5.5201	34.1366
1015486	5.09396	5.67291	13.0996	10.3713	-1.56941	5.56579	34.2377
1015496	5.06805	5.71035	13.0575	10.4179	-1.45777	5.5601	34.2538
1015516	5.10259	5.64482	13.047	10.3434	-1.58284	5.55526	34.1378
1015526	5.10259	5.66355	13.0996	10.3806	-1.57535	5.5688	34.2463
1015536	5.10259	5.66355	13.0996	10.3806	-1.57535	5.5688	34.2463
1015546	5.06805	5.73844	13.0365	10.3341	-1.48641	5.51425	34.177
1015556	5.06805	5.73844	13.0365	10.3341	-1.48641	5.51425	34.177
1015567	5.05079	5.59802	12.9629	10.3341	-1.53303	5.58898	33.9458
1015577	5.08532	5.66355	13.0049	10.3434	-1.52751	5.54274	34.0972
1015587	5.08532	5.66355	13.0049	10.3434	-1.52751	5.54274	34.0972
1015597	5.05079	5.67291	13.0365	10.3992	-1.4748	5.58207	34.1594
1015609	5.05942	5.59802	13.026	10.4179	-1.51719	5.6243	34.1013
1015618	5.05942	5.59802	13.026	10.4179	-1.51719	5.6243	34.1013
1015628	5.05942	5.6261	13.1101	10.483	-1.50267	5.64824	34.2786
1015638	5.05942	5.6261	13.1101	10.483	-1.50267	5.64824	34.2786
1015648	5.02489	5.61674	13.1626	10.4737	-1.52946	5.68648	34.278
1015657	5.10259	5.64482	13.1626	10.5016	-1.53928	5.63044	34.4117
1015677	5.06805	5.60738	13.068	10.4365	-1.53031	5.63009	34.1799
1015688	5.09396	5.56993	13.026	10.3806	-1.59184	5.61015	34.0705
1015697	5.09396	5.56993	13.026	10.3806	-1.59184	5.61015	34.0705
1015707	5.08532	5.61674	13.0365	10.4085	-1.53492	5.59768	34.1471
1015719	5.08532	5.61674	13.0365	10.4085	-1.53492	5.59768	34.1471
1015729	5.02489	5.6261	12.9734	10.3899	-1.45694	5.60602	34.0143
1015739	5.05079	5.63546	13.0996	10.5016	-1.46792	5.65001	34.2875
1015759	5.06805	5.66355	13.0785	10.3992	-1.52284	5.5889	34.2094
1015770	5.06805	5.65418	13.0785	10.4272	-1.50845	5.6022	34.2279
1015780	5.06805	5.65418	13.0785	10.4272	-1.50845	5.6022	34.2279
1015790	5.03352	5.61674	13.0785	10.4365	-1.50654	5.64817	34.1653
1015810	5.04215	5.5793	13.0575	10.3899	-1.56334	5.64708	34.0689
1015821	5.06805	5.60738	13.068	10.4272	-1.53753	5.62753	34.1706
1015830	5.06805	5.60738	13.068	10.4272	-1.53753	5.62753	34.1706
1015841	5.10259	5.63546	13.1101	10.362	-1.61883	5.58344	34.2101
1015850	5.05942	5.68227	13.068	10.4737	-1.43763	5.60039	34.2834
1015860	5.05942	5.68227	13.068	10.4737	-1.43763	5.60039	34.2834
1015870	5.11122	5.65418	13.0575	10.4085	-1.53807	5.56534	34.2315
1015880	5.11122	5.65418	13.0575	10.4085	-1.53807	5.56534	34.2315
1015890	5.01625	5.63546	13.0785	10.3992	-1.50903	5.63709	34.1295
1015900	5.08532	5.6261	13.1311	10.3992	-1.59973	5.61547	34.2418
1015910	5.08532	5.6261	13.1311	10.3992	-1.59973	5.61547	34.2418
1015921	5.08532	5.63546	13.0365	10.3992	-1.52761	5.58383	34.1565
1015931	5.04215	5.61674	13.1521	10.4458	-1.55572	5.6656	34.2568
1015941	5.04215	5.61674	13.1521	10.4458	-1.55572	5.6656	34.2568
1015951	5.07669	5.63546	13.1837	10.4085	-1.61521	5.63196	34.3044
1015961	4.99898	5.63546	13.2047	10.4085	-1.57651	5.68453	34.2477
1015971	4.99898	5.48568	13.2047	10.4644	-1.6496	5.79047	34.1538
1015982	5.04215	5.5793	13.1942	10.4551	-1.60629	5.70217	34.2707
1015991	5.04215	5.5793	13.1942	10.4551	-1.60629	5.70217	34.2707
1016001	5.01625	5.47632	13.1521	10.4644	-1.63274	5.77146	34.1091
1016011	5.05079	5.56057	13.1521	10.483	-1.57631	5.70443	34.2465
1016022	5.05079	5.56057	13.1521	10.483	-1.57631	5.70443	34.2465
1016034	5.06805	5.55121	13.1311	10.4179	-1.63171	5.67619	34.1682
1016043	5.06805	5.55121	13.0785	10.4179	-1.5957	5.66183	34.1157
1016053	4.99035	5.50441	13.0785	10.3806	-1.60797	5.72735	33.9539
1016062	5.05079	5.54185	13.1732	10.3806	-1.68501	5.69363	34.1464
1016073	5.05079	5.54185	13.1732	10.3806	-1.68501	5.69363	34.1464
1016083	5.03352	5.51377	13.2468	10.4179	-1.71626	5.75121	34.2119
1016093	5.01625	5.53249	13.1942	10.4458	-1.63224	5.74366	34.1887
1016103	5.01625	5.53249	13.1942	10.4458	-1.63224	5.74366	34.1887
1016114	5.03352	5.53249	13.2468	10.3341	-1.76716	5.71714	34.1468
1016133	5.04215	5.50441	13.2257	10.362	-1.75885	5.73082	34.1343
1016142	5.02489	5.49504	13.2257	10.3527	-1.76173	5.74448	34.0983
1016153	5.02489	5.49504	13.2257	10.3527	-1.76173	5.74448	34.0983
1016163	5.05079	5.55121	13.2783	10.362	-1.76381	5.71148	34.2423
1016173	5.09396	5.55121	13.2257	10.2968	-1.80847	5.65331	34.1677
1016183	5.09396	5.55121	13.2257	10.2968	-1.80847	5.65331	34.1677
1016193	5.05942	5.58866	13.1942	10.3434	-1.69777	5.65566	34.1856
1016203	5.05942	5.58866	13.1942	10.3434	-1.69777	5.65566	34.1856
1016213	5.03352	5.5793	13.2993	10.3154	-1.7808	5.69802	34.2276
1016223	5.08532	5.59802	13.2257	10.4551	-1.64265	5.67342	34.3642
1016243	5.11122	5.61674	13.1416	10.3713	-1.65358	5.60074	34.2409
1016254	5.05079	5.56057	13.1311	10.2782	-1.72183	5.64273	34.0207
1016264	5.05079	5.56057	13.1311	10.2782	-1.72183	5.64273	34.0207
1016274	5.08532	5.60738	13.1101	10.2503	-1.71625	5.57996	34.0531
1016285	5.08532	5.60738	13.1101	10.2503	-1.71625	5.57996	34.0531
1016294	5.10259	5.59802	13.1101	10.3154	-1.68435	5.59319	34.1261
1016304	5.04215	5.53249	13.1416	10.3154	-1.71593	5.67813	34.0317
1016314	5.04215	5.53249	13.1416	10.3154	-1.71593	5.67813	34.0317
1016324	5.05079	5.56993	13.2047	10.3434	-1.71368	5.67507	34.1688
1016334	5.05942	5.53249	13.2257	10.4085	-1.71222	5.71596	34.2262
1016354	5.09396	5.56993	13.2468	10.3899	-1.73529	5.67314	34.3006
1016364	5.09396	5.56993	13.2468	10.3899	-1.73529	5.67314	34.3006
1016374	4.99898	5.53249	13.2257	10.3899	-1.68557	5.74756	34.1471
1016384	5.03352	5.54185	13.2678	10.4458	-1.68689	5.74742	34.2889
1016394	5.03352	5.54185	13.2678	10.4458	-1.68689	5.74742	34.2889
1016404	5.07669	5.49504	13.1416	10.3899	-1.7105	5.70025	34.1033
1016414	5.04215	5.59802	13.1206	10.3806	-1.59932	5.65049	34.1414
1016425	5.04215	5.59802	13.1206	10.3806	-1.59932	5.65049	34.1414
1016434	5.05079	5.56993	13.1206	10.4644	-1.56191	5.68513	34.2057
1016454	5.02489	5.51377	13.068	10.362	-1.63176	5.69261	33.9687
1016464	5.05942	5.60738	13.1311	10.362	-1.62556	5.63217	34.1599
1016484	5.04215	5.63546	13.1416	10.3992	-1.57012	5.63873	34.2185
1016495	5.04215	5.61674	13.0996	10.4458	-1.51969	5.65125	34.2042
1016515	5.05079	5.6261	13.1101	10.4272	-1.54001	5.63818	34.2141
1016535	4.99898	5.56057	13.1101	10.362	-1.60623	5.6914	34.0316
1016545	5.02489	5.60738	13.1416	10.483	-1.5151	5.68895	34.2569
1016555	5.02489	5.60738	13.1416	10.483	-1.5151	5.68895	34.2569
1016565	5.05942	5.6261	13.0891	10.4272	-1.53151	5.62721	34.2017
1016575	5.05079	5.64482	13.0785	10.4365	-1.49663	5.6208	34.2106
1016585	5.05079	5.64482	13.0785	10.4365	-1.49663	5.6208	34.2106
1016605	5.00762	5.58866	13.0785	10.483	-1.47439	5.69355	34.1578
1016606	5.00762	5.58866	13.0785	10.483	-1.47439	5.69355	34.1578
1016616	5.00762	5.6261	13.0996	10.483	-1.45988	5.67662	34.2163
1016626	5.04215	5.71035	13.026	10.4365	-1.40385	5.5721	34.215
1016637	5.04215	5.71035	13.026	10.4365	-1.40385	5.5721	34.215
1016646	5.04215	5.68227	13.0155	10.4644	-1.39671	5.59379	34.2043
1016656	5.03352	5.63546	13.026	10.4551	-1.44139	5.62755	34.1501
1016666	5.03352	5.63546	13.026	10.4551	-1.44139	5.62755	34.1501
1016676	5.04215	5.69163	13.0365	10.4458	-1.41836	5.58882	34.2161
1016696	5.10259	5.68227	13.026	10.4551	-1.45276	5.5578	34.2659
1016706	5.03352	5.69163	13.047	10.4644	-1.40529	5.60202	34.2366
1016716	5.03352	5.69163	13.047	10.4644	-1.40529	5.60202	34.2366
1016726	5.03352	5.71971	13.0155	10.4458	-1.37623	5.57133	34.2145
1016736	5.01625	5.65418	12.9734	10.4272	-1.40024	5.60453	34.071
1016748	5.01625	5.65418	12.9734	10.4272	-1.40024	5.60453	34.071
1016757	5.03352	5.70099	12.8998	10.4551	-1.30337	5.55322	34.0894
1016768	5.03352	5.70099	12.8998	10.4551	-1.30337	5.55322	34.0894
1016779	5.01625	5.69163	12.9419	10.3899	-1.37822	5.56288	34.0397
1016788	5.02489	5.66355	12.9524	10.3992	-1.40606	5.58012	34.04
1016797	5.02489	5.66355	12.9524	10.3992	-1.40606	5.58012	34.04
1016807	5.06805	5.69163	12.9629	10.4179	-1.40703	5.54521	34.1404
1016818	5.05942	5.69163	12.9944	10.4179	-1.42285	5.55913	34.1633
1016828	5.05942	5.71971	12.9944	10.4179	-1.40115	5.54225	34.1914
1016837	5.06805	5.68227	13.0365	10.4365	-1.45062	5.57631	34.2233
1016858	5.06805	5.66355	13.0155	10.4365	-1.45062	5.58178	34.1835
1016869	5.10259	5.65418	13.0049	10.4737	-1.44561	5.574	34.2354
1016878	5.10259	5.65418	13.0049	10.4737	-1.44561	5.574	34.2354
1016887	4.99898	5.69163	12.9419	10.4179	-1.3446	5.58105	34.0503
1016897	5.04215	5.72907	13.0049	10.4179	-1.38926	5.5499	34.194
1016908	5.04215	5.72907	13.0049	10.4179	-1.38926	5.5499	34.194
1016919	5.04215	5.70099	13.0049	10.4737	-1.36784	5.58219	34.2218
1016927	5.04215	5.70099	13.0049	10.4737	-1.36784	5.58219	34.2218
1016938	4.99898	5.61674	13.0365	10.4365	-1.45375	5.65755	34.0887
1016947	5.01625	5.64482	13.068	10.511	-1.40807	5.65912	34.2401
1016958	5.01625	5.64482	13.068	10.511	-1.40807	5.65912	34.2401
1016968	5.06805	5.65418	13.0575	10.5016	-1.43645	5.61686	34.2814
1016978	5.06805	5.65418	13.0575	10.5016	-1.43645	5.61686	34.2814
1016987	5.02489	5.56057	13.026	10.4644	-1.48631	5.68068	34.0758
1016998	4.99898	5.58866	13.047	10.4923	-1.43947	5.69272	34.127
1017009	4.99898	5.58866	13.047	10.4923	-1.43947	5.69272	34.127
1017019	5.05942	5.58866	13.0996	10.4458	-1.55333	5.65779	34.1934
1017029	5.01625	5.54185	13.047	10.4365	-1.53116	5.69541	34.0416
1017039	5.01625	5.54185	13.047	10.4365	-1.53116	5.69541	34.0416
1017049	5.02489	5.59802	13.0996	10.4737	-1.50069	5.68063	34.1962
1017060	5.02489	5.59802	13.0996	10.4737	-1.50069	5.68063	34.1962
1017069	5.01625	5.52313	13.1942	10.4923	-1.6033	5.76193	34.2259
1017080	4.98172	5.49504	13.1626	10.511	-1.56541	5.7965	34.1504
1017089	4.98172	5.49504	13.1626	10.511	-1.56541	5.7965	34.1504
1017099	4.95582	5.48568	13.1837	10.5575	-1.53316	5.83615	34.1827
1017109	5.00762	5.50441	13.1837	10.5761	-1.53972	5.79825	34.2718
1017119	5.00762	5.50441	13.1837	10.5761	-1.53972	5.79825	34.2718
1017130	5.05942	5.53249	13.2047	10.6134	-1.53899	5.76555	34.41
1017139	5.05942	5.53249	13.2047	10.6134	-1.53899	5.76555	34.41
1017149	4.96445	5.46696	13.1732	10.4923	-1.59715	5.82197	34.0969
1017159	4.99035	5.47632	13.1942	10.511	-1.60751	5.81114	34.1718
1017179	5.05079	5.4576	13.2468	10.5761	-1.64851	5.81736	34.3313
1017190	5.00762	5.48568	13.2152	10.483	-1.64816	5.79307	34.1915
1017210	5.00762	5.4576	13.2468	10.483	-1.69158	5.81864	34.195
1017220	5.00762	5.4576	13.2468	10.483	-1.69158	5.81864	34.195
1017230	4.96445	5.42015	13.2152	10.5203	-1.64071	5.86936	34.1201
1017245	4.95582	5.38271	13.3098	10.5482	-1.70686	5.9302	34.1965
1017250	4.95582	5.38271	13.3098	10.5482	-1.70686	5.9302	34.1965
1017260	4.96445	5.40143	13.1837	10.5575	-1.60464	5.88235	34.1071
1017270	4.93855	5.42952	13.2573	10.5203	-1.64446	5.89072	34.1456
1017281	4.93855	5.42952	13.2573	10.5203	-1.64446	5.89072	34.1456
1017291	4.98172	5.4576	13.2152	10.4644	-1.66691	5.82095	34.1189
1017301	4.98172	5.4576	13.2152	10.4644	-1.66691	5.82095	34.1189
1017311	4.98172	5.44824	13.2993	10.4458	-1.74617	5.84424	34.1751
1017321	5.00762	5.49504	13.2888	10.511	-1.66929	5.81465	34.3024
1017331	5.00762	5.49504	13.2888	10.511	-1.66929	5.81465	34.3024
1017342	4.95582	5.50441	13.2678	10.4737	-1.64135	5.82483	34.2017
1017351	5.02489	5.41079	13.2888	10.5203	-1.73942	5.85786	34.2447
1017361	5.02489	5.41079	13.2888	10.5203	-1.73942	5.85786	34.2447
1017371	5.02489	5.43888	13.3203	10.4737	-1.77524	5.83675	34.2578
1017381	5.02489	5.43888	13.3203	10.4737	-1.77524	5.83675	34.2578
1017391	5.04215	5.43888	13.2257	10.4644	-1.72997	5.79836	34.1712
1017403	4.99898	5.48568	13.2468	10.4365	-1.70012	5.79428	34.1679
1017411	4.99898	5.48568	13.2468	10.4365	-1.70012	5.79428	34.1679
1017421	5.01625	5.51377	13.2152	10.4179	-1.68299	5.75316	34.1631
1017431	5.04215	5.54185	13.2257	10.3527	-1.73681	5.70557	34.1624
1017441	5.04215	5.54185	13.2257	10.3527	-1.73681	5.70557	34.1624
1017451	4.99898	5.55121	13.2573	10.3341	-1.73614	5.72959	34.1415
1017461	4.99898	5.55121	13.2573	10.3341	-1.73614	5.72959	34.1415
1017471	5.01625	5.56993	13.1942	10.3527	-1.67567	5.69566	34.1331
1017481	5.07669	5.5793	13.2362	10.3248	-1.76	5.65728	34.217
1017491	5.07669	5.5793	13.2362	10.3248	-1.76	5.65728	34.217
1017503	5.05079	5.61674	13.1942	10.3154	-1.69177	5.63627	34.1772
1017511	5.06805	5.59802	13.1942	10.2875	-1.74002	5.62949	34.1478
1017521	5.06805	5.59802	13.1942	10.2875	-1.74002	5.62949	34.1478
1017531	5.05942	5.5793	13.2573	10.3434	-1.748	5.67852	34.2394
1017553	5.06805	5.56057	13.1416	10.2875	-1.73352	5.6377	34.0578
1017563	5.05079	5.5793	13.1942	10.3527	-1.69193	5.66908	34.177
1017572	5.05079	5.5793	13.1942	10.3527	-1.69193	5.66908	34.177
1017582	5.10259	5.60738	13.1942	10.2782	-1.76348	5.60044	34.1824
1017594	5.05079	5.6261	13.2573	10.2689	-1.76377	5.63514	34.203
1017604	5.05079	5.6261	13.2573	10.2689	-1.76377	5.63514	34.203
1017612	5.11122	5.6261	13.1837	10.3248	-1.71119	5.59388	34.2458
1017623	5.11122	5.6261	13.1837	10.3248	-1.71119	5.59388	34.2458
1017633	5.01625	5.67291	13.0996	10.2875	-1.58131	5.58949	34.0762
1017644	5.08532	5.61674	13.1416	10.241	-1.73776	5.58045	34.0846
1017654	5.08532	5.61674	13.1416	10.241	-1.73776	5.58045	34.0846
1017664	5.09396	5.63546	13.1311	10.241	-1.7218	5.56104	34.1015
1017674	5.09396	5.68227	13.1416	10.213	-1.71419	5.52803	34.1309
1017684	5.09396	5.68227	13.1416	10.213	-1.71419	5.52803	34.1309
1017694	5.07669	5.73844	13.0996	10.2223	-1.62249	5.49555	34.137
1017714	5.07669	5.64482	13.1626	10.213	-1.7461	5.56681	34.0972
1017724	5.13713	5.67291	13.0996	10.2596	-1.68588	5.50896	34.1692
1017734	5.13713	5.67291	13.0996	10.2596	-1.68588	5.50896	34.1692
1017745	5.14576	5.76652	13.1206	10.2689	-1.62596	5.45622	34.3018
1017755	5.11986	5.70099	13.1206	10.2503	-1.67379	5.50573	34.1917
1017765	5.11986	5.70099	13.1206	10.2503	-1.67379	5.50573	34.1917
1017775	5.12849	5.64482	13.1837	10.3061	-1.72285	5.56713	34.2631
1017795	5.12849	5.68227	13.0575	10.2689	-1.63666	5.49942	34.1372
1017805	5.08532	5.71035	13.0575	10.2223	-1.6215	5.49552	34.0755
1017816	5.08532	5.71035	13.0575	10.2223	-1.6215	5.49552	34.0755
1017826	5.13713	5.72907	13.0575	10.2223	-1.64237	5.45319	34.1461
1017841	5.11986	5.7478	13.047	10.3248	-1.52916	5.47794	34.2394
1017846	5.11986	5.7478	13.047	10.3248	-1.52916	5.47794	34.2394
1017858	5.08532	5.71971	13.1206	10.2875	-1.60661	5.52554	34.2131
1017870	5.05079	5.7478	12.9734	10.3061	-1.4454	5.49368	34.0781
1017879	5.05079	5.7478	12.9734	10.3061	-1.4454	5.49368	34.0781
1017891	5.11986	5.68227	13.0365	10.3341	-1.56559	5.51688	34.1727
1017896	5.11986	5.68227	13.0365	10.3341	-1.56559	5.51688	34.1727
1017907	5.04215	5.73844	13.047	10.2689	-1.52642	5.51463	34.0965
1017916	5.11122	5.77588	12.9629	10.2782	-1.47974	5.42982	34.1282
1017926	5.11122	5.77588	12.9629	10.2782	-1.47974	5.42982	34.1282
1017936	5.13713	5.80396	12.9314	10.2875	-1.44687	5.3913	34.16
1017946	5.13713	5.80396	12.9314	10.2875	-1.44687	5.3913	34.16
1017956	5.11986	5.75716	12.9524	10.2968	-1.47852	5.43813	34.1262
1017966	5.09396	5.77588	12.8472	10.3713	-1.31571	5.43384	34.0884
1017977	5.09396	5.77588	12.8472	10.3713	-1.31571	5.43384	34.0884
1017986	5.10259	5.7478	12.8578	10.3248	-1.38675	5.43538	34.0329
1017998	5.11986	5.77588	12.8998	10.3527	-1.38448	5.42785	34.1482
1018006	5.11986	5.77588	12.8998	10.3527	-1.38448	5.42785	34.1482
1018016	5.18029	5.7946	12.8472	10.3899	-1.34676	5.3763	34.2121
1018029	5.18029	5.7946	12.8472	10.3899	-1.34676	5.3763	34.2121
1018038	5.12849	5.7946	12.8683	10.2875	-1.40457	5.38428	34.0789
1018048	5.14576	5.81333	12.9103	10.362	-1.37357	5.39559	34.2314
1018058	5.14576	5.81333	12.9103	10.362	-1.37357	5.39559	34.2314
1018069	5.12849	5.80396	12.8472	10.3248	-1.35394	5.38326	34.1045
1018078	5.13713	5.77588	12.8367	10.2875	-1.40322	5.38142	34.0373
1018088	5.13713	5.77588	12.8367	10.2875	-1.40322	5.38142	34.0373
1018098	5.16303	5.87885	12.8262	10.2968	-1.32707	5.3042	34.1649
1018108	5.16303	5.87885	12.8262	10.2968	-1.32707	5.3042	34.1649
1018117	5.07669	5.83205	12.8052	10.3154	-1.27419	5.38295	34.0294
1018129	5.17166	5.80396	12.8157	10.3341	-1.35481	5.35121	34.1254
1018138	5.17166	5.80396	12.8157	10.3341	-1.35481	5.35121	34.1254
1018148	5.18029	5.80396	12.7737	10.3154	-1.34602	5.32888	34.0734
1018158	5.16303	5.86949	12.7842	10.2968	-1.30511	5.29782	34.1135
1018177	5.2062	5.88822	12.8788	10.3434	-1.35022	5.30112	34.3166
1018188	5.2062	5.88822	12.8788	10.3434	-1.35022	5.30112	34.3166
1018198	5.16303	5.86013	12.7737	10.2782	-1.3194	5.2951	34.075
1018207	5.18893	5.85077	12.8262	10.2782	-1.38104	5.3002	34.1441
1018218	5.18893	5.85077	12.8262	10.2782	-1.38104	5.3002	34.1441
1018230	5.21483	5.90694	12.7842	10.2503	-1.34806	5.23156	34.1562
1018237	5.17166	5.84141	12.8578	10.2782	-1.39814	5.32499	34.149
1018248	5.17166	5.84141	12.8578	10.2782	-1.39814	5.32499	34.149
1018257	5.18029	5.81333	12.8472	10.3154	-1.38977	5.34414	34.1563
1018269	5.18029	5.81333	12.8472	10.3154	-1.38977	5.34414	34.1563
1018279	5.18893	5.87885	12.8367	10.241	-1.39538	5.27592	34.1455
1018289	5.17166	5.85077	12.7211	10.2782	-1.29607	5.28053	34.0217
1018299	5.17166	5.85077	12.7211	10.2782	-1.29607	5.28053	34.0217
1018309	5.18893	5.7946	12.7737	10.2596	-1.40254	5.31343	34.0168
1018319	5.18893	5.7946	12.7737	10.2596	-1.40254	5.31343	34.0168
1018329	5.18029	5.76652	12.7106	10.2317	-1.39624	5.30942	33.889
1018339	5.18893	5.80396	12.7631	10.241	-1.40243	5.29953	33.997
1018349	5.18893	5.80396	12.7631	10.241	-1.40243	5.29953	33.997
1018359	5.18893	5.78524	12.7737	10.2503	-1.41704	5.31637	33.9981
1018369	5.14576	5.86949	12.8367	10.241	-1.37274	5.30716	34.093
1018389	5.17166	5.83205	12.9103	10.3061	-1.42007	5.35331	34.2202
1018399	5.17166	5.83205	12.9103	10.3061	-1.42007	5.35331	34.2202
1018410	5.18029	5.76652	12.9839	10.3806	-1.46969	5.42869	34.3113
1018420	5.18893	5.76652	12.9839	10.3899	-1.46843	5.42615	34.3293
1018430	5.18893	5.76652	12.9839	10.3899	-1.46843	5.42615	34.3293
1018440	5.14576	5.70099	12.9314	10.362	-1.4749	5.46861	34.1401
1018453	5.15439	5.72907	12.9314	10.2782	-1.52412	5.42314	34.093
1018460	5.15439	5.72907	12.9314	10.2782	-1.52412	5.42314	34.093
1018470	5.18029	5.71035	12.8998	10.2689	-1.54206	5.40735	34.0594
1018480	5.18029	5.71035	12.8893	10.2223	-1.57115	5.39125	34.0023
1018490	5.18029	5.71035	12.8893	10.2223	-1.57115	5.39125	34.0023
1018505	5.17166	5.67291	13.0049	10.3154	-1.60124	5.47747	34.165
1018514	5.17166	5.67291	13.0049	10.3154	-1.60124	5.47747	34.165
1018523	5.16303	5.72907	13.0575	10.3341	-1.5732	5.46885	34.2837
1018530	5.14576	5.63546	13.0575	10.3527	-1.61965	5.54042	34.1914
1018541	5.14576	5.63546	13.0575	10.3527	-1.61965	5.54042	34.1914
1018553	5.11122	5.67291	13.0785	10.3527	-1.58129	5.54448	34.2154
1018561	5.07669	5.67291	13.1416	10.3713	-1.58635	5.58774	34.2625
1018571	5.07669	5.67291	13.1416	10.3713	-1.58635	5.58774	34.2625
1018583	5.14576	5.65418	13.1626	10.3527	-1.67676	5.55819	34.3153
1018593	5.14576	5.65418	13.1626	10.3527	-1.67676	5.55819	34.3153
1018603	5.07669	5.63546	13.0785	10.3061	-1.62305	5.57494	34.0968
1018613	5.09396	5.63546	13.0996	10.3713	-1.59849	5.58831	34.2003
1018623	5.09396	5.63546	13.0996	10.3713	-1.59849	5.58831	34.2003
1018633	5.16303	5.5793	13.1311	10.3061	-1.7618	5.57128	34.1796
1018643	5.13713	5.66355	13.0891	10.2875	-1.66421	5.51942	34.1772
1018654	5.13713	5.66355	13.0891	10.2875	-1.66421	5.51942	34.1772
1018663	5.16303	5.70099	13.1732	10.362	-1.65208	5.52534	34.3992
1018673	5.16303	5.70099	13.1732	10.362	-1.65208	5.52534	34.3992
1018683	5.10259	5.65418	13.0575	10.2317	-1.67	5.52154	34.0459
1018693	5.11986	5.71035	13.1311	10.2689	-1.65915	5.5082	34.2302
1018703	5.11986	5.71035	13.1311	10.2689	-1.65915	5.5082	34.2302
1018713	5.08532	5.65418	13.0996	10.2782	-1.65056	5.55654	34.1173
1018723	5.08532	5.65418	13.0996	10.2782	-1.65056	5.55654	34.1173
1018732	5.10259	5.65418	13.0996	10.3061	-1.64057	5.55387	34.1625
1018743	5.14576	5.63546	13.1206	10.2782	-1.72081	5.53726	34.18
1018755	5.14576	5.63546	13.1206	10.2782	-1.72081	5.53726	34.18
1018763	5.10259	5.68227	13.1101	10.2223	-1.69127	5.51666	34.1173
1018773	5.18029	5.67291	13.1311	10.2223	-1.76585	5.4815	34.2067
1018782	5.18029	5.67291	13.1311	10.2223	-1.76585	5.4815	34.2067
1018794	5.16303	5.72907	13.0785	10.2317	-1.66717	5.44617	34.2023
1018804	5.15439	5.65418	13.0575	10.2503	-1.69087	5.49555	34.1164
1018815	5.15439	5.65418	13.0575	10.2503	-1.69087	5.49555	34.1164
1018824	5.22346	5.63546	13.0891	10.2689	-1.75948	5.47932	34.2169
1018834	5.22346	5.63546	13.0891	10.2689	-1.75948	5.47932	34.2169
1018844	5.13713	5.71971	13.1416	10.1758	-1.74344	5.46928	34.1743
1018853	5.14576	5.71035	13.1942	10.2037	-1.7705	5.49211	34.254
1018865	5.14576	5.71035	13.1942	10.2037	-1.7705	5.49211	34.254
1018874	5.18029	5.68227	13.0891	10.2223	-1.72993	5.46417	34.174
1018884	5.13713	5.66355	13.0891	10.2875	-1.66421	5.51942	34.1772
1018894	5.13713	5.66355	13.0891	10.2875	-1.66421	5.51942	34.1772
1018904	5.17166	5.69163	13.026	10.2968	-1.61556	5.46692	34.1861
1018914	5.17166	5.69163	13.026	10.2968	-1.61556	5.46692	34.1861
1018925	5.13713	5.71035	13.0891	10.2223	-1.67854	5.47321	34.1589
1018934	5.14576	5.68227	13.0365	10.3248	-1.59058	5.49875	34.1893
1018944	5.14576	5.68227	13.0365	10.3248	-1.59058	5.49875	34.1893
1018954	5.14576	5.71971	13.0575	10.3341	-1.56865	5.48476	34.257
1018965	5.14576	5.71971	13.0575	10.3341	-1.56865	5.48476	34.257
1018975	5.09396	5.71971	13.0049	10.3341	-1.49705	5.50118	34.1527
1018984	5.11122	5.69163	12.9629	10.3341	-1.50179	5.49597	34.0998
1018996	5.11122	5.69163	12.9629	10.3341	-1.50179	5.49597	34.0998
1019005	5.08532	5.65418	12.8893	10.3434	-1.45492	5.5162	33.9722
1019015	5.11122	5.68227	12.9839	10.3992	-1.47297	5.52555	34.1766
1019035	5.11986	5.71971	12.9629	10.4272	-1.41389	5.49983	34.2296
1019046	5.02489	5.65418	12.9524	10.3806	-1.42778	5.58063	34.0121
1019056	5.02489	5.65418	12.9524	10.3806	-1.42778	5.58063	34.0121
1019069	5.11122	5.66355	13.0155	10.4923	-1.43718	5.57121	34.2826
1019078	5.11122	5.66355	13.0155	10.4923	-1.43718	5.57121	34.2826
1019086	5.01625	5.60738	12.9839	10.5389	-1.35732	5.66641	34.1464
1019096	5.05942	5.65418	13.0049	10.5389	-1.36562	5.61786	34.2574
1019106	5.05942	5.65418	13.0049	10.5389	-1.36562	5.61786	34.2574
1019116	5.05942	5.67291	12.9839	10.5854	-1.30096	5.61359	34.3017
1019126	5.03352	5.60738	12.8788	10.5947	-1.25327	5.64246	34.1144
1019136	5.03352	5.60738	12.8788	10.5947	-1.25327	5.64246	34.1144
1019146	5.08532	5.63546	12.9314	10.5761	-1.31842	5.60357	34.2283
1019164	5.08532	5.63546	12.9314	10.5761	-1.31842	5.60357	34.2283
1019167	5.01625	5.6261	12.8683	10.5482	-1.25535	5.62591	34.0588
1019179	5.07669	5.61674	12.8683	10.5575	-1.29745	5.59759	34.1192
1019188	5.07669	5.61674	12.8683	10.5575	-1.29745	5.59759	34.1192
1019199	5.05942	5.58866	12.8472	10.6506	-1.2208	5.64479	34.1459
1019209	4.99898	5.56057	12.9629	10.6878	-1.25216	5.74002	34.2103
1019229	4.98172	5.54185	12.9839	10.6878	-1.26914	5.76754	34.1953
1019239	5.00762	5.54185	12.9524	10.6785	-1.27238	5.74077	34.1804
1019249	5.00762	5.54185	12.9524	10.6785	-1.27238	5.74077	34.1804
1019259	5.06805	5.55121	12.9734	10.6506	-1.34308	5.69663	34.2433
1019269	5.06805	5.55121	12.9734	10.6506	-1.34308	5.69663	34.2433
1019281	5.08532	5.56057	12.8788	10.6227	-1.30381	5.6471	34.1474
1019290	5.04215	5.53249	12.9524	10.5668	-1.38972	5.69511	34.0938
1019300	5.04215	5.53249	12.9524	10.5668	-1.38972	5.69511	34.0938
1019310	5.03352	5.46696	12.8578	10.5947	-1.34714	5.72204	33.953
1019320	5.02489	5.52313	12.9629	10.6506	-1.32756	5.73693	34.1615
1019330	5.02489	5.52313	12.9629	10.6506	-1.32756	5.73693	34.1615
1019340	5.05942	5.54185	12.9944	10.632	-1.37317	5.70816	34.2277
1019350	5.05942	5.54185	12.9944	10.632	-1.37317	5.70816	34.2277
1019360	4.98172	5.46696	12.9944	10.6692	-1.34846	5.81094	34.1123
1019370	5.04215	5.54185	13.026	10.5761	-1.42613	5.71201	34.1861
1019390	5.04215	5.55121	13.0049	10.6134	-1.37565	5.71074	34.2117
1019410	5.01625	5.52313	13.0785	10.6134	-1.4302	5.76338	34.2313
1019420	5.05942	5.53249	13.0785	10.5761	-1.48143	5.72149	34.2466
1019441	5.02489	5.51377	13.0365	10.5389	-1.47206	5.73227	34.114
1019452	5.05942	5.53249	13.0575	10.5203	-1.51024	5.70061	34.1697
1019461	5.05942	5.53249	13.0575	10.5203	-1.51024	5.70061	34.1697
1019471	5.01625	5.5793	13.026	10.5203	-1.4225	5.68981	34.1418
1019482	5.03352	5.53249	13.1311	10.5296	-1.53576	5.7388	34.2267
1019502	5.05942	5.52313	13.1101	10.5016	-1.56805	5.71551	34.1943
1019512	5.05942	5.52313	13.1101	10.5016	-1.56805	5.71551	34.1943
1019523	5.01625	5.58866	13.0785	10.4272	-1.5237	5.67307	34.1106
1019534	5.09396	5.52313	13.1206	10.4179	-1.66413	5.67464	34.1555
1019544	5.09396	5.52313	13.1206	10.4179	-1.66413	5.67464	34.1555
1019554	5.05079	5.60738	13.0575	10.483	-1.47513	5.65038	34.1987
1019564	5.02489	5.55121	13.1416	10.3713	-1.64568	5.69252	34.089
1019574	5.02489	5.55121	13.1416	10.3713	-1.64568	5.69252	34.089
1019584	5.08532	5.61674	13.0575	10.3434	-1.6001	5.58551	34.103
1019604	5.08532	5.54185	13.1206	10.3899	-1.66542	5.6609	34.1377
1019614	5.13713	5.63546	13.0996	10.3527	-1.64248	5.55722	34.2248
1019624	5.13713	5.63546	13.0996	10.3527	-1.64248	5.55722	34.2248
1019634	5.11986	5.60738	13.1837	10.3434	-1.71714	5.60505	34.2543
1019644	5.19756	5.63546	13.1206	10.3341	-1.71244	5.52165	34.2877
1019654	5.19756	5.63546	13.1206	10.3341	-1.71244	5.52165	34.2877
1019664	5.15439	5.63546	13.1521	10.2968	-1.73359	5.54594	34.2388
1019674	5.15439	5.63546	13.1521	10.2968	-1.73359	5.54594	34.2388
1019684	5.14576	5.60738	13.1521	10.2223	-1.80805	5.54742	34.1276
1019694	5.12849	5.65418	13.2152	10.1758	-1.83893	5.53423	34.1737
1019705	5.12849	5.65418	13.2152	10.1758	-1.83893	5.53423	34.1737
1019715	5.16303	5.69163	13.1416	10.2503	-1.7248	5.49131	34.2466
1019725	5.14576	5.71035	13.1626	10.241	-1.72002	5.4937	34.2597
1019735	5.14576	5.71035	13.1626	10.241	-1.72002	5.4937	34.2597
1019745	5.14576	5.75716	13.1732	10.213	-1.71244	5.46089	34.2891
1019755	5.14576	5.75716	13.1732	10.213	-1.71244	5.46089	34.2891
1019766	5.15439	5.72907	13.1626	10.1572	-1.77672	5.45402	34.2033
1019775	5.11986	5.71035	13.1521	10.1851	-1.73889	5.49076	34.1674
1019804	5.18029	5.77588	13.068	10.1665	-1.6861	5.3867	34.1907
1019808	5.15439	5.7946	13.0785	10.1572	-1.66826	5.39132	34.1847
1019815	5.15439	5.7946	13.0785	10.1572	-1.66826	5.39132	34.1847
1019825	5.13713	5.7946	13.1416	10.1013	-1.74312	5.40366	34.1747
1019835	5.13713	5.7946	13.1416	10.1013	-1.74312	5.40366	34.1747
1019845	5.17166	5.75716	13.047	10.1292	-1.70961	5.38663	34.1051
1019855	5.22346	5.76652	13.0575	10.1292	-1.74477	5.3531	34.1767
1019866	5.22346	5.76652	13.0575	10.1292	-1.74477	5.3531	34.1767
1019876	5.17166	5.82269	12.9629	10.1106	-1.61534	5.31843	34.0679
1019886	5.19756	5.88822	12.9629	10.1292	-1.56753	5.26935	34.1779
1019908	5.22346	5.88822	12.9419	10.0827	-1.60711	5.23471	34.1362
1019926	5.17166	5.87885	13.026	10.0641	-1.65105	5.28969	34.1406
1019936	5.19756	5.86949	12.9629	10.092	-1.6111	5.26985	34.122
1019946	5.19756	5.86949	12.9629	10.092	-1.6111	5.26985	34.122
1019956	5.2321	5.93502	12.8788	10.0734	-1.54054	5.18111	34.1193
1019966	5.19756	5.86949	12.9208	10.1013	-1.57498	5.26051	34.0892
1019980	5.19756	5.86949	12.9208	10.1013	-1.57498	5.26051	34.0892
1019986	5.2321	6.02863	12.8998	10.0734	-1.48237	5.13195	34.2339
1019996	5.2321	6.02863	12.8998	10.0734	-1.48237	5.13195	34.2339
1020006	5.258	6.01927	12.9208	10.1199	-1.48583	5.14168	34.318
1020016	5.3098	6.06608	12.8788	10.0734	-1.49231	5.05838	34.3281
1020029	5.3098	6.06608	12.8788	10.0734	-1.49231	5.05838	34.3281
1020038	5.26663	5.97247	12.8262	10.1013	-1.47737	5.13151	34.1666
1020048	5.2321	5.97247	12.7526	10.0268	-1.46056	5.10897	33.984
1020058	5.2321	5.97247	12.7526	10.0268	-1.46056	5.10897	33.984
1020069	5.29253	5.93502	12.7526	9.96167	-1.58247	5.07636	33.9418
1020079	5.24073	5.93502	12.7737	9.97097	-1.55393	5.1159	33.9204
1020089	5.24073	5.97247	12.7737	9.97097	-1.52465	5.09371	33.9578
1020099	5.24937	5.98183	12.7631	10.0455	-1.45802	5.10171	34.0398
1020109	5.24937	5.98183	12.7631	10.0455	-1.45802	5.10171	34.0398
1020121	5.27527	5.95374	12.7631	10.0175	-1.51952	5.09487	34.0097
1020129	5.29253	5.98183	12.8052	10.092	-1.48069	5.10198	34.1716
1020139	5.29253	5.98183	12.8052	10.092	-1.48069	5.10198	34.1716
1020160	5.24073	6.02863	12.8683	10.092	-1.45222	5.12315	34.2296
1020170	5.24073	6.02863	12.8683	10.092	-1.45222	5.12315	34.2296
1020180	5.2839	5.99119	12.7947	9.97097	-1.55433	5.0633	34.0407
1020191	5.2839	5.99119	12.7947	9.97097	-1.55433	5.0633	34.0407
1020201	5.30117	5.95374	12.8683	10.0175	-1.60964	5.11013	34.1407
1020211	5.2839	5.98183	12.8893	9.98959	-1.6121	5.10175	34.1446
1020231	5.27527	5.99119	12.8472	9.88719	-1.65006	5.05927	34.0009
1020241	5.29253	5.96311	12.7842	10.0361	-1.52413	5.09069	34.076
1020251	5.29253	5.96311	12.7842	10.0361	-1.52413	5.09069	34.076
1020262	5.30117	5.98183	12.8262	9.93373	-1.62429	5.05698	34.043
1020271	5.30117	5.98183	12.8262	9.93373	-1.62429	5.05698	34.043
1020281	5.30117	6.00055	12.8157	9.91512	-1.61699	5.03743	34.0325
1020291	5.30117	6.01927	12.8262	9.96167	-1.57326	5.0431	34.1083
1020301	5.30117	6.01927	12.8262	9.96167	-1.57326	5.0431	34.1083
1020311	5.3616	6.038	12.7737	9.93373	-1.58584	4.97308	34.107
1020321	5.34434	6.038	12.8367	10.0175	-1.55211	5.02617	34.2366
1020332	5.34434	6.038	12.8367	10.0175	-1.55211	5.02617	34.2366
1020341	5.40477	6.02863	12.7737	9.89649	-1.65181	4.94233	34.1036
1020363	5.35297	6.0848	12.7211	9.91512	-1.52179	4.92976	34.074
1020373	5.37024	6.07544	12.7211	9.89649	-1.55548	4.91963	34.0633
1020384	5.37024	6.07544	12.7211	9.89649	-1.55548	4.91963	34.0633
1020394	5.38751	6.0848	12.6685	9.89649	-1.52387	4.88847	34.0373
1020404	5.37887	6.14097	12.658	10.0082	-1.38046	4.89076	34.1861
1020431	5.3357	6.2065	12.616	9.89649	-1.35713	4.83205	34.0547
1020440	5.37024	6.18778	12.5949	9.82202	-1.43884	4.79423	33.975
1020450	5.37024	6.18778	12.5949	9.82202	-1.43884	4.79423	33.975
1020455	5.42204	6.31883	12.5424	9.81271	-1.3439	4.66956	34.0959
1020465	5.42204	6.31883	12.5424	9.81271	-1.3439	4.66956	34.0959
1020475	5.42204	6.30947	12.4057	9.75685	-1.29921	4.61631	33.894
1020489	5.43931	6.36564	12.4688	9.83133	-1.2543	4.61595	34.105
1020495	5.43931	6.36564	12.4688	9.83133	-1.2543	4.61595	34.105
1020505	5.45658	6.39372	12.5003	9.76616	-1.31681	4.57964	34.1168
1020516	5.40477	6.38436	12.4583	9.78478	-1.24433	4.60765	34.0322
1020525	5.40477	6.38436	12.4583	9.78478	-1.24433	4.60765	34.0322
1020535	5.45658	6.44989	12.4898	9.79409	-1.2448	4.55278	34.1903
1020546	5.45658	6.44989	12.4898	9.79409	-1.2448	4.55278	34.1903
1020555	5.41341	6.36564	12.4477	9.74754	-1.28625	4.59887	33.9743
1020565	5.45658	6.47797	12.5108	9.8034	-1.23072	4.546	34.2488
1020575	5.45658	6.47797	12.5108	9.8034	-1.23072	4.546	34.2488
1020585	5.43068	6.45925	12.4372	9.78478	-1.19011	4.54331	34.1119
1020595	5.40477	6.41245	12.5003	9.75685	-1.27353	4.5958	34.0744
1020605	5.40477	6.41245	12.5003	9.75685	-1.27353	4.5958	34.0744
1020616	5.43068	6.44053	12.4898	9.81271	-1.21968	4.57865	34.1737
1020625	5.43068	6.44053	12.4898	9.81271	-1.21968	4.57865	34.1737
1020635	5.42204	6.31883	12.4793	9.71961	-1.3722	4.62202	33.9398
1020646	5.42204	6.40308	12.4372	9.74754	-1.25599	4.5691	34.0099
1020656	5.42204	6.40308	12.4372	9.74754	-1.25599	4.5691	34.0099
1020666	5.41341	6.39372	12.4583	9.76616	-1.2575	4.5916	34.0315
1020676	5.43931	6.40308	12.4688	9.75685	-1.28284	4.57169	34.068
1020696	5.39614	6.375	12.5108	9.75685	-1.30375	4.62554	34.0388
1020706	5.39614	6.375	12.5108	9.75685	-1.30375	4.62554	34.0388
1020718	5.47384	6.35628	12.4477	9.76616	-1.3212	4.57515	34.044
1020729	5.42204	6.38436	12.4898	9.8034	-1.26401	4.61301	34.0996
1020738	5.42204	6.38436	12.4898	9.8034	-1.26401	4.61301	34.0996
1020747	5.40477	6.43117	12.4267	9.77547	-1.19341	4.56822	34.0381
1020758	5.43068	6.43117	12.4898	9.8034	-1.23401	4.58118	34.155
1020769	5.43068	6.43117	12.4898	9.8034	-1.23401	4.58118	34.155
1020777	5.49111	6.35628	12.4793	9.82202	-1.31198	4.59194	34.1487
1020790	5.49111	6.35628	12.4793	9.82202	-1.31198	4.59194	34.1487
1020797	5.44794	6.40308	12.4688	9.75685	-1.28885	4.56673	34.0766
1020810	5.43068	6.39372	12.5108	9.8034	-1.27742	4.60907	34.1386
1020818	5.43068	6.39372	12.5108	9.8034	-1.27742	4.60907	34.1386
1020830	5.44794	6.41245	12.4477	9.75685	-1.26699	4.55491	34.065
1020838	5.44794	6.41245	12.4372	9.75685	-1.25966	4.55169	34.0545
1020850	5.46521	6.40308	12.4372	9.74754	-1.2861	4.54429	34.0531
1020858	5.46521	6.46861	12.5108	9.72892	-1.30108	4.52363	34.1736
1020867	5.46521	6.46861	12.5108	9.72892	-1.30108	4.52363	34.1736
1020877	5.49111	6.44053	12.4372	9.74754	-1.27525	4.508	34.1164
1020887	5.42204	6.40308	12.3952	9.77547	-1.20505	4.56477	33.9958
1020897	5.42204	6.40308	12.3952	9.77547	-1.20505	4.56477	33.9958
1020909	5.43931	6.44989	12.4583	9.7103	-1.27532	4.52732	34.0578
1020919	5.40477	6.40308	12.4793	9.67306	-1.33091	4.56909	33.9602
1020929	5.40477	6.40308	12.4793	9.67306	-1.33091	4.56909	33.9602
1020939	5.43931	6.45925	12.4162	9.71961	-1.23159	4.51187	34.0344
1020949	5.43931	6.45925	12.4162	9.71961	-1.23159	4.51187	34.0344
1020960	5.42204	6.43117	12.5213	9.65444	-1.36485	4.55019	34.029
1020969	5.39614	6.38436	12.4688	9.66375	-1.33931	4.57878	33.913
1020979	5.39614	6.38436	12.4688	9.66375	-1.33931	4.57878	33.913
1020989	5.49111	6.44989	12.4477	9.64513	-1.35441	4.47431	34.0339
1021000	5.41341	6.41245	12.5003	9.65444	-1.35874	4.55947	33.9806
1021009	5.41341	6.41245	12.5003	9.65444	-1.35874	4.55947	33.9806
1021019	5.46521	6.40308	12.4898	9.73823	-1.32983	4.55756	34.0963
1021029	5.46521	6.40308	12.4898	9.73823	-1.32983	4.55756	34.0963
1021039	5.46521	6.35628	12.5844	9.74754	-1.42432	4.61614	34.1534
1021049	5.43931	6.35628	12.616	9.7103	-1.45705	4.62929	34.1218
1021059	5.43931	6.35628	12.616	9.7103	-1.45705	4.62929	34.1218
1021070	5.49111	6.38436	12.6265	9.75685	-1.44224	4.60079	34.2588
1021089	5.49111	6.38436	12.6265	9.75685	-1.44224	4.60079	34.2588
1021090	5.38751	6.31883	12.5844	9.70099	-1.43572	4.66837	33.9917
1021102	5.44794	6.32819	12.5318	9.67306	-1.45562	4.6035	33.981
1021120	5.42204	6.30011	12.5634	9.70099	-1.45965	4.65282	33.9865
1021130	5.43931	6.28139	12.5949	9.75685	-1.46453	4.6802	34.0725
1021144	5.43931	6.28139	12.5949	9.75685	-1.46453	4.6802	34.0725
1021151	5.43931	6.30011	12.637	9.71961	-1.50793	4.67085	34.096
1021165	5.40477	6.23458	12.637	9.70099	-1.5497	4.72313	33.9773
1021171	5.40477	6.23458	12.637	9.70099	-1.5497	4.72313	33.9773
1021181	5.37024	6.24394	12.6895	9.76616	-1.50403	4.77321	34.0699
1021191	5.37024	6.24394	12.6895	9.76616	-1.50403	4.77321	34.0699
1021204	5.32707	6.16905	12.7421	9.75685	-1.57617	4.85489	33.9951
1021211	5.38751	6.15969	12.8052	9.81271	-1.62469	4.86053	34.1651
1021223	5.38751	6.15969	12.8052	9.81271	-1.62469	4.86053	34.1651
1021236	5.3616	6.15969	12.7316	9.83133	-1.54191	4.85927	34.0842
1021247	5.38751	6.10352	12.7631	9.81271	-1.63973	4.88076	34.0669
1021251	5.38751	6.10352	12.7631	9.81271	-1.63973	4.88076	34.0669
1021275	5.39614	6.06608	12.9103	9.88719	-1.71718	4.96295	34.2597
1021292	5.38751	6.04736	12.8472	9.85925	-1.70478	4.95219	34.1414
1021294	5.3357	6.06608	12.9314	9.94304	-1.64687	5.02066	34.2762
1021312	5.3357	6.06608	12.9314	9.94304	-1.64687	5.02066	34.2762
1021314	5.32707	6.09416	12.8998	9.88719	-1.64108	4.98378	34.2082
1021350	5.2839	6.01927	12.8472	9.85925	-1.65586	5.02945	34.0097
1021351	5.2839	6.01927	12.8472	9.85925	-1.65586	5.02945	34.0097
1021354	5.29253	6.01927	12.8788	9.86857	-1.67612	5.03633	34.0592
1021414	5.2839	5.99119	12.9103	9.88719	-1.6992	5.07259	34.0726
1021415	5.30117	6.00055	12.9314	9.94304	-1.67436	5.07928	34.1761
1021480	5.32707	5.96311	12.9839	9.91512	-1.7789	5.09321	34.1892
1021481	5.258	5.9163	12.9734	10.0082	-1.6885	5.18533	34.1559
1021541	5.19756	5.9163	12.9524	10.0455	-1.6037	5.22576	34.1117
1021543	5.19756	5.9163	12.9524	10.0455	-1.6037	5.22576	34.1117
1021605	5.2062	5.80396	13.047	10.0268	-1.77678	5.30909	34.084
1021608	5.17166	5.77588	13.0891	10.092	-1.7528	5.3768	34.1286
1021609	5.13713	5.77588	13.1416	10.1665	-1.70683	5.43309	34.2211
1021669	5.12849	5.71035	13.1732	10.1851	-1.75906	5.49144	34.1971
1021670	5.12849	5.71035	13.1732	10.1851	-1.75906	5.49144	34.1971
1021733	5.12849	5.78524	13.1837	10.2596	-1.64984	5.47029	34.357
1021734	5.12849	5.78524	13.1837	10.2596	-1.64984	5.47029	34.357
1021796	5.17166	5.7478	13.2047	10.3061	-1.68633	5.4856	34.4303
1021797	5.15439	5.72907	13.1416	10.241	-1.69699	5.4715	34.2661
1021860	5.13713	5.67291	13.047	10.2223	-1.67908	5.48395	34.0794
1021861	5.11122	5.71035	13.047	10.2503	-1.61025	5.48481	34.1189
1021863	5.07669	5.65418	13.1311	10.2503	-1.68806	5.56274	34.1123
1021924	5.08532	5.65418	13.1101	10.3713	-1.58523	5.58513	34.2209
1021925	5.08532	5.65418	13.1101	10.3713	-1.58523	5.58513	34.2209
1021988	5.04215	5.52313	13.1311	10.4085	-1.64316	5.70637	34.1049
1021989	5.06805	5.5793	13.1732	10.3899	-1.66031	5.66307	34.2104
1022051	4.93855	5.43888	13.1626	10.5761	-1.52874	5.87463	34.1162
1022053	4.93855	5.43888	13.1626	10.5761	-1.52874	5.87463	34.1162
1022115	4.94718	5.29846	13.2468	10.6227	-1.66554	5.99022	34.1151
1022117	4.98172	5.29846	13.2678	10.5947	-1.72533	5.96717	34.1427
1022118	4.90401	5.36399	13.3519	10.6041	-1.67124	5.99928	34.2239
1022179	4.93855	5.29846	13.2888	10.6041	-1.70294	6.00172	34.1299
1022180	4.94718	5.30782	13.2257	10.5761	-1.68025	5.96657	34.0569
1022243	4.97308	5.36399	13.2047	10.5296	-1.67606	5.89815	34.0713
1022244	5.02489	5.42015	13.2362	10.5016	-1.71089	5.83311	34.1829
1022306	4.98172	5.46696	13.2152	10.4737	-1.65232	5.81774	34.1376
1022308	5.01625	5.51377	13.1626	10.4272	-1.63979	5.74144	34.1198
1022313	5.00762	5.49504	13.1206	10.4085	-1.63423	5.7416	34.0318
1022370	5.00762	5.49504	13.1206	10.4085	-1.63423	5.7416	34.0318
1022372	5.02489	5.58866	13.2362	10.4179	-1.64486	5.70825	34.2676
1022380	5.01625	5.54185	13.1837	10.3713	-1.67588	5.71491	34.1131
1022390	5.05079	5.58866	13.1732	10.4085	-1.62673	5.67292	34.2211
1022400	5.05079	5.58866	13.1732	10.4085	-1.62673	5.67292	34.2211
1022410	5.08532	5.50441	13.1942	10.4085	-1.73032	5.70872	34.1925
1022420	5.03352	5.53249	13.1206	10.4272	-1.60819	5.70814	34.1138
1022431	5.03352	5.53249	13.1206	10.4272	-1.60819	5.70814	34.1138
1022440	5.05079	5.55121	13.2047	10.4272	-1.66291	5.7092	34.2339
1022450	5.05079	5.55121	13.2047	10.4272	-1.66291	5.7092	34.2339
1022460	5.04215	5.52313	13.1837	10.3713	-1.70822	5.71055	34.1203
1022470	5.06805	5.50441	13.1942	10.3248	-1.78424	5.69637	34.0914
1022481	5.06805	5.50441	13.1942	10.3248	-1.78424	5.69637	34.0914
1022491	5.10259	5.59802	13.1942	10.362	-1.70533	5.62906	34.2568
1022501	5.05942	5.54185	13.1416	10.3527	-1.69121	5.67216	34.0956
1022511	5.05942	5.54185	13.1416	10.3527	-1.69121	5.67216	34.0956
1022521	5.09396	5.61674	13.2257	10.362	-1.70631	5.63161	34.2984
1022534	5.09396	5.61674	13.2257	10.362	-1.70631	5.63161	34.2984
1022544	5.04215	5.48568	13.2573	10.3527	-1.8023	5.74823	34.1378
1022551	5.11122	5.59802	13.2678	10.3527	-1.76837	5.64142	34.3297
1022561	5.11122	5.59802	13.2678	10.3527	-1.76837	5.64142	34.3297
1022571	5.02489	5.59802	13.0996	10.3341	-1.60936	5.64241	34.0565
1022581	5.02489	5.59802	13.1732	10.3341	-1.6598	5.66259	34.1301
1022591	5.01625	5.54185	13.1732	10.3806	-1.66141	5.71458	34.1119
1022601	5.03352	5.53249	13.1837	10.3806	-1.68772	5.71264	34.1303
1022621	5.03352	5.52313	13.0996	10.3434	-1.66663	5.6852	33.9996
1022631	5.01625	5.53249	13.2468	10.3248	-1.76271	5.72509	34.1202
1022644	5.01625	5.53249	13.2468	10.3248	-1.76271	5.72509	34.1202
1022653	5.04215	5.60738	13.2152	10.3527	-1.67846	5.66306	34.2174
1022663	5.07669	5.59802	13.1206	10.4179	-1.59399	5.63982	34.2132
1022672	5.07669	5.59802	13.1206	10.4179	-1.59399	5.63982	34.2132
1022683	5.05079	5.59802	13.1837	10.362	-1.66288	5.65743	34.1945
1022692	5.05079	5.59802	13.1837	10.362	-1.66288	5.65743	34.1945
1022703	5.01625	5.52313	13.1626	10.362	-1.68343	5.71803	34.064
1022713	5.06805	5.58866	13.2257	10.4179	-1.66709	5.67934	34.3003
1022723	5.06805	5.58866	13.2257	10.4179	-1.66709	5.67934	34.3003
1022732	5.08532	5.61674	13.1837	10.362	-1.67184	5.62531	34.2477
1022742	5.08532	5.61674	13.1837	10.362	-1.67184	5.62531	34.2477
1022756	5.03352	5.58866	13.1732	10.4551	-1.57876	5.69602	34.2504
1022762	5.05079	5.6261	13.1101	10.3899	-1.56893	5.62798	34.1769
1022782	5.05942	5.58866	13.0891	10.3806	-1.59683	5.63706	34.1177
1022792	5.05079	5.61674	13.1311	10.4272	-1.56168	5.64957	34.2258
1022804	5.05079	5.61674	13.1311	10.4272	-1.56168	5.64957	34.2258
1022816	5.06805	5.58866	13.1311	10.4272	-1.59531	5.6561	34.215
1022824	5.04215	5.56057	13.1626	10.4179	-1.62827	5.6948	34.1832
1022834	5.04215	5.56057	13.1626	10.4179	-1.62827	5.6948	34.1832
1022846	5.06805	5.60738	13.1101	10.3992	-1.58808	5.63141	34.1847
1022854	5.06805	5.60738	13.1101	10.3992	-1.58808	5.63141	34.1847
1022864	5.10259	5.53249	13.1942	10.4272	-1.70561	5.68635	34.2564
1022875	5.03352	5.6261	13.0996	10.3992	-1.54263	5.63807	34.1584
1022884	5.03352	5.6261	13.0996	10.3992	-1.54263	5.63807	34.1584
1022894	5.03352	5.5793	13.1311	10.4551	-1.55724	5.69024	34.199
1022905	5.05079	5.58866	13.0365	10.3806	-1.55477	5.62784	34.0565
1022914	5.05079	5.58866	13.0365	10.3806	-1.55477	5.62784	34.0565
1022924	5.05942	5.58866	13.1311	10.3899	-1.61838	5.65114	34.1691
1022935	5.05942	5.58866	13.1311	10.3899	-1.61838	5.65114	34.1691
1022951	5.03352	5.59802	13.0785	10.4272	-1.5283	5.65694	34.1372
1022955	5.09396	5.56993	12.9734	10.3992	-1.54113	5.60079	34.0365
1022979	5.04215	5.60738	13.1101	10.4365	-1.54139	5.65724	34.1961
1022985	4.99898	5.56057	13.0891	10.4272	-1.54091	5.70346	34.0758
1022996	4.99898	5.56057	13.0891	10.4272	-1.54091	5.70346	34.0758
1023008	5.05079	5.61674	13.1626	10.4737	-1.54718	5.67086	34.3039
1023019	5.05079	5.61674	13.1626	10.4737	-1.54718	5.67086	34.3039
1023026	4.99898	5.52313	13.1521	10.3899	-1.64254	5.73327	34.0642
1023037	5.03352	5.53249	13.1732	10.4551	-1.62242	5.73002	34.1943
1023050	5.03352	5.53249	13.1732	10.4551	-1.62242	5.73002	34.1943
1023060	5.01625	5.50441	13.1942	10.4272	-1.66867	5.75568	34.142
1023067	5.03352	5.50441	13.2152	10.4458	-1.68028	5.75591	34.1989
1023087	5.01625	5.52313	13.068	10.4365	-1.56025	5.71253	34.0439
1023097	4.98172	5.51377	13.0785	10.4458	-1.54374	5.74467	34.0198
1023108	4.98172	5.51377	13.0785	10.4458	-1.54374	5.74467	34.0198
1023118	5.02489	5.50441	13.2047	10.4737	-1.64544	5.76586	34.2077
1023129	5.02489	5.50441	13.2047	10.4737	-1.64544	5.76586	34.2077
1023137	5.03352	5.51377	13.1416	10.4737	-1.60092	5.73787	34.1626
1023151	5.01625	5.51377	13.1837	10.4737	-1.61788	5.75974	34.1874
1023171	5.04215	5.56057	13.1521	10.4365	-1.60658	5.69701	34.1913
1023179	5.00762	5.47632	13.1626	10.4737	-1.62677	5.78208	34.1203
1023192	5.00762	5.47632	13.1626	10.4737	-1.62677	5.78208	34.1203
1023199	5.00762	5.54185	13.2152	10.483	-1.60446	5.75897	34.2477
1023209	5.00762	5.54185	13.2152	10.483	-1.60446	5.75897	34.2477
1023219	4.98172	5.47632	13.2047	10.483	-1.63056	5.81171	34.1458
1023229	5.04215	5.52313	13.2152	10.4644	-1.65706	5.74436	34.2449
1023239	5.04215	5.52313	13.2152	10.4644	-1.65706	5.74436	34.2449
1023249	5.00762	5.51377	13.2783	10.4737	-1.67654	5.79048	34.2734
1023259	4.99898	5.51377	13.2993	10.5203	-1.64879	5.81383	34.3323
1023272	4.99898	5.48568	13.2993	10.5203	-1.67061	5.83087	34.3042
1023280	4.98172	5.4576	13.2888	10.4737	-1.70986	5.8432	34.2018
1023293	4.98172	5.4576	13.2888	10.4737	-1.70986	5.8432	34.2018
1023300	5.03352	5.49504	13.1942	10.4644	-1.65871	5.76095	34.1872
1023313	5.07669	5.54185	13.1521	10.4458	-1.63751	5.68997	34.2165
1023333	5.04215	5.4576	13.1521	10.4272	-1.69424	5.757	34.079
1023340	5.00762	5.51377	13.1521	10.4085	-1.64122	5.73878	34.0821
1023354	5.00762	5.51377	13.1521	10.4085	-1.64122	5.73878	34.0821
1023361	5.04215	5.51377	13.1101	10.4365	-1.61425	5.71394	34.1025
1023376	5.04215	5.51377	13.1101	10.4365	-1.61425	5.71394	34.1025
1023381	5.02489	5.48568	13.1101	10.3899	-1.66078	5.72885	34.0106
1023391	5.05079	5.55121	13.1416	10.4179	-1.62708	5.68951	34.1615
1023403	5.05079	5.55121	13.1416	10.4179	-1.62708	5.68951	34.1615
1023416	5.08532	5.53249	13.0891	10.4272	-1.62208	5.66813	34.134
1023423	5.06805	5.49504	13.1521	10.3806	-1.71907	5.70582	34.0958
1023435	5.06805	5.49504	13.1521	10.3806	-1.71907	5.70582	34.0958
1023443	5.05079	5.59802	13.1732	10.4085	-1.61945	5.66727	34.2305
1023456	5.05079	5.59802	13.1732	10.4085	-1.61945	5.66727	34.2305
1023464	5.05942	5.52313	13.1311	10.3899	-1.66953	5.69082	34.1036
1023473	5.06805	5.58866	13.1206	10.3899	-1.6171	5.64304	34.1672
1023485	5.06805	5.58866	13.1206	10.3899	-1.6171	5.64304	34.1672
1023497	5.07669	5.52313	13.1626	10.3527	-1.73202	5.67879	34.1151
1023503	5.11122	5.60738	13.2047	10.4179	-1.6676	5.63637	34.3412
1023513	5.11122	5.60738	13.2047	10.4179	-1.6676	5.63637	34.3412
1023523	5.06805	5.58866	13.1732	10.4179	-1.63128	5.66503	34.2477
1023533	5.06805	5.58866	13.1732	10.4179	-1.63128	5.66503	34.2477
1023543	5.00762	5.52313	13.1837	10.4365	-1.6337	5.74922	34.1509
1023554	5.07669	5.56057	13.1311	10.3899	-1.65209	5.65768	34.1583
1023566	5.07669	5.56057	13.1311	10.3899	-1.65209	5.65768	34.1583
1023573	5.05942	5.51377	13.0996	10.3899	-1.65526	5.68789	34.0627
1023583	5.11986	5.60738	13.1837	10.4272	-1.65195	5.62798	34.3381
1023594	5.11986	5.60738	13.1837	10.4272	-1.65195	5.62798	34.3381
1023604	5.06805	5.58866	13.1942	10.3899	-1.66735	5.66315	34.2408
1023624	5.05079	5.53249	13.1206	10.3527	-1.67824	5.67732	34.0566
1023633	5.08532	5.63546	13.1732	10.4179	-1.60671	5.62645	34.3118
1023643	5.08532	5.63546	13.1732	10.4179	-1.60671	5.62645	34.3118
1023654	5.09396	5.59802	13.0891	10.3899	-1.60595	5.6131	34.171
1023664	5.05942	5.61674	13.1206	10.3899	-1.58932	5.6313	34.1867
1023675	5.05942	5.61674	13.1206	10.3899	-1.58932	5.6313	34.1867
1023685	5.14576	5.56057	13.1732	10.4179	-1.70603	5.63514	34.2973
1023695	5.06805	5.54185	13.1837	10.362	-1.71852	5.68096	34.1556
1023705	5.06805	5.54185	13.1837	10.362	-1.71852	5.68096	34.1556
1023715	5.09396	5.55121	13.1311	10.4179	-1.64941	5.66053	34.1941
1023725	5.09396	5.55121	13.1311	10.4179	-1.64941	5.66053	34.1941
1023735	5.01625	5.49504	13.1942	10.4272	-1.67598	5.76137	34.1326
1023746	5.07669	5.5793	13.1311	10.4179	-1.61574	5.654	34.2049
1023756	5.07669	5.5793	13.1311	10.4179	-1.61574	5.654	34.2049
1023775	5.04215	5.56057	13.1101	10.4272	-1.58502	5.68301	34.14
1023776	5.05079	5.5793	13.1416	10.3434	-1.66329	5.65215	34.1151
1023786	5.05079	5.5793	13.1416	10.3434	-1.66329	5.65215	34.1151
1023796	5.07669	5.56993	13.2678	10.4085	-1.72333	5.69431	34.3229
1023806	5.07669	5.56993	13.2678	10.4085	-1.72333	5.69431	34.3229
1023816	5.11122	5.59802	13.1732	10.362	-1.6969	5.61811	34.2444
1023826	5.06805	5.59802	13.2257	10.3899	-1.68154	5.6661	34.2817
1023836	5.06805	5.59802	13.2257	10.3899	-1.68154	5.6661	34.2817
1023846	5.08532	5.56993	13.1311	10.3992	-1.64343	5.64935	34.1856
1023856	5.01625	5.60738	13.1416	10.4458	-1.53803	5.68403	34.211
1023866	5.01625	5.60738	13.1416	10.4458	-1.53803	5.68403	34.211
1023876	5.06805	5.6261	13.2362	10.5482	-1.54444	5.69496	34.4786
1023886	5.06805	5.6261	13.2362	10.5482	-1.54444	5.69496	34.4786
1023896	5.05942	5.5793	13.1206	10.5296	-1.51007	5.69198	34.2889
1023907	5.05942	5.61674	12.9524	10.4272	-1.44462	5.59526	34.0557
1023918	5.05942	5.61674	12.9524	10.4272	-1.44462	5.59526	34.0557
1023928	5.09396	5.5793	12.9839	10.3248	-1.59925	5.57742	33.9819
1023938	5.05079	5.5793	12.8472	10.362	-1.44562	5.57598	33.8393
1023948	5.05079	5.5793	12.8472	10.362	-1.44562	5.57598	33.8393
1023957	5.02489	5.5793	12.8893	10.3154	-1.49328	5.59049	33.8089
1023967	5.02489	5.5793	12.8893	10.3154	-1.49328	5.59049	33.8089
1023978	5.04215	5.59802	12.9524	10.3806	-1.48345	5.6042	33.9732
1023988	5.05079	5.56993	13.026	10.3899	-1.55487	5.63886	34.0366
1023998	5.05079	5.56993	13.026	10.3899	-1.55487	5.63886	34.0366
1024008	5.11986	5.56057	13.047	10.4179	-1.6023	5.61619	34.1453
1024017	5.11986	5.56057	13.047	10.4179	-1.6023	5.61619	34.1453
1024028	5.05079	5.44824	13.0996	10.4272	-1.6715	5.74317	34.0258
1024038	5.03352	5.54185	13.1521	10.4737	-1.58627	5.72369	34.2012
1024048	5.03352	5.54185	13.1521	10.4737	-1.58627	5.72369	34.2012
1024058	5.11986	5.56993	13.0575	10.4923	-1.54434	5.63384	34.2396
1024068	5.07669	5.58866	13.0365	10.3527	-1.59438	5.60447	34.0545
1024088	5.10259	5.59802	13.0365	10.3899	-1.57583	5.59343	34.127
1024098	5.10259	5.59802	13.0365	10.3899	-1.57583	5.59343	34.127
1024108	5.06805	5.5793	13.026	10.3806	-1.56672	5.62016	34.0539
1024119	5.02489	5.6261	13.1101	10.3899	-1.55116	5.64362	34.151
1024128	5.02489	5.6261	13.1101	10.3899	-1.55116	5.64362	34.151
1024138	5.07669	5.59802	13.047	10.4085	-1.55077	5.61709	34.1302
1024147	5.07669	5.56057	13.1732	10.4551	-1.63005	5.68691	34.2655
1024157	5.07669	5.56057	13.1732	10.4551	-1.63005	5.68691	34.2655
1024168	5.11986	5.5793	13.2152	10.4644	-1.66627	5.66358	34.3788
1024180	5.11986	5.5793	13.2152	10.4644	-1.66627	5.66358	34.3788
1024189	5.09396	5.59802	13.2152	10.4644	-1.63416	5.6679	34.3716
1024199	5.11122	5.64482	13.1206	10.4085	-1.58848	5.58831	34.2852
1024219	5.11122	5.61674	13.0049	10.3061	-1.61087	5.54501	34.039
1024230	5.08532	5.64482	12.9629	10.3434	-1.5131	5.54235	34.0364
1024239	5.08532	5.64482	12.9629	10.3434	-1.5131	5.54235	34.0364
1024249	5.09396	5.59802	12.8788	10.3061	-1.52655	5.53162	33.8769
1024262	5.09396	5.59802	12.8788	10.3061	-1.52655	5.53162	33.8769
1024286	5.06805	5.56057	13.0575	10.2503	-1.70519	5.60423	33.9364
1024287	5.11122	5.61674	13.0575	10.2689	-1.67607	5.54926	34.0544
1024293	5.11122	5.61674	13.0575	10.2689	-1.67607	5.54926	34.0544
1024303	5.10259	5.60738	13.0155	10.3248	-1.60492	5.56395	34.0502
1024310	5.13713	5.5793	13.068	10.3434	-1.67201	5.57975	34.1278
1024320	5.13713	5.5793	13.068	10.3434	-1.67201	5.57975	34.1278
1024333	5.12849	5.64482	13.1416	10.3899	-1.62905	5.57861	34.3049
1024340	5.12849	5.64482	13.1416	10.3899	-1.62905	5.57861	34.3049
1024350	5.11986	5.6261	13.0996	10.3806	-1.61625	5.58092	34.2261
1024360	5.13713	5.66355	13.1521	10.3713	-1.642	5.55999	34.3241
1024370	5.13713	5.66355	13.1521	10.3713	-1.642	5.55999	34.3241
1024388	5.13713	5.66355	13.026	10.3154	-1.59928	5.50966	34.1421
1024390	5.13713	5.65418	13.026	10.2596	-1.65019	5.49973	34.0769
1024400	5.13713	5.65418	13.026	10.2596	-1.65019	5.49973	34.0769
1024410	5.16303	5.67291	13.047	10.2503	-1.67494	5.4762	34.1332
1024431	5.18029	5.6261	13.0049	10.3248	-1.63638	5.50296	34.1361
1024443	5.18893	5.6261	13.0785	10.3527	-1.67076	5.52595	34.2463
1024451	5.18893	5.6261	13.0785	10.3527	-1.67076	5.52595	34.2463
1024465	5.13713	5.68227	13.026	10.2782	-1.61372	5.48805	34.1236
1024471	5.10259	5.58866	13.0891	10.3248	-1.67001	5.5956	34.1051
1024481	5.10259	5.58866	13.0891	10.3248	-1.67001	5.5956	34.1051
1024491	5.14576	5.67291	13.0785	10.2223	-1.70654	5.48756	34.1196
1024501	5.14576	5.67291	13.0785	10.2223	-1.70654	5.48756	34.1196
1024511	5.11122	5.61674	13.0891	10.3061	-1.66852	5.56831	34.1232
1024521	5.11122	5.63546	13.1101	10.3527	-1.63198	5.57569	34.2094
1024541	5.14576	5.65418	13.1311	10.2968	-1.69881	5.53408	34.2279
1024552	5.11122	5.60738	13.1101	10.2689	-1.71936	5.56947	34.0976
1024565	5.11122	5.60738	13.1101	10.2689	-1.71936	5.56947	34.0976
1024573	5.13713	5.61674	13.1101	10.3061	-1.70056	5.55852	34.1701
1024587	5.13713	5.61674	13.1101	10.3061	-1.70056	5.55852	34.1701
1024593	5.08532	5.60738	13.0365	10.2503	-1.66583	5.55956	33.9795
1024603	5.15439	5.59802	13.0996	10.241	-1.77088	5.53844	34.0929
1024613	5.15439	5.59802	13.0996	10.241	-1.77088	5.53844	34.0929
1024623	5.08532	5.68227	13.1837	10.2223	-1.72969	5.54745	34.1736
1024633	5.13713	5.70099	13.1416	10.2689	-1.68537	5.50638	34.2486
1024644	5.13713	5.70099	13.1416	10.2689	-1.68537	5.50638	34.2486
1024654	5.18029	5.69163	13.1101	10.2223	-1.73692	5.46444	34.2043
1024664	5.18029	5.69163	13.1101	10.2223	-1.73692	5.46444	34.2043
1024674	5.09396	5.71035	13.1311	10.2223	-1.67778	5.51081	34.1578
1024685	5.15439	5.68227	13.1101	10.2037	-1.74118	5.48037	34.1505
1024694	5.15439	5.68227	13.1101	10.2037	-1.74118	5.48037	34.1505
1024707	5.13713	5.71035	13.0996	10.2223	-1.68572	5.47614	34.1694
1024714	5.11986	5.76652	13.0575	10.1944	-1.62313	5.43329	34.1383
1024734	5.19756	5.78524	13.1101	10.1851	-1.70466	5.38788	34.278
1024744	5.19756	5.78524	13.1101	10.1851	-1.70466	5.38788	34.278
1024755	5.14576	5.72907	13.026	10.2037	-1.64123	5.43397	34.1045
1024765	5.16303	5.73844	12.9734	10.1851	-1.62426	5.398	34.06
1024785	5.15439	5.78524	13.047	10.1386	-1.66856	5.38279	34.1252
1024795	5.15439	5.87885	13.026	10.1292	-1.58845	5.31845	34.1885
1024805	5.15439	5.87885	13.026	10.1292	-1.58845	5.31845	34.1885
1024815	5.2321	5.84141	12.9734	10.0827	-1.67113	5.26637	34.1296
1024825	5.2062	5.81333	12.9419	10.0734	-1.66106	5.28683	34.0348
1024836	5.2062	5.81333	12.9419	10.0734	-1.66106	5.28683	34.0348
1024849	5.2321	5.83205	13.0365	10.1106	-1.69967	5.2978	34.2113
1024856	5.2321	5.83205	13.0365	10.1106	-1.69967	5.2978	34.2113
1024869	5.16303	5.78524	12.9944	10.1386	-1.63848	5.36279	34.0813
1024876	5.19756	5.75716	13.026	10.2037	-1.65474	5.38622	34.1844
1024890	5.19756	5.75716	13.026	10.2037	-1.65474	5.38622	34.1844
1024896	5.18029	5.7478	13.026	10.241	-1.62122	5.41256	34.195
1024924	5.17166	5.70099	13.0575	10.241	-1.67336	5.45453	34.1711
1024925	5.17166	5.70099	13.0575	10.241	-1.67336	5.45453	34.1711
1024929	5.17166	5.69163	13.1206	10.1944	-1.76004	5.46475	34.1783
1024938	5.12849	5.63546	13.1837	10.2223	-1.7957	5.54964	34.17
1024951	5.12849	5.63546	13.1837	10.2223	-1.7957	5.54964	34.17
1024957	5.14576	5.66355	13.1416	10.2875	-1.70592	5.5288	34.2384
1024979	5.11986	5.6261	13.1521	10.2968	-1.71741	5.57232	34.1949
1024989	5.08532	5.63546	13.0785	10.3248	-1.61444	5.57488	34.1241
1025004	5.08532	5.63546	13.0785	10.3248	-1.61444	5.57488	34.1241
1025009	5.06805	5.64482	13.1521	10.2875	-1.67473	5.58968	34.1525
1025019	5.08532	5.60738	13.1837	10.3341	-1.70091	5.6233	34.2104
1025029	5.08532	5.60738	13.1837	10.3341	-1.70091	5.6233	34.2104
1025039	5.08532	5.60738	13.1942	10.2689	-1.75903	5.60829	34.1558
1025049	5.08532	5.60738	13.1942	10.2689	-1.75903	5.60829	34.1558
1025059	5.06805	5.56993	13.0891	10.2689	-1.70482	5.61242	33.9959
1025069	5.09396	5.54185	13.2257	10.3341	-1.78661	5.66914	34.1956
1025079	5.09396	5.54185	13.2257	10.3341	-1.78661	5.66914	34.1956
1025089	5.08532	5.56057	13.1837	10.3248	-1.74478	5.64901	34.1543
1025100	5.08532	5.56057	13.1837	10.3248	-1.74478	5.64901	34.1543
1025109	5.04215	5.50441	13.1942	10.3806	-1.72276	5.72731	34.1214
1025119	5.04215	5.51377	13.2468	10.4272	-1.71486	5.74849	34.2298
1025129	5.04215	5.51377	13.2468	10.4272	-1.71486	5.74849	34.2298
1025139	5.03352	5.58866	13.2573	10.4365	-1.65059	5.71378	34.3159
1025159	5.03352	5.59802	13.2573	10.4458	-1.6361	5.71064	34.3346
1025169	5.01625	5.54185	13.2783	10.4085	-1.71131	5.75066	34.2449
1025180	5.01625	5.54185	13.2783	10.4085	-1.71131	5.75066	34.2449
1025190	4.98172	5.51377	13.2362	10.3992	-1.68832	5.77481	34.131
1025200	5.01625	5.51377	13.1626	10.4085	-1.65433	5.73638	34.1012
1025220	5.04215	5.47632	13.2468	10.3806	-1.78058	5.75863	34.1458
1025230	4.99035	5.4576	13.2468	10.3899	-1.75268	5.80411	34.0846
1025241	4.99035	5.4576	13.2468	10.3899	-1.75268	5.80411	34.0846
1025251	4.98172	5.51377	13.2678	10.4458	-1.6735	5.79587	34.209
1025261	4.98172	5.46696	13.2047	10.4737	-1.64513	5.81491	34.1271
1025271	4.98172	5.46696	13.2047	10.4737	-1.64513	5.81491	34.1271
1025284	5.09396	5.52313	13.2047	10.5482	-1.62012	5.73283	34.37
1025291	5.09396	5.52313	13.2047	10.5482	-1.62012	5.73283	34.37
1025302	5.05079	5.42015	13.2152	10.4737	-1.73605	5.80417	34.1599
1025311	5.02489	5.41079	13.2468	10.4644	-1.75451	5.83164	34.1468
1025321	5.02489	5.41079	13.2468	10.4644	-1.75451	5.83164	34.1468
1025331	4.99035	5.52313	13.2362	10.4737	-1.62882	5.78397	34.2234
1025341	4.99035	5.52313	13.2362	10.4737	-1.62882	5.78397	34.2234
1025351	4.97308	5.4576	13.2152	10.4737	-1.65373	5.82872	34.1196
1025361	4.99035	5.47632	13.3203	10.5296	-1.67907	5.8499	34.3166
1025381	4.99035	5.44824	13.2362	10.5203	-1.65089	5.84203	34.1951
1025393	4.99035	5.4576	13.2362	10.5203	-1.64359	5.83633	34.2045
1025410	4.99035	5.4576	13.2362	10.5203	-1.64359	5.83633	34.2045
1025413	4.99898	5.49504	13.3203	10.5203	-1.67762	5.83081	34.3346
1025422	4.99898	5.49504	13.3203	10.5203	-1.67762	5.83081	34.3346
1025433	4.99035	5.42952	13.1837	10.6413	-1.53542	5.87173	34.2448
1025443	4.96445	5.4576	13.2573	10.5575	-1.61128	5.86768	34.2368
1025463	4.95582	5.41079	13.2257	10.5203	-1.64931	5.88319	34.1126
1025473	4.98172	5.42952	13.1416	10.5016	-1.60932	5.82832	34.0545
1025484	4.98172	5.42952	13.1416	10.5016	-1.60932	5.82832	34.0545
1025496	4.98172	5.53249	13.2152	10.511	-1.57233	5.78789	34.2404
1025504	4.92991	5.42015	13.2257	10.483	-1.65336	5.88336	34.0588
1025514	4.92991	5.42015	13.2257	10.483	-1.65336	5.88336	34.0588
1025525	4.96445	5.4576	13.2047	10.5575	-1.57532	5.85364	34.1842
1025551	4.97308	5.4576	13.2257	10.5203	-1.62461	5.84403	34.1767
1025560	4.98172	5.41079	13.2993	10.5296	-1.70995	5.88946	34.2214
1025569	4.98172	5.41079	13.2993	10.5296	-1.70995	5.88946	34.2214
1025575	4.98172	5.44824	13.2468	10.5203	-1.65217	5.85011	34.197
1025586	4.95582	5.40143	13.2257	10.6041	-1.59129	5.91125	34.187
1025595	4.95582	5.40143	13.2257	10.6041	-1.59129	5.91125	34.187
1025617	4.92991	5.51377	13.2993	10.5575	-1.57284	5.86572	34.3005
1025617	4.92991	5.51377	13.2993	10.5575	-1.57284	5.86572	34.3005
1025626	4.94718	5.41079	13.2362	10.5761	-1.60703	5.90617	34.1703
1025635	4.93855	5.4576	13.2993	10.5482	-1.62955	5.8922	34.2437
1025648	4.93855	5.4576	13.2993	10.5482	-1.62955	5.8922	34.2437
1025655	4.97308	5.40143	13.2573	10.6041	-1.62466	5.90907	34.2358
1025665	4.92128	5.37335	13.2573	10.6227	-1.5966	5.9629	34.1746
1025675	4.92128	5.37335	13.2573	10.6227	-1.5966	5.9629	34.1746
1025685	4.97308	5.42952	13.2993	10.5854	-1.64598	5.89816	34.2873
1025697	4.97308	5.42952	13.2993	10.5854	-1.64598	5.89816	34.2873
1025705	4.89538	5.39207	13.2993	10.5668	-1.63659	5.96366	34.1536
1025715	4.98172	5.41079	13.2783	10.5296	-1.69563	5.88386	34.2004
1025725	4.98172	5.41079	13.2783	10.5296	-1.69563	5.88386	34.2004
1025735	4.96445	5.42952	13.2468	10.5947	-1.59699	5.89193	34.2355
1025749	4.92128	5.42015	13.2888	10.5482	-1.63973	5.92284	34.1784
1025766	4.96445	5.46696	13.3309	10.6692	-1.56769	5.91116	34.4315
1025776	4.96445	5.46696	13.3309	10.6692	-1.56769	5.91116	34.4315
1025789	4.91265	5.39207	13.2678	10.5668	-1.62682	5.94471	34.1393
1025796	4.95582	5.42015	13.2362	10.5761	-1.60565	5.89517	34.1883
1025810	4.95582	5.42015	13.2362	10.5761	-1.60565	5.89517	34.1883
1025817	4.94718	5.42952	13.2573	10.5203	-1.65036	5.88544	34.1542
1025828	4.90401	5.42952	13.2783	10.5203	-1.63521	5.91747	34.1321
1025838	4.90401	5.42952	13.2783	10.5203	-1.63521	5.91747	34.1321
1025848	4.99898	5.43888	13.2573	10.511	-1.68568	5.84561	34.2061
1025858	4.99898	5.43888	13.2573	10.511	-1.68568	5.84561	34.2061
1025867	4.98172	5.40143	13.2468	10.5575	-1.65963	5.88862	34.1874
1025878	4.89538	5.42952	13.2573	10.5389	-1.60037	5.92212	34.121
1025888	4.89538	5.42952	13.2573	10.5389	-1.60037	5.92212	34.121
1025898	4.99035	5.46696	13.2993	10.4737	-1.71558	5.83505	34.2303
1025910	4.92128	5.39207	13.3098	10.5389	-1.68327	5.94316	34.1621
1025928	4.95582	5.4576	13.3098	10.4737	-1.70654	5.86461	34.197
1025947	4.98172	5.46696	13.2783	10.5203	-1.6591	5.84714	34.2472
1025957	4.99035	5.47632	13.2783	10.5016	-1.67219	5.8312	34.2466
1025979	4.99898	5.55121	13.2468	10.4179	-1.66351	5.74945	34.2148
1025989	5.03352	5.55121	13.1732	10.4272	-1.62959	5.71109	34.1851
1025999	5.03352	5.55121	13.1732	10.4272	-1.62959	5.71109	34.1851
1026011	5.05079	5.50441	13.1942	10.4179	-1.69952	5.73218	34.1672
1026029	5.00762	5.47632	13.1626	10.4272	-1.66314	5.76949	34.0737
1026039	5.03352	5.58866	13.2152	10.4272	-1.62917	5.69985	34.2646
1026049	5.03352	5.58866	13.2152	10.4272	-1.62917	5.69985	34.2646
1026059	5.04215	5.58866	13.1626	10.4551	-1.57747	5.68795	34.2486
1026069	5.04215	5.48568	13.2573	10.4737	-1.70761	5.78091	34.2588
1026079	5.04215	5.48568	13.2573	10.4737	-1.70761	5.78091	34.2588
1026089	4.98172	5.59802	13.2783	10.4737	-1.59348	5.75514	34.3317
1026109	4.94718	5.42952	13.2783	10.4458	-1.72296	5.87115	34.1008
1026123	4.99035	5.43888	13.2783	10.4737	-1.72321	5.84653	34.1812
1026129	4.99035	5.43888	13.2783	10.4737	-1.72321	5.84653	34.1812
1026139	4.97308	5.46696	13.2573	10.3899	-1.74073	5.81177	34.0872
1026149	4.96445	5.46696	13.2257	10.3992	-1.70598	5.81105	34.0564
1026159	4.96445	5.46696	13.2257	10.3992	-1.70598	5.81105	34.0564
1026169	5.04215	5.51377	13.2257	10.362	-1.75151	5.72514	34.1436
1026179	5.04215	5.51377	13.2257	10.362	-1.75151	5.72514	34.1436
1026196	5.05079	5.52313	13.2257	10.3899	-1.7282	5.72181	34.1896
1026205	5.05942	5.56993	13.2678	10.4179	-1.70437	5.70725	34.315
1026210	5.05942	5.56993	13.2678	10.4179	-1.70437	5.70725	34.315
1026220	5.07669	5.54185	13.2362	10.4085	-1.72381	5.70271	34.2633
1026230	5.05942	5.55121	13.2257	10.4085	-1.69762	5.70463	34.2449
1026251	4.99898	5.5793	13.2573	10.4085	-1.65606	5.73275	34.2441
1026261	4.99898	5.5793	13.2573	10.4085	-1.65606	5.73275	34.2441
1026271	5.02489	5.58866	13.1732	10.4272	-1.59455	5.69365	34.2139
1026281	4.98172	5.59802	13.1626	10.362	-1.60123	5.69351	34.1044
1026291	4.98172	5.59802	13.1626	10.362	-1.60123	5.69351	34.1044
1026301	5.00762	5.59802	13.1101	10.3992	-1.5539	5.67362	34.115
1026311	5.01625	5.56057	13.1626	10.3992	-1.62506	5.70543	34.1387
1026331	5.00762	5.6261	13.1521	10.4923	-1.48879	5.69345	34.2782
1026345	5.00762	5.6261	13.1521	10.4923	-1.48879	5.69345	34.2782
1026351	5.03352	5.53249	13.1942	10.511	-1.59337	5.75081	34.2711
1026362	4.96445	5.55121	13.3098	10.5668	-1.5674	5.82732	34.3923
1026373	4.96445	5.55121	13.3098	10.5668	-1.5674	5.82732	34.3923
1026383	4.98172	5.59802	13.1732	10.5016	-1.49996	5.73431	34.2545
1026392	4.99035	5.56057	13.1206	10.5203	-1.48436	5.74258	34.1918
1026403	4.99035	5.56057	13.1206	10.5203	-1.48436	5.74258	34.1918
1026413	4.99898	5.5793	13.1101	10.4458	-1.52632	5.7029	34.1341
1026432	4.92991	5.56993	13.1311	10.4458	-1.50051	5.75629	34.0767
1026443	4.95582	5.49504	13.1416	10.511	-1.53316	5.80662	34.1034
1026453	4.95582	5.49504	13.1416	10.511	-1.53316	5.80662	34.1034
1026463	4.97308	5.54185	13.1416	10.5203	-1.50145	5.77012	34.1768
1026473	4.93855	5.46696	13.1311	10.5761	-1.4852	5.84901	34.1127
1026482	4.93855	5.46696	13.1311	10.5761	-1.4852	5.84901	34.1127
1026493	4.95582	5.52313	13.2047	10.5575	-1.51856	5.81899	34.2411
1026503	4.95582	5.52313	13.2047	10.5575	-1.51856	5.81899	34.2411
1026512	4.94718	5.53249	13.1942	10.5482	-1.50538	5.81323	34.222
1026522	4.95582	5.48568	13.2993	10.5761	-1.59785	5.872	34.3169
1026533	4.95582	5.48568	13.2993	10.5761	-1.59785	5.872	34.3169
1026544	4.93855	5.49504	13.2678	10.5296	-1.59338	5.856	34.2309
1026554	4.94718	5.51377	13.2678	10.5668	-1.55588	5.84929	34.2955
1026564	4.94718	5.51377	13.2678	10.5668	-1.55588	5.84929	34.2955
1026574	4.96445	5.53249	13.2468	10.5296	-1.56765	5.81184	34.2733
1026584	4.96445	5.53249	13.2468	10.5296	-1.56765	5.81184	34.2733
1026594	4.94718	5.47632	13.2468	10.5389	-1.59221	5.85902	34.2091
1026604	4.93855	5.47632	13.1942	10.5203	-1.56475	5.84523	34.1293
1026624	4.97308	5.52313	13.2783	10.4923	-1.63125	5.81076	34.2668
1026637	4.92128	5.50441	13.1837	10.483	-1.55279	5.82579	34.0924
1026647	4.92128	5.50441	13.1837	10.483	-1.55279	5.82579	34.0924
1026654	4.92128	5.46696	13.2678	10.4551	-1.66149	5.86376	34.1111
1026664	4.92128	5.46696	13.2678	10.4551	-1.66149	5.86376	34.1111
1026674	4.89538	5.44824	13.1626	10.4458	-1.59343	5.86039	33.952
1026685	4.98172	5.48568	13.2257	10.4458	-1.6667	5.80164	34.1389
1026695	4.98172	5.48568	13.2257	10.4458	-1.6667	5.80164	34.1389
1026705	4.98172	5.46696	13.1626	10.4458	-1.63815	5.79604	34.0571
1026715	4.93855	5.48568	13.2783	10.4551	-1.66585	5.84459	34.1576
1026725	4.93855	5.48568	13.2783	10.4551	-1.66585	5.84459	34.1576
1026738	4.95582	5.52313	13.2257	10.4458	-1.61977	5.79461	34.1505
1026755	4.90401	5.59802	13.2993	10.4085	-1.60536	5.79036	34.2099
1026765	4.93855	5.47632	13.3519	10.483	-1.70154	5.87743	34.2498
1026775	4.93855	5.47632	13.3519	10.483	-1.70154	5.87743	34.2498
1026785	4.98172	5.55121	13.2257	10.5016	-1.57222	5.77685	34.2603
1026796	5.00762	5.53249	13.1942	10.4458	-1.62634	5.7489	34.1801
1026805	5.00762	5.53249	13.1942	10.4458	-1.62634	5.7489	34.1801
1026825	4.95582	5.54185	13.2047	10.3899	-1.63434	5.76243	34.0923
1026826	4.95582	5.54185	13.2047	10.3899	-1.63434	5.76243	34.0923
1026846	5.02489	5.52313	13.1942	10.3899	-1.68904	5.72896	34.1321
1026846	4.99035	5.52313	13.2888	10.3806	-1.73728	5.77303	34.1829
1026861	4.99035	5.52313	13.2888	10.3806	-1.73728	5.77303	34.1829
1026868	4.98172	5.50441	13.1626	10.4179	-1.63071	5.76563	34.0666
1026880	5.05942	5.46696	13.2362	10.4644	-1.72692	5.77362	34.227
1026887	5.05942	5.46696	13.2362	10.4644	-1.72692	5.77362	34.227
1026902	4.98172	5.55121	13.2678	10.4458	-1.64433	5.77313	34.2465
1026909	4.94718	5.49504	13.2362	10.4365	-1.65024	5.81731	34.1149
1026919	4.94718	5.49504	13.2362	10.4365	-1.65024	5.81731	34.1149
1026929	5.05942	5.47632	13.2888	10.4179	-1.79168	5.76957	34.2424
1026949	5.00762	5.4576	13.2257	10.3713	-1.76474	5.78286	34.0622
1026959	5.00762	5.53249	13.1942	10.4551	-1.61909	5.75142	34.1894
1026970	5.00762	5.53249	13.1942	10.4551	-1.61909	5.75142	34.1894
1026980	5.01625	5.49504	13.2047	10.3992	-1.70501	5.75666	34.1152
1026990	5.01625	5.51377	13.2362	10.4085	-1.7046	5.75633	34.1748
1027010	5.02489	5.56057	13.2257	10.4737	-1.61611	5.7375	34.2849
1027031	4.98172	5.46696	13.2047	10.4179	-1.68882	5.79985	34.0712
1027041	4.98172	5.47632	13.2993	10.4551	-1.71693	5.82962	34.2125
1027050	4.98172	5.47632	13.2993	10.4551	-1.71693	5.82962	34.2125
1027060	4.99898	5.48568	13.2783	10.4737	-1.69254	5.81278	34.2367
1027072	4.96445	5.48568	13.2993	10.4551	-1.69787	5.83444	34.2045
1027080	4.96445	5.48568	13.2993	10.4551	-1.69787	5.83444	34.2045
1027090	4.99898	5.47632	13.2783	10.5016	-1.67807	5.82595	34.2552
1027100	4.99898	5.47632	13.2783	10.5016	-1.67807	5.82595	34.2552
1027110	4.96445	5.4576	13.3519	10.5854	-1.65406	5.90026	34.3594
1027120	5.00762	5.41079	13.3203	10.4365	-1.81469	5.85442	34.1752
1027130	5.00762	5.41079	13.3203	10.4365	-1.81469	5.85442	34.1752
1027141	4.97308	5.47632	13.2678	10.4644	-1.68229	5.82892	34.1816
1027150	4.97308	5.46696	13.2993	10.4644	-1.7111	5.84307	34.2038
1027162	4.97308	5.46696	13.2993	10.4644	-1.7111	5.84307	34.2038
1027175	5.01625	5.48568	13.2783	10.4551	-1.71881	5.79728	34.2353
1027184	5.01625	5.48568	13.2783	10.4551	-1.71881	5.79728	34.2353
1027191	4.92991	5.47632	13.2678	10.5761	-1.56587	5.88509	34.2501
1027205	4.94718	5.42015	13.2783	10.5296	-1.66477	5.89925	34.1752
1027211	4.94718	5.42015	13.2783	10.5296	-1.66477	5.89925	34.1752
1027224	4.91265	5.4576	13.2993	10.6041	-1.56849	5.92283	34.2736
1027231	4.95582	5.46696	13.2257	10.5854	-1.55485	5.86628	34.2339
1027252	4.94718	5.42952	13.2468	10.5947	-1.58518	5.90247	34.2182
1027261	4.94718	5.42952	13.2468	10.5947	-1.58518	5.90247	34.2182
1027271	4.86084	5.43888	13.2047	10.5854	-1.49695	5.93597	34.0899
1027286	4.90401	5.47632	13.2047	10.6227	-1.46876	5.8965	34.2077
1027292	4.90401	5.47632	13.2047	10.6227	-1.46876	5.8965	34.2077
1027302	4.86084	5.40143	13.2362	10.6227	-1.51884	5.97721	34.1212
1027313	4.91265	5.38271	13.2573	10.6041	-1.59789	5.95753	34.1567
1027322	4.91265	5.38271	13.2573	10.6041	-1.59789	5.95753	34.1567
1027332	4.93855	5.42015	13.3729	10.5668	-1.69431	5.9395	34.2984
1027342	4.93855	5.42015	13.3729	10.5668	-1.69431	5.9395	34.2984
1027353	4.89538	5.42952	13.3624	10.6227	-1.60711	5.9721	34.31
1027363	4.92128	5.43888	13.3729	10.6599	-1.59582	5.96314	34.393
1027373	4.92128	5.43888	13.3729	10.6599	-1.59582	5.96314	34.393
1027383	4.89538	5.38271	13.3939	10.632	-1.6577	6.01147	34.304
1027394	4.88674	5.35463	13.3203	10.6134	-1.63797	6.00979	34.1751
1027402	4.88674	5.35463	13.3203	10.6134	-1.63797	6.00979	34.1751
1027412	4.88674	5.37335	13.2993	10.632	-1.5945	5.99765	34.1914
1027432	4.93855	5.35463	13.2257	10.6041	-1.61592	5.95051	34.123
1027443	4.82631	5.36399	13.2783	10.6134	-1.5604	6.03018	34.082
1027459	4.82631	5.36399	13.2783	10.6134	-1.5604	6.03018	34.082
1027468	4.86084	5.4576	13.2678	10.6041	-1.51138	5.94616	34.1903
1027476	4.86948	5.40143	13.2993	10.6041	-1.58256	5.98365	34.1743
1027496	4.85221	5.41079	13.3203	10.6785	-1.52008	6.01363	34.2619
1027505	4.85221	5.41079	13.3203	10.6785	-1.52008	6.01363	34.2619
1027514	4.82631	5.42015	13.2573	10.6506	-1.47333	5.99986	34.1543
1027524	4.86084	5.43888	13.2362	10.6413	-1.47533	5.95914	34.1773
1027536	4.86084	5.43888	13.2362	10.6413	-1.47533	5.95914	34.1773
1027544	4.91265	5.36399	13.1732	10.5761	-1.57652	5.93929	34.0259
1027558	4.85221	5.42015	13.1732	10.6134	-1.46207	5.95182	34.0589
1027566	4.85221	5.42015	13.1732	10.6134	-1.46207	5.95182	34.0589
1027574	4.90401	5.34526	13.2573	10.632	-1.59939	5.99322	34.1385
1027584	4.90401	5.34526	13.2573	10.632	-1.59939	5.99322	34.1385
1027595	4.90401	5.3359	13.2573	10.6134	-1.62121	5.99406	34.1105
1027605	4.87811	5.35463	13.3729	10.6227	-1.6607	6.03134	34.2283
1027615	4.87811	5.35463	13.3729	10.6227	-1.6607	6.03134	34.2283
1027625	4.90401	5.41079	13.3414	10.5854	-1.64213	5.96292	34.2416
1027635	4.91265	5.40143	13.3519	10.5947	-1.65522	5.9686	34.2607
1027645	4.91265	5.40143	13.3519	10.5947	-1.65522	5.9686	34.2607
1027659	4.92991	5.42952	13.3309	10.6134	-1.61637	5.94024	34.3036
1027665	4.92991	5.42952	13.3309	10.6134	-1.61637	5.94024	34.3036
1027675	4.88674	5.41079	13.2257	10.4923	-1.62378	5.9181	34.0156
1027685	4.95582	5.4576	13.2993	10.511	-1.67032	5.87175	34.2237
1027695	4.95582	5.4576	13.2993	10.511	-1.67032	5.87175	34.2237
1027706	4.92991	5.42015	13.3519	10.5389	-1.6959	5.93182	34.2408
1027715	4.89538	5.39207	13.2993	10.5296	-1.66567	5.95379	34.1163
1027725	4.89538	5.39207	13.2993	10.5296	-1.66567	5.95379	34.1163
1027735	4.89538	5.37335	13.3519	10.511	-1.73078	5.97428	34.1316
1027745	4.89538	5.37335	13.3519	10.511	-1.73078	5.97428	34.1316
1027755	4.86948	5.39207	13.4045	10.511	-1.73429	5.99257	34.177
1027766	4.93855	5.39207	13.3519	10.5296	-1.73096	5.94125	34.2121
1027780	4.93855	5.39207	13.3519	10.5296	-1.73096	5.94125	34.2121
1027786	4.92128	5.34526	13.415	10.483	-1.83521	5.98491	34.1645
1027796	4.92128	5.34526	13.3519	10.4551	-1.81432	5.96083	34.0735
1027816	4.90401	5.37335	13.3519	10.5296	-1.72209	5.9739	34.1588
1027829	4.90401	5.37335	13.3519	10.5296	-1.72209	5.9739	34.1588
1027836	4.90401	5.32654	13.415	10.5947	-1.75064	6.03638	34.2403
1027846	4.90401	5.34526	13.4045	10.5761	-1.74342	6.01725	34.2299
1027856	4.90401	5.34526	13.4045	10.5761	-1.74342	6.01725	34.2299
1027866	4.90401	5.36399	13.3098	10.5482	-1.68615	5.97346	34.126
1027876	4.92128	5.31718	13.3834	10.5482	-1.7847	6.01103	34.1701
1027886	4.92128	5.31718	13.3834	10.5482	-1.7847	6.01103	34.1701
1027896	4.86948	5.29846	13.457	10.6227	-1.75586	6.09316	34.2476
1027907	4.86948	5.29846	13.457	10.6227	-1.75586	6.09316	34.2476
1027916	4.87811	5.21421	13.457	10.6227	-1.8277	6.13984	34.172
1027926	4.86084	5.2891	13.4886	10.6506	-1.7569	6.11968	34.2891
1027936	4.86084	5.2891	13.4886	10.6506	-1.7569	6.11968	34.2891
1027946	4.87811	5.30782	13.5201	10.6785	-1.75359	6.11293	34.3846
1027956	4.87811	5.30782	13.5201	10.6785	-1.75359	6.11293	34.3846
1027968	4.86084	5.30782	13.4675	10.6413	-1.7353	6.10028	34.2775
1027981	4.86084	5.31718	13.5201	10.6506	-1.75637	6.11057	34.3487
1027988	4.86084	5.31718	13.5201	10.6506	-1.75637	6.11057	34.3487
1028000	4.91265	5.2891	13.436	10.632	-1.77092	6.06931	34.2697
1028010	4.90401	5.32654	13.3519	10.5482	-1.74415	6.00759	34.1306
1028028	4.97308	5.34526	13.3729	10.6041	-1.74709	5.97397	34.2953
1028038	4.90401	5.29846	13.2888	10.5947	-1.68663	6.02054	34.086
1028048	4.90401	5.29846	13.2888	10.5947	-1.68663	6.02054	34.086
1028058	4.93855	5.38271	13.3414	10.6041	-1.67302	5.96388	34.2667
1028075	4.93855	5.38271	13.3414	10.6041	-1.67302	5.96388	34.2667
1028079	4.98172	5.41079	13.3203	10.5575	-1.70247	5.90248	34.2704
1028089	4.98172	5.38271	13.3624	10.5296	-1.77473	5.92337	34.2564
1028114	4.92991	5.43888	13.2573	10.511	-1.63851	5.88779	34.137
1028125	4.94718	5.38271	13.3624	10.6041	-1.6932	5.96415	34.2963
1028133	4.94718	5.38271	13.3624	10.6041	-1.6932	5.96415	34.2963
1028140	4.92991	5.36399	13.2573	10.5854	-1.63883	5.95349	34.1366
1028150	4.92991	5.36399	13.2573	10.5854	-1.63883	5.95349	34.1366
1028160	4.93855	5.38271	13.3098	10.5947	-1.65878	5.9531	34.2258
1028170	4.91265	5.41079	13.3519	10.6413	-1.61179	5.97513	34.3166
1028181	4.91265	5.41079	13.3519	10.6413	-1.61179	5.97513	34.3166
1028191	4.92128	5.31718	13.2573	10.6134	-1.64766	5.99496	34.1091
1028201	4.92128	5.42952	13.3309	10.5947	-1.62494	5.94059	34.2764
1028212	4.92128	5.42952	13.3309	10.5947	-1.62494	5.94059	34.2764
1028223	4.89538	5.44824	13.2993	10.6599	-1.52068	5.95386	34.3028
1028232	4.87811	5.35463	13.3414	10.5947	-1.66095	6.01573	34.1688
1028241	4.87811	5.35463	13.3414	10.5947	-1.66095	6.01573	34.1688
1028251	4.92991	5.41079	13.3624	10.6599	-1.61628	5.97224	34.363
1028261	4.92991	5.41079	13.3624	10.6599	-1.61628	5.97224	34.363
1028271	4.92128	5.42015	13.3729	10.6785	-1.5959	5.97944	34.3929
1028281	4.92991	5.37335	13.2993	10.6972	-1.57343	5.98833	34.2997
1028291	4.92991	5.37335	13.2993	10.6972	-1.57343	5.98833	34.2997
1028301	4.91265	5.36399	13.3098	10.6041	-1.64844	5.98291	34.1905
1028311	4.91265	5.36399	13.3098	10.6041	-1.64844	5.98291	34.1905
1028321	4.84358	5.36399	13.3309	10.5389	-1.66648	6.01376	34.0773
1028333	4.92128	5.38271	13.3309	10.6041	-1.6541	5.97168	34.2389
1028341	4.92128	5.38271	13.3309	10.6041	-1.6541	5.97168	34.2389
1028352	4.87811	5.3359	13.3309	10.5389	-1.71209	6.00978	34.0838
1028361	4.86948	5.36399	13.3939	10.511	-1.74911	6.00707	34.1384
1028373	4.86948	5.36399	13.3939	10.511	-1.74911	6.00707	34.1384
1028381	4.91265	5.3359	13.4045	10.5203	-1.80033	6.00301	34.1733
1028391	4.91265	5.3359	13.4045	10.5203	-1.80033	6.00301	34.1733
1028401	4.86948	5.32654	13.3834	10.511	-1.77132	6.02737	34.0904
1028412	4.93855	5.41079	13.3834	10.5575	-1.71599	5.94553	34.2903
1028421	4.93855	5.41079	13.3834	10.5575	-1.71599	5.94553	34.2903
1028432	4.90401	5.47632	13.4465	10.5389	-1.69887	5.93836	34.3657
1028442	4.92991	5.42015	13.436	10.4923	-1.78933	5.94176	34.2784
1028452	4.92991	5.42015	13.436	10.4923	-1.78933	5.94176	34.2784
1028462	4.98172	5.44824	13.4465	10.5575	-1.75879	5.91308	34.434
1028473	4.98172	5.44824	13.4465	10.5575	-1.75879	5.91308	34.434
1028482	4.94718	5.39207	13.436	10.4644	-1.84486	5.94098	34.2396
1028496	4.93855	5.36399	13.4255	10.5296	-1.80286	5.97788	34.2576
1028503	4.93855	5.36399	13.4255	10.5296	-1.80286	5.97788	34.2576
1028515	4.94718	5.40143	13.3624	10.4085	-1.83151	5.90087	34.1196
1028523	4.95582	5.40143	13.3519	10.4551	-1.79367	5.90518	34.1642
1028536	4.95582	5.40143	13.3519	10.4551	-1.79367	5.90518	34.1642
1028543	4.94718	5.42952	13.3098	10.5016	-1.70078	5.89449	34.1882
1028553	4.94718	5.42952	13.3098	10.5016	-1.70078	5.89449	34.1882
1028563	4.93855	5.39207	13.2888	10.483	-1.72441	5.91213	34.1024
1028572	4.98172	5.39207	13.3309	10.4551	-1.80433	5.88946	34.1597
1028585	4.98172	5.39207	13.3309	10.4551	-1.80433	5.88946	34.1597
1028594	4.95582	5.42015	13.3414	10.4923	-1.74271	5.90085	34.2097
1028604	4.95582	5.42952	13.4255	10.5296	-1.76338	5.9273	34.3404
1028614	4.95582	5.42952	13.4255	10.5296	-1.76338	5.9273	34.3404
1028624	4.99035	5.42015	13.3519	10.511	-1.75875	5.88752	34.2733
1028634	4.99035	5.42015	13.3519	10.511	-1.75875	5.88752	34.2733
1028644	4.96445	5.36399	13.3203	10.4923	-1.77826	5.92434	34.1411
1028654	4.97308	5.36399	13.2993	10.5203	-1.74794	5.92089	34.1567
1028664	4.97308	5.36399	13.2993	10.5203	-1.74794	5.92089	34.1567
1028674	4.90401	5.40143	13.3098	10.5296	-1.67144	5.94554	34.1448
1028685	4.92128	5.40143	13.2888	10.5482	-1.65433	5.93431	34.1597
1028694	4.92128	5.40143	13.2888	10.5482	-1.65433	5.93431	34.1597
1028704	4.98172	5.40143	13.2888	10.5668	-1.68105	5.90229	34.2388
1028725	4.93855	5.30782	13.3309	10.5761	-1.74614	5.99968	34.1533
1028735	4.96445	5.34526	13.4045	10.5389	-1.81353	5.9704	34.253
1028746	4.96445	5.34526	13.4045	10.5389	-1.81353	5.9704	34.253
1028755	4.95582	5.31718	13.3309	10.5203	-1.79436	5.96856	34.1241
1028767	4.94718	5.3359	13.3834	10.5854	-1.75849	5.99343	34.2519
1028775	4.94718	5.3359	13.3834	10.5854	-1.75849	5.99343	34.2519
1028788	4.93855	5.39207	13.3414	10.5668	-1.69474	5.94833	34.2388
1028795	4.93855	5.39207	13.3414	10.5668	-1.69474	5.94833	34.2388
1028805	4.94718	5.34526	13.3098	10.6041	-1.6866	5.97321	34.2063
1028815	4.97308	5.27974	13.3729	10.5947	-1.80558	6.01168	34.2205
1028825	4.97308	5.27974	13.3729	10.5947	-1.80558	6.01168	34.2205
1028836	4.98172	5.3359	13.3519	10.5947	-1.75325	5.96643	34.2642
1028846	4.93855	5.34526	13.3519	10.5389	-1.76029	5.9724	34.1746
1028855	4.93855	5.34526	13.3519	10.5389	-1.76029	5.9724	34.1746
1028866	4.99898	5.31718	13.3414	10.5947	-1.77246	5.96454	34.2523
1028876	4.99898	5.31718	13.3414	10.5947	-1.77246	5.96454	34.2523
1028886	4.92991	5.37335	13.3309	10.5482	-1.71085	5.95738	34.1823
1028896	4.91265	5.35463	13.3834	10.6134	-1.69863	6.01046	34.2641
1028907	4.91265	5.35463	13.3834	10.6134	-1.69863	6.01046	34.2641
1028916	4.99035	5.35463	13.3519	10.5761	-1.75903	5.94479	34.273
1028926	4.91265	5.31718	13.415	10.6041	-1.75654	6.03927	34.2488
1028936	4.91265	5.31718	13.415	10.6041	-1.75654	6.03927	34.2488
1028949	4.97308	5.31718	13.436	10.5947	-1.81897	6.00528	34.321
1028956	4.97308	5.31718	13.436	10.5947	-1.81897	6.00528	34.321
1028966	4.88674	5.32654	13.2993	10.5947	-1.66004	6.01664	34.1073
1028976	4.90401	5.35463	13.3624	10.6041	-1.6857	6.00779	34.2251
1028991	4.90401	5.35463	13.3624	10.6041	-1.6857	6.00779	34.2251
1028997	4.95582	5.34526	13.3834	10.5761	-1.76431	5.97996	34.2606
1029006	4.97308	5.3359	13.3519	10.5854	-1.75467	5.96926	34.2463
1029016	4.97308	5.3359	13.3519	10.5854	-1.75467	5.96926	34.2463
1029026	4.90401	5.32654	13.2783	10.6134	-1.64292	6.00537	34.1222
1029036	4.90401	5.32654	13.2783	10.6134	-1.64292	6.00537	34.1222
1029046	4.88674	5.2891	13.3309	10.6506	-1.66722	6.06266	34.1573
1029057	4.92128	5.32654	13.3414	10.6413	-1.67601	6.01869	34.2305
1029067	4.92128	5.32654	13.3414	10.6413	-1.67601	6.01869	34.2305
1029077	4.92128	5.35463	13.3729	10.6134	-1.69736	6.00241	34.2622
1029087	4.92991	5.34526	13.3729	10.632	-1.69601	6.00774	34.2801
1029107	4.90401	5.27037	13.3624	10.6599	-1.70786	6.07424	34.1967
1029129	4.86948	5.26101	13.3203	10.6599	-1.66289	6.09035	34.1107
1029141	4.86948	5.2891	13.3414	10.6692	-1.64807	6.08093	34.1692
1029149	4.86948	5.2891	13.3414	10.6692	-1.64807	6.08093	34.1692
1029162	4.86084	5.32654	13.2678	10.6599	-1.56981	6.04145	34.1151
1029169	4.84358	5.27037	13.2888	10.632	-1.63805	6.08504	34.0347
1029179	4.84358	5.27037	13.2888	10.632	-1.63805	6.08504	34.0347
1029189	4.89538	5.38271	13.3309	10.6041	-1.63642	5.98756	34.213
1029199	4.89538	5.38271	13.3309	10.6041	-1.63642	5.98756	34.213
1029209	4.91265	5.32654	13.2573	10.5389	-1.69272	5.9748	34.0353
1029219	4.86948	5.34526	13.3414	10.632	-1.63332	6.03658	34.1881
1029229	4.86948	5.34526	13.3414	10.632	-1.63332	6.03658	34.1881
1029239	4.86948	5.31718	13.2783	10.5668	-1.66299	6.02016	34.0318
1029249	4.91265	5.40143	13.3624	10.5575	-1.69138	5.96155	34.234
1029259	4.91265	5.40143	13.3624	10.5575	-1.69138	5.96155	34.234
1029269	4.92128	5.41079	13.3624	10.6413	-1.62483	5.97261	34.3358
1029279	4.92128	5.41079	13.3624	10.6413	-1.62483	5.97261	34.3358
1029292	4.92128	5.36399	13.2783	10.5854	-1.64731	5.96436	34.149
1029303	4.97308	5.44824	13.3309	10.5575	-1.6746	5.88771	34.3097
1029319	4.93855	5.43888	13.2362	10.5482	-1.60099	5.88683	34.1619
1029329	4.95582	5.43888	13.3098	10.511	-1.69209	5.88597	34.2155
1029339	4.95582	5.43888	13.3098	10.511	-1.69209	5.88597	34.2155
1029349	4.94718	5.42015	13.3098	10.5389	-1.67902	5.91012	34.216
1029360	4.94718	5.42015	13.3098	10.5389	-1.67902	5.91012	34.216
1029370	4.94718	5.42952	13.2888	10.5482	-1.65013	5.90128	34.2137
1029380	4.94718	5.41079	13.3624	10.5482	-1.71483	5.93224	34.2686
1029393	4.94718	5.41079	13.3624	10.5482	-1.71483	5.93224	34.2686
1029401	4.93855	5.44824	13.3203	10.5761	-1.62946	5.91091	34.2833
1029410	4.94718	5.44824	13.2678	10.4737	-1.67927	5.86436	34.1369
1029422	4.94718	5.44824	13.2678	10.4737	-1.67927	5.86436	34.1369
1029430	4.99035	5.40143	13.2362	10.511	-1.69469	5.86811	34.139
1029440	4.99035	5.40143	13.2362	10.511	-1.69469	5.86811	34.139
1029450	4.93855	5.46696	13.2678	10.4458	-1.68058	5.85071	34.1191
1029462	4.97308	5.44824	13.2888	10.4458	-1.73313	5.84669	34.1559
1029471	4.97308	5.44824	13.2888	10.4458	-1.73313	5.84669	34.1559
1029485	4.99898	5.47632	13.3414	10.4365	-1.77178	5.82539	34.2532
1029491	4.99035	5.40143	13.3939	10.4737	-1.83099	5.90022	34.2594
1029501	4.99035	5.40143	13.3939	10.4737	-1.83099	5.90022	34.2594
1029511	4.95582	5.43888	13.3834	10.4923	-1.75664	5.90059	34.2705
1029521	4.95582	5.43888	13.3834	10.4923	-1.75664	5.90059	34.2705
1029531	4.92128	5.37335	13.3624	10.4458	-1.8067	5.94389	34.1028
1029542	4.96445	5.41079	13.3519	10.4923	-1.76304	5.90409	34.2195
1029561	4.96445	5.43888	13.4045	10.4179	-1.83501	5.88111	34.2256
1029571	4.96445	5.42952	13.3624	10.483	-1.76282	5.89297	34.2394
1029591	4.94718	5.42015	13.415	10.5389	-1.75045	5.93796	34.3212
1029603	4.94718	5.42015	13.415	10.5389	-1.75045	5.93796	34.3212
1029612	4.92128	5.40143	13.3939	10.5668	-1.71145	5.96703	34.2835
1029622	4.98172	5.35463	13.3834	10.511	-1.82553	5.94117	34.2307
1029633	4.98172	5.35463	13.3834	10.511	-1.82553	5.94117	34.2307
1029642	4.94718	5.39207	13.4045	10.483	-1.80892	5.93756	34.2267
1029652	4.93855	5.34526	13.436	10.483	-1.86114	5.97986	34.2028
1029663	4.93855	5.34526	13.436	10.483	-1.86114	5.97986	34.2028
1029673	4.92991	5.37335	13.4045	10.511	-1.79	5.96698	34.2187
1029693	4.92991	5.32654	13.4465	10.511	-1.85518	6.00677	34.2139
1029713	4.93855	5.31718	13.4465	10.4644	-1.90498	5.99496	34.1666
1029714	4.93855	5.31718	13.4465	10.4644	-1.90498	5.99496	34.1666
1029724	4.95582	5.31718	13.4675	10.5016	-1.90155	5.9997	34.2422
1029735	4.96445	5.3359	13.478	10.511	-1.89245	5.98815	34.2893
1029742	4.96445	5.3359	13.478	10.511	-1.89245	5.98815	34.2893
1029755	4.92128	5.35463	13.457	10.4644	-1.87096	5.98534	34.1973
1029762	4.92128	5.35463	13.457	10.4644	-1.87096	5.98534	34.1973
1029772	4.88674	5.34526	13.4255	10.511	-1.79698	6.01626	34.1684
1029782	4.89538	5.31718	13.3834	10.483	-1.81828	6.00981	34.079
1029792	4.89538	5.31718	13.3834	10.483	-1.81828	6.00981	34.079
1029804	4.96445	5.27974	13.5201	10.483	-1.98686	6.02628	34.2473
1029814	4.96445	5.27974	13.5201	10.483	-1.98686	6.02628	34.2473
1029824	4.85221	5.31718	13.436	10.5482	-1.77348	6.06736	34.1536
1029834	4.90401	5.34526	13.5201	10.5575	-1.83627	6.04264	34.3269
1029844	4.90401	5.34526	13.5201	10.5575	-1.83627	6.04264	34.3269
1029854	4.92991	5.3359	13.3939	10.4923	-1.82684	5.98226	34.1521
1029864	4.93855	5.40143	13.436	10.4458	-1.84629	5.93561	34.2218
1029874	4.93855	5.40143	13.436	10.4458	-1.84629	5.93561	34.2218
1029884	4.97308	5.37335	13.3939	10.4644	-1.84862	5.92545	34.2048
1029904	4.94718	5.41079	13.436	10.5296	-1.77925	5.94676	34.3235
1029922	4.92991	5.42015	13.478	10.4923	-1.81777	5.95286	34.3204
1029924	4.92991	5.42015	13.478	10.4923	-1.81777	5.95286	34.3204
1029934	4.95582	5.40143	13.4675	10.4365	-1.88657	5.93094	34.2613
1029944	4.97308	5.37335	13.3729	10.5016	-1.80518	5.92975	34.221
1029954	4.97308	5.37335	13.3729	10.5016	-1.80518	5.92975	34.221
1029967	4.99035	5.35463	13.4465	10.4365	-1.93245	5.93287	34.228
1029985	4.94718	5.35463	13.3939	10.4085	-1.88976	5.93797	34.1043
1029995	4.94718	5.40143	13.3098	10.483	-1.7373	5.90671	34.1415
1030004	4.94718	5.40143	13.3098	10.483	-1.7373	5.90671	34.1415
1030016	4.95582	5.34526	13.3729	10.3992	-1.89609	5.93034	34.0732
1030025	4.95582	5.37335	13.4045	10.4272	-1.87331	5.92893	34.1608
1030036	4.95582	5.37335	13.4045	10.4272	-1.87331	5.92893	34.1608
1030048	5.02489	5.42952	13.3834	10.5296	-1.78165	5.87414	34.3674
1030059	5.02489	5.42952	13.3834	10.5296	-1.78165	5.87414	34.3674
1030066	4.95582	5.38271	13.3834	10.4272	-1.85171	5.91761	34.1491
1030079	5.00762	5.40143	13.3834	10.4458	-1.85745	5.87946	34.2383
1030096	4.99035	5.47632	13.3624	10.4458	-1.77291	5.83876	34.2749
1030105	4.99898	5.4576	13.3624	10.4365	-1.80067	5.84241	34.2555
1030116	4.99898	5.4576	13.3624	10.4365	-1.80067	5.84241	34.2555
1030126	5.03352	5.47632	13.3309	10.4179	-1.80262	5.7966	34.2586
1030152	4.93855	5.39207	13.3309	10.4272	-1.79691	5.90845	34.0886
1030167	4.92991	5.40143	13.3414	10.483	-1.74702	5.92567	34.1557
1030178	4.94718	5.42015	13.3309	10.4551	-1.75883	5.89341	34.1533
1030190	4.92128	5.36399	13.3729	10.4737	-1.79927	5.95983	34.1319
1030198	4.92128	5.36399	13.3729	10.4737	-1.79927	5.95983	34.1319
1030210	4.93855	5.42015	13.4045	10.483	-1.78109	5.92567	34.2462
1030224	4.93855	5.40143	13.3414	10.5296	-1.71649	5.93274	34.2109
1030231	4.93855	5.40143	13.3414	10.5296	-1.71649	5.93274	34.2109
1030237	4.96445	5.40143	13.3098	10.5016	-1.73449	5.9011	34.1774
1030249	4.96445	5.40143	13.3098	10.5016	-1.73449	5.9011	34.1774
1030258	4.93855	5.41079	13.3414	10.483	-1.74557	5.91465	34.1737
1030271	4.94718	5.39207	13.3519	10.5668	-1.70777	5.94582	34.2579
1030277	4.94718	5.39207	13.3519	10.5668	-1.70777	5.94582	34.2579
1030287	4.92991	5.38271	13.3414	10.5389	-1.71797	5.95196	34.1929
1030297	4.92991	5.32654	13.3203	10.5668	-1.72573	5.98825	34.1436
1030323	4.91265	5.36399	13.3939	10.6506	-1.66952	6.01724	34.3212
1030328	4.91265	5.36399	13.3939	10.6506	-1.66952	6.01724	34.3212
1030337	4.87811	5.37335	13.3203	10.6041	-1.62473	6.00114	34.1759
1030348	4.83494	5.32654	13.3834	10.6041	-1.67485	6.0731	34.149
1030358	4.83494	5.32654	13.3834	10.6041	-1.67485	6.0731	34.149
1030369	4.92991	5.38271	13.3624	10.5947	-1.68871	5.97226	34.2698
1030389	4.89538	5.3359	13.3309	10.5854	-1.68746	6.01141	34.1476
1030399	4.92128	5.32654	13.3309	10.6785	-1.63985	6.0257	34.2572
1030409	4.92128	5.32654	13.3309	10.6785	-1.63985	6.0257	34.2572
1030419	4.89538	5.36399	13.3519	10.6506	-1.62913	6.0168	34.2619
1030429	4.86084	5.35463	13.3624	10.6413	-1.62725	6.04408	34.2192
1030439	4.86084	5.35463	13.3624	10.6413	-1.62725	6.04408	34.2192
1030449	4.93855	5.39207	13.3414	10.632	-1.64402	5.96552	34.304
1030469	4.86084	5.34526	13.2362	10.632	-1.5553	6.01425	34.0743
1030479	4.84358	5.3359	13.2573	10.6041	-1.58698	6.02887	34.0408
1030490	4.84358	5.3359	13.2573	10.6041	-1.58698	6.02887	34.0408
1030500	4.91265	5.2891	13.3939	10.5668	-1.79339	6.04128	34.1625
1030510	4.86948	5.38271	13.3834	10.6041	-1.65462	6.01727	34.2397
1030531	4.86948	5.38271	13.3834	10.6041	-1.65462	6.01727	34.2397
1030533	4.95582	5.39207	13.2888	10.632	-1.61997	5.94109	34.2687
1030543	4.90401	5.36399	13.3939	10.5947	-1.70713	6.00789	34.2567
1030551	4.90401	5.36399	13.3939	10.5947	-1.70713	6.00789	34.2567
1030563	4.89538	5.39207	13.3309	10.6227	-1.61466	5.98672	34.241
1030571	4.89538	5.39207	13.3309	10.6227	-1.61466	5.98672	34.241
1030581	4.86084	5.35463	13.2678	10.632	-1.56969	6.0168	34.1152
1030591	4.91265	5.39207	13.3624	10.6972	-1.59018	6.00399	34.3643
1030601	4.91265	5.39207	13.3624	10.6972	-1.59018	6.00399	34.3643
1030611	4.93855	5.36399	13.3519	10.6134	-1.6875	5.98057	34.2678
1030621	4.93855	5.38271	13.2783	10.6041	-1.63	5.94722	34.2036
1030633	4.93855	5.38271	13.2783	10.6041	-1.63	5.94722	34.2036
1030641	4.92991	5.37335	13.3519	10.6041	-1.68159	5.97767	34.2592
1030651	4.92991	5.37335	13.3519	10.6041	-1.68159	5.97767	34.2592
1030669	4.90401	5.40143	13.3414	10.5947	-1.64216	5.97111	34.2416
1030675	4.86948	5.40143	13.3203	10.6599	-1.55358	6.00389	34.2512
1030684	4.86948	5.40143	13.3203	10.6599	-1.55358	6.00389	34.2512
1030693	4.94718	5.36399	13.3414	10.6785	-1.63557	5.98965	34.3311
1030703	4.88674	5.39207	13.3414	10.6599	-1.58702	6.00456	34.2801
1030713	4.88674	5.39207	13.3414	10.6599	-1.58702	6.00456	34.2801
1030723	4.88674	5.40143	13.3098	10.6041	-1.60158	5.97583	34.2021
1030734	4.88674	5.40143	13.3098	10.6041	-1.60158	5.97583	34.2021
1030743	4.82631	5.40143	13.2468	10.6041	-1.51677	5.99633	34.0785
1030753	4.92991	5.40143	13.3203	10.6134	-1.63101	5.95462	34.2651
1030773	4.89538	5.39207	13.2678	10.6041	-1.58598	5.96517	34.1593
1030783	4.84358	5.34526	13.2152	10.632	-1.52892	6.01937	34.036
1030794	4.84358	5.34526	13.2152	10.632	-1.52892	6.01937	34.036
1030804	4.90401	5.42015	13.2573	10.5947	-1.57009	5.9374	34.1762
1030814	4.90401	5.42015	13.2573	10.5947	-1.57009	5.9374	34.1762
1030824	4.88674	5.39207	13.2257	10.5575	-1.58747	5.94698	34.062
1030836	4.87811	5.40143	13.3309	10.6878	-1.54505	6.00869	34.2982
1030844	4.87811	5.40143	13.3309	10.6878	-1.54505	6.00869	34.2982
1030854	4.91265	5.40143	13.3203	10.6134	-1.61923	5.96519	34.2478
1030864	4.89538	5.44824	13.3414	10.6041	-1.59268	5.95021	34.289
1030875	4.89538	5.44824	13.3414	10.6041	-1.59268	5.95021	34.289
1030884	4.91265	5.4576	13.3203	10.5668	-1.61175	5.91854	34.2574
1030904	4.89538	5.42952	13.2573	10.5296	-1.60763	5.91964	34.1117
1030917	4.94718	5.48568	13.2993	10.6134	-1.56313	5.88715	34.3455
1030924	4.94718	5.48568	13.2993	10.6134	-1.56313	5.88715	34.3455
1030946	4.93855	5.44824	13.1732	10.5389	-1.55767	5.86175	34.0988
1030948	4.96445	5.44824	13.3309	10.5389	-1.68321	5.88803	34.2824
1030965	4.93855	5.46696	13.2678	10.5947	-1.5646	5.89048	34.268
1030984	4.92991	5.47632	13.2468	10.5947	-1.53704	5.88445	34.2477
1030994	4.94718	5.44824	13.2573	10.5854	-1.58506	5.89136	34.2381
1031015	5.02489	5.52313	13.1837	10.5668	-1.54425	5.77393	34.2985
1031025	5.02489	5.48568	13.2783	10.511	-1.68116	5.80703	34.2998
1031042	5.02489	5.48568	13.2783	10.511	-1.68116	5.80703	34.2998
1031045	4.92128	5.48568	13.2888	10.5296	-1.60322	5.87784	34.2253
1031065	4.93855	5.44824	13.3098	10.5203	-1.66576	5.89328	34.2169
1031075	4.99035	5.39207	13.2468	10.5016	-1.71648	5.87415	34.1308
1031085	4.99035	5.39207	13.2468	10.5016	-1.71648	5.87415	34.1308
1031095	4.94718	5.51377	13.2993	10.5296	-1.60628	5.84777	34.2898
1031106	4.93855	5.42952	13.2678	10.4551	-1.70259	5.87611	34.0909
1031116	4.93855	5.42952	13.2678	10.4551	-1.70259	5.87611	34.0909
1031126	4.92991	5.49504	13.2993	10.483	-1.64524	5.85725	34.2073
1031148	4.92128	5.42015	13.2362	10.4923	-1.64737	5.89395	34.07
1031156	4.97308	5.47632	13.2678	10.5575	-1.60982	5.85383	34.2747
1031169	4.97308	5.47632	13.2678	10.5575	-1.60982	5.85383	34.2747
1031176	4.93855	5.46696	13.3098	10.4923	-1.67293	5.87441	34.2077
1031189	4.94718	5.49504	13.3098	10.5296	-1.62798	5.86196	34.2816
1031196	4.94718	5.49504	13.3098	10.5296	-1.62798	5.86196	34.2816
1031206	4.94718	5.55121	13.3098	10.5947	-1.53407	5.84522	34.403
1031216	4.94718	5.55121	13.3098	10.5947	-1.53407	5.84522	34.403
1031226	4.91265	5.46696	13.2783	10.5389	-1.59744	5.89422	34.1968
1031236	4.95582	5.42952	13.3098	10.511	-1.69939	5.89169	34.2061
1031246	4.95582	5.42952	13.3098	10.511	-1.69939	5.89169	34.2061
1031258	5.00762	5.43888	13.3098	10.5203	-1.72006	5.85688	34.2766
1031279	4.93855	5.4576	13.2468	10.5203	-1.61536	5.87074	34.1632
1031286	4.97308	5.46696	13.3309	10.5016	-1.70351	5.86145	34.2725
1031303	4.97308	5.46696	13.3309	10.5016	-1.70351	5.86145	34.2725
1031309	4.92991	5.46696	13.3203	10.5389	-1.63797	5.89487	34.2561
1031320	4.96445	5.43888	13.2573	10.4923	-1.67666	5.8617	34.1529
1031331	4.96445	5.43888	13.2573	10.4923	-1.67666	5.8617	34.1529
1031336	4.90401	5.42952	13.2993	10.5016	-1.66413	5.9181	34.1345
1031348	4.90401	5.42952	13.2993	10.5016	-1.66413	5.9181	34.1345
1031358	4.93855	5.39207	13.3098	10.4923	-1.73146	5.92021	34.1328
1031370	4.99035	5.48568	13.3203	10.5203	-1.67903	5.84173	34.3166
1031376	4.99035	5.48568	13.3203	10.5203	-1.67903	5.84173	34.3166
1031387	4.97308	5.4576	13.3729	10.483	-1.75387	5.87339	34.2866
1031397	4.95582	5.41079	13.3098	10.483	-1.73585	5.89569	34.1595
1031407	4.95582	5.41079	13.3098	10.483	-1.73585	5.89569	34.1595
1031417	4.93855	5.43888	13.3519	10.4644	-1.74531	5.89532	34.1937
1031426	4.93855	5.43888	13.3519	10.4644	-1.74531	5.89532	34.1937
1031436	4.98172	5.34526	13.3519	10.483	-1.83341	5.93114	34.1619
1031453	4.98172	5.39207	13.3939	10.5296	-1.78878	5.926	34.2973
1031458	4.98172	5.39207	13.3939	10.5296	-1.78878	5.926	34.2973
1031468	4.96445	5.46696	13.4045	10.483	-1.76209	5.88134	34.3189
1031481	4.99035	5.39207	13.3624	10.4365	-1.84619	5.88763	34.1813
1031487	4.99035	5.39207	13.3624	10.4365	-1.84619	5.88763	34.1813
1031497	4.94718	5.43888	13.415	10.4551	-1.80127	5.90435	34.2561
1031507	4.94718	5.43888	13.415	10.4551	-1.80127	5.90435	34.2561
1031517	4.90401	5.40143	13.415	10.5668	-1.714	5.98313	34.2872
1031528	4.92991	5.39207	13.4675	10.4923	-1.83263	5.96725	34.2818
1031555	4.95582	5.42015	13.3939	10.511	-1.76385	5.91974	34.2809
1031560	4.92991	5.38271	13.3309	10.4737	-1.76183	5.93188	34.1172
1031569	4.92991	5.38271	13.3309	10.4737	-1.76183	5.93188	34.1172
1031579	4.96445	5.42952	13.4465	10.4737	-1.82703	5.91283	34.3142
1031591	4.96445	5.42952	13.4465	10.4737	-1.82703	5.91283	34.3142
1031599	4.91265	5.37335	13.3519	10.3992	-1.83032	5.93402	34.0371
1031611	4.89538	5.36399	13.3309	10.5016	-1.73106	5.97201	34.0919
1031619	4.89538	5.36399	13.3309	10.5016	-1.73106	5.97201	34.0919
1031633	4.92991	5.39207	13.415	10.4737	-1.81164	5.94845	34.2107
1031639	4.95582	5.38271	13.4465	10.5296	-1.81413	5.96141	34.3146
1031659	4.97308	5.42952	13.478	10.5016	-1.83232	5.92329	34.3823
1031679	4.93855	5.42952	13.478	10.4644	-1.83812	5.9345	34.3105
1031689	4.92128	5.42952	13.415	10.5203	-1.74012	5.94314	34.286
1031699	4.92128	5.42952	13.415	10.5203	-1.74012	5.94314	34.286
1031709	4.88674	5.42015	13.415	10.4923	-1.74578	5.96261	34.2142
1031720	4.87811	5.39207	13.4255	10.4644	-1.79092	5.98054	34.1601
1031739	4.92991	5.39207	13.3624	10.5016	-1.75408	5.94193	34.186
1031761	4.86948	5.37335	13.3834	10.4551	-1.77844	5.98378	34.0813
1031770	4.88674	5.40143	13.436	10.4737	-1.78929	5.97473	34.1979
1031781	4.88674	5.40143	13.436	10.4737	-1.78929	5.97473	34.1979
1031790	4.91265	5.3359	13.3519	10.5389	-1.74999	5.99407	34.1393
1031802	4.90401	5.34526	13.415	10.5854	-1.74329	6.02245	34.2497
1031824	4.91265	5.37335	13.436	10.5854	-1.7415	6.00545	34.3074
1031830	4.91265	5.37335	13.436	10.5854	-1.7415	6.00545	34.3074
1031840	4.86084	5.38271	13.4045	10.6041	-1.66306	6.02808	34.2521
1031851	4.81767	5.40143	13.415	10.6134	-1.61899	6.04829	34.2474
1031871	4.87811	5.35463	13.4465	10.5854	-1.73981	6.04086	34.2647
1031886	4.84358	5.35463	13.3834	10.7251	-1.56478	6.08204	34.3067
1031891	4.84358	5.35463	13.3834	10.7251	-1.56478	6.08204	34.3067
1031904	4.83494	5.31718	13.415	10.6785	-1.64561	6.10649	34.2456
1031912	4.82631	5.32654	13.3729	10.6692	-1.61095	6.09268	34.195
1031923	4.82631	5.32654	13.3729	10.6692	-1.61095	6.09268	34.195
1031932	4.78314	5.3359	13.5096	10.6599	-1.67469	6.14657	34.2885
1031942	4.78314	5.3359	13.5096	10.6599	-1.67469	6.14657	34.2885
1031952	4.81767	5.31718	13.3939	10.6878	-1.61222	6.1141	34.2166
1031962	4.83494	5.31718	13.4465	10.7251	-1.63093	6.12673	34.3237
1031973	4.83494	5.31718	13.4465	10.7251	-1.63093	6.12673	34.3237
1031984	4.83494	5.29846	13.3834	10.6972	-1.62416	6.11468	34.214
1031994	4.85221	5.29846	13.4465	10.6972	-1.67892	6.1204	34.2943
1032003	4.85221	5.29846	13.4465	10.7344	-1.64999	6.13003	34.3316
1032014	4.78314	5.25165	13.3624	10.7437	-1.57449	6.18231	34.1409
1032023	4.78314	5.25165	13.3624	10.7437	-1.57449	6.18231	34.1409
1032036	4.80041	5.20485	13.2993	10.7437	-1.57951	6.18435	34.0483
1032043	4.81767	5.2891	13.415	10.7065	-1.63395	6.14172	34.2282
1032056	4.81767	5.2891	13.415	10.7065	-1.63395	6.14172	34.2282
1032062	4.83494	5.32654	13.4045	10.7344	-1.58779	6.11249	34.3003
1032073	4.83494	5.32654	13.4045	10.7344	-1.58779	6.11249	34.3003
1032085	4.80904	5.27974	13.3939	10.6599	-1.65726	6.13533	34.1426
1032092	4.86948	5.31718	13.3939	10.632	-1.69108	6.06762	34.2126
1032103	4.86948	5.31718	13.3939	10.632	-1.69108	6.06762	34.2126
1032112	4.81767	5.29846	13.3834	10.6599	-1.64137	6.11567	34.1595
1032123	4.85221	5.35463	13.3203	10.7065	-1.54195	6.05544	34.2336
1032133	4.85221	5.35463	13.3203	10.7065	-1.54195	6.05544	34.2336
1032142	4.90401	5.38271	13.4045	10.6134	-1.68519	6.00406	34.3045
1032152	4.90401	5.38271	13.4045	10.6134	-1.68519	6.00406	34.3045
1032167	4.86084	5.37335	13.3309	10.5854	-1.63462	6.00962	34.1505
1032172	4.91265	5.38271	13.3729	10.5575	-1.71314	5.97579	34.2258
1032185	4.91265	5.38271	13.3729	10.5575	-1.71314	5.97579	34.2258
1032194	4.90401	5.40143	13.436	10.5296	-1.75732	5.97887	34.271
1032207	4.88674	5.3359	13.4991	10.5761	-1.80317	6.05835	34.2978
1032214	4.88674	5.3359	13.4991	10.5761	-1.80317	6.05835	34.2978
1032224	4.95582	5.42015	13.5306	10.6413	-1.7548	5.98992	34.5479
1032234	4.95582	5.42015	13.5306	10.6413	-1.7548	5.98992	34.5479
1032244	4.87811	5.34526	13.4886	10.5761	-1.7829	6.05516	34.2881
1032255	4.88674	5.3359	13.3939	10.6041	-1.71003	6.03817	34.2206
1032265	4.88674	5.3359	13.3939	10.6041	-1.71003	6.03817	34.2206
1032275	4.86084	5.30782	13.3519	10.4923	-1.77328	6.03105	34.0129
1032285	4.88674	5.32654	13.2678	10.4923	-1.71873	5.98122	33.9734
1032296	4.88674	5.32654	13.2678	10.4923	-1.71873	5.98122	33.9734
1032305	4.93855	5.3359	13.2993	10.5203	-1.74642	5.95931	34.094
1032315	4.93855	5.3359	13.2993	10.5203	-1.74642	5.95931	34.094
1032325	4.88674	5.3359	13.3203	10.483	-1.75466	5.98691	34.026
1032335	4.86948	5.38271	13.4045	10.6134	-1.6617	6.02522	34.27
1032356	4.86084	5.35463	13.2888	10.5668	-1.63497	6.00515	34.0711
1032377	4.80041	5.42015	13.3729	10.632	-1.54942	6.04126	34.2255
1032378	4.80041	5.42015	13.3729	10.632	-1.54942	6.04126	34.2255
1032385	4.86084	5.47632	13.4255	10.6134	-1.59751	5.97874	34.376
1032395	4.86084	5.47632	13.4255	10.6134	-1.59751	5.97874	34.376
1032406	4.80904	5.38271	13.3939	10.5854	-1.63504	6.05231	34.1711
1032416	4.85221	5.41079	13.4045	10.6041	-1.63534	6.01615	34.2715
1032426	4.85221	5.41079	13.4045	10.6041	-1.63534	6.01615	34.2715
1032436	4.85221	5.37335	13.3624	10.5389	-1.68663	6.01098	34.1268
1032446	4.86084	5.38271	13.3729	10.5947	-1.64881	6.01737	34.2112
1032466	4.89538	5.43888	13.3624	10.5761	-1.63598	5.95411	34.2728
1032486	4.89538	5.35463	13.3519	10.5761	-1.69445	6.00298	34.178
1032496	4.86084	5.43888	13.2993	10.6134	-1.54032	5.96843	34.2124
1032518	4.91265	5.36399	13.2783	10.6413	-1.59788	5.98441	34.1962
1032529	4.92991	5.44824	13.2888	10.6227	-1.56593	5.92015	34.2896
1032538	4.92991	5.44824	13.2888	10.6227	-1.56593	5.92015	34.2896
1032551	4.91265	5.43888	13.2362	10.632	-1.51815	5.92496	34.2197
1032558	4.92128	5.43888	13.2468	10.632	-1.53128	5.92247	34.2389
1032571	4.92128	5.38271	13.2468	10.5854	-1.61112	5.94451	34.1362
1032577	4.86948	5.49504	13.2783	10.6692	-1.44519	5.938	34.312
1032587	4.86948	5.49504	13.2783	10.6692	-1.44519	5.938	34.312
1032604	4.90401	5.39207	13.2152	10.6506	-1.51964	5.95828	34.1619
1032614	4.92991	5.4576	13.2152	10.6599	-1.47946	5.9048	34.2626
1032619	4.92991	5.4576	13.2152	10.6599	-1.47946	5.9048	34.2626
1032629	4.86084	5.43888	13.2362	10.632	-1.48255	5.95668	34.1679
1032640	4.86084	5.43888	13.2362	10.632	-1.48255	5.95668	34.1679
1032649	4.92128	5.47632	13.2047	10.6692	-1.44466	5.89833	34.2715
1032659	4.92128	5.42015	13.1942	10.6134	-1.52417	5.91501	34.149
1032669	4.92128	5.42015	13.1942	10.6134	-1.52417	5.91501	34.149
1032682	4.90401	5.42015	13.2468	10.6041	-1.55564	5.93708	34.175
1032689	4.86948	5.4576	13.2047	10.6413	-1.44506	5.93402	34.1731
1032699	4.86948	5.4576	13.2047	10.6413	-1.44506	5.93402	34.1731
1032709	4.96445	5.51377	13.2573	10.5854	-1.54608	5.84097	34.3209
1032720	4.96445	5.51377	13.2573	10.5854	-1.54608	5.84097	34.3209
1032729	4.89538	5.41079	13.2573	10.5947	-1.57145	5.94843	34.1582
1032739	4.94718	5.50441	13.2047	10.6041	-1.4911	5.84809	34.2603
1032749	4.94718	5.50441	13.2047	10.6041	-1.4911	5.84809	34.2603
1032759	4.89538	5.4576	13.2362	10.5761	-1.53511	5.90923	34.1653
1032769	4.89538	5.4576	13.1732	10.6134	-1.46281	5.90235	34.1395
1032781	4.89538	5.4576	13.1732	10.6134	-1.46281	5.90235	34.1395
1032789	4.93855	5.53249	13.2152	10.5668	-1.49947	5.82911	34.2531
1032802	4.93855	5.53249	13.2152	10.5668	-1.49947	5.82911	34.2531
1032810	4.90401	5.51377	13.2573	10.5668	-1.51912	5.87277	34.2419
1032824	4.91265	5.47632	13.2468	10.5761	-1.53964	5.89002	34.2118
1032830	4.91265	5.47632	13.2468	10.5761	-1.53964	5.89002	34.2118
1032840	4.90401	5.43888	13.1416	10.5203	-1.53397	5.8752	34.0048
1032850	4.92991	5.49504	13.2573	10.5296	-1.58028	5.85845	34.2118
1032860	4.92991	5.49504	13.2573	10.5296	-1.58028	5.85845	34.2118
1032870	4.95582	5.56057	13.2257	10.511	-1.54002	5.78939	34.2531
1032880	4.95582	5.56057	13.2257	10.511	-1.54002	5.78939	34.2531
1032893	4.92128	5.48568	13.2152	10.5854	-1.50944	5.87312	34.2076
1032900	4.91265	5.51377	13.2047	10.5296	-1.51783	5.8435	34.1607
1032916	4.91265	5.51377	13.2047	10.5296	-1.51783	5.8435	34.1607
1032920	4.88674	5.52313	13.2047	10.511	-1.5072	5.8486	34.1255
1032931	4.88674	5.47632	13.2678	10.5389	-1.56522	5.90154	34.1697
1032941	4.88674	5.47632	13.2678	10.5389	-1.56522	5.90154	34.1697
1032950	4.96445	5.54185	13.2152	10.5389	-1.5316	5.80019	34.2604
1032970	4.87811	5.46696	13.1942	10.5016	-1.54498	5.88296	34.0409
1032990	4.98172	5.55121	13.3309	10.5016	-1.64389	5.80507	34.3654
1032991	4.98172	5.55121	13.3309	10.5016	-1.64389	5.80507	34.3654
1033003	4.96445	5.50441	13.2257	10.3899	-1.68394	5.78568	34.0845
1033011	4.92991	5.53249	13.2047	10.4737	-1.55855	5.80654	34.1408
1033026	4.92991	5.53249	13.2047	10.4737	-1.55855	5.80654	34.1408
1033031	4.96445	5.54185	13.1942	10.4272	-1.60399	5.76441	34.1276
1033043	4.96445	5.54185	13.1942	10.4272	-1.60399	5.76441	34.1276
1033051	4.96445	5.53249	13.1416	10.4458	-1.56069	5.76091	34.0843
1033061	4.99035	5.55121	13.1626	10.3992	-1.61461	5.72684	34.1034
1033083	4.95582	5.5793	13.1521	10.4179	-1.54728	5.73296	34.1051
1033093	4.92991	5.59802	13.2573	10.4272	-1.57984	5.76831	34.2124
1033103	4.92991	5.59802	13.2573	10.4272	-1.57984	5.76831	34.2124
1033115	5.00762	5.5793	13.2257	10.4272	-1.62595	5.72403	34.2398
1033123	4.97308	5.5793	13.3098	10.4272	-1.65974	5.76766	34.2894
1033133	4.97308	5.5793	13.3098	10.4458	-1.64527	5.77267	34.308
1033144	5.02489	5.56057	13.2783	10.5389	-1.60142	5.7692	34.4026
1033153	5.02489	5.56057	13.2783	10.5389	-1.60142	5.7692	34.4026
1033163	4.98172	5.54185	13.1732	10.511	-1.53626	5.77087	34.2077
1033173	4.94718	5.5793	13.2047	10.4458	-1.55573	5.76002	34.177
1033183	4.94718	5.5793	13.2047	10.4458	-1.55573	5.76002	34.177
1033193	4.97308	5.63546	13.3098	10.4458	-1.60172	5.73871	34.3642
1033204	4.97308	5.63546	13.3098	10.4458	-1.60172	5.73871	34.3642
1033212	4.99898	5.50441	13.2257	10.3713	-1.72212	5.7596	34.1004
1033231	4.99898	5.50441	13.2888	10.3899	-1.75052	5.78168	34.1821
1033240	4.99898	5.50441	13.2888	10.3899	-1.75052	5.78168	34.1821
1033254	4.94718	5.53249	13.2468	10.4644	-1.60646	5.80484	34.1908
1033256	4.92128	5.55121	13.2257	10.4644	-1.55974	5.80355	34.1626
1033265	4.92128	5.55121	13.2257	10.4644	-1.55974	5.80355	34.1626
1033276	4.95582	5.4576	13.1626	10.511	-1.57678	5.83515	34.087
1033286	4.99898	5.51377	13.2678	10.4923	-1.64902	5.79789	34.2729
1033298	4.99898	5.51377	13.2678	10.4923	-1.64902	5.79789	34.2729
1033306	4.97308	5.48568	13.2047	10.483	-1.61735	5.81126	34.1465
1033320	4.97308	5.48568	13.2047	10.483	-1.61735	5.81126	34.1465
1033326	4.99898	5.44824	13.2678	10.4737	-1.71461	5.83275	34.1887
1033336	4.93855	5.46696	13.2573	10.5296	-1.60802	5.87032	34.1923
1033346	4.93855	5.46696	13.2573	10.5296	-1.60802	5.87032	34.1923
1033358	4.91265	5.46696	13.2993	10.4737	-1.6626	5.88246	34.1526
1033366	4.95582	5.43888	13.2783	10.511	-1.67058	5.87757	34.1839
1033376	4.95582	5.43888	13.2783	10.511	-1.67058	5.87757	34.1839
1033386	4.94718	5.47632	13.2257	10.5668	-1.55612	5.86086	34.216
1033396	4.94718	5.47632	13.2257	10.5668	-1.55612	5.86086	34.216
1033407	4.93855	5.44824	13.2678	10.5761	-1.59358	5.89695	34.2307
1033416	4.98172	5.44824	13.2993	10.5668	-1.65178	5.87655	34.2961
1033426	4.98172	5.44824	13.2993	10.5668	-1.65178	5.87655	34.2961
1033436	4.98172	5.36399	13.2362	10.5296	-1.70353	5.90128	34.1115
1033446	4.95582	5.32654	13.2468	10.5575	-1.70047	5.95039	34.0866
1033458	4.95582	5.32654	13.2468	10.5575	-1.70047	5.95039	34.0866
1033469	4.98172	5.3359	13.2468	10.6785	-1.61642	5.9608	34.2429
1033478	4.98172	5.3359	13.2468	10.6785	-1.61642	5.9608	34.2429
1033490	4.95582	5.37335	13.2468	10.7065	-1.54799	5.9611	34.2824
1033497	5.01625	5.39207	13.2362	10.6506	-1.61088	5.89523	34.2952
1033511	5.01625	5.39207	13.2362	10.6506	-1.61088	5.89523	34.2952
1033518	4.97308	5.41079	13.1837	10.5854	-1.58151	5.8788	34.153
1033528	4.98172	5.35463	13.1626	10.5668	-1.63135	5.89731	34.0658
1033538	4.98172	5.35463	13.1626	10.5668	-1.63135	5.89731	34.0658
1033548	4.99035	5.38271	13.1837	10.5668	-1.62974	5.88044	34.1235
1033559	4.99035	5.38271	13.1837	10.5668	-1.62974	5.88044	34.1235
1033568	4.95582	5.37335	13.2468	10.5482	-1.67112	5.91918	34.1241
1033579	4.99035	5.34526	13.2047	10.632	-1.62252	5.92632	34.1723
1033588	4.99035	5.34526	13.2047	10.632	-1.62252	5.92632	34.1723
1033605	5.00762	5.36399	13.2783	10.6227	-1.67718	5.92137	34.2726
1033609	4.94718	5.3359	13.3729	10.6413	-1.70779	6.00534	34.2973
1033620	4.94718	5.3359	13.3729	10.6413	-1.70779	6.00534	34.2973
1033628	4.98172	5.31718	13.3414	10.6227	-1.73893	5.98247	34.2629
1033638	4.98172	5.31718	13.3414	10.6227	-1.73893	5.98247	34.2629
1033647	5.03352	5.30782	13.3414	10.6227	-1.78135	5.95652	34.3054
1033665	5.00762	5.27974	13.4045	10.632	-1.82115	6.00855	34.3238
1033668	5.00762	5.27974	13.4045	10.632	-1.82115	6.00855	34.3238
1033678	4.97308	5.27974	13.4045	10.5668	-1.84883	6.01263	34.2241
1033688	4.92991	5.27037	13.4255	10.5668	-1.84119	6.05044	34.1926
1033699	4.92991	5.27037	13.4255	10.5668	-1.84119	6.05044	34.1926
1033709	4.92128	5.20485	13.4255	10.5947	-1.86489	6.10348	34.1463
1033719	4.92128	5.20485	13.4255	10.5947	-1.86489	6.10348	34.1463
1033732	4.95582	5.14868	13.457	10.5016	-2.02749	6.1008	34.0632
1033739	4.97308	5.24229	13.5411	10.5482	-1.98495	6.06649	34.3047
1033749	4.97308	5.24229	13.5411	10.5482	-1.98495	6.06649	34.3047
1033759	5.00762	5.2891	13.5201	10.5854	-1.92806	6.02089	34.4022
1033770	4.91265	5.24229	13.5937	10.5668	-1.96503	6.12213	34.3154
1033779	4.91265	5.24229	13.5937	10.5668	-1.96503	6.12213	34.3154
1033789	4.96445	5.20485	13.5832	10.5575	-2.0295	6.10816	34.31
1033801	4.96445	5.20485	13.5832	10.5575	-2.0295	6.10816	34.31
1033809	4.94718	5.22357	13.5622	10.5389	-2.00375	6.09698	34.2718
1033819	4.93855	5.23293	13.5306	10.6134	-1.91085	6.10767	34.3155
1033829	4.93855	5.23293	13.5306	10.6134	-1.91085	6.10767	34.3155
1033840	4.91265	5.20485	13.5832	10.6692	-1.90702	6.16888	34.3699
1033849	4.91265	5.20485	13.5832	10.6692	-1.90702	6.16888	34.3699
1033866	4.80904	5.21421	13.5096	10.6413	-1.80189	6.20102	34.1741
1033885	4.88674	5.12996	13.5516	10.6972	-1.90518	6.23021	34.2655
1033887	4.88674	5.12996	13.5516	10.6972	-1.90518	6.23021	34.2655
1033890	4.92991	5.14868	13.3098	10.6599	-1.78508	6.11975	34.0483
1033900	4.87811	5.17676	13.4255	10.7344	-1.7481	6.18374	34.2147
1033910	4.87811	5.17676	13.4255	10.7344	-1.7481	6.18374	34.2147
1033920	4.86084	5.15804	13.4045	10.7251	-1.74399	6.19823	34.1484
1033930	4.82631	5.18612	13.4045	10.7344	-1.69118	6.20463	34.1513
1033940	4.82631	5.18612	13.4045	10.7344	-1.69118	6.20463	34.1513
1033950	4.80041	5.19548	13.4255	10.7716	-1.65149	6.22988	34.193
1033960	4.80041	5.19548	13.4255	10.7716	-1.65149	6.22988	34.193
1033972	4.80904	5.22357	13.4045	10.7344	-1.65016	6.19211	34.1715
1033980	4.86948	5.25165	13.3834	10.7623	-1.63345	6.13914	34.2669
1033993	4.86948	5.25165	13.3834	10.7623	-1.63345	6.13914	34.2669
1034001	4.89538	5.27974	13.3414	10.7437	-1.61508	6.09014	34.2602
1034015	4.89538	5.32654	13.3098	10.7344	-1.56443	6.05071	34.2661
1034021	4.89538	5.32654	13.3098	10.7344	-1.56443	6.05071	34.2661
1034031	4.82631	5.3359	13.2678	10.753	-1.4665	6.08135	34.183
1034042	4.82631	5.3359	13.2678	10.753	-1.4665	6.08135	34.183
1034051	4.89538	5.29846	13.2362	10.7251	-1.54302	6.0463	34.1552
1034061	4.84358	5.36399	13.2468	10.7623	-1.43499	6.05035	34.2166
1034088	4.87811	5.34526	13.2468	10.7437	-1.48763	6.03575	34.2138
1034091	4.87811	5.34526	13.2468	10.7437	-1.48763	6.03575	34.2138
1034101	4.79177	5.32654	13.2257	10.753	-1.4209	6.09749	34.0971
1034112	4.86948	5.3359	13.2468	10.7903	-1.45293	6.05899	34.2424
1034124	4.86948	5.3359	13.2468	10.7903	-1.45293	6.05899	34.2424
1034131	4.87811	5.35463	13.2573	10.7344	-1.49481	6.03031	34.2244
1034141	4.79177	5.30782	13.2573	10.8275	-1.39956	6.13665	34.1843
1034151	4.79177	5.30782	13.2573	10.8275	-1.39956	6.13665	34.1843
1034161	4.85221	5.2891	13.2573	10.8275	-1.45568	6.11089	34.2261
1034171	4.85221	5.2891	13.2573	10.8275	-1.45568	6.11089	34.2261
1034184	4.86084	5.23293	13.2678	10.7809	-1.54847	6.1309	34.1425
1034191	4.82631	5.23293	13.2888	10.7623	-1.55368	6.15292	34.1104
1034201	4.82631	5.23293	13.2888	10.7623	-1.55368	6.15292	34.1104
1034219	4.80904	5.26101	13.2573	10.8461	-1.43327	6.15975	34.1734
1034223	4.80904	5.15804	13.3203	10.8927	-1.52039	6.25185	34.1801
1034233	4.80904	5.15804	13.3203	10.8927	-1.52039	6.25185	34.1801
1034243	4.7745	5.20485	13.3203	10.8834	-1.46758	6.24184	34.183
1034254	4.78314	5.18612	13.3834	10.9206	-1.50252	6.27373	34.2733
1034264	4.78314	5.18612	13.3834	10.9206	-1.50252	6.27373	34.2733
1034274	4.80041	5.17676	13.2993	10.874	-1.49992	6.23542	34.1505
1034296	4.73134	5.17676	13.3203	10.8927	-1.45237	6.28859	34.1211
1034304	4.80904	5.20485	13.3519	10.9113	-1.49138	6.23564	34.2771
1034317	4.80904	5.20485	13.3519	10.9113	-1.49138	6.23564	34.2771
1034325	4.84358	5.25165	13.2888	10.7996	-1.52205	6.14029	34.1836
1034334	4.85221	5.23293	13.2993	10.8182	-1.53527	6.15407	34.2026
1034344	4.85221	5.23293	13.2993	10.8182	-1.53527	6.15407	34.2026
1034354	4.82631	5.2891	13.3098	10.8461	-1.45962	6.14531	34.2713
1034364	4.82631	5.2891	13.3098	10.8461	-1.45962	6.14531	34.2713
1034374	4.80904	5.24229	13.2993	10.7623	-1.54175	6.16055	34.113
1034384	4.81767	5.25165	13.3203	10.7437	-1.56933	6.15002	34.1334
1034395	4.81767	5.25165	13.3203	10.7437	-1.56933	6.15002	34.1334
1034404	4.81767	5.2891	13.3203	10.7996	-1.4969	6.14132	34.2267
1034414	4.81767	5.2891	13.3414	10.7996	-1.51133	6.14676	34.2477
1034424	4.80904	5.31718	13.3414	10.7437	-1.52693	6.12028	34.2113
1034434	4.82631	5.2891	13.4045	10.7716	-1.58205	6.15051	34.2915
1034444	4.82631	5.2891	13.4045	10.7716	-1.58205	6.15051	34.2915
1034455	4.87811	5.23293	13.3834	10.7809	-1.63941	6.15018	34.2754
1034465	4.84358	5.21421	13.4255	10.7623	-1.67359	6.18913	34.2456
1034475	4.84358	5.21421	13.4255	10.7623	-1.67359	6.18913	34.2456
1034485	4.85221	5.29846	13.415	10.7158	-1.64298	6.11705	34.2814
1034495	4.85221	5.29846	13.415	10.7158	-1.64298	6.11705	34.2814
1034507	4.86948	5.24229	13.4255	10.6785	-1.73468	6.13412	34.2158
1034529	4.83494	5.29846	13.3939	10.6878	-1.63859	6.115	34.2152
1034530	4.83494	5.29846	13.3939	10.6878	-1.63859	6.115	34.2152
1034536	4.80904	5.20485	13.436	10.6692	-1.73727	6.19506	34.1191
1034549	4.83494	5.19548	13.436	10.7344	-1.71126	6.20159	34.2008
1034556	4.83494	5.19548	13.436	10.7344	-1.71126	6.20159	34.2008
1034566	4.86084	5.27974	13.5516	10.753	-1.72719	6.16808	34.4452
1034576	4.82631	5.19548	13.5516	10.7344	-1.7839	6.23658	34.3078
1034596	4.87811	5.21421	13.5937	10.6972	-1.8617	6.19425	34.3832
1034626	4.85221	5.17676	13.5727	10.6506	-1.89587	6.21607	34.2522
1034627	4.83494	5.12996	13.5727	10.6972	-1.88442	6.26772	34.2347
1034636	4.83494	5.12996	13.5727	10.6972	-1.88442	6.26772	34.2347
1034646	4.83494	5.12059	13.5622	10.6413	-1.92863	6.25659	34.159
1034656	4.80041	5.08315	13.5622	10.6785	-1.90545	6.31097	34.1242
1034666	4.80041	5.08315	13.5622	10.6785	-1.90545	6.31097	34.1242
1034676	4.79177	5.13932	13.6568	10.6599	-1.93393	6.30067	34.2478
1034686	4.79177	5.13932	13.6568	10.6599	-1.93393	6.30067	34.2478
1034698	4.80041	5.10187	13.6357	10.5947	-2.00653	6.29668	34.1328
1034706	4.79177	5.12059	13.7304	10.6227	-2.02746	6.32154	34.2654
1034719	4.79177	5.12059	13.7304	10.6227	-2.02746	6.32154	34.2654
1034726	4.80041	5.10187	13.6988	10.6972	-1.96818	6.33868	34.2983
1034740	4.80041	5.10187	13.6988	10.6972	-1.96818	6.33868	34.2983
1034746	4.78314	5.02698	13.804	10.7158	-2.07133	6.42718	34.3298
1034756	4.84358	5.07379	13.7093	10.6506	-2.06297	6.32018	34.2773
1034766	4.84358	5.07379	13.7093	10.6506	-2.06297	6.32018	34.2773
1034776	4.80041	5.09251	13.7514	10.6599	-2.04011	6.34837	34.3042
1034786	4.79177	5.0457	13.7514	10.6599	-2.07127	6.38293	34.2488
1034796	4.79177	5.0457	13.7514	10.6599	-2.07127	6.38293	34.2488
1034808	4.82631	5.05507	13.7304	10.6692	-2.06557	6.3526	34.281
1034817	4.82631	5.05507	13.7304	10.6692	-2.06557	6.3526	34.281
1034837	4.76587	5.07379	13.7093	10.6599	-2.0035	6.37097	34.2089
1034841	4.80041	5.08315	13.7093	10.6041	-2.06345	6.32944	34.1969
1034847	4.80041	5.08315	13.7093	10.6041	-2.06345	6.32944	34.1969
1034857	4.7745	5.07379	13.6988	10.632	-2.0243	6.35586	34.1791
1034869	4.80041	5.08315	13.7093	10.6506	-2.02666	6.34122	34.2435
1034881	4.80041	5.08315	13.7093	10.6506	-2.02666	6.34122	34.2435
1034889	4.83494	5.09251	13.7199	10.6599	-2.04211	6.31892	34.3072
1034902	4.83494	5.09251	13.7199	10.6599	-2.04211	6.31892	34.3072
1034909	4.7745	5.13932	13.6988	10.7158	-1.90676	6.33619	34.3284
1034922	4.79177	5.13932	13.7304	10.6599	-1.98339	6.31933	34.3214
1034939	4.7745	5.14868	13.7199	10.6506	-1.96471	6.31922	34.2936
1034949	4.78314	5.08315	13.7093	10.6692	-2.00038	6.35669	34.2449
1034964	4.78314	5.08315	13.7093	10.6692	-2.00038	6.35669	34.2449
1034970	4.80904	5.19548	13.6778	10.6413	-1.9302	6.25571	34.3236
1034980	4.83494	5.06443	13.6568	10.6227	-2.05143	6.31096	34.1788
1034990	4.83494	5.06443	13.6568	10.6227	-2.05143	6.31096	34.1788
1035000	4.89538	5.13932	13.7093	10.7251	-1.98752	6.26636	34.4691
1035010	4.89538	5.13932	13.7093	10.7251	-1.98752	6.26636	34.4691
1035021	4.80904	5.05507	13.6778	10.6227	-2.05557	6.3383	34.1646
1035042	4.78314	5.1674	13.6883	10.6599	-1.92728	6.29659	34.2988
1035047	4.78314	5.1674	13.6883	10.6599	-1.92728	6.29659	34.2988
1035051	4.80041	5.12059	13.7304	10.6506	-2.01124	6.32323	34.302
1035061	4.82631	5.10187	13.5937	10.6692	-1.93684	6.2888	34.1911
1035071	4.82631	5.10187	13.5937	10.6692	-1.93684	6.2888	34.1911
1035081	4.87811	5.12059	13.5727	10.6878	-1.9282	6.24436	34.2592
1035091	4.87811	5.12059	13.5727	10.6878	-1.9282	6.24436	34.2592
1035101	4.83494	5.09251	13.5937	10.6599	-1.95738	6.28688	34.1811
1035113	4.83494	5.1674	13.5937	10.6506	-1.90576	6.23796	34.2466
1035123	4.83494	5.1674	13.5937	10.6506	-1.90576	6.23796	34.2466
1035161	4.86948	5.14868	13.5937	10.7065	-1.89988	6.24244	34.3183
1035167	4.80904	5.05507	13.6042	10.7716	-1.88854	6.35737	34.2399
1035168	4.80904	5.05507	13.6042	10.7716	-1.88854	6.35737	34.2399
1035185	4.82631	5.06443	13.5937	10.6878	-1.95168	6.31687	34.1723
1035191	4.85221	5.12996	13.478	10.7065	-1.82476	6.23517	34.1667
1035202	4.85221	5.12996	13.478	10.7065	-1.82476	6.23517	34.1667
1035213	4.87811	5.13932	13.4675	10.6413	-1.87908	6.19379	34.1263
1035224	4.81767	5.06443	13.4886	10.7065	-1.86	6.30023	34.0771
1035231	4.81767	5.06443	13.4886	10.7065	-1.86	6.30023	34.0771
1035242	4.83494	5.14868	13.5937	10.7437	-1.84745	6.27332	34.321
1035263	4.85221	5.13932	13.5832	10.7716	-1.83749	6.27285	34.3463
1035273	4.87811	5.19548	13.5411	10.7344	-1.81181	6.20187	34.3491
1035285	4.87811	5.19548	13.5411	10.7344	-1.81181	6.20187	34.3491
1035293	4.83494	5.12059	13.4991	10.6878	-1.84929	6.25235	34.1425
1035307	4.89538	5.12059	13.478	10.6506	-1.9053	6.19981	34.1446
1035313	4.89538	5.18612	13.478	10.6506	-1.85376	6.1592	34.2102
1035323	4.88674	5.22357	13.4255	10.6785	-1.76105	6.13502	34.2143
1035333	4.88674	5.22357	13.4255	10.6785	-1.76105	6.13502	34.2143
1035343	4.80041	5.20485	13.4045	10.6599	-1.71715	6.18988	34.0696
1035353	4.83494	5.18612	13.3519	10.6692	-1.7122	6.16884	34.0422
1035363	4.83494	5.18612	13.3519	10.6692	-1.7122	6.16884	34.0422
1035375	4.86948	5.17676	13.415	10.6599	-1.79344	6.16714	34.1211
1035383	4.86948	5.13932	13.4255	10.5947	-1.8814	6.17624	34.029
1035398	4.86948	5.13932	13.4255	10.5947	-1.8814	6.17624	34.029
1035404	4.92128	5.19548	13.4991	10.6878	-1.84895	6.15247	34.3037
1035424	4.92991	5.24229	13.4886	10.632	-1.85477	6.10114	34.2927
1035434	4.95582	5.21421	13.5306	10.6413	-1.91524	6.1158	34.3419
1035446	4.95582	5.21421	13.5306	10.6413	-1.91524	6.1158	34.3419
1035454	4.92128	5.21421	13.4045	10.6134	-1.82864	6.09706	34.1533
1035464	4.92128	5.2891	13.457	10.5947	-1.82013	6.05977	34.2621
1035484	4.93855	5.34526	13.415	10.6413	-1.72317	6.01591	34.3401
1035504	4.95582	5.26101	13.3519	10.5296	-1.84548	6.01114	34.0983
1035514	4.92991	5.2891	13.2888	10.5854	-1.71895	6.00789	34.0933
1035525	4.92991	5.2891	13.2888	10.5854	-1.71895	6.00789	34.0933
1035534	4.97308	5.35463	13.3834	10.4923	-1.83428	5.94152	34.2035
1035546	4.97308	5.35463	13.3834	10.4923	-1.83428	5.94152	34.2035
1035555	4.96445	5.29846	13.3729	10.511	-1.8508	5.98342	34.1468
1035568	4.99035	5.32654	13.3624	10.5016	-1.84647	5.94505	34.1809
1035585	4.99898	5.31718	13.3624	10.5575	-1.81585	5.96027	34.2361
1035595	4.96445	5.30782	13.3834	10.5854	-1.79216	6.00006	34.2411
1035606	4.96445	5.30782	13.3834	10.5854	-1.79216	6.00006	34.2411
1035616	4.98172	5.34526	13.4045	10.5575	-1.81064	5.96474	34.2889
1035626	4.96445	5.31718	13.3624	10.5203	-1.82164	5.9716	34.1643
1035636	4.96445	5.31718	13.3624	10.5203	-1.82164	5.9716	34.1643
1035646	5.00762	5.34526	13.3729	10.5203	-1.83598	5.93074	34.2461
1035658	5.00762	5.34526	13.3729	10.5203	-1.83598	5.93074	34.2461
1035666	4.94718	5.27974	13.4045	10.4644	-1.91189	6.0016	34.0958
