3503388 8.34027 10.2131 17.0787 11.684 -1.86084 3.23654 47.3161
3503397 8.34027 10.2131 17.0787 11.684 -1.86084 3.23654 47.3161
3503407 8.31437 10.1663 17.0689 11.6654 -1.88054 3.25753 47.215
3503416 8.2712 10.1757 17.1378 11.6933 -1.87193 3.29464 47.278
3503427 8.2712 10.1757 17.1378 11.6933 -1.87193 3.29464 47.278
3503437 8.26257 10.2318 17.1969 11.7678 -1.82253 3.30925 47.4591
3503447 8.26257 10.2318 17.1969 11.7678 -1.82253 3.30925 47.4591
3503458 8.2712 10.2225 17.128 11.684 -1.84581 3.2718 47.3056
3503467 8.21077 10.2318 17.1673 11.7492 -1.79327 3.3174 47.3591
3503477 8.21077 10.2318 17.1673 11.7492 -1.79327 3.3174 47.3591
3503489 8.17623 10.2131 17.1673 11.7771 -1.77112 3.3449 47.3338
3503497 8.13306 10.1757 17.2067 11.7771 -1.79046 3.38587 47.2925
3503509 8.13306 10.1757 17.2067 11.7771 -1.79046 3.38587 47.2925
3503519 8.21077 10.2037 17.1772 11.7585 -1.80871 3.33298 47.3502
3503527 8.21077 10.2037 17.1772 11.7585 -1.80871 3.33298 47.3502
3503537 8.2194 10.1195 17.0787 11.7306 -1.82833 3.33112 47.1482
3503547 8.22803 10.2037 17.0492 11.7306 -1.7702 3.28775 47.2116
3503557 8.22803 10.2037 17.0492 11.7306 -1.7702 3.28775 47.2116
3503568 8.21077 10.2693 17 11.7678 -1.67928 3.2661 47.2478
3503578 8.20213 10.2786 17.0098 11.7306 -1.69563 3.25902 47.2212
3503591 8.20213 10.2786 17.0098 11.7306 -1.69563 3.25902 47.2212
3503598 8.2712 10.288 17.0394 11.7306 -1.7389 3.23608 47.3291
3503617 8.2712 10.288 17.0394 11.7306 -1.7389 3.23608 47.3291
3503624 8.22803 10.1569 17.0295 11.7306 -1.78708 3.30102 47.1451
3503633 8.1935 10.2318 17.0197 11.7306 -1.72271 3.28292 47.1756
3503651 8.1935 10.2318 17.0197 11.7306 -1.72271 3.28292 47.1756
3503652 8.23667 10.2131 16.9579 11.684 -1.75058 3.24649 47.0917
3503659 8.2712 10.2131 17.0689 11.7864 -1.76416 3.28615 47.3396
3503680 8.2712 10.3348 17.0886 11.7119 -1.74715 3.22567 47.4065
3503700 8.30574 10.288 17.0886 11.7399 -1.77473 3.23732 47.4222
3503711 8.34027 10.2037 17.0492 11.7306 -1.82529 3.24438 47.3238
3503721 8.34027 10.2037 17.0492 11.7306 -1.82529 3.24438 47.3238
3503732 8.32301 10.2225 17 11.7119 -1.79263 3.22694 47.2574
3503741 8.32301 10.2037 16.979 11.6281 -1.84055 3.208 47.1339
3503753 8.32301 10.2037 16.979 11.6281 -1.84055 3.208 47.1339
3503761 8.33164 10.1944 16.9054 11.6188 -1.81922 3.18751 47.0502
3503771 8.33164 10.1944 16.9054 11.6188 -1.81922 3.18751 47.0502
3503781 8.34891 10.1944 16.9474 11.563 -1.88029 3.17737 47.0537
3503791 8.35754 10.2506 16.9264 11.6654 -1.78391 3.17279 47.1999
3503802 8.35754 10.2506 16.9264 11.6654 -1.78391 3.17279 47.1999
3503812 8.34891 10.2693 16.9159 11.6281 -1.785 3.15693 47.1622
3503824 8.42661 10.2037 17.0098 11.6561 -1.89054 3.18278 47.2963
3503832 8.42661 10.2037 17.0098 11.6561 -1.89054 3.18278 47.2963
3503841 8.39208 10.2131 17.0394 11.6747 -1.8722 3.20447 47.3193
3503852 8.39208 10.2131 17.0394 11.6747 -1.8722 3.20447 47.3193
3503861 8.40934 10.288 17.0098 11.6654 -1.82901 3.15939 47.3726
3503871 8.40071 10.2506 17.0197 11.6654 -1.85083 3.17953 47.3363
3503881 8.40071 10.2506 17.0197 11.6654 -1.85083 3.17953 47.3363
3503891 8.40934 10.2318 17 11.6281 -1.87721 3.16917 47.2693
3503902 8.34027 10.2599 16.9685 11.5909 -1.83309 3.16771 47.1596
3503921 8.34891 10.2412 17.0098 11.6468 -1.83653 3.19594 47.2467
3503942 8.33164 10.2693 16.9895 11.6375 -1.80741 3.18436 47.2279
3503953 8.33164 10.2506 17.0787 11.5816 -1.89355 3.19992 47.2425
3503972 8.32301 10.1569 17.0886 11.6188 -1.92627 3.25113 47.1874
3503983 8.33164 10.2225 17.128 11.6654 -1.88593 3.24386 47.3475
3503993 8.33164 10.2225 17.128 11.6654 -1.88593 3.24386 47.3475
3504004 8.34027 10.1944 17.1083 11.6747 -1.89119 3.24878 47.3176
3504013 8.34027 10.1944 17.1083 11.6747 -1.89119 3.24878 47.3176
3504023 8.32301 10.2131 17.0591 11.6002 -1.89041 3.21742 47.1954
3504033 8.36618 10.2131 17.0984 11.6095 -1.92545 3.21292 47.2872
3504043 8.36618 10.2131 17.0984 11.6095 -1.92545 3.21292 47.2872
3504053 8.33164 10.2225 17.0689 11.5816 -1.90473 3.20829 47.2046
3504063 8.38344 10.2037 16.979 11.5257 -1.92864 3.15899 47.0919
3504073 8.38344 10.2037 16.979 11.5257 -1.92864 3.15899 47.0919
3504083 8.41798 10.2974 16.9895 11.5723 -1.87079 3.12406 47.2771
3504094 8.46115 10.2225 16.9895 11.5909 -1.9239 3.1409 47.264
3504106 8.46115 10.2225 16.9895 11.5909 -1.9239 3.1409 47.264
3504114 8.53022 10.2693 17.0098 11.6002 -1.93556 3.10398 47.4096
3504130 8.53022 10.2693 17.0098 11.6002 -1.93556 3.10398 47.4096
3504134 8.49568 10.2974 16.979 11.5444 -1.91949 3.08465 47.3164
3504144 8.53022 10.2974 16.9579 11.5164 -1.94198 3.05911 47.302
3504155 8.53022 10.2974 16.9579 11.5164 -1.94198 3.05911 47.302
3504166 8.57339 10.3722 16.8528 11.4978 -1.87972 2.98279 47.2963
3504174 8.54749 10.3722 16.8528 11.5257 -1.85118 2.99973 47.2983
3504186 8.54749 10.3348 16.8528 11.5257 -1.87246 3.014 47.2608
3504194 8.58202 10.3722 16.8528 11.4792 -1.89452 2.97478 47.2863
3504206 8.58202 10.3722 16.8528 11.4792 -1.89452 2.97478 47.2863
3504214 8.58202 10.3348 16.7687 11.4513 -1.8906 2.96047 47.1368
3504228 8.55612 10.3442 16.7161 11.4978 -1.8202 2.96524 47.1142
3504237 8.55612 10.3442 16.7161 11.4978 -1.8202 2.96524 47.1142
3504249 8.57339 10.4003 16.6951 11.4419 -1.81817 2.9176 47.1108
3504256 8.58202 10.391 16.8108 11.4885 -1.85802 2.95933 47.2723
3504265 8.58202 10.391 16.8108 11.4885 -1.85802 2.95933 47.2723
3504276 8.60792 10.3348 16.8528 11.4699 -1.93379 2.9768 47.2654
3504291 8.60792 10.3348 16.8528 11.4699 -1.93379 2.9768 47.2654
3504296 8.53885 10.4097 16.8423 11.4978 -1.83641 2.97901 47.2887
3504306 8.59066 10.391 16.7897 11.4606 -1.86783 2.94356 47.2319
3504317 8.59066 10.391 16.7897 11.4606 -1.86783 2.94356 47.2319
3504327 8.61656 10.3722 16.8738 11.4233 -1.95344 2.95279 47.286
3504337 8.50432 10.3254 16.7582 11.4513 -1.85261 2.99102 47.0392
3504347 8.50432 10.3254 16.7582 11.4513 -1.85261 2.99102 47.0392
3504357 8.60792 10.3535 16.8423 11.4513 -1.9286 2.96226 47.255
3504367 8.60792 10.3535 16.8423 11.4513 -1.9286 2.96226 47.255
3504377 8.52158 10.4097 16.8002 11.5071 -1.80203 2.97725 47.2386
3504387 8.55612 10.4003 16.8633 11.535 -1.83934 2.9908 47.3548
3504407 8.55612 10.4378 16.8528 11.4792 -1.84464 2.95972 47.3259
3504418 8.58202 10.3254 16.8108 11.535 -1.86881 2.99609 47.2533
3504437 8.58202 10.3254 16.8108 11.535 -1.86881 2.99609 47.2533
3504438 8.54749 10.4191 16.8002 11.5071 -1.80943 2.96384 47.2739
3504448 8.54749 10.4191 16.8002 11.5071 -1.80943 2.96384 47.2739
3504458 8.53022 10.3348 16.7897 11.4606 -1.87019 2.98797 47.1153
3504469 8.59929 10.3348 16.8528 11.4419 -1.9455 2.97297 47.2289
3504478 8.59929 10.3348 16.8528 11.4419 -1.9455 2.97297 47.2289
3504488 8.60792 10.3442 16.7792 11.4606 -1.89779 2.95211 47.1919
3504498 8.59066 10.3254 16.7477 11.4233 -1.90581 2.94823 47.0871
3504508 8.59066 10.3254 16.7477 11.4233 -1.90581 2.94823 47.0871
3504519 8.59929 10.4003 16.7582 11.4606 -1.85128 2.92867 47.2184
3504531 8.59929 10.4003 16.7582 11.4606 -1.85128 2.92867 47.2184
3504539 8.55612 10.2974 16.7687 11.4699 -1.88864 2.98939 47.0921
3504550 8.60792 10.2974 16.8738 11.4885 -1.95478 3.00112 47.2676
3504560 8.60792 10.2974 16.8738 11.4885 -1.95478 3.00112 47.2676
3504571 8.53885 10.3254 16.7477 11.4326 -1.87506 2.97038 47.0446
3504582 8.53022 10.2974 16.8528 11.4699 -1.91717 3.0207 47.1503
3504590 8.53022 10.2974 16.8528 11.4699 -1.91717 3.0207 47.1503
3504599 8.58202 10.3254 16.8528 11.4419 -1.94241 2.98311 47.2022
3504610 8.58202 10.3254 16.8528 11.4419 -1.94241 2.98311 47.2022
3504619 8.54749 10.3722 16.8633 11.4792 -1.88278 2.99059 47.2622
3504630 8.51295 10.391 16.8949 11.5257 -1.84424 3.01641 47.3245
3504650 8.52158 10.3254 16.8528 11.5164 -1.8704 3.02509 47.2163
3504661 8.51295 10.2786 16.8318 11.4978 -1.89315 3.03622 47.1212
3504671 8.51295 10.2786 16.8318 11.4978 -1.89315 3.03622 47.1212
3504681 8.46115 10.3629 16.9369 11.535 -1.85012 3.05986 47.296
3504691 8.41798 10.2412 16.9369 11.4978 -1.91952 3.11364 47.0939
3504701 8.41798 10.2412 16.9369 11.4978 -1.91952 3.11364 47.0939
3504711 8.44388 10.2974 16.9159 11.5164 -1.87923 3.08152 47.1736
3504724 8.44388 10.2974 16.9159 11.5164 -1.87923 3.08152 47.1736
3504732 8.45251 10.3067 17 11.5444 -1.90336 3.10287 47.3036
3504746 8.40071 10.2786 16.979 11.5257 -1.89434 3.12352 47.1841
3504753 8.40071 10.2786 16.979 11.5257 -1.89434 3.12352 47.1841
3504762 8.39208 10.288 17.0394 11.5816 -1.88255 3.15244 47.301
3504772 8.39208 10.2599 17.0394 11.5723 -1.90382 3.16089 47.2637
3504782 8.39208 10.2599 17.0394 11.5723 -1.90382 3.16089 47.2637
3504792 8.34027 10.2037 17.0591 11.5909 -1.9095 3.21205 47.194
3504805 8.34027 10.2037 17.0591 11.5909 -1.9095 3.21205 47.194
3504813 8.30574 10.2693 17.0591 11.6095 -1.84469 3.20475 47.2436
3504826 8.35754 10.2412 17.0492 11.5537 -1.91302 3.17918 47.2016
3504833 8.35754 10.2412 17.0492 11.5537 -1.91302 3.17918 47.2016
3504843 8.36618 10.2693 17 11.5909 -1.85595 3.16205 47.2264
3504853 8.34891 10.2599 17.0098 11.535 -1.88946 3.16075 47.1537
3504863 8.34891 10.2599 17.0098 11.535 -1.88946 3.16075 47.1537
3504874 8.40071 10.288 16.9579 11.6188 -1.82576 3.13805 47.2655
3504884 8.40071 10.288 16.9579 11.6188 -1.82576 3.13805 47.2655
3504894 8.35754 10.2693 16.8844 11.5816 -1.80018 3.13396 47.0928
3504904 8.42661 10.3348 17.0098 11.6188 -1.83731 3.12321 47.3901
3504914 8.42661 10.3348 17.0098 11.6188 -1.83731 3.12321 47.3901
3504931 8.40071 10.3816 16.9159 11.4978 -1.8207 3.06108 47.196
3504934 8.46978 10.3442 16.8423 11.4885 -1.84507 3.02797 47.1447
3504956 8.51295 10.288 16.7792 11.5071 -1.85669 3.02164 47.0873
3504966 8.51295 10.288 16.7792 11.5071 -1.85669 3.02164 47.0873
3504976 8.52158 10.4003 16.7477 11.4699 -1.80266 2.95792 47.1395
3504986 8.59066 10.3161 16.7897 11.5164 -1.87866 2.98629 47.2129
3504996 8.59066 10.3161 16.7897 11.5164 -1.87866 2.98629 47.2129
3505006 8.52158 10.4003 16.8633 11.5164 -1.833 2.99921 47.3017
3505016 8.54749 10.4378 16.7477 11.5071 -1.773 2.94333 47.2401
3505026 8.54749 10.4378 16.7477 11.5071 -1.773 2.94333 47.2401
3505038 8.60792 10.4565 16.7267 11.4792 -1.79758 2.90079 47.2703
3505053 8.60792 10.4565 16.7267 11.4792 -1.79758 2.90079 47.2703
3505056 8.63382 10.4565 16.6531 11.4233 -1.80586 2.85776 47.1667
3505067 8.62519 10.4378 16.6215 11.5444 -1.72806 2.89111 47.2288
3505077 8.62519 10.4378 16.6215 11.5444 -1.72806 2.89111 47.2288
3505087 8.58202 10.4191 16.6951 11.4606 -1.80118 2.91197 47.1568
3505097 8.59929 10.4284 16.6846 11.4513 -1.80447 2.89678 47.1636
3505107 8.59929 10.4284 16.6846 11.4513 -1.80447 2.89678 47.1636
3505117 8.59929 10.4003 16.6636 11.4792 -1.79421 2.90921 47.1424
3505127 8.59929 10.4003 16.6636 11.4792 -1.79421 2.90921 47.1424
3505137 8.60792 10.4284 16.59 11.4699 -1.75153 2.87397 47.0962
3505149 8.63382 10.4471 16.7687 11.5071 -1.82037 2.91242 47.3568
3505167 8.60792 10.4003 16.7477 11.4885 -1.83449 2.92984 47.2444
3505177 8.55612 10.4284 16.8318 11.5257 -1.81327 2.96977 47.3421
3505187 8.55612 10.4284 16.8318 11.5257 -1.81327 2.96977 47.3421
3505197 8.56475 10.4471 16.8738 11.6281 -1.76964 2.996 47.5139
3505207 8.56475 10.4471 16.8738 11.6281 -1.76964 2.996 47.5139
3505217 8.48705 10.3442 16.8423 11.563 -1.81121 3.04026 47.2365
3505227 8.41798 10.3348 16.9685 11.6002 -1.82339 3.11145 47.3215
3505238 8.41798 10.3348 16.9685 11.6002 -1.82339 3.11145 47.3215
3505260 8.47842 10.288 16.8738 11.5444 -1.86496 3.06831 47.1846
3505262 8.2971 10.2974 17.0197 11.5816 -1.82105 3.18042 47.1958
3505268 8.2971 10.2974 17.0197 11.5816 -1.82105 3.18042 47.1958
3505278 8.2971 10.2412 17.0295 11.6095 -1.84194 3.21153 47.1774
3505288 8.2971 10.2412 17.0295 11.6095 -1.84194 3.21153 47.1774
3505298 8.26257 10.2318 17.0197 11.6561 -1.79899 3.23765 47.1702
3505308 8.26257 10.2037 17.0295 11.6561 -1.8198 3.25097 47.1519
3505320 8.26257 10.2037 17.0295 11.6561 -1.8198 3.25097 47.1519
3505328 8.1676 10.185 17.1673 11.684 -1.8356 3.33618 47.204
3505338 8.1417 10.1569 17.2264 11.7399 -1.83608 3.38548 47.2649
3505348 8.1417 10.1569 17.2264 11.7399 -1.83608 3.38548 47.2649
3505359 8.18486 10.2599 17.2658 11.7771 -1.79711 3.34764 47.4877
3505368 8.18486 10.2599 17.2658 11.7771 -1.79711 3.34764 47.4877
3505379 8.15033 10.1944 17.2264 11.6933 -1.84548 3.35612 47.2644
3505389 8.15896 10.2131 17.1969 11.7026 -1.81933 3.34052 47.2716
3505399 8.15896 10.2131 17.1969 11.7026 -1.81933 3.34052 47.2716
3505409 8.18486 10.2131 17.2461 11.684 -1.86668 3.33802 47.3281
3505419 8.15896 10.2037 17.2362 11.7119 -1.83865 3.35614 47.3109
3505439 8.1935 10.2037 17.2264 11.6933 -1.8613 3.33574 47.317
3505459 8.2194 10.2131 17.1969 11.6375 -1.88595 3.30099 47.2668
3505471 8.18486 10.2131 17.2166 11.6468 -1.87339 3.32154 47.2613
3505489 8.18486 10.185 17.2166 11.6747 -1.87348 3.33933 47.2611
3505499 8.2453 10.2037 17.2855 11.6933 -1.91538 3.33024 47.4278
3505511 8.2453 10.2037 17.2855 11.6933 -1.91538 3.33024 47.4278
3505521 8.22803 10.1757 17.1969 11.6654 -1.89558 3.31906 47.266
3505531 8.22803 10.1757 17.1969 11.6654 -1.89558 3.31906 47.266
3505540 8.2453 10.2037 17.128 11.6095 -1.88613 3.27057 47.1865
3505554 8.2712 10.2318 17.1083 11.5537 -1.90501 3.23087 47.165
3505561 8.2712 10.2318 17.1083 11.5537 -1.90501 3.23087 47.165
3505571 8.35754 10.2225 17.0492 11.5909 -1.90246 3.19571 47.2201
3505580 8.37481 10.2506 17.0689 11.563 -1.92044 3.17619 47.2572
3505607 8.30574 10.2412 17.0492 11.6002 -1.86113 3.21079 47.1964
3505611 8.30574 10.2412 17.0492 11.6002 -1.86113 3.21079 47.1964
3505621 8.32301 10.1944 17.0984 11.6375 -1.89913 3.24374 47.2533
3505631 8.32301 10.2506 17.0197 11.6281 -1.83391 3.20012 47.2214
3505641 8.32301 10.2506 17.0197 11.6281 -1.83391 3.20012 47.2214
3505651 8.38344 10.2506 17.0197 11.6375 -1.85824 3.17918 47.2911
3505666 8.38344 10.2318 17.0886 11.6468 -1.89725 3.2059 47.3506
3505671 8.38344 10.2318 17.0886 11.6468 -1.89725 3.2059 47.3506
3505681 8.34027 10.2599 17.0295 11.6375 -1.8366 3.19465 47.2672
3505692 8.34027 10.2599 17.0295 11.6375 -1.8366 3.19465 47.2672
3505702 8.37481 10.2506 17.0197 11.6095 -1.86988 3.17552 47.2546
3505712 8.36618 10.2131 17.0394 11.6095 -1.8966 3.19818 47.2282
3505722 8.36618 10.2131 17.0394 11.6095 -1.8966 3.19818 47.2282
3505732 8.32301 10.2225 16.979 11.6281 -1.82989 3.20077 47.1526
3505742 8.28847 10.2412 17.0689 11.7492 -1.77781 3.25942 47.3477
3505752 8.28847 10.2412 17.0689 11.7492 -1.77781 3.25942 47.3477
3505766 8.31437 10.2412 17.1083 11.7212 -1.82558 3.25228 47.3851
3505772 8.31437 10.2412 17.1083 11.7212 -1.82558 3.25228 47.3851
3505783 8.2453 10.1382 17.1673 11.7399 -1.86853 3.33798 47.2907
3505792 8.17623 10.1476 17.1378 11.7585 -1.8043 3.35847 47.2201
3505802 8.17623 10.1476 17.1378 11.7585 -1.8043 3.35847 47.2201
3505812 8.1676 10.1476 17.2362 11.8143 -1.81667 3.39974 47.3658
3505822 8.12443 10.1289 17.2559 11.7957 -1.82633 3.42408 47.3049
3505835 8.12443 10.1289 17.2559 11.7957 -1.82633 3.42408 47.3049
3505842 8.1417 10.1195 17.2953 11.8516 -1.82771 3.44426 47.4081
3505854 8.1417 10.1195 17.2953 11.8516 -1.82771 3.44426 47.4081
3505862 8.05536 10.1101 17.2264 11.7957 -1.78855 3.45111 47.1876
3505875 8.07263 10.1195 17.2855 11.7957 -1.82073 3.45514 47.2733
3505882 8.07263 10.1195 17.2855 11.7957 -1.82073 3.45514 47.2733
3505892 8.07263 10.1101 17.2264 11.805 -1.79176 3.44664 47.2142
3505902 8.07263 10.1382 17.2658 11.7771 -1.81101 3.43847 47.2537
3505914 8.07263 10.1382 17.2658 11.7771 -1.81101 3.43847 47.2537
3505922 8.09853 10.1008 17.2559 11.7678 -1.84544 3.43829 47.223
3505934 8.09853 10.1008 17.2559 11.7678 -1.84544 3.43829 47.223
3505942 8.1158 10.1569 17.2658 11.805 -1.80574 3.42119 47.3436
3505954 8.17623 10.1195 17.2461 11.805 -1.8469 3.40743 47.3469
3505963 8.17623 10.1195 17.2461 11.805 -1.8469 3.40743 47.3469
3505974 8.20213 10.1663 17.1969 11.7585 -1.83534 3.35569 47.3238
3505983 8.20213 10.1663 17.1969 11.7585 -1.83534 3.35569 47.3238
3505994 8.20213 10.1195 17.2756 11.7957 -1.87925 3.40231 47.393
3506003 8.2194 10.1289 17.2461 11.684 -1.93145 3.3573 47.2784
3506013 8.2194 10.1289 17.2461 11.684 -1.93145 3.3573 47.2784
3506023 8.21077 10.0914 17.1673 11.684 -1.91009 3.3558 47.1535
3506033 8.26257 10.0727 17.1181 11.6468 -1.94333 3.32153 47.1002
3506055 8.25394 10.082 17.0689 11.6468 -1.90962 3.30903 47.0517
3506064 8.26257 10.082 17.1181 11.6561 -1.93265 3.3202 47.1188
3506074 8.26257 10.082 17.1181 11.6561 -1.93265 3.3202 47.1188
3506086 8.34027 10.1289 17.1575 11.684 -1.94719 3.2886 47.3106
3506096 8.34027 10.1289 17.1575 11.684 -1.94719 3.2886 47.3106
3506106 8.2971 10.082 17.187 11.7399 -1.93539 3.34452 47.3061
3506116 8.31437 10.1101 17.187 11.7678 -1.91195 3.33383 47.3793
3506136 8.34891 10.1569 17.2067 11.7212 -1.93819 3.29579 47.4338
3506146 8.35754 10.1663 17.0984 11.6468 -1.92669 3.24357 47.269
3506166 8.36618 10.1289 17.0886 11.6281 -1.95807 3.24762 47.2118
3506176 8.36618 10.1289 17.0886 11.6281 -1.95807 3.24762 47.2118
3506187 8.28847 10.1101 17.128 11.5909 -1.97135 3.28549 47.1175
3506195 8.34027 10.1569 17.0886 11.684 -1.89757 3.26066 47.2698
3506213 8.34027 10.1569 17.0886 11.684 -1.89757 3.26066 47.2698
3506217 8.31437 10.1289 17.0787 11.6375 -1.92263 3.26753 47.1594
3506227 8.33164 10.1101 17.1575 11.6933 -1.94834 3.30148 47.2926
3506237 8.33164 10.1101 17.1575 11.6933 -1.94834 3.30148 47.2926
3506247 8.34027 10.1101 17.1378 11.7399 -1.91645 3.30478 47.3281
3506267 8.30574 10.0914 17.1181 11.7119 -1.91654 3.31363 47.2272
3506282 8.25394 10.1101 17.2362 11.7399 -1.92235 3.36249 47.3402
3506287 8.25394 10.1101 17.2362 11.7399 -1.92235 3.36249 47.3402
3506297 8.23667 10.1289 17.187 11.7585 -1.86867 3.3544 47.311
3506307 8.20213 10.0914 17.2067 11.7864 -1.86682 3.39406 47.2867
3506317 8.20213 10.0914 17.2067 11.7864 -1.86682 3.39406 47.2867
3506327 8.2194 10.0914 17.1378 11.7119 -1.88392 3.35204 47.1606
3506337 8.2194 10.0914 17.1378 11.7119 -1.88392 3.35204 47.1606
3506347 8.1417 10.082 17.2559 11.7678 -1.87724 3.42875 47.2475
3506358 8.12443 10.0633 17.2461 11.8423 -1.83227 3.4586 47.2761
3506378 8.06399 10.054 17.315 11.833 -1.84703 3.50041 47.2659
3506389 8.01219 10.054 17.3445 11.8981 -1.79915 3.54369 47.3088
3506398 8.01219 10.054 17.3445 11.8981 -1.79915 3.54369 47.3088
3506409 8.09853 10.1008 17.2953 11.8795 -1.80138 3.47517 47.3741
3506418 8.07263 10.0633 17.2855 11.7771 -1.86322 3.47255 47.1985
3506429 8.07263 10.0633 17.2855 11.7771 -1.86322 3.47255 47.1985
3506439 8.07263 10.0914 17.2658 11.8888 -1.77423 3.48401 47.3186
3506449 8.07263 10.0914 17.2658 11.8888 -1.77423 3.48401 47.3186
3506460 8.07263 10.082 17.2855 11.8237 -1.82613 3.47659 47.2638
3506470 8.1417 10.054 17.3347 11.8795 -1.86823 3.48616 47.4099
3506490 8.18486 10.0727 17.315 11.7864 -1.9219 3.43457 47.359
3506501 8.1935 10.1008 17.2855 11.6933 -1.94872 3.39025 47.2731
3506511 8.1935 10.1008 17.2855 11.6933 -1.94872 3.39025 47.2731
3506521 8.23667 10.1101 17.2855 11.6654 -1.98034 3.36298 47.2977
3506530 8.23667 10.1101 17.2855 11.6654 -1.98034 3.36298 47.2977
3506541 8.2453 10.0072 17.2461 11.6561 -2.02957 3.3877 47.1546
3506551 8.23667 10.0914 17.2658 11.6654 -1.98144 3.3654 47.2592
3506561 8.23667 10.0914 17.2658 11.6654 -1.98144 3.3654 47.2592
3506572 8.27984 10.1569 17.1673 11.6468 -1.92773 3.29433 47.2509
3506581 8.23667 10.1757 17.1772 11.6281 -1.91139 3.30162 47.2177
3506591 8.23667 10.1757 17.1772 11.6281 -1.91139 3.30162 47.2177
3506605 8.2712 10.2131 17.1772 11.6561 -1.89105 3.28069 47.3176
3506612 8.2712 10.2131 17.1772 11.6561 -1.89105 3.28069 47.3176
3506621 8.2712 10.1382 17.0984 11.6281 -1.91111 3.28321 47.136
3506630 8.2453 10.2693 17.1083 11.6654 -1.80749 3.25422 47.2882
3506643 8.2453 10.2693 17.1083 11.6654 -1.80749 3.25422 47.2882
3506652 8.2453 10.2225 17.0689 11.7119 -1.78831 3.27409 47.2486
3506662 8.23667 10.2786 17.0787 11.7212 -1.75183 3.26048 47.3153
3506672 8.23667 10.2786 17.0787 11.7212 -1.75183 3.26048 47.3153
3506687 8.20213 10.2506 17.1378 11.7678 -1.75344 3.3108 47.3583
3506692 8.20213 10.2506 17.1378 11.7678 -1.75344 3.3108 47.3583
3506702 8.18486 10.2037 17.1083 11.7771 -1.75164 3.33062 47.274
3506713 8.15033 10.2225 16.979 11.7864 -1.65493 3.30706 47.1382
3506733 8.15896 10.2599 17.0689 11.7957 -1.67724 3.31376 47.2835
3506744 8.20213 10.2786 16.9895 11.7864 -1.65403 3.26784 47.2567
3506753 8.20213 10.2786 16.9895 11.7864 -1.65403 3.26784 47.2567
3506763 8.18486 10.2037 17.0098 11.7119 -1.74007 3.29009 47.1104
3506774 8.18486 10.2037 17.0098 11.7119 -1.74007 3.29009 47.1104
3506785 8.21077 10.1944 17.0689 11.6933 -1.79784 3.29372 47.1674
3506793 8.25394 10.1757 17.0689 11.7026 -1.8244 3.28655 47.2011
3506804 8.25394 10.1757 17.0689 11.7026 -1.8244 3.28655 47.2011
3506814 8.26257 10.2225 17.0689 11.6747 -1.81791 3.25816 47.2286
3506824 8.30574 10.1757 17.1083 11.7678 -1.83211 3.29241 47.3575
3506834 8.30574 10.1757 17.1083 11.7678 -1.83211 3.29241 47.3575
3506846 8.31437 10.2131 17.0591 11.7119 -1.82267 3.24858 47.2985
3506857 8.31437 10.2131 17.0591 11.7119 -1.82267 3.24858 47.2985
3506865 8.30574 10.2412 17.0787 11.6468 -1.84914 3.22976 47.2724
3506873 8.38344 10.2318 17.1575 11.6654 -1.92025 3.22766 47.4382
3506885 8.38344 10.2318 17.1575 11.6654 -1.92025 3.22766 47.4382
3506896 8.36618 10.2225 17.1083 11.6095 -1.92493 3.21177 47.3064
3506907 8.36618 10.185 17.1477 11.6375 -1.94953 3.24294 47.3363
3506916 8.36618 10.185 17.1477 11.6375 -1.94953 3.24294 47.3363
3506924 8.35754 10.2599 17.0886 11.563 -1.91629 3.18415 47.269
3506935 8.35754 10.2599 17.0886 11.563 -1.91629 3.18415 47.269
3506945 8.34027 10.2131 17.0689 11.5723 -1.9196 3.20624 47.1946
3506954 8.39208 10.1569 17.1477 11.5537 -2.02598 3.22293 47.2503
3506964 8.39208 10.1569 17.1477 11.5537 -2.02598 3.22293 47.2503
3506974 8.43525 10.1289 17.187 11.5257 -2.09811 3.21997 47.2769
3506984 8.34891 10.2037 17.2067 11.5257 -2.02291 3.22928 47.2851
3506996 8.34891 10.2037 17.2067 11.5257 -2.02291 3.22928 47.2851
3507006 8.35754 10.1663 17.2658 11.563 -2.05588 3.26431 47.3526
3507016 8.35754 10.1663 17.2658 11.563 -2.05588 3.26431 47.3526
3507024 8.27984 10.1195 17.2756 11.535 -2.06573 3.30799 47.21
3507034 8.30574 10.0727 17.3248 11.5164 -2.13971 3.32367 47.2197
3507044 8.30574 10.0727 17.3248 11.5164 -2.13971 3.32367 47.2197
3507056 8.34027 10.1195 17.3248 11.535 -2.11887 3.29677 47.3197
3507066 8.30574 10.1289 17.2658 11.5444 -2.06282 3.29419 47.2447
3507086 8.33164 10.1008 17.2559 11.563 -2.07604 3.29721 47.2513
3507096 8.33164 10.1008 17.2559 11.563 -2.07604 3.29721 47.2513
3507106 8.35754 10.082 17.187 11.6002 -2.04455 3.28658 47.2268
3507116 8.37481 10.1101 17.2166 11.5257 -2.09386 3.25787 47.2272
3507136 8.40071 10.1569 17.2362 11.5537 -2.07316 3.24164 47.3476
3507146 8.40934 10.1382 17.2264 11.4978 -2.11528 3.2292 47.2718
3507166 8.46978 10.1757 17.1575 11.4792 -2.10039 3.16967 47.2821
3507176 8.46978 10.1757 17.1575 11.4792 -2.10039 3.16967 47.2821
3507186 8.40071 10.1569 17.1378 11.563 -2.02006 3.21947 47.2584
3507202 8.40934 10.2131 17.0689 11.535 -1.97458 3.17031 47.2264
3507206 8.40934 10.2131 17.0689 11.535 -1.97458 3.17031 47.2264
3507219 8.48705 10.2131 16.979 11.5257 -1.97394 3.11553 47.2049
3507227 8.45251 10.2318 17.0098 11.5816 -1.9296 3.1434 47.2758
3507241 8.45251 10.2318 17.0098 11.5816 -1.9296 3.1434 47.2758
3507247 8.42661 10.2693 16.9685 11.5909 -1.8701 3.13092 47.2553
3507257 8.42661 10.2693 16.9685 11.5909 -1.8701 3.13092 47.2553
3507267 8.39208 10.2693 16.9474 11.5816 -1.84817 3.13656 47.1904
3507277 8.37481 10.2786 16.9369 11.5257 -1.86102 3.12289 47.1161
3507287 8.37481 10.2786 16.9369 11.5257 -1.86102 3.12289 47.1161
3507300 8.35754 10.2974 16.9579 11.5816 -1.82041 3.14168 47.1944
3507307 8.38344 10.3442 16.9369 11.6095 -1.7804 3.11551 47.2741
3507317 8.38344 10.3442 16.9369 11.6095 -1.7804 3.11551 47.2741
3507327 8.37481 10.3629 16.9685 11.6188 -1.77578 3.1219 47.325
3507340 8.37481 10.3629 16.9685 11.6188 -1.77578 3.1219 47.325
3507348 8.28847 10.2693 16.979 11.684 -1.75461 3.21 47.2207
3507358 8.28847 10.3161 16.979 11.7026 -1.71759 3.19662 47.2862
3507368 8.28847 10.3161 16.979 11.7026 -1.71759 3.19662 47.2862
3507378 8.30574 10.3161 16.9264 11.6654 -1.72126 3.16751 47.2136
3507388 8.28847 10.3161 16.9895 11.7585 -1.69124 3.21316 47.3525
3507411 8.26257 10.3535 17.0197 11.7585 -1.67227 3.21624 47.3943
3507418 8.26257 10.3535 17.0197 11.7585 -1.67227 3.21624 47.3943
3507429 8.1935 10.288 17.0098 11.7306 -1.68608 3.25873 47.2219
3507438 8.20213 10.288 17.0197 11.7771 -1.66892 3.2694 47.2869
3507449 8.20213 10.288 17.0197 11.7771 -1.66892 3.2694 47.2869
3507458 8.1676 10.2506 17.0098 11.805 -1.65237 3.30173 47.233
3507468 8.15033 10.2599 16.9895 11.7306 -1.67055 3.28127 47.1303
3507486 8.15033 10.2599 16.9895 11.7306 -1.67055 3.28127 47.1303
3507495 8.1158 10.288 17.0394 11.7864 -1.63074 3.31 47.2296
3507510 8.1158 10.288 17.0394 11.7864 -1.63074 3.31 47.2296
3507511 8.10716 10.2225 17.0787 11.7957 -1.67767 3.35082 47.2041
3507521 8.08126 10.2599 17.2166 11.7957 -1.71169 3.38025 47.3535
3507531 8.08126 10.2599 17.2166 11.7957 -1.71169 3.38025 47.3535
3507541 8.12443 10.2318 17.1378 11.7771 -1.72055 3.35046 47.2712
3507552 8.1158 10.2225 17.0984 11.8423 -1.66537 3.3638 47.279
3507561 8.1158 10.2225 17.0984 11.8423 -1.66537 3.3638 47.279
3507571 8.1158 10.2131 17.128 11.8795 -1.66423 3.38384 47.3364
3507580 8.1158 10.2131 17.128 11.8795 -1.66423 3.38384 47.3364
3507591 8.15033 10.2786 17.1181 11.8237 -1.67095 3.3289 47.3707
3507601 8.1676 10.2037 17.1181 11.805 -1.7322 3.34663 47.2945
3507622 8.1935 10.2037 17.1477 11.7585 -1.78577 3.33239 47.3034
3507632 8.21077 10.1944 17.1673 11.7492 -1.81447 3.33189 47.3217
3507642 8.21077 10.1944 17.1673 11.7492 -1.81447 3.33189 47.3217
3507653 8.26257 10.2412 17.0984 11.7026 -1.80594 3.2652 47.3048
3507662 8.23667 10.2131 17.0886 11.6561 -1.83076 3.27207 47.1944
3507673 8.23667 10.2131 17.0886 11.6561 -1.83076 3.27207 47.1944
3507683 8.25394 10.2037 17.1575 11.7119 -1.84659 3.29993 47.3271
3507694 8.25394 10.2037 17.1575 11.7119 -1.84659 3.29993 47.3271
3507702 8.25394 10.1008 17.1575 11.7399 -1.88923 3.34673 47.2521
3507713 8.21077 10.1663 17.2559 11.7026 -1.90014 3.35313 47.3356
3507723 8.21077 10.1663 17.2559 11.7026 -1.90014 3.35313 47.3356
3507734 8.2453 10.0352 17.1969 11.7399 -1.94159 3.38526 47.2173
3507743 8.17623 10.0633 17.2461 11.684 -1.94775 3.3996 47.1697
3507764 8.2453 10.0914 17.1575 11.7026 -1.91155 3.34453 47.1968
3507774 8.2453 10.0914 17.1575 11.7026 -1.91155 3.34453 47.1968
3507784 8.23667 10.0446 17.187 11.6188 -1.99643 3.3527 47.0871
3507794 8.23667 10.054 17.2362 11.7026 -1.96716 3.38186 47.2295
3507804 8.23667 10.054 17.2362 11.7026 -1.96716 3.38186 47.2295
3507814 8.2712 10.1008 17.2067 11.6188 -1.99073 3.32229 47.1975
3507823 8.2712 10.082 17.2658 11.7957 -1.92936 3.38763 47.4148
3507844 8.2194 10.1008 17.2855 11.7119 -1.95073 3.38476 47.3176
3507857 8.2194 10.1008 17.2855 11.7119 -1.95073 3.38476 47.3176
3507864 8.2194 10.0446 17.2264 11.6561 -1.9859 3.37835 47.1465
3507875 8.25394 10.1289 17.2756 11.6468 -1.98389 3.342 47.3052
3507884 8.25394 10.1289 17.2756 11.6468 -1.98389 3.342 47.3052
3507894 8.33164 10.1195 17.1772 11.6002 -2.00573 3.27967 47.2285
3507904 8.27984 10.0914 17.1772 11.7026 -1.93804 3.33598 47.2511
3507915 8.27984 10.0914 17.1772 11.7026 -1.93804 3.33598 47.2511
3507926 8.2712 10.1569 17.2067 11.6933 -1.91623 3.31892 47.3282
3507936 8.2712 10.1569 17.2067 11.6933 -1.91623 3.31892 47.3282
3507946 8.2971 10.1757 17.2166 11.6468 -1.94948 3.29259 47.3361
3507956 8.18486 10.1476 17.1772 11.6747 -1.8755 3.34415 47.1843
3507967 8.18486 10.1476 17.1772 11.6747 -1.8755 3.34415 47.1843
3507976 8.26257 10.1663 17.1378 11.6188 -1.91544 3.28314 47.1855
3507986 8.2971 10.1382 17.1575 11.6747 -1.9261 3.29937 47.2675
3507996 8.2971 10.1382 17.1575 11.6747 -1.9261 3.29937 47.2675
3508006 8.31437 10.1944 17.1083 11.6561 -1.88912 3.25416 47.2731
3508016 8.31437 10.1944 17.1083 11.6561 -1.88912 3.25416 47.2731
3508027 8.2971 10.185 17.0689 11.6002 -1.89856 3.24074 47.1513
3508037 8.33164 10.1757 17.0886 11.6747 -1.888 3.25445 47.2706
3508047 8.33164 10.1757 17.0886 11.6747 -1.888 3.25445 47.2706
3508057 8.32301 10.1663 17.1083 11.6281 -1.92524 3.25472 47.2257
3508071 8.33164 10.2037 17.0098 11.6654 -1.83876 3.22168 47.2106
3508077 8.33164 10.2037 17.0098 11.6654 -1.83876 3.22168 47.2106
3508087 8.34027 10.1944 17.0886 11.6375 -1.90276 3.23463 47.2607
3508097 8.33164 10.1944 17.1772 11.6561 -1.93117 3.26459 47.3593
3508112 8.33164 10.1757 17.1772 11.6561 -1.94182 3.27181 47.3406
3508124 8.27984 10.2037 17.1181 11.7492 -1.81889 3.28939 47.3509
3508130 8.27984 10.2037 17.1181 11.7492 -1.81889 3.28939 47.3509
3508142 8.23667 10.2037 17.1673 11.7771 -1.80604 3.32512 47.3849
3508150 8.20213 10.1569 17.1673 11.7678 -1.82091 3.35435 47.2942
3508158 8.20213 10.1569 17.1673 11.7678 -1.82091 3.35435 47.2942
3508168 8.2194 10.1289 17.2264 11.7771 -1.86891 3.37535 47.3518
3508184 8.15896 10.0914 17.1477 11.7306 -1.84848 3.38261 47.1286
3508190 8.15896 10.0914 17.1477 11.7306 -1.84848 3.38261 47.1286
3508253 8.17623 10.1663 17.128 11.7585 -1.78884 3.34877 47.229
3508254 8.17623 10.1663 17.128 11.7585 -1.78884 3.34877 47.229
3508255 8.15033 10.0633 17.2166 11.7212 -1.89937 3.41161 47.1515
3508255 8.09853 10.1476 17.1969 11.7957 -1.77402 3.4124 47.2387
3508256 8.09853 10.1476 17.1969 11.7957 -1.77402 3.4124 47.2387
3508257 8.09853 10.0633 17.1575 11.805 -1.79719 3.43793 47.1244
3508259 8.12443 10.1008 17.1477 11.805 -1.78382 3.41076 47.1779
3508270 8.12443 10.1008 17.1477 11.805 -1.78382 3.41076 47.1779
3508282 8.12443 10.1476 17.1969 11.8795 -1.73934 3.42284 47.3484
3508290 8.12443 10.1476 17.1969 11.8795 -1.73934 3.42284 47.3484
3508300 8.15896 10.1289 17.2559 11.8143 -1.83268 3.41519 47.3581
3508309 8.1417 10.1195 17.2756 11.8516 -1.81808 3.43946 47.3884
3508331 8.15033 10.185 17.2264 11.8237 -1.77695 3.39177 47.3854
3508341 8.13306 10.1289 17.2166 11.8423 -1.78489 3.42247 47.3208
3508351 8.13306 10.1289 17.2166 11.8423 -1.78489 3.42247 47.3208
3508361 8.10716 10.1289 17.1969 11.8143 -1.77832 3.4209 47.2472
3508371 8.10716 10.1289 17.1969 11.8143 -1.77832 3.4209 47.2472
3508381 8.12443 10.1663 17.187 11.8143 -1.76076 3.39718 47.2921
3508393 8.12443 10.1289 17.0984 11.8609 -1.712 3.40144 47.2126
3508412 8.09853 10.1382 17.1969 11.8702 -1.73716 3.43429 47.3038
3508426 8.15033 10.0727 17.2067 11.8516 -1.81508 3.43749 47.2813
3508442 8.06399 10.1008 17.2067 11.8143 -1.77786 3.45113 47.1858
3508453 8.06399 10.1008 17.2067 11.8143 -1.77786 3.45113 47.1858
3508462 8.03809 10.1569 17.2756 11.8609 -1.74084 3.4675 47.3316
3508473 8.06399 10.1101 17.2166 11.8888 -1.73521 3.46808 47.2795
3508493 8.04672 10.0727 17.2855 11.8702 -1.79233 3.50172 47.2751
3508503 8.02082 10.1008 17.2756 11.8981 -1.74306 3.50526 47.2954
3508513 8.02082 10.1008 17.2756 11.8981 -1.74306 3.50526 47.2954
3508528 8.04672 10.0259 17.2953 11.833 -1.84487 3.51339 47.2009
3508534 8.04672 10.0259 17.2953 11.833 -1.84487 3.51339 47.2009
3508543 8.07263 9.9978 17.3052 11.8516 -1.86778 3.52117 47.2272
3508554 8.02946 10.0072 17.3544 11.9261 -1.82312 3.56441 47.3171
3508563 8.02946 10.0072 17.3544 11.9261 -1.82312 3.56441 47.3171
3508576 8.06399 10.0259 17.3248 11.8516 -1.85722 3.51833 47.2663
3508585 8.03809 9.9978 17.3248 11.9354 -1.81292 3.55981 47.2961
3508597 8.03809 9.9978 17.3248 11.9354 -1.81292 3.55981 47.2961
3508605 8.09853 10.0259 17.3839 11.9168 -1.86599 3.53492 47.4251
3508616 8.02082 9.9978 17.3937 11.8609 -1.88049 3.56524 47.2733
3508626 8.02082 9.9978 17.3937 11.8609 -1.88049 3.56524 47.2733
3508634 8.07263 10.0072 17.443 11.8702 -1.91918 3.5554 47.393
3508644 8.07263 10.0072 17.443 11.8702 -1.91918 3.5554 47.393
3508655 8.02946 9.97907 17.3839 11.8423 -1.90115 3.56231 47.2347
3508664 8.01219 9.98844 17.4036 11.8981 -1.86524 3.58368 47.3024
3508677 8.01219 9.98844 17.4036 11.8981 -1.86524 3.58368 47.3024
3508684 8.03809 9.9978 17.4134 11.8795 -1.88797 3.56772 47.3288
3508696 8.03809 9.9978 17.4134 11.8795 -1.88797 3.56772 47.3288
3508707 8.01219 9.9978 17.4725 11.8888 -1.89886 3.59437 47.3713
3508716 8.02082 9.95099 17.5217 11.8888 -1.95363 3.6212 47.3824
3508739 8.03809 10.0259 17.4528 11.8888 -1.88595 3.56846 47.4056
3508748 8.02082 10.0352 17.443 11.8795 -1.8727 3.56694 47.3785
3508778 8.02946 10.0259 17.3839 11.9074 -1.83753 3.5597 47.3467
3508779 8.05536 10.054 17.3248 11.7678 -1.88469 3.49032 47.202
3508787 8.05536 10.054 17.3248 11.7678 -1.88469 3.49032 47.202
3508798 8.07263 9.9978 17.3347 11.7957 -1.91405 3.51476 47.2008
3508807 8.07263 9.9978 17.3347 11.7957 -1.91405 3.51476 47.2008
3508820 8.1417 10.0914 17.3248 11.8237 -1.87386 3.45558 47.3816
3508827 8.17623 9.97907 17.2166 11.7585 -1.93889 3.44356 47.1304
3508843 8.17623 9.97907 17.2166 11.7585 -1.93889 3.44356 47.1304
3508850 8.2194 10.0914 17.2264 11.7864 -1.88488 3.39218 47.3236
3508858 8.2194 10.082 17.1673 11.7957 -1.85602 3.3836 47.2645
3508868 8.2194 10.082 17.1673 11.7957 -1.85602 3.3836 47.2645
3508878 8.22803 10.1569 17.2067 11.8143 -1.82649 3.36542 47.406
3508887 8.22803 10.1569 17.2067 11.8143 -1.82649 3.36542 47.406
3508898 8.22803 10.082 17.2067 11.7399 -1.91128 3.37619 47.2567
3508910 8.27984 10.1289 17.1772 11.7306 -1.90082 3.32835 47.3164
3508919 8.27984 10.1289 17.1772 11.7306 -1.90082 3.32835 47.3164
3508930 8.31437 10.1382 17.0689 11.7492 -1.84886 3.28919 47.2707
3508938 8.31437 10.1569 17.0591 11.6747 -1.87575 3.26102 47.2051
3508959 8.32301 10.1476 17.0394 11.6375 -1.89689 3.24713 47.1474
3508969 8.32301 10.1476 17.0591 11.6375 -1.90654 3.25203 47.1671
3508979 8.25394 10.1289 17.0591 11.7026 -1.84619 3.30226 47.1445
3508989 8.26257 10.1476 17.128 11.7119 -1.86826 3.31103 47.2501
3509009 8.26257 10.1195 17.0689 11.7306 -1.8447 3.31191 47.1815
3509021 8.2712 10.2318 17.1181 11.7678 -1.78823 3.28649 47.389
3509033 8.2712 10.2318 17.1181 11.7678 -1.78823 3.28649 47.389
3509041 8.2453 10.2599 17.1772 11.7492 -1.79912 3.29564 47.4316
3509053 8.27984 10.2693 17.0984 11.7585 -1.76692 3.26155 47.406
3509061 8.27984 10.2693 17.0984 11.7585 -1.76692 3.26155 47.406
3509073 8.2971 10.2506 17.0492 11.7306 -1.77762 3.24298 47.3274
3509081 8.2971 10.2506 17.0492 11.7306 -1.77762 3.24298 47.3274
3509092 8.2712 10.2318 17.0787 11.7399 -1.78473 3.26983 47.3216
3509101 8.25394 10.2506 17.0984 11.7399 -1.77533 3.27415 47.3428
3509112 8.25394 10.2506 17.0984 11.7399 -1.77533 3.27415 47.3428
3509119 8.2971 10.2412 17.0886 11.6468 -1.84973 3.23555 47.2737
3509129 8.2971 10.2412 17.0886 11.6468 -1.84973 3.23555 47.2737
3509143 8.23667 10.1944 17.0689 11.7212 -1.79471 3.29061 47.2212
3509153 8.22803 10.2225 17.0787 11.7492 -1.76356 3.29244 47.2784
3509161 8.22803 10.2225 17.0787 11.7492 -1.76356 3.29244 47.2784
3509174 8.25394 10.1757 17.0591 11.8143 -1.75622 3.31178 47.303
3509181 8.2712 10.1663 17.0984 11.7399 -1.83153 3.30004 47.2758
3509190 8.2712 10.1663 17.0984 11.7399 -1.83153 3.30004 47.2758
3509201 8.27984 10.185 17.0689 11.7306 -1.81594 3.27983 47.2643
3509212 8.27984 10.185 17.0689 11.7306 -1.81594 3.27983 47.2643
3509221 8.15033 10.1757 17.1181 11.7026 -1.79767 3.33897 47.1467
3509230 8.21077 10.185 17.0984 11.7585 -1.78069 3.32081 47.2527
3509239 8.21077 10.185 17.0984 11.7585 -1.78069 3.32081 47.2527
3509253 8.2194 10.1944 17.1772 11.7678 -1.81297 3.33556 47.3588
3509261 8.15896 10.1195 17.128 11.7678 -1.80164 3.37599 47.1742
3509281 8.1935 10.1382 17.1477 11.833 -1.78071 3.37615 47.3123
3509291 8.1935 10.1382 17.1477 11.833 -1.78071 3.37615 47.3123
3509301 8.18486 10.1008 17.2067 11.805 -1.84248 3.4017 47.2974
3509311 8.18486 10.1569 17.2362 11.833 -1.80929 3.39396 47.411
3509321 8.18486 10.1569 17.2362 11.833 -1.80929 3.39396 47.411
3509333 8.1676 10.1476 17.2264 11.833 -1.80131 3.40189 47.3745
3509342 8.15896 10.0914 17.2264 11.8516 -1.81834 3.43165 47.3284
3509362 8.13306 10.1195 17.1969 11.8237 -1.79107 3.41674 47.2731
3509374 8.13306 10.1195 17.1969 11.8237 -1.79107 3.41674 47.2731
3509383 8.1417 10.0914 17.2166 11.805 -1.83146 3.42458 47.2547
3509394 8.1417 10.082 17.2362 11.8888 -1.79892 3.45352 47.3488
3509411 8.1417 10.082 17.2362 11.8888 -1.79892 3.45352 47.3488
3509414 8.13306 10.0352 17.2362 11.8516 -1.84234 3.46607 47.2561
3509423 8.1158 10.082 17.2658 11.8981 -1.79543 3.47308 47.3618
3509434 8.1158 10.082 17.2658 11.8981 -1.79543 3.47308 47.3618
3509444 8.12443 10.082 17.1772 11.833 -1.79312 3.43216 47.2166
3509454 8.1676 10.0633 17.2658 11.8609 -1.85248 3.45111 47.3576
3509464 8.1676 10.0633 17.2658 11.8609 -1.85248 3.45111 47.3576
3509474 8.1935 10.0914 17.2461 11.8143 -1.86599 3.41392 47.3453
3509496 8.15896 10.054 17.2166 11.7399 -1.89832 3.41647 47.1694
3509506 8.1935 10.054 17.2166 11.7585 -1.9046 3.40756 47.2225
3509526 8.18486 10.1008 17.2166 11.7399 -1.88433 3.38812 47.2421
3509536 8.23667 10.0633 17.2067 11.7026 -1.94741 3.37095 47.2093
3509546 8.23667 10.0633 17.2067 11.7026 -1.94741 3.37095 47.2093
3509556 8.23667 10.0914 17.2362 11.7119 -1.94049 3.36959 47.2763
3509566 8.23667 10.0914 17.2362 11.7119 -1.94049 3.36959 47.2763
3509576 8.2453 10.0633 17.1969 11.7212 -1.93619 3.36975 47.2267
3509586 8.25394 10.0727 17.187 11.7585 -1.90904 3.3695 47.2721
3509596 8.25394 10.0727 17.187 11.7585 -1.90904 3.3695 47.2721
3509606 8.30574 10.082 17.128 11.6654 -1.95325 3.30818 47.1811
3509616 8.32301 10.0727 17.187 11.7399 -1.95334 3.33811 47.3226
3509626 8.32301 10.0727 17.187 11.7399 -1.95334 3.33811 47.3226
3509638 8.33164 10.1476 17.187 11.7585 -1.90438 3.31039 47.4247
3509650 8.33164 10.1476 17.187 11.7585 -1.90438 3.31039 47.4247
3509659 8.33164 10.1569 17.2067 11.684 -1.95096 3.29326 47.3793
3509667 8.27984 10.1663 17.1378 11.6933 -1.88147 3.29492 47.2773
3509688 8.33164 10.1569 17.0295 11.6933 -1.85914 3.25163 47.2114
3509700 8.33164 10.0914 16.979 11.7212 -1.85575 3.27137 47.1233
3509708 8.33164 10.0914 16.979 11.7212 -1.85575 3.27137 47.1233
3509722 8.40934 10.1663 17 11.6561 -1.8986 3.20138 47.2317
3509728 8.30574 10.1663 16.9369 11.684 -1.80088 3.23261 47.093
3509742 8.30574 10.1663 16.9369 11.684 -1.80088 3.23261 47.093
3509750 8.33164 10.185 16.9369 11.5909 -1.85602 3.19203 47.0445
3509762 8.33164 10.185 16.9369 11.5909 -1.85602 3.19203 47.0445
3509768 8.32301 10.1569 17.0197 11.684 -1.85538 3.2502 47.1836
3509782 8.36618 10.2131 17.1083 11.7678 -1.84044 3.25468 47.4554
3509789 8.36618 10.2131 17.1083 11.7678 -1.84044 3.25468 47.4554
3509799 8.34891 10.1569 17.0787 11.7585 -1.85467 3.27336 47.3431
3509810 8.32301 10.2037 17.0295 11.7864 -1.77555 3.26002 47.3427
3509829 8.34027 10.2693 17.0689 11.7492 -1.78732 3.22867 47.4276
3509849 8.31437 10.2318 17.0689 11.7585 -1.79053 3.25536 47.3736
3509861 8.2971 10.1663 17.0295 11.7771 -1.78931 3.28218 47.27
3509869 8.2971 10.1663 17.0295 11.7771 -1.78931 3.28218 47.27
3509881 8.30574 10.2412 16.979 11.7771 -1.72632 3.23737 47.303
3509891 8.28847 10.2599 16.9369 11.7585 -1.69704 3.2217 47.2438
3509901 8.28847 10.2599 16.9369 11.7585 -1.69704 3.2217 47.2438
3509911 8.34891 10.185 16.979 11.7864 -1.77404 3.2447 47.2993
3509921 8.34891 10.185 16.979 11.7864 -1.77404 3.2447 47.2993
3509931 8.27984 10.1944 16.9579 11.7864 -1.72442 3.26253 47.2186
3509941 8.34891 10.2318 16.9579 11.7306 -1.76884 3.20751 47.2692
3509953 8.34891 10.2318 16.9579 11.7306 -1.76884 3.20751 47.2692
3509968 8.30574 10.3067 16.9474 11.805 -1.65809 3.21124 47.3649
3509971 8.33164 10.185 16.9159 11.8237 -1.71345 3.24493 47.2562
3509981 8.33164 10.185 16.9159 11.8237 -1.71345 3.24493 47.2562
3509992 8.34027 10.2318 16.9895 11.7399 -1.77482 3.22102 47.3015
3510002 8.34027 10.2318 16.9895 11.7399 -1.77482 3.22102 47.3015
3510012 8.31437 10.2412 16.9895 11.7771 -1.73574 3.23666 47.3222
3510022 8.31437 10.2318 16.979 11.7864 -1.7306 3.23997 47.3116
3510032 8.31437 10.2318 16.979 11.7864 -1.7306 3.23997 47.3116
3510051 8.30574 10.2131 17.0098 11.8237 -1.73107 3.26742 47.3523
3510054 8.2712 10.2225 16.9895 11.7119 -1.76199 3.24433 47.1951
3510065 8.2712 10.2225 16.9895 11.7119 -1.76199 3.24433 47.1951
3510074 8.34027 10.2412 16.8844 11.7864 -1.69147 3.2028 47.2522
3510094 8.2712 10.1476 16.9264 11.7492 -1.75226 3.26689 47.0944
3510104 8.35754 10.1476 16.9474 11.6747 -1.8475 3.22012 47.1273
3510115 8.35754 10.1476 16.9474 11.6747 -1.8475 3.22012 47.1273
3510124 8.30574 10.1757 16.8844 11.6468 -1.79083 3.2065 47.0125
3510135 8.36618 10.1569 16.9474 11.7306 -1.81463 3.22711 47.2011
3510146 8.36618 10.1569 16.9474 11.7306 -1.81463 3.22711 47.2011
3510167 8.34891 10.2037 16.979 11.7399 -1.78981 3.22589 47.2715
3510173 8.34891 10.2037 16.979 11.7399 -1.78981 3.22589 47.2715
3510184 8.35754 10.2506 17 11.7212 -1.7884 3.20514 47.3293
3510194 8.35754 10.2506 17 11.7212 -1.7884 3.20514 47.3293
3510204 8.32301 10.2225 16.9895 11.7306 -1.77691 3.22896 47.2655
3510215 8.37481 10.1757 16.9895 11.7306 -1.82888 3.22704 47.2705
3510237 8.34891 10.2037 17 11.7212 -1.81068 3.22649 47.2739
3510244 8.34891 10.2037 17 11.7212 -1.81068 3.22649 47.2739
3510256 8.33164 10.1757 16.9474 11.7212 -1.79231 3.2309 47.176
3510266 8.35754 10.2412 17.0197 11.7492 -1.78754 3.2206 47.3676
3510275 8.35754 10.2412 17.0197 11.7492 -1.78754 3.2206 47.3676
3510284 8.31437 10.2506 16.8633 11.5909 -1.77387 3.15488 47.0192
3510295 8.37481 10.2131 16.8949 11.6375 -1.81403 3.16565 47.1202
3510304 8.37481 10.2131 16.8949 11.6375 -1.81403 3.16565 47.1202
3510315 8.37481 10.2599 16.9369 11.6281 -1.81339 3.15584 47.1998
3510326 8.37481 10.2599 16.9369 11.6281 -1.81339 3.15584 47.1998
3510336 8.40934 10.2506 16.8844 11.6375 -1.80456 3.1353 47.1817
3510346 8.39208 10.3161 16.8633 11.6468 -1.74326 3.11382 47.2183
3510356 8.39208 10.3161 16.8633 11.6468 -1.74326 3.11382 47.2183
3510372 8.46115 10.2599 16.8844 11.6095 -1.84055 3.10479 47.2149
3510376 8.41798 10.2599 16.8528 11.6468 -1.78269 3.12279 47.1775
3510386 8.41798 10.2599 16.8528 11.6468 -1.78269 3.12279 47.1775
3510396 8.46115 10.2974 16.8738 11.6654 -1.78246 3.10186 47.2977
3510406 8.46978 10.2974 16.9264 11.6654 -1.81246 3.11176 47.3589
3510416 8.46978 10.3254 16.9264 11.6654 -1.79657 3.10103 47.387
3510426 8.43525 10.3067 16.8844 11.7119 -1.74327 3.12253 47.3383
3510436 8.43525 10.3067 16.8844 11.7119 -1.74327 3.12253 47.3383
3510446 8.48705 10.3161 16.8423 11.6188 -1.79545 3.06511 47.2643
3510457 8.44388 10.2974 16.8423 11.6375 -1.7743 3.09349 47.221
3510468 8.44388 10.2974 16.8423 11.6375 -1.7743 3.09349 47.221
3510477 8.45251 10.2786 16.7372 11.4978 -1.81686 3.03533 46.9661
3510487 8.45251 10.2786 16.7687 11.4978 -1.83242 3.04335 46.9977
3510497 8.47842 10.2412 16.7687 11.535 -1.8453 3.05725 47.0234
3510507 8.52158 10.2974 16.7372 11.5444 -1.81369 3.01353 47.1005
3510517 8.52158 10.2974 16.7372 11.5444 -1.81369 3.01353 47.1005
3510527 8.45251 10.288 16.7897 11.5723 -1.795 3.06401 47.1025
3510537 8.47842 10.2786 16.8108 11.6468 -1.78111 3.08183 47.2146
3510547 8.47842 10.2786 16.8108 11.6468 -1.78111 3.08183 47.2146
3510557 8.51295 10.2974 16.9054 11.6933 -1.80749 3.097 47.409
3510567 8.49568 10.3067 16.8318 11.6188 -1.79984 3.06273 47.253
3510581 8.49568 10.3067 16.8318 11.6188 -1.79984 3.06273 47.253
3510588 8.46115 10.2974 16.8949 11.6654 -1.79277 3.10714 47.3188
3510598 8.46115 10.2974 16.8949 11.6654 -1.79277 3.10714 47.3188
3510608 8.43525 10.3254 16.9685 11.7119 -1.77395 3.13643 47.4411
3510618 8.40071 10.2506 16.9369 11.7026 -1.78917 3.16815 47.2908
3510628 8.40071 10.2506 16.9369 11.7026 -1.78917 3.16815 47.2908
3510638 8.40934 10.2693 16.9685 11.6281 -1.84049 3.14689 47.2752
3510648 8.40934 10.2693 16.9685 11.6281 -1.84049 3.14689 47.2752
3510659 8.32301 10.2037 16.9159 11.6933 -1.77244 3.20852 47.136
3510673 8.31437 10.2786 16.9895 11.7306 -1.74088 3.21065 47.313
3510691 8.36618 10.2599 16.9264 11.7399 -1.74066 3.18451 47.2924
3510698 8.33164 10.2412 17 11.7306 -1.77571 3.22104 47.3034
3510708 8.33164 10.2412 17 11.7306 -1.77571 3.22104 47.3034
3510718 8.38344 10.2693 17.0787 11.7119 -1.83428 3.20528 47.4434
3510728 8.38344 10.2693 17.0787 11.7119 -1.83428 3.20528 47.4434
3510739 8.32301 10.1569 17 11.7585 -1.80339 3.26383 47.2384
3510748 8.2971 10.1944 16.9895 11.7678 -1.75899 3.25907 47.2488
3510758 8.2971 10.1944 16.9895 11.7678 -1.75899 3.25907 47.2488
3510769 8.31437 10.1757 16.9054 11.7399 -1.75252 3.23172 47.1353
3510780 8.26257 10.1476 16.8949 11.7492 -1.73241 3.26238 47.0542
3510791 8.26257 10.1476 16.8949 11.7492 -1.73241 3.26238 47.0542
3510802 8.33164 10.185 16.9159 11.7771 -1.73979 3.23334 47.2097
3510810 8.33164 10.185 16.9159 11.7771 -1.73979 3.23334 47.2097
3510819 8.33164 10.2599 16.8949 11.7399 -1.70812 3.18991 47.2263
3510829 8.31437 10.185 16.9264 11.7957 -1.72593 3.24727 47.2215
3510839 8.31437 10.185 16.9264 11.7957 -1.72593 3.24727 47.2215
3510849 8.26257 10.2131 16.979 11.7864 -1.71568 3.26719 47.2411
3510859 8.34891 10.2131 16.9054 11.7585 -1.73776 3.20857 47.2259
3510869 8.34891 10.2131 16.9054 11.7585 -1.73776 3.20857 47.2259
3510888 8.36618 10.1757 16.9474 11.7957 -1.76706 3.23612 47.285
3510906 8.2971 10.1757 16.9685 11.7771 -1.75398 3.26339 47.2183
3510909 8.33164 10.185 16.8633 11.7957 -1.70332 3.22488 47.1757
3510919 8.33164 10.185 16.8633 11.7957 -1.70332 3.22488 47.1757
3510930 8.36618 10.2599 16.9264 11.8237 -1.69337 3.2054 47.3762
3510939 8.30574 10.1944 16.9159 11.8143 -1.70065 3.24901 47.2304
3510949 8.30574 10.1944 16.9159 11.8143 -1.70065 3.24901 47.2304
3510959 8.34027 10.2318 16.9159 11.8237 -1.69128 3.22356 47.3117
3510969 8.34027 10.2318 16.9159 11.8237 -1.69128 3.22356 47.3117
3510987 8.34891 10.2131 16.8528 11.7771 -1.7013 3.20009 47.1919
3510989 8.39208 10.185 16.8949 11.805 -1.74339 3.21175 47.277
3511001 8.39208 10.185 16.8949 11.805 -1.74339 3.21175 47.277
3511009 8.39208 10.2225 16.8844 11.7399 -1.75391 3.17843 47.2388
3511021 8.33164 10.2037 16.9264 11.7957 -1.72384 3.23337 47.2575
3511029 8.33164 10.2037 16.9264 11.7957 -1.72384 3.23337 47.2575
3511039 8.42661 10.1944 17.0197 11.8143 -1.81096 3.22823 47.455
3511050 8.42661 10.1944 17.0197 11.8143 -1.81096 3.22823 47.455
3511062 8.30574 10.1944 16.9054 11.7864 -1.71127 3.23943 47.1919
3511071 8.33164 10.2037 16.9369 11.7306 -1.76592 3.21975 47.2029
3511081 8.33164 10.2037 16.9369 11.7306 -1.76592 3.21975 47.2029
3511091 8.32301 10.2131 16.9159 11.7212 -1.75128 3.21189 47.1733
3511103 8.30574 10.1289 16.8318 11.8702 -1.66456 3.26733 47.1366
3511112 8.30574 10.1289 16.8318 11.8702 -1.66456 3.26733 47.1366
3511121 8.33164 10.185 16.8949 11.805 -1.71362 3.23506 47.2166
3511132 8.33164 10.185 16.8949 11.805 -1.71362 3.23506 47.2166
3511141 8.37481 10.1476 16.8844 11.7492 -1.7826 3.21629 47.1559
3511152 8.34891 10.2412 16.8738 11.7492 -1.71159 3.18754 47.2131
3511160 8.34891 10.2412 16.8738 11.7492 -1.71159 3.18754 47.2131
3511173 8.40071 10.2131 16.9264 11.7492 -1.77885 3.19155 47.2894
3511181 8.40071 10.2131 16.9264 11.7492 -1.77885 3.19155 47.2894
3511199 8.34891 10.2037 16.9685 11.7957 -1.75302 3.23718 47.3168
3511201 8.40071 10.2786 16.8844 11.833 -1.67388 3.1768 47.3967
3511212 8.40071 10.2786 16.8844 11.833 -1.67388 3.1768 47.3967
3511222 8.40071 10.2225 16.8423 11.7771 -1.71637 3.1739 47.2426
3511232 8.36618 10.2786 16.9264 11.805 -1.69331 3.19357 47.3763
3511252 8.41798 10.2599 16.7897 11.7212 -1.70938 3.12566 47.1889
3511262 8.36618 10.2318 16.7582 11.6375 -1.73166 3.12733 46.9937
3511283 8.41798 10.2506 16.8318 11.6747 -1.7618 3.12812 47.175
3511292 8.41798 10.2506 16.8318 11.6747 -1.7618 3.12812 47.175
3511303 8.36618 10.2599 16.7477 11.7212 -1.66297 3.13499 47.095
3511319 8.45251 10.185 16.7372 11.6747 -1.76939 3.11619 47.0494
3511329 8.45251 10.185 16.7372 11.6747 -1.76939 3.11619 47.0494
3511337 8.45251 10.2412 16.9054 11.7212 -1.79387 3.14862 47.3203
3511346 8.47842 10.2412 16.8318 11.7678 -1.74412 3.13192 47.3192
3511353 8.47842 10.2412 16.8318 11.7678 -1.74412 3.13192 47.3192
3511363 8.48705 10.3161 16.8738 11.7957 -1.71102 3.11751 47.4727
3511376 8.48705 10.3161 16.8738 11.7957 -1.71102 3.11751 47.4727
3511383 8.44388 10.2599 16.8528 11.8143 -1.70064 3.1549 47.371
3511393 8.44388 10.2599 16.8423 11.7399 -1.73752 3.13361 47.286
3511403 8.44388 10.2599 16.8423 11.7399 -1.73752 3.13361 47.286
3511416 8.44388 10.2506 16.8213 11.6747 -1.76938 3.11553 47.1904
3511424 8.41798 10.2506 16.7582 11.7212 -1.69911 3.12132 47.148
3511433 8.41798 10.1944 16.7582 11.7212 -1.73095 3.14293 47.0918
3511443 8.40071 10.2131 16.8108 11.684 -1.75889 3.14623 47.1086
3511465 8.40071 10.288 16.7582 11.684 -1.69045 3.10417 47.1309
3511473 8.40934 10.2225 16.8002 11.7678 -1.70516 3.15771 47.1999
3511495 8.44388 10.2786 16.8949 11.7306 -1.75802 3.13728 47.3479
3511505 8.35754 10.2225 16.9264 11.7306 -1.76288 3.19991 47.237
3511525 8.38344 10.2974 16.9264 11.7678 -1.71224 3.17047 47.375
3511536 8.38344 10.2974 16.9264 11.7678 -1.71224 3.17047 47.375
3511545 8.36618 10.2974 16.9579 11.7678 -1.71925 3.18497 47.3893
3511555 8.38344 10.2131 16.9264 11.8143 -1.73351 3.21444 47.3373
3511574 8.38344 10.2037 16.9579 11.7585 -1.78588 3.21199 47.3036
3511584 8.2971 10.185 16.8844 11.7212 -1.73888 3.22488 47.0877
3511596 8.2971 10.185 16.8844 11.7212 -1.73888 3.22488 47.0877
3511606 8.30574 10.2225 16.9054 11.7771 -1.70064 3.22626 47.2107
3511616 8.30574 10.2225 16.9054 11.7771 -1.70064 3.22626 47.2107
3511626 8.2453 10.1569 16.979 11.7864 -1.73897 3.29563 47.1676
3511636 8.28847 10.1569 17 11.8609 -1.72843 3.30257 47.3063
3511644 8.28847 10.1569 17 11.8609 -1.72843 3.30257 47.3063
3511654 8.25394 10.1569 17.0098 11.8702 -1.71102 3.32067 47.2909
3511666 8.25394 10.1569 17.0492 11.8888 -1.71988 3.33498 47.3489
3511676 8.25394 10.1289 17.0492 11.8888 -1.73574 3.34586 47.3208
3511687 8.2712 10.2037 16.9579 11.8516 -1.67805 3.27843 47.2845
3511709 8.23667 10.1757 16.9895 11.9074 -1.6609 3.32428 47.3093
3511716 8.31437 10.1569 16.9895 11.9074 -1.70973 3.30146 47.3682
3511729 8.31437 10.1569 16.9895 11.9074 -1.70973 3.30146 47.3682
3511736 8.28847 10.2037 16.9264 11.9261 -1.62904 3.28239 47.3447
3511749 8.28847 10.2037 16.9264 11.9261 -1.62904 3.28239 47.3447
3511756 8.27984 10.1757 16.979 11.9168 -1.67176 3.30727 47.3512
3511766 8.25394 10.1663 16.9369 11.8609 -1.67502 3.2967 47.2181
3511776 8.25394 10.1663 16.9369 11.8609 -1.67502 3.2967 47.2181
3511786 8.20213 10.1757 17.0492 11.8888 -1.68382 3.3478 47.3158
3511796 8.26257 10.185 16.9579 11.8702 -1.67384 3.29362 47.2757
3511818 8.2712 10.1757 16.9054 11.8795 -1.65218 3.28318 47.2318
3511837 8.26257 10.1944 16.9895 11.8702 -1.68412 3.2978 47.3167
3511849 8.22803 10.1289 16.9054 11.8981 -1.64673 3.32269 47.1604
3511856 8.22803 10.1289 16.9054 11.8981 -1.64673 3.32269 47.1604
3511866 8.23667 10.0914 16.9474 11.8888 -1.69825 3.34199 47.1643
3511877 8.22803 10.1663 16.9369 11.9168 -1.6307 3.32057 47.248
3511889 8.22803 10.1663 16.9369 11.9168 -1.6307 3.32057 47.248
3511897 8.20213 10.1757 16.9474 11.9447 -1.60208 3.33648 47.2699
3511912 8.20213 10.1757 16.9474 11.9447 -1.60208 3.33648 47.2699
3511917 8.2971 10.1382 16.9579 11.8795 -1.71204 3.30067 47.2728
3511927 8.20213 10.0914 17.0098 11.9168 -1.69621 3.37771 47.2201
3511947 8.25394 10.185 17.0197 11.8981 -1.68427 3.31912 47.3568
3511957 8.22803 10.1663 17.0492 11.9354 -1.67563 3.35284 47.3789
3511967 8.22803 10.1663 17.0492 11.9354 -1.67563 3.35284 47.3789
3511977 8.25394 10.1663 17.0492 11.9726 -1.66742 3.35196 47.4421
3511988 8.25394 10.1663 17.0492 11.9726 -1.66742 3.35196 47.4421
3511998 8.17623 10.1101 17 11.9633 -1.6417 3.38953 47.2497
3512012 8.20213 10.1382 16.9685 11.9168 -1.64933 3.34931 47.2256
3512028 8.20213 10.1382 17 11.8981 -1.67542 3.3525 47.2385
3512038 8.28847 10.1757 16.9264 11.8702 -1.67634 3.27941 47.2607
3512050 8.28847 10.1757 16.9264 11.8702 -1.67634 3.27941 47.2607
3512058 8.23667 10.1476 16.979 11.9261 -1.66105 3.33716 47.2893
3512070 8.23667 10.1476 16.979 11.9261 -1.66105 3.33716 47.2893
3512078 8.13306 10.1008 17.0098 11.8795 -1.67784 3.39181 47.1232
3512088 8.1676 10.0633 17.0098 11.9261 -1.68977 3.4044 47.1668
3512098 8.1676 10.0633 17.0098 11.9261 -1.68977 3.4044 47.1668
3512111 8.12443 10.1101 17.0689 11.954 -1.6554 3.42433 47.2575
3512120 8.18486 10.054 17.0394 11.954 -1.70238 3.41543 47.2322
3512132 8.18486 10.054 17.0394 11.954 -1.70238 3.41543 47.2322
3512140 8.18486 10.1663 17.0689 11.9819 -1.63788 3.38583 47.402
3512151 8.18486 10.1663 17.0689 11.9819 -1.63788 3.38583 47.402
3512160 8.17623 10.1101 17.0787 11.8609 -1.73842 3.38371 47.226
3512172 8.1935 10.1757 17.0492 11.9261 -1.65858 3.36031 47.3444
3512179 8.1935 10.1757 17.0492 11.9261 -1.65858 3.36031 47.3444
3512189 8.15896 10.1476 17 11.8702 -1.66458 3.35875 47.1768
3512199 8.20213 10.1382 17.0098 11.8423 -1.71186 3.34114 47.1925
3512216 8.20213 10.1382 17.0098 11.8423 -1.71186 3.34114 47.1925
3512221 8.25394 10.2131 16.9369 11.8237 -1.66962 3.26934 47.2276
3512236 8.23667 10.2037 16.9159 11.8143 -1.66124 3.27211 47.1707
3512251 8.26257 10.3067 17.0492 11.8702 -1.65032 3.26924 47.4887
3512261 8.26257 10.3067 17.0492 11.8702 -1.65032 3.26924 47.4887
3512272 8.32301 10.2225 17.0197 11.833 -1.73386 3.2619 47.3981
3512281 8.23667 10.2506 16.8949 11.7957 -1.63491 3.24412 47.1778
3512291 8.23667 10.2506 16.8949 11.7957 -1.63491 3.24412 47.1778
3512302 8.2971 10.2506 16.9579 11.7957 -1.69592 3.23649 47.3013
3512313 8.26257 10.2506 16.8844 11.7306 -1.67937 3.21522 47.128
3512322 8.26257 10.2506 16.8844 11.7306 -1.67937 3.21522 47.128
3512332 8.32301 10.2225 16.9159 11.7771 -1.71435 3.22222 47.2385
3512346 8.32301 10.2225 16.9159 11.7771 -1.71435 3.22222 47.2385
3512352 8.33164 10.2506 16.8738 11.6747 -1.73996 3.17193 47.1307
3512362 8.28847 10.2506 16.9264 11.805 -1.67086 3.23429 47.2705
3512375 8.28847 10.2506 16.9264 11.805 -1.67086 3.23429 47.2705
3512382 8.36618 10.2599 16.979 11.7864 -1.7402 3.20922 47.3915
3512393 8.34891 10.2318 16.9474 11.7864 -1.73207 3.21881 47.3146
3512402 8.34891 10.2318 16.9474 11.7864 -1.73207 3.21881 47.3146
3512412 8.32301 10.1757 17 11.8143 -1.76114 3.27046 47.313
3512432 8.28847 10.2131 16.9264 11.8237 -1.68148 3.25337 47.2516
3512442 8.32301 10.2318 16.9685 11.7957 -1.72442 3.23634 47.319
3512452 8.32301 10.2318 16.9685 11.7957 -1.72442 3.23634 47.319
3512462 8.30574 10.2225 16.9159 11.7864 -1.70057 3.23121 47.2305
3512472 8.30574 10.2225 17.0394 11.7864 -1.76132 3.2619 47.354
3512482 8.25394 10.1195 17.0394 11.7771 -1.79949 3.31948 47.1899
3512492 8.30574 10.1382 17.0984 11.7864 -1.83796 3.30905 47.3288
3512513 8.32301 10.082 17.1083 11.7678 -1.8937 3.32195 47.2811
3512524 8.25394 10.1476 17.1673 11.7771 -1.8463 3.34018 47.346
3512534 8.25394 10.1476 17.1673 11.7771 -1.8463 3.34018 47.346
3512543 8.30574 10.1008 17.1083 11.7026 -1.9117 3.30526 47.2174
3512554 8.27984 10.1195 17.1378 11.7119 -1.8975 3.31766 47.2491
3512567 8.27984 10.1195 17.1378 11.7119 -1.8975 3.31766 47.2491
3512574 8.25394 10.185 17.1378 11.7585 -1.82118 3.31381 47.3353
3512592 8.25394 10.185 17.1378 11.7585 -1.82118 3.31381 47.3353
3512603 8.23667 10.185 17.0591 11.7864 -1.75824 3.30794 47.2672
3512604 8.26257 10.2506 17 11.7678 -1.7154 3.25332 47.2809
3512614 8.26257 10.2506 17 11.7678 -1.7154 3.25332 47.2809
3512627 8.27984 10.2318 16.9579 11.7492 -1.7243 3.23879 47.2188
3512636 8.2453 10.2037 16.8633 11.8609 -1.61319 3.26727 47.1733
3512649 8.2453 10.2037 16.8633 11.8609 -1.61319 3.26727 47.1733
3512656 8.2971 10.2786 16.9159 11.8981 -1.60173 3.24066 47.3898
3512666 8.20213 10.2786 16.8528 11.9354 -1.50254 3.27089 47.269
3512677 8.20213 10.2786 16.8528 11.9354 -1.50254 3.27089 47.269
3512690 8.2194 10.3442 16.8108 11.9912 -1.42232 3.24237 47.3656
3512697 8.2194 10.3442 16.8108 11.9912 -1.42232 3.24237 47.3656
3512707 8.23667 10.3067 16.7372 11.9354 -1.44641 3.21792 47.2159
3512717 8.2194 10.3348 16.7582 12.075 -1.35467 3.25372 47.3874
3512727 8.2194 10.3348 16.7582 12.075 -1.35467 3.25372 47.3874
3512738 8.2194 10.4097 16.6741 12.0192 -1.30204 3.19009 47.3223
3512749 8.22803 10.4097 16.5479 12.0657 -1.21719 3.16687 47.2514
3512758 8.22803 10.4097 16.5479 12.0657 -1.21719 3.16687 47.2514
3512770 8.2453 10.4003 16.5795 11.9912 -1.28833 3.15306 47.2163
3512778 8.2453 10.4003 16.5795 11.9912 -1.28833 3.15306 47.2163
3512790 8.2194 10.3629 16.5795 11.8981 -1.3482 3.15406 47.0599
3512798 8.27984 10.3535 16.59 11.9261 -1.37341 3.14405 47.1494
3512818 8.2453 10.3348 16.569 11.9168 -1.36123 3.15694 47.0658
3512832 8.34027 10.288 16.6531 11.8795 -1.49797 3.15017 47.1609
3512838 8.34027 10.288 16.6531 11.8795 -1.49797 3.15017 47.1609
3512848 8.35754 10.2974 16.6531 11.8516 -1.51701 3.1329 47.1595
3512858 8.35754 10.2974 16.6531 11.8516 -1.51701 3.1329 47.1595
3512868 8.37481 10.2974 16.6531 11.8981 -1.49946 3.13797 47.2234
3512878 8.39208 10.2974 16.7267 11.8423 -1.57596 3.13579 47.2584
3512891 8.39208 10.2974 16.7267 11.8423 -1.57596 3.13579 47.2584
3512898 8.32301 10.3254 16.7161 11.805 -1.5416 3.13954 47.1696
3512912 8.40934 10.3067 16.7582 11.805 -1.61582 3.12415 47.2793
3512919 8.40934 10.3067 16.7582 11.805 -1.61582 3.12415 47.2793
3512929 8.40934 10.3629 16.7792 11.8423 -1.57373 3.11727 47.3937
3512939 8.40934 10.3629 16.7792 11.8423 -1.57373 3.11727 47.3937
3512949 8.41798 10.3067 16.7477 11.833 -1.59917 3.12521 47.3053
3512961 8.35754 10.288 16.7372 11.8702 -1.55361 3.16229 47.2529
3512972 8.35754 10.288 16.7372 11.8702 -1.55361 3.16229 47.2529
3512981 8.38344 10.3161 16.7582 11.7585 -1.62395 3.11879 47.2162
3512994 8.42661 10.2693 16.8002 11.7492 -1.69774 3.12842 47.2453
3513001 8.42661 10.2693 16.8002 11.7492 -1.69774 3.12842 47.2453
3513015 8.42661 10.1757 16.8423 11.7771 -1.75562 3.18195 47.2217
3513021 8.42661 10.1757 16.8423 11.7771 -1.75562 3.18195 47.2217
3513041 8.41798 10.2506 16.9054 11.7399 -1.76108 3.16294 47.3138
3513043 8.42661 10.2412 16.8633 11.7492 -1.74469 3.15503 47.2803
3513052 8.42661 10.2412 16.8633 11.7492 -1.74469 3.15503 47.2803
3513062 8.45251 10.288 16.8949 11.684 -1.78329 3.11871 47.3194
3513072 8.46978 10.288 16.8633 11.6933 -1.77102 3.10651 47.3144
3513092 8.49568 10.2599 16.8318 11.6095 -1.8317 3.07829 47.1969
3513102 8.48705 10.2599 16.7267 11.6095 -1.77572 3.05499 47.0831
3513113 8.48705 10.2693 16.7267 11.6375 -1.75453 3.05848 47.1204
3513122 8.50432 10.2693 16.7372 11.684 -1.74183 3.06631 47.1948
3513132 8.50432 10.2693 16.7372 11.684 -1.74183 3.06631 47.1948
3513143 8.44388 10.2412 16.8318 11.7212 -1.75347 3.13348 47.2381
3513153 8.47842 10.2974 16.8002 11.7306 -1.71791 3.09313 47.3066
3513164 8.47842 10.2974 16.8002 11.7306 -1.71791 3.09313 47.3066
3513173 8.49568 10.2693 16.7792 11.7026 -1.74774 3.08494 47.2468
3513183 8.51295 10.3535 16.6951 11.6933 -1.67243 3.02253 47.2549
3513193 8.51295 10.3535 16.6951 11.6933 -1.67243 3.02253 47.2549
3513203 8.53022 10.3535 16.7792 11.6468 -1.74866 3.02546 47.3097
3513216 8.53022 10.3535 16.7792 11.6468 -1.74866 3.02546 47.3097
3513223 8.46115 10.3348 16.7056 11.6468 -1.68893 3.04033 47.1483
3513237 8.48705 10.3629 16.7267 11.6747 -1.68044 3.03211 47.2513
3513255 8.53022 10.4752 16.6741 11.6933 -1.60206 2.96435 47.3728
3513266 8.53885 10.4191 16.6531 11.6933 -1.62752 2.97705 47.3043
3513274 8.53885 10.4191 16.6531 11.6933 -1.62752 2.97705 47.3043
3513284 8.53885 10.4284 16.611 11.7306 -1.58051 2.97227 47.3088
3513295 8.53885 10.4284 16.611 11.7306 -1.58051 2.97227 47.3088
3513304 8.45251 10.4191 16.569 11.684 -1.54824 2.98615 47.1245
3513313 8.51295 10.4565 16.6741 11.7119 -1.59359 2.98273 47.3555
3513323 8.51295 10.4565 16.6741 11.7119 -1.59359 2.98273 47.3555
3513335 8.47842 10.4846 16.5479 11.7585 -1.47203 2.96495 47.2694
3513344 8.51295 10.4846 16.59 11.7399 -1.52052 2.9578 47.3274
3513355 8.51295 10.4191 16.59 11.7399 -1.55729 2.9827 47.2619
3513365 8.46978 10.391 16.59 11.7119 -1.56737 3.00275 47.1627
3513374 8.46978 10.391 16.59 11.7119 -1.56737 3.00275 47.1627
3513384 8.51295 10.4284 16.5164 11.6468 -1.56787 2.93659 47.1045
3513395 8.51295 10.4846 16.4954 11.7119 -1.48914 2.92653 47.2048
3513415 8.53885 10.4284 16.611 11.7119 -1.59098 2.96753 47.2902
3513426 8.46115 10.4097 16.6005 11.7212 -1.55253 3.00394 47.1926
3513436 8.46115 10.4097 16.6005 11.7212 -1.55253 3.00394 47.1926
3513448 8.50432 10.4565 16.6636 11.7678 -1.55279 2.99751 47.3922
3513456 8.50432 10.4565 16.6636 11.7678 -1.55279 2.99751 47.3922
3513467 8.50432 10.3722 16.59 11.6561 -1.62659 2.98248 47.1226
3513478 8.46978 10.4565 16.6005 11.6933 -1.5462 2.9757 47.2201
3513487 8.46978 10.4565 16.6005 11.6933 -1.5462 2.9757 47.2201
3513497 8.49568 10.4003 16.5795 11.7212 -1.5645 2.98899 47.1967
3513507 8.53022 10.3254 16.5795 11.7026 -1.63437 2.99964 47.1378
3513518 8.53022 10.3254 16.5795 11.7026 -1.63437 2.99964 47.1378
3513527 8.41798 10.4378 16.569 11.6747 -1.52574 2.98981 47.0994
3513538 8.41798 10.3442 16.6951 11.684 -1.636 3.06005 47.1413
3513548 8.41798 10.3442 16.6951 11.684 -1.636 3.06005 47.1413
3513559 8.51295 10.3442 16.6531 11.6747 -1.66746 3.0107 47.1849
3513582 8.49568 10.3067 16.6636 11.7119 -1.66423 3.04373 47.1779
3513588 8.49568 10.3442 16.6741 11.7026 -1.65354 3.02972 47.2166
3513598 8.49568 10.3442 16.6741 11.7026 -1.65354 3.02972 47.2166
3513608 8.51295 10.4378 16.7056 11.684 -1.63539 2.99076 47.3404
3513628 8.51295 10.3348 16.6741 11.7119 -1.6621 3.02906 47.2338
3513638 8.53885 10.4565 16.6636 11.6747 -1.62212 2.96077 47.3336
3513653 8.53885 10.4565 16.6636 11.6747 -1.62212 2.96077 47.3336
3513658 8.54749 10.4003 16.6951 11.6561 -1.68407 2.98211 47.299
3513668 8.52158 10.391 16.6951 11.6375 -1.68709 2.99079 47.2451
3513678 8.52158 10.391 16.6951 11.6375 -1.68709 2.99079 47.2451
3513689 8.50432 10.3722 16.6846 11.6654 -1.66817 3.00893 47.2266
3513698 8.50432 10.3722 16.6846 11.6654 -1.66817 3.00893 47.2266
3513710 8.46978 10.2786 16.6741 11.7026 -1.67777 3.0647 47.1251
3513719 8.49568 10.4003 16.7267 11.6654 -1.66882 3.01219 47.2881
3513731 8.49568 10.4003 16.7267 11.6654 -1.66882 3.01219 47.2881
3513740 8.46978 10.3816 16.6846 11.684 -1.63531 3.02326 47.22
3513751 8.46978 10.4378 16.7056 11.684 -1.61406 3.00718 47.2972
3513761 8.46978 10.4378 16.7056 11.684 -1.61406 3.00718 47.2972
3513771 8.48705 10.391 16.7372 11.7119 -1.64879 3.03349 47.3271
3513781 8.45251 10.3629 16.7477 11.7026 -1.65801 3.05769 47.2657
3513791 8.45251 10.3629 16.7477 11.7026 -1.65801 3.05769 47.2657
3513801 8.42661 10.3816 16.7897 11.6933 -1.66068 3.06869 47.2913
3513811 8.42661 10.3816 16.7897 11.6933 -1.66068 3.06869 47.2913
3513822 8.37481 10.3535 16.7687 11.7492 -1.60902 3.10804 47.2462
3513832 8.34891 10.288 16.8213 11.805 -1.62767 3.17035 47.2632
3513852 8.37481 10.3629 16.7161 11.7492 -1.5777 3.09121 47.203
3513865 8.38344 10.3161 16.7477 11.7492 -1.624 3.1138 47.1964
3513872 8.38344 10.3161 16.7477 11.7492 -1.624 3.1138 47.1964
3513891 8.40934 10.3254 16.7897 11.805 -1.62087 3.12489 47.3296
3513902 8.36618 10.3348 16.7477 11.7864 -1.58391 3.12261 47.2351
3513913 8.34027 10.3254 16.8213 11.8516 -1.57616 3.17093 47.3386
3513923 8.34027 10.3254 16.8213 11.8516 -1.57616 3.17093 47.3386
3513933 8.33164 10.2786 16.8108 11.7771 -1.63495 3.17097 47.1981
3513943 8.38344 10.3442 16.7372 11.7492 -1.60295 3.10038 47.214
3513953 8.38344 10.3442 16.7372 11.7492 -1.60295 3.10038 47.214
3513964 8.36618 10.3254 16.8108 11.7026 -1.66766 3.121 47.205
3513974 8.35754 10.3442 16.7687 11.6933 -1.63726 3.10418 47.1637
3513984 8.35754 10.3442 16.7687 11.6933 -1.63726 3.10418 47.1637
3513994 8.40071 10.3254 16.8108 11.6747 -1.7005 3.10071 47.2116
3514007 8.40071 10.3254 16.8108 11.6747 -1.7005 3.10071 47.2116
3514016 8.39208 10.3442 16.7056 11.7026 -1.61785 3.07735 47.1445
3514028 8.46978 10.3535 16.7582 11.7399 -1.65601 3.06672 47.3214
3514046 8.42661 10.4097 16.7372 11.6933 -1.61888 3.04469 47.2668
3514058 8.41798 10.4191 16.7056 11.7306 -1.57277 3.04585 47.2732
3514076 8.44388 10.4191 16.7267 11.7678 -1.57509 3.05069 47.3574
3514086 8.44388 10.4191 16.611 11.7678 -1.51775 3.02144 47.2417
3514097 8.41798 10.4378 16.611 11.7026 -1.53096 3.00763 47.1694
3514107 8.42661 10.4939 16.6005 11.6654 -1.51938 2.97077 47.1864
3514127 8.39208 10.4003 16.569 11.684 -1.52868 3.01641 47.0454
3514137 8.44388 10.4565 16.6425 11.6747 -1.56469 2.99153 47.2176
3514148 8.44388 10.4565 16.6425 11.6747 -1.56469 2.99153 47.2176
3514157 8.49568 10.4471 16.6005 11.684 -1.56955 2.96704 47.2273
3514168 8.41798 10.4097 16.6531 11.7026 -1.56767 3.02904 47.1834
3514182 8.41798 10.4097 16.6531 11.7026 -1.56767 3.02904 47.1834
3514188 8.39208 10.4471 16.7372 11.7771 -1.53368 3.06473 47.3535
3514198 8.39208 10.4471 16.7372 11.7771 -1.53368 3.06473 47.3535
3514208 8.38344 10.3535 16.6846 11.7399 -1.57685 3.08117 47.1614
3514221 8.40934 10.3816 16.7582 11.7306 -1.61558 3.07673 47.2797
3514228 8.40934 10.3816 16.7582 11.7306 -1.61558 3.07673 47.2797
3514242 8.39208 10.4191 16.7267 11.684 -1.59655 3.04929 47.2218
3514252 8.37481 10.3629 16.6636 11.7585 -1.54634 3.08029 47.1598
3514268 8.37481 10.3629 16.6636 11.7585 -1.54634 3.08029 47.1598
3514270 8.37481 10.3161 16.6531 11.7212 -1.58851 3.08617 47.0652
3514289 8.37481 10.3161 16.6531 11.7585 -1.56749 3.09559 47.1024
3514301 8.38344 10.4003 16.7056 11.8237 -1.5139 3.08969 47.3131
3514311 8.38344 10.4003 16.7056 11.8237 -1.5139 3.08969 47.3131
3514321 8.40071 10.3442 16.7161 11.7957 -1.57489 3.10019 47.2567
3514331 8.37481 10.3629 16.7372 11.8795 -1.51494 3.12928 47.3544
3514341 8.37481 10.3629 16.7372 11.8795 -1.51494 3.12928 47.3544
3514351 8.36618 10.391 16.6951 11.8516 -1.4897 3.10426 47.3038
3514366 8.36618 10.391 16.6951 11.8516 -1.4897 3.10426 47.3038
3514369 8.39208 10.3629 16.6741 11.8143 -1.52875 3.09042 47.2434
3514379 8.36618 10.4565 16.6425 11.7864 -1.46334 3.04951 47.2516
3514391 8.36618 10.4565 16.6425 11.7864 -1.46334 3.04951 47.2516
3514401 8.31437 10.4378 16.7056 11.7306 -1.51079 3.07832 47.1883
3514411 8.34027 10.3722 16.7267 11.7212 -1.57623 3.09647 47.1604
3514421 8.34027 10.3722 16.7267 11.7212 -1.57623 3.09647 47.1604
3514431 8.39208 10.391 16.8002 11.7399 -1.61733 3.09269 47.3232
3514441 8.39208 10.391 16.8002 11.7399 -1.61733 3.09269 47.3232
3514451 8.32301 10.3535 16.7161 11.8237 -1.51535 3.13343 47.2163
3514461 8.32301 10.3254 16.7582 11.7957 -1.56773 3.14777 47.2024
3514481 8.39208 10.3722 16.7582 11.7492 -1.60183 3.09161 47.2717
3514491 8.37481 10.3629 16.7267 11.7678 -1.57243 3.09855 47.2321
3514500 8.37481 10.3629 16.7267 11.7678 -1.57243 3.09855 47.2321
3514512 8.38344 10.3348 16.7267 11.805 -1.57157 3.11538 47.2499
3514531 8.38344 10.3348 16.7267 11.805 -1.57157 3.11538 47.2499
3514532 8.35754 10.3348 16.6846 11.7771 -1.55354 3.1077 47.1541
3514542 8.45251 10.3816 16.6846 11.7492 -1.59005 3.04636 47.2679
3514552 8.45251 10.3816 16.6846 11.7492 -1.59005 3.04636 47.2679
3514564 8.41798 10.2786 16.7161 11.7026 -1.67295 3.09522 47.1154
3514574 8.42661 10.3535 16.6951 11.7212 -1.61397 3.06259 47.1965
3514581 8.42661 10.3535 16.6951 11.7212 -1.61397 3.06259 47.1965
3514594 8.43525 10.3254 16.6636 11.7585 -1.59746 3.07147 47.1828
3514602 8.43525 10.3254 16.6636 11.7585 -1.59746 3.07147 47.1828
3514612 8.49568 10.3348 16.611 11.7771 -1.58559 3.03619 47.2186
3514622 8.45251 10.3722 16.6741 11.7585 -1.58487 3.04963 47.2573
3514632 8.45251 10.3722 16.6741 11.7585 -1.58487 3.04963 47.2573
3514642 8.48705 10.4003 16.6636 11.7585 -1.58098 3.02308 47.3094
3514652 8.39208 10.4191 16.6636 11.7771 -1.5129 3.05688 47.2518
3514664 8.39208 10.4191 16.6636 11.7771 -1.5129 3.05688 47.2518
3514677 8.42661 10.3629 16.6425 11.7771 -1.55116 3.05984 47.2092
3514682 8.42661 10.3629 16.6425 11.7771 -1.55116 3.05984 47.2092
3514692 8.45251 10.3722 16.611 11.6654 -1.60606 3.01 47.1012
3514702 8.46115 10.3629 16.6531 11.684 -1.62598 3.0257 47.1611
3514712 8.46115 10.3629 16.6531 11.684 -1.62598 3.0257 47.1611
3514722 8.42661 10.4097 16.6846 11.7585 -1.55619 3.04788 47.2794
3514732 8.42661 10.4097 16.6846 11.7585 -1.55619 3.04788 47.2794
3514742 8.39208 10.3161 16.6636 11.7399 -1.59181 3.08691 47.1116
3514752 8.38344 10.391 16.6531 11.8423 -1.48259 3.08472 47.2698
3514762 8.38344 10.391 16.6531 11.8423 -1.48259 3.08472 47.2698
3514773 8.37481 10.3442 16.6636 11.7864 -1.54116 3.09452 47.169
3514783 8.39208 10.4191 16.6425 11.7957 -1.492 3.05628 47.2494
3514792 8.39208 10.4191 16.6425 11.7957 -1.492 3.05628 47.2494
3514803 8.38344 10.3442 16.6531 11.8609 -1.49839 3.10733 47.2416
3514823 8.40934 10.3254 16.632 11.7957 -1.54795 3.08284 47.1626
3514833 8.33164 10.3629 16.6951 11.7678 -1.53532 3.10716 47.1574
3514843 8.33164 10.3629 16.6951 11.7678 -1.53532 3.10716 47.1574
3514853 8.34027 10.3348 16.7267 11.7957 -1.55538 3.12961 47.1975
3514864 8.27984 10.3161 16.6636 11.805 -1.49916 3.14654 47.0645
3514888 8.27984 10.3161 16.6636 11.805 -1.49916 3.14654 47.0645
3514889 8.34027 10.391 16.6741 11.8143 -1.48722 3.09951 47.2197
3514894 8.32301 10.288 16.7267 11.7957 -1.57316 3.15425 47.1334
3514906 8.32301 10.288 16.7267 11.7957 -1.57316 3.15425 47.1334
3514914 8.36618 10.3348 16.7582 11.8702 -1.54205 3.14628 47.3294
3514924 8.36618 10.3348 16.7582 11.8702 -1.54205 3.14628 47.3294
3514934 8.37481 10.3348 16.7687 11.8609 -1.55675 3.14327 47.3392
3514944 8.37481 10.2974 16.7897 11.9354 -1.5464 3.1815 47.3973
3514954 8.37481 10.2974 16.7897 11.9354 -1.5464 3.1815 47.3973
3514965 8.40934 10.3442 16.8213 11.8702 -1.58934 3.14194 47.445
3514979 8.30574 10.2693 16.8318 11.8702 -1.58536 3.21308 47.277
3514986 8.30574 10.2693 16.8318 11.8702 -1.58536 3.21308 47.277
3514994 8.36618 10.2599 16.8108 11.8237 -1.63634 3.17654 47.2605
3515016 8.2971 10.1569 16.7372 11.8237 -1.62378 3.22455 47.0149
3515026 8.30574 10.2318 16.9054 11.8423 -1.65856 3.23888 47.2852
3515036 8.30574 10.2318 16.9054 11.8423 -1.65856 3.23888 47.2852
3515048 8.2712 10.1382 16.8738 11.8516 -1.67352 3.28292 47.1348
3515056 8.22803 10.1195 16.8844 11.8609 -1.66267 3.31188 47.0928
3515067 8.22803 10.1195 16.8844 11.8609 -1.66267 3.31188 47.0928
3515093 8.30574 10.1101 16.9474 11.8609 -1.73753 3.301 47.2242
3515095 8.2712 10.1663 17.0197 11.8795 -1.71382 3.31509 47.3367
3515107 8.27984 10.1476 16.9685 11.9819 -1.6457 3.33162 47.3778
3515116 8.27984 10.1476 16.9685 11.9819 -1.6457 3.33162 47.3778
3515126 8.30574 10.2037 16.9895 11.9261 -1.66864 3.29132 47.425
3515153 8.28847 10.1195 17 11.833 -1.76543 3.31016 47.2409
3515178 8.26257 10.1569 16.9369 11.8609 -1.68458 3.29698 47.2173
3515187 8.25394 10.1476 17.0098 11.9074 -1.69528 3.33349 47.3188
3515197 8.25394 10.1476 17.0098 11.9074 -1.69528 3.33349 47.3188
3515207 8.25394 10.2225 17.0098 11.8609 -1.6793 3.29302 47.3471
3515217 8.2453 10.1757 17.0394 11.8981 -1.69498 3.33094 47.3585
3515227 8.2453 10.1757 17.0394 11.8981 -1.69498 3.33094 47.3585
3515237 8.25394 10.185 16.9895 11.8888 -1.67464 3.30937 47.3173
3515247 8.25394 10.185 16.9895 11.8888 -1.67464 3.30937 47.3173
3515257 8.26257 10.1289 16.8844 11.8143 -1.70085 3.28326 47.0901
3515267 8.22803 10.1289 16.9054 11.9074 -1.64147 3.325 47.1697
3515277 8.22803 10.1289 16.9054 11.9074 -1.64147 3.325 47.1697
3515289 8.15896 10.082 17.0098 11.9447 -1.66439 3.40504 47.1955
3515298 8.17623 10.1289 17.0394 11.954 -1.65584 3.38963 47.2985
3515308 8.17623 10.1289 17.0394 11.954 -1.65584 3.38963 47.2985
3515318 8.17623 10.1757 17.0492 11.9819 -1.61865 3.38072 47.383
3515328 8.17623 10.1757 17.0492 11.9819 -1.61865 3.38072 47.383
3515339 8.08989 10.0446 17 11.9726 -1.63068 3.45111 47.1071
3515350 8.15033 10.1476 17.0787 12.0099 -1.62053 3.41575 47.3865
3515359 8.15033 10.1476 17.0787 12.0099 -1.62053 3.41575 47.3865
3515369 8.15896 10.1569 16.9264 11.9912 -1.55461 3.36681 47.2335
3515379 8.1417 10.1195 16.9685 11.9912 -1.58798 3.39845 47.2209
3515389 8.1417 10.1195 16.9685 11.9912 -1.58798 3.39845 47.2209
3515401 8.23667 10.1663 17 12.0285 -1.60331 3.36027 47.4314
3515411 8.23667 10.1663 17 12.0285 -1.60331 3.36027 47.4314
3515419 8.17623 10.1757 17.0197 11.9819 -1.60407 3.37348 47.3535
3515429 8.1676 10.1569 17.0197 11.954 -1.62604 3.37724 47.2982
3515439 8.1676 10.1569 17.0197 11.954 -1.62604 3.37724 47.2982
3515449 8.15896 10.1476 16.979 11.9819 -1.59117 3.38109 47.2674
3515459 8.15896 10.2131 17.0197 11.9074 -1.61636 3.34733 47.2992
3515470 8.15896 10.2131 17.0197 11.9074 -1.61636 3.34733 47.2992
3515479 8.15033 10.2037 16.9579 11.954 -1.5606 3.35057 47.266
3515498 8.15033 10.2037 16.9579 11.954 -1.5606 3.35057 47.266
3515500 8.20213 10.185 16.9474 11.9633 -1.58634 3.33744 47.2979
3515511 8.17623 10.1289 16.9264 12.0471 -1.54757 3.38475 47.2786
3515529 8.17623 10.1663 16.9369 11.9633 -1.57883 3.35216 47.2428
3515540 8.18486 10.1944 16.9685 12.0285 -1.54638 3.36172 47.3762
3515562 8.1676 10.2037 17.0492 11.954 -1.6143 3.36632 47.3746
3515571 8.1676 10.2037 17.0492 11.954 -1.6143 3.36632 47.3746
3515580 8.15896 10.1382 16.9895 11.9726 -1.60689 3.38502 47.2593
3515591 8.21077 10.1008 16.9895 11.9912 -1.6431 3.38402 47.2923
3515607 8.21077 10.1008 16.9895 11.9912 -1.6431 3.38402 47.2923
3515611 8.1935 10.185 16.9264 11.9633 -1.57165 3.3356 47.2682
3515621 8.1676 10.1663 17 11.9912 -1.5901 3.37791 47.3251
3515632 8.1676 10.1663 17 11.9912 -1.5901 3.37791 47.3251
3515642 8.15033 10.1476 17.0591 12.0285 -1.60035 3.41549 47.3854
3515685 8.15033 10.1476 17.0591 12.0285 -1.60035 3.41549 47.3854
3515692 8.1676 10.1476 17.0886 12.0192 -1.62867 3.41372 47.4229
3515743 8.1158 10.1569 17.0689 12.075 -1.5568 3.43904 47.4167
3515747 8.1158 10.1569 17.0689 12.075 -1.5568 3.43904 47.4167
3515748 8.12443 10.1663 17.0295 12.0099 -1.57289 3.4065 47.3301
3515750 8.1417 10.1476 16.9579 12.0378 -1.54081 3.39636 47.285
3515751 8.1417 10.1476 16.9579 12.0378 -1.54081 3.39636 47.285
3515752 8.1417 10.1476 16.8949 11.9819 -1.54086 3.3671 47.1661
3515753 8.1417 10.1476 16.8949 11.9819 -1.54086 3.3671 47.1661
3515754 8.1158 10.1008 16.9054 11.954 -1.57533 3.39116 47.0759
3515755 8.10716 10.082 16.9685 11.9912 -1.59194 3.42653 47.1489
3515762 8.10716 10.082 16.9685 11.9912 -1.59194 3.42653 47.1489
3515772 8.15033 10.1569 17.0394 11.9912 -1.60629 3.39792 47.3379
3515782 8.13306 10.1569 17.0098 12.075 -1.53612 3.41791 47.3749
3515791 8.13306 10.1289 17.0098 12.075 -1.55186 3.42884 47.3468
3515811 8.13306 10.1476 17.0492 12.0657 -1.56607 3.42889 47.3956
3515814 8.13306 10.1476 17.0492 12.0657 -1.56607 3.42889 47.3956
3515822 8.1417 10.1569 17 12.0657 -1.54074 3.40987 47.3643
3515833 8.08126 10.2225 16.9264 12.0099 -1.46874 3.37612 47.24
3515843 8.08126 10.2225 16.9264 12.0099 -1.46874 3.37612 47.24
3515853 8.15033 10.1944 16.8108 12.0192 -1.45605 3.33396 47.1746
3515863 8.12443 10.1757 16.9474 12.0378 -1.51126 3.38957 47.2853
3515873 8.12443 10.1757 16.9474 12.0378 -1.51126 3.38957 47.2853
3515883 8.1676 10.1944 16.8633 12.0192 -1.49085 3.34024 47.2445
3515893 8.1676 10.1944 16.8633 12.0192 -1.49085 3.34024 47.2445
3515903 8.15033 10.2131 16.8949 11.9912 -1.50311 3.34056 47.2495
3515915 8.1935 10.2037 16.9159 12.0285 -1.51936 3.34181 47.3416
3515923 8.1935 10.2037 16.9159 12.0285 -1.51936 3.34181 47.3416
3515933 8.1676 10.2225 16.8844 11.9633 -1.51689 3.32073 47.2377
3515943 8.1676 10.2318 16.9159 12.0285 -1.49079 3.34097 47.3438
3515953 8.1676 10.2318 16.9159 12.0285 -1.49079 3.34097 47.3438
3515963 8.17623 10.185 16.8528 11.954 -1.53177 3.32181 47.1681
3515973 8.17623 10.185 16.8528 11.954 -1.53177 3.32181 47.1681
3515983 8.1676 10.1663 16.8633 11.9819 -1.52753 3.34195 47.1792
3515994 8.20213 10.2506 16.7897 11.9633 -1.47122 3.27302 47.2057
3516015 8.18486 10.2506 16.8423 11.9168 -1.51493 3.2812 47.1945
3516024 8.15896 10.2037 16.8318 11.9726 -1.49171 3.32065 47.1671
3516036 8.15896 10.2037 16.8318 11.9726 -1.49171 3.32065 47.1671
3516044 8.15896 10.2131 16.8423 11.9261 -1.51785 3.30808 47.1404
3516055 8.15896 10.2131 16.8423 11.9261 -1.51785 3.30808 47.1404
3516064 8.1676 10.185 16.8633 12.0005 -1.50655 3.33928 47.2165
3516074 8.18486 10.2318 16.8318 11.9633 -1.49408 3.2974 47.2118
3516094 8.2712 10.2318 16.8318 11.9354 -1.55266 3.25706 47.2702
3516112 8.2712 10.2318 16.7897 11.9354 -1.53178 3.24661 47.2281
3516120 8.2453 10.2037 16.7897 11.954 -1.52422 3.27212 47.1928
3516124 8.2453 10.2131 16.9054 11.9168 -1.59729 3.28795 47.2805
3516136 8.2453 10.2131 16.9054 11.9168 -1.59729 3.28795 47.2805
3516144 8.21077 10.1289 16.8528 11.9168 -1.60158 3.32099 47.1092
3516154 8.26257 10.1569 16.8423 11.9074 -1.61148 3.28506 47.1693
3516165 8.26257 10.1569 16.8423 11.9074 -1.61148 3.28506 47.1693
3516174 8.2453 10.1663 16.9474 11.954 -1.62347 3.32567 47.313
3516185 8.2453 10.1663 16.9474 11.954 -1.62347 3.32567 47.313
3516194 8.28847 10.1195 16.9159 11.9168 -1.67658 3.31008 47.2406
3516207 8.28847 10.1757 17.0098 11.9074 -1.69645 3.30926 47.3814
3516214 8.28847 10.1757 17.0098 11.9074 -1.69645 3.30926 47.3814
3516226 8.28847 10.1476 16.9895 11.8888 -1.71278 3.31049 47.3144
3516236 8.28847 10.1569 16.9579 11.8981 -1.6867 3.30138 47.3015
3516248 8.28847 10.1569 16.9579 11.8981 -1.6867 3.30138 47.3015
3516256 8.23667 10.1476 16.9685 11.9726 -1.62964 3.34604 47.3253
3516268 8.23667 10.1476 16.9685 11.9726 -1.62964 3.34604 47.3253
3516276 8.23667 10.0914 16.9579 11.9354 -1.67712 3.35608 47.2214
3516289 8.2194 10.1195 17.0098 11.9912 -1.64687 3.37839 47.34
3516296 8.2194 10.1195 17.0098 11.9912 -1.64687 3.37839 47.34
3516309 8.22803 10.1195 16.9895 11.8702 -1.70939 3.34022 47.2072
3516316 8.17623 10.082 17.0295 11.9261 -1.69317 3.39857 47.2139
3516327 8.17623 10.082 17.0295 11.9261 -1.69317 3.39857 47.2139
3516336 8.25394 10.1476 17.0492 11.9354 -1.69892 3.35006 47.3861
3516346 8.25394 10.1476 17.0689 11.9354 -1.70859 3.3549 47.4058
3516357 8.20213 10.1101 17.0689 12.0192 -1.65703 3.41004 47.4003
3516367 8.08989 10.1195 17.0492 11.954 -1.62331 3.42933 47.2126
3516377 8.08989 10.1195 17.0492 11.954 -1.62331 3.42933 47.2126
3516387 8.08126 10.082 17.0591 11.9354 -1.65556 3.44518 47.1577
3516397 8.1158 10.082 17.0984 11.9354 -1.69209 3.44133 47.2317
3516418 8.1158 10.0633 17.0492 11.9168 -1.6889 3.43202 47.1451
3516427 8.1158 10.0633 17.0492 11.9168 -1.6889 3.43202 47.1451
3516437 8.04672 10.054 17.0394 11.9074 -1.66039 3.45804 47.0475
3516456 8.08989 10.0727 17.0689 12.0099 -1.62794 3.46609 47.2413
3516469 8.1158 10.0446 17.0295 11.9168 -1.68976 3.43451 47.1067
3516478 8.13306 10.1289 17.128 12.0657 -1.61544 3.45537 47.4556
3516488 8.13306 10.1289 17.128 12.0657 -1.61544 3.45537 47.4556
3516498 8.15033 10.1008 17.0591 12.0564 -1.61096 3.44052 47.3666
3516508 8.15896 10.1663 17.0394 12.0099 -1.59484 3.39549 47.3745
3516518 8.15896 10.1663 17.0394 12.0099 -1.59484 3.39549 47.3745
3516528 8.1417 10.1476 17.0591 11.9819 -1.62224 3.40745 47.3303
3516550 8.12443 10.1195 17.0689 12.0005 -1.6239 3.43207 47.3134
3516559 8.2194 10.1569 16.9369 11.9447 -1.61597 3.33445 47.2579
3516570 8.2194 10.1569 16.9369 11.9447 -1.61597 3.33445 47.2579
3516582 8.23667 10.082 16.9474 11.8981 -1.69827 3.34793 47.1643
3516590 8.21077 10.1382 16.9054 11.8143 -1.6803 3.30498 47.0687
3516603 8.21077 10.1382 16.9054 11.8143 -1.6803 3.30498 47.0687
3516610 8.2971 10.1569 16.9474 11.9074 -1.68052 3.29774 47.3089
3516619 8.2971 10.1569 16.9474 11.9074 -1.68052 3.29774 47.3089
3516630 8.2971 10.1663 16.9895 11.833 -1.73801 3.28609 47.2859
3516639 8.25394 10.1476 17 11.8609 -1.71672 3.31957 47.2624
3516649 8.25394 10.1476 17 11.8609 -1.71672 3.31957 47.2624
3516659 8.35754 10.1757 16.9685 11.8609 -1.73631 3.26085 47.3626
3516679 8.21077 10.1569 17.0394 11.8516 -1.71483 3.3401 47.2587
3516690 8.2453 10.0914 17.0098 11.8609 -1.74911 3.34715 47.2075
3516710 8.20213 10.054 16.9474 11.7771 -1.76588 3.34237 46.9806
3516721 8.2453 10.082 17.0197 11.8143 -1.78567 3.34172 47.1614
3516730 8.2453 10.082 17.0197 11.8143 -1.78567 3.34172 47.1614
3516743 8.18486 10.0914 17.1181 11.8702 -1.76738 3.3996 47.2646
3516751 8.22803 10.1289 17.1673 11.9168 -1.76523 3.39176 47.441
3516761 8.22803 10.1289 17.1673 11.9168 -1.76523 3.39176 47.441
3516773 8.26257 10.1008 17.187 11.8888 -1.82339 3.38724 47.4392
3516781 8.26257 10.1008 17.187 11.8888 -1.82339 3.38724 47.4392
3516792 8.23667 10.0914 17.1181 11.9074 -1.77174 3.3886 47.3537
3516801 8.26257 10.0914 17.0886 11.9261 -1.75944 3.37587 47.3686
3516814 8.26257 10.0914 17.0886 11.9261 -1.75944 3.37587 47.3686
3516822 8.21077 10.0633 17.0886 11.9074 -1.76041 3.40234 47.2701
3516834 8.21077 10.0633 17.0886 11.9074 -1.76041 3.40234 47.2701
3516841 8.17623 10.0633 17.1083 11.9633 -1.72152 3.4343 47.3111
3516855 8.1935 10.0352 17.128 11.9447 -1.76609 3.43877 47.3014
3516861 8.1935 10.0352 17.128 11.9447 -1.76609 3.43877 47.3014
3516875 8.15896 10.0259 17.0492 11.954 -1.71034 3.43891 47.1881
3516882 8.13306 10.0352 17.1477 11.9819 -1.725 3.47625 47.2979
3516892 8.13306 10.0352 17.1477 11.9819 -1.725 3.47625 47.2979
3516902 8.15033 10.0914 17.0886 11.9354 -1.69898 3.42179 47.2657
3516912 8.15896 10.082 17.0394 12.0099 -1.64222 3.42826 47.2902
3516923 8.15896 10.082 17.0394 12.0099 -1.64222 3.42826 47.2902
3516932 8.20213 10.1382 17.0689 11.9726 -1.66741 3.38774 47.3819
3516944 8.20213 10.1382 17.0689 11.9726 -1.66741 3.38774 47.3819
3516952 8.15033 10.1663 16.979 11.9168 -1.61306 3.36112 47.2124
3516962 8.1676 10.1569 17.0492 11.954 -1.64063 3.38449 47.3278
3516982 8.13306 10.1569 17.0394 12.0005 -1.59252 3.40691 47.3299
3516992 8.13306 10.1569 17.0394 12.0005 -1.59252 3.40691 47.3299
3517002 8.1158 10.1476 17.0492 11.9447 -1.62554 3.406 47.2573
3517012 8.1417 10.1663 17.0295 12.0564 -1.55533 3.41118 47.3939
3517032 8.13306 10.1008 16.979 12.0285 -1.57848 3.42083 47.2413
3517042 8.1158 10.1382 17.0591 12.0378 -1.58332 3.43484 47.3509
3517053 8.1158 10.1382 17.0591 12.0378 -1.58332 3.43484 47.3509
3517064 8.10716 10.2225 17.0394 12.075 -1.50126 3.40974 47.444
3517073 8.04672 10.1569 17.0591 12.0657 -1.52294 3.46127 47.3284
3517094 8.08989 10.1663 17.0984 12.0936 -1.54293 3.4572 47.4483
3517106 8.08989 10.1663 17.0984 12.0936 -1.54293 3.4572 47.4483
3517113 8.02082 10.0727 17.0984 12.0285 -1.59788 3.50486 47.2204
3517127 8.04672 10.1101 17 12.1123 -1.49375 3.4765 47.2691
3517148 8.02946 10.1289 17 12.075 -1.49554 3.46685 47.2333
3517154 8.00356 10.0914 17.0591 12.0285 -1.55922 3.4947 47.1825
3517166 8.00356 10.0914 17.0591 12.0285 -1.55922 3.4947 47.1825
3517174 8.03809 10.1382 17.1083 12.0657 -1.55355 3.48394 47.3503
3517186 8.03809 10.1382 17.1083 12.0657 -1.55355 3.48394 47.3503
3517194 7.99492 10.0633 17.0886 11.9912 -1.60642 3.50722 47.1381
3517204 8.06399 10.082 17.0787 12.0471 -1.59376 3.48404 47.2719
3517216 8.06399 10.082 17.0787 12.0471 -1.59376 3.48404 47.2719
3517226 8.1417 10.1382 17.0295 12.075 -1.56063 3.42665 47.3845
3517236 8.1158 10.1476 17.0886 12.0378 -1.59266 3.4384 47.3898
3517246 8.1158 10.1476 17.0886 12.0378 -1.59266 3.4384 47.3898
3517256 8.1417 10.185 16.9895 12.103 -1.49897 3.4055 47.4192
3517276 8.09853 10.1569 16.9159 11.9447 -1.54554 3.37628 47.116
3517286 8.15033 10.0914 16.8844 11.954 -1.58734 3.37614 47.0801
3517296 8.15033 10.0914 16.8844 11.954 -1.58734 3.37614 47.0801
3517306 8.15896 10.1008 16.9369 11.9354 -1.62296 3.3775 47.132
3517319 8.15896 10.1569 16.9159 11.8981 -1.60184 3.34123 47.1299
3517326 8.15896 10.1569 16.9159 11.8981 -1.60184 3.34123 47.1299
3517340 8.1676 10.1569 16.9685 11.9633 -1.59545 3.36693 47.2563
3517346 8.1676 10.1569 16.9685 11.9633 -1.59545 3.36693 47.2563
3517356 8.17623 10.1944 17.0197 11.9912 -1.58833 3.3685 47.3815
3517366 8.15896 10.1382 17.0197 11.9819 -1.61659 3.39473 47.2988
3517381 8.15896 10.1382 17.0197 11.9819 -1.61659 3.39473 47.2988
3517386 8.22803 10.2037 16.979 11.9168 -1.6304 3.31645 47.3275
3517396 8.2194 10.1476 17.0098 11.8423 -1.71508 3.3308 47.2191
3517407 8.2194 10.1476 17.0098 11.8423 -1.71508 3.3308 47.2191
3517417 8.2453 10.1569 16.9264 11.8609 -1.67085 3.30107 47.1895
3517427 8.2453 10.1569 16.9264 11.8609 -1.67085 3.30107 47.1895
3517441 8.18486 10.1757 16.9685 11.8795 -1.64067 3.33228 47.2085
3517447 8.23667 10.1101 17.0295 11.9074 -1.71762 3.35956 47.2838
3517461 8.23667 10.1101 17.0295 11.9074 -1.71762 3.35956 47.2838
3517468 8.22803 10.1008 17.0197 11.8609 -1.74015 3.35265 47.2094
3517481 8.17623 10.1008 17.0787 11.954 -1.6911 3.41021 47.3097
3517489 8.17623 10.1008 17.0787 11.954 -1.6911 3.41021 47.3097
3517498 8.22803 10.0914 17.0197 11.9074 -1.7191 3.36776 47.2466
3517509 8.15896 10.0352 17.0689 11.954 -1.71476 3.44008 47.2171
3517519 8.15896 10.0352 17.0689 11.954 -1.71476 3.44008 47.2171
3517529 8.15033 10.0259 17.0886 11.9354 -1.73605 3.44737 47.2002
3517539 8.15033 10.0259 17.0886 11.9354 -1.73605 3.44737 47.2002
3517549 8.12443 9.9978 17.1477 11.954 -1.75774 3.48746 47.2239
3517561 8.12443 10.0633 17.2264 12.0005 -1.73309 3.49233 47.4147
3517571 8.12443 10.0633 17.2264 12.0005 -1.73309 3.49233 47.4147
3517581 8.1417 9.9978 17.1772 12.0099 -1.74914 3.50149 47.3265
3517591 8.06399 9.97907 17.2067 12.0285 -1.7255 3.55093 47.2783
3517611 8.08989 9.96035 17.2166 12.075 -1.72737 3.56176 47.3418
3517621 8.08989 9.96035 17.2166 12.075 -1.72737 3.56176 47.3418
3517632 8.02946 9.97907 17.2264 12.0564 -1.70241 3.57601 47.2913
3517644 7.99492 9.98844 17.1969 12.0471 -1.67078 3.57651 47.2273
3517652 7.99492 9.98844 17.1969 12.0471 -1.67078 3.57651 47.2273
3517671 7.99492 9.97907 17.2461 12.0471 -1.70035 3.59209 47.2672
3517673 7.94312 10.0352 17.315 12.0936 -1.65089 3.61817 47.387
3517695 7.97765 9.96971 17.2756 12.0657 -1.70117 3.61417 47.2887
3517702 7.97765 9.96971 17.2756 12.0657 -1.70117 3.61417 47.2887
3517712 7.96039 9.97907 17.1772 12.0843 -1.62823 3.59804 47.201
3517731 7.98629 10.0259 17.2264 12.0843 -1.63899 3.58132 47.3229
3517732 7.98629 10.0259 17.2264 12.0843 -1.63899 3.58132 47.3229
3517747 8.04672 10.0259 17.1673 12.103 -1.62919 3.54785 47.3429
3517753 8.06399 10.0727 17.1477 12.0843 -1.61215 3.5135 47.3687
3517763 8.06399 10.0727 17.1477 12.0843 -1.61215 3.5135 47.3687
3517773 8.08989 10.1663 17.1181 12.0471 -1.57873 3.45067 47.4214
3517783 8.08989 10.1663 17.1181 12.0471 -1.57873 3.45067 47.4214
3517793 8.08126 10.0914 17.0787 11.9633 -1.64424 3.45318 47.2147
3517804 8.07263 10.1382 17.0394 12.0005 -1.57312 3.43775 47.2508
3517813 8.07263 10.1382 17.0394 12.0005 -1.57312 3.43775 47.2508
3517823 8.13306 10.1944 17 11.954 -1.57815 3.37126 47.2814
3517833 8.1158 10.1757 17.0591 12.0378 -1.56231 3.42027 47.3883
3517853 8.08989 10.1476 17.0492 12.0192 -1.57083 3.43433 47.3059
3517864 8.08126 10.0914 17.0295 11.9912 -1.60411 3.44797 47.1934
3517874 8.08126 10.0914 17.0295 11.9912 -1.60411 3.44797 47.1934
3517884 8.08126 10.1195 17.0295 11.9261 -1.62503 3.42102 47.1564
3517894 8.08126 10.1195 17.0295 11.9261 -1.62503 3.42102 47.1564
3517905 8.08126 10.1289 17 11.9168 -1.61036 3.40782 47.1269
3517916 8.06399 10.1382 17.0394 12.0005 -1.56884 3.44112 47.2421
3517926 8.06399 10.1382 17.0394 12.0005 -1.56884 3.44112 47.2421
3517934 8.06399 10.1008 17.0787 12.0285 -1.5937 3.47218 47.272
3517956 8.02082 10.0352 17.0984 12.0657 -1.59799 3.5286 47.2202
3517957 8.02082 10.0352 17.0984 12.0657 -1.59799 3.5286 47.2202
3517969 8.02946 10.1289 17.1575 12.0564 -1.5841 3.50066 47.3722
3517976 8.02946 10.1289 17.1575 12.0564 -1.5841 3.50066 47.3722
3517988 8.03809 10.1008 17.0591 12.0378 -1.56587 3.47978 47.2357
3517996 8.04672 10.082 17.1083 12.0378 -1.60507 3.49572 47.2748
3518006 8.04672 10.082 17.1083 12.0378 -1.60507 3.49572 47.2748
3518016 8.10716 10.185 17.0984 11.9354 -1.62976 3.40457 47.326
3518026 8.10716 10.185 17.0295 11.9354 -1.59568 3.38766 47.2571
3518036 8.12443 10.185 17.0295 11.9726 -1.58329 3.39009 47.3116
3518046 8.1417 10.2225 17.0591 11.9168 -1.61678 3.36238 47.34
3518056 8.1417 10.2225 17.0591 11.9168 -1.61678 3.36238 47.34
3518066 8.1417 10.1757 16.9474 11.8888 -1.60361 3.34616 47.1536
3518076 8.1935 10.2225 17 11.9261 -1.60796 3.33005 47.342
3518086 8.1935 10.2225 17 11.9261 -1.60796 3.33005 47.342
3518096 8.22803 10.1944 16.9369 11.8981 -1.62537 3.30508 47.2575
3518106 8.22803 10.1944 16.9369 11.8981 -1.62537 3.30508 47.2575
3518117 8.2453 10.1195 16.9579 11.9074 -1.68129 3.33492 47.2302
3518124 8.25394 10.2131 16.9159 11.7957 -1.67501 3.25717 47.1787
3518138 8.25394 10.2131 16.9159 11.7957 -1.67501 3.25717 47.1787
3518146 8.25394 10.2131 16.9159 11.833 -1.65398 3.26643 47.2159
3518160 8.25394 10.1944 16.9579 11.8609 -1.66955 3.29103 47.2672
3518166 8.25394 10.1944 16.9579 11.8609 -1.66955 3.29103 47.2672
3518176 8.2453 10.2506 16.9369 11.9074 -1.59707 3.27898 47.3402
3518186 8.2453 10.2506 16.9369 11.9074 -1.59707 3.27898 47.3402
3518196 8.23667 10.2412 16.9685 11.8609 -1.63984 3.28222 47.3072
3518206 8.17623 10.2037 16.8949 11.8237 -1.6156 3.29264 47.0985
3518216 8.17623 10.2037 16.8949 11.8237 -1.6156 3.29264 47.0985
3518227 8.27984 10.2506 16.9474 11.833 -1.66122 3.24979 47.3108
3518237 8.2971 10.2693 16.9159 11.7864 -1.66987 3.21649 47.2687
3518247 8.2971 10.2693 16.9159 11.7864 -1.66987 3.21649 47.2687
3518257 8.27984 10.2599 16.8528 11.7864 -1.63543 3.21101 47.179
3518268 8.27984 10.2599 16.8528 11.7864 -1.63543 3.21101 47.179
3518277 8.30574 10.1944 16.8318 11.7864 -1.67489 3.22107 47.1183
3518288 8.37481 10.2412 16.7792 11.8423 -1.62507 3.17719 47.2375
3518297 8.37481 10.2412 16.7792 11.8423 -1.62507 3.17719 47.2375
3518311 8.37481 10.3629 16.7267 11.805 -1.5515 3.10793 47.2694
3518317 8.38344 10.3161 16.7792 11.805 -1.60814 3.13577 47.2838
3518327 8.38344 10.3161 16.7792 11.805 -1.60814 3.13577 47.2838
3518337 8.44388 10.4191 16.7372 11.7678 -1.58029 3.05334 47.3679
3518347 8.44388 10.4191 16.7372 11.7678 -1.58029 3.05334 47.3679
3518362 8.41798 10.3722 16.7792 11.7399 -1.63028 3.08465 47.3093
3518367 8.44388 10.3442 16.6846 11.7957 -1.58065 3.07572 47.2684
3518389 8.41798 10.3254 16.7161 11.8143 -1.5835 3.10543 47.2739
3518400 8.39208 10.3348 16.7582 11.7678 -1.61243 3.11064 47.2529
3518408 8.39208 10.3348 16.7582 11.7678 -1.61243 3.11064 47.2529
3518417 8.43525 10.3348 16.7161 11.7957 -1.59726 3.09055 47.2819
3518427 8.43525 10.3348 16.7161 11.7957 -1.59726 3.09055 47.2819
3518438 8.44388 10.3161 16.7056 11.7119 -1.65412 3.07062 47.1775
3518447 8.41798 10.3629 16.59 11.7957 -1.51026 3.05455 47.1666
3518466 8.41798 10.3629 16.59 11.7957 -1.51026 3.05455 47.1666
3518467 8.42661 10.3722 16.5164 11.805 -1.46737 3.03136 47.1203
3518478 8.44388 10.3629 16.569 11.8143 -1.50222 3.04403 47.1901
3518488 8.44388 10.3629 16.569 11.8143 -1.50222 3.04403 47.1901
3518498 8.49568 10.3722 16.569 11.8143 -1.52273 3.02068 47.2512
3518509 8.49568 10.3722 16.569 11.8143 -1.52273 3.02068 47.2512
3518518 8.44388 10.3535 16.5374 11.7678 -1.51795 3.0278 47.1026
3518531 8.46978 10.3535 16.5269 11.7771 -1.52038 3.01758 47.1273
3518538 8.46978 10.3535 16.5269 11.7771 -1.52038 3.01758 47.1273
3518553 8.49568 10.4097 16.4954 11.7678 -1.49122 2.97586 47.1685
3518558 8.52158 10.391 16.5479 11.8237 -1.50943 3.0007 47.2841
3518578 8.53022 10.3629 16.59 11.805 -1.56079 3.01405 47.2881
3518600 8.52158 10.3348 16.5479 11.8609 -1.52005 3.03155 47.2652
3518610 8.51295 10.3161 16.5059 11.805 -1.53676 3.01715 47.1399
3518620 8.51295 10.3161 16.5059 11.805 -1.53676 3.01715 47.1399
3518630 8.58202 10.3442 16.5479 11.7678 -1.59709 2.98132 47.2419
3518639 8.64246 10.3816 16.3902 11.7585 -1.53298 2.90146 47.1728
3518660 8.73743 10.391 16.3166 11.6188 -1.61709 2.80695 47.0639
3518671 8.73743 10.391 16.3166 11.6188 -1.61709 2.80695 47.0639
3518679 8.7547 10.3629 16.1905 11.6188 -1.57876 2.77828 46.9269
3518689 8.84104 10.4003 16.2641 11.6188 -1.63713 2.75067 47.1243
3518703 8.84104 10.4003 16.2641 11.6188 -1.63713 2.75067 47.1243
3518709 8.87557 10.3348 16.2956 11.6188 -1.70693 2.77054 47.1248
3518720 8.87557 10.3348 16.2956 11.6188 -1.70693 2.77054 47.1248
3518729 8.84967 10.4097 16.222 11.6561 -1.59423 2.74264 47.1375
3518739 8.89284 10.3629 16.2851 11.6933 -1.65226 2.77004 47.2341
3518749 8.89284 10.3629 16.2851 11.6933 -1.65226 2.77004 47.2341
3518761 8.8842 10.3722 16.3061 11.684 -1.65836 2.7728 47.2466
3518771 8.7806 10.3816 16.3482 11.6747 -1.62788 2.81678 47.1851
3518780 8.7806 10.3816 16.3482 11.6747 -1.62788 2.81678 47.1851
3518794 8.7806 10.4191 16.3271 11.7399 -1.55968 2.81404 47.2667
3518799 8.7806 10.4191 16.3271 11.7399 -1.55968 2.81404 47.2667
3518809 8.71153 10.288 16.4113 11.7399 -1.64098 2.91139 47.1506
3518820 8.72016 10.3348 16.4218 11.805 -1.58734 2.90974 47.2818
3518829 8.72016 10.3348 16.4218 11.805 -1.58734 2.90974 47.2818
3518841 8.69426 10.3348 16.3692 11.7026 -1.60614 2.87981 47.1009
3518850 8.65973 10.288 16.4428 11.7119 -1.64672 2.93202 47.1025
3518865 8.65973 10.288 16.4428 11.7119 -1.64672 2.93202 47.1025
3518878 8.65973 10.3067 16.5479 11.8143 -1.6304 2.97784 47.3287
3518880 8.65973 10.3067 16.5479 11.8143 -1.6304 2.97784 47.3287
3518889 8.54749 10.2599 16.5269 11.8888 -1.54884 3.052 47.2231
3518899 8.46978 10.2506 16.6005 11.8516 -1.57303 3.09453 47.1724
3518911 8.46978 10.2506 16.6005 11.8516 -1.57303 3.09453 47.1724
3518921 8.41798 10.2131 16.6531 11.8609 -1.58926 3.14441 47.145
3518931 8.38344 10.2412 16.7056 11.954 -1.53005 3.1834 47.2843
3518941 8.38344 10.2412 16.7056 11.954 -1.53005 3.1834 47.2843
3518951 8.35754 10.1663 16.8318 11.9447 -1.62702 3.25134 47.3003
3518962 8.35754 10.1663 16.8318 11.9447 -1.62702 3.25134 47.3003
3518976 8.26257 10.054 16.8002 12.0192 -1.58567 3.34231 47.136
3518987 8.2194 10.1008 16.9264 12.1216 -1.54295 3.39716 47.3682
3519013 8.12443 10.0165 17 12.1309 -1.57441 3.48726 47.2718
3519021 8.06399 9.9978 17.0492 12.1309 -1.57938 3.53023 47.2419
3519034 8.05536 10.0633 17.0984 12.1495 -1.55223 3.5244 47.3666
3519042 7.99492 10.0352 17.1673 12.2147 -1.53565 3.59144 47.4122
3519063 8.02082 9.9978 17.128 12.1867 -1.56562 3.57975 47.3333
3519077 8.02082 9.9978 17.128 12.1867 -1.56562 3.57975 47.3333
3519083 7.98629 9.9978 17.0295 12.1681 -1.51006 3.56501 47.1817
3519094 8.01219 10.0633 17.0591 12.2054 -1.48002 3.54529 47.3399
3519103 8.01219 10.0633 17.0591 12.2054 -1.48002 3.54529 47.3399
3519113 8.01219 10.0633 17.0394 12.1774 -1.48587 3.53375 47.2923
3519123 8.01219 10.0633 17.0394 12.1774 -1.48587 3.53375 47.2923
3519133 7.95175 9.9978 17.0984 12.2054 -1.50626 3.60427 47.2534
3519143 8.10716 10.0259 17.0787 12.1961 -1.56302 3.52529 47.4078
3519153 8.10716 10.0259 17.0787 12.1961 -1.56302 3.52529 47.4078
3519163 8.00356 9.9978 17.0689 12.1402 -1.55393 3.561 47.2105
3519184 8.12443 9.96971 17.0984 12.103 -1.66517 3.52272 47.2955
3519187 8.12443 9.96971 17.0984 12.103 -1.66517 3.52272 47.2955
3519193 8.08126 10.0352 17.0492 12.1495 -1.55644 3.51332 47.3152
3519203 8.05536 9.96035 17.0492 12.0936 -1.61719 3.53928 47.1586
3519214 8.05536 9.96035 17.0492 12.0936 -1.61719 3.53928 47.1586
3519225 8.08126 10.0446 17.0886 12.1309 -1.58113 3.51469 47.3453
3519234 8.08126 10.0446 17.0886 12.1309 -1.58113 3.51469 47.3453
3519247 8.06399 10.0259 17.0197 12.0657 -1.58562 3.49617 47.1753
3519255 8.08126 10.0352 17.0197 12.1123 -1.56271 3.49708 47.2485
3519268 8.08126 10.0352 17.0197 12.1123 -1.56271 3.49708 47.2485
3519276 8.1676 10.0727 17.0591 12.0471 -1.6405 3.44246 47.3464
3519289 8.08126 10.0072 17.0886 12.0564 -1.64412 3.51126 47.2334
3519296 8.08126 10.0072 17.0886 12.0564 -1.64412 3.51126 47.2334
3519306 8.15896 10.0072 17.1477 12.0657 -1.7063 3.49748 47.3795
3519316 8.15896 10.0072 17.1477 12.0657 -1.7063 3.49748 47.3795
3519326 8.1417 9.96971 17.1477 12.0843 -1.70842 3.52338 47.3434
3519336 8.12443 9.9978 17.2264 12.0936 -1.71756 3.54046 47.4423
3519346 8.12443 9.9978 17.2264 12.0936 -1.71756 3.54046 47.4423
3519356 8.08126 9.97907 17.2264 12.0657 -1.72265 3.55793 47.3525
3519366 8.10716 9.94163 17.2067 12.0378 -1.76265 3.55094 47.2933
3519377 8.10716 9.94163 17.2067 12.0378 -1.76265 3.55094 47.2933
3519386 8.03809 9.90419 17.2067 12.0285 -1.75515 3.59057 47.1775
3519396 8.03809 9.90419 17.2067 12.0285 -1.75515 3.59057 47.1775
3519406 8.01219 9.89482 17.2559 11.9726 -1.80367 3.60286 47.1356
3519416 8.02082 9.91355 17.2559 12.0192 -1.77085 3.60332 47.2095
3519426 8.02082 9.91355 17.2559 12.0192 -1.77085 3.60332 47.2095
3519436 8.01219 9.93227 17.3347 12.0285 -1.78942 3.62057 47.3076
3519446 8.01219 9.93227 17.3347 12.0285 -1.78942 3.62057 47.3076
3519456 7.99492 9.96035 17.2461 12.0099 -1.732 3.59046 47.2112
3519466 8.08126 9.92291 17.2362 12.0657 -1.75923 3.58235 47.3061
3519477 8.08126 9.92291 17.2362 12.0657 -1.75923 3.58235 47.3061
3519487 8.13306 9.96035 17.2559 12.0378 -1.78891 3.54536 47.3871
3519496 8.1935 10.0165 17.2461 12.0471 -1.77671 3.49971 47.5032
3519506 8.1935 10.0165 17.2461 12.0471 -1.77671 3.49971 47.5032
3519517 8.15896 9.96971 17.2362 11.9726 -1.82354 3.51102 47.3375
3519527 8.15896 9.96971 17.1378 11.9726 -1.77525 3.48708 47.2391
3519537 8.21077 9.98844 17.1378 11.9354 -1.81119 3.45042 47.2724
3519547 8.1935 10.0727 17.1083 11.9354 -1.7405 3.41709 47.3098
3519557 8.1935 10.0727 17.1083 11.9354 -1.7405 3.41709 47.3098
3519567 8.18486 10.0072 17.0591 11.9726 -1.72803 3.44308 47.2237
3519577 8.21077 9.96971 17.0098 11.8981 -1.78003 3.41724 47.0885
3519589 8.21077 9.96971 17.0098 11.8981 -1.78003 3.41724 47.0885
3519597 8.23667 10.0727 17.0295 11.9354 -1.723 3.38098 47.2743
3519617 8.2453 10.054 16.9895 11.8702 -1.75503 3.35899 47.159
3519628 8.2971 10.0633 17.0492 11.9074 -1.78347 3.35911 47.3171
3519639 8.2971 10.0633 17.0492 11.9074 -1.78347 3.35911 47.3171
3519651 8.2453 10.0727 17.0098 11.8795 -1.74917 3.35902 47.2074
3519662 8.23667 10.0259 17.0295 11.8888 -1.77587 3.38775 47.1809
3519670 8.23667 10.0259 17.0295 11.8888 -1.77587 3.38775 47.1809
3519677 8.1935 10.0259 17.0295 11.9447 -1.72293 3.41832 47.1936
3519690 8.1158 10.0259 17.187 11.9447 -1.76222 3.48718 47.2734
3519698 8.1158 10.054 17.187 12.0099 -1.70954 3.49205 47.3666
3519708 8.1417 10.0633 17.1378 12.0005 -1.69804 3.46405 47.3434
3519718 8.1417 10.0633 17.1378 12.0005 -1.69804 3.46405 47.3434
3519728 8.04672 10.0259 17.1969 12.0657 -1.66472 3.54598 47.3352
3519738 8.02082 9.96971 17.2067 12.0657 -1.68848 3.58057 47.263
3519748 8.02082 9.96971 17.2067 12.0657 -1.68848 3.58057 47.263
3519758 8.08989 9.97907 17.2658 12.1216 -1.71475 3.57752 47.4563
3519768 8.08989 9.97907 17.2658 12.1216 -1.71475 3.57752 47.4563
3519778 7.98629 9.90419 17.3347 12.1309 -1.73468 3.66641 47.356
3519798 7.92585 9.94163 17.3445 12.1681 -1.66769 3.68673 47.3801
3519799 7.92585 9.94163 17.3445 12.1681 -1.66769 3.68673 47.3801
3519808 7.93448 9.91355 17.3544 12.1774 -1.68736 3.69897 47.3798
3519818 7.83951 9.8293 17.3937 12.1961 -1.69699 3.78375 47.2586
3519829 7.83951 9.8293 17.3937 12.1961 -1.69699 3.78375 47.2586
3519839 7.89132 9.86674 17.3839 12.2426 -1.67031 3.75706 47.3846
3519849 7.89132 9.86674 17.3839 12.2426 -1.67031 3.75706 47.3846
3519859 7.82224 9.84802 17.3839 12.2054 -1.66779 3.78305 47.2595
3519869 7.83951 9.85738 17.4528 12.2147 -1.69973 3.79101 47.3644
3519879 7.83951 9.85738 17.4528 12.2147 -1.69973 3.79101 47.3644
3519897 7.83951 9.89482 17.3839 12.2054 -1.64993 3.75762 47.3236
3519899 7.83951 9.8761 17.3741 12.2147 -1.65037 3.76491 47.3044
3519909 7.83951 9.8761 17.3741 12.2147 -1.65037 3.76491 47.3044
3519920 7.86541 9.95099 17.443 12.2333 -1.64451 3.7458 47.4927
3519929 7.86541 9.95099 17.443 12.2333 -1.64451 3.7458 47.4927
3519940 7.81361 9.93227 17.3052 12.1681 -1.59806 3.72541 47.2192
3519949 7.81361 9.96035 17.3445 12.1774 -1.59652 3.7259 47.2959
3519962 7.81361 9.96035 17.3445 12.1774 -1.59652 3.7259 47.2959
3519969 7.79634 9.96971 17.3642 12.2054 -1.57676 3.74037 47.3356
3519979 7.85678 9.95099 17.3839 12.2426 -1.60595 3.7374 47.4343
3519989 7.85678 9.95099 17.3839 12.2426 -1.60595 3.7374 47.4343
3519999 7.81361 10.054 17.315 12.1681 -1.53457 3.67963 47.3507
3520009 7.81361 10.054 17.315 12.1681 -1.53457 3.67963 47.3507
3520021 7.69274 9.96971 17.3445 12.1495 -1.547 3.76351 47.1565
3520031 7.70137 10.0259 17.3544 12.2519 -1.46722 3.76447 47.3335
3520051 7.71864 10.0165 17.3445 12.2054 -1.50221 3.74793 47.2851
3520061 7.75317 10.0165 17.3544 12.2054 -1.52424 3.73659 47.3294
3520071 7.75317 10.0165 17.3544 12.2054 -1.52424 3.73659 47.3294
3520081 7.73591 10.0352 17.4036 12.2612 -1.49835 3.76097 47.436
3520095 7.73591 10.0352 17.4036 12.2612 -1.49835 3.76097 47.436
3520101 7.69274 10.0259 17.4036 12.2612 -1.48217 3.78176 47.3834
3520111 7.71864 9.96035 17.4922 12.2612 -1.57553 3.81841 47.4324
3520121 7.71864 9.96035 17.4922 12.2612 -1.57553 3.81841 47.4324
3520132 7.6582 9.96971 17.4725 12.2147 -1.55675 3.82307 47.3151
3520142 7.72727 9.9978 17.4134 12.2147 -1.54595 3.77051 47.3532
3520157 7.72727 9.9978 17.4134 12.2147 -1.54595 3.77051 47.3532
3520172 7.71001 9.96035 17.4331 12.2054 -1.57339 3.79468 47.3088
3520184 7.6582 9.94163 17.4331 12.1867 -1.5687 3.81833 47.2197
3520192 7.72727 9.92291 17.3937 12.2147 -1.57825 3.79558 47.2586
3520215 7.67547 9.91355 17.3642 12.1867 -1.55886 3.80631 47.14
3520222 7.76181 9.92291 17.4528 12.1961 -1.63502 3.79144 47.3336
3520233 7.76181 9.92291 17.4528 12.1961 -1.63502 3.79144 47.3336
3520246 7.79634 9.96971 17.4233 12.1867 -1.61641 3.74999 47.3761
3520253 7.79634 9.96971 17.3839 12.1867 -1.59696 3.74062 47.3367
3520267 7.81361 9.93227 17.3839 12.1681 -1.63703 3.74419 47.2979
3520273 7.86541 9.9978 17.4331 12.1867 -1.63953 3.71395 47.4831
3520291 7.86541 9.9978 17.4331 12.1867 -1.63953 3.71395 47.4831
3520293 7.83088 9.94163 17.3937 12.1309 -1.66612 3.72712 47.2971
3520305 7.81361 9.9978 17.3741 12.1309 -1.61624 3.70703 47.3164
3520315 7.81361 9.9978 17.3741 12.1309 -1.61624 3.70703 47.3164
3520324 7.84815 9.98844 17.3445 12.0936 -1.64495 3.68112 47.2748
3520335 7.78771 9.96035 17.4036 12.075 -1.67062 3.72583 47.2267
3520354 7.85678 9.95099 17.4823 12.0843 -1.74345 3.72318 47.3745
3520364 7.85678 9.95099 17.4823 12.0843 -1.74345 3.72318 47.3745
3520377 7.89132 9.93227 17.443 12.0099 -1.79379 3.68976 47.2764
3520385 7.85678 9.96035 17.4627 12.0564 -1.74426 3.70813 47.3362
3520395 7.85678 9.96035 17.4627 12.0564 -1.74426 3.70813 47.3362
3520415 7.83088 10.0446 17.4134 12.0192 -1.68076 3.66442 47.3081
3520419 7.86541 10.0727 17.3839 12.0471 -1.65167 3.63936 47.3691
3520424 7.86541 10.0727 17.3839 12.0471 -1.65167 3.63936 47.3691
3520434 7.87405 10.0633 17.3839 12.0099 -1.68217 3.63071 47.3311
3520444 7.87405 10.0633 17.3839 12.0099 -1.68217 3.63071 47.3311
3520454 7.87405 10.0633 17.4036 11.9912 -1.70237 3.63097 47.3322
3520465 7.90858 10.0727 17.3544 11.9354 -1.7214 3.5884 47.271
3520475 7.90858 10.0727 17.3544 11.9354 -1.7214 3.5884 47.271
3520486 7.93448 10.1101 17.3347 11.8888 -1.72961 3.54749 47.2681
3520496 7.90858 10.0727 17.3248 11.8702 -1.74374 3.56549 47.1763
3520506 7.90858 10.0727 17.3248 11.8702 -1.74374 3.56549 47.1763
3520516 7.99492 10.0259 17.3445 11.9633 -1.76968 3.57723 47.3286
3520526 7.99492 10.0259 17.3445 11.9633 -1.76968 3.57723 47.3286
3520536 8.00356 10.0072 17.3445 11.9168 -1.81088 3.56995 47.272
3520546 7.97765 10.0352 17.4036 11.8888 -1.82705 3.57661 47.3053
3520556 7.97765 10.0352 17.4036 11.8888 -1.82705 3.57661 47.3053
3520566 8.02082 10.1663 17.3248 11.9261 -1.7145 3.49839 47.438
3520586 7.97765 10.0727 17.3248 11.8795 -1.77246 3.54061 47.2547
3520596 8.00356 10.0727 17.3544 11.9261 -1.77333 3.54888 47.3567
3520616 7.98629 10.0072 17.3544 11.8981 -1.81781 3.57461 47.246
3520628 7.99492 10.0165 17.3642 11.9168 -1.811 3.57442 47.2924
3520636 7.99492 10.0165 17.3642 11.9168 -1.811 3.57442 47.2924
3520648 8.01219 10.0165 17.4627 11.9074 -1.87287 3.58914 47.3988
3520667 8.00356 9.98844 17.502 11.9261 -1.89323 3.61749 47.4201
3520676 7.84815 9.92291 17.5414 11.9074 -1.88437 3.7096 47.2199
3520697 7.89132 9.97907 17.502 11.954 -1.82788 3.67204 47.3264
3520711 7.87405 9.94163 17.5709 12.0564 -1.81636 3.73448 47.443
3520717 7.87405 9.94163 17.5709 12.0564 -1.81636 3.73448 47.443
3520728 7.80498 9.96971 17.5906 12.0192 -1.79738 3.74651 47.3845
3520737 7.80498 9.96971 17.5906 12.0192 -1.79738 3.74651 47.3845
3520747 7.74454 9.92291 17.5906 12.0657 -1.76789 3.80006 47.3238
3520757 7.80498 9.98844 17.5906 12.0936 -1.74478 3.75677 47.4777
3520767 7.80498 9.98844 17.5906 12.0936 -1.74478 3.75677 47.4777
3520778 7.84815 10.0072 17.5906 11.9726 -1.82365 3.70359 47.4185
3520787 7.83951 10.0446 17.4233 11.8888 -1.76357 3.63207 47.1962
3520800 7.83951 10.0446 17.4233 11.8888 -1.76357 3.63207 47.1962
3520807 7.92585 10.1101 17.4823 11.8888 -1.79785 3.58654 47.4072
3520822 7.92585 10.1101 17.4823 11.8888 -1.79785 3.58654 47.4072
3520828 7.93448 10.082 17.3642 11.8237 -1.79697 3.54988 47.2044
3520838 7.94312 10.1008 17.3445 11.8702 -1.75453 3.54565 47.2586
3520848 7.94312 10.1008 17.3445 11.8702 -1.75453 3.54565 47.2586
3520858 7.96902 10.1289 17.3248 11.8702 -1.7417 3.51972 47.2929
3520868 7.94312 10.1944 17.3248 11.9168 -1.66572 3.51551 47.3791
3520878 7.94312 10.1944 17.3248 11.9168 -1.66572 3.51551 47.3791
3520888 8.03809 10.2225 17.2658 11.8423 -1.70953 3.43503 47.3686
3520898 8.03809 10.2225 17.2658 11.8423 -1.70953 3.43503 47.3686
3520914 7.99492 10.1944 17.2067 11.7957 -1.70132 3.43698 47.1917
3520922 7.99492 10.1569 17.2067 11.8423 -1.69616 3.46301 47.2009
3520932 7.99492 10.1569 17.2067 11.8423 -1.69616 3.46301 47.2009
3520938 7.97765 10.2318 17.0886 11.9074 -1.55012 3.42753 47.2055
3520948 8.03809 10.2506 17.128 11.7864 -1.65725 3.37661 47.203
3520970 8.06399 10.2131 17.0098 11.8237 -1.61167 3.36116 47.1106
3520980 8.06399 10.2131 17.0098 11.8237 -1.61167 3.36116 47.1106
3520990 8.04672 10.185 17.1083 11.8888 -1.63097 3.4191 47.2289
3520999 8.04672 10.185 17.1378 11.9074 -1.63508 3.4309 47.277
3521009 8.04672 10.185 17.1378 11.9074 -1.63508 3.4309 47.277
3521027 8.04672 10.2225 17.1575 11.9168 -1.61849 3.42341 47.3434
3521029 8.08126 10.1944 17.128 11.9726 -1.60535 3.42733 47.3762
3521049 7.99492 10.2412 17.2461 11.9912 -1.58435 3.47601 47.4734
3521061 7.99492 10.2412 17.2461 11.9912 -1.58435 3.47601 47.4734
3521069 7.96039 10.1476 17.2067 11.9912 -1.60038 3.51647 47.3059
3521081 8.05536 10.2225 17.1378 11.9819 -1.57644 3.43116 47.3976
3521102 7.97765 10.2131 17.1181 11.9447 -1.55437 3.45119 47.2536
3521109 8.05536 10.1757 17.187 11.954 -1.6427 3.45457 47.372
3521126 8.05536 10.1757 17.187 11.954 -1.6427 3.45457 47.372
3521132 8.03809 10.2037 17.128 11.9726 -1.57876 3.44049 47.3424
3521141 8.03809 10.2037 17.128 11.9726 -1.57876 3.44049 47.3424
3521152 8.02082 10.1663 17.1772 11.9168 -1.64704 3.46021 47.2811
3521161 8.02946 10.1289 17.1378 11.8888 -1.66874 3.45502 47.1849
3521171 8.02946 10.1289 17.1378 11.8888 -1.66874 3.45502 47.1849
3521181 7.98629 10.1569 17.128 11.9819 -1.57418 3.48125 47.2531
3521191 8.04672 10.1757 17.0984 11.9168 -1.61563 3.42719 47.2376
3521201 8.04672 10.1757 17.0984 11.9168 -1.61563 3.42719 47.2376
3521211 7.97765 10.1382 17.2264 11.9354 -1.65536 3.50459 47.2777
3521231 7.88268 10.0727 17.2362 11.9819 -1.62396 3.58129 47.1735
3521240 7.88268 10.1101 17.2461 12.0192 -1.58675 3.57794 47.2581
3521252 7.88268 10.1101 17.2461 12.0192 -1.58675 3.57794 47.2581
3521261 7.95175 10.1476 17.2953 12.0378 -1.61372 3.55256 47.4324
3521272 7.89132 10.1195 17.2559 12.0471 -1.57494 3.57999 47.3138
3521282 7.89132 10.1195 17.2559 12.0471 -1.57494 3.57999 47.3138
3521293 7.90858 10.0727 17.2855 12.0657 -1.61393 3.60321 47.3325
3521302 7.90858 10.0727 17.2855 12.0657 -1.61393 3.60321 47.3325
3521314 7.90858 10.054 17.2855 12.0471 -1.63494 3.60609 47.2951
3521322 7.90858 10.0259 17.2855 12.0285 -1.66127 3.61265 47.2484
3521336 7.90858 10.0259 17.2855 12.0285 -1.66127 3.61265 47.2484
3521342 7.88268 10.0633 17.2166 12.0843 -1.56178 3.60496 47.2469
3521358 7.91722 10.082 17.3839 12.0936 -1.64576 3.62649 47.4768
3521362 7.91722 10.082 17.3839 12.0936 -1.64576 3.62649 47.4768
3521372 7.89132 10.0914 17.4036 12.0564 -1.65836 3.62878 47.4427
3521382 7.89132 10.0914 17.4036 12.0564 -1.65836 3.62878 47.4427
3521392 7.82224 10.0914 17.3642 12.0285 -1.62059 3.6398 47.3063
3521403 7.89132 10.0446 17.2756 12.0099 -1.64781 3.60522 47.2214
3521412 7.89132 10.0446 17.2756 12.0099 -1.64781 3.60522 47.2214
3521425 7.96902 10.1382 17.2166 11.8981 -1.66725 3.49651 47.2219
3521432 7.97765 10.1008 17.2855 11.9633 -1.68985 3.54036 47.3272
3521442 7.97765 10.1008 17.2855 11.9633 -1.68985 3.54036 47.3272
3521452 7.96902 10.1382 17.2559 11.9168 -1.67618 3.51062 47.2799
3521463 7.96902 10.1382 17.2559 11.9168 -1.67618 3.51062 47.2799
3521473 7.98629 10.1195 17.2756 11.9633 -1.6787 3.52726 47.3447
3521482 8.02082 10.0633 17.315 11.8981 -1.78359 3.52948 47.2973
3521492 8.02082 10.0633 17.315 11.8981 -1.78359 3.52948 47.2973
3521502 7.96902 10.1195 17.2855 11.8981 -1.71182 3.5206 47.2721
3521512 8.02082 10.1289 17.2756 11.9074 -1.72193 3.49654 47.3327
3521522 8.02082 10.1289 17.2756 11.9074 -1.72193 3.49654 47.3327
3521534 8.02082 10.1195 17.3445 11.8795 -1.77683 3.51015 47.3644
3521556 8.02082 10.1008 17.2953 11.7399 -1.84252 3.47148 47.1568
3521571 8.03809 10.2131 17.3052 11.8237 -1.74466 3.44373 47.38
3521579 8.03809 10.2131 17.3052 11.8237 -1.74466 3.44373 47.38
3521583 8.02946 10.1289 17.3052 11.8981 -1.74594 3.49808 47.3616
3521593 8.02946 10.1569 17.3347 11.8609 -1.7656 3.48525 47.382
3521603 8.02946 10.1569 17.3347 11.8609 -1.7656 3.48525 47.382
3521613 8.07263 10.1101 17.315 11.8609 -1.80357 3.48188 47.3587
3521625 8.07263 10.1101 17.315 11.8609 -1.80357 3.48188 47.3587
3521642 8.01219 10.054 17.315 11.833 -1.82162 3.52071 47.2141
3521645 8.08989 10.1195 17.3445 11.7399 -1.88982 3.44919 47.2938
3521656 8.08989 10.1195 17.3445 11.7399 -1.88982 3.44919 47.2938
3521666 7.96902 10.0259 17.2756 11.8516 -1.78641 3.54366 47.1221
3521677 8.00356 10.1101 17.3248 11.7678 -1.82733 3.48861 47.2063
3521686 8.00356 10.1101 17.3248 11.7678 -1.82733 3.48861 47.2063
3521696 8.02082 10.054 17.2855 11.8423 -1.80607 3.5124 47.2025
3521706 8.02082 10.054 17.2855 11.8423 -1.80607 3.5124 47.2025
3521716 8.01219 10.082 17.2855 11.8516 -1.78061 3.50704 47.2313
3521727 8.02946 10.0633 17.4036 11.8981 -1.83121 3.54754 47.3945
3521739 8.02946 10.0633 17.4036 11.8981 -1.83121 3.54754 47.3945
3521747 8.02082 10.0352 17.3937 11.8981 -1.83809 3.55955 47.3479
3521757 8.02946 10.1195 17.3445 11.8702 -1.78633 3.50452 47.3637
3521769 8.02946 10.1195 17.3445 11.8702 -1.78633 3.50452 47.3637
3521777 8.08126 10.1289 17.2953 11.8423 -1.7981 3.46188 47.3477
3521787 8.01219 10.1289 17.3642 11.8237 -1.80856 3.50108 47.3289
3521797 8.01219 10.0914 17.3642 11.8237 -1.82979 3.51573 47.2915
3521807 8.05536 10.1101 17.3937 11.8423 -1.84419 3.50322 47.4015
3521817 8.05536 10.1101 17.3937 11.8423 -1.84419 3.50322 47.4015
3521827 7.98629 10.1289 17.4036 11.8888 -1.7783 3.53655 47.4076
3521839 7.96902 10.1382 17.3445 11.8981 -1.7303 3.5276 47.3499
3521848 7.96902 10.1382 17.3445 11.8981 -1.7303 3.5276 47.3499
3521857 7.90858 10.1008 17.3839 11.8609 -1.76218 3.5665 47.2542
3521867 7.95175 10.1382 17.3741 11.8795 -1.74685 3.537 47.3435
3521877 7.95175 10.1382 17.3741 11.8795 -1.74685 3.537 47.3435
3521888 7.96902 10.082 17.3445 11.8516 -1.78842 3.53832 47.2472
3521898 7.96902 10.082 17.3445 11.8516 -1.78842 3.53832 47.2472
3521908 7.98629 10.1101 17.4134 11.8609 -1.8095 3.5395 47.3708
3521920 7.94312 10.1008 17.3544 11.8516 -1.76992 3.54353 47.2499
3521928 7.94312 10.1008 17.3544 11.8516 -1.76992 3.54353 47.2499
3521938 7.95175 10.082 17.3347 11.9354 -1.72767 3.56301 47.3039
3521950 7.91722 10.082 17.3544 11.9354 -1.72036 3.58132 47.289
3521958 7.91722 10.1008 17.3544 11.954 -1.69928 3.57846 47.3264
3521968 7.94312 10.1008 17.3741 12.0099 -1.69023 3.58651 47.4278
3521978 7.94312 10.1008 17.3741 12.0099 -1.69023 3.58651 47.4278
3521990 7.88268 10.0352 17.315 11.9354 -1.7104 3.60384 47.1683
3521998 7.84815 10.0914 17.4233 11.9912 -1.68347 3.63484 47.3541
3522008 7.84815 10.0914 17.4233 11.9912 -1.68347 3.63484 47.3541
3522018 7.82224 10.0446 17.4233 12.0099 -1.68661 3.66796 47.3
3522028 7.82224 10.0446 17.4233 12.0099 -1.68661 3.66796 47.3
3522038 7.75317 9.98844 17.4331 12.0471 -1.66806 3.72877 47.2218
3522048 7.77908 10.1008 17.5414 12.0564 -1.66568 3.70215 47.4777
3522071 7.71864 10.0633 17.6103 12.1402 -1.64384 3.77696 47.5325
3522078 7.69274 9.98844 17.6103 12.1867 -1.647 3.82782 47.4782
3522099 7.6064 9.96971 17.6398 12.1867 -1.62954 3.87651 47.4027
3522109 7.56323 9.91355 17.6202 12.2333 -1.60391 3.92244 47.3302
3522129 7.5546 9.96971 17.6792 12.224 -1.6025 3.9151 47.4275
3522149 7.48553 9.89482 17.63 12.2705 -1.55991 3.97206 47.2809
3522159 7.45962 9.88546 17.7284 12.2705 -1.60108 4.00912 47.3441
3522171 7.45962 9.88546 17.7284 12.2705 -1.60108 4.00912 47.3441
3522181 7.49416 9.91355 17.6595 12.2798 -1.56308 3.97015 47.3471
3522190 7.42509 9.88546 17.758 12.2705 -1.5986 4.02985 47.3391
3522219 7.46826 9.97907 17.7186 12.2612 -1.5532 3.96371 47.4271
3522222 7.46826 9.97907 17.7186 12.2612 -1.5532 3.96371 47.4271
3522231 7.45962 9.90419 17.6891 12.3078 -1.55019 4.00112 47.3606
3522241 7.45099 9.92291 17.6989 12.2798 -1.55595 3.99287 47.3526
3522254 7.45099 9.92291 17.6989 12.2798 -1.55595 3.99287 47.3526
3522261 7.50279 10.0072 17.6398 12.2612 -1.5156 3.92033 47.411
3522271 7.50279 10.0072 17.6398 12.2612 -1.5156 3.92033 47.411
3522283 7.53733 9.92291 17.5808 12.2147 -1.5768 3.91547 47.2557
3522291 7.61503 9.9978 17.6202 12.1961 -1.60309 3.85946 47.429
3522301 7.61503 9.9978 17.6202 12.1961 -1.60309 3.85946 47.429
3522311 7.64957 10.0352 17.5906 12.1961 -1.58457 3.82394 47.4715
3522321 7.6582 9.97907 17.5316 12.1216 -1.63305 3.8113 47.2904
3522331 7.6582 9.97907 17.5316 12.1216 -1.63305 3.8113 47.2904
3522341 7.69274 10.054 17.5414 12.103 -1.62331 3.76579 47.3911
3522361 7.70137 10.0072 17.502 12.1495 -1.60828 3.78262 47.3601
3522371 7.71864 10.0446 17.502 12.0843 -1.63239 3.74548 47.3496
3522381 7.71864 10.0446 17.502 12.0843 -1.63239 3.74548 47.3496
3522393 7.69274 10.0259 17.4823 11.9912 -1.67292 3.7363 47.1922
3522400 7.74454 9.96971 17.5316 12.0471 -1.72292 3.76306 47.2929
3522413 7.74454 9.96971 17.5316 12.0471 -1.72292 3.76306 47.2929
3522421 7.76181 10.0446 17.502 12.0471 -1.67464 3.71954 47.3555
3522435 7.76181 10.0446 17.502 12.0471 -1.67464 3.71954 47.3555
3522442 7.69274 9.94163 17.5512 12.0005 -1.74935 3.78843 47.1862
3522452 7.70137 9.96971 17.5906 12.0936 -1.70447 3.80522 47.3554
3522472 7.72727 9.89482 17.6595 12.0564 -1.81438 3.83217 47.338
3522482 7.72727 10.0072 17.6595 12.0843 -1.73516 3.79418 47.4783
3522492 7.72727 10.0072 17.6595 12.0843 -1.73516 3.79418 47.4783
3522502 7.74454 9.98844 17.6694 12.1402 -1.72755 3.81025 47.5425
3522514 7.74454 9.98844 17.6694 12.1402 -1.72755 3.81025 47.5425
3522525 7.69274 9.89482 17.6792 12.0285 -1.82294 3.84398 47.2953
3522532 7.64957 9.90419 17.7284 12.0005 -1.83644 3.86248 47.2827
3522546 7.64957 9.90419 17.7284 12.0005 -1.83644 3.86248 47.2827
3522553 7.6582 9.8761 17.7186 12.0936 -1.79899 3.88981 47.3465
3522562 7.64957 9.8293 17.7776 12.0285 -1.8872 3.91052 47.285
3522572 7.64957 9.8293 17.7776 12.0285 -1.8872 3.91052 47.285
3522583 7.70137 9.8761 17.7481 12.1961 -1.77673 3.9035 47.5216
3522594 7.70137 9.8761 17.7481 12.1961 -1.77673 3.9035 47.5216
3522603 7.5805 9.81993 17.8466 12.1495 -1.82377 3.98625 47.3965
3522613 7.58913 9.81057 17.8564 12.1681 -1.82756 3.99315 47.4242
3522624 7.58913 9.81057 17.8564 12.1681 -1.82756 3.99315 47.4242
3522633 7.56323 9.79185 17.945 12.1309 -1.88984 4.02294 47.431
3522643 7.54596 9.75441 17.945 12.2705 -1.82361 4.07711 47.5159
3522662 7.54596 9.75441 17.945 12.2705 -1.82361 4.07711 47.5159
3522663 7.58913 9.86674 17.9548 12.1961 -1.82808 3.99997 47.6068
3522674 7.58913 9.86674 17.9548 12.1961 -1.82808 3.99997 47.6068
3522684 7.53733 9.79185 17.8466 12.0936 -1.85024 4.00186 47.2694
3522696 7.52006 9.85738 17.7973 12.0936 -1.78045 3.97101 47.2684
3522704 7.52006 9.85738 17.7973 12.0936 -1.78045 3.97101 47.2684
3522718 7.57186 9.84802 17.7284 12.075 -1.78791 3.93351 47.2233
3522726 7.59777 9.86674 17.758 12.1588 -1.75711 3.94215 47.3813
3522739 7.59777 9.86674 17.758 12.1588 -1.75711 3.94215 47.3813
3522744 7.5546 9.91355 17.7284 12.075 -1.7423 3.91418 47.2716
3522754 7.5546 9.91355 17.7284 12.075 -1.7423 3.91418 47.2716
3522764 7.58913 9.90419 17.6792 12.1309 -1.7088 3.90568 47.3034
3522775 7.6841 9.91355 17.7186 12.0564 -1.81156 3.85581 47.3726
3522785 7.6841 9.91355 17.7186 12.0564 -1.81156 3.85581 47.3726
3522794 7.71001 9.98844 17.6202 12.0005 -1.76523 3.77931 47.3191
3522805 7.77044 10.0165 17.5808 11.9819 -1.77022 3.73046 47.3497
3522815 7.77044 10.0165 17.5808 11.9819 -1.77022 3.73046 47.3497
3522827 7.81361 10.054 17.5414 11.954 -1.7667 3.68257 47.363
3522852 7.78771 10.0352 17.5512 11.9074 -1.79576 3.69141 47.2816
3522854 7.83951 10.0914 17.502 11.8981 -1.7705 3.63479 47.3311
3522877 7.83951 10.0914 17.4528 11.9447 -1.72001 3.63415 47.3284
3522886 7.89132 10.0727 17.4725 11.9168 -1.78149 3.61915 47.3533
3522898 7.89132 10.0727 17.4725 11.9168 -1.78149 3.61915 47.3533
3522906 7.91722 10.1101 17.4331 11.8795 -1.77476 3.57582 47.34
3522920 7.91722 10.1101 17.4331 11.8795 -1.77476 3.57582 47.34
3522927 7.93448 10.1101 17.4233 11.7864 -1.83116 3.54414 47.2543
3522936 7.90858 10.1476 17.4627 11.8516 -1.77963 3.56491 47.3704
3522946 7.90858 10.1476 17.4627 11.8516 -1.77963 3.56491 47.3704
3522956 7.91722 10.1101 17.4528 11.9074 -1.76863 3.5873 47.3876
3522967 7.89132 10.0633 17.4922 11.9168 -1.79643 3.62757 47.3636
3522976 7.89132 10.0633 17.4922 11.9168 -1.79643 3.62757 47.3636
3522991 7.90858 10.1569 17.4725 11.8981 -1.75288 3.57484 47.4362
3523006 7.84815 10.0259 17.4922 11.9074 -1.80174 3.65709 47.2737
3523016 7.84815 10.0165 17.5512 11.9819 -1.79383 3.69273 47.3978
3523026 7.84815 10.0165 17.5512 11.9819 -1.79383 3.69273 47.3978
3523040 7.84815 10.0727 17.5316 11.9726 -1.75772 3.66368 47.425
3523046 7.83088 9.96971 17.5808 11.954 -1.84215 3.71842 47.3354
3523067 7.83088 9.96971 17.5808 11.954 -1.84215 3.71842 47.3354
3523071 7.78771 10.0727 17.5906 11.9912 -1.74655 3.70602 47.4423
3523077 7.78771 10.0727 17.5906 11.9912 -1.74655 3.70602 47.4423
3523094 7.81361 10.0352 17.5709 11.954 -1.79176 3.697 47.3738
3523097 7.72727 9.96035 17.5709 11.954 -1.79182 3.76085 47.2126
3523118 7.66684 9.96035 17.5316 12.0471 -1.68991 3.79767 47.2058
3523127 7.66684 9.95099 17.502 12.0378 -1.68588 3.79217 47.1576
3523145 7.66684 9.95099 17.502 12.0378 -1.68588 3.79217 47.1576
3523147 7.64093 9.98844 17.5906 11.9726 -1.73253 3.79314 47.1926
3523158 7.64093 9.98844 17.5906 11.9726 -1.73253 3.79314 47.1926
3523173 7.64957 9.89482 17.5316 12.103 -1.68685 3.84392 47.1789
3523178 7.6323 9.98844 17.6103 12.1309 -1.64863 3.83867 47.3619
3523188 7.6323 9.98844 17.6103 12.1309 -1.64863 3.83867 47.3619
3523200 7.6323 10.0165 17.6005 12.0936 -1.64893 3.8164 47.3429
3523208 7.69274 9.97907 17.6005 12.1495 -1.66834 3.82045 47.4218
3523225 7.69274 9.97907 17.6005 12.1495 -1.66834 3.82045 47.4218
3523228 7.69274 10.0633 17.5217 12.1402 -1.58744 3.76624 47.418
3523238 7.69274 10.0633 17.5217 12.1402 -1.58744 3.76624 47.418
3523249 7.67547 10.0352 17.5414 12.075 -1.64103 3.77343 47.3271
3523258 7.71864 10.1382 17.4823 12.0843 -1.57012 3.7038 47.4235
3523271 7.71864 10.1382 17.4823 12.0843 -1.57012 3.7038 47.4235
3523278 7.72727 10.0914 17.4036 12.0564 -1.57737 3.69341 47.2787
3523292 7.71864 10.0165 17.4134 12.0657 -1.61489 3.73107 47.2143
3523298 7.71864 10.0165 17.4134 12.0657 -1.61489 3.73107 47.2143
3523308 7.79634 10.0633 17.3937 11.9726 -1.66971 3.65477 47.226
3523318 7.79634 10.0633 17.3937 11.9726 -1.66971 3.65477 47.226
3523328 7.76181 10.0633 17.4036 11.9726 -1.6575 3.67079 47.2013
3523338 7.84815 10.1195 17.4725 11.9726 -1.70235 3.63114 47.4128
3523351 7.84815 10.1195 17.4725 11.9726 -1.70235 3.63114 47.4128
3523358 7.83951 10.1569 17.3642 11.9354 -1.64465 3.58481 47.296
3523368 7.84815 10.1195 17.3248 11.9447 -1.64532 3.58888 47.2372
3523378 7.84815 10.1195 17.3248 11.9447 -1.64532 3.58888 47.2372
3523388 7.89995 10.1382 17.3248 11.9726 -1.64462 3.56791 47.3356
3523398 7.89995 10.1382 17.3248 11.9726 -1.64462 3.56791 47.3356
3523408 7.83951 10.1382 17.3445 11.9354 -1.64548 3.58741 47.2576
3523419 7.92585 10.082 17.3839 11.954 -1.72862 3.58955 47.3458
3523441 7.97765 10.1101 17.2855 11.9726 -1.67933 3.53895 47.3459
3523448 7.97765 10.1101 17.2855 11.9726 -1.67933 3.53895 47.3459
3523463 7.97765 10.1101 17.2461 11.9726 -1.65992 3.52941 47.3065
3523469 8.05536 10.1382 17.2953 11.8888 -1.75379 3.47966 47.3777
3523489 8.02946 10.1195 17.2756 11.9261 -1.72095 3.50135 47.3506
3523498 8.04672 10.0165 17.2953 11.9168 -1.80261 3.53742 47.2753
3523509 8.04672 10.0165 17.2953 11.9168 -1.80261 3.53742 47.2753
3523519 8.02082 10.0446 17.2067 11.8609 -1.76205 3.50143 47.133
3523540 7.98629 9.98844 17.2756 11.8981 -1.78974 3.56291 47.1485
3523550 8.04672 10.0633 17.3052 11.9354 -1.7704 3.52598 47.3506
3523559 8.04672 10.0633 17.3052 11.9354 -1.7704 3.52598 47.3506
3523571 8.03809 10.0352 17.2756 11.9074 -1.78337 3.52642 47.2564
3523579 7.96902 10.0727 17.3642 11.9354 -1.75596 3.56704 47.3413
3523592 7.96902 10.0727 17.3642 11.9354 -1.75596 3.56704 47.3413
3523601 8.01219 10.1195 17.3248 11.9819 -1.70516 3.53355 47.4385
