2142356 15.3565 16.6637 20.1401 17.0292 -0.651719 1.1163 69.1896
2142366 15.3565 16.6637 20.1401 17.0292 -0.651719 1.1163 69.1896
2142376 15.3652 16.6918 20.0712 16.9532 -0.648314 1.07861 69.0814
2142386 15.3652 16.6918 20.0712 16.9532 -0.648314 1.07861 69.0814
2142396 15.3304 16.7104 20.0318 16.9252 -0.625636 1.06875 68.9979
2142408 15.3826 16.7104 20.1598 16.9626 -0.675213 1.08993 69.2154
2142426 15.4087 16.6544 20.1008 16.8971 -0.708784 1.07183 69.0609
2142438 15.3652 16.7011 20.1008 16.9252 -0.665677 1.07673 69.0922
2142446 15.3652 16.7011 20.1008 16.9252 -0.665677 1.07673 69.0922
2142457 15.3913 16.6824 20.1008 16.8971 -0.692241 1.06935 69.0716
2142467 15.3913 16.6824 20.1008 16.8971 -0.692241 1.06935 69.0716
2142477 15.4 16.7104 20.0614 16.8784 -0.677973 1.04909 69.0502
2142487 15.4261 16.7198 20.15 16.8597 -0.721787 1.05496 69.1555
2142497 15.4261 16.7198 20.15 16.8597 -0.721787 1.05496 69.1555
2142507 15.4783 16.8132 20.022 16.8503 -0.663923 0.993481 69.1638
2142520 15.4435 16.7385 20.1106 16.9345 -0.679325 1.05374 69.227
2142540 15.4783 16.7852 20.1106 16.869 -0.69851 1.02166 69.243
2142557 15.4609 16.7198 20.0614 16.9906 -0.65425 1.05543 69.2327
2142567 15.4261 16.6918 20.1008 16.9252 -0.690565 1.06475 69.1438
2142593 15.4696 16.6824 20.15 16.8877 -0.740498 1.0592 69.1897
2142602 15.4 16.6637 20.1598 16.9345 -0.70909 1.09111 69.1581
2142611 15.4 16.6637 20.1598 16.9345 -0.70909 1.09111 69.1581
2142618 15.4261 16.6731 20.0318 17.0195 -0.638239 1.07421 69.1505
2142627 15.4261 16.6731 20.0318 17.0195 -0.638239 1.07421 69.1505
2142639 15.3478 16.6637 20.1106 16.9064 -0.683863 1.0877 69.0286
2142651 15.3913 16.6637 20.1106 16.9626 -0.678301 1.08887 69.1282
2142658 15.3913 16.6637 20.1106 16.9626 -0.678301 1.08887 69.1282
2142669 15.3739 16.7011 20.1106 16.9345 -0.66873 1.07858 69.1201
2142679 15.3565 16.6824 20.1598 16.9532 -0.679918 1.10064 69.152
2142690 15.3565 16.6824 20.1598 16.9532 -0.679918 1.10064 69.152
2142700 15.3391 16.5797 20.15 16.9719 -0.701579 1.13044 69.0407
2142710 15.3391 16.5797 20.15 16.9719 -0.701579 1.13044 69.0407
2142721 15.3304 16.589 20.1598 16.9532 -0.705475 1.12851 69.0325
2142730 15.3043 16.6357 20.1992 17.0097 -0.671768 1.14294 69.149
2142740 15.3043 16.6357 20.1992 17.0097 -0.671768 1.14294 69.149
2142752 15.3826 16.617 20.1992 17.039 -0.695355 1.1349 69.2378
2142760 15.3826 16.5703 20.2189 17.0097 -0.730474 1.14388 69.1816
2142770 15.3826 16.5703 20.2189 17.0097 -0.730474 1.14388 69.1816
2142781 15.3478 16.617 20.1893 17.0974 -0.658004 1.15273 69.2516
2142791 15.3478 16.617 20.1893 17.0974 -0.658004 1.15273 69.2516
2142801 15.3478 16.5143 20.209 17.0682 -0.713913 1.17483 69.1393
2142811 15.3478 16.6264 20.1992 17.0974 -0.658007 1.15252 69.2708
2142832 15.3304 16.6357 20.2189 17.0585 -0.669789 1.15054 69.2435
2142841 15.3043 16.6544 20.15 16.9813 -0.65807 1.12299 69.09
2142851 15.3043 16.6544 20.15 16.9813 -0.65807 1.12299 69.09
2142862 15.3826 16.6451 20.0909 16.9626 -0.675251 1.09129 69.0811
2142873 15.4174 16.6451 20.0515 16.9158 -0.691032 1.06582 69.0298
2142882 15.4174 16.617 20.0515 16.9158 -0.701466 1.07234 69.0018
2142893 15.4174 16.6637 20.022 16.8971 -0.680639 1.05173 69.0002
2142902 15.4174 16.6637 20.022 16.8971 -0.680639 1.05173 69.0002
2142912 15.4348 16.589 19.9728 16.8409 -0.718218 1.04375 68.8375
2142922 15.3739 16.7011 20.0515 16.8784 -0.668788 1.05533 69.0049
2142942 15.4696 16.6731 20.0712 16.9439 -0.695458 1.05681 69.1577
2142952 15.4348 16.617 20.1303 16.9626 -0.717863 1.09358 69.1447
2142963 15.4348 16.617 20.1303 16.9626 -0.717863 1.09358 69.1447
2142972 15.4174 16.6824 20.1795 17.0585 -0.669201 1.11154 69.3378
2142984 15.4174 16.6824 20.1795 17.0585 -0.669201 1.11154 69.3378
2142994 15.3652 16.6264 20.15 17.039 -0.668485 1.12691 69.1805
2143004 15.4609 16.6918 20.1106 17.039 -0.664026 1.08155 69.3022
2143023 15.4087 16.6918 20.0712 17.0097 -0.642665 1.07988 69.1814
2143034 15.3913 16.6824 20.0318 16.9906 -0.633208 1.07432 69.0962
2143045 15.3913 16.6824 20.0318 16.9906 -0.633208 1.07432 69.0962
2143055 15.3739 16.7104 20.0023 16.9719 -0.613192 1.06212 69.0586
2143075 15.3391 16.6357 20.0515 17.0292 -0.624758 1.10909 69.0556
2143087 15.287 16.6544 20.1697 17.0682 -0.626642 1.14843 69.1792
2143106 15.2957 16.6544 20.2484 17.0585 -0.661023 1.1602 69.2569
2143115 15.2957 16.617 20.2878 17.1754 -0.645414 1.20008 69.3758
2143136 15.1826 16.6544 20.2878 17.1656 -0.595456 1.21584 69.2904
2143147 15.1217 16.4582 20.2583 17.1072 -0.657979 1.2587 68.9454
2143157 15.1217 16.4582 20.2583 17.1072 -0.657979 1.2587 68.9454
2143167 15.1043 16.5236 20.3665 17.2143 -0.625977 1.2902 69.2088
2143187 15.0435 16.4769 20.3173 17.2046 -0.608063 1.30387 69.0423
2143197 15 16.6077 20.3272 17.2728 -0.52259 1.29875 69.2076
2143207 15 16.6077 20.3272 17.2728 -0.52259 1.29875 69.2076
2143217 15.0087 16.6077 20.465 17.1851 -0.606668 1.30662 69.2665
2143232 15 16.5797 20.3764 17.263 -0.553921 1.31316 69.2191
2143241 15 16.5797 20.3764 17.263 -0.553921 1.31316 69.2191
2143250 14.9652 16.5516 20.4847 17.263 -0.590196 1.34935 69.2646
2143259 14.9652 16.5516 20.4847 17.263 -0.590196 1.34935 69.2646
2143271 14.9304 16.5516 20.465 17.2728 -0.567387 1.35561 69.2198
2143280 14.8957 16.5516 20.4847 17.2728 -0.562055 1.36771 69.2047
2143290 14.8957 16.5516 20.4847 17.2728 -0.562055 1.36771 69.2047
2143300 14.9652 16.5703 20.4354 17.2728 -0.562343 1.33716 69.2438
2143310 14.9652 16.5984 20.4551 17.2728 -0.558947 1.33444 69.2915
2143320 14.9652 16.5984 20.4551 17.2728 -0.558947 1.33444 69.2915
2143330 15.0087 16.6637 20.4551 17.2923 -0.543006 1.31266 69.4198
2143340 15.0087 16.6637 20.4551 17.2923 -0.543006 1.31266 69.4198
2143350 14.9217 16.6077 20.3961 17.2338 -0.533658 1.32313 69.1593
2143360 14.9913 16.6451 20.3272 17.2436 -0.51651 1.28622 69.2071
2143370 14.9913 16.6451 20.3272 17.2436 -0.51651 1.28622 69.2071
2143380 15.0174 16.6544 20.3764 17.3215 -0.510989 1.30304 69.3697
2143390 14.9304 16.7198 20.3468 17.2728 -0.463663 1.29264 69.2698
2143400 14.9304 16.7198 20.3468 17.2728 -0.463663 1.29264 69.2698
2143410 15.0435 16.7198 20.3567 17.2241 -0.525035 1.2584 69.344
2143420 15.0435 16.7198 20.3567 17.2241 -0.525035 1.2584 69.344
2143430 15.0261 16.6544 20.2681 17.2143 -0.515255 1.25832 69.1629
2143440 15.0609 16.6077 20.2386 17.1461 -0.559574 1.24168 69.0533
2143460 15.0609 16.6544 20.2779 17.1656 -0.549023 1.24242 69.1588
2143475 15.0087 16.561 20.2681 17.2436 -0.532794 1.29021 69.0813
2143481 15.0087 16.561 20.2681 17.2436 -0.532794 1.29021 69.0813
2143493 14.9478 16.5984 20.4256 17.2241 -0.560364 1.32309 69.1958
2143501 15.0174 16.5236 20.4354 17.3312 -0.576404 1.3474 69.3077
2143511 15.0174 16.5236 20.4354 17.3312 -0.576404 1.3474 69.3077
2143521 15 16.6077 20.4945 17.341 -0.556509 1.34522 69.4432
2143541 14.9913 16.589 20.5043 17.341 -0.56379 1.35361 69.4256
2143552 14.9739 16.5423 20.4453 17.2241 -0.59724 1.33405 69.1856
2143561 14.9739 16.5423 20.4453 17.2241 -0.59724 1.33405 69.1856
2143571 14.9826 16.617 20.3764 17.2143 -0.551964 1.29882 69.1903
2143581 14.9826 16.617 20.3764 17.2143 -0.551964 1.29882 69.1903
2143595 15.0174 16.4582 20.3764 17.1072 -0.662839 1.30684 68.9592
2143601 15.0435 16.4863 20.3468 17.1461 -0.636724 1.29593 69.0227
2143611 15.0435 16.4863 20.3468 17.1461 -0.636724 1.29593 69.0227
2143621 15.0174 16.533 20.3764 17.1559 -0.616989 1.29886 69.0826
2143634 14.9913 16.4489 20.4158 17.2436 -0.62034 1.35003 69.0995
2143653 15.0609 16.5236 20.4158 17.2728 -0.606374 1.32173 69.273
2143662 15.0261 16.5236 20.4551 17.2728 -0.607991 1.3377 69.2776
2143672 15.0261 16.5703 20.4551 17.2436 -0.601532 1.32093 69.2951
2143682 15.0957 16.5423 20.4945 17.2533 -0.646587 1.32084 69.3858
2143693 15.0957 16.5423 20.4945 17.2533 -0.646587 1.32084 69.3858
2143705 15.0696 16.5516 20.4354 17.2338 -0.620408 1.30928 69.2905
2143714 15.0348 16.5423 20.4059 17.1948 -0.615637 1.30612 69.1778
2143723 15.0348 16.5423 20.4059 17.1948 -0.615637 1.30612 69.1778
2143734 15.0261 16.4396 20.4847 17.2143 -0.671174 1.35185 69.1646
2143744 14.9913 16.4115 20.5339 17.2533 -0.67219 1.38408 69.19
2143753 14.9913 16.4115 20.5339 17.2533 -0.67219 1.38408 69.19
2143763 14.9304 16.4022 20.652 17.341 -0.663267 1.4411 69.3256
2143783 14.9217 16.3555 20.5732 17.1851 -0.707749 1.40821 69.0356
2143793 14.9391 16.3929 20.5831 17.2533 -0.67808 1.41056 69.1684
2143804 14.9391 16.3929 20.5831 17.2533 -0.67808 1.41056 69.1684
2143815 14.8957 16.4115 20.652 17.2533 -0.680085 1.42997 69.2125
2143825 14.9652 16.3088 20.6618 17.2436 -0.749759 1.43787 69.1794
2143845 14.913 16.2994 20.7603 17.1754 -0.794858 1.45842 69.1481
2143871 14.8696 16.3181 20.7111 17.302 -0.708258 1.47947 69.2008
2143889 14.9304 16.3275 20.7701 17.2143 -0.779419 1.45717 69.2424
2143890 14.9304 16.3275 20.7701 17.2143 -0.779419 1.45717 69.2424
2143895 14.9391 16.2621 20.7603 17.3117 -0.767097 1.48776 69.2732
2143907 14.9478 16.2247 20.7701 17.2825 -0.798373 1.49081 69.2252
2143916 14.9478 16.2247 20.7701 17.2825 -0.798373 1.49081 69.2252
2143926 14.9826 16.2341 20.78 17.2436 -0.825009 1.47462 69.2402
2143938 14.9826 16.2341 20.7504 17.2436 -0.814696 1.46884 69.2107
2143947 14.9652 16.1874 20.7504 17.2533 -0.82241 1.48601 69.1563
2143957 14.9826 16.1687 20.7997 17.2728 -0.845377 1.49973 69.2237
2143969 14.9826 16.1687 20.7997 17.2728 -0.845377 1.49973 69.2237
2143977 14.9565 16.1874 20.7701 17.2533 -0.826253 1.49193 69.1673
2143989 15.0435 16.1407 20.7406 17.2143 -0.878331 1.46895 69.1391
2143997 15.0435 16.1407 20.7406 17.2143 -0.878331 1.46895 69.1391
2144009 15.1565 16.2621 20.7111 17.263 -0.843914 1.41704 69.3927
2144017 15.1565 16.2621 20.7111 17.263 -0.843914 1.41704 69.3927
2144027 15.1391 16.2154 20.6717 17.0974 -0.903457 1.39198 69.1236
2144037 15.1217 16.2434 20.6815 17.1559 -0.868462 1.40289 69.2026
2144057 15.1739 16.1967 20.6028 17.1851 -0.865722 1.39186 69.1585
2144067 15.1304 16.2527 20.6225 17.1559 -0.847392 1.38701 69.1615
2144078 15.1304 16.2527 20.6225 17.1559 -0.847392 1.38701 69.1615
2144088 15.1304 16.2247 20.6323 17.0487 -0.901449 1.37447 69.0362
2144108 15.1739 16.2808 20.5634 17.0585 -0.867912 1.33921 69.0765
2144120 15.2609 16.3181 20.6126 17.0682 -0.897767 1.3215 69.2598
2144129 15.2609 16.3181 20.6126 17.0682 -0.897767 1.3215 69.2598
2144138 15.2174 16.2714 20.5536 17.0097 -0.901411 1.31954 69.0521
2144148 15.2609 16.3462 20.5929 17.0682 -0.880441 1.31102 69.2682
2144159 15.2609 16.3462 20.5929 17.0682 -0.880441 1.31102 69.2682
2144169 15.2522 16.3835 20.5437 17.039 -0.857216 1.28875 69.2184
2144178 15.2522 16.3835 20.5831 17.039 -0.870943 1.29654 69.2578
2144189 15.2957 16.3181 20.5831 17.039 -0.910527 1.3017 69.2358
2144199 15.2696 16.2527 20.5831 17.0779 -0.91134 1.33097 69.1833
2144209 15.2696 16.2527 20.5831 17.0779 -0.91134 1.33097 69.1833
2144220 15.2522 16.3462 20.5142 17.0585 -0.853594 1.29555 69.171
2144230 15.2696 16.3088 20.5732 17.0487 -0.897869 1.31002 69.2003
2144250 15.2957 16.3275 20.5929 16.9532 -0.942577 1.28447 69.1693
2144260 15.313 16.2621 20.5634 16.9532 -0.962898 1.28992 69.0918
2144271 15.313 16.2621 20.5634 16.9532 -0.962898 1.28992 69.0918
2144281 15.3304 16.3648 20.4847 16.9345 -0.909993 1.24226 69.1144
2144291 15.3304 16.3648 20.4847 16.9345 -0.909993 1.24226 69.1144
2144301 15.2957 16.3462 20.4551 16.9252 -0.898071 1.24709 69.0221
2144311 15.2957 16.2341 20.4453 16.8971 -0.947331 1.26596 68.8721
2144331 15.3478 16.3555 20.4551 16.9719 -0.895238 1.24194 69.1304
2144341 15.3217 16.3462 20.5043 17.0097 -0.892641 1.26757 69.182
2144351 15.3217 16.3462 20.5043 17.0097 -0.892641 1.26757 69.182
2144363 15.3739 16.3368 20.5831 17.0974 -0.908892 1.29046 69.3912
2144382 15.2957 16.2901 20.5634 17.0974 -0.892292 1.31596 69.2466
2144391 15.287 16.2808 20.5732 17.1169 -0.888899 1.32601 69.2579
2144412 15.2609 16.3181 20.5732 17.0779 -0.880414 1.31565 69.2302
2144425 15.1913 16.2341 20.6323 17.1072 -0.89727 1.36936 69.1648
2144433 15.1913 16.2341 20.6323 17.1072 -0.89727 1.36936 69.1648
2144444 15.2 16.2434 20.5634 17.0487 -0.894675 1.33995 69.0555
2144454 15.2 16.2434 20.5634 17.0487 -0.894675 1.33995 69.0555
2144463 15.1739 16.2621 20.6126 17.1364 -0.862926 1.36872 69.185
2144473 15.2087 16.2714 20.6422 17.1754 -0.867298 1.37177 69.2976
2144484 15.2087 16.2714 20.6422 17.1754 -0.867298 1.37177 69.2976
2144494 15.1478 16.206 20.7012 17.1169 -0.912975 1.40178 69.172
2144504 15.0696 16.1593 20.7012 17.1851 -0.877643 1.44485 69.1152
2144513 15.0696 16.1593 20.7012 17.1851 -0.877643 1.44485 69.1152
2144530 15.0783 16.2341 20.7406 17.1948 -0.862822 1.43465 69.2478
2144535 15.0609 16.178 20.7504 17.2533 -0.85929 1.46546 69.2426
2144545 15.0609 16.178 20.7504 17.2533 -0.85929 1.46546 69.2426
2144555 15.0174 16.122 20.7997 17.3117 -0.860393 1.51017 69.2508
2144565 15.0174 16.122 20.7997 17.3117 -0.860393 1.51017 69.2508
2144578 15.0087 16.0659 20.7111 17.2533 -0.869265 1.49692 69.039
2144586 15.0174 16.1313 20.7603 17.302 -0.846811 1.49837 69.211
2144596 15.0174 16.1313 20.7603 17.302 -0.846811 1.49837 69.211
2144606 15.0435 16.1126 20.7111 17.2825 -0.852998 1.48319 69.1497
2144616 15.0435 16.0566 20.839 17.3117 -0.907631 1.52721 69.2508
2144626 15.0435 16.0566 20.839 17.3117 -0.907631 1.52721 69.2508
2144638 15.0348 16.15 20.7111 17.302 -0.828725 1.48017 69.1978
2144646 15.0348 16.15 20.7111 17.302 -0.828725 1.48017 69.1978
2144657 15.0435 16.0846 20.7307 17.2825 -0.87035 1.49372 69.1414
2144666 15 16.0099 20.7307 17.3994 -0.839396 1.54475 69.1401
2144677 15 16.0099 20.7307 17.3994 -0.839396 1.54475 69.1401
2144686 14.9913 16.1407 20.7504 17.3799 -0.801715 1.51563 69.2623
2144697 14.9304 16.1313 20.8489 17.3605 -0.825574 1.54774 69.2711
2144706 14.9304 16.1313 20.8489 17.3605 -0.825574 1.54774 69.2711
2144718 14.9739 16.1407 20.839 17.4287 -0.808428 1.54646 69.3822
2144736 14.9043 16.0566 20.9473 17.4092 -0.860496 1.60036 69.3174
2144747 14.9739 16.122 20.9178 17.4384 -0.839184 1.56805 69.4521
2144758 14.9739 16.122 20.9178 17.4384 -0.839184 1.56805 69.4521
2144767 14.9478 16.0846 20.8193 17.4481 -0.806066 1.56603 69.2999
2144777 14.9043 16.0473 20.8193 17.4481 -0.804798 1.58538 69.2191
2144798 14.9043 16.0286 20.8489 17.4092 -0.836627 1.58802 69.191
2144807 14.9043 16.0286 20.8489 17.4092 -0.836627 1.58802 69.191
2144818 14.7652 15.9912 20.9572 17.5163 -0.799809 1.67205 69.2299
2144829 14.7913 15.9912 20.967 17.5943 -0.783351 1.68265 69.3438
2144848 14.7565 16.0005 20.9375 17.565 -0.768268 1.67748 69.2596
2144859 14.713 16.0192 20.9473 17.6332 -0.724213 1.69844 69.3128
2144868 14.713 16.0192 20.9473 17.6332 -0.724213 1.69844 69.3128
2144879 14.7478 16.0286 20.967 17.6235 -0.74342 1.68973 69.3669
2144889 14.7478 16.0286 20.967 17.6235 -0.74342 1.68973 69.3669
2144898 14.6783 15.9352 20.9768 17.6235 -0.757235 1.73092 69.2138
2144908 14.6696 15.9912 21.0261 17.643 -0.743343 1.73264 69.3298
2144929 14.6696 15.9632 21.0556 17.7112 -0.738762 1.75808 69.3995
2144939 14.6435 15.9725 21.0261 17.7014 -0.71945 1.75463 69.3435
2144950 14.6435 15.9725 21.0261 17.7014 -0.71945 1.75463 69.3435
2144960 14.6261 16.0099 20.9867 17.6332 -0.711001 1.72923 69.2559
2144971 14.6261 16.0099 20.9867 17.6332 -0.711001 1.72923 69.2559
2144980 14.6174 15.9071 20.9867 17.6235 -0.74978 1.75432 69.1347
2144990 14.5826 15.9071 20.9965 17.5943 -0.75192 1.75904 69.0805
2145000 14.5826 15.9071 20.9965 17.5943 -0.75192 1.75904 69.0805
2145010 14.6174 15.9445 20.9473 17.604 -0.729306 1.73399 69.1132
2145020 14.5739 15.9819 20.8981 17.6527 -0.664702 1.73537 69.1066
2145040 14.6435 15.9819 20.9768 17.6917 -0.702357 1.7411 69.2939
2145052 14.6435 15.9819 20.9768 17.6917 -0.702357 1.7411 69.2939
2145061 14.6261 15.9165 21.0457 17.7112 -0.737442 1.77801 69.2995
2145071 14.6 15.9725 21.0261 17.8086 -0.664532 1.78558 69.4072
2145081 14.6 15.9725 21.0261 17.8086 -0.664532 1.78558 69.4072
2145091 14.6348 16.0005 21.0162 17.7112 -0.69896 1.74994 69.3627
2145102 14.6 16.0192 21.0162 17.7599 -0.661826 1.76313 69.3953
2145121 14.6522 16.0566 20.9276 17.7209 -0.649635 1.71715 69.3573
2145131 14.6522 16.0566 20.9276 17.7209 -0.649635 1.71715 69.3573
2145141 14.6435 15.9912 20.9375 17.7501 -0.663421 1.7425 69.3223
2145151 14.5826 16.0286 20.9276 17.7307 -0.631949 1.74257 69.2695
2145161 14.5826 16.0286 20.9276 17.7307 -0.631949 1.74257 69.2695
2145177 14.5739 16.0659 20.8489 17.7014 -0.598142 1.71494 69.1901
2145181 14.6174 16.1033 20.9178 17.6917 -0.627498 1.70678 69.3302
2145191 14.6174 16.1033 20.9178 17.6917 -0.627498 1.70678 69.3302
2145201 14.6348 16.0659 20.8686 17.6625 -0.640942 1.69654 69.2317
2145222 14.6348 16.094 20.8587 17.6722 -0.623499 1.68977 69.2597
2145232 14.687 16.0846 20.8981 17.6625 -0.66274 1.68515 69.3321
2145253 14.5913 16.0566 20.7997 17.6722 -0.601187 1.69792 69.1198
2145263 14.6609 16.122 20.8292 17.6235 -0.629942 1.66168 69.2355
2145273 14.6609 16.122 20.8292 17.6235 -0.629942 1.66168 69.2355
2145282 14.6957 16.094 20.78 17.6138 -0.638849 1.64869 69.1833
2145294 14.6609 16.0846 20.78 17.6332 -0.622837 1.66307 69.1587
2145313 14.687 16.122 20.8095 17.5845 -0.64663 1.6441 69.203
2145323 14.687 16.122 20.8095 17.5845 -0.64663 1.6441 69.203
2145335 14.6957 16.1313 20.7209 17.6332 -0.596984 1.63206 69.1811
2145345 14.7739 16.1687 20.7209 17.5845 -0.628754 1.59488 69.248
2145355 14.7739 16.1687 20.7209 17.5845 -0.628754 1.59488 69.248
2145366 14.8261 16.1407 20.652 17.4871 -0.669378 1.55682 69.1059
2145375 14.8609 16.206 20.6717 17.5163 -0.653449 1.54237 69.2549
2145395 14.7913 16.1874 20.7111 17.4579 -0.671434 1.55977 69.1476
2145405 14.7913 16.1874 20.7111 17.4579 -0.671434 1.55977 69.1476
2145415 14.7739 16.1687 20.6815 17.4871 -0.650999 1.56835 69.1112
2145425 14.7391 16.122 20.7898 17.5358 -0.676122 1.61834 69.1867
2145446 14.7043 16.1313 20.7997 17.5358 -0.663882 1.62636 69.1711
2145456 14.8 16.1407 20.7898 17.6138 -0.661698 1.61432 69.3442
2145476 14.7652 16.094 20.8095 17.5943 -0.680916 1.6339 69.2629
2145486 14.7652 16.094 20.8095 17.5943 -0.680916 1.6339 69.2629
2145497 14.7478 16.15 20.8095 17.6138 -0.646833 1.62838 69.3211
2145507 14.7652 16.0659 20.8686 17.6625 -0.686748 1.66515 69.3622
2145517 14.7652 16.0659 20.8686 17.6625 -0.686748 1.66515 69.3622
2145527 14.8087 16.1126 20.8292 17.565 -0.706983 1.61715 69.3156
2145538 14.8261 16.2154 20.8193 17.565 -0.671582 1.58649 69.4259
2145559 14.887 16.1687 20.6914 17.5358 -0.676151 1.55267 69.2828
2145570 14.8522 16.15 20.78 17.4871 -0.720026 1.57319 69.2692
2145578 14.8522 16.15 20.78 17.4871 -0.720026 1.57319 69.2692
2145588 14.8087 16.1126 20.78 17.5456 -0.696951 1.60387 69.2469
2145608 14.8348 16.1033 20.8292 17.5358 -0.730436 1.60749 69.3031
2145619 14.8522 16.1126 20.8193 17.5261 -0.733228 1.5973 69.3102
2145628 14.8522 16.1126 20.8193 17.5261 -0.733228 1.5973 69.3102
2145639 14.8696 16.1874 20.8292 17.5261 -0.715043 1.57717 69.4122
2145648 14.9304 16.094 20.7111 17.4481 -0.758635 1.54693 69.1836
2145660 14.9304 16.094 20.7111 17.4481 -0.758635 1.54693 69.1836
2145672 14.913 16.206 20.6815 17.4384 -0.704129 1.51667 69.239
2145680 14.913 16.206 20.6815 17.4384 -0.704129 1.51667 69.239
2145690 14.9478 16.1593 20.6914 17.4676 -0.726271 1.52712 69.2662
2145700 14.9565 16.15 20.6815 17.3897 -0.758325 1.51017 69.1777
2145711 14.9565 16.15 20.6815 17.3897 -0.758325 1.51017 69.1777
2145721 14.9478 16.1874 20.652 17.3507 -0.745519 1.48996 69.1379
2145731 14.9217 16.1407 20.6323 17.2728 -0.775951 1.48824 68.9675
2145751 14.9304 16.1593 20.6323 17.4287 -0.713931 1.51217 69.1507
2145761 14.9304 16.178 20.5831 17.4579 -0.678828 1.50381 69.1494
2145772 14.9304 16.178 20.5831 17.4579 -0.678828 1.50381 69.1494
2145782 15 16.2434 20.6323 17.5261 -0.671031 1.49455 69.4018
2145811 15.0174 16.2341 20.6323 17.4676 -0.702226 1.48126 69.3514
2145813 14.9739 16.2621 20.6422 17.3994 -0.705336 1.47354 69.2776
2145822 14.9739 16.2621 20.6422 17.3994 -0.705336 1.47354 69.2776
2145832 15.0609 16.2714 20.5831 17.341 -0.733346 1.42769 69.2564
2145842 15.0522 16.2808 20.5437 17.3507 -0.709403 1.42173 69.2274
2145852 15.0522 16.2808 20.5437 17.3507 -0.709403 1.42173 69.2274
2145862 15.0957 16.3275 20.5339 17.2923 -0.725566 1.38695 69.2493
2145883 15.0435 16.2901 20.465 17.3117 -0.68969 1.39844 69.1103
2145895 15.1043 16.3088 20.5732 17.302 -0.745723 1.39896 69.2884
2145913 15.0522 16.2527 20.5339 17.2143 -0.767156 1.39963 69.0531
2145923 15.0696 16.2901 20.5536 17.302 -0.733583 1.40776 69.2152
2145945 15.0435 16.2901 20.5732 17.2728 -0.742213 1.41207 69.1796
2145965 15.0522 16.3555 20.5732 17.2825 -0.717337 1.39643 69.2634
2145975 15.113 16.3648 20.5043 17.2533 -0.721903 1.36052 69.2355
2145987 15.113 16.3648 20.5043 17.2533 -0.721903 1.36052 69.2355
2145996 15.1217 16.3462 20.4354 17.2533 -0.707714 1.34929 69.1566
2146006 15.1565 16.4302 20.465 17.2241 -0.709917 1.3213 69.2758
2146016 15.1565 16.4302 20.465 17.2241 -0.709917 1.3213 69.2758
2146026 15.1391 16.4302 20.3764 17.2143 -0.676315 1.30596 69.16
2146038 15.113 16.4582 20.3567 17.2533 -0.635354 1.30932 69.1813
2146046 15.113 16.4582 20.3567 17.2533 -0.635354 1.30932 69.1813
2146058 15.1826 16.4769 20.3468 17.2338 -0.656673 1.28273 69.2402
2146078 15.1478 16.4209 20.2976 17.2241 -0.651501 1.29244 69.0904
2146089 15.1391 16.4302 20.3567 17.2728 -0.647707 1.31363 69.1988
2146106 15.2 16.4676 20.3567 17.1559 -0.69862 1.26734 69.1801
2146116 15.1304 16.4302 20.3173 17.2436 -0.641613 1.3021 69.1215
2146126 15.1304 16.4302 20.3173 17.2436 -0.641613 1.3021 69.1215
2146136 15.1565 16.4863 20.3468 17.302 -0.618796 1.30017 69.2916
2146147 15.1565 16.4863 20.3468 17.302 -0.618796 1.30017 69.2916
2146158 15.0609 16.4396 20.3567 17.3117 -0.602241 1.3376 69.1689
2146166 15.0783 16.4582 20.3764 17.3605 -0.59039 1.34258 69.2733
2146178 15.0783 16.4582 20.3764 17.3605 -0.59039 1.34258 69.2733
2146186 15.1043 16.5236 20.3173 17.2923 -0.579806 1.29589 69.2375
2146197 15.1043 16.5236 20.3173 17.2923 -0.579806 1.29589 69.2375
2146206 15.0609 16.4956 20.3567 17.2533 -0.60313 1.31281 69.1665
2146216 15.113 16.5143 20.3567 17.341 -0.582208 1.31345 69.325
2146226 15.113 16.5143 20.3567 17.341 -0.582208 1.31345 69.325
2146236 15.087 16.5143 20.3567 17.2728 -0.598212 1.30612 69.2307
2146246 15.0957 16.4676 20.3468 17.2241 -0.633134 1.30348 69.1341
2146257 15.0957 16.4676 20.3468 17.2241 -0.633134 1.30348 69.1341
2146266 15.1217 16.589 20.3075 17.2241 -0.583504 1.26096 69.2423
2146277 15.1217 16.589 20.3075 17.2241 -0.583504 1.26096 69.2423
2146286 15.1304 16.5423 20.2189 17.263 -0.558157 1.26004 69.1547
2146297 15.1565 16.5797 20.2976 17.302 -0.566977 1.26849 69.3358
2146318 15.1217 16.5984 20.209 17.1851 -0.559695 1.23145 69.1142
2146327 15.1478 16.5516 20.2681 17.1948 -0.603446 1.24998 69.1624
2146348 15.2 16.561 20.3075 17.1851 -0.635843 1.24143 69.2536
2146401 15.2087 16.5423 20.3272 17.2046 -0.64553 1.25155 69.2827
2146404 15.2087 16.5423 20.3272 17.2046 -0.64553 1.25155 69.2827
2146406 15.2 16.5984 20.2878 17.1364 -0.633119 1.21907 69.2225
2146408 15.2348 16.5516 20.209 17.1169 -0.642163 1.20228 69.1124
2146411 15.2783 16.6077 20.1893 17.0585 -0.651443 1.16336 69.1338
2146424 15.2783 16.6077 20.1893 17.0585 -0.651443 1.16336 69.1338
2146431 15.2696 16.561 20.1401 16.9813 -0.677072 1.15099 68.952
2146450 15.2696 16.5703 20.1303 17.0097 -0.659531 1.15254 68.9799
2146451 15.2696 16.5703 20.1303 17.0097 -0.659531 1.15254 68.9799
2146464 15.287 16.617 20.1401 17.0097 -0.651777 1.13952 69.0539
2146471 15.287 16.617 20.1401 17.0097 -0.651777 1.13952 69.0539
2146483 15.3043 16.6077 20.1697 17.0974 -0.639243 1.16112 69.1791
2146491 15.3652 16.5984 20.209 17.0585 -0.692406 1.14918 69.2311
2146511 15.3478 16.6824 20.1204 17.0292 -0.634803 1.11002 69.1799
2146521 15.3565 16.6637 20.1303 17 -0.659096 1.10846 69.1505
2146531 15.3565 16.6637 20.1303 17 -0.659096 1.10846 69.1505
2146543 15.3913 16.7198 20.15 16.9813 -0.664409 1.08752 69.2423
2146561 15.3739 16.6451 20.0318 16.9532 -0.654846 1.07953 69.004
2146571 15.3652 16.7011 20.1795 16.9252 -0.693381 1.09258 69.171
2146582 15.3652 16.7011 20.1795 16.9252 -0.693381 1.09258 69.171
2146592 15.3826 16.6731 20.1106 16.9252 -0.685675 1.08119 69.0914
2146602 15.3739 16.6357 20.1893 16.9532 -0.713758 1.1134 69.1522
2146613 15.3739 16.6357 20.1893 16.9532 -0.713758 1.1134 69.1522
2146622 15.3478 16.7011 20.1697 17 -0.656031 1.10969 69.2186
2146632 15.3304 16.7011 20.1992 16.9626 -0.674181 1.11215 69.1933
2146642 15.3304 16.6918 20.1992 16.9626 -0.677647 1.11433 69.184
2146652 15.3652 16.6824 20.1893 16.9813 -0.682935 1.11018 69.2183
2146662 15.3652 16.6824 20.1893 16.9813 -0.682935 1.11018 69.2183
2146672 15.3652 16.7571 20.1401 16.8971 -0.669149 1.06598 69.1596
2146682 15.4261 16.7571 20.0515 16.8877 -0.662863 1.03209 69.1225
2146692 15.4261 16.7571 20.0515 16.8877 -0.662863 1.03209 69.1225
2146702 15.4522 16.6918 20.0122 16.8971 -0.679001 1.03514 69.0532
2146715 15.4522 16.6918 20.0122 16.8971 -0.679001 1.03514 69.0532
2146722 15.4348 16.6637 20.0515 16.8784 -0.704135 1.04987 69.0284
2146733 15.4261 16.7385 20.0023 16.869 -0.659415 1.02268 69.0359
2146743 15.4261 16.7385 20.0023 16.869 -0.659415 1.02268 69.0359
2146754 15.5391 16.8038 20.0023 16.8316 -0.688817 0.973794 69.1769
2146763 15.5043 16.8505 19.9531 16.7942 -0.655815 0.953452 69.1022
2146784 15.6522 16.8599 19.9137 16.8129 -0.683552 0.913045 69.2387
2146795 15.6522 16.8599 19.9137 16.8129 -0.683552 0.913045 69.2387
2146805 15.6609 16.8319 19.9137 16.7193 -0.731784 0.898429 69.1258
2146815 15.7217 16.9159 19.7956 16.7006 -0.687362 0.837185 69.1339
2146825 15.7217 16.9159 19.7956 16.7006 -0.687362 0.837185 69.1339
2146836 15.687 16.9159 19.7759 16.6725 -0.678624 0.835369 69.0513
2146843 15.713 16.9813 19.7562 16.6538 -0.663532 0.806537 69.1044
2146855 15.713 16.9813 19.7562 16.6538 -0.663532 0.806537 69.1044
2146865 15.7652 17.0097 19.7661 16.6164 -0.688703 0.782461 69.1574
2146875 15.7652 17.0097 19.7661 16.6164 -0.688703 0.782461 69.1574
2146885 15.7043 16.9346 19.7267 16.579 -0.695284 0.797753 68.9446
2146896 15.8087 17.0486 19.6873 16.6538 -0.647976 0.755181 69.1985
2146915 15.6696 17.0292 19.6676 16.6351 -0.606109 0.783463 69.0015
2146926 15.8348 17.0681 19.6972 16.579 -0.681166 0.731424 69.179
2146935 15.8348 17.0681 19.6972 16.579 -0.681166 0.731424 69.179
2146945 15.7739 17.0195 19.6775 16.579 -0.67088 0.752301 69.0498
2146955 15.7739 17.0195 19.6479 16.579 -0.66047 0.746205 69.0203
2146965 15.8174 17.0389 19.6479 16.6258 -0.651194 0.741518 69.13
2146976 15.7739 17.0681 19.6578 16.6164 -0.631988 0.744874 69.1162
2146985 15.7739 17.0681 19.6578 16.6164 -0.631988 0.744874 69.1162
2146996 15.7913 17.0778 19.6676 16.6351 -0.631043 0.744588 69.1718
2147005 15.7826 17.0681 19.6578 16.5883 -0.645465 0.737105 69.0968
2147031 15.7304 17.107 19.7267 16.6725 -0.605753 0.771661 69.2366
2147035 15.7304 17.107 19.7267 16.6725 -0.605753 0.771661 69.2366
2147045 15.7217 17.0292 19.7169 16.6912 -0.621088 0.793213 69.159
2147056 15.713 17.0681 19.7169 16.6164 -0.63135 0.770924 69.1144
2147080 15.7478 16.9813 19.6381 16.579 -0.661978 0.758836 68.9462
2147088 15.7043 17.0389 19.6086 16.5416 -0.628677 0.741772 68.8934
2147106 15.6957 17.0389 19.5987 16.5228 -0.629078 0.737845 68.8561
2147116 15.6957 17.0389 19.5987 16.5228 -0.629078 0.737845 68.8561
2147127 15.7304 17.0195 19.5495 16.5322 -0.627726 0.726081 68.8316
2147136 15.7391 17.1459 19.5889 16.6164 -0.566551 0.720856 69.0903
2147147 15.7391 17.1459 19.5889 16.6164 -0.566551 0.720856 69.0903
2147156 15.7565 17.0778 19.579 16.5977 -0.601377 0.726494 69.011
2147166 15.687 17.0584 19.7267 16.7193 -0.591104 0.802279 69.1913
2147186 15.7304 17.1167 19.7365 16.7474 -0.577982 0.786831 69.3311
2147196 15.7304 17.1167 19.7365 16.7474 -0.577982 0.786831 69.3311
2147207 15.6348 17.0292 19.707 16.7193 -0.576526 0.816835 69.0903
2147217 15.7565 17.107 19.6578 16.7287 -0.569911 0.763096 69.25
2147230 15.7565 17.107 19.6578 16.7287 -0.569911 0.763096 69.25
2147237 15.713 17.1751 19.6283 16.6258 -0.557001 0.730217 69.1421
2147247 15.713 17.0778 19.52 16.6912 -0.53041 0.743539 69.0021
2147259 15.713 17.0778 19.52 16.6912 -0.53041 0.743539 69.0021
2147268 15.7739 17.1167 19.5298 16.6538 -0.554912 0.715106 69.0743
2147278 15.7217 17.1167 19.5397 16.579 -0.567645 0.71353 68.9571
2147288 15.7217 17.0973 19.5397 16.579 -0.574858 0.717963 68.9376
2147299 15.7826 17.1264 19.4904 16.5883 -0.564697 0.689197 68.9878
2147309 15.7826 17.1264 19.4904 16.5883 -0.564697 0.689197 68.9878
2147319 15.7304 17.1264 19.6086 16.5883 -0.588036 0.725529 69.0538
2147328 15.7217 17.0778 19.5298 16.5883 -0.575113 0.722299 68.9177
2147340 15.7217 17.0778 19.5298 16.5883 -0.575113 0.722299 68.9177
2147348 15.7652 17.1362 19.5889 16.6538 -0.565529 0.724863 69.1441
2147358 15.7652 17.1362 19.5889 16.6538 -0.565529 0.724863 69.1441
2147369 15.7652 17.1264 19.5987 16.6538 -0.572599 0.729108 69.1442
2147378 15.713 17.1459 19.5594 16.6538 -0.533025 0.728425 69.0721
2147388 15.713 17.1459 19.5594 16.6538 -0.533025 0.728425 69.0721
2147398 15.713 17.1945 19.5495 16.6164 -0.525399 0.707586 69.0735
2147409 15.7478 17.2042 19.5101 16.6164 -0.520177 0.689319 69.0786
2147419 15.7478 17.2042 19.5101 16.6164 -0.520177 0.689319 69.0786
2147428 15.7304 17.1751 19.5397 16.6632 -0.517978 0.715692 69.1083
2147441 15.7304 17.1751 19.5397 16.6632 -0.517978 0.715692 69.1083
2147451 15.6522 17.1751 19.5594 16.6164 -0.514495 0.727907 69.003
2147460 15.7043 17.1653 19.5298 16.5883 -0.53651 0.706315 68.9878
2147480 15.6957 17.2431 19.4904 16.607 -0.483775 0.686311 69.0363
2147491 15.6696 17.1848 19.5397 16.6632 -0.492804 0.727333 69.0572
2147500 15.6696 17.1848 19.5397 16.6632 -0.492804 0.727333 69.0572
2147511 15.7391 17.2918 19.5987 16.6445 -0.505826 0.695563 69.2741
2147520 15.7391 17.2918 19.5987 16.6445 -0.505826 0.695563 69.2741
2147531 15.7304 17.3696 19.5495 16.5509 -0.491133 0.650377 69.2004
2147540 15.7391 17.3307 19.4215 16.6258 -0.435582 0.646187 69.1171
2147552 15.7391 17.3307 19.4215 16.6258 -0.435582 0.646187 69.1171
2147560 15.7652 17.3209 19.3625 16.5883 -0.44122 0.622419 69.037
2147570 15.7913 17.3987 19.3723 16.579 -0.4288 0.599045 69.1413
2147580 15.7913 17.3987 19.3723 16.579 -0.4288 0.599045 69.1413
2147590 15.8261 17.4279 19.2936 16.5322 -0.419641 0.558432 69.0798
2147611 15.7652 17.3404 19.2739 16.4854 -0.440465 0.57802 68.8649
2147621 15.8348 17.4668 19.3034 16.4854 -0.429136 0.539995 69.0904
2147641 15.8348 17.4668 19.3723 16.4761 -0.457057 0.552447 69.15
2147655 15.887 17.4765 19.3723 16.5228 -0.454779 0.548306 69.2587
2147661 15.887 17.4765 19.3723 16.5228 -0.454779 0.548306 69.2587
2147671 15.8957 17.5154 19.392 16.4761 -0.46773 0.531971 69.2792
2147694 15.8609 17.4668 19.3133 16.5228 -0.428137 0.544015 69.1638
2147702 15.913 17.4668 19.2247 16.4667 -0.435849 0.501983 69.0712
2147713 15.913 17.4668 19.2247 16.4667 -0.435849 0.501983 69.0712
2147730 15.9043 17.4474 19.264 16.4106 -0.474621 0.504785 69.0263
2147734 15.887 17.5252 19.2345 16.3638 -0.446492 0.475184 69.0104
2147743 15.887 17.5252 19.2345 16.3638 -0.446492 0.475184 69.0104
2147753 15.9043 17.4668 19.1656 16.2796 -0.480829 0.452077 68.8164
2147765 15.9304 17.4863 19.1951 16.3638 -0.462306 0.465862 68.9756
2147783 15.9478 17.4571 19.2148 16.3825 -0.479354 0.476593 69.0022
2147794 15.9478 17.4571 19.2148 16.3825 -0.479354 0.476593 69.0022
2147803 15.9304 17.4765 19.2542 16.4012 -0.473081 0.488348 69.0624
2147813 15.9739 17.496 19.2345 16.448 -0.457121 0.479938 69.1524
2147835 16.0174 17.496 19.2444 16.4293 -0.48292 0.468349 69.187
2147845 16.0261 17.5543 19.264 16.4106 -0.478384 0.453578 69.255
2147855 16.0261 17.5543 19.264 16.4106 -0.478384 0.453578 69.255
2147866 15.9913 17.5738 19.2345 16.3825 -0.458759 0.444891 69.1821
2147875 15.9913 17.5738 19.2345 16.3825 -0.458759 0.444891 69.1821
2147885 16.0174 17.496 19.205 16.3544 -0.496559 0.444319 69.0728
2147895 16.0261 17.5154 19.2247 16.3544 -0.499447 0.442175 69.1206
2147905 16.0261 17.5154 19.2247 16.3544 -0.499447 0.442175 69.1206
2147915 16.0348 17.4863 19.1754 16.317 -0.509666 0.428483 69.0135
2147925 16.0348 17.5154 19.1853 16.3638 -0.485112 0.43391 69.0993
2147935 16.0348 17.5154 19.1853 16.3638 -0.485112 0.43391 69.0993
2147945 15.9826 17.5446 19.2542 16.3919 -0.469951 0.459461 69.1733
2147955 15.9826 17.5446 19.2542 16.3919 -0.469951 0.459461 69.1733
2147965 15.9913 17.5543 19.3034 16.317 -0.514476 0.449953 69.1661
2147976 15.9913 17.4571 19.2542 16.3451 -0.522584 0.467259 69.0477
2147985 15.9913 17.4571 19.2542 16.3451 -0.522584 0.467259 69.0477
2147995 15.9565 17.4376 19.2936 16.3919 -0.514115 0.497528 69.0796
2148005 15.9913 17.4765 19.264 16.3544 -0.515428 0.466944 69.0863
2148026 16.0522 17.4668 19.1656 16.3451 -0.509162 0.432789 69.0297
2148036 16.0522 17.4668 19.1656 16.3451 -0.509162 0.432789 69.0297
2148046 16.0696 17.5057 19.1558 16.317 -0.507836 0.412209 69.048
2148056 16.0522 17.5252 19.1459 16.3544 -0.477178 0.417573 69.0777
2148071 16.0522 17.5252 19.1459 16.3544 -0.477178 0.417573 69.0777
2148076 16.0435 17.4765 19.2148 16.3264 -0.526848 0.438992 69.0612
2148086 16.0174 17.5446 19.1164 16.2796 -0.474772 0.398929 68.958
2148097 16.0174 17.5446 19.1164 16.2796 -0.474772 0.398929 68.958
2148107 16.0783 17.5543 19.1459 16.2889 -0.499837 0.391409 69.0675
2148117 16.0783 17.5543 19.1459 16.2889 -0.499837 0.391409 69.0675
2148127 16.0696 17.5446 19.1951 16.2609 -0.528163 0.399989 69.0702
2148137 16.1391 17.5057 19.1361 16.2515 -0.549732 0.378678 69.0324
2148147 16.1391 17.5057 19.1361 16.2515 -0.549732 0.378678 69.0324
2148157 16.1304 17.5252 19.0573 16.2422 -0.514984 0.357599 68.9551
2148167 16.0696 17.496 19.0475 16.2609 -0.49372 0.379561 68.8739
2148180 16.0696 17.496 19.0475 16.2609 -0.49372 0.379561 68.8739
2148187 16.1043 17.5349 19.0967 16.2983 -0.495355 0.381494 69.0342
2148197 16.1043 17.5349 19.0967 16.2983 -0.495355 0.381494 69.0342
2148208 16.087 17.5641 19.0967 16.2796 -0.485316 0.374907 69.0273
2148219 16.113 17.5057 19.1361 16.3357 -0.509359 0.402306 69.0906
2148228 16.113 17.5057 19.1361 16.3357 -0.509359 0.402306 69.0906
2148239 16.1652 17.5349 19.0869 16.2796 -0.520368 0.361896 69.0666
2148251 16.087 17.5349 19.1164 16.2515 -0.513457 0.379633 68.9898
2148259 16.087 17.5349 19.1164 16.2515 -0.513457 0.379633 68.9898
2148269 16.113 17.603 19.1853 16.3076 -0.501278 0.385122 69.209
2148279 16.113 17.603 19.1853 16.3076 -0.501278 0.385122 69.209
2148289 16.0957 17.5738 19.2444 16.3357 -0.516425 0.413856 69.2495
2148299 16.0696 17.4668 19.3428 16.4012 -0.557272 0.477977 69.2804
2148318 16.0174 17.4765 19.3133 16.3076 -0.559379 0.461617 69.1148
2148328 16.0522 17.389 19.3231 16.317 -0.604092 0.477462 69.0813
2148338 16.0522 17.389 19.3231 16.317 -0.604092 0.477462 69.0813
2148353 16 17.389 19.3329 16.3076 -0.592603 0.489264 69.0296
2148362 16 17.389 19.3329 16.3076 -0.592603 0.489264 69.0296
2148371 15.9478 17.3696 19.3428 16.3451 -0.570962 0.515283 69.0052
2148378 15.9652 17.3209 19.3526 16.3825 -0.584751 0.532222 69.0213
2148390 15.9652 17.3209 19.3526 16.3825 -0.584751 0.532222 69.0213
2148400 15.9652 17.2626 19.4215 16.4106 -0.620334 0.565662 69.0599
2148410 15.9565 17.2918 19.4904 16.448 -0.616887 0.583237 69.1867
2148420 15.9565 17.2918 19.4904 16.448 -0.616887 0.583237 69.1867
2148430 16.0174 17.3015 19.52 16.4667 -0.638181 0.577399 69.3056
2148440 16.0174 17.3015 19.52 16.4667 -0.638181 0.577399 69.3056
2148450 15.9739 17.2334 19.4806 16.4573 -0.6377 0.592368 69.1453
2148460 15.9565 17.2237 19.579 16.448 -0.673299 0.617023 69.2072
2148480 15.9739 17.2237 19.4904 16.3919 -0.669086 0.582957 69.0799
2148491 15.9652 17.1751 19.4904 16.3451 -0.701529 0.586127 68.9758
2148502 15.9652 17.1751 19.4904 16.3451 -0.701529 0.586127 68.9758
2148511 15.9739 17.214 19.4609 16.3919 -0.662297 0.578983 69.0406
2148521 15.9739 17.214 19.4609 16.3919 -0.662297 0.578983 69.0406
2148531 15.9217 17.1167 19.5397 16.3919 -0.70786 0.629203 68.97
2148541 15.9565 17.107 19.6381 16.4293 -0.74437 0.651784 69.1309
2148551 15.9565 17.107 19.6381 16.4293 -0.74437 0.651784 69.1309
2148561 15.9217 17.0681 19.5594 16.3825 -0.736421 0.642382 68.9317
2148572 15.913 17.0389 19.6381 16.4573 -0.744015 0.682903 69.0474
2148581 15.913 17.0389 19.6381 16.4573 -0.744015 0.682903 69.0474
2148591 15.887 17.0973 19.6184 16.4761 -0.699225 0.675375 69.0787
2148601 15.887 17.0973 19.6184 16.4761 -0.699225 0.675375 69.0787
2148611 15.8435 16.9907 19.7169 16.5135 -0.744298 0.737615 69.0645
2148621 15.8174 16.9533 19.7759 16.5883 -0.741909 0.779682 69.1349
2148631 15.8174 16.9533 19.7759 16.5883 -0.741909 0.779682 69.1349
2148641 15.8174 16.9626 19.835 16.5977 -0.755657 0.791611 69.2127
2148651 15.7739 16.8599 19.8251 16.6164 -0.768276 0.826862 69.0753
2148671 15.7652 16.8879 19.8547 16.6912 -0.737262 0.843825 69.199
2148681 15.7652 16.8879 19.8547 16.6912 -0.737262 0.843825 69.199
2148691 15.7826 16.8786 19.8448 16.6819 -0.746866 0.838051 69.1879
2148701 15.7304 16.7758 19.9039 16.7006 -0.780588 0.889492 69.1107
2148713 15.7304 16.7758 19.9039 16.7006 -0.780588 0.889492 69.1107
2148724 15.7478 16.8132 19.9433 16.7193 -0.779568 0.888764 69.2236
2148732 15.687 16.7011 19.9236 16.7006 -0.800157 0.920731 69.0122
2148742 15.687 16.7011 19.9236 16.7006 -0.800157 0.920731 69.0122
2148752 15.6783 16.7011 19.9334 16.7848 -0.769116 0.941901 69.0976
2148762 15.6783 16.7011 19.9334 16.7848 -0.769116 0.941901 69.0976
2148772 15.6174 16.6731 20.0122 16.8503 -0.761418 0.991715 69.1529
2148782 15.5826 16.6824 20.0712 16.7848 -0.790861 0.996296 69.1211
2148792 15.5826 16.6824 20.0712 16.7848 -0.790861 0.996296 69.1211
2148802 15.5565 16.6824 20.0614 16.8597 -0.750369 1.01549 69.16
2148812 15.5391 16.6451 20.0909 16.8409 -0.775523 1.03037 69.116
2148822 15.5391 16.6451 20.0909 16.8409 -0.775523 1.03037 69.116
2148832 15.5913 16.6077 20.0811 16.9626 -0.758962 1.04949 69.2426
2148842 15.5913 16.6077 20.0811 16.9626 -0.758962 1.04949 69.2426
2148852 15.4522 16.533 20.1697 17.0097 -0.751513 1.1265 69.1645
2148863 15.4261 16.5143 20.1697 17.0195 -0.745694 1.1389 69.1295
2148873 15.4261 16.5143 20.1697 17.0195 -0.745694 1.1389 69.1295
2148883 15.4435 16.5423 20.2386 17.0682 -0.747387 1.15185 69.2925
2148894 15.4087 16.5143 20.15 17.0585 -0.718172 1.14682 69.1314
2148903 15.4087 16.5143 20.15 17.0585 -0.718172 1.14682 69.1314
2148913 15.3913 16.4863 20.2386 17.0877 -0.742707 1.18101 69.2038
2148933 15.313 16.4302 20.2976 17.039 -0.775002 1.21454 69.0799
2148943 15.2609 16.4489 20.3764 17.1072 -0.751945 1.25166 69.1933
2148954 15.2609 16.4489 20.3764 17.1072 -0.751945 1.25166 69.1933
2148963 15.2435 16.4115 20.337 17.0779 -0.756842 1.25089 69.07
2148974 15.1391 16.3555 20.3764 17.1656 -0.722225 1.31395 69.0366
2148983 15.1391 16.3555 20.3764 17.1656 -0.722225 1.31395 69.0366
2148994 15.1043 16.3275 20.524 17.263 -0.736025 1.37721 69.2189
2149010 15.1043 16.3275 20.524 17.263 -0.736025 1.37721 69.2189
2149016 15.0609 16.2808 20.5142 17.3312 -0.70933 1.41004 69.1871
2149025 15.0435 16.3742 20.5142 17.2923 -0.68301 1.38437 69.2241
2149036 15.0435 16.3742 20.5142 17.2923 -0.68301 1.38437 69.2241
2149045 15.0609 16.4022 20.4748 17.2728 -0.672115 1.36204 69.2107
2149055 15.0783 16.4956 20.524 17.2825 -0.657305 1.3475 69.3804
2149077 15.0696 16.4676 20.4945 17.3117 -0.643441 1.3561 69.3434
2149085 15.0696 16.4676 20.4945 17.3117 -0.643441 1.3561 69.3434
2149096 15.0435 16.3648 20.4453 17.302 -0.658628 1.37494 69.1556
2149105 15.0261 16.3835 20.524 17.2338 -0.698592 1.37671 69.1674
2149115 15.0261 16.3835 20.524 17.2338 -0.698592 1.37671 69.1674
2149125 15.0522 16.4022 20.5142 17.263 -0.686511 1.36993 69.2316
2149139 15.0609 16.3929 20.4945 17.2338 -0.696966 1.36045 69.182
2149155 15.0174 16.4022 20.5142 17.263 -0.674289 1.37816 69.1968
2149166 15.0174 16.4022 20.5142 17.263 -0.674289 1.37816 69.1968
2149176 15.0435 16.3742 20.4551 17.2436 -0.680329 1.36314 69.1163
2149186 15.0174 16.4302 20.4158 17.263 -0.62924 1.35213 69.1264
2149196 15.0174 16.4302 20.4158 17.263 -0.62924 1.35213 69.1264
2149206 15.0609 16.4115 20.524 17.2533 -0.693168 1.36569 69.2497
2149219 15.0348 16.3929 20.5142 17.2728 -0.680253 1.37817 69.2146
2149236 14.9652 16.4302 20.4847 17.2923 -0.624308 1.38382 69.1724
2149246 14.9652 16.4302 20.4847 17.2923 -0.624308 1.38382 69.1724
2149259 14.9478 16.3555 20.4945 17.302 -0.64574 1.40952 69.0998
2149266 14.9304 16.3555 20.5339 17.4092 -0.613777 1.44241 69.229
2149276 14.9304 16.3555 20.5339 17.4092 -0.613777 1.44241 69.229
2149286 15.0087 16.3275 20.5634 17.3312 -0.690946 1.421 69.2308
2149297 14.9565 16.3275 20.5339 17.2825 -0.680318 1.41802 69.1004
2149306 14.9565 16.3275 20.5339 17.2825 -0.680318 1.41802 69.1004
2149317 14.9652 16.3929 20.5732 17.3605 -0.64407 1.42347 69.2918
2149326 14.9652 16.3929 20.5732 17.3605 -0.64407 1.42347 69.2918
2149338 14.9478 16.3181 20.5437 17.341 -0.662479 1.43572 69.1507
2149346 14.9739 16.3275 20.5437 17.3994 -0.646526 1.43876 69.2445
2149358 14.9739 16.3275 20.5437 17.3994 -0.646526 1.43876 69.2445
2149366 14.9565 16.2994 20.5437 17.3799 -0.658017 1.44573 69.1796
2149378 14.9043 16.2994 20.6028 17.3507 -0.671279 1.46399 69.1573
2149386 14.9043 16.2527 20.6028 17.3507 -0.688629 1.47511 69.1106
2149396 14.9217 16.3368 20.5831 17.4092 -0.634956 1.45855 69.2508
2149407 14.9217 16.3368 20.5831 17.4092 -0.634956 1.45855 69.2508
2149416 14.9217 16.2621 20.6028 17.4287 -0.662343 1.48398 69.2153
2149426 14.913 16.2901 20.6225 17.3994 -0.666656 1.47752 69.225
2149436 14.913 16.2901 20.6225 17.3994 -0.666656 1.47752 69.225
2149446 14.9478 16.3275 20.6914 17.3994 -0.689206 1.47381 69.3661
2149456 14.9478 16.3275 20.6914 17.3994 -0.689206 1.47381 69.3661
2149467 14.913 16.2808 20.5831 17.3897 -0.659883 1.47014 69.1666
2149477 14.9217 16.3555 20.5831 17.3799 -0.638863 1.44839 69.2403
2149497 14.9043 16.3368 20.5536 17.3507 -0.640093 1.44545 69.1454
2149507 14.9391 16.3275 20.5339 17.3605 -0.645261 1.43746 69.1609
2149522 14.9391 16.3275 20.5339 17.3605 -0.645261 1.43746 69.1609
2149528 14.9043 16.3275 20.4847 17.3312 -0.626485 1.43033 69.0477
2149538 14.9217 16.3742 20.4256 17.3215 -0.59806 1.40156 69.043
2149549 14.9217 16.3742 20.4256 17.3215 -0.59806 1.40156 69.043
2149558 14.9478 16.3555 20.5339 17.3117 -0.655994 1.41918 69.1489
2149570 14.9478 16.3555 20.5339 17.3117 -0.655994 1.41918 69.1489
2149579 14.887 16.3088 20.465 17.3312 -0.620325 1.43505 68.9919
2149588 14.8957 16.3555 20.4551 17.3702 -0.588147 1.42759 69.0765
2149599 14.8957 16.3555 20.4551 17.3702 -0.588147 1.42759 69.0765
2149609 14.9043 16.4769 20.524 17.4676 -0.534734 1.42932 69.3729
2149618 14.9217 16.4489 20.5142 17.4189 -0.565667 1.42037 69.3037
2149633 14.9217 16.4489 20.5142 17.4189 -0.565667 1.42037 69.3037
2149644 14.9739 16.4302 20.5142 17.4189 -0.590944 1.41244 69.3372
2149651 14.9739 16.4302 20.5142 17.4189 -0.590944 1.41244 69.3372
2149658 14.9217 16.4863 20.5536 17.4287 -0.562176 1.42114 69.3902
2149671 14.8957 16.4209 20.5043 17.4384 -0.556141 1.43509 69.2593
2149690 14.9304 16.4396 20.524 17.3799 -0.590035 1.41481 69.274
2149703 14.9391 16.4396 20.524 17.3702 -0.596696 1.41084 69.2729
2149720 14.913 16.4396 20.4847 17.4092 -0.559224 1.41694 69.2464
2149730 14.913 16.4396 20.4847 17.4092 -0.559224 1.41694 69.2464
2149740 14.887 16.3648 20.4256 17.3994 -0.560349 1.42737 69.0768
2149750 14.9391 16.4115 20.4847 17.3799 -0.589576 1.41167 69.2153
2149760 14.9391 16.4115 20.4847 17.3799 -0.589576 1.41167 69.2153
2149770 14.887 16.4302 20.4453 17.3994 -0.543144 1.41571 69.1619
2149781 14.887 16.3368 20.4453 17.302 -0.613816 1.41875 68.9711
2149792 14.887 16.3368 20.4453 17.302 -0.613816 1.41875 68.9711
2149801 14.9826 16.4676 20.4158 17.3897 -0.556305 1.37647 69.2556
2149811 14.9826 16.4676 20.4158 17.3897 -0.556305 1.37647 69.2556
2149821 14.9565 16.4115 20.4551 17.3507 -0.596106 1.396 69.1739
2149834 14.9739 16.4956 20.4551 17.4092 -0.549613 1.38348 69.3338
2149841 14.9739 16.4956 20.4551 17.4092 -0.549613 1.38348 69.3338
2149856 14.9826 16.4302 20.4453 17.2825 -0.620167 1.37003 69.1406
2149861 14.9826 16.4302 20.4354 17.2825 -0.616696 1.36809 69.1308
2149871 14.9652 16.4209 20.4354 17.302 -0.606799 1.37826 69.1235
2149882 15.0174 16.5049 20.4354 17.3312 -0.583299 1.3518 69.289
2149891 15.0174 16.5049 20.4354 17.3312 -0.583299 1.3518 69.289
2149902 15.0348 16.5049 20.3173 17.2533 -0.576562 1.30897 69.1103
2149911 15.0435 16.4956 20.3567 17.2533 -0.596993 1.31692 69.1491
2149921 15.0435 16.4956 20.3567 17.2533 -0.596993 1.31692 69.1491
2149932 15.1391 16.533 20.2976 17.1948 -0.61771 1.26229 69.1646
2149942 15.0957 16.5143 20.337 17.2241 -0.612356 1.29053 69.171
2149952 15.0957 16.5143 20.337 17.2241 -0.612356 1.29053 69.171
2149964 15.1043 16.561 20.3173 17.263 -0.576799 1.28131 69.2457
2149986 15.113 16.4863 20.2976 17.2533 -0.60416 1.29102 69.1502
2149993 15.1043 16.5049 20.3075 17.2241 -0.608468 1.28482 69.1408
2150012 15.0783 16.5049 20.2976 17.2241 -0.595787 1.28902 69.1049
2150022 15.1304 16.5049 20.3567 17.263 -0.620583 1.29615 69.2551
2150034 15.1304 16.5049 20.3567 17.263 -0.620583 1.29615 69.2551
2150042 15.0957 16.5423 20.3764 17.3994 -0.551151 1.32636 69.4138
2150064 15.087 16.4863 20.3665 17.2728 -0.612046 1.31467 69.2125
2150073 15.0783 16.4396 20.3665 17.3312 -0.604634 1.33928 69.2156
2150099 15.0087 16.5049 20.2878 17.1559 -0.592996 1.28993 68.9573
2150114 15.0522 16.5049 20.3075 17.2338 -0.586444 1.29905 69.0984
2150123 15.0174 16.4582 20.2583 17.1851 -0.592111 1.29885 68.919
2150133 15.0174 16.4582 20.2583 17.1851 -0.592111 1.29885 68.919
2150144 14.9826 16.3929 20.3075 17.2143 -0.610653 1.33815 68.8973
2150155 15.0261 16.5049 20.3764 17.2825 -0.583538 1.32849 69.1899
2150165 15.0261 16.5049 20.3764 17.2825 -0.583538 1.32849 69.1899
2150175 15.0348 16.4209 20.4256 17.3507 -0.609827 1.36945 69.232
2150184 15.0261 16.5143 20.4256 17.3994 -0.554301 1.35903 69.3654
2150196 15.0261 16.5143 20.4256 17.3994 -0.554301 1.35903 69.3654
2150205 15.1304 16.4302 20.4551 17.3702 -0.643189 1.35431 69.386
2150215 15.1304 16.4302 20.4551 17.3702 -0.643189 1.35431 69.386
2150225 15.0783 16.4115 20.4453 17.3507 -0.635517 1.36526 69.2858
2150235 15.0609 16.4582 20.3665 17.3312 -0.591591 1.33898 69.2169
2150245 15.0609 16.4582 20.3665 17.3312 -0.591591 1.33898 69.2169
2150255 15.0261 16.4209 20.337 17.3507 -0.575504 1.35404 69.1347
2150265 15.0087 16.4115 20.3173 17.341 -0.569458 1.35456 69.0785
2150294 15.0087 16.4302 20.3173 17.3702 -0.551739 1.35591 69.1264
2150297 15.0087 16.4302 20.3173 17.3702 -0.551739 1.35591 69.1264
2150305 15.0261 16.3835 20.4059 17.2923 -0.635315 1.36495 69.1078
2150315 15.0783 16.4769 20.3862 17.4189 -0.565396 1.35163 69.3603
2150325 15.0783 16.4769 20.3862 17.4189 -0.565396 1.35163 69.3603
2150335 15.0609 16.4956 20.3272 17.2923 -0.578293 1.31468 69.1759
2150346 14.9826 16.4676 20.337 17.341 -0.546469 1.35136 69.1282
2150366 14.9739 16.5423 20.3272 17.341 -0.512321 1.33381 69.1843
2150376 14.9739 16.5423 20.3272 17.341 -0.512321 1.33381 69.1843
2150386 14.9391 16.4582 20.337 17.4092 -0.509347 1.37731 69.1435
2150397 14.9391 16.533 20.2976 17.3605 -0.485797 1.34225 69.1302
2150416 14.9478 16.5984 20.3173 17.3117 -0.489713 1.31902 69.1752
2150426 14.9913 16.6077 20.2386 17.302 -0.477359 1.28904 69.1396
2150436 14.9913 16.6077 20.2386 17.302 -0.477359 1.28904 69.1396
2150446 15.0609 16.6731 20.3075 17.2728 -0.513057 1.26517 69.3142
2150459 15.0609 16.6731 20.3075 17.2728 -0.513057 1.26517 69.3142
2150467 15.0435 16.6637 20.2484 17.3215 -0.471532 1.2694 69.2771
2150479 15.0348 16.6824 20.2287 17.3215 -0.454614 1.26315 69.2674
2150487 15.0348 16.6824 20.2287 17.3215 -0.454614 1.26315 69.2674
2150499 15.0609 16.6824 20.2583 17.2825 -0.488633 1.25516 69.2841
2150507 15.0174 16.6918 20.2189 17.263 -0.463019 1.25148 69.1911
2150519 15.0174 16.6918 20.2189 17.263 -0.463019 1.25148 69.1911
2150527 15.0348 16.6544 20.2681 17.263 -0.500375 1.26595 69.2203
2150539 15.0348 16.6544 20.2681 17.263 -0.500375 1.26595 69.2203
2150547 15.0522 16.6637 20.2287 17.1948 -0.51429 1.23829 69.1395
2150559 15.0522 16.6264 20.1598 17.1266 -0.528879 1.21973 68.965
2150579 15.0783 16.617 20.2583 17.1948 -0.551221 1.24901 69.1484
2150587 15.087 16.6077 20.209 17.2046 -0.536734 1.24131 69.1083
2150601 15.087 16.6077 20.209 17.2046 -0.536734 1.24131 69.1083
2150608 15.1043 16.7011 20.209 17.2143 -0.504829 1.21725 69.2288
2150622 15.1043 16.7011 20.209 17.2143 -0.504829 1.21725 69.2288
2150628 15.0957 16.6544 20.2484 17.2241 -0.529307 1.24001 69.2225
2150639 15.113 16.6824 20.1795 17.2728 -0.482813 1.22534 69.2477
2150649 15.113 16.6824 20.1795 17.2728 -0.482813 1.22534 69.2477
2150661 15.1565 16.6451 20.1008 17.1169 -0.54163 1.17708 69.0192
2150668 15.1304 16.6077 20.2287 17.1754 -0.56988 1.22919 69.1422
2150681 15.1304 16.6077 20.2287 17.1754 -0.56988 1.22919 69.1422
2150688 15.2 16.6544 20.209 17.1851 -0.566633 1.19997 69.2485
2150709 15.1478 16.6264 20.15 17.1364 -0.555684 1.19725 69.0606
2150722 15.1826 16.617 20.1893 17.0877 -0.603403 1.18941 69.0767
2150728 15.1826 16.617 20.1893 17.0877 -0.603403 1.18941 69.0767
2150739 15.1826 16.589 20.1697 17.0779 -0.610453 1.1901 69.0192
2150749 15.1826 16.589 20.1697 17.0779 -0.610453 1.1901 69.0192
2150759 15.2 16.617 20.1401 17.1364 -0.574116 1.18524 69.0936
2150769 15.2435 16.6824 20.2189 17.1169 -0.600269 1.17162 69.2617
2150789 15.2174 16.7104 20.209 17.1266 -0.573654 1.17115 69.2635
2150798 15.2087 16.5984 20.1008 17.1656 -0.559361 1.18555 69.0734
2150810 15.2087 16.5984 20.1008 17.1656 -0.559361 1.18555 69.0734
2150820 15.2435 16.6637 20.1893 17.0974 -0.60398 1.16619 69.194
2150830 15.2087 16.617 20.1893 17.1948 -0.572956 1.2047 69.2099
2150850 15.2957 16.6824 20.2386 17.1266 -0.621958 1.16532 69.3433
2150870 15.2261 16.6544 20.1992 17.1364 -0.590359 1.18219 69.2161
2150880 15.2696 16.617 20.2189 17.1169 -0.633647 1.1808 69.2224
2150890 15.2696 16.617 20.2189 17.1169 -0.633647 1.1808 69.2224
2150908 15.2435 16.6264 20.209 17.1072 -0.621143 1.1808 69.1861
2150917 15.2348 16.5984 20.1992 17.0682 -0.63944 1.17964 69.1005
2150935 15.2348 16.5984 20.1992 17.0682 -0.63944 1.17964 69.1005
2150936 15.2348 16.5703 20.2189 17.1266 -0.635093 1.20181 69.1506
2150944 15.2348 16.5703 20.2189 17.1266 -0.635093 1.20181 69.1506
2150952 15.1826 16.5984 20.2189 17.0779 -0.624368 1.19775 69.0778
2150966 15.1826 16.561 20.2681 17.1559 -0.626682 1.23187 69.1676
2150982 15.2522 16.533 20.1893 17.0779 -0.662765 1.19087 69.0524
2150992 15.2348 16.561 20.209 17.1072 -0.642315 1.19815 69.112
2151006 15.2348 16.561 20.209 17.1072 -0.642315 1.19815 69.112
2151015 15.2609 16.6264 20.1598 17.1656 -0.588293 1.17858 69.2127
2151026 15.313 16.6637 20.2386 17.1461 -0.627775 1.16951 69.3615
2151033 15.313 16.6637 20.2386 17.1461 -0.627775 1.16951 69.3615
2151046 15.287 16.6637 20.1401 17.0292 -0.627214 1.13252 69.12
2151053 15.287 16.6637 20.1401 17.0292 -0.627214 1.13252 69.12
2151063 15.313 16.6544 20.1401 17.0779 -0.621821 1.13838 69.1855
2151074 15.3391 16.6264 20.1303 17.039 -0.652374 1.12904 69.1348
2151083 15.3391 16.6264 20.1303 17.039 -0.652374 1.12904 69.1348
2151094 15.3478 16.6264 20.1598 17.0682 -0.654991 1.1388 69.2022
2151103 15.3391 16.6077 20.1795 17.0779 -0.66217 1.15107 69.2043
2151117 15.3391 16.6077 20.1795 17.0779 -0.66217 1.15107 69.2043
2151128 15.3391 16.589 20.1204 17.0974 -0.641085 1.14751 69.146
2151135 15.3391 16.589 20.1204 17.0974 -0.641085 1.14751 69.146
2151145 15.4522 16.6637 20.1893 16.9813 -0.720377 1.09431 69.2865
2151155 15.4174 16.6637 20.1303 16.9719 -0.690922 1.08865 69.1833
2151165 15.4174 16.6637 20.1303 16.9719 -0.690922 1.08865 69.1833
2151175 15.5217 16.7104 20.0122 16.9345 -0.682634 1.02224 69.1788
2151185 15.5565 16.6824 20.022 16.9439 -0.705241 1.02455 69.2048
2151195 15.5565 16.6824 20.022 16.9439 -0.705241 1.02455 69.2048
2151205 15.5652 16.6731 20.0023 16.9345 -0.70833 1.01883 69.1751
2151215 15.5652 16.6731 20.0023 16.9345 -0.70833 1.01883 69.1751
2151227 15.5478 16.6637 19.9728 16.8877 -0.712715 1.00959 69.0721
2151235 15.5391 16.6544 20.0614 16.8784 -0.747737 1.0298 69.1333
2151248 15.5391 16.6544 20.0614 16.8784 -0.747737 1.0298 69.1333
2151255 15.5043 16.6824 20.1106 16.8784 -0.742368 1.04131 69.1757
2151265 15.513 16.6824 20.0909 16.8597 -0.745478 1.03154 69.146
2151275 15.513 16.6637 20.0909 16.8597 -0.752437 1.03587 69.1273
2151285 15.5217 16.7104 20.0515 16.8222 -0.738212 1.00749 69.1059
2151305 15.5304 16.6731 20.022 16.8222 -0.744818 1.00816 69.0477
2151315 15.4783 16.6637 20.0318 16.8129 -0.736915 1.02253 68.9867
2151325 15.4783 16.6637 20.0318 16.8129 -0.736915 1.02253 68.9867
2151336 15.5304 16.7385 20.0712 16.869 -0.720347 1.01244 69.2091
2151346 15.5304 16.7385 20.0318 16.869 -0.706524 1.00448 69.1698
2151356 15.5304 16.6357 20.0318 16.8597 -0.748256 1.02639 69.0577
2151366 15.5043 16.7198 20.0417 16.8971 -0.697331 1.02251 69.1629
2151386 15.5304 16.7198 20.1106 16.9064 -0.727187 1.03227 69.2673
2151396 15.4435 16.6824 20.0515 16.9626 -0.66894 1.0605 69.14
2151407 15.4435 16.6824 20.0515 16.9626 -0.66894 1.0605 69.14
2151417 15.5391 16.7571 20.0614 16.9064 -0.69911 1.01168 69.2641
2151427 15.4435 16.6544 20.0614 16.9064 -0.703683 1.05768 69.0657
2151438 15.4435 16.6544 20.0614 16.9064 -0.703683 1.05768 69.0657
2151447 15.5304 16.6918 20.0712 16.8971 -0.727274 1.02892 69.1905
2151457 15.5304 16.6918 20.0712 16.8971 -0.727274 1.02892 69.1905
2151467 15.4435 16.6357 20.1106 16.9626 -0.707057 1.08326 69.1524
2151477 15.4435 16.6637 20.1204 16.9252 -0.714006 1.07119 69.1528
2151487 15.4435 16.6637 20.1204 16.9252 -0.714006 1.07119 69.1528
2151497 15.4522 16.6731 20.1303 17.0097 -0.685638 1.08599 69.2653
2151507 15.4 16.617 20.1795 16.9345 -0.733376 1.10594 69.131
2151517 15.4 16.617 20.1795 16.9345 -0.733376 1.10594 69.131
2151527 15.4522 16.5797 20.1992 16.9906 -0.751591 1.11771 69.2217
2151538 15.4522 16.5797 20.1992 16.9906 -0.751591 1.11771 69.2217
2151547 15.3565 16.5984 20.1303 16.9439 -0.704268 1.11242 69.029
2151559 15.3913 16.5423 20.1795 16.9906 -0.737245 1.13667 69.1038
2151568 15.3913 16.5423 20.1795 16.9906 -0.737245 1.13667 69.1038
2151579 15.3478 16.5797 20.1992 17 -0.711501 1.14392 69.1267
2151589 15.3913 16.533 20.209 17.039 -0.733095 1.15445 69.1723
2151599 15.3913 16.533 20.209 17.039 -0.733095 1.15445 69.1723
2151609 15.3565 16.561 20.1893 17.0682 -0.692692 1.15794 69.175
2151620 15.3565 16.561 20.1893 17.0682 -0.692692 1.15794 69.175
2151628 15.3391 16.617 20.1697 17.0974 -0.648025 1.15083 69.2232
2151640 15.3826 16.6451 20.15 16.9906 -0.685604 1.10881 69.1683
2151658 15.3826 16.6637 20.1008 17.0097 -0.65427 1.09841 69.1568
2151668 15.3826 16.6637 20.1008 17.0097 -0.65427 1.09841 69.1568
2151678 15.3478 16.6451 20.1204 16.9532 -0.676882 1.10345 69.0665
2151690 15.3565 16.6357 20.2189 17 -0.700642 1.13276 69.2111
2151710 15.313 16.5797 20.1401 16.9439 -0.699379 1.12892 68.9767
2151720 15.3217 16.589 20.2287 17 -0.709234 1.15375 69.1395
2151731 15.3217 16.589 20.2287 17 -0.709234 1.15375 69.1395
2151744 15.3478 16.6918 20.1697 17.0292 -0.648664 1.11772 69.2385
2151754 15.3043 16.6264 20.1204 17.0779 -0.622199 1.143 69.1291
2151762 15.3043 16.6264 20.1204 17.0779 -0.622199 1.143 69.1291
2151771 15.3043 16.7385 20.15 16.9813 -0.626884 1.1034 69.1741
2151781 15.3043 16.7385 20.15 16.9813 -0.626884 1.1034 69.1741
2151792 15.2957 16.7758 20.0318 16.9345 -0.585611 1.06352 69.0378
2151802 15.3739 16.7945 20.022 17 -0.578624 1.05222 69.1904
2151812 15.3739 16.7945 20.022 17 -0.578624 1.05222 69.1904
2151822 15.3478 16.7852 20.0023 17.0097 -0.56231 1.05844 69.1451
2151832 15.3478 16.8879 20.0417 17.0195 -0.534701 1.04451 69.2969
2151842 15.3478 16.8879 20.0417 17.0195 -0.534701 1.04451 69.2969
2151852 15.4 16.8879 20.0515 16.9906 -0.567208 1.02861 69.3301
2151867 15.3304 16.8879 19.9826 16.9906 -0.51831 1.03082 69.1916
2151872 15.3304 16.972 19.9826 16.9719 -0.49423 1.00758 69.257
2151883 15.3565 16.9253 20.0023 16.8597 -0.569068 0.993623 69.1438
2151892 15.3565 16.9253 20.0023 16.8597 -0.569068 0.993623 69.1438
2151902 15.3391 16.9813 19.8547 16.8035 -0.510645 0.943279 68.9786
2151913 15.3565 16.9907 19.8251 16.8129 -0.499426 0.932989 68.9852
2151923 15.3565 16.9907 19.8251 16.8129 -0.499426 0.932989 68.9852
2151932 15.3739 17 19.8251 16.8222 -0.49869 0.928726 69.0213
2151942 15.3739 17 19.8251 16.8222 -0.49869 0.928726 69.0213
2151952 15.3913 17.107 19.6873 16.7474 -0.444002 0.856576 68.933
2151962 15.4957 17.107 19.7759 16.8409 -0.478056 0.869892 69.2195
2151974 15.4957 17.107 19.7759 16.8409 -0.478056 0.869892 69.2195
2151983 15.4522 17.1653 19.8054 16.8597 -0.444783 0.876322 69.2826
2151994 15.4261 17.1556 19.7562 16.7942 -0.445718 0.861112 69.1321
2152014 15.5217 17.2237 19.7365 16.8035 -0.444202 0.821523 69.2855
2152023 15.5391 17.2042 19.7661 16.7287 -0.495498 0.812713 69.2381
2152035 15.5391 17.2042 19.7661 16.7287 -0.495498 0.812713 69.2381
2152045 15.5391 17.1945 19.6283 16.6912 -0.464001 0.778937 69.0531
2152055 15.5391 17.1945 19.6283 16.6912 -0.464001 0.778937 69.0531
2152065 15.5217 17.2042 19.6775 16.5977 -0.506258 0.77155 69.0011
2152076 15.6261 17.282 19.6086 16.5416 -0.510827 0.704189 69.0582
2152085 15.6261 17.282 19.6086 16.5416 -0.510827 0.704189 69.0582
2152098 15.6435 17.282 19.5692 16.5696 -0.492665 0.697893 69.0643
2152105 15.6609 17.2334 19.5594 16.5322 -0.527142 0.6952 68.9858
2152125 15.7217 17.3015 19.5692 16.5135 -0.533949 0.664079 69.1059
2152135 15.7217 17.3015 19.5692 16.5135 -0.533949 0.664079 69.1059
2152146 15.6783 17.2529 19.5594 16.5228 -0.529574 0.684882 69.0133
2152156 15.6609 17.2626 19.6283 16.5696 -0.526942 0.710582 69.1213
2152166 15.6609 17.2626 19.6283 16.5696 -0.526942 0.710582 69.1213
2152177 15.7217 17.2626 19.6086 16.5416 -0.551884 0.68688 69.1344
2152186 15.7304 17.282 19.6184 16.5135 -0.561625 0.676721 69.1444
2152212 15.7217 17.2529 19.6479 16.5322 -0.572854 0.695298 69.1547
2152217 15.7217 17.2529 19.6479 16.5322 -0.572854 0.695298 69.1547
2152227 15.7217 17.1945 19.6479 16.4573 -0.622207 0.693056 69.0215
2152237 15.8087 17.2042 19.5987 16.5135 -0.611104 0.672537 69.1251
2152247 15.8087 17.2042 19.5987 16.5135 -0.611104 0.672537 69.1251
2152257 15.7391 17.2042 19.6676 16.5509 -0.597012 0.710328 69.1619
2152267 15.7478 17.2723 19.7169 16.4386 -0.633797 0.679868 69.1756
2152278 15.7478 17.2723 19.7169 16.4386 -0.633797 0.679868 69.1756
2152288 15.7739 17.2723 19.6676 16.5041 -0.6014 0.677324 69.218
2152297 15.7739 17.2723 19.6676 16.5041 -0.6014 0.677324 69.218
2152307 15.7391 17.1459 19.6676 16.4854 -0.642928 0.71005 69.0381
2152317 15.7913 17.1167 19.6578 16.4386 -0.686099 0.693088 69.0044
2152327 15.7913 17.1167 19.6578 16.4386 -0.686099 0.693088 69.0044
2152337 15.8609 17.0875 19.5692 16.4012 -0.70421 0.657731 68.9188
2152347 15.8174 17.1459 19.5692 16.3919 -0.67061 0.652406 68.9243
2152357 15.8174 17.1459 19.5692 16.3919 -0.67061 0.652406 68.9243
2152367 15.8957 17.1459 19.6479 16.448 -0.705017 0.662681 69.1375
2152387 15.8957 17.1653 19.5397 16.4293 -0.66663 0.631893 69.0299
2152397 15.9478 17.1945 19.5889 16.4106 -0.698435 0.619839 69.1418
2152408 15.9478 17.1945 19.5889 16.4106 -0.698435 0.619839 69.1418
2152418 15.9652 17.2529 19.5594 16.3076 -0.710739 0.575144 69.0851
2152429 16 17.2723 19.5397 16.3544 -0.691421 0.568582 69.1664
2152451 16.087 17.2237 19.4806 16.3264 -0.729735 0.541758 69.1176
2152459 16.087 17.2237 19.4806 16.3264 -0.729735 0.541758 69.1176
2152470 16.0348 17.2431 19.4609 16.2702 -0.718144 0.533239 69.0091
2152480 16.1304 17.214 19.5495 16.2889 -0.786698 0.540753 69.1828
2152500 16.1217 17.2237 19.4117 16.2796 -0.735177 0.509698 69.0367
2152511 16.1478 17.2626 19.4019 16.2328 -0.743823 0.483216 69.0451
2152520 16.1478 17.2626 19.4019 16.2328 -0.743823 0.483216 69.0451
2152533 16.1739 17.2626 19.4215 16.2234 -0.763382 0.47954 69.0815
2152541 16.1913 17.3112 19.3625 16.1954 -0.741088 0.44642 69.0604
2152553 16.1913 17.3112 19.3625 16.1954 -0.741088 0.44642 69.0604
2152561 16.2 17.1751 19.3625 16.1954 -0.79499 0.474983 68.9329
2152574 16.2 17.1751 19.3625 16.1954 -0.79499 0.474983 68.9329
2152581 16.2174 17.1751 19.2837 16.1392 -0.794452 0.442602 68.8154
2152596 16.2174 17.1945 19.3034 16.2141 -0.766079 0.458209 68.9294
2152602 16.2174 17.1945 19.3034 16.2141 -0.766079 0.458209 68.9294
2152611 16.287 17.1751 19.4019 16.1392 -0.860295 0.451952 69.0031
2152621 16.2957 17.2334 19.4314 16.2328 -0.816852 0.462862 69.1932
2152631 16.2957 17.2334 19.4314 16.2328 -0.816852 0.462862 69.1932
2152641 16.3217 17.3209 19.4215 16.1767 -0.81082 0.423635 69.2409
2152654 16.3217 17.3209 19.4215 16.1767 -0.81082 0.423635 69.2409
2152661 16.3739 17.3404 19.3822 16.158 -0.815013 0.39546 69.2544
2152671 16.3304 17.3793 19.3133 16.055 -0.79959 0.360151 69.078
2152692 16.3739 17.389 19.2148 16.0083 -0.794171 0.317488 68.986
2152703 16.3304 17.3501 19.1754 16.0457 -0.765617 0.335387 68.9017
2152712 16.3304 17.3501 19.1754 16.0457 -0.765617 0.335387 68.9017
2152723 16.3565 17.389 19.1459 16.0176 -0.760356 0.308665 68.9091
2152732 16.3565 17.389 19.1459 16.0176 -0.760356 0.308665 68.9091
2152742 16.313 17.3307 19.2148 16.0925 -0.763127 0.361903 68.951
2152752 16.2522 17.3598 19.3231 16.1299 -0.754926 0.399835 69.065
2152774 16.2435 17.3793 19.2837 16.158 -0.720327 0.395046 69.0645
2152784 16.2174 17.4279 19.3329 16.2047 -0.692976 0.410298 69.183
2152793 16.2174 17.4279 19.3329 16.2047 -0.692976 0.410298 69.183
2152805 16.1913 17.3501 19.3133 16.1392 -0.730211 0.415488 68.9939
2152814 16.1913 17.3501 19.3133 16.1392 -0.730211 0.415488 68.9939
2152823 16.1652 17.3307 19.2739 16.2328 -0.679554 0.437114 69.0026
2152833 16.087 17.4085 19.3034 16.2141 -0.640392 0.439501 69.0129
2152850 16.087 17.4085 19.3034 16.2141 -0.640392 0.439501 69.0129
2152853 16.0957 17.3987 19.264 16.3076 -0.59845 0.451155 69.0661
2152864 16.0957 17.3404 19.3428 16.317 -0.644414 0.482755 69.0958
2152875 16.0957 17.3404 19.3428 16.317 -0.644414 0.482755 69.0958
2152885 16.0087 17.3307 19.4511 16.4012 -0.624312 0.544775 69.1916
2152895 16.0087 17.3307 19.4511 16.4012 -0.624312 0.544775 69.1916
2152907 15.9652 17.3015 19.4904 16.3825 -0.640617 0.565429 69.1396
2152916 16.0522 17.3112 19.4708 16.3919 -0.657217 0.541536 69.226
2152935 15.9826 17.3307 19.4215 16.4199 -0.597775 0.548378 69.1547
2152946 16.0261 17.3209 19.3822 16.3825 -0.616688 0.524724 69.1117
2152955 16.0261 17.3209 19.3822 16.3825 -0.616688 0.524724 69.1117
2152966 16.0348 17.3307 19.3822 16.3919 -0.612685 0.522548 69.1395
2152976 16.0348 17.3307 19.3822 16.3919 -0.612685 0.522548 69.1395
2152986 16.0522 17.2918 19.3526 16.3076 -0.654089 0.503524 69.0042
2152996 16.0174 17.3793 19.4019 16.3544 -0.609346 0.511823 69.153
2153016 15.9826 17.3987 19.3428 16.3638 -0.565535 0.504842 69.0879
2153030 16.0174 17.2723 19.3822 16.3919 -0.628181 0.539571 69.0637
2153046 16 17.3696 19.4019 16.4293 -0.579117 0.53357 69.2007
2153056 16 17.3696 19.4019 16.4293 -0.579117 0.53357 69.2007
2153066 15.9565 17.3112 19.4412 16.4573 -0.588864 0.570547 69.1663
2153077 15.9391 17.2723 19.392 16.4761 -0.572808 0.576863 69.0795
2153087 15.9391 17.2723 19.392 16.4761 -0.572808 0.576863 69.0795
2153098 15.9391 17.2723 19.4314 16.4199 -0.607516 0.573363 69.0627
2153107 15.8609 17.282 19.4019 16.4199 -0.565785 0.582662 68.9647
2153119 15.8609 17.282 19.4019 16.4199 -0.565785 0.582662 68.9647
2153127 15.9043 17.2723 19.4117 16.4106 -0.591739 0.575141 68.9989
2153137 15.913 17.2334 19.4314 16.4761 -0.591913 0.599746 69.0539
2153147 15.913 17.2334 19.4314 16.4761 -0.591913 0.599746 69.0539
2153157 15.887 17.2626 19.5003 16.5603 -0.565088 0.630907 69.2101
2153167 15.887 17.2626 19.5003 16.5603 -0.565088 0.630907 69.2101
2153177 15.8348 17.2042 19.5692 16.5696 -0.589107 0.672137 69.1778
2153187 15.7739 17.1945 19.5692 16.6351 -0.546996 0.701696 69.1727
2153197 15.7739 17.1945 19.5692 16.6351 -0.546996 0.701696 69.1727
2153208 15.8174 17.2042 19.6972 16.5883 -0.621146 0.706394 69.3071
2153217 15.8174 17.2042 19.6972 16.5883 -0.621146 0.706394 69.3071
2153227 15.7217 17.1459 19.6578 16.579 -0.598612 0.731315 69.1044
2153239 15.7217 17.1264 19.6873 16.6538 -0.588527 0.757266 69.1893
2153247 15.7217 17.1264 19.6873 16.6538 -0.588527 0.757266 69.1893
2153258 15.687 17.0681 19.6873 16.5696 -0.629087 0.761152 69.012
2153267 15.6609 16.9813 19.7267 16.6912 -0.620835 0.820101 69.0601
2153279 15.6609 16.9813 19.7267 16.6912 -0.620835 0.820101 69.0601
2153287 15.6261 17.0389 19.7267 16.6819 -0.59067 0.812958 69.0736
2153308 15.5826 16.9253 19.7169 16.71 -0.603551 0.852748 68.9347
2153320 15.6174 17.0097 19.7661 16.7848 -0.574215 0.850798 69.178
2153330 15.6174 17.0097 19.7661 16.7848 -0.574215 0.850798 69.178
2153341 15.6696 17.0389 19.7858 16.7848 -0.588778 0.836205 69.279
2153348 15.6 17 19.7365 16.7848 -0.56123 0.85097 69.1213
2153369 15.5913 17 19.7956 16.8222 -0.565195 0.872689 69.2091
2153378 15.5913 17 19.7956 16.8222 -0.565195 0.872689 69.2091
2153388 15.5739 16.944 19.8153 16.7193 -0.624859 0.87254 69.0525
2153398 15.5652 16.9626 19.8743 16.7567 -0.621822 0.889957 69.1589
2153422 15.4957 16.944 19.8054 16.7848 -0.569437 0.901925 69.0299
2153430 15.4957 16.9346 19.835 16.7755 -0.586814 0.908194 69.0407
2153451 15.5043 16.9626 19.894 16.7661 -0.603832 0.909877 69.1271
2153463 15.487 16.9626 19.9728 16.8222 -0.604692 0.941321 69.2446
2153470 15.487 16.9346 19.9728 16.8222 -0.61506 0.947773 69.2166
2153490 15.4435 16.8973 19.9728 16.869 -0.596249 0.975911 69.1825
2153492 15.4435 16.8973 19.9728 16.869 -0.596249 0.975911 69.1825
2153503 15.4783 16.8599 19.9629 16.7942 -0.646624 0.959319 69.0953
2153511 15.4957 16.8599 20.0318 16.869 -0.649254 0.984455 69.2564
2153531 15.5043 16.7758 19.9925 16.869 -0.669636 0.993898 69.1417
2153544 15.4609 16.8412 19.9728 16.7942 -0.650899 0.969654 69.069
2153551 15.4609 16.8412 19.9728 16.7942 -0.650899 0.969654 69.069
2153561 15.513 16.8505 20.0023 16.8503 -0.655378 0.972826 69.2162
2153571 15.513 16.8505 20.0023 16.8503 -0.655378 0.972826 69.2162
2153581 15.4435 16.7291 19.9629 16.8035 -0.679506 0.999548 68.9391
2153591 15.4609 16.7478 20.0122 16.8597 -0.675143 1.01255 69.0805
2153612 15.5217 16.8132 20.0318 16.869 -0.67573 0.989213 69.2358
2153622 15.4609 16.7758 20.0909 16.9532 -0.657736 1.04086 69.2808
2153632 15.4609 16.7758 20.0909 16.9532 -0.657736 1.04086 69.2808
2153642 15.4609 16.7011 20.1401 16.9439 -0.70619 1.0662 69.246
2153652 15.4609 16.7011 20.1401 16.9439 -0.70619 1.0662 69.246
2153662 15.4261 16.6918 20.0909 16.9439 -0.680155 1.06654 69.1526
2153672 15.4261 16.6544 20.15 16.9158 -0.725226 1.08146 69.1462
2153692 15.4783 16.6264 20.1303 16.9532 -0.73313 1.07942 69.1881
2153702 15.4 16.6544 20.1401 16.9626 -0.695214 1.09496 69.1571
2153713 15.4 16.6544 20.1401 16.9626 -0.695214 1.09496 69.1571
2153723 15.3826 16.6077 20.1598 17.0487 -0.681376 1.13114 69.1988
2153743 15.4087 16.533 20.1992 16.9719 -0.760709 1.13498 69.1128
2153755 15.4087 16.5516 20.1992 16.9626 -0.757232 1.12875 69.1221
2153764 15.4087 16.5516 20.1992 16.9626 -0.757232 1.12875 69.1221
2153773 15.4435 16.5236 20.15 17.0487 -0.730534 1.13457 69.1658
2153783 15.4 16.5516 20.1204 17.039 -0.698088 1.1303 69.1111
2153805 15.3826 16.4582 20.1795 17.1364 -0.711241 1.18753 69.1567
2153825 15.4 16.4115 20.2189 17.039 -0.78485 1.18279 69.0694
2153835 15.3826 16.4022 20.2287 17.1072 -0.760253 1.20465 69.1207
2153845 15.3826 16.4022 20.2287 17.1072 -0.760253 1.20465 69.1207
2153856 15.4 16.4209 20.2386 17.039 -0.788267 1.18454 69.0984
2153865 15.4174 16.4769 20.2779 17.1072 -0.761861 1.18883 69.2794
2153876 15.4174 16.4769 20.2779 17.1072 -0.761861 1.18883 69.2794
2153886 15.4522 16.4863 20.2779 17.1169 -0.766928 1.18047 69.3333
2153896 15.4522 16.4863 20.2779 17.1169 -0.766928 1.18047 69.3333
2153906 15.3652 16.4115 20.2976 17.1072 -0.774828 1.22027 69.1815
2153917 15.3739 16.3835 20.3567 17.1948 -0.776319 1.25397 69.309
2153937 15.313 16.3368 20.3764 17.1754 -0.786559 1.27928 69.2016
2153946 15.313 16.3368 20.3468 17.2533 -0.747213 1.28887 69.25
2153961 15.313 16.3368 20.3468 17.2533 -0.747213 1.28887 69.25
2153967 15.3217 16.2994 20.4354 17.1851 -0.820541 1.29965 69.2417
2153979 15.2087 16.2994 20.4354 17.1851 -0.780998 1.32631 69.1287
2153987 15.2087 16.1967 20.4354 17.1656 -0.826667 1.34675 69.0065
2153999 15.2609 16.2527 20.5043 17.1754 -0.844412 1.33671 69.1933
2154020 15.2435 16.2527 20.4354 17.2923 -0.770652 1.35029 69.2239
2154027 15.2174 16.1967 20.465 17.2241 -0.81819 1.36208 69.1031
2154038 15.2174 16.1967 20.465 17.2241 -0.81819 1.36208 69.1031
2154048 15.2348 16.2434 20.5339 17.3117 -0.798248 1.37776 69.3238
2154060 15.1739 16.1874 20.5437 17.2825 -0.812192 1.40162 69.1875
2154068 15.1739 16.1874 20.5437 17.2825 -0.812192 1.40162 69.1875
2154078 15.2087 16.15 20.5634 17.3117 -0.834258 1.41184 69.2338
2154089 15.2087 16.15 20.5634 17.3117 -0.834258 1.41184 69.2338
2154098 15.1391 16.122 20.6028 17.2825 -0.845091 1.43699 69.1464
2154113 15.2783 16.15 20.5536 17.2728 -0.869633 1.38577 69.2546
2154122 15.2783 16.15 20.5536 17.2728 -0.869633 1.38577 69.2546
2154131 15.2696 16.2247 20.524 17.2143 -0.850229 1.35284 69.2327
2154139 15.2783 16.1407 20.4847 17.2436 -0.860015 1.36867 69.1471
2154148 15.2783 16.1407 20.4847 17.2436 -0.860015 1.36867 69.1471
2154160 15.2609 16.1874 20.4847 17.2436 -0.836486 1.36173 69.1764
2154170 15.2609 16.1874 20.4847 17.2436 -0.836486 1.36173 69.1764
2154180 15.2 16.1407 20.4945 17.2338 -0.839752 1.38723 69.069
2154190 15.2435 16.1126 20.5437 17.3312 -0.846197 1.41241 69.2311
2154200 15.2435 16.1126 20.5437 17.3312 -0.846197 1.41241 69.2311
2154210 15.2348 16.1033 20.6028 17.2436 -0.900027 1.41107 69.1844
2154220 15.1826 16.0753 20.5732 17.2436 -0.882027 1.42431 69.0747
2154230 15.1826 16.0753 20.5732 17.2436 -0.882027 1.42431 69.0747
2154240 15.2435 16.0753 20.5043 17.302 -0.857338 1.40779 69.1251
2154251 15.2435 16.0753 20.5043 17.302 -0.857338 1.40779 69.1251
2154261 15.1826 16.15 20.5437 17.2338 -0.847384 1.39884 69.1101
2154270 15.1652 16.094 20.5339 17.2825 -0.840604 1.42393 69.0756
2154280 15.1652 16.094 20.5339 17.2825 -0.840604 1.42393 69.0756
2154291 15.2696 16.1126 20.5732 17.263 -0.891073 1.39863 69.2185
2154300 15.1565 16.1033 20.5437 17.3799 -0.801131 1.44482 69.1835
2154320 15.1043 16.1313 20.5732 17.3799 -0.782762 1.45634 69.1889
2154341 15.1043 16.1126 20.6323 17.4092 -0.799491 1.47805 69.2585
2154352 15.0696 16.0379 20.7012 17.4871 -0.81021 1.53274 69.2958
2154372 15.0174 16.0846 20.7111 17.4481 -0.792541 1.52839 69.2612
2154381 15.1043 15.9912 20.652 17.3994 -0.855318 1.50893 69.147
2154394 15.1043 15.9912 20.652 17.3994 -0.855318 1.50893 69.147
2154401 15.087 16.0379 20.7307 17.3702 -0.870192 1.51159 69.2258
2154411 15.087 16.0379 20.7307 17.3702 -0.870192 1.51159 69.2258
2154421 15.0348 16.0379 20.7406 17.3507 -0.862713 1.52217 69.164
2154432 15.0348 15.9632 20.7406 17.3799 -0.879739 1.54573 69.1185
2154441 15.0348 15.9632 20.7406 17.3799 -0.879739 1.54573 69.1185
2154451 15.087 16.0192 20.7898 17.4092 -0.883183 1.53512 69.3052
2154461 15.087 16.0192 20.7898 17.4092 -0.883183 1.53512 69.3052
2154472 15.0435 15.9725 20.8193 17.3605 -0.914012 1.55294 69.1958
2154481 15.0087 15.8885 20.9178 17.3702 -0.964011 1.6024 69.1851
2154491 15.0087 15.8885 20.9178 17.3702 -0.964011 1.6024 69.1851
2154501 14.9652 15.8978 20.9079 17.3994 -0.931005 1.61435 69.1704
2154511 15 15.8604 20.9276 17.4189 -0.956649 1.62255 69.207
2154521 15 15.8604 20.9276 17.4189 -0.956649 1.62255 69.207
2154531 15.0435 15.9258 20.8489 17.4774 -0.898026 1.59251 69.2955
2154541 15.0435 15.9258 20.8489 17.4774 -0.898026 1.59251 69.2955
2154551 15.0696 15.9071 20.8686 17.3117 -0.982992 1.56244 69.157
2154562 15 15.9258 20.8587 17.3897 -0.91913 1.58785 69.1742
2154571 15 15.9258 20.8587 17.3897 -0.91913 1.58785 69.1742
2154583 14.9826 16.0099 20.8095 17.3312 -0.886326 1.55097 69.1332
2154591 15.0174 15.9538 20.839 17.4968 -0.867777 1.59391 69.3071
2154612 15 15.9352 20.8981 17.4774 -0.896528 1.61021 69.3106
2154632 14.9739 15.9912 20.9375 17.4774 -0.880226 1.61063 69.38
2154642 14.9913 15.9912 20.9276 17.5261 -0.864694 1.61397 69.4362
2154652 14.9913 15.9912 20.9276 17.5261 -0.864694 1.61397 69.4362
2154662 14.9565 15.9725 20.8587 17.4871 -0.850093 1.60594 69.2749
2154672 15 15.9165 20.8193 17.4871 -0.872453 1.60134 69.2229
2154688 15 15.9165 20.8193 17.4871 -0.872453 1.60134 69.2229
2154693 14.9652 15.8978 20.839 17.4871 -0.874174 1.61798 69.1892
2154702 14.9652 15.8978 20.839 17.4871 -0.874174 1.61798 69.1892
2154712 14.9304 15.8511 20.7701 17.4384 -0.8737 1.6148 68.9901
2154722 14.9391 15.9165 20.7701 17.4579 -0.844951 1.60075 69.0836
2154734 14.9391 15.9165 20.7701 17.4579 -0.844951 1.60075 69.0836
2154743 14.9565 15.9165 20.7209 17.4189 -0.848402 1.57945 69.0128
2154757 14.9652 15.8231 20.7701 17.5163 -0.867154 1.62827 69.0748
2154770 14.9652 15.8231 20.7701 17.5163 -0.867154 1.62827 69.0748
2154773 14.9739 15.9071 20.7997 17.4676 -0.867267 1.60226 69.1483
2154783 14.9739 15.9071 20.7997 17.4676 -0.867267 1.60226 69.1483
2154793 15 15.8511 20.7701 17.5066 -0.872456 1.61128 69.1278
2154804 14.9826 15.9445 20.8686 17.5261 -0.858527 1.61584 69.3217
2154826 14.9652 15.9445 20.7898 17.4871 -0.839548 1.59724 69.1866
2154835 14.9739 15.9632 20.8095 17.5261 -0.827943 1.60203 69.2727
2154845 14.9739 15.9632 20.8095 17.5261 -0.827943 1.60203 69.2727
2154856 14.9826 15.9352 20.8193 17.5066 -0.852135 1.6048 69.2437
2154866 14.8957 15.8885 20.7898 17.5066 -0.828892 1.6312 69.0805
2154876 14.8957 15.8885 20.7898 17.5066 -0.828892 1.6312 69.0805
2154886 14.9478 15.9819 20.8193 17.5553 -0.804421 1.61136 69.3043
2154897 14.9478 15.9819 20.8193 17.5553 -0.804421 1.61136 69.3043
2154906 14.887 15.9165 20.8489 17.4871 -0.843309 1.63421 69.1394
2154916 14.9217 15.9071 20.8686 17.5748 -0.833081 1.64881 69.2722
2154927 14.9217 15.9071 20.8686 17.5748 -0.833081 1.64881 69.2722
2154937 14.8957 15.9632 20.7997 17.5163 -0.800793 1.61702 69.1748
2154949 14.887 15.9258 20.7406 17.4968 -0.798285 1.61288 69.0502
2154970 14.9043 16.0005 20.7307 17.4774 -0.78031 1.58506 69.113
2154977 14.9391 15.9632 20.6815 17.5456 -0.763755 1.58936 69.1294
2154991 14.9391 15.9632 20.6815 17.5456 -0.763755 1.58936 69.1294
2155000 14.887 15.8978 20.6914 17.5066 -0.787854 1.61197 68.9827
2155010 14.887 15.8978 20.6914 17.5066 -0.787854 1.61197 68.9827
2155018 14.9304 15.9819 20.78 17.5358 -0.791846 1.60415 69.2281
2155031 14.9478 15.9632 20.7012 17.5748 -0.762813 1.59676 69.187
2155039 14.9478 15.9632 20.7012 17.5748 -0.762813 1.59676 69.187
2155052 14.9652 16.0286 20.8095 17.5358 -0.796925 1.59034 69.3391
2155059 14.9652 16.0286 20.78 17.5358 -0.786613 1.58463 69.3096
2155073 14.887 15.9912 20.78 17.5943 -0.751396 1.62364 69.2524
2155078 14.9826 16.0286 20.78 17.5943 -0.770959 1.59177 69.3854
2155102 14.9217 16.0192 20.7898 17.6138 -0.74936 1.61424 69.3445
2155119 14.9304 16.0099 20.7701 17.5845 -0.759846 1.60495 69.295
2155128 14.8957 15.9632 20.7504 17.6138 -0.747275 1.62634 69.223
2155139 14.8957 15.9632 20.7504 17.6138 -0.747275 1.62634 69.223
2155148 14.8174 15.9258 20.7504 17.565 -0.751881 1.64474 69.0587
2155161 14.887 16.0286 20.7701 17.604 -0.730444 1.61466 69.2897
2155170 14.887 16.0286 20.7701 17.604 -0.730444 1.61466 69.2897
2155180 14.8609 15.9538 20.7111 17.5358 -0.753772 1.61425 69.0616
2155190 14.8696 15.9071 20.7898 17.6235 -0.769161 1.65557 69.19
2155201 14.8696 15.9071 20.7898 17.6235 -0.769161 1.65557 69.19
2155211 14.9043 15.8791 20.8489 17.5943 -0.823322 1.65969 69.2266
2155224 14.8783 15.9538 20.839 17.5943 -0.782922 1.6461 69.2654
2155230 14.8783 15.9538 20.839 17.5943 -0.782922 1.6461 69.2654
2155243 14.8957 15.9352 20.8095 17.7014 -0.745781 1.66136 69.3417
2155260 14.9217 15.8231 20.7307 17.6332 -0.794463 1.65373 69.1088
2155270 14.8783 15.9352 20.78 17.604 -0.765581 1.64108 69.1974
2155280 14.8783 15.9352 20.78 17.604 -0.765581 1.64108 69.1974
2155290 14.9304 15.9165 20.7701 17.5943 -0.790985 1.62924 69.2113
2155300 14.9304 15.9165 20.7406 17.5943 -0.780649 1.62354 69.1818
2155312 14.9217 15.8978 20.7406 17.5553 -0.799108 1.62258 69.1154
2155320 15.087 15.9725 20.7307 17.5553 -0.825532 1.56316 69.3455
2155330 15.087 15.9725 20.7307 17.5553 -0.825532 1.56316 69.3455
2155341 15.0609 15.9912 20.5929 17.4774 -0.790347 1.523 69.1224
2155351 15.113 16.0099 20.5929 17.4871 -0.798009 1.50798 69.203
2155361 15.113 16.0099 20.5929 17.4871 -0.798009 1.50798 69.203
2155371 15.1652 16.0379 20.524 17.3702 -0.825334 1.45254 69.0974
2155381 15.1652 16.0379 20.524 17.3702 -0.825334 1.45254 69.0974
2155392 15.1826 16.0192 20.4945 17.341 -0.839004 1.44131 69.0373
2155410 15.1652 16.094 20.4551 17.302 -0.805745 1.41227 69.0163
2155421 15.2174 16.0379 20.4059 17.2923 -0.831401 1.40157 68.9535
2155434 15.2348 16.1033 20.4059 17.3507 -0.791188 1.39342 69.0947
2155456 15.2957 16.1687 20.4354 17.3215 -0.80933 1.36358 69.2213
2155462 15.3217 16.2154 20.4158 17.341 -0.786912 1.34635 69.2938
2155482 15.3478 16.2247 20.3468 17.4189 -0.7395 1.33978 69.3383
2155492 15.3478 16.2247 20.3468 17.4189 -0.7395 1.33978 69.3383
2155503 15.2609 16.2808 20.3862 17.3994 -0.709276 1.35098 69.3273
2155513 15.287 16.2527 20.3665 17.2728 -0.769004 1.32257 69.179
2155525 15.287 16.2527 20.3665 17.2728 -0.769004 1.32257 69.179
2155533 15.3304 16.2527 20.2976 17.2825 -0.756466 1.30061 69.1633
2155543 15.313 16.2994 20.2386 17.2241 -0.734013 1.27039 69.0751
2155553 15.313 16.2994 20.2386 17.2241 -0.734013 1.27039 69.0751
2155563 15.4 16.3181 20.2287 17.2241 -0.754116 1.24358 69.1709
2155574 15.4 16.3181 20.2287 17.2241 -0.754116 1.24358 69.1709
2155584 15.3391 16.2527 20.2386 17.1754 -0.778772 1.26556 69.0058
2155593 15.2957 16.3088 20.2779 17.2436 -0.731002 1.28397 69.1259
2155603 15.2957 16.3088 20.2779 17.2436 -0.731002 1.28397 69.1259
2155614 15.3391 16.4022 20.2681 17.2143 -0.718936 1.24403 69.2237
2155623 15.3304 16.3181 20.2583 17.1851 -0.754592 1.25806 69.0919
2155644 15.2957 16.4396 20.1992 17.1948 -0.672811 1.22788 69.1292
2155653 15.2957 16.4396 20.1992 17.1948 -0.672811 1.22788 69.1292
2155665 15.2783 16.4022 20.1303 17.1656 -0.667159 1.22117 68.9764
2155673 15.3913 16.4489 20.1303 17.1559 -0.693229 1.18174 69.1264
2155687 15.3913 16.4489 20.1303 17.1559 -0.693229 1.18174 69.1264
2155693 15.3043 16.4863 20.15 17.1266 -0.666527 1.19145 69.0672
2155704 15.2783 16.4956 20.1795 17.1559 -0.653419 1.20711 69.1092
2155714 15.2783 16.4956 20.1795 17.1559 -0.653419 1.20711 69.1092
2155723 15.3217 16.4676 20.1697 17.1461 -0.679283 1.19958 69.1051
2155735 15.3217 16.4676 20.1697 17.1461 -0.679283 1.19958 69.1051
2155745 15.3043 16.5236 20.1992 17.1948 -0.644691 1.20613 69.222
2155755 15.3565 16.5797 20.1795 17.1851 -0.638974 1.17497 69.3008
2155765 15.3565 16.5797 20.1795 17.1851 -0.638974 1.17497 69.3008
2155775 15.3739 16.5143 20.0811 17.1656 -0.64189 1.16261 69.1349
2155785 15.3739 16.5143 20.0811 17.1656 -0.64189 1.16261 69.1349
2155795 15.3565 16.561 20.0614 17.1266 -0.62595 1.14401 69.1055
2155805 15.3739 16.561 20.0417 17.0877 -0.6396 1.12818 69.0643
2155815 15.3739 16.561 20.0417 17.0877 -0.6396 1.12818 69.0643
2155825 15.4087 16.589 20.0122 17.0292 -0.652753 1.09583 69.0391
2155837 15.4435 16.617 19.9728 17.0877 -0.619043 1.08504 69.121
2155846 15.4435 16.617 19.9728 17.0877 -0.619043 1.08504 69.121
2155857 15.4261 16.6544 19.9629 16.9532 -0.645471 1.05128 68.9966
2155865 15.4261 16.6544 19.9629 16.9532 -0.645471 1.05128 68.9966
2155877 15.4174 16.6544 19.9826 16.9719 -0.642398 1.06107 69.0264
2155885 15.513 16.7385 19.9236 16.9626 -0.627579 1.00552 69.1376
2155898 15.513 16.7385 19.9236 16.9626 -0.627579 1.00552 69.1376
2155905 15.513 16.7665 19.835 16.9439 -0.592858 0.977284 69.0584
2155915 15.5043 16.8038 19.7956 16.9439 -0.562014 0.962656 69.0477
2155925 15.5043 16.8038 19.7956 16.9439 -0.562014 0.962656 69.0477
2155935 15.5826 16.8132 19.7661 16.9252 -0.58272 0.932611 69.087
2155946 15.5826 16.8132 19.7661 16.9252 -0.58272 0.932611 69.087
2155956 15.5652 16.7945 19.7858 16.869 -0.611268 0.933509 69.0145
2155966 15.6522 16.7665 19.8645 16.8877 -0.673139 0.939755 69.1709
2155976 15.6522 16.7665 19.8645 16.8877 -0.673139 0.939755 69.1709
2155986 15.6261 16.8412 19.8743 16.9345 -0.622407 0.940053 69.2762
2155996 15.6174 16.8505 19.8054 16.8971 -0.605461 0.918292 69.1705
2156007 15.6174 16.8505 19.8054 16.8971 -0.605461 0.918292 69.1705
2156016 15.6696 16.8412 19.8251 16.8409 -0.655037 0.901018 69.1768
2156031 15.6696 16.8412 19.8251 16.8409 -0.655037 0.901018 69.1768
2156040 15.6522 16.8132 19.7464 16.7661 -0.659369 0.880092 68.9778
2156050 15.687 16.8132 19.7267 16.8129 -0.647305 0.877631 69.0397
2156056 15.687 16.8132 19.7267 16.8129 -0.647305 0.877631 69.0397
2156067 15.7217 16.8225 19.6578 16.7567 -0.652656 0.841865 68.9588
2156077 15.687 16.9533 19.6676 16.8409 -0.564127 0.839129 69.1488
2156097 15.687 16.8786 19.6578 16.8597 -0.581373 0.858082 69.083
2156108 15.687 16.8786 19.6578 16.8597 -0.581373 0.858082 69.083
2156117 15.7043 16.9066 19.7267 16.8503 -0.604925 0.859845 69.1879
2156129 15.7478 16.8599 19.6184 16.8222 -0.609758 0.832663 69.0484
2156149 15.7478 16.8973 19.6381 16.7755 -0.620204 0.818539 69.0586
2156159 15.7826 16.9346 19.6381 16.7006 -0.64639 0.786642 69.0559
2156170 15.7826 16.9346 19.6381 16.7006 -0.64639 0.786642 69.0559
2156177 15.7565 16.9346 19.5298 16.7474 -0.581552 0.779938 68.9683
2156190 15.7565 16.9346 19.5298 16.7474 -0.581552 0.779938 68.9683
2156197 15.7652 16.8973 19.5987 16.6912 -0.643723 0.789131 68.9525
2156207 15.7739 16.9533 19.5692 16.6351 -0.636393 0.756642 68.9315
2156217 15.7739 16.9533 19.5692 16.6351 -0.636393 0.756642 68.9315
2156227 15.7391 16.972 19.5889 16.6632 -0.613679 0.770186 68.9632
2156237 15.7826 16.9813 19.6283 16.7287 -0.615181 0.779724 69.1209
2156247 15.7826 16.9813 19.6283 16.7287 -0.615181 0.779724 69.1209
2156259 15.8261 17.0097 19.5692 16.6164 -0.640801 0.727987 69.0214
2156269 15.8261 17.0097 19.5692 16.6164 -0.640801 0.727987 69.0214
2156279 15.7565 16.9533 19.6086 16.6445 -0.640683 0.770679 68.9629
2156289 15.8174 17.0584 19.5987 16.6632 -0.612757 0.734659 69.1376
2156308 15.7826 17 19.579 16.6632 -0.615165 0.751818 69.0248
2156320 15.7913 17.0097 19.6086 16.6819 -0.618112 0.757568 69.0915
2156329 15.7913 17.0097 19.6086 16.6819 -0.618112 0.757568 69.0915
2156341 15.7913 17.0292 19.6381 16.71 -0.610924 0.764996 69.1685
2156350 15.7826 17.0292 19.6676 16.71 -0.618269 0.773054 69.1894
2156363 15.7826 16.9346 19.6676 16.7287 -0.646381 0.798485 69.1135
2156370 15.8087 17.0097 19.6381 16.7006 -0.627725 0.763541 69.1571
2156391 15.8174 16.972 19.579 16.607 -0.658715 0.738679 68.9754
2156401 15.7826 16.9813 19.5987 16.6819 -0.622107 0.764004 69.0445
2156411 15.7826 16.9813 19.5987 16.6819 -0.622107 0.764004 69.0445
2156421 15.8696 16.9533 19.6086 16.6351 -0.684023 0.74294 69.0665
2156431 15.887 16.9253 19.5889 16.6351 -0.69364 0.7413 69.0362
2156452 15.8957 17.0097 19.5594 16.579 -0.675769 0.702372 69.0437
2156461 15.8957 17.0097 19.5594 16.579 -0.675769 0.702372 69.0437
2156471 15.887 17 19.6676 16.6164 -0.700505 0.736669 69.171
2156481 15.9304 16.9346 19.579 16.6258 -0.705484 0.725298 69.0698
2156491 15.9304 16.9346 19.579 16.6258 -0.705484 0.725298 69.0698
2156502 15.9391 17.0584 19.5298 16.5696 -0.666086 0.673394 69.0969
2156512 15.9565 17.0389 19.5987 16.5135 -0.724544 0.676509 69.1076
2156523 15.9565 17.0389 19.5987 16.5135 -0.724544 0.676509 69.1076
2156533 15.9739 17.0584 19.52 16.5603 -0.678341 0.661526 69.1125
2156552 15.9478 17.0584 19.4806 16.5041 -0.676158 0.647598 68.9909
2156562 15.9391 17.0486 19.4511 16.4948 -0.669776 0.643682 68.9336
2156582 16.0522 17.0778 19.4806 16.448 -0.726548 0.60788 69.0586
2156592 16.0522 17.1362 19.4708 16.4386 -0.70485 0.590699 69.0977
2156602 16.0522 17.1362 19.4708 16.4386 -0.70485 0.590699 69.0977
2156612 16.087 17.0778 19.4609 16.4948 -0.714439 0.605668 69.1204
2156622 16.087 17.0778 19.4609 16.4948 -0.714439 0.605668 69.1204
2156633 16.087 17.1556 19.4117 16.3731 -0.713453 0.552449 69.0274
2156642 16.0957 17.2237 19.4215 16.3451 -0.705078 0.531355 69.086
2156653 16.0957 17.2237 19.4215 16.3451 -0.705078 0.531355 69.086
2156663 16.1391 17.1848 19.4019 16.3357 -0.731409 0.524241 69.0615
2156673 16.113 17.2042 19.3428 16.317 -0.70117 0.509414 68.9771
2156695 16.113 17.2042 19.3428 16.317 -0.70117 0.509414 68.9771
2156697 16.1565 17.2431 19.3231 16.2702 -0.712489 0.476934 68.993
2156716 16.2 17.2626 19.2345 16.2328 -0.703296 0.436252 68.9299
2156723 16.2696 17.2626 19.2345 16.2047 -0.738262 0.414757 68.9714
2156733 16.2696 17.2626 19.2345 16.2047 -0.738262 0.414757 68.9714
2156744 16.3478 17.3598 19.1262 16.1112 -0.726318 0.332817 68.9451
2156754 16.4087 17.3501 19.1065 16.1486 -0.73048 0.325221 69.014
2156763 16.4087 17.3501 19.1065 16.1486 -0.73048 0.325221 69.014
2156775 16.4522 17.4376 19.0967 16.1018 -0.727119 0.284137 69.0883
2156785 16.4522 17.4376 19.0967 16.1018 -0.727119 0.284137 69.0883
2156794 16.3739 17.4474 18.9884 16.1392 -0.643855 0.284205 68.9489
2156803 16.4348 17.4085 19.0376 16.0363 -0.73553 0.267867 68.9172
2156814 16.4348 17.4085 19.0376 16.0363 -0.73553 0.267867 68.9172
2156824 16.5043 17.5154 18.9884 16.0457 -0.699323 0.220327 69.0539
2156833 16.4957 17.496 19.018 16.0457 -0.713897 0.232853 69.0553
2156855 16.4957 17.5446 19.0081 16.0363 -0.695814 0.218028 69.0847
2156865 16.4957 17.5446 19.0081 16.0363 -0.695814 0.218028 69.0847
2156875 16.4348 17.5057 18.9786 16.1018 -0.654083 0.247727 69.0209
2156886 16.4087 17.4863 19.1065 16.0737 -0.70764 0.279114 69.0753
2156895 16.4087 17.4863 19.1065 16.0737 -0.70764 0.279114 69.0753
2156906 16.3826 17.4571 19.0672 16.1112 -0.681527 0.290932 69.018
2156915 16.3391 17.3987 19.0475 16.158 -0.663559 0.319299 68.9433
2156935 16.2957 17.3793 19.1361 16.1392 -0.693686 0.348158 68.9503
2156945 16.2957 17.3793 19.1361 16.1392 -0.693686 0.348158 68.9503
2156956 16.313 17.3696 19.1164 16.186 -0.679076 0.352206 68.985
2156966 16.2 17.389 19.1853 16.2141 -0.64583 0.393625 68.9884
2156976 16.2 17.389 19.1853 16.2141 -0.64583 0.393625 68.9884
2156986 16.2783 17.3501 19.2247 16.3076 -0.666983 0.41294 69.1607
2156996 16.2087 17.3404 19.3034 16.3357 -0.66341 0.453123 69.1882
2157016 16.2 17.3209 19.2542 16.3544 -0.643297 0.452995 69.1296
2157037 16.1304 17.2723 19.2837 16.3544 -0.647233 0.485671 69.0409
2157047 16.1739 17.2918 19.3329 16.3919 -0.658776 0.489762 69.1905
2157067 16.0783 17.2431 19.2837 16.2983 -0.660549 0.49213 68.9034
2157077 16.0522 17.214 19.3133 16.3357 -0.658694 0.51865 68.9151
2157088 16.0522 17.214 19.3133 16.3357 -0.658694 0.51865 68.9151
2157097 16.0609 17.1556 19.3133 16.3919 -0.662589 0.541624 68.9216
2157107 16.0609 17.1556 19.3133 16.3919 -0.662589 0.541624 68.9216
2157117 16.0522 17.1556 19.3428 16.4293 -0.656016 0.557619 68.9798
2157127 16.0174 17.2626 19.3723 16.4854 -0.593637 0.559267 69.1377
2157147 16.0174 17.1459 19.3723 16.5509 -0.612608 0.599241 69.0865
2157159 16.0174 17.2237 19.4117 16.4948 -0.618471 0.578198 69.1475
2157180 16.0174 17.1848 19.4412 16.5228 -0.632893 0.598969 69.1662
2157190 16.0174 17.1848 19.4412 16.5228 -0.632893 0.598969 69.1662
2157201 16.0174 17.1167 19.4215 16.4761 -0.668591 0.600486 69.0317
2157209 15.9652 17.1362 19.4708 16.579 -0.622131 0.639548 69.1511
2157222 15.9652 17.1362 19.4708 16.579 -0.622131 0.639548 69.1511
2157229 15.8609 17.0875 19.4609 16.579 -0.599842 0.672178 68.9883
2157242 15.9391 17.1167 19.6283 16.5977 -0.668645 0.68635 69.2818
2157248 15.9391 17.1167 19.6283 16.5977 -0.668645 0.68635 69.2818
2157259 15.887 17.0486 19.5101 16.6351 -0.620052 0.696938 69.0808
2157269 15.887 17.0486 19.5101 16.6351 -0.620052 0.696938 69.0808
2157279 15.8435 17.107 19.5397 16.5603 -0.621247 0.684169 69.0504
2157290 15.8174 17.0973 19.5987 16.5603 -0.636497 0.704539 69.0736
2157298 15.8174 17.0973 19.5987 16.5603 -0.636497 0.704539 69.0736
2157308 15.8435 17.0097 19.5889 16.5416 -0.681713 0.712609 68.9836
2157330 15.7913 17.0778 19.52 16.5509 -0.610158 0.696643 68.94
2157340 15.8174 17.0389 19.5594 16.5603 -0.644273 0.709666 68.9759
2157350 15.8174 17.0389 19.579 16.6632 -0.613017 0.735022 69.0985
2157361 15.8174 17 19.579 16.6632 -0.627448 0.743884 69.0596
2157371 15.8609 17.1264 19.6479 16.6258 -0.634059 0.711744 69.261
2157381 15.8609 17.1264 19.6479 16.6258 -0.634059 0.711744 69.261
2157392 15.7913 17.0584 19.6283 16.7006 -0.600116 0.754398 69.1785
2157401 15.8261 17.0681 19.5003 16.6258 -0.591329 0.702378 69.0202
2157413 15.8261 17.0681 19.5003 16.6258 -0.591329 0.702378 69.0202
2157421 15.8174 17.1264 19.6184 16.5977 -0.618739 0.709721 69.1599
2157441 15.8261 17.0778 19.5495 16.5509 -0.632888 0.694855 69.0043
2157454 15.8609 17.0584 19.5889 16.5509 -0.666276 0.699527 69.059
2157462 15.8609 17.0584 19.5889 16.5509 -0.666276 0.699527 69.059
2157476 15.8348 17.0097 19.5594 16.607 -0.643875 0.722035 69.0109
2157482 15.8609 17.0584 19.6676 16.5883 -0.680092 0.723542 69.1752
2157502 15.8522 16.9907 19.6479 16.6258 -0.681351 0.744583 69.1165
2157512 15.8261 16.944 19.7169 16.6351 -0.710291 0.777302 69.122
2157522 15.8261 16.944 19.7169 16.6351 -0.710291 0.777302 69.122
2157532 15.8 16.9626 19.6775 16.6258 -0.683798 0.768959 69.0659
2157552 15.7565 16.944 19.7464 16.7193 -0.664932 0.816557 69.1662
2157562 15.7652 16.9626 19.8054 16.8409 -0.636794 0.84726 69.3742
2157573 15.7652 16.9626 19.8054 16.8409 -0.636794 0.84726 69.3742
2157583 15.7652 16.9066 19.7956 16.8129 -0.664456 0.852333 69.2803
2157594 15.6696 16.8599 19.835 16.8222 -0.658515 0.894917 69.1867
2157605 15.6696 16.8599 19.835 16.8222 -0.658515 0.894917 69.1867
2157614 15.6696 16.8879 19.835 16.8035 -0.655061 0.884664 69.196
2157634 15.6348 16.8319 19.835 16.738 -0.687961 0.892172 69.0397
2157647 15.6522 16.8319 19.8743 16.7193 -0.714895 0.892392 69.0777
2157654 15.6522 16.8319 19.8743 16.7193 -0.714895 0.892392 69.0777
2157667 15.6261 16.7758 19.8645 16.71 -0.726628 0.907388 68.9764
2157674 15.5565 16.7758 19.8842 16.7848 -0.681175 0.942732 69.0014
2157683 15.5565 16.7758 19.8842 16.7848 -0.681175 0.942732 69.0014
2157693 15.5826 16.7945 20.0515 16.8877 -0.703984 0.987244 69.3164
2157705 15.5826 16.7945 20.0515 16.8877 -0.703984 0.987244 69.3164
2157715 15.5652 16.7011 20.0023 16.9064 -0.708348 1.00667 69.1751
2157725 15.5304 16.6918 20.1106 17 -0.702871 1.0576 69.3328
2157736 15.5304 16.6918 20.1106 17 -0.702871 1.0576 69.3328
2157745 15.4783 16.6357 20.1008 16.9719 -0.71234 1.07507 69.1867
2157755 15.4 16.5984 20.1992 17.0585 -0.701161 1.1391 69.256
2157765 15.4 16.5984 20.1992 17.0585 -0.701161 1.1391 69.256
2157776 15.4087 16.5703 20.209 17.0682 -0.71445 1.14752 69.2563
2157785 15.4087 16.5703 20.209 17.0682 -0.71445 1.14752 69.2563
2157796 15.3565 16.4863 20.2878 17.0779 -0.75139 1.19702 69.2085
2157805 15.3478 16.4302 20.2976 17.1169 -0.758147 1.22191 69.1926
2157825 15.2957 16.4489 20.2681 17.1461 -0.711666 1.22971 69.1588
2157837 15.2696 16.4582 20.3075 17.1266 -0.7201 1.2376 69.1619
2157845 15.2696 16.4582 20.3075 17.1266 -0.7201 1.2376 69.1619
2157855 15.3304 16.4115 20.2878 17.1851 -0.730181 1.24198 69.2149
2157865 15.3304 16.4115 20.2878 17.1851 -0.730181 1.24198 69.2149
2157879 15.2783 16.3835 20.337 17.1169 -0.764966 1.25705 69.1157
2157885 15.2783 16.3835 20.3862 17.1072 -0.785844 1.2649 69.1552
2157905 15.2174 16.3555 20.3075 17.0877 -0.754581 1.2663 68.968
2157916 15.3217 16.3275 20.3764 17.0682 -0.833087 1.25815 69.0938
2157925 15.3217 16.3275 20.3764 17.0682 -0.833087 1.25815 69.0938
2157935 15.2783 16.3275 20.337 17.1266 -0.782235 1.27218 69.0694
2157945 15.2783 16.3275 20.337 17.1266 -0.782235 1.27218 69.0694
2157964 15.2609 16.3275 20.3567 17.1169 -0.786678 1.27825 69.0619
2157971 15.3043 16.4302 20.3862 17.1559 -0.759447 1.25746 69.2767
2157986 15.3826 16.4209 20.3567 17.1461 -0.783582 1.23351 69.3063
2157997 15.3739 16.4022 20.3468 17.1364 -0.787683 1.23603 69.2593
2158010 15.3739 16.4022 20.3468 17.1364 -0.787683 1.23603 69.2593
2158017 15.4348 16.4489 20.2484 17.0292 -0.797072 1.16986 69.1613
2158029 15.4348 16.4489 20.2484 17.0292 -0.797072 1.16986 69.1613
2158038 15.4609 16.4209 20.2386 17.0292 -0.813212 1.16835 69.1495
2158049 15.4522 16.4769 20.1893 16.9252 -0.810879 1.12655 69.0436
2158059 15.4522 16.4769 20.1893 16.9252 -0.810879 1.12655 69.0436
2158071 15.4522 16.4956 20.2386 16.9345 -0.817636 1.13395 69.1208
2158079 15.4783 16.533 20.1697 16.9439 -0.785206 1.10719 69.1247
2158091 15.4783 16.533 20.1697 16.9439 -0.785206 1.10719 69.1247
2158098 15.4783 16.5049 20.2484 16.9064 -0.837196 1.12202 69.1381
2158112 15.4783 16.5049 20.2484 16.9064 -0.837196 1.12202 69.1381
2158119 15.4957 16.4582 20.1795 16.9064 -0.836647 1.11502 69.0398
2158129 15.4522 16.4863 20.1893 16.8597 -0.831889 1.11119 68.9874
2158138 15.4522 16.4863 20.1893 16.8597 -0.831889 1.11119 68.9874
2158150 15.4609 16.4676 20.1893 16.9345 -0.813921 1.12858 69.0523
2158160 15.5304 16.4863 20.2484 16.9345 -0.851911 1.11985 69.1996
2158180 15.5391 16.4769 20.2189 16.9439 -0.844631 1.11595 69.1788
2158190 15.5217 16.4769 20.2484 16.9532 -0.845371 1.12781 69.2003
2158211 15.5739 16.4676 20.3075 16.9064 -0.905114 1.12029 69.2554
2158220 15.5739 16.4676 20.3075 16.9064 -0.905114 1.12029 69.2554
2158230 15.513 16.5516 20.2484 16.8971 -0.835401 1.10117 69.2102
2158240 15.487 16.4676 20.2386 16.9064 -0.850764 1.12674 69.0995
2158250 15.487 16.4676 20.2386 16.9064 -0.850764 1.12674 69.0995
2158262 15.5565 16.5236 20.1795 16.9626 -0.812536 1.09689 69.2222
2158271 15.5043 16.4676 20.1992 16.9064 -0.843079 1.11477 69.0776
2158284 15.5043 16.4676 20.1992 16.9064 -0.843079 1.11477 69.0776
2158291 15.4609 16.4302 20.2189 16.8971 -0.85225 1.13572 69.007
2158304 15.4609 16.4302 20.2189 16.8971 -0.85225 1.13572 69.007
2158311 15.4435 16.4115 20.2287 16.8784 -0.863624 1.14238 68.9621
2158325 15.4174 16.4489 20.2681 16.9813 -0.815769 1.16828 69.1157
2158331 15.4174 16.4489 20.2681 16.9813 -0.815769 1.16828 69.1157
2158341 15.4435 16.4302 20.3272 16.9719 -0.856003 1.17648 69.1728
2158351 15.4957 16.4489 20.2878 16.9158 -0.874481 1.14082 69.1481
2158361 15.4957 16.4489 20.2878 16.9158 -0.874481 1.14082 69.1481
2158371 15.487 16.4956 20.2484 16.9626 -0.822759 1.13344 69.1935
2158391 15.5043 16.4956 20.2779 16.9345 -0.849621 1.12967 69.2124
2158401 15.4696 16.5143 20.3075 16.9719 -0.826852 1.14683 69.2633
2158411 15.4696 16.5143 20.3075 16.9719 -0.826852 1.14683 69.2633
2158422 15.513 16.5423 20.2189 16.8971 -0.828569 1.09741 69.1713
2158433 15.4174 16.4209 20.2287 16.8784 -0.850989 1.1463 68.9454
2158442 15.4174 16.4209 20.2287 16.8784 -0.850989 1.1463 68.9454
2158455 15.4348 16.4022 20.2189 16.9252 -0.843097 1.15402 68.981
2158472 15.4522 16.3835 20.3075 16.9345 -0.883651 1.17396 69.0777
2158482 15.4087 16.3368 20.3567 16.9626 -0.892639 1.21055 69.0648
2158497 15.4087 16.3368 20.3567 16.9626 -0.892639 1.21055 69.0648
2158503 15.4261 16.3462 20.3075 17.0097 -0.860357 1.20387 69.0895
2158514 15.4087 16.3742 20.3764 17.0974 -0.83511 1.23257 69.2567
2158533 15.4435 16.3275 20.4256 17.0097 -0.914603 1.22772 69.2063
2158553 15.4261 16.3368 20.4059 17.0487 -0.883618 1.23344 69.2175
2158564 15.4696 16.3368 20.4059 17.0779 -0.887832 1.22906 69.2902
2158574 15.4696 16.3368 20.4059 17.0779 -0.887832 1.22906 69.2902
2158585 15.4435 16.3929 20.3272 16.9906 -0.862977 1.18897 69.1541
2158594 15.4435 16.3368 20.3468 16.9345 -0.911868 1.19481 69.0616
2158610 15.4435 16.3368 20.3468 16.9345 -0.911868 1.19481 69.0616
2158615 15.4348 16.3181 20.3567 16.9719 -0.905238 1.21068 69.0815
2158629 15.4348 16.3181 20.3567 16.9719 -0.905238 1.21068 69.0815
2158635 15.4435 16.3648 20.3567 16.9813 -0.887264 1.19956 69.1463
2158645 15.5043 16.3181 20.3764 16.9626 -0.939836 1.19643 69.1614
2158655 15.5043 16.3181 20.3764 16.9626 -0.939836 1.19643 69.1614
2158665 15.4435 16.3648 20.3764 16.9439 -0.908147 1.19601 69.1286
2158675 15.4348 16.3275 20.3764 17.0195 -0.890788 1.22189 69.1581
2158695 15.4435 16.3648 20.3862 16.9906 -0.894058 1.20731 69.1852
2158705 15.4435 16.3648 20.3862 16.9906 -0.894058 1.20731 69.1852
2158715 15.3826 16.2901 20.4453 16.9813 -0.924933 1.24904 69.0993
2158725 15.4348 16.2714 20.4059 17.0292 -0.91842 1.24287 69.1413
2158746 15.4435 16.2808 20.4354 16.9813 -0.946204 1.23497 69.141
2158757 15.4174 16.2154 20.4256 17.0585 -0.929277 1.26987 69.1168
2158766 15.4174 16.2154 20.4256 17.0585 -0.929277 1.26987 69.1168
2158778 15.4174 16.2247 20.4453 17.0487 -0.936282 1.26964 69.1361
2158796 15.4261 16.1593 20.4551 17.0682 -0.959966 1.28881 69.1087
2158806 15.4 16.178 20.5142 17.0877 -0.9571 1.30613 69.1799
2158816 15.4 16.178 20.5142 17.0877 -0.9571 1.30613 69.1799
2158826 15.4087 16.2341 20.4847 16.9906 -0.96525 1.26578 69.1181
2158836 15.4174 16.2341 20.5142 17.0195 -0.967705 1.27532 69.1851
2158857 15.4174 16.3275 20.4453 16.9626 -0.930054 1.22837 69.1527
2158868 15.3652 16.2901 20.3862 16.9906 -0.894757 1.24323 69.0322
2158878 15.3652 16.2901 20.3862 16.9906 -0.894757 1.24323 69.0322
2158889 15.4087 16.2247 20.3961 17 -0.934395 1.25221 69.0295
2158910 15.4261 16.2434 20.3862 17.0585 -0.908081 1.2534 69.1142
2158918 15.4087 16.3088 20.4551 17.0877 -0.89061 1.26161 69.2603
2158938 15.4435 16.2901 20.3862 17.0097 -0.914893 1.22864 69.1295
2158951 15.3913 16.3555 20.3862 17.0487 -0.857641 1.2333 69.1817
2158971 15.4261 16.3555 20.3764 17.0974 -0.848144 1.23288 69.2554
2158978 15.4261 16.3555 20.3764 17.0974 -0.848144 1.23288 69.2554
2158993 15.4 16.2808 20.4059 17.0585 -0.891849 1.25466 69.1451
2159000 15.3826 16.3088 20.3862 17.1461 -0.835662 1.26567 69.2238
2159010 15.3826 16.3088 20.3862 17.1461 -0.835662 1.26567 69.2238
2159020 15.3565 16.3088 20.3567 17.0974 -0.834425 1.25626 69.1194
2159030 15.3391 16.2341 20.4453 17.0292 -0.91282 1.28201 69.0477
2159040 15.3391 16.2341 20.4453 17.0292 -0.91282 1.28201 69.0477
2159051 15.3391 16.2901 20.4059 17.1072 -0.848891 1.27646 69.1423
2159060 15.3391 16.2901 20.4059 17.1072 -0.848891 1.27646 69.1423
2159070 15.313 16.3088 20.4158 17.039 -0.861736 1.26661 69.0766
2159080 15.2783 16.2714 20.5536 17.1169 -0.882503 1.32637 69.2202
2159090 15.2783 16.2714 20.5536 17.1169 -0.882503 1.32637 69.2202
2159100 15.313 16.2714 20.5339 17.1656 -0.869565 1.3239 69.284
2159110 15.287 16.1967 20.5634 17.1851 -0.891404 1.35736 69.2322
2159130 15.2957 16.2621 20.4945 17.2143 -0.835082 1.33205 69.2666
2159142 15.2957 16.2621 20.4945 17.2143 -0.835082 1.33205 69.2666
2159150 15.287 16.2341 20.4256 17.1754 -0.832996 1.31939 69.122
2159161 15.3043 16.2621 20.524 17.1754 -0.862955 1.32813 69.2658
2159181 15.3043 16.3181 20.3961 17.0682 -0.837381 1.26836 69.0867
2159192 15.2609 16.3462 20.4748 17.1559 -0.806515 1.30499 69.2377
2159212 15.3043 16.3555 20.4748 17.1461 -0.82185 1.29064 69.2808
2159222 15.3043 16.3555 20.4748 17.1461 -0.82185 1.29064 69.2808
2159233 15.2174 16.2621 20.4256 17.1948 -0.790901 1.33306 69.0999
2159254 15.1652 16.2808 20.5142 17.2241 -0.785789 1.36424 69.1842
2159255 15.1652 16.2808 20.5142 17.2241 -0.785789 1.36424 69.1842
2159264 15.2348 16.2621 20.4256 17.2046 -0.793359 1.33088 69.1271
2159275 15.2435 16.3462 20.4158 17.1656 -0.776139 1.29933 69.171
2159282 15.2435 16.3462 20.4158 17.1656 -0.776139 1.29933 69.171
2159296 15.2783 16.3835 20.4256 17.1851 -0.770594 1.28816 69.2725
2159302 15.2783 16.3835 20.4256 17.1851 -0.770594 1.28816 69.2725
2159312 15.2174 16.3742 20.337 17.1754 -0.725307 1.28519 69.1039
2159322 15.2174 16.4115 20.3567 17.1461 -0.729191 1.2745 69.1318
2159332 15.2174 16.4115 20.3567 17.1461 -0.729191 1.2745 69.1318
2159342 15.2261 16.3742 20.2976 17.1948 -0.70727 1.2792 69.0927
2159352 15.1826 16.4396 20.3862 17.1461 -0.71692 1.28195 69.1545
2159363 15.1826 16.4396 20.3862 17.1461 -0.71692 1.28195 69.1545
2159372 15.2261 16.4209 20.3665 17.1266 -0.739473 1.26834 69.1401
2159393 15.2087 16.4115 20.3173 17.1656 -0.705051 1.2726 69.1032
2159404 15.2261 16.4302 20.3272 17.1461 -0.714922 1.26219 69.1296
2159423 15.2435 16.4582 20.3862 17.1851 -0.716859 1.27097 69.273
2159433 15.1913 16.4489 20.3272 17.1461 -0.695752 1.26598 69.1135
2159455 15.2696 16.4956 20.3665 17.1559 -0.71608 1.24638 69.2876
2159466 15.2783 16.5143 20.2189 17.1072 -0.67843 1.20087 69.1186
2159475 15.2783 16.5143 20.2189 17.1072 -0.67843 1.20087 69.1186
2159488 15.3043 16.5236 20.2583 17.0877 -0.705214 1.19654 69.1739
2159495 15.3043 16.5236 20.2583 17.0877 -0.705214 1.19654 69.1739
2159508 15.287 16.5143 20.2779 17.1266 -0.695013 1.2145 69.2058
2159515 15.3043 16.5703 20.209 17.0974 -0.666955 1.17773 69.1811
2159525 15.3043 16.5703 20.209 17.0974 -0.666955 1.17773 69.1811
2159535 15.3304 16.5143 20.2484 17.1461 -0.69268 1.20231 69.2393
2159545 15.2522 16.4956 20.1992 17.0974 -0.672878 1.20549 69.0444
2159555 15.2522 16.4956 20.1992 17.0974 -0.672878 1.20549 69.0444
2159567 15.3304 16.5049 20.3272 17.0585 -0.756343 1.20272 69.221
2159575 15.3304 16.5049 20.3272 17.0585 -0.756343 1.20272 69.221
2159585 15.2348 16.4489 20.2583 17.0195 -0.733979 1.21678 68.9614
2159596 15.2609 16.4396 20.2287 17.0195 -0.736251 1.20694 68.9486
2159606 15.2609 16.4396 20.2287 17.0195 -0.736251 1.20694 68.9486
2159617 15.2957 16.4396 20.2287 17.1169 -0.712177 1.21823 69.0808
2159626 15.3217 16.4396 20.209 17.1169 -0.714424 1.20818 69.0872
2159638 15.3217 16.4302 20.209 17.039 -0.746952 1.19479 69
2159646 15.3391 16.4769 20.2386 17.0877 -0.72788 1.1954 69.1423
2159660 15.3391 16.4769 20.2386 17.0877 -0.72788 1.1954 69.1423
2159668 15.313 16.4956 20.2878 17.1169 -0.718182 1.21278 69.2133
2159676 15.3391 16.4863 20.3075 17.0585 -0.759447 1.20113 69.1913
2159686 15.3391 16.4863 20.3075 17.0585 -0.759447 1.20113 69.1913
2159697 15.3739 16.4956 20.3272 17.0974 -0.76054 1.2025 69.2941
2159707 15.3304 16.4582 20.3173 17.0487 -0.773917 1.20975 69.1547
2159727 15.3217 16.4769 20.337 17.0877 -0.756298 1.2191 69.2233
2159748 15.313 16.4396 20.2976 17.0974 -0.749734 1.224 69.1477
2159758 15.3043 16.4022 20.3173 17.0779 -0.774772 1.23485 69.1018
2159778 15.4 16.4489 20.2583 17 -0.799248 1.17412 69.1071
2159789 15.3739 16.4022 20.2189 17.0682 -0.768284 1.19694 69.0632
2159799 15.3739 16.4022 20.2189 17.0682 -0.768284 1.19694 69.0632
2159811 15.4174 16.4396 20.2287 17.0292 -0.787574 1.17218 69.1149
2159833 15.3913 16.3368 20.2189 17 -0.824314 1.19456 68.947
2159839 15.4261 16.4022 20.2287 17.0585 -0.79366 1.18473 69.1155
2159850 15.4261 16.4022 20.2287 17.0585 -0.79366 1.18473 69.1155
2159859 15.4435 16.3929 20.1992 17.039 -0.800167 1.17304 69.0745
2159869 15.4261 16.4302 20.3075 17.039 -0.818022 1.19001 69.2028
2159895 15.4609 16.4676 20.2484 17.0292 -0.79923 1.1594 69.2061
2159900 15.4609 16.4676 20.2484 17.0292 -0.79923 1.1594 69.2061
2159910 15.4522 16.4396 20.2189 17.039 -0.792673 1.16402 69.1496
2159920 15.4783 16.4115 20.2583 17.0487 -0.822386 1.17429 69.1968
2159930 15.4783 16.4115 20.2583 17.0487 -0.822386 1.17429 69.1968
2159940 15.4435 16.3929 20.2976 17.039 -0.834604 1.19272 69.1729
2159950 15.3739 16.3648 20.2484 17.1072 -0.778036 1.21938 69.0943
2159970 15.4609 16.4302 20.3272 17.1169 -0.807995 1.20133 69.3352
2159980 15.4609 16.4302 20.3272 17.1169 -0.807995 1.20133 69.3352
2159990 15.4174 16.4115 20.337 17.0682 -0.821364 1.20813 69.2341
2160000 15.4522 16.4115 20.2878 17.0195 -0.834504 1.18045 69.171
2160010 15.4522 16.4115 20.2878 17.0195 -0.834504 1.18045 69.171
2160021 15.4609 16.4396 20.2779 16.9626 -0.844894 1.15852 69.1409
2160030 15.4261 16.4302 20.2878 17.039 -0.811139 1.18608 69.1831
2160043 15.4261 16.4302 20.2878 17.039 -0.811139 1.18608 69.1831
2160050 15.4348 16.3835 20.2878 17.0682 -0.820696 1.20081 69.1743
2160070 15.513 16.3648 20.2878 17.0487 -0.862278 1.18298 69.2144
2160086 15.513 16.4022 20.2484 17.0779 -0.823681 1.17222 69.2416
2160090 15.513 16.4022 20.2484 17.0779 -0.823681 1.17222 69.2416
2160103 15.5043 16.3835 20.2484 17.0097 -0.853086 1.16499 69.146
2160121 15.4696 16.4115 20.2583 16.9906 -0.841035 1.16472 69.13
2160131 15.4696 16.3462 20.2878 16.9906 -0.875814 1.18593 69.0941
2160141 15.4696 16.3462 20.2878 16.9906 -0.875814 1.18593 69.0941
2160152 15.4 16.3181 20.2386 17.0195 -0.833966 1.20475 68.9762
2160162 15.4522 16.3555 20.2287 17.0585 -0.820231 1.18956 69.0948
2160174 15.4522 16.3555 20.2287 17.0585 -0.820231 1.18956 69.0948
2160182 15.3913 16.3555 20.2779 17.0877 -0.805233 1.21949 69.1124
2160197 15.4174 16.3929 20.3075 17.0585 -0.821656 1.20468 69.1762
2160202 15.4174 16.3929 20.3075 17.0585 -0.821656 1.20468 69.1762
2160212 15.4 16.4302 20.2779 17.0487 -0.794937 1.19217 69.1569
2160222 15.4 16.4302 20.2779 17.0487 -0.794937 1.19217 69.1569
2160232 15.4 16.3648 20.3173 17.0585 -0.829479 1.21729 69.1406
2160243 15.4609 16.4022 20.3272 17.0682 -0.836593 1.19818 69.2584
2160252 15.4609 16.4022 20.3272 17.0682 -0.836593 1.19818 69.2584
2160266 15.4435 16.4676 20.2976 17.1169 -0.777712 1.19079 69.3256
2160272 15.3478 16.3835 20.2583 17.0974 -0.769007 1.22114 69.087
2160282 15.3478 16.3835 20.2583 17.0974 -0.769007 1.22114 69.087
2160292 15.3478 16.3648 20.2878 17.1364 -0.771797 1.23918 69.1368
2160302 15.3478 16.3648 20.2878 17.1364 -0.771797 1.23918 69.1368
2160312 15.3391 16.4302 20.2976 17.0779 -0.769617 1.21619 69.1449
2160322 15.3565 16.3835 20.3764 17.1656 -0.787997 1.25616 69.282
2160332 15.3565 16.3835 20.3764 17.1656 -0.787997 1.25616 69.282
2160342 15.2957 16.4209 20.3764 17.1364 -0.76368 1.25588 69.2293
2160354 15.2522 16.3742 20.4059 17.1948 -0.754422 1.29452 69.2271
2160362 15.2522 16.3742 20.4059 17.1948 -0.754422 1.29452 69.2271
2160375 15.2609 16.3275 20.3665 17.2241 -0.750175 1.30146 69.1789
2160382 15.2609 16.3275 20.3665 17.2241 -0.750175 1.30146 69.1789
2160392 15.2174 16.2901 20.4256 17.2923 -0.744167 1.34568 69.2254
2160404 15.1304 16.2434 20.4551 17.302 -0.737783 1.38504 69.131
2160413 15.1304 16.2434 20.4551 17.302 -0.737783 1.38504 69.131
2160424 15.1652 16.2808 20.4551 17.3215 -0.728841 1.3718 69.2226
2160434 15.0957 16.2994 20.4748 17.3312 -0.700776 1.38963 69.2011
2160444 15.0957 16.2994 20.4748 17.3312 -0.700776 1.38963 69.2011
2160454 15.1217 16.2714 20.5437 17.3117 -0.751741 1.3998 69.2486
2160473 15.087 16.1967 20.5339 17.3507 -0.749411 1.43149 69.1683
2160484 15.113 16.2341 20.5142 17.3507 -0.737751 1.41257 69.212
2160510 15.1304 16.2154 20.524 17.2923 -0.776008 1.40333 69.1621
2160530 15.0957 16.178 20.5043 17.3507 -0.749056 1.42807 69.1287
2160534 15.0957 16.178 20.5043 17.3507 -0.749056 1.42807 69.1287
2160535 15.1043 16.1874 20.4945 17.3507 -0.745176 1.42185 69.1369
2160547 15.1043 16.1874 20.4945 17.3507 -0.745176 1.42185 69.1369
2160555 15.1304 16.2621 20.5142 17.3215 -0.744294 1.39607 69.2282
2160569 15.1043 16.1967 20.5929 17.3312 -0.783439 1.43512 69.2252
2160576 15.1043 16.1967 20.5929 17.3312 -0.783439 1.43512 69.2252
2160586 15.1391 16.15 20.5634 17.4384 -0.762779 1.45315 69.2909
2160596 15.1043 16.178 20.5339 17.4384 -0.729844 1.44898 69.2546
2160606 15.1043 16.178 20.5339 17.4384 -0.729844 1.44898 69.2546
2160617 15.1391 16.2341 20.5929 17.4189 -0.749111 1.43518 69.385
2160627 15.1391 16.2341 20.5929 17.4189 -0.749111 1.43518 69.385
2160636 15.1043 16.178 20.5831 17.3799 -0.768816 1.44717 69.2454
2160647 15.0783 16.1407 20.6028 17.3605 -0.787748 1.4623 69.1822
2160656 15.0783 16.1407 20.6028 17.3605 -0.787748 1.4623 69.1822
2160666 15.0087 16.1593 20.5536 17.3605 -0.739142 1.46478 69.0821
2160676 15.087 16.178 20.5142 17.3117 -0.763984 1.42442 69.0909
2160686 15.087 16.178 20.5142 17.3117 -0.763984 1.42442 69.0909
2160697 15.0957 16.1313 20.5339 17.3702 -0.769556 1.44879 69.131
2160719 15.0783 16.1126 20.4945 17.3702 -0.756608 1.44966 69.0556
2160727 15.1913 16.1687 20.5142 17.3117 -0.804015 1.40186 69.1859
2160741 15.1913 16.1687 20.5142 17.3117 -0.804015 1.40186 69.1859
2160747 15.1826 16.1967 20.5536 17.2728 -0.818822 1.39736 69.2057
2160757 15.1913 16.1874 20.5043 17.3215 -0.789976 1.39742 69.2045
2160767 15.1913 16.1874 20.5043 17.3215 -0.789976 1.39742 69.2045
2160777 15.1913 16.1874 20.4847 17.2923 -0.79398 1.3878 69.1556
2160787 15.1913 16.1874 20.4847 17.2923 -0.79398 1.3878 69.1556
2160797 15.1304 16.1687 20.4551 17.3312 -0.754732 1.40852 69.0855
2160807 15.1391 16.1874 20.4354 17.3507 -0.736654 1.40199 69.1126
2160827 15.113 16.2154 20.465 17.2825 -0.752832 1.39391 69.0759
2160837 15.2 16.1874 20.5732 17.2923 -0.827986 1.40315 69.2529
2160849 15.2 16.1874 20.5732 17.2923 -0.827986 1.40315 69.2529
2160857 15.2087 16.2154 20.4945 17.302 -0.789432 1.3809 69.2206
2160871 15.2087 16.2154 20.4945 17.302 -0.789432 1.3809 69.2206
2160877 15.2 16.1407 20.5043 17.3312 -0.806797 1.40834 69.1762
2160887 15.1652 16.1967 20.4945 17.341 -0.766662 1.40328 69.1974
2160897 15.1652 16.1967 20.4945 17.341 -0.766662 1.40328 69.1974
2160908 15.1739 16.206 20.5043 17.2143 -0.816905 1.37601 69.0986
2160917 15.1565 16.178 20.5142 17.3605 -0.77021 1.41746 69.2092
2160928 15.1565 16.178 20.5142 17.3605 -0.77021 1.41746 69.2092
2160938 15.1739 16.2247 20.5339 17.3507 -0.769433 1.40422 69.2832
2160949 15.1739 16.2247 20.5339 17.3507 -0.769433 1.40422 69.2832
2160959 15.0957 16.206 20.6126 17.3799 -0.765684 1.44836 69.2943
2160969 15.113 16.122 20.5929 17.4287 -0.778027 1.46988 69.2566
2160979 15.113 16.122 20.5929 17.4287 -0.778027 1.46988 69.2566
2160988 15.0783 16.1313 20.5929 17.4481 -0.755133 1.47973 69.2506
2161000 15.0174 16.1313 20.5929 17.4384 -0.737427 1.49233 69.18
2161023 15.0783 16.1126 20.6618 17.4579 -0.782557 1.49952 69.3106
2161030 15.0783 16.1126 20.6618 17.4579 -0.782557 1.49952 69.3106
2161040 15.0435 16.1033 20.5732 17.3605 -0.779155 1.4737 69.0805
2161050 15.1217 16.1407 20.5536 17.3507 -0.78937 1.44041 69.1667
2161070 15.1217 16.178 20.5732 17.3312 -0.789595 1.43157 69.2042
2161080 15.2261 16.1687 20.4847 17.3215 -0.802217 1.38973 69.2009
2161092 15.2261 16.1687 20.4847 17.3215 -0.802217 1.38973 69.2009
2161101 15.2435 16.1874 20.4453 17.302 -0.794829 1.3696 69.1781
2161111 15.1739 16.1033 20.3961 17.3312 -0.773661 1.4021 69.0045
2161132 15.2261 16.1593 20.4847 17.3605 -0.791176 1.39961 69.2305
2161141 15.2261 16.1593 20.4847 17.3605 -0.791176 1.39961 69.2305
2161153 15.2348 16.1033 20.4551 17.3897 -0.793882 1.41077 69.1829
2161170 15.2435 16.1874 20.5043 17.4579 -0.757489 1.41182 69.3931
2161175 15.2435 16.1874 20.5043 17.4579 -0.757489 1.41182 69.3931
2161181 15.1565 16.1593 20.5339 17.4287 -0.758679 1.43912 69.2784
2161191 15.1565 16.1593 20.4551 17.4287 -0.731091 1.42369 69.1996
2161201 15.1217 16.1687 20.4551 17.3994 -0.726286 1.42399 69.145
2161211 15.1652 16.1313 20.465 17.302 -0.79523 1.40533 69.0635
2161221 15.1652 16.1313 20.465 17.302 -0.79523 1.40533 69.0635
2161233 15.2 16.1874 20.4748 17.4189 -0.746429 1.40869 69.2811
2161242 15.1304 16.2341 20.4748 17.4676 -0.68664 1.42365 69.3069
2161261 15.0957 16.15 20.3665 17.3994 -0.692911 1.41722 69.0116
2161271 15.0957 16.15 20.3665 17.3994 -0.692911 1.41722 69.0116
2161281 15.0783 16.0846 20.4256 17.3897 -0.735579 1.44663 68.9782
2161292 15.0783 16.0753 20.4453 17.4189 -0.735086 1.45846 69.0177
2161302 15.0783 16.0753 20.4453 17.4189 -0.735086 1.45846 69.0177
2161312 15.0957 16.178 20.4551 17.4676 -0.688304 1.44135 69.1964
2161325 15.1478 16.1593 20.5339 17.4871 -0.733921 1.45262 69.3281
2161332 15.1478 16.1593 20.5339 17.4871 -0.733921 1.45262 69.3281
2161346 15.1217 16.178 20.4847 17.4774 -0.704214 1.44284 69.2618
2161352 15.1217 16.178 20.4847 17.4774 -0.704214 1.44284 69.2618
2161362 15.1304 16.1687 20.4256 17.4481 -0.700857 1.42569 69.1729
2161372 15.1478 16.2808 20.4256 17.4384 -0.668998 1.39309 69.2926
2161382 15.1478 16.2808 20.4256 17.4384 -0.668998 1.39309 69.2926
2161392 15.1739 16.2247 20.3272 17.3702 -0.689672 1.36738 69.096
2161402 15.1826 16.2527 20.3272 17.4092 -0.667848 1.36638 69.1717
2161412 15.1826 16.2527 20.3272 17.4092 -0.667848 1.36638 69.1717
2161422 15.2435 16.2901 20.4059 17.3799 -0.713845 1.35292 69.3194
2161433 15.2435 16.2901 20.4059 17.3799 -0.713845 1.35292 69.3194
2161445 15.2 16.2527 20.3961 17.3799 -0.709015 1.37008 69.2288
2161454 15.2087 16.2621 20.4847 17.341 -0.754108 1.37558 69.2964
2161462 15.2087 16.2621 20.4847 17.341 -0.754108 1.37558 69.2964
2161475 15.2174 16.2341 20.4256 17.3215 -0.754143 1.36469 69.1985
2161482 15.2174 16.2527 20.4059 17.3799 -0.718568 1.36791 69.256
2161496 15.2174 16.2527 20.4059 17.3799 -0.718568 1.36791 69.256
2161502 15.2522 16.2527 20.4256 17.3605 -0.744888 1.35973 69.291
2161512 15.2522 16.2527 20.4256 17.3605 -0.744888 1.35973 69.291
2161523 15.2087 16.1687 20.4059 17.3312 -0.764921 1.38026 69.1145
2161532 15.2696 16.1967 20.4847 17.2923 -0.817861 1.36706 69.2432
2161553 15.1913 16.2154 20.4551 17.3799 -0.740555 1.3926 69.2418
2161564 15.2 16.1687 20.4453 17.3799 -0.757532 1.39966 69.1939
2161573 15.2 16.1687 20.4453 17.3799 -0.757532 1.39966 69.1939
2161584 15.2609 16.15 20.4945 17.3702 -0.806622 1.39743 69.2756
2161604 15.2087 16.1407 20.4158 17.341 -0.775188 1.39077 69.1061
2161613 15.1913 16.2247 20.4453 17.3605 -0.740883 1.38462 69.2218
2161624 15.1913 16.2247 20.4453 17.3605 -0.740883 1.38462 69.2218
2161634 15.1913 16.1967 20.4059 17.4189 -0.715762 1.395 69.2128
2161645 15.1913 16.178 20.465 17.3897 -0.754279 1.40529 69.224
2161663 15.1739 16.122 20.465 17.4092 -0.761795 1.42654 69.17
2161675 15.1739 16.122 20.465 17.4092 -0.761795 1.42654 69.17
2161685 15.1565 16.1313 20.5043 17.3994 -0.769645 1.43426 69.1916
2161701 15.1913 16.1687 20.4945 17.4579 -0.742736 1.42667 69.3124
2161705 15.1913 16.1687 20.4945 17.4579 -0.742736 1.42667 69.3124
2161715 15.1913 16.206 20.4453 17.4481 -0.715247 1.40626 69.2908
2161725 15.1652 16.1407 20.4158 17.4384 -0.723651 1.42024 69.16
2161735 15.1652 16.1407 20.4158 17.4384 -0.723651 1.42024 69.16
2161745 15.2174 16.206 20.5142 17.4384 -0.752109 1.41169 69.376
2161754 15.2174 16.206 20.5142 17.4384 -0.752109 1.41169 69.376
2161766 15.2 16.178 20.5437 17.5066 -0.74145 1.44155 69.4283
2161775 15.1565 16.15 20.6126 17.4579 -0.778811 1.46244 69.377
2161788 15.1565 16.15 20.6126 17.4579 -0.778811 1.46244 69.377
2161795 15.1304 16.1407 20.5536 17.4384 -0.759761 1.45551 69.263
2161810 15.113 16.0753 20.5536 17.4579 -0.770757 1.47901 69.1998
2161815 15.113 16.0753 20.5536 17.4579 -0.770757 1.47901 69.1998
2161826 15.0522 16.0473 20.5536 17.4774 -0.752605 1.50401 69.1303
2161846 15.0435 16.0379 20.5732 17.4481 -0.770836 1.50645 69.1028
2161856 14.9913 16.0286 20.5732 17.5163 -0.730596 1.53446 69.1095
2161867 14.9913 16.0286 20.5732 17.5163 -0.730596 1.53446 69.1095
2161877 15 16.0473 20.6126 17.5553 -0.726022 1.54316 69.2152
2161887 14.9739 16.0753 20.6422 17.5456 -0.72044 1.54654 69.2369
2161899 14.9739 16.0753 20.6422 17.5456 -0.72044 1.54654 69.2369
2161907 15.0348 16.1593 20.6225 17.565 -0.696462 1.51194 69.3816
2161927 15.087 16.0286 20.6422 17.565 -0.770129 1.53449 69.3227
2161941 15.0174 16.0846 20.5536 17.4968 -0.71924 1.50719 69.1524
2161947 15.0174 16.0846 20.5536 17.4968 -0.71924 1.50719 69.1524
2161957 15.0522 16.0846 20.5339 17.5066 -0.720917 1.49695 69.1773
2161967 15.0261 16.1687 20.5831 17.4871 -0.705044 1.48894 69.265
2161987 15.0696 16.2154 20.4945 17.4968 -0.668277 1.4521 69.2763
2162008 15.0522 16.1687 20.4847 17.4579 -0.690489 1.45778 69.1634
2162018 15.087 16.1313 20.5142 17.5261 -0.701627 1.4775 69.2585
2162039 15.1478 16.2341 20.4551 17.4092 -0.707518 1.40421 69.2462
2162049 15.1391 16.2341 20.4059 17.4384 -0.676337 1.40234 69.2175
2162059 15.1391 16.2341 20.4059 17.4384 -0.676337 1.40234 69.2175
2162072 15.1652 16.1874 20.4059 17.4287 -0.706457 1.40531 69.1871
2162079 15.1652 16.1874 20.4059 17.4287 -0.706457 1.40531 69.1871
2162089 15.0174 16.15 20.5043 17.4287 -0.702994 1.46865 69.1004
2162100 15.0696 16.1126 20.5339 17.5553 -0.698522 1.49563 69.2714
2162110 15.0696 16.1126 20.5339 17.5553 -0.698522 1.49563 69.2714
2162120 15.0261 16.0659 20.4453 17.5261 -0.680302 1.49414 69.0634
2162130 15.0087 16.094 20.5536 17.5748 -0.683768 1.52223 69.231
2162150 15.0087 16.094 20.6028 17.5748 -0.701042 1.53181 69.2802
2162160 14.9304 16.0566 20.5929 17.5553 -0.691211 1.55374 69.1353
2162171 14.9304 16.0566 20.5929 17.5553 -0.691211 1.55374 69.1353
2162182 15.0174 16.1126 20.5831 17.6527 -0.661395 1.53659 69.3658
2162191 15.0174 16.1126 20.5831 17.6527 -0.661395 1.53659 69.3658
2162203 14.9565 16.1033 20.5339 17.6138 -0.64059 1.53621 69.2074
2162211 15 16.1313 20.6225 17.5748 -0.691043 1.52879 69.3286
2162225 15 16.1313 20.6225 17.5748 -0.691043 1.52879 69.3286
2162231 14.9739 16.15 20.4748 17.5358 -0.637493 1.4942 69.1345
2162241 14.9217 16.1126 20.5043 17.565 -0.632526 1.52705 69.1038
2162251 14.9217 16.1126 20.5043 17.565 -0.632526 1.52705 69.1038
2162261 14.9391 16.0286 20.5339 17.6138 -0.662184 1.55825 69.1153
2162271 14.9391 16.0286 20.5339 17.6138 -0.662184 1.55825 69.1153
2162281 14.9304 16.0566 20.5437 17.604 -0.6558 1.55364 69.1348
2162292 14.9826 16.0566 20.6422 17.6819 -0.679834 1.57538 69.3633
2162301 14.9826 16.0566 20.6422 17.6819 -0.679834 1.57538 69.3633
2162311 14.9565 16.0566 20.5732 17.6332 -0.664531 1.55881 69.2196
2162321 14.9304 16.1126 20.6323 17.643 -0.651753 1.565 69.3184
2162333 14.9304 16.1126 20.6323 17.643 -0.651753 1.565 69.3184
2162341 14.913 16.094 20.6815 17.6819 -0.65542 1.59069 69.3705
2162351 14.913 16.094 20.6815 17.6819 -0.65542 1.59069 69.3705
2162361 14.8696 16.0473 20.7111 17.6527 -0.678633 1.61235 69.2806
2162371 14.8696 16.0566 20.7209 17.6917 -0.664198 1.61954 69.3388
2162381 14.8696 16.0566 20.7209 17.6917 -0.664198 1.61954 69.3388
2162392 14.887 16.0192 20.6914 17.7112 -0.666554 1.62238 69.3087
2162403 14.8435 15.9352 20.7504 17.643 -0.728534 1.65127 69.1721
2162412 14.8435 15.9352 20.7504 17.643 -0.728534 1.65127 69.1721
2162422 14.8609 15.9819 20.7603 17.7014 -0.699036 1.64902 69.3045
2162432 14.8609 15.9819 20.7603 17.7014 -0.699036 1.64902 69.3045
2162450 14.8348 15.9445 20.8095 17.7112 -0.71739 1.67562 69.3
2162453 14.8087 15.9165 20.7209 17.7014 -0.691161 1.66973 69.1475
2162463 14.8087 15.9165 20.7209 17.7014 -0.691161 1.66973 69.1475
2162474 14.8261 15.8978 20.7701 17.7014 -0.721496 1.67952 69.1954
2162485 14.8087 15.8885 20.8292 17.643 -0.761333 1.68608 69.1693
2162507 14.7826 15.9538 20.78 17.6722 -0.699726 1.67276 69.1886
2162513 14.7826 15.9538 20.78 17.6722 -0.699726 1.67276 69.1886
2162524 14.7826 15.9632 20.7701 17.6332 -0.707278 1.6611 69.1492
2162534 14.8348 15.9538 20.8981 17.643 -0.77025 1.6773 69.3297
2162555 14.887 16.0286 20.78 17.6722 -0.708593 1.62972 69.3677
2162564 14.8783 15.9725 20.7504 17.643 -0.726841 1.63392 69.2442
2162575 14.8783 15.9725 20.7504 17.643 -0.726841 1.63392 69.2442
2162585 14.913 15.9912 20.7209 17.5845 -0.743467 1.60408 69.2097
2162597 14.913 15.9912 20.7209 17.5845 -0.743467 1.60408 69.2097
2162605 14.9565 16.0192 20.6717 17.5066 -0.76004 1.56228 69.154
2162618 14.9826 15.9725 20.7504 17.5358 -0.803241 1.58816 69.2414
2162626 14.9826 15.9725 20.7504 17.5358 -0.803241 1.58816 69.2414
2162639 14.9652 16.0379 20.7504 17.5358 -0.772817 1.57667 69.2894
2162646 14.9739 16.0099 20.6914 17.4774 -0.787404 1.5585 69.1525
2162660 14.9739 16.0099 20.6914 17.4774 -0.787404 1.5585 69.1525
2162666 14.9652 16.0192 20.652 17.4871 -0.763443 1.55258 69.1236
2162676 14.9652 16.0192 20.652 17.4871 -0.763443 1.55258 69.1236
2162686 15.0609 16.0099 20.6422 17.4579 -0.807874 1.52433 69.1708
2162696 15.0696 16.0379 20.6028 17.4968 -0.772171 1.51548 69.2071
2162707 15.0696 16.0379 20.6028 17.4968 -0.772171 1.51548 69.2071
2162716 15.113 15.9725 20.652 17.4481 -0.847131 1.52081 69.1857
2162726 15.0696 16.0473 20.6225 17.5358 -0.761083 1.52467 69.2751
2162746 15.1304 16.0005 20.6815 17.4579 -0.849403 1.51762 69.2704
2162756 15.1304 16.0005 20.6815 17.4579 -0.849403 1.51762 69.2704
2162770 15.0435 16.0192 20.6717 17.4579 -0.808632 1.532 69.1923
2162776 15.0783 16.0379 20.7898 17.5261 -0.829619 1.55541 69.4321
2162786 15.0783 16.0379 20.7898 17.5261 -0.829619 1.55541 69.4321
2162796 15.0435 16.0005 20.6815 17.4676 -0.815411 1.54028 69.1932
2162807 15.0522 15.9632 20.6914 17.4189 -0.854041 1.53957 69.1256
2162817 15.0522 15.9632 20.6914 17.4189 -0.854041 1.53957 69.1256
2162827 15.0348 16.0473 20.7111 17.4287 -0.819805 1.52936 69.2217
2162837 15.0348 16.0473 20.7111 17.4287 -0.819805 1.52936 69.2217
2162847 15.0783 15.9632 20.7307 17.4481 -0.86596 1.54668 69.2203
2162857 15.0435 16.0286 20.7504 17.5553 -0.796381 1.56398 69.3778
2162867 15.0435 16.0286 20.7504 17.5553 -0.796381 1.56398 69.3778
2162879 15.0957 16.0473 20.7406 17.4774 -0.833189 1.53005 69.3609
2162887 15 15.9912 20.7504 17.4968 -0.816877 1.57197 69.2385
2162900 15 15.9912 20.7504 17.4968 -0.816877 1.57197 69.2385
2162909 15.0261 15.9912 20.7012 17.5748 -0.779769 1.5713 69.2933
2162927 14.9826 15.9445 20.8095 17.5748 -0.819783 1.61384 69.3114
