5966955 6.22499 7.56388 16.7897 15.2777 -0.0944182 5.97907 45.8563
5966965 6.29406 7.4609 16.7582 15.1473 -0.243117 5.96267 45.6605
5966975 6.25089 7.56388 16.7056 15.2497 -0.0780612 5.94512 45.7701
5966992 6.25089 7.56388 16.7056 15.2497 -0.0780612 5.94512 45.7701
5967001 6.27679 7.61068 16.6425 15.2125 -0.0525594 5.89197 45.7425
5967019 6.31133 7.53579 16.6636 15.3335 -0.0575811 5.93858 45.8442
5967025 6.31133 7.5826 16.6636 15.3614 -0.0167996 5.92275 45.9189
5967036 6.31133 7.5826 16.6636 15.3614 -0.0167996 5.92275 45.9189
5967046 6.26816 7.64813 16.7267 15.3521 0.00296235 5.92319 45.9951
5967056 6.35449 7.67621 16.6215 15.4173 0.0637621 5.86335 46.0695
5967066 6.35449 7.67621 16.6215 15.4173 0.0637621 5.86335 46.0695
5967076 6.34586 7.71366 16.4848 15.3428 0.123003 5.80821 45.8872
5967086 6.34586 7.73238 16.2956 15.287 0.206894 5.75034 45.6608
5967097 6.34586 7.73238 16.2956 15.287 0.206894 5.75034 45.6608
5967106 6.42357 7.67621 16.1589 15.2125 0.168347 5.69756 45.4712
5967117 6.42357 7.67621 16.1589 15.2125 0.168347 5.69756 45.4712
5967127 6.31996 7.62941 16.1484 15.2311 0.216269 5.7679 45.3289
5967136 6.27679 7.64813 16.1589 15.2963 0.280234 5.79449 45.3801
5967146 6.27679 7.64813 16.1589 15.2963 0.280234 5.79449 45.3801
5967156 6.31996 7.66685 16.2746 15.3335 0.222516 5.79712 45.5949
5967166 6.29406 7.63877 16.3797 15.3708 0.183737 5.85038 45.6833
5967188 6.33723 7.76982 16.4428 15.5663 0.301448 5.82291 46.1161
5967196 6.33723 7.76982 16.4428 15.5663 0.301448 5.82291 46.1161
5967206 6.3804 7.7511 16.4218 15.557 0.274283 5.80584 46.1102
5967216 6.37176 7.82599 16.4113 15.3987 0.239992 5.74214 46.0077
5967238 6.44083 7.81663 16.3377 15.3149 0.19224 5.68343 45.91
5967247 6.4063 7.79791 16.2115 15.2218 0.220159 5.66281 45.6375
5967257 6.4063 7.79791 16.2115 15.2218 0.220159 5.66281 45.6375
5967267 6.4063 7.85407 16.1169 15.1566 0.26767 5.60455 45.5339
5967287 6.36313 7.76982 16.1379 15.138 0.223961 5.66287 45.4089
5967299 6.42357 7.90088 16.243 15.1939 0.233898 5.60925 45.7614
5967309 6.42357 7.90088 16.243 15.1939 0.233898 5.60925 45.7614
5967318 6.47537 7.8728 16.1694 15.2683 0.271004 5.59876 45.786
5967327 6.51854 7.83535 16.2325 15.2963 0.207356 5.61483 45.8827
5967339 6.51854 7.83535 16.2325 15.2963 0.207356 5.61483 45.8827
5967347 6.50127 7.8728 16.3377 15.3149 0.189433 5.63103 46.0266
5967358 6.50127 7.8728 16.3377 15.3149 0.189433 5.63103 46.0266
5967368 6.5099 7.80727 16.2536 15.2404 0.155106 5.62422 45.8111
5967378 6.49264 7.84471 16.1064 15.1101 0.195256 5.55797 45.5538
5967387 6.49264 7.84471 16.1064 15.1101 0.195256 5.55797 45.5538
5967397 6.46673 7.77918 16.0643 15.1566 0.222558 5.60024 45.4669
5967409 6.484 7.76046 16.1064 15.138 0.169325 5.60574 45.4888
5967429 6.54444 7.8728 16.0538 15.0915 0.200829 5.50717 45.5625
5967439 6.54444 7.8728 16.0538 15.0915 0.200829 5.50717 45.5625
5967449 6.52717 7.82599 16.0748 15.1659 0.213805 5.55587 45.5939
5967459 6.57034 7.93833 16.1379 15.1659 0.216106 5.4991 45.8125
5967469 6.57034 7.93833 16.1379 15.1659 0.216106 5.4991 45.8125
5967479 6.58761 7.92896 16.1274 15.2404 0.247565 5.50882 45.8844
5967489 6.63078 7.9196 16.1274 15.2032 0.198671 5.486 45.881
5967499 6.63078 7.9196 16.1274 15.2032 0.198671 5.486 45.881
5967510 6.61351 7.96641 16.0853 15.138 0.221363 5.45052 45.8033
5967520 6.61351 7.96641 16.0853 15.138 0.221363 5.45052 45.8033
5967530 6.56171 7.91024 16.0538 15.1939 0.267172 5.50389 45.7196
5967540 6.55307 7.89152 16.0748 15.1008 0.199685 5.50119 45.6202
5967550 6.55307 7.89152 16.0748 15.1008 0.199685 5.50119 45.6202
5967560 6.57034 7.82599 16.0959 15.1194 0.153023 5.53113 45.6116
5967570 6.5099 7.83535 16.0748 15.1566 0.223383 5.55751 45.5767
5967580 6.5099 7.83535 16.0748 15.1566 0.223383 5.55751 45.5767
5967590 6.57034 7.88216 16.1589 15.259 0.224501 5.54784 45.8705
5967600 6.57034 7.88216 16.1589 15.259 0.224501 5.54784 45.8705
5967611 6.60488 7.89152 16.0117 15.1659 0.241295 5.47837 45.6741
5967620 6.65668 7.83535 16.0538 15.2032 0.179267 5.49682 45.749
5967641 6.66531 7.90088 16.1064 15.2218 0.1912 5.47844 45.8944
5967651 6.64804 7.92896 16.1169 15.1939 0.194991 5.47 45.8878
5967668 6.64804 7.92896 16.1169 15.1939 0.194991 5.47 45.8878
5967671 6.64804 7.78855 16.18 15.138 0.0538439 5.53433 45.7546
5967681 6.64804 7.78855 16.18 15.138 0.0538439 5.53433 45.7546
5967691 6.55307 7.74174 16.2115 15.2032 0.0986338 5.61804 45.7095
5967701 6.57897 7.71366 16.2325 15.1659 0.0372559 5.6157 45.6911
5967714 6.57897 7.71366 16.2325 15.1659 0.0372559 5.6157 45.6911
5967721 6.52717 7.65749 16.2536 15.138 0.00810027 5.66312 45.5762
5967733 6.56171 7.65749 16.2746 15.138 -0.0223503 5.65178 45.6318
5967741 6.56171 7.63877 16.2746 15.1473 -0.027512 5.66216 45.6224
5967754 6.52717 7.61068 16.2956 15.1846 -0.0150934 5.70245 45.618
5967773 6.58761 7.63877 16.3692 15.2311 -0.0474274 5.68684 45.8267
5967782 6.60488 7.7043 16.4848 15.3056 -0.0432983 5.6881 46.0996
5967794 6.60488 7.7043 16.4848 15.3056 -0.0432983 5.6881 46.0996
5967802 6.60488 7.72302 16.4218 15.2218 -0.0445023 5.64992 45.9715
5967812 6.67395 7.63877 16.3692 15.1473 -0.14023 5.63084 45.8292
5967834 6.63941 7.64813 16.2851 15.1659 -0.0603661 5.62878 45.7386
5967842 6.63941 7.64813 16.2851 15.1659 -0.0603661 5.62878 45.7386
5967855 6.59624 7.68557 16.1905 14.9984 -0.0565127 5.57734 45.4706
5967864 6.60488 7.63877 16.1484 15.0263 -0.0485718 5.5917 45.4184
5967874 6.60488 7.63877 16.1484 15.0263 -0.0485718 5.5917 45.4184
5967884 6.56171 7.64813 16.2536 15.0728 -0.0517711 5.63833 45.5362
5967894 6.63941 7.60132 16.201 15.1194 -0.0656754 5.6231 45.5611
5967904 6.63941 7.60132 16.201 15.1194 -0.0656754 5.6231 45.5611
5967914 6.61351 7.66685 16.201 15.1194 -0.0154942 5.60518 45.6007
5967934 6.63078 7.7511 16.243 15.1194 -0.00182241 5.56809 45.7443
5967944 6.64804 7.7511 16.2641 15.1752 0.0077635 5.57616 45.8385
5967954 6.64804 7.7511 16.2641 15.1752 0.0077635 5.57616 45.8385
5967964 6.69121 7.78855 16.3587 15.1939 -0.0366539 5.56331 46.0323
5967974 6.64804 7.76982 16.2746 15.0449 -0.0589773 5.54305 45.7374
5967985 6.64804 7.76982 16.2746 15.0449 -0.0589773 5.54305 45.7374
5967996 6.68258 7.76982 16.3797 15.0728 -0.119615 5.55501 45.905
5968005 6.68258 7.76982 16.3797 15.0728 -0.119615 5.55501 45.905
5968015 6.67395 7.66685 16.3377 15.0077 -0.184461 5.58305 45.6861
5968027 6.59624 7.62941 16.4113 15.1101 -0.146465 5.67109 45.747
5968035 6.59624 7.62941 16.4113 15.1101 -0.146465 5.67109 45.747
5968045 6.57034 7.62004 16.4113 15.1008 -0.142653 5.68514 45.7024
5968055 6.484 7.53579 16.4848 15.1846 -0.135973 5.79446 45.6892
5968076 6.55307 7.57324 16.5164 15.2218 -0.149585 5.75997 45.8645
5968086 6.55307 7.50771 16.5795 15.2125 -0.224821 5.80047 45.8527
5968097 6.55307 7.50771 16.5795 15.2125 -0.224821 5.80047 45.8527
5968107 6.5358 7.50771 16.5479 15.2125 -0.198419 5.80198 45.8039
5968127 6.52717 7.51707 16.4848 15.1566 -0.185135 5.7777 45.6857
5968139 6.55307 7.52643 16.5164 15.1939 -0.190632 5.77556 45.7898
5968149 6.55307 7.52643 16.5164 15.1939 -0.190632 5.77556 45.7898
5968157 6.54444 7.63877 16.5479 15.0728 -0.207822 5.7105 45.804
5968167 6.55307 7.53579 16.6005 15.0542 -0.307998 5.7601 45.7436
5968190 6.63941 7.5826 16.5374 15.0915 -0.274134 5.69461 45.8509
5968199 6.63941 7.5826 16.5374 15.0915 -0.274134 5.69461 45.8509
5968211 6.56171 7.56388 16.4743 15.0635 -0.223723 5.71976 45.6634
5968219 6.57034 7.59196 16.569 15.0356 -0.279535 5.71666 45.7669
5968231 6.57034 7.59196 16.569 15.0356 -0.279535 5.71666 45.7669
5968243 6.63078 7.61068 16.5374 14.9984 -0.305365 5.66689 45.7772
5968252 6.60488 7.62004 16.4848 15.0449 -0.232093 5.67313 45.7547
5968260 6.60488 7.62004 16.4848 15.0449 -0.232093 5.67313 45.7547
5968272 6.63941 7.69493 16.5795 14.9425 -0.316992 5.62222 45.8563
5968280 6.63941 7.7043 16.5479 14.9704 -0.279433 5.61728 45.8621
5968297 6.63941 7.7043 16.5479 14.9704 -0.279433 5.61728 45.8621
5968301 6.68258 7.69493 16.5479 14.9797 -0.302708 5.60399 45.9052
5968311 6.68258 7.69493 16.5479 14.9797 -0.302708 5.60399 45.9052
5968321 6.67395 7.61068 16.4638 14.9611 -0.309545 5.62474 45.7096
5968331 6.62214 7.64813 16.4743 14.8866 -0.307746 5.61809 45.6312
5968341 6.62214 7.64813 16.4743 14.8866 -0.307746 5.61809 45.6312
5968352 6.64804 7.63877 16.4533 14.8401 -0.34143 5.5967 45.5802
5968361 6.64804 7.64813 16.4954 14.9332 -0.307326 5.62028 45.7247
5968382 6.66531 7.68557 16.5269 14.989 -0.282118 5.61355 45.8668
5968392 6.66531 7.68557 16.5269 14.989 -0.282118 5.61355 45.8668
5968402 6.64804 7.63877 16.5479 15.0263 -0.289416 5.65428 45.861
5968412 6.60488 7.61068 16.569 15.0356 -0.287837 5.69258 45.8201
5968432 6.65668 7.61068 16.4638 14.9425 -0.310528 5.62872 45.6737
5968442 6.67395 7.61068 16.4848 14.9704 -0.315745 5.63096 45.7399
5968454 6.67395 7.61068 16.4848 14.9704 -0.315745 5.63096 45.7399
5968464 6.65668 7.68557 16.4113 14.9053 -0.261234 5.57645 45.6588
5968474 6.65668 7.68557 16.4113 14.9053 -0.261234 5.57645 45.6588
5968484 6.63078 7.65749 16.5059 14.9611 -0.283052 5.63172 45.7553
5968494 6.63941 7.62941 16.5795 14.9984 -0.322334 5.66312 45.8466
5968504 6.63941 7.62941 16.5795 14.9984 -0.322334 5.66312 45.8466
5968514 6.63941 7.60132 16.6005 15.0077 -0.34402 5.68196 45.8489
5968524 6.63941 7.60132 16.5374 14.9797 -0.325499 5.66342 45.7579
5968534 6.63941 7.60132 16.5374 14.9797 -0.325499 5.66342 45.7579
5968544 6.69985 7.63877 16.5059 15.1101 -0.248548 5.63948 45.9546
5968554 6.69985 7.63877 16.5059 15.1101 -0.248548 5.63948 45.9546
5968564 6.61351 7.55452 16.5269 15.0077 -0.316299 5.69986 45.7026
5968573 6.59624 7.65749 16.5164 15.0263 -0.234108 5.66276 45.7964
5968584 6.59624 7.65749 16.5164 15.0263 -0.234108 5.66276 45.7964
5968594 6.63078 7.62004 16.4954 15.1008 -0.22102 5.67496 45.8469
5968604 6.63941 7.65749 16.4638 15.0449 -0.218768 5.63637 45.8056
5968614 6.63941 7.65749 16.4638 15.0449 -0.218768 5.63637 45.8056
5968624 6.62214 7.62004 16.4638 15.017 -0.245467 5.65534 45.723
5968635 6.62214 7.62004 16.4638 15.017 -0.245467 5.65534 45.723
5968644 6.62214 7.63877 16.4743 15.017 -0.240827 5.64904 45.7522
5968657 6.62214 7.67621 16.4428 15.0077 -0.208236 5.62379 45.7488
5968665 6.62214 7.67621 16.4428 15.0077 -0.208236 5.62379 45.7488
5968678 6.68258 7.72302 16.3377 14.9053 -0.214666 5.53271 45.6485
5968685 6.72575 7.7511 16.3692 14.9797 -0.19864 5.52268 45.8258
5968705 6.71712 7.82599 16.3271 14.9797 -0.130062 5.48433 45.85
5968715 6.71712 7.82599 16.3271 14.9797 -0.130062 5.48433 45.85
5968726 6.71712 7.77918 16.222 14.9425 -0.119057 5.47566 45.6608
5968738 6.73438 7.81663 16.2325 14.9611 -0.103383 5.45724 45.7447
5968746 6.73438 7.81663 16.2325 14.9611 -0.103383 5.45724 45.7447
5968758 6.75165 7.86344 16.2325 14.9146 -0.112635 5.41889 45.7622
5968766 6.81209 7.91024 16.201 14.8308 -0.148651 5.34688 45.7541
5968786 6.77755 7.93833 16.1905 14.7842 -0.134315 5.33769 45.6906
5968796 6.77755 7.93833 16.0538 14.7656 -0.0699565 5.30474 45.5353
5968806 6.77755 7.93833 16.0538 14.7656 -0.0699565 5.30474 45.5353
5968818 6.82936 7.96641 16.0643 14.7563 -0.0936955 5.26944 45.6164
5968828 6.82936 7.96641 16.0643 14.7563 -0.0936955 5.26944 45.6164
5968837 6.79482 8.00385 16.1064 14.7563 -0.0772193 5.27711 45.6613
5968847 6.85526 8.01322 16.0223 14.7842 -0.0438303 5.23416 45.675
5968867 6.88979 8.06002 16.0538 14.7656 -0.0644356 5.20096 45.7692
5968880 6.88979 8.06002 16.0117 14.7656 -0.0415027 5.19195 45.7272
5968887 6.85526 8.07874 16.0117 14.7191 -0.0378877 5.18894 45.6648
5968897 6.95023 8.14427 15.9697 14.6818 -0.0512794 5.1011 45.746
5968907 6.95023 8.14427 15.9697 14.6818 -0.0512794 5.1011 45.746
5968917 6.89843 8.09747 15.9276 14.6725 -0.030756 5.13342 45.596
5968936 6.95886 8.20044 15.8856 14.6353 -0.00478476 5.04428 45.6802
5968937 6.95886 8.20044 15.8856 14.6353 -0.00478476 5.04428 45.6802
5968947 6.9675 8.24725 15.8856 14.6446 0.0211716 5.02201 45.7449
5968957 6.9675 8.24725 15.8856 14.6446 0.0211716 5.02201 45.7449
5968967 6.9675 8.163 15.8646 14.6446 -0.0134125 5.05437 45.6396
5968977 6.92433 8.20044 15.9487 14.7004 0.015229 5.08729 45.7739
5968987 6.92433 8.20044 15.9487 14.7004 0.015229 5.08729 45.7739
5968998 6.93296 8.14427 15.9066 14.6446 -0.0277936 5.08695 45.6284
5969007 6.92433 8.163 15.8856 14.6911 0.0242025 5.08805 45.664
5969019 6.92433 8.163 15.8856 14.6911 0.0242025 5.08805 45.664
5969027 6.95886 8.18172 15.9697 14.6725 -0.0405908 5.07886 45.7828
5969039 6.95886 8.18172 15.9697 14.6725 -0.0405908 5.07886 45.7828
5969047 6.88979 8.09747 15.9171 14.6725 -0.0202656 5.13496 45.5769
5969059 6.92433 8.2098 15.8856 14.6632 0.034526 5.06141 45.6829
5969067 6.92433 8.2098 15.8856 14.6632 0.034526 5.06141 45.6829
5969077 6.89843 8.11619 15.8751 14.747 0.0491261 5.1299 45.6367
5969087 6.88116 8.13491 15.9171 14.747 0.0457585 5.13835 45.6802
5969109 6.85526 8.12555 15.9382 14.8028 0.0738055 5.17046 45.7218
5969119 6.85526 8.12555 15.9382 14.8028 0.0738055 5.17046 45.7218
5969129 6.87252 8.06002 15.9907 14.9239 0.0657886 5.22891 45.8471
5969139 6.82072 8.07874 16.0538 14.868 0.0394136 5.24506 45.8213
5969159 6.80345 8.02258 15.9697 14.8587 0.0592142 5.25766 45.6544
5969171 6.80345 7.93833 16.1274 14.8773 -0.0629514 5.33252 45.7465
5969178 6.80345 7.93833 16.1274 14.8773 -0.0629514 5.33252 45.7465
5969189 6.69121 7.89152 16.1169 14.9053 -0.00620484 5.40712 45.6049
5969199 6.69121 7.89152 16.1169 14.9053 -0.00620484 5.40712 45.6049
5969209 6.68258 7.84471 16.2325 14.9518 -0.0648588 5.46591 45.7116
5969219 6.65668 7.82599 16.3166 14.9797 -0.091517 5.50919 45.779
5969230 6.65668 7.82599 16.3166 14.9797 -0.091517 5.50919 45.779
5969240 6.67395 7.7511 16.4007 15.017 -0.167207 5.56009 45.8428
5969250 6.58761 7.74174 16.3797 15.0356 -0.10383 5.60261 45.7447
5969260 6.58761 7.74174 16.3797 15.0356 -0.10383 5.60261 45.7447
5969270 6.61351 7.7511 16.5059 14.9797 -0.211856 5.60117 45.8502
5969284 6.61351 7.7511 16.5059 14.9797 -0.211856 5.60117 45.8502
5969290 6.63078 7.69493 16.4743 14.989 -0.229929 5.61411 45.7891
5969300 6.63941 7.74174 16.4218 14.9611 -0.195745 5.57263 45.764
5969310 6.63941 7.74174 16.4218 14.9611 -0.195745 5.57263 45.764
5969322 6.64804 7.71366 16.4428 14.9053 -0.25811 5.5742 45.7098
5969330 6.63078 7.69493 16.4323 14.9425 -0.232834 5.59591 45.7005
5969342 6.63078 7.69493 16.4323 14.9425 -0.232834 5.59591 45.7005
5969350 6.69121 7.76046 16.4218 14.8959 -0.249386 5.52751 45.7694
5969370 6.66531 7.67621 16.4533 14.8401 -0.329965 5.57201 45.6349
5969383 6.69985 7.73238 16.4323 14.8959 -0.275239 5.53841 45.7605
5969391 6.69985 7.73238 16.4323 14.8959 -0.275239 5.53841 45.7605
5969401 6.69985 7.69493 16.4638 14.8587 -0.333585 5.55405 45.7173
5969411 6.74302 7.74174 16.4428 14.8773 -0.309324 5.51318 45.8049
5969422 6.74302 7.74174 16.4428 14.8773 -0.309324 5.51318 45.8049
5969431 6.76028 7.79791 16.4638 14.7935 -0.345221 5.4673 45.8156
5969442 6.76028 7.79791 16.4638 14.7935 -0.345221 5.4673 45.8156
5969451 6.69121 7.7511 16.4428 14.8308 -0.301936 5.52256 45.7159
5969462 6.72575 7.73238 16.4954 14.9053 -0.318082 5.54174 45.8587
5969471 6.72575 7.73238 16.4954 14.9053 -0.318082 5.54174 45.8587
5969484 6.69121 7.7511 16.5584 14.9146 -0.317968 5.56373 45.9153
5969492 6.67395 7.69493 16.4954 14.868 -0.331473 5.57413 45.7323
5969503 6.67395 7.69493 16.4954 14.868 -0.331473 5.57413 45.7323
5969511 6.69121 7.68557 16.4743 14.8773 -0.329471 5.56816 45.7284
5969523 6.69121 7.68557 16.4743 14.8773 -0.329471 5.56816 45.7284
5969531 6.69121 7.62004 16.4533 14.8122 -0.390726 5.57989 45.5767
5969543 6.69121 7.7043 16.5374 14.8959 -0.342788 5.57657 45.8289
5969551 6.69121 7.7043 16.5374 14.8959 -0.342788 5.57657 45.8289
5969563 6.71712 7.7043 16.4848 14.8866 -0.333583 5.5522 45.7929
5969577 6.70848 7.7043 16.4323 14.8773 -0.305726 5.54329 45.7224
5969581 6.70848 7.69493 16.4323 14.8773 -0.310907 5.5475 45.713
5969592 6.74302 7.63877 16.5584 14.9332 -0.397566 5.59469 45.8734
5969603 6.74302 7.63877 16.5584 14.9332 -0.397566 5.59469 45.8734
5969611 6.66531 7.69493 16.4743 14.8866 -0.30515 5.57752 45.7212
5969623 6.69121 7.68557 16.4954 14.9239 -0.315051 5.58207 45.796
5969631 6.69121 7.68557 16.4954 14.9239 -0.315051 5.58207 45.796
5969641 6.74302 7.64813 16.3797 14.9425 -0.291 5.55562 45.7134
5969651 6.74302 7.64813 16.3797 14.9425 -0.291 5.55562 45.7134
5969661 6.65668 7.66685 16.4218 14.9984 -0.225845 5.60622 45.7437
5969671 6.68258 7.68557 16.3902 15.0077 -0.207342 5.58156 45.766
5969681 6.68258 7.68557 16.3902 15.0077 -0.207342 5.58156 45.766
5969694 6.72575 7.71366 16.3902 14.9239 -0.261422 5.53227 45.7535
5969704 6.66531 7.68557 16.3587 14.989 -0.191133 5.579 45.6986
5969712 6.66531 7.68557 16.3587 14.989 -0.191133 5.579 45.6986
5969724 6.72575 7.7043 16.2956 15.017 -0.164008 5.53615 45.7426
5969744 6.63078 7.64813 16.4218 15.0356 -0.201602 5.63397 45.7363
5969752 6.63941 7.68557 16.4323 15.0263 -0.196485 5.61345 45.7836
5969765 6.63941 7.68557 16.4323 15.0263 -0.196485 5.61345 45.7836
5969774 6.63078 7.59196 16.3902 15.0077 -0.230914 5.64717 45.6206
5969786 6.66531 7.65749 16.5164 15.0821 -0.240664 5.64304 45.9213
5969795 6.66531 7.65749 16.5164 15.0821 -0.240664 5.64304 45.9213
5969805 6.60488 7.66685 16.4113 15.1101 -0.130588 5.65029 45.7931
5969814 6.61351 7.54515 16.4007 15.0542 -0.227387 5.68787 45.6136
5969825 6.61351 7.54515 16.4007 15.0542 -0.227387 5.68787 45.6136
5969834 6.56171 7.61068 16.3587 15.1473 -0.0888795 5.69206 45.6784
5969844 6.56171 7.61068 16.3587 15.1473 -0.0888795 5.69206 45.6784
5969854 6.59624 7.59196 16.3166 15.0635 -0.141211 5.65918 45.5684
5969864 6.60488 7.5826 16.2956 15.0821 -0.129342 5.65901 45.5652
5969874 6.60488 7.5826 16.2956 15.0821 -0.129342 5.65901 45.5652
5969884 6.59624 7.65749 16.3061 15.1752 -0.038062 5.65025 45.7351
5969893 6.58761 7.56388 16.3271 15.2311 -0.0655085 5.71216 45.7097
5969906 6.58761 7.56388 16.3271 15.2311 -0.0655085 5.71216 45.7097
5969915 6.484 7.62941 16.3377 15.2497 0.0314385 5.73534 45.7008
5969926 6.484 7.62941 16.3377 15.2497 0.0314385 5.73534 45.7008
5969935 6.55307 7.5826 16.3377 15.2311 -0.042133 5.72147 45.7044
5969945 6.59624 7.60132 16.2851 15.3614 0.0444055 5.70923 45.8441
5969955 6.59624 7.60132 16.2851 15.3614 0.0444055 5.70923 45.8441
5969966 6.5358 7.65749 16.2536 15.3428 0.115174 5.70099 45.7897
5969986 6.56171 7.61068 16.222 15.3428 0.0928044 5.70404 45.7372
5969995 6.63941 7.68557 16.1379 15.2683 0.0965416 5.60271 45.7312
5970007 6.63941 7.68557 16.1379 15.2683 0.0965416 5.60271 45.7312
5970016 6.60488 7.66685 16.0538 15.3242 0.182027 5.62094 45.6497
5970026 6.61351 7.73238 16.0538 15.2497 0.172397 5.57213 45.6494
5970036 6.61351 7.73238 16.0538 15.2497 0.172397 5.57213 45.6494
5970047 6.61351 7.79791 16.0012 15.2311 0.2269 5.52789 45.6438
5970056 6.65668 7.69493 15.9487 15.2404 0.181156 5.54586 45.5407
5970076 6.62214 7.76982 16.0748 15.3056 0.206694 5.56726 45.7724
5970088 6.62214 7.76982 16.0748 15.3056 0.206694 5.56726 45.7724
5970096 6.62214 7.76982 16.0538 15.3056 0.218278 5.56292 45.7514
5970109 6.59624 7.7511 16.1169 15.2683 0.167453 5.58832 45.7326
5970117 6.59624 7.7511 16.1169 15.2683 0.167453 5.58832 45.7326
5970127 6.57034 7.79791 16.0538 15.3056 0.262067 5.57359 45.7276
5970137 6.55307 7.7511 16.0433 15.287 0.24198 5.59646 45.6344
5970148 6.55307 7.7511 16.0433 15.287 0.24198 5.59646 45.6344
5970157 6.66531 7.82599 16.0117 15.3428 0.268158 5.51738 45.8459
5970168 6.66531 7.82599 16.0117 15.3428 0.268158 5.51738 45.8459
5970180 6.62214 7.76982 15.9697 15.287 0.254637 5.54169 45.6486
5970200 6.61351 7.76982 15.9907 15.287 0.247779 5.54993 45.661
5970220 6.58761 7.76982 15.9276 15.2404 0.271818 5.53886 45.5255
5970228 6.62214 7.81663 16.0223 15.2963 0.255969 5.53347 45.7573
5970237 6.66531 7.84471 16.0643 15.2497 0.199029 5.50061 45.8241
5970248 6.66531 7.84471 16.0643 15.2497 0.199029 5.50061 45.8241
5970257 6.72575 7.8728 16.0012 15.2683 0.225732 5.45183 45.8681
5970267 6.69985 7.8728 15.9697 15.1659 0.201929 5.43544 45.7083
5970277 6.69985 7.8728 15.9697 15.1659 0.201929 5.43544 45.7083
5970288 6.68258 7.83535 15.9382 15.1194 0.183213 5.44359 45.5755
5970297 6.69121 7.85407 15.8541 15.0449 0.194588 5.39793 45.4442
5970309 6.69121 7.85407 15.8541 15.0449 0.194588 5.39793 45.4442
5970317 6.69121 7.84471 15.9171 15.138 0.20529 5.43502 45.5911
5970330 6.69121 7.84471 15.9171 15.138 0.20529 5.43502 45.5911
5970339 6.71712 7.90088 16.0223 15.1473 0.168616 5.42229 45.7876
5970350 6.73438 7.8728 15.9697 15.1287 0.162679 5.41221 45.7056
5970372 6.73438 7.83535 16.0012 15.1939 0.160384 5.44917 45.7648
5970379 6.71712 7.84471 15.9802 15.2218 0.201681 5.45415 45.7638
5970393 6.71712 7.84471 15.9802 15.2218 0.201681 5.45415 45.7638
5970400 6.70848 7.82599 16.0538 15.138 0.110283 5.46426 45.7263
5970420 6.72575 7.7511 16.0117 14.9984 0.00657141 5.45209 45.487
5970432 6.76028 7.82599 16.0223 15.0449 0.0483811 5.415 45.6534
5970440 6.76028 7.82599 16.0223 15.0449 0.0483811 5.415 45.6534
5970451 6.82072 7.81663 15.9697 15.0635 0.0491232 5.38505 45.6706
5970461 6.79482 7.79791 16.0433 15.1008 0.0331044 5.42823 45.7368
5970471 6.79482 7.79791 16.0433 15.1008 0.0331044 5.42823 45.7368
5970481 6.82936 7.8728 16.0223 14.9704 -0.00459105 5.34761 45.6948
5970502 6.78619 7.81663 15.9907 14.989 0.0157773 5.38921 45.5826
5970511 6.80345 7.8728 16.0643 15.1008 0.0576973 5.3954 45.8413
5970532 6.82072 7.76982 16.0853 14.9425 -0.106177 5.40482 45.6184
5970544 6.78619 7.73238 16.0853 14.989 -0.0823051 5.44684 45.593
5970552 6.78619 7.73238 16.0853 14.989 -0.0823051 5.44684 45.593
5970565 6.80345 7.73238 16.0328 14.9425 -0.0886321 5.41827 45.5111
5970572 6.77755 7.76046 16.0959 15.0077 -0.057666 5.44422 45.6415
5970585 6.77755 7.76046 16.0959 15.0077 -0.057666 5.44422 45.6415
5970594 6.75165 7.76046 16.0643 15.1008 0.0247717 5.46869 45.6772
5970604 6.75165 7.76046 16.0643 15.1008 0.0247717 5.46869 45.6772
5970614 6.72575 7.81663 16.0643 15.0263 0.0289559 5.43956 45.633
5970624 6.77755 7.84471 16.1064 14.9984 -0.0223324 5.4068 45.727
5970634 6.77755 7.84471 16.1064 14.9984 -0.0223324 5.4068 45.727
5970646 6.80345 7.81663 16.0748 14.989 -0.0397325 5.3992 45.684
5970654 6.83799 7.86344 16.0433 15.0077 -0.00555962 5.36022 45.7524
5970664 6.83799 7.86344 16.0433 15.0077 -0.00555962 5.36022 45.7524
5970674 6.85526 7.85407 16.0223 14.9704 -0.0290006 5.34441 45.702
5970684 6.85526 7.85407 16.0223 14.9704 -0.0290006 5.34441 45.702
5970694 6.80345 7.89152 15.9487 14.9239 0.0347137 5.32536 45.5675
5970706 6.83799 7.9196 15.9276 14.9332 0.0477642 5.29498 45.6184
5970715 6.83799 7.9196 15.9276 14.9332 0.0477642 5.29498 45.6184
5970726 6.92433 7.96641 15.9171 14.9053 0.0165194 5.22771 45.7131
5970735 6.88116 7.94769 15.9276 14.9518 0.049603 5.2673 45.7083
5970746 6.88116 7.94769 15.9276 14.9518 0.049603 5.2673 45.7083
5970756 6.89843 7.93833 15.9487 14.868 -0.022319 5.2504 45.6534
5970776 6.84662 7.97577 15.9171 14.8587 0.0387758 5.24805 45.5982
5970787 6.95886 8.01322 15.9592 14.8308 -0.0404537 5.18483 45.762
5970808 6.88116 7.92896 15.8856 14.7842 -0.0294402 5.23078 45.4799
5970816 6.89843 7.95705 15.8751 14.7749 -0.0228211 5.20636 45.5055
5970843 6.92433 8.00385 15.9276 14.7004 -0.0810415 5.1694 45.5563
5970851 6.91569 8.00385 15.9592 14.7004 -0.0935659 5.18002 45.5792
5970860 6.91569 7.96641 15.9592 14.5887 -0.175956 5.17251 45.43
5970866 6.98476 8.00385 16.1169 14.598 -0.273372 5.1614 45.7035
5970876 6.98476 8.00385 16.1169 14.598 -0.273372 5.1614 45.7035
5970886 6.98476 7.96641 16.18 14.5515 -0.353986 5.18149 45.6826
5970896 7.0711 8.07874 16.1484 14.477 -0.362521 5.07116 45.7753
5970917 7.12291 8.163 16.1169 14.4584 -0.33711 5.00076 45.8612
5970929 7.11427 8.20044 16.0748 14.4025 -0.320002 4.96679 45.7921
5970937 7.11427 8.20044 16.0748 14.4025 -0.320002 4.96679 45.7921
5970948 7.20061 8.27533 15.9592 14.356 -0.288534 4.86095 45.7911
5970957 7.20061 8.27533 15.9592 14.356 -0.288534 4.86095 45.7911
5970970 7.19198 8.22852 15.833 14.2256 -0.313796 4.82798 45.4792
5970977 7.20061 8.2098 15.6228 14.3094 -0.167693 4.80402 45.3426
5970987 7.20061 8.2098 15.6228 14.3094 -0.167693 4.80402 45.3426
5970997 7.20924 8.2098 15.6753 14.328 -0.190833 4.81623 45.4224
5971007 7.20924 8.2098 15.6753 14.328 -0.190833 4.81623 45.4224
5971017 7.13154 8.06938 15.7069 14.5701 -0.109351 4.97254 45.4779
5971027 7.08837 8.0413 15.8225 14.6632 -0.11311 5.04963 45.6154
5971037 7.08837 8.0413 15.8225 14.6632 -0.11311 5.04963 45.6154
5971047 7.07974 8.06002 15.7384 14.6818 -0.0418693 5.03088 45.56
5971057 7.05383 8.11619 15.8751 14.7935 -0.0104636 5.07168 45.8386
5971071 7.05383 8.11619 15.8751 14.7935 -0.0104636 5.07168 45.8386
5971077 7.097 8.09747 15.8435 14.8866 0.0237137 5.0743 45.9246
5971088 7.097 8.09747 15.8435 14.8866 0.0237137 5.0743 45.9246
5971097 7.00203 8.02258 15.8751 14.9146 0.0327617 5.16162 45.8143
5971107 6.90706 7.97577 15.9171 14.9611 0.0615686 5.24313 45.7611
5971117 6.90706 7.97577 15.9171 14.9611 0.0615686 5.24313 45.7611
5971127 6.82936 7.98513 15.8015 14.9518 0.167936 5.24674 45.5678
5971137 6.84662 7.91024 15.8015 15.0077 0.148025 5.2843 45.566
5971147 6.84662 7.91024 15.8015 15.0077 0.148025 5.2843 45.566
5971157 6.77755 7.9196 15.833 15.1659 0.259852 5.35116 45.6961
5971179 6.76028 7.89152 15.812 15.1659 0.265822 5.36694 45.6297
5971189 6.69985 7.80727 15.833 15.259 0.292456 5.45567 45.5992
5971199 6.69985 7.80727 15.833 15.259 0.292456 5.45567 45.5992
5971209 6.67395 7.82599 15.791 15.2218 0.320169 5.44227 45.5127
5971219 6.74302 7.76046 15.8541 15.408 0.312129 5.49275 45.7655
5971230 6.74302 7.76046 15.8541 15.408 0.312129 5.49275 45.7655
5971240 6.70848 7.83535 15.8646 15.5104 0.420696 5.49812 45.9188
5971250 6.70848 7.83535 15.8646 15.5104 0.420696 5.49812 45.9188
5971260 6.65668 7.76046 15.8435 15.5197 0.425926 5.55241 45.7804
5971274 6.57897 7.77918 15.7805 15.5663 0.539342 5.57552 45.7049
5971280 6.57897 7.77918 15.7805 15.5663 0.539342 5.57552 45.7049
5971290 6.58761 7.83535 15.7594 15.5104 0.546432 5.53048 45.6928
5971300 6.56171 7.83535 15.7069 15.529 0.600338 5.53509 45.6329
5971310 6.56171 7.83535 15.7069 15.529 0.600338 5.53509 45.6329
5971320 6.57897 7.83535 15.5387 15.4825 0.660387 5.48255 45.4355
5971330 6.57897 7.83535 15.5387 15.4825 0.660387 5.48255 45.4355
5971340 6.55307 7.86344 15.5492 15.5476 0.718933 5.49739 45.5133
5971350 6.57897 7.89152 15.6228 15.5942 0.702593 5.49816 45.6874
5971371 6.57897 7.85407 15.6122 15.6221 0.703445 5.51859 45.6674
5971381 6.56171 7.86344 15.6753 15.6594 0.702453 5.54292 45.7598
5971391 6.56171 7.86344 15.6753 15.6594 0.702453 5.54292 45.7598
5971401 6.62214 7.98513 15.4756 15.557 0.79118 5.39833 45.6398
5971414 6.63078 7.99449 15.423 15.5849 0.835794 5.3851 45.6332
5971433 6.68258 8.06002 15.4125 15.5104 0.807697 5.31483 45.6655
5971442 6.68258 8.06002 15.4125 15.5104 0.807697 5.31483 45.6655
5971454 6.68258 8.0413 15.402 15.5197 0.808653 5.32291 45.6456
5971462 6.70848 8.01322 15.402 15.5197 0.779125 5.32388 45.6434
5971485 6.73438 8.01322 15.3704 15.5104 0.777364 5.30368 45.6284
5971496 6.69985 8.06938 15.3284 15.4545 0.820869 5.2732 45.5522
5971507 6.69985 8.06938 15.3284 15.4545 0.820869 5.2732 45.5522
5971515 6.71712 8.08811 15.3704 15.4266 0.782397 5.26021 45.6023
5971524 6.71712 8.08811 15.3704 15.4266 0.782397 5.26021 45.6023
5971534 6.74302 8.09747 15.3074 15.3894 0.788623 5.22306 45.5372
5971543 6.76892 8.11619 15.381 15.4359 0.767058 5.22902 45.702
5971553 6.76892 8.11619 15.381 15.4359 0.767058 5.22902 45.702
5971566 6.81209 8.09747 15.3389 15.3801 0.726819 5.19721 45.6285
5971575 6.75165 8.14427 15.3494 15.3801 0.779867 5.20551 45.6254
5971585 6.75165 8.14427 15.3494 15.3801 0.779867 5.20551 45.6254
5971597 6.77755 8.163 15.4335 15.2683 0.668389 5.17983 45.6424
5971605 6.79482 8.13491 15.3915 15.3149 0.692171 5.18558 45.6361
5971615 6.79482 8.13491 15.3915 15.3149 0.692171 5.18558 45.6361
5971627 6.75165 8.163 15.444 15.2963 0.691923 5.19954 45.655
5971635 6.75165 8.163 15.444 15.2963 0.691923 5.19954 45.655
5971645 6.78619 8.12555 15.4756 15.2777 0.624904 5.2036 45.665
5971655 6.78619 8.20044 15.5492 15.2125 0.588861 5.17233 45.7483
5971665 6.78619 8.20044 15.5492 15.2125 0.588861 5.17233 45.7483
5971675 6.82072 8.15363 15.5807 15.1287 0.482064 5.16651 45.6838
5971687 6.82072 8.15363 15.5807 15.1287 0.482064 5.16651 45.6838
5971696 6.81209 8.15363 15.5492 15.0915 0.484493 5.1555 45.6063
5971706 6.89843 8.20044 15.6648 15.0449 0.372261 5.11177 45.8086
5971716 6.89843 8.20044 15.6648 15.0449 0.372261 5.11177 45.8086
5971726 6.80345 8.18172 15.6648 15.0915 0.439924 5.17182 45.7414
5971736 6.80345 8.13491 15.6858 15.1008 0.408086 5.19899 45.725
5971746 6.80345 8.13491 15.6858 15.1008 0.408086 5.19899 45.725
5971756 6.76892 8.11619 15.7174 15.0821 0.38965 5.22531 45.6846
5971767 6.74302 8.05066 15.6753 15.138 0.422263 5.26881 45.607
5971787 6.79482 8.06938 15.7489 15.0915 0.337547 5.24329 45.7046
5971807 6.76028 7.97577 15.6438 15.0356 0.334302 5.26583 45.4154
5971818 6.76892 7.9196 15.7489 15.0728 0.260711 5.31745 45.5103
5971838 6.76892 8.00385 15.7699 15.0728 0.29476 5.28438 45.6156
5971848 6.75165 7.93833 15.8225 15.0915 0.24977 5.33638 45.6039
5971859 6.75165 7.93833 15.8225 15.0915 0.24977 5.33638 45.6039
5971868 6.81209 7.91024 15.833 15.1194 0.210464 5.33011 45.6747
5971879 6.81209 7.91024 15.833 15.1194 0.210464 5.33011 45.6747
5971888 6.82072 7.96641 15.8856 15.138 0.217253 5.31637 45.8107
5971899 6.80345 7.93833 15.833 15.1752 0.260705 5.33327 45.75
5971910 6.80345 7.93833 15.833 15.1752 0.260705 5.33327 45.75
5971920 6.76892 7.96641 15.8541 15.1659 0.278318 5.33861 45.7553
5971928 6.79482 7.99449 15.7699 15.1194 0.300533 5.28694 45.6786
5971938 6.79482 7.99449 15.7699 15.1194 0.300533 5.28694 45.6786
5971948 6.82936 8.07874 15.7594 15.0915 0.317651 5.22612 45.759
5971970 6.81209 8.02258 15.7069 15.0542 0.305861 5.23944 45.5957
5971982 6.82936 8.06938 15.7069 15.0263 0.306502 5.20505 45.6319
5971990 6.82936 8.06938 15.7069 15.0263 0.306502 5.20505 45.6319
5972000 6.82936 8.03194 15.7279 14.9425 0.229067 5.20816 45.5317
5972011 6.82936 7.99449 15.7489 14.9984 0.227436 5.24129 45.5711
5972022 6.82936 7.99449 15.7489 14.9984 0.227436 5.24129 45.5711
5972030 6.85526 8.0413 15.7069 14.9984 0.261799 5.20002 45.6018
5972051 6.85526 8.01322 15.8015 14.9611 0.174001 5.22477 45.6311
5972061 6.82072 8.01322 15.7594 14.9984 0.236568 5.23906 45.5917
5972071 6.82072 8.01322 15.7594 14.9984 0.236568 5.23906 45.5917
5972081 6.85526 8.00385 15.791 14.9332 0.159499 5.22068 45.5833
5972091 6.87252 8.06938 15.812 14.9797 0.199306 5.19852 45.7336
5972117 6.9934 8.05066 15.8435 14.9425 0.0852197 5.15228 45.8301
5972126 6.9934 8.05066 15.8435 14.9425 0.0852197 5.15228 45.8301
5972142 6.84662 8.01322 15.791 14.8866 0.143978 5.21036 45.5374
5972145 6.94159 8.0413 15.7699 14.8773 0.113463 5.14935 45.6302
5972151 6.94159 8.0413 15.7699 14.8773 0.113463 5.14935 45.6302
5972161 6.95886 8.05066 15.8015 14.8215 0.0612378 5.13234 45.6325
5972171 6.95023 8.06002 15.812 14.9239 0.121143 5.15638 45.7461
5972181 6.95023 8.06002 15.812 14.9239 0.121143 5.15638 45.7461
5972191 7.00203 8.03194 15.812 14.8587 0.041908 5.13188 45.7047
5972201 7.00203 8.03194 15.812 14.8587 0.041908 5.13188 45.7047
5972211 6.9675 8.02258 15.8541 14.868 0.0377625 5.1623 45.7121
5972222 6.92433 8.11619 15.8435 14.8401 0.103015 5.13179 45.7241
5972231 6.92433 8.11619 15.8435 14.8401 0.103015 5.13179 45.7241
5972242 6.95023 8.02258 15.791 14.8773 0.0869304 5.15834 45.6411
5972252 6.95023 8.05066 15.8541 14.868 0.0625491 5.15753 45.723
5972262 6.95023 8.05066 15.8541 14.868 0.0625491 5.15753 45.723
5972272 6.90706 8.06002 15.833 14.8494 0.0927359 5.16391 45.6495
5972282 6.90706 8.06002 15.833 14.8494 0.0927359 5.16391 45.6495
5972292 6.92433 8.06002 15.7699 14.8215 0.102696 5.13663 45.5758
5972302 6.93296 7.94769 15.6648 14.868 0.119972 5.16989 45.4135
5972312 6.93296 7.94769 15.6648 14.868 0.119972 5.16989 45.4135
5972325 6.95023 8.01322 15.6964 14.8215 0.103396 5.12993 45.4813
5972333 6.92433 8.06002 15.7489 14.9146 0.165039 5.15221 45.6478
5972342 6.92433 8.06002 15.7489 14.9146 0.165039 5.15221 45.6478
5972352 6.93296 7.99449 15.812 14.9518 0.110164 5.19892 45.6913
5972363 6.93296 7.99449 15.812 14.9518 0.110164 5.19892 45.6913
5972372 6.89843 8.02258 15.8751 14.9332 0.0996411 5.2113 45.7293
5972382 6.95886 8.01322 15.8015 14.9425 0.106835 5.17495 45.7161
5972392 6.95886 8.01322 15.8015 14.9425 0.106835 5.17495 45.7161
5972403 6.95023 8.0413 15.812 14.9146 0.105888 5.16263 45.7181
5972412 6.90706 7.97577 15.8435 14.8866 0.0612825 5.21146 45.613
5972423 6.90706 7.97577 15.8435 14.8866 0.0612825 5.21146 45.613
5972434 6.93296 8.0413 15.7805 14.8866 0.117502 5.15744 45.6414
5972443 6.93296 8.0413 15.7805 14.8866 0.117502 5.15744 45.6414
5972452 6.95886 7.97577 15.791 14.8308 0.0311255 5.16518 45.5564
5972464 6.90706 7.97577 15.8225 14.8866 0.0728399 5.20694 45.592
5972474 6.90706 7.97577 15.8225 14.8866 0.0728399 5.20694 45.592
5972484 6.91569 7.94769 15.8751 14.9518 0.0594914 5.24078 45.6903
5972494 6.91569 7.98513 15.8541 14.9984 0.116795 5.22966 45.7532
5972505 6.91569 7.98513 15.8541 14.9984 0.116795 5.22966 45.7532
5972514 6.89843 7.99449 16.0117 15.0077 0.0500858 5.26868 45.9123
5972540 6.90706 7.92896 15.9382 14.989 0.0397652 5.27427 45.7632
5972545 6.82072 7.89152 15.8961 14.9053 0.0439167 5.30252 45.5136
5972553 6.82072 7.89152 15.8961 14.9053 0.0439167 5.30252 45.5136
5972564 6.82936 7.8728 15.9382 14.989 0.0516862 5.33376 45.6294
5972573 6.82936 7.8728 15.9382 14.989 0.0516862 5.33376 45.6294
5972585 6.77755 7.82599 16.0117 14.9611 -0.00120252 5.38743 45.5764
5972594 6.81209 7.88216 16.0538 15.017 0.0181615 5.36759 45.765
5972605 6.81209 7.88216 16.0538 15.017 0.0181615 5.36759 45.765
5972614 6.76028 7.81663 16.0748 15.0077 -0.00592172 5.4224 45.6594
5972624 6.78619 7.78855 16.1589 15.0728 -0.0457019 5.45459 45.8065
5972636 6.78619 7.78855 16.1589 15.0728 -0.0457019 5.45459 45.8065
5972644 6.78619 7.77918 16.1169 15.0635 -0.0329852 5.44805 45.7458
5972655 6.78619 7.77918 16.1169 15.0635 -0.0329852 5.44805 45.7458
5972664 6.79482 7.82599 16.1589 15.0542 -0.0401169 5.43015 45.834
5972674 6.80345 7.83535 16.1589 15.0449 -0.0447899 5.42018 45.8426
5972685 6.80345 7.83535 16.1589 15.0449 -0.0447899 5.42018 45.8426
5972693 6.82072 7.85407 16.1589 15.0263 -0.05413 5.40027 45.86
5972707 6.85526 7.83535 16.1274 15.0077 -0.0761762 5.38272 45.8257
5972714 6.85526 7.83535 16.1274 15.0077 -0.0761762 5.38272 45.8257
5972723 6.85526 7.81663 16.0538 14.9797 -0.0616387 5.36971 45.7054
5972734 6.85526 7.81663 16.0538 14.9797 -0.0616387 5.36971 45.7054
5972743 6.76028 7.68557 16.0748 14.9518 -0.108713 5.4695 45.4725
5972761 6.79482 7.67621 16.1379 15.0077 -0.136383 5.48305 45.6166
5972780 6.72575 7.7043 16.1064 15.0635 -0.0352502 5.50654 45.5999
5972785 6.75165 7.66685 16.1379 15.1101 -0.061661 5.52795 45.6665
5972795 6.75165 7.66685 16.1379 15.1101 -0.061661 5.52795 45.6665
5972805 6.74302 7.74174 16.1589 15.1194 -0.0223026 5.50452 45.7631
5972815 6.74302 7.74174 16.1589 15.1194 -0.0223026 5.50452 45.7631
5972825 6.70848 7.7043 16.1484 15.1194 -0.0181839 5.53464 45.6806
5972835 6.74302 7.72302 16.0959 15.1659 0.0273824 5.50948 45.7278
5972845 6.74302 7.72302 16.0959 15.1659 0.0273824 5.50948 45.7278
5972856 6.75165 7.7511 16.1274 15.1194 -0.00467747 5.4899 45.7495
5972866 6.74302 7.73238 16.1274 15.1194 -0.0101954 5.50216 45.7222
5972876 6.74302 7.73238 16.1274 15.1194 -0.0101954 5.50216 45.7222
5972886 6.79482 7.77918 16.0959 15.1008 -0.00585914 5.44758 45.7706
5972906 6.73438 7.77918 16.1484 15.1287 0.0136882 5.49136 45.7907
5972916 6.76892 7.76982 16.0538 15.0821 0.0160098 5.45068 45.6747
5972927 6.76892 7.76982 16.0538 15.0821 0.0160098 5.45068 45.6747
5972937 6.83799 7.76982 16.0538 15.1008 -0.0115827 5.4237 45.7624
5972947 6.82936 7.74174 15.9592 15.1566 0.0600994 5.43199 45.6869
5972959 6.82936 7.74174 15.9592 15.1566 0.0600994 5.43199 45.6869
5972967 6.79482 7.71366 15.9697 15.1846 0.0731975 5.46806 45.6627
5972977 6.74302 7.5826 16.0012 15.2311 0.0381142 5.56656 45.558
5972987 6.74302 7.5826 16.0012 15.2311 0.0381142 5.56656 45.558
5972997 6.72575 7.67621 16.0748 15.3242 0.109079 5.56661 45.801
5973007 6.72575 7.67621 16.0748 15.3242 0.109079 5.56661 45.801
5973017 6.64804 7.65749 16.0223 15.3801 0.200868 5.61067 45.7079
5973027 6.68258 7.64813 16.0012 15.4359 0.218624 5.60648 45.7679
5973037 6.68258 7.64813 16.0012 15.4359 0.218624 5.60648 45.7679
5973048 6.65668 7.63877 16.0643 15.4359 0.193086 5.63529 45.7957
5973058 6.65668 7.63877 16.0643 15.4359 0.193086 5.63529 45.7957
5973068 6.63941 7.5826 16.0748 15.5011 0.201675 5.68385 45.7979
5973078 6.58761 7.51707 16.0853 15.529 0.204042 5.74477 45.719
5973087 6.58761 7.51707 16.0853 15.529 0.204042 5.74477 45.719
5973097 6.57897 7.54515 16.0223 15.4452 0.213391 5.7061 45.5916
5973108 6.58761 7.55452 16.1169 15.5011 0.191826 5.72852 45.7601
5973118 6.58761 7.55452 16.1169 15.5011 0.191826 5.72852 45.7601
5973128 6.60488 7.47026 16.0748 15.5383 0.179964 5.75794 45.6883
5973151 6.57897 7.47963 16.0117 15.5197 0.224072 5.7489 45.5901
5973160 6.57897 7.52643 16.1484 15.557 0.194272 5.76283 45.8108
5973167 6.57897 7.52643 16.1484 15.557 0.194272 5.76283 45.8108
5973179 6.57897 7.48899 16.1589 15.6035 0.19342 5.79129 45.8304
5973189 6.57897 7.48899 16.18 15.5849 0.171784 5.79177 45.8328
5973209 6.5358 7.59196 16.1694 15.6594 0.297058 5.77753 45.9566
5973231 6.5358 7.51707 16.1379 15.5663 0.223804 5.78642 45.757
5973239 6.59624 7.60132 15.9802 15.5756 0.328088 5.6908 45.7533
5973251 6.59624 7.60132 15.9802 15.5756 0.328088 5.6908 45.7533
5973262 6.484 7.59196 15.9697 15.4732 0.335813 5.72299 45.5188
5973271 6.55307 7.49835 16.1379 15.4545 0.143453 5.76453 45.6439
5973280 6.55307 7.49835 16.1379 15.4545 0.143453 5.76453 45.6439
5973291 6.52717 7.54515 16.0959 15.5942 0.282067 5.77474 45.7624
5973300 6.52717 7.54515 16.0959 15.5942 0.282067 5.77474 45.7624
5973312 6.484 7.47963 16.1589 15.5849 0.230584 5.835 45.7074
5973320 6.46673 7.44218 16.2115 15.7338 0.271398 5.90014 45.8543
5973332 6.46673 7.44218 16.2115 15.7338 0.271398 5.90014 45.8543
5973340 6.46673 7.44218 16.2746 15.6594 0.196448 5.89788 45.8429
5973351 6.38903 7.40474 16.3482 15.7711 0.23883 5.98702 45.913
5973360 6.38903 7.40474 16.3482 15.7711 0.23883 5.98702 45.913
5973371 6.46673 7.43282 16.3377 15.7432 0.20203 5.9312 45.9804
5973391 6.41493 7.30176 16.2641 15.7711 0.215209 6.00581 45.7518
5973400 6.38903 7.33921 16.3377 15.8269 0.239393 6.0259 45.8928
5973426 6.34586 7.28304 16.2746 15.8083 0.257549 6.05555 45.7118
5973431 6.31133 7.24559 16.3587 15.8456 0.23008 6.11239 45.7612
5973441 6.31133 7.24559 16.3587 15.8456 0.23008 6.11239 45.7612
5973451 6.28542 7.10518 16.4954 15.9945 0.173774 6.24425 45.8805
5973461 6.28542 7.10518 16.4954 15.9945 0.173774 6.24425 45.8805
5973472 6.19045 7.01156 16.4954 16.1714 0.270972 6.36536 45.8688
5973481 6.25089 6.94604 16.5164 16.218 0.215933 6.38043 45.9313
5973492 6.25089 6.94604 16.5164 16.218 0.215933 6.38043 45.9313
5973501 6.21635 6.85242 16.4954 16.1342 0.150377 6.42062 45.6983
5973512 6.22499 6.84306 16.4218 16.1249 0.176024 6.40537 45.6147
5973522 6.22499 6.84306 16.4218 16.1249 0.176024 6.40537 45.6147
5973531 6.25089 6.90859 16.5479 16.0876 0.107762 6.37932 45.795
5973541 6.25089 6.90859 16.5479 16.0876 0.107762 6.37932 45.795
5973551 6.18182 6.90859 16.5795 16.1249 0.148579 6.42451 45.7947
5973561 6.19045 6.88987 16.5584 16.1342 0.150278 6.42704 45.7729
5973572 6.19045 6.88987 16.5584 16.1342 0.150278 6.42704 45.7729
5973585 6.18182 6.93667 16.6215 16.0783 0.115481 6.41054 45.8183
5973594 6.20772 6.92731 16.611 16.0969 0.112078 6.40433 45.843
5973602 6.20772 6.92731 16.611 16.0969 0.112078 6.40433 45.843
5973612 6.20772 6.89923 16.611 16.1062 0.101882 6.4192 45.8242
5973622 6.20772 6.89923 16.611 16.1062 0.101882 6.4192 45.8242
5973632 6.19045 6.81498 16.6741 16.1249 0.0410974 6.48197 45.8044
5973642 6.24225 6.88987 16.6531 16.1528 0.0801891 6.42401 45.938
5973652 6.24225 6.88987 16.6531 16.1528 0.0801891 6.42401 45.938
5973663 6.24225 6.87115 16.6846 16.1435 0.0477642 6.43689 45.9415
5973672 6.19045 6.89923 16.6951 16.218 0.125876 6.46376 46.0028
5973684 6.19045 6.89923 16.6951 16.218 0.125876 6.46376 46.0028
5973692 6.24225 6.92731 16.6531 16.1249 0.0853479 6.40134 45.9475
5973702 6.24225 6.92731 16.6531 16.1249 0.0853479 6.40134 45.9475
5973712 6.26816 6.86178 16.569 16.069 0.0511706 6.39357 45.7679
5973722 6.26816 6.87115 16.5795 15.948 -0.0156045 6.36836 45.6667
5973732 6.26816 6.87115 16.5795 15.948 -0.0156045 6.36836 45.6667
5973742 6.31996 6.85242 16.4638 15.9014 -0.016436 6.32209 45.5376
5973752 6.24225 6.82434 16.4113 15.9387 0.0602722 6.36883 45.4165
5973762 6.24225 6.82434 16.4113 15.9387 0.0602722 6.36883 45.4165
5973772 6.24225 6.82434 16.5795 16.0597 0.0340819 6.42345 45.7058
5973782 6.24225 6.82434 16.5795 16.0597 0.0340819 6.42345 45.7058
5973792 6.23362 6.68392 16.6005 16.1062 -0.0240818 6.50614 45.6243
5973802 6.26816 6.76817 16.6846 16.2087 0.0131011 6.48501 45.9296
5973824 6.21635 6.81498 16.6951 16.2087 0.0610441 6.4893 45.9351
5973834 6.27679 6.77753 16.7267 16.2366 0.00579655 6.48956 46.0176
5973844 6.27679 6.77753 16.7267 16.2366 0.00579655 6.48956 46.0176
5973854 6.27679 6.82434 16.6425 16.218 0.0668824 6.44865 45.9616
5973864 6.27679 6.82434 16.6425 16.218 0.0668824 6.44865 45.9616
5973875 6.21635 6.8337 16.59 16.1062 0.0730157 6.44189 45.7463
5973884 6.27679 6.90859 16.5795 16.1435 0.106633 6.38367 45.9083
5973896 6.27679 6.90859 16.5795 16.1435 0.106633 6.38367 45.9083
5973904 6.31133 6.84306 16.4954 16.0969 0.0728518 6.37355 45.7467
5973917 6.28542 6.8337 16.5374 16.0783 0.0487447 6.39445 45.7349
5973925 6.28542 6.8337 16.5374 16.0783 0.0487447 6.39445 45.7349
5973938 6.32859 6.87115 16.5374 16.0969 0.0556767 6.36031 45.8341
5973945 6.32859 6.87115 16.5374 16.0969 0.0556767 6.36031 45.8341
5973957 6.27679 6.84306 16.5374 16.1249 0.0839412 6.40286 45.7821
5973965 6.31133 6.86178 16.4218 16.0783 0.113308 6.34737 45.6732
5973975 6.31133 6.86178 16.4218 16.0783 0.113308 6.34737 45.6732
5973985 6.33723 6.87115 16.4428 16.0318 0.0672489 6.32605 45.6829
5973996 6.29406 6.85242 16.4323 16.0225 0.0814319 6.35123 45.6012
5974016 6.27679 6.85242 16.5269 16.0504 0.0542104 6.38249 45.7065
5974042 6.26816 6.81498 16.569 16.1156 0.0510305 6.42421 45.7676
5974051 6.26816 6.84306 16.5164 16.1435 0.110331 6.40644 45.7711
5974061 6.26816 6.84306 16.5164 16.1435 0.110331 6.40644 45.7711
5974066 6.34586 6.91795 16.5269 16.1435 0.102687 6.33729 45.9342
5974076 6.32859 6.86178 16.5584 16.1714 0.0795752 6.38264 45.9202
5974086 6.32859 6.86178 16.5584 16.1714 0.0795752 6.38264 45.9202
5974097 6.36313 6.88987 16.5584 16.0876 0.030458 6.33773 45.8991
5974106 6.36313 6.88987 16.5584 16.0876 0.030458 6.33773 45.8991
5974116 6.35449 6.87115 16.5059 16.0597 0.0384718 6.33525 45.7912
5974127 6.33723 6.89923 16.4007 16.0783 0.131014 6.31381 45.7155
5974137 6.33723 6.89923 16.4007 16.0783 0.131014 6.31381 45.7155
5974147 6.38903 6.91795 16.4113 15.9294 0.0257522 6.25453 45.6476
5974157 6.39766 7.03029 16.3587 15.9852 0.141543 6.19899 45.7719
5974167 6.39766 7.03029 16.3587 15.9852 0.141543 6.19899 45.7719
5974177 6.44083 7.08645 16.2956 15.8735 0.122279 6.11924 45.6964
5974197 6.49264 7.14262 16.2746 15.8456 0.120735 6.05991 45.7554
5974209 6.50127 7.16134 16.243 15.7245 0.0775635 6.01739 45.6302
5974217 6.50127 7.16134 16.243 15.7245 0.0775635 6.01739 45.6302
5974228 6.52717 7.24559 16.1589 15.678 0.130165 5.94089 45.6097
5974237 6.60488 7.38601 16.2536 15.557 0.0461429 5.83594 45.8014
5974249 6.60488 7.38601 16.2536 15.557 0.0461429 5.83594 45.8014
5974259 6.63078 7.40474 16.18 15.5197 0.0621557 5.7934 45.7352
5974270 6.63078 7.40474 16.18 15.5197 0.0621557 5.7934 45.7352
5974277 6.66531 7.45154 16.222 15.4266 -0.00500679 5.74618 45.7655
5974287 6.68258 7.44218 16.201 15.4173 -0.0131622 5.73646 45.7431
5974297 6.68258 7.44218 16.201 15.4173 -0.0131622 5.73646 45.7431
5974309 6.74302 7.55452 16.1169 15.3335 0.015375 5.62415 45.7479
5974317 6.71712 7.5826 16.0959 15.3335 0.056386 5.61885 45.7291
5974327 6.71712 7.5826 16.0959 15.3335 0.056386 5.61885 45.7291
5974337 6.77755 7.66685 15.9697 15.1939 0.0621974 5.49876 45.608
5974347 6.77755 7.66685 15.9697 15.1939 0.0621974 5.49876 45.608
5974357 6.78619 7.67621 15.9592 15.138 0.0377774 5.47683 45.5596
5974367 6.86389 7.72302 16.0223 15.1752 0.00661314 5.44201 45.7844
5974377 6.86389 7.72302 16.0223 15.1752 0.00661314 5.44201 45.7844
5974387 6.88116 7.72302 15.9171 15.0821 0.00376999 5.39272 45.6035
5974399 6.83799 7.72302 15.9907 15.1008 -0.0026986 5.43141 45.6525
5974407 6.83799 7.72302 15.9907 15.1008 -0.0026986 5.43141 45.6525
5974417 6.90706 7.79791 16.0223 15.0728 -0.0319749 5.36794 45.8001
5974430 6.90706 7.79791 16.0223 15.0728 -0.0319749 5.36794 45.8001
5974439 6.90706 7.7511 16.0538 14.9984 -0.115621 5.37975 45.7103
5974451 6.85526 7.80727 16.0853 15.0635 -0.0380918 5.39811 45.8114
5974459 6.85526 7.80727 16.0853 15.0635 -0.0380918 5.39811 45.8114
5974471 6.90706 7.76982 16.0748 15.0449 -0.0912517 5.38561 45.7966
5974479 6.89843 7.76046 16.0433 15.0449 -0.0745103 5.387 45.7471
5974491 6.89843 7.76046 16.0433 15.0449 -0.0745103 5.387 45.7471
5974499 6.93296 7.8728 16.0643 14.9239 -0.109515 5.30062 45.794
5974509 6.93296 7.8728 16.0643 14.9239 -0.109515 5.30062 45.794
5974520 6.89843 7.8728 16.0117 14.9611 -0.0416771 5.3127 45.7441
5974529 6.97613 7.8728 15.9382 14.8866 -0.0847593 5.24674 45.6737
5974540 6.97613 7.8728 15.9382 14.8866 -0.0847593 5.24674 45.6737
5974550 7.0193 7.84471 15.9066 14.7935 -0.157833 5.21335 45.5642
5974560 6.9675 7.86344 15.9487 14.8028 -0.137049 5.23905 45.5825
5974570 6.9675 7.86344 15.9487 14.8028 -0.137049 5.23905 45.5825
5974580 7.0193 7.89152 15.9487 14.8773 -0.10884 5.2196 45.7368
5974590 7.0193 7.89152 15.9487 14.8773 -0.10884 5.2196 45.7368
5974600 6.9675 7.78855 15.9592 14.8494 -0.15842 5.28454 45.5646
5974610 7.00203 7.85407 16.0433 14.9984 -0.105064 5.28965 45.8978
5974630 7.00203 7.86344 16.0117 14.9332 -0.118507 5.26501 45.8104
5974640 6.98476 7.79791 16.0643 14.9146 -0.183891 5.30889 45.7616
5974650 6.98476 7.79791 16.0643 14.9146 -0.183891 5.30889 45.7616
5974660 6.98476 7.83535 15.9066 14.9332 -0.0672579 5.26272 45.6599
5974672 6.98476 7.83535 15.9066 14.9332 -0.0672579 5.26272 45.6599
5974683 6.93296 7.81663 16.0748 14.9239 -0.146063 5.32778 45.7483
5974694 6.95886 7.76982 16.0433 14.989 -0.132906 5.34417 45.761
5974707 6.95886 7.76982 16.0433 14.989 -0.132906 5.34417 45.761
5974713 6.95023 7.7511 16.0853 14.9425 -0.186956 5.35539 45.7292
5974720 6.95886 7.72302 15.9907 14.989 -0.130044 5.35391 45.6617
5974731 6.95886 7.72302 15.9907 14.989 -0.130044 5.35391 45.6617
5974741 6.95023 7.74174 15.9276 15.0635 -0.0397325 5.35182 45.6831
5974751 6.95023 7.74174 15.9276 15.0635 -0.0397325 5.35182 45.6831
5974761 6.94159 7.68557 15.9802 15.0821 -0.0843093 5.39572 45.6895
5974771 6.88979 7.67621 16.0853 15.1287 -0.0929594 5.45479 45.78
5974781 6.88979 7.67621 16.0853 15.1287 -0.0929594 5.45479 45.78
5974792 6.89843 7.67621 16.0748 15.1473 -0.0817344 5.45262 45.7968
5974801 6.89843 7.67621 16.0748 15.1473 -0.0817344 5.45262 45.7968
5974813 6.91569 7.61068 16.0012 15.1939 -0.0614494 5.46856 45.7215
5974821 6.86389 7.62004 15.9697 15.1659 -0.026089 5.47518 45.6196
5974831 6.86389 7.62004 15.9697 15.1659 -0.026089 5.47518 45.6196
5974842 6.90706 7.56388 15.9487 15.1566 -0.0741765 5.47468 45.5762
5974851 6.84662 7.60132 16.0012 15.2404 -0.00334978 5.51341 45.6896
5974861 6.84662 7.60132 16.0012 15.2404 -0.00334978 5.51341 45.6896
5974871 6.83799 7.68557 16.0538 15.2497 0.0237346 5.49237 45.8271
5974892 6.84662 7.64813 16.0433 15.2032 -0.021103 5.49342 45.7412
5974902 6.86389 7.73238 16.0012 15.2311 0.0536561 5.44509 45.8286
5974914 6.86389 7.73238 16.0012 15.2311 0.0536561 5.44509 45.8286
5974924 6.86389 7.63877 16.0117 15.1659 -0.0388235 5.47556 45.6803
5974935 6.91569 7.71366 15.9592 15.1659 0.00257492 5.40792 45.7545
5974944 6.91569 7.71366 15.9592 15.1659 0.00257492 5.40792 45.7545
5974953 6.92433 7.71366 15.8225 15.1659 0.0727415 5.37533 45.6264
5974963 6.9934 7.71366 15.812 15.1287 0.0202417 5.33443 45.6477
5974972 6.9934 7.71366 15.812 15.1287 0.0202417 5.33443 45.6477
5974983 7.06247 7.7511 15.7805 15.0728 -0.0103951 5.2685 45.6669
5974993 7.06247 7.7511 15.7805 15.0728 -0.0103951 5.2685 45.6669
5975002 7.0711 7.7043 15.8435 15.1473 -0.0344291 5.31466 45.7663
5975012 7.17471 7.7043 15.6648 15.0821 -0.0290826 5.21675 45.626
5975022 7.17471 7.7043 15.6648 15.0821 -0.0290826 5.21675 45.626
5975034 7.25241 7.73238 15.6543 15.0449 -0.0708237 5.15971 45.684
5975045 7.25241 7.73238 15.6543 15.0449 -0.0708237 5.15971 45.684
5975055 7.26105 7.7043 15.5912 14.9984 -0.0821054 5.14464 45.5549
5975064 7.23514 7.76046 15.6333 15.0449 -0.0345081 5.1504 45.6738
5975076 7.23514 7.76046 15.6333 15.0449 -0.0345081 5.1504 45.6738
5975084 7.16607 7.65749 15.6858 15.1287 -0.0360027 5.2558 45.6381
5975096 7.17471 7.66685 15.791 15.1473 -0.0827402 5.27418 45.7798
5975104 7.17471 7.66685 15.791 15.1473 -0.0827402 5.27418 45.7798
5975117 7.13154 7.61068 15.833 15.2125 -0.0771999 5.34094 45.7877
5975137 7.12291 7.57324 15.833 15.1939 -0.103243 5.3575 45.723
5975145 7.13154 7.5826 15.8646 15.3335 -0.0435546 5.38548 45.9122
5975158 7.13154 7.5826 15.8646 15.3335 -0.0435546 5.38548 45.9122
5975164 7.03657 7.47963 15.9276 15.259 -0.123377 5.47137 45.7029
5975174 6.95886 7.38601 15.9697 15.3708 -0.0940055 5.58021 45.6853
5975195 6.90706 7.33921 16.0643 15.5476 -0.0460774 5.68023 45.8582
5975205 6.78619 7.13326 16.1589 15.7804 -0.0171542 5.89415 45.8588
5975215 6.78619 7.13326 16.1589 15.7804 -0.0171542 5.89415 45.8588
5975225 6.73438 7.03029 16.222 15.8176 -0.0592083 5.98469 45.8043
5975251 6.66531 6.9554 16.2115 15.9014 -0.0109315 6.06519 45.7336
5975255 6.63078 6.93667 16.1694 15.8549 -0.00475943 6.07244 45.5918
5975267 6.63078 6.93667 16.1694 15.8549 -0.00475943 6.07244 45.5918
5975275 6.65668 6.9554 16.222 15.8921 -0.0170484 6.0694 45.7262
5975287 6.56171 6.80562 16.3377 15.9945 -0.0542834 6.22486 45.6995
5975295 6.56171 6.80562 16.3377 15.9945 -0.0542834 6.22486 45.6995
5975305 6.57034 6.80562 16.3377 16.0318 -0.038597 6.22799 45.7454
5975322 6.57034 6.80562 16.3377 16.0318 -0.038597 6.22799 45.7454
5975329 6.57034 6.72137 16.3482 15.9759 -0.121255 6.25848 45.6158
5975345 6.55307 6.77753 16.4007 16.0318 -0.0789478 6.26112 45.7631
5975349 6.55307 6.77753 16.4007 16.0318 -0.0789478 6.26112 45.7631
5975359 6.57034 6.63711 16.4113 16.0318 -0.171259 6.32049 45.6505
5975373 6.58761 6.70264 16.3587 16.0225 -0.121082 6.27008 45.6714
5975377 6.58761 6.70264 16.3587 16.0225 -0.121082 6.27008 45.6714
5975387 6.59624 6.69328 16.3902 15.9852 -0.168607 6.26933 45.665
5975407 6.51854 6.74945 16.3902 15.9107 -0.136377 6.26512 45.5689
5975420 6.63941 6.85242 16.4533 15.92 -0.174561 6.17512 45.8652
5975429 6.63941 6.85242 16.4533 15.92 -0.174561 6.17512 45.8652
5975439 6.69121 6.88051 16.3482 15.92 -0.130257 6.11797 45.8399
5975449 6.70848 6.88051 16.2956 15.8642 -0.141752 6.08895 45.7488
5975460 6.70848 6.88051 16.2956 15.8642 -0.141752 6.08895 45.7488
5975469 6.67395 6.98348 16.3902 15.8921 -0.102626 6.0813 45.9398
5975479 6.61351 6.88051 16.2746 15.8363 -0.0939205 6.1233 45.6049
5975499 6.63941 6.85242 16.3587 15.9014 -0.133467 6.15327 45.7519
5975510 6.63941 6.85242 16.3587 15.9014 -0.133467 6.15327 45.7519
5975519 6.62214 6.79626 16.3587 15.9107 -0.149845 6.18908 45.6878
5975529 6.69121 6.81498 16.3587 15.8735 -0.197552 6.14123 45.7384
5975540 6.69121 6.81498 16.3587 15.8735 -0.197552 6.14123 45.7384
5975548 6.76028 6.78689 16.3797 15.92 -0.236146 6.13539 45.8469
5975562 6.76028 6.78689 16.3797 15.92 -0.236146 6.13539 45.8469
5975570 6.71712 6.85242 16.3166 15.92 -0.142603 6.11286 45.8062
5975581 6.73438 6.86178 16.3061 16.0131 -0.0901535 6.1166 45.9154
5975590 6.73438 6.86178 16.3061 16.0131 -0.0901535 6.1166 45.9154
5975601 6.66531 6.81498 16.3166 15.92 -0.13503 6.15408 45.717
5975610 6.66531 6.8337 16.3482 15.9014 -0.152116 6.14792 45.7486
5975620 6.66531 6.8337 16.3482 15.9014 -0.152116 6.14792 45.7486
5975630 6.67395 6.88051 16.222 15.8828 -0.0726312 6.09417 45.6593
5975650 6.64804 6.86178 16.201 15.8549 -0.0726283 6.10526 45.5657
5975661 6.71712 6.84306 16.2115 15.8363 -0.136656 6.08038 45.6079
5975671 6.71712 6.84306 16.2115 15.8363 -0.136656 6.08038 45.6079
5975682 6.72575 6.8337 16.2325 15.8642 -0.142583 6.09028 45.6562
5975690 6.68258 6.84306 16.1905 15.9387 -0.0500113 6.11223 45.6548
5975701 6.68258 6.84306 16.1905 15.9387 -0.0500113 6.11223 45.6548
5975710 6.70848 6.84306 16.2536 15.8549 -0.144602 6.09622 45.66
5975721 6.70848 6.84306 16.2536 15.8549 -0.144602 6.09622 45.66
5975730 6.79482 6.93667 16.0748 15.7525 -0.099054 5.95795 45.5588
5975740 6.82936 7.0022 16.0433 15.6501 -0.121026 5.88528 45.5249
5975751 6.82936 7.0022 16.0433 15.6501 -0.121026 5.88528 45.5249
5975760 6.86389 7.11454 16.0223 15.5942 -0.0972822 5.80263 45.5949
5975770 6.9675 7.1239 16.0012 15.6035 -0.132029 5.74885 45.6961
5975782 6.9675 7.1239 16.0012 15.6035 -0.132029 5.74885 45.6961
5975791 7.05383 7.26432 15.9171 15.5104 -0.107247 5.61016 45.7457
5975803 7.05383 7.26432 15.9171 15.5104 -0.107247 5.61016 45.7457
5975811 7.06247 7.24559 15.7805 15.4452 -0.0835076 5.57311 45.5338
5975826 7.10564 7.35793 15.833 15.4639 -0.063853 5.51786 45.7604
5975831 7.10564 7.35793 15.833 15.4639 -0.063853 5.51786 45.7604
5975841 7.11427 7.32985 15.6964 15.4639 -0.00927597 5.49819 45.6043
5975851 7.11427 7.27368 15.7489 15.5104 -0.0433236 5.54405 45.6473
5975874 7.19198 7.35793 15.6438 15.408 -0.0382856 5.42805 45.6017
5975882 7.19198 7.35793 15.6438 15.408 -0.0382856 5.42805 45.6017
5975897 7.18334 7.39537 15.6017 15.3335 -0.0308603 5.39061 45.514
5975902 7.18334 7.32048 15.7489 15.4173 -0.106451 5.47265 45.67
5975922 7.16607 7.2924 15.7069 15.4545 -0.0690445 5.49199 45.6199
5975932 7.10564 7.22687 15.7805 15.5942 -0.0355691 5.59282 45.7072
5975943 7.10564 7.22687 15.7805 15.5942 -0.0355691 5.59282 45.7072
5975953 7.14017 7.18943 15.791 15.5849 -0.0857845 5.59438 45.7055
5975964 7.14017 7.18943 15.791 15.5849 -0.0857845 5.59438 45.7055
5975972 7.07974 7.11454 15.7069 15.5663 -0.0581741 5.63443 45.4674
5975987 7.097 7.16134 15.791 15.5663 -0.08789 5.62271 45.6156
5975994 7.097 7.16134 15.791 15.5663 -0.08789 5.62271 45.6156
5976009 7.14017 7.16134 15.7384 15.5197 -0.108384 5.58277 45.5596
5976014 7.08837 7.21751 15.7174 15.4173 -0.0940397 5.55521 45.4406
5976025 7.08837 7.21751 15.7174 15.4173 -0.0940397 5.55521 45.4406
5976035 7.20061 7.32985 15.7699 15.3614 -0.152898 5.45344 45.6618
5976045 7.25241 7.2924 15.6333 15.3987 -0.106743 5.42617 45.5768
5976055 7.25241 7.2924 15.6333 15.3987 -0.106743 5.42617 45.5768
5976065 7.26968 7.37665 15.6333 15.3428 -0.100538 5.36899 45.6224
5976091 7.20924 7.40474 15.6753 15.3987 -0.0444025 5.40406 45.688
5976095 7.23514 7.4141 15.6017 15.4266 0.00210106 5.37871 45.6776
5976105 7.23514 7.4141 15.6017 15.4266 0.00210106 5.37871 45.6776
5976115 7.33875 7.47026 15.6017 15.3242 -0.0798136 5.28597 45.735
5976125 7.32148 7.45154 15.5702 15.2963 -0.0788003 5.28931 45.6395
5976145 7.33012 7.52643 15.5071 15.3428 0.0175178 5.24873 45.7065
5976155 7.33012 7.52643 15.5071 15.3428 0.0175178 5.24873 45.7065
5976167 7.23514 7.47026 15.4651 15.3428 0.0620097 5.30696 45.5133
5976176 7.23514 7.40474 15.4335 15.3708 0.0587702 5.33547 45.4442
5976187 7.23514 7.40474 15.4335 15.3708 0.0587702 5.33547 45.4442
5976197 7.22651 7.36729 15.423 15.3521 0.0385255 5.34992 45.3689
5976207 7.24378 7.4609 15.3599 15.3521 0.115228 5.28683 45.4167
5976216 7.24378 7.4609 15.3599 15.3521 0.115228 5.28683 45.4167
5976229 7.34738 7.56388 15.3704 15.3894 0.128874 5.20523 45.6711
5976249 7.36465 7.54515 15.381 15.2963 0.0525504 5.18813 45.587
5976257 7.39055 7.55452 15.3915 15.3335 0.0580311 5.1828 45.6701
5976269 7.39055 7.55452 15.3915 15.3335 0.0580311 5.1828 45.6701
5976279 7.33012 7.51707 15.3179 15.3056 0.096032 5.20433 45.4706
5976291 7.39919 7.56388 15.3494 15.3521 0.0916541 5.16981 45.6646
5976299 7.39919 7.56388 15.3494 15.3521 0.0916541 5.16981 45.6646
5976311 7.42509 7.52643 15.3915 15.3056 0.00846684 5.17394 45.6486
5976319 7.39055 7.54515 15.3704 15.3149 0.0542849 5.17841 45.621
5976339 7.38192 7.63877 15.3599 15.287 0.100663 5.13259 45.6676
5976349 7.38192 7.63877 15.3599 15.287 0.100663 5.13259 45.6676
5976359 7.35602 7.61068 15.2338 15.2032 0.123379 5.1109 45.4036
5976369 7.40782 7.71366 15.2022 15.1846 0.158304 5.03161 45.5083
5976379 7.40782 7.71366 15.2022 15.1846 0.158304 5.03161 45.5083
5976389 7.45962 7.66685 15.1812 15.2497 0.151321 5.03907 45.5574
5976399 7.38192 7.64813 15.2338 15.2777 0.170231 5.0991 45.5415
5976413 7.38192 7.64813 15.2338 15.2777 0.170231 5.0991 45.5415
5976420 7.40782 7.64813 15.2653 15.287 0.143594 5.09655 45.6082
5976433 7.40782 7.64813 15.2653 15.287 0.143594 5.09655 45.6082
5976440 7.32148 7.55452 15.1917 15.2963 0.18605 5.16224 45.364
5976450 7.41646 7.59196 15.3179 15.4452 0.165424 5.16304 45.7715
5976460 7.41646 7.59196 15.3179 15.4452 0.165424 5.16304 45.7715
5976470 7.33875 7.59196 15.1917 15.4359 0.272959 5.16818 45.5583
5976480 7.31285 7.59196 15.2233 15.4359 0.26983 5.18646 45.564
5976490 7.31285 7.51707 15.2233 15.529 0.27971 5.23966 45.5822
5976500 7.30422 7.61068 15.2758 15.4452 0.260696 5.1953 45.636
5976514 7.30422 7.61068 15.2758 15.4452 0.260696 5.1953 45.636
5976520 7.32148 7.54515 15.1917 15.408 0.241911 5.19057 45.4663
5976530 7.27831 7.51707 15.3284 15.5663 0.2608 5.28538 45.69
5976551 7.23514 7.49835 15.2863 15.6407 0.338158 5.31977 45.6606
5976561 7.17471 7.44218 15.3179 15.7059 0.359061 5.3922 45.6407
5976571 7.17471 7.44218 15.3179 15.7059 0.359061 5.3922 45.6407
5976581 7.20061 7.39537 15.2653 15.6594 0.323385 5.38064 45.5207
5976591 7.20061 7.39537 15.2653 15.6594 0.323385 5.38064 45.5207
5976601 7.16607 7.4141 15.1917 15.6873 0.408939 5.37807 45.4592
5976611 7.15744 7.37665 15.2233 15.799 0.436258 5.42894 45.5564
5976621 7.15744 7.37665 15.2233 15.799 0.436258 5.42894 45.5564
5976631 7.19198 7.34857 15.2443 15.7804 0.380063 5.42655 45.5652
5976641 7.19198 7.43282 15.2548 15.7711 0.414634 5.3891 45.6507
5976652 7.19198 7.43282 15.2548 15.7711 0.414634 5.3891 45.6507
5976662 7.20924 7.47026 15.2758 15.8176 0.438488 5.37892 45.773
5976673 7.20924 7.47026 15.2758 15.8176 0.438488 5.37892 45.773
5976682 7.20061 7.4609 15.2548 15.7618 0.419939 5.37076 45.6781
5976692 7.17471 7.44218 15.1497 15.7618 0.482991 5.36849 45.5283
5976712 7.18334 7.4141 15.1707 15.6873 0.41104 5.36588 45.4554
5976724 7.14017 7.36729 15.0971 15.6873 0.451142 5.39068 45.2919
5976732 7.14017 7.36729 15.0971 15.6873 0.451142 5.39068 45.2919
5976744 7.16607 7.36729 15.1076 15.7804 0.481054 5.40097 45.4214
5976756 7.16607 7.36729 15.1076 15.7804 0.481054 5.40097 45.4214
5976764 7.14017 7.32048 15.1286 15.8642 0.503737 5.45574 45.4535
5976778 7.13154 7.32985 15.2863 15.8921 0.440454 5.49424 45.6398
5976784 7.13154 7.32985 15.2863 15.8921 0.440454 5.49424 45.6398
5976794 7.14881 7.35793 15.2338 15.8642 0.460228 5.45708 45.6047
5976804 7.11427 7.36729 15.3704 15.8456 0.39835 5.493 45.6976
5976814 7.11427 7.36729 15.3704 15.8456 0.39835 5.493 45.6976
5976825 7.17471 7.32985 15.3704 15.8269 0.334585 5.47882 45.7019
5976834 7.17471 7.32985 15.3704 15.8269 0.334585 5.47882 45.7019
5976844 7.12291 7.35793 15.3074 15.8083 0.403532 5.47241 45.5965
5976854 7.12291 7.32048 15.3179 15.7711 0.357324 5.48365 45.5323
5976864 7.12291 7.32048 15.3179 15.7711 0.357324 5.48365 45.5323
5976874 7.16607 7.4609 15.2863 15.7152 0.396529 5.38301 45.6285
5976885 7.21788 7.4609 15.2758 15.6035 0.313178 5.33403 45.5581
5976894 7.21788 7.4609 15.2758 15.6035 0.313178 5.33403 45.5581
5976907 7.23514 7.47963 15.2022 15.5104 0.304145 5.28245 45.4274
5976914 7.23514 7.47963 15.2022 15.5104 0.304145 5.28245 45.4274
5976924 7.29558 7.57324 15.0971 15.4452 0.344518 5.1772 45.4111
5976934 7.37329 7.62941 15.1286 15.4173 0.299016 5.11868 45.5486
5976944 7.37329 7.62941 15.1286 15.4173 0.299016 5.11868 45.5486
5976954 7.45962 7.61068 15.034 15.4359 0.30356 5.07232 45.5402
5976974 7.51143 7.72302 14.9184 15.2963 0.324264 4.94406 45.4491
5976984 7.5546 7.77918 14.8763 15.2125 0.308636 4.87258 45.4226
5976996 7.5546 7.77918 14.8763 15.2125 0.308636 4.87258 45.4226
5977004 7.59777 7.84471 14.8658 15.1473 0.29065 4.8082 45.4556
5977016 7.70137 7.89152 14.9079 15.0915 0.204945 4.73976 45.5922
5977025 7.70137 7.89152 14.9079 15.0915 0.204945 4.73976 45.5922
5977038 7.6323 7.91024 14.9394 15.1194 0.251052 4.77494 45.6013
5977046 7.6323 7.78855 15.034 15.1846 0.168049 4.86347 45.6394
5977057 7.6323 7.78855 15.034 15.1846 0.168049 4.86347 45.6394
5977065 7.64957 7.76046 15.0235 15.2218 0.169307 4.87411 45.6553
5977078 7.64957 7.76046 15.0235 15.2218 0.169307 4.87411 45.6553
5977085 7.61503 7.71366 15.0025 15.1659 0.144011 4.89253 45.4971
5977095 7.70137 7.72302 15.0235 15.1008 0.0542879 4.84094 45.5487
5977105 7.70137 7.72302 15.0235 15.1008 0.0542879 4.84094 45.5487
5977118 7.59777 7.7043 15.055 15.1287 0.0990361 4.90758 45.4858
5977138 7.6323 7.66685 15.1602 15.0356 -0.0494704 4.91152 45.4949
5977146 7.6582 7.66685 15.2653 15.0356 -0.121127 4.92346 45.626
5977161 7.6582 7.66685 15.2653 15.0356 -0.121127 4.92346 45.626
5977166 7.6064 7.65749 15.3074 15.0542 -0.110713 4.96357 45.6255
5977176 7.6064 7.63877 15.381 15.0077 -0.18677 4.97771 45.6338
5977196 7.61503 7.5826 15.402 15.0356 -0.218479 5.00927 45.6352
5977206 7.52869 7.4609 15.4966 15.0077 -0.305931 5.11542 45.4939
5977216 7.52869 7.4609 15.4966 15.0077 -0.305931 5.11542 45.4939
5977236 7.54596 7.50771 15.5176 14.9146 -0.352478 5.07142 45.4859
5977237 7.54596 7.50771 15.5176 14.9146 -0.352478 5.07142 45.4859
5977248 7.5805 7.44218 15.5281 14.8587 -0.444701 5.0752 45.4095
5977259 7.53733 7.4609 15.5071 14.9053 -0.373416 5.09159 45.4106
5977270 7.53733 7.4609 15.5071 14.9053 -0.373416 5.09159 45.4106
5977277 7.58913 7.50771 15.5597 14.8587 -0.429741 5.04937 45.5152
5977289 7.52006 7.49835 15.5597 14.9239 -0.361255 5.09818 45.502
5977299 7.52006 7.49835 15.5597 14.9239 -0.361255 5.09818 45.502
5977311 7.62367 7.51707 15.6648 14.9332 -0.458159 5.0692 45.7387
5977319 7.62367 7.51707 15.6648 14.9332 -0.458159 5.0692 45.7387
5977327 7.61503 7.44218 15.5912 14.9239 -0.460912 5.08792 45.5723
5977337 7.61503 7.52643 15.5176 14.9425 -0.363873 5.03886 45.6016
5977353 7.61503 7.52643 15.5176 14.9425 -0.363873 5.03886 45.6016
5977359 7.6064 7.53579 15.4966 14.8401 -0.3997 5.0115 45.4789
5977369 7.64957 7.60132 15.4545 14.8215 -0.374132 4.95041 45.5269
5977379 7.64957 7.60132 15.4545 14.8215 -0.374132 4.95041 45.5269
5977389 7.6582 7.53579 15.444 14.8028 -0.420104 4.96895 45.4409
5977399 7.6582 7.53579 15.444 14.8028 -0.420104 4.96895 45.4409
5977409 7.6582 7.52643 15.5176 14.868 -0.428665 5.00359 45.5703
5977419 7.62367 7.60132 15.5071 14.9053 -0.341937 4.99176 45.6374
5977429 7.62367 7.60132 15.5071 14.9053 -0.341937 4.99176 45.6374
5977439 7.62367 7.5826 15.5071 15.0077 -0.295551 5.02236 45.721
5977449 7.57186 7.54515 15.5071 14.9704 -0.308916 5.05341 45.5946
5977460 7.57186 7.54515 15.5071 14.9704 -0.308916 5.05341 45.5946
5977469 7.53733 7.57324 15.4966 15.0449 -0.227691 5.07018 45.6521
5977480 7.53733 7.57324 15.4966 15.0449 -0.227691 5.07018 45.6521
5977490 7.53733 7.50771 15.4651 15.1101 -0.210764 5.10633 45.6202
5977500 7.53733 7.53579 15.423 15.1473 -0.151843 5.09291 45.6434
5977510 7.53733 7.53579 15.423 15.1473 -0.151843 5.09291 45.6434
5977520 7.42509 7.48899 15.444 15.1659 -0.11763 5.17174 45.524
5977530 7.44236 7.55452 15.3704 15.1287 -0.0712067 5.11108 45.496
5977540 7.44236 7.55452 15.3704 15.1287 -0.0712067 5.11108 45.496
5977550 7.47689 7.61068 15.3389 15.1566 -0.0265911 5.07028 45.5831
5977571 7.44236 7.59196 15.3915 15.0728 -0.0928745 5.08696 45.4986
5977580 7.45099 7.55452 15.5071 15.1566 -0.135189 5.14292 45.6692
5977590 7.45099 7.55452 15.5071 15.1566 -0.135189 5.14292 45.6692
5977601 7.45962 7.4609 15.5597 15.2497 -0.168748 5.21175 45.7299
5977611 7.39055 7.39537 15.6964 15.3521 -0.185122 5.32217 45.8344
5977621 7.39055 7.39537 15.6964 15.3521 -0.185122 5.32217 45.8344
5977631 7.35602 7.30176 15.7594 15.4173 -0.216201 5.40607 45.8345
5977641 7.35602 7.30176 15.7594 15.4173 -0.216201 5.40607 45.8345
5977651 7.32148 7.14262 15.7174 15.2777 -0.340186 5.45466 45.4591
5977662 7.26105 7.19879 15.8435 15.1846 -0.396389 5.46351 45.4879
5977681 7.33012 7.18943 15.9382 15.0728 -0.552383 5.43309 45.5305
5977691 7.24378 7.15198 15.9382 15.0449 -0.542681 5.48294 45.3788
5977701 7.24378 7.15198 15.9382 15.0449 -0.542681 5.48294 45.3788
5977711 7.27831 7.09582 16.0853 15.0542 -0.666626 5.5254 45.5137
5977722 7.27831 7.09582 16.0853 15.0542 -0.666626 5.5254 45.5137
5977731 7.26968 7.02093 16.1905 15.1008 -0.734098 5.59454 45.5818
5977744 7.26105 6.97412 16.4533 15.0728 -0.910923 5.66777 45.7613
5977751 7.26105 6.97412 16.4533 15.0728 -0.910923 5.66777 45.7613
5977764 7.20924 6.93667 16.4638 15.1752 -0.852433 5.73108 45.785
5977774 7.20924 6.93667 16.4638 15.1752 -0.852433 5.73108 45.785
5977783 7.24378 6.87115 16.4638 15.1473 -0.923508 5.73947 45.7261
5977791 7.23514 6.93667 16.5269 15.1194 -0.930847 5.72082 45.8181
5977812 7.28695 6.96476 16.3271 15.0542 -0.873886 5.63067 45.6331
5977825 7.30422 7.03029 16.2536 15.1008 -0.78067 5.58774 45.6888
5977832 7.30422 7.03029 16.2536 15.1008 -0.78067 5.58774 45.6888
5977842 7.25241 7.05837 16.1694 15.0542 -0.718838 5.57146 45.5345
5977852 7.28695 7.09582 16.0748 15.1287 -0.623688 5.53481 45.5863
5977863 7.28695 7.09582 16.0748 15.1287 -0.623688 5.53481 45.5863
5977876 7.34738 7.13326 16.0643 15.138 -0.624102 5.49056 45.683
5977899 7.35602 7.18943 16.0117 15.2032 -0.532752 5.46417 45.7604
5977911 7.38192 7.1707 15.9066 15.1101 -0.552872 5.41946 45.5693
5977913 7.38192 7.1707 15.9066 15.1101 -0.552872 5.41946 45.5693
5977922 7.38192 7.22687 15.8856 15.2404 -0.437424 5.41728 45.7348
5977932 7.37329 7.24559 15.8435 15.2218 -0.410116 5.40005 45.6842
5977942 7.37329 7.24559 15.8435 15.2218 -0.410116 5.40005 45.6842
5977952 7.41646 7.23623 15.7174 15.2218 -0.370573 5.35835 45.5919
5977962 7.41646 7.23623 15.7174 15.2218 -0.370573 5.35835 45.5919
5977972 7.42509 7.32985 15.7594 15.0356 -0.44955 5.28214 45.55
5977982 7.45099 7.37665 15.6333 14.9518 -0.416075 5.20474 45.4127
5977994 7.45099 7.37665 15.6333 14.9518 -0.416075 5.20474 45.4127
5978003 7.43372 7.4609 15.5702 15.0449 -0.273626 5.18146 45.5097
5978014 7.43372 7.4609 15.5702 15.0449 -0.273626 5.18146 45.5097
5978022 7.35602 7.34857 15.6122 15.1473 -0.259751 5.29702 45.4641
5978033 7.40782 7.38601 15.6543 15.2963 -0.207582 5.29794 45.7444
5978043 7.40782 7.38601 15.6543 15.2963 -0.207582 5.29794 45.7444
5978052 7.37329 7.45154 15.6438 15.3708 -0.106227 5.29775 45.8394
5978062 7.33875 7.47026 15.4861 15.3708 0.00886023 5.27128 45.6659
5978074 7.33875 7.47026 15.4861 15.3708 0.00886023 5.27128 45.6659
5978083 7.33012 7.40474 15.4651 15.4173 0.0147253 5.30968 45.6172
5978095 7.33012 7.40474 15.4651 15.4173 0.0147253 5.30968 45.6172
5978103 7.29558 7.4141 15.423 15.4639 0.0873774 5.32185 45.5965
5978112 7.34738 7.4609 15.4125 15.5383 0.130773 5.29158 45.7591
5978123 7.34738 7.4609 15.4125 15.5383 0.130773 5.29158 45.7591
5978132 7.34738 7.44218 15.3915 15.5104 0.116947 5.28949 45.6914
5978143 7.32148 7.47963 15.3389 15.4732 0.160265 5.26524 45.6132
5978153 7.32148 7.47963 15.3389 15.4732 0.160265 5.26524 45.6132
5978164 7.28695 7.4609 15.2653 15.5104 0.230131 5.28117 45.5236
5978174 7.28695 7.4609 15.2653 15.5104 0.230131 5.28117 45.5236
5978184 7.26105 7.47026 15.2443 15.529 0.271383 5.28803 45.5046
5978194 7.21788 7.4609 15.2863 15.5476 0.277033 5.3244 45.5128
5978205 7.21788 7.4609 15.2863 15.5476 0.277033 5.3244 45.5128
5978214 7.21788 7.50771 15.1917 15.5756 0.370219 5.2893 45.4929
5978224 7.22651 7.44218 15.1391 15.5849 0.364271 5.30548 45.3927
5978234 7.22651 7.44218 15.1391 15.5849 0.364271 5.30548 45.3927
5978244 7.26105 7.4609 15.2233 15.6221 0.328484 5.30756 45.5673
5978254 7.26105 7.4609 15.2233 15.6221 0.328484 5.30756 45.5673
5978266 7.22651 7.35793 15.2022 15.6407 0.313652 5.36852 45.4274
5978274 7.27831 7.49835 15.1391 15.5942 0.370842 5.25929 45.51
5978295 7.32148 7.59196 15.1076 15.5104 0.369677 5.17375 45.5315
5978308 7.28695 7.63877 15.1076 15.4825 0.39914 5.16228 45.5158
5978314 7.28695 7.63877 15.1076 15.4825 0.39914 5.16228 45.5158
5978324 7.34738 7.69493 15.0866 15.557 0.44758 5.12234 45.6859
5978334 7.34738 7.69493 15.0866 15.557 0.44758 5.12234 45.6859
5978345 7.30422 7.61068 15.0866 15.6966 0.501385 5.20863 45.6981
5978354 7.26968 7.63877 15.0235 15.6594 0.551066 5.18994 45.5913
5978365 7.26968 7.63877 15.0235 15.6594 0.551066 5.18994 45.5913
5978374 7.31285 7.56388 15.055 15.6687 0.474042 5.21277 45.6004
5978384 7.31285 7.56388 15.055 15.6687 0.474042 5.21277 45.6004
5978394 7.28695 7.55452 15.013 15.6501 0.497004 5.21539 45.5045
5978404 7.32148 7.61068 15.0025 15.5849 0.478703 5.15884 45.5195
5978415 7.32148 7.61068 15.0025 15.5849 0.478703 5.15884 45.5195
5978425 7.35602 7.62941 14.9079 15.5104 0.482306 5.09854 45.4037
5978435 7.37329 7.61068 14.9184 15.4452 0.421336 5.08725 45.3476
5978445 7.37329 7.61068 14.9184 15.4452 0.421336 5.08725 45.3476
5978456 7.35602 7.71366 14.8868 15.4732 0.519472 5.04857 45.4297
5978475 7.36465 7.64813 14.9394 15.4639 0.444743 5.08316 45.416
5978485 7.39055 7.76982 14.9604 15.4266 0.464058 5.01455 45.5474
5978496 7.39055 7.76982 14.9604 15.4266 0.464058 5.01455 45.5474
5978506 7.42509 7.77918 14.8973 15.3987 0.470021 4.97527 45.5003
5978516 7.45962 7.77918 14.9184 15.4452 0.464025 4.975 45.6024
5978542 7.40782 7.78855 14.9499 15.4545 0.485387 5.00257 45.6008
5978552 7.45099 7.72302 14.9499 15.408 0.40088 5.00217 45.5319
5978556 7.45099 7.72302 14.9499 15.408 0.40088 5.00217 45.5319
5978566 7.40782 7.74174 14.9604 15.3708 0.409105 5.00705 45.4807
5978576 7.40782 7.74174 14.9604 15.3708 0.409105 5.00705 45.4807
5978586 7.44236 7.77918 14.8448 15.287 0.429419 4.93135 45.3533
5978597 7.50279 7.81663 14.9709 15.2777 0.340456 4.91436 45.568
5978606 7.50279 7.81663 14.9709 15.2777 0.340456 4.91436 45.568
5978616 7.52869 7.89152 14.9814 15.1939 0.315407 4.85413 45.5955
5978628 7.51143 7.84471 15.013 15.2032 0.287166 4.89114 45.5723
5978638 7.51143 7.84471 15.013 15.2032 0.287166 4.89114 45.5723
5978647 7.51143 7.86344 15.055 15.138 0.238642 4.87783 45.5679
5978657 7.51143 7.86344 15.055 15.138 0.238642 4.87783 45.5679
5978667 7.47689 7.73238 15.0445 15.0542 0.14632 4.92942 45.308
5978678 7.48553 7.79791 15.055 15.0821 0.186858 4.9054 45.4206
5978687 7.48553 7.79791 15.055 15.0821 0.186858 4.9054 45.4206
5978698 7.45962 7.73238 15.055 15.0356 0.13985 4.93521 45.2826
5978707 7.45962 7.73238 15.1602 15.0356 0.0816166 4.95853 45.3878
5978717 7.44236 7.69493 15.1602 15.1194 0.116581 5.0011 45.4169
5978727 7.45099 7.72302 15.2443 15.0635 0.0501722 4.99116 45.4818
5978739 7.45099 7.72302 15.2443 15.0635 0.0501722 4.99116 45.4818
5978747 7.52869 7.7511 15.1812 15.017 0.0319839 4.92053 45.478
5978759 7.51143 7.74174 15.2022 15.017 0.0247717 4.93685 45.4724
5978767 7.51143 7.74174 15.2022 15.017 0.0247717 4.93685 45.4724
5978779 7.5805 7.77918 15.1602 14.8959 -0.0360757 4.85396 45.4158
5978797 7.5546 7.79791 15.2443 14.9518 -0.0269845 4.88827 45.5486
5978807 7.5546 7.81663 15.3284 14.9797 -0.0474021 4.90492 45.6793
5978817 7.5546 7.81663 15.3284 14.9797 -0.0474021 4.90492 45.6793
5978827 7.59777 7.84471 15.2443 14.8773 -0.0658423 4.83247 45.5641
5978839 7.61503 7.80727 15.3074 14.9425 -0.0944927 4.86978 45.6722
5978850 7.61503 7.80727 15.3074 14.9425 -0.0944927 4.86978 45.6722
5978859 7.57186 7.80727 15.3599 14.9146 -0.114971 4.89404 45.6536
5978867 7.57186 7.80727 15.3599 14.9146 -0.114971 4.89404 45.6536
5978877 7.54596 7.77918 15.2968 14.9146 -0.0818327 4.90362 45.5366
5978887 7.52869 7.76982 15.3179 14.9239 -0.0839189 4.92198 45.5403
5978897 7.52869 7.76982 15.3179 14.9239 -0.0839189 4.92198 45.5403
5978908 7.57186 7.7043 15.3389 14.9146 -0.16028 4.93436 45.5296
5978919 7.48553 7.73238 15.3389 14.989 -0.0565365 4.97632 45.5459
5978939 7.48553 7.7511 15.4125 14.9704 -0.096719 4.9802 45.6195
5978959 7.42509 7.67621 15.4756 15.0635 -0.0881478 5.07373 45.6404
5978969 7.36465 7.64813 15.444 15.1473 -0.00725687 5.12407 45.6041
5978980 7.36465 7.64813 15.444 15.1473 -0.00725687 5.12407 45.6041
5978990 7.35602 7.67621 15.4335 15.1101 -0.00178069 5.10513 45.5758
5979001 7.44236 7.66685 15.2758 15.0821 0.0169456 5.03069 45.4672
5979020 7.44236 7.63877 15.2233 15.0077 -0.0105798 5.01515 45.312
5979031 7.36465 7.63877 15.2968 15.0449 0.0122279 5.07386 45.3452
5979041 7.36465 7.63877 15.2968 15.0449 0.0122279 5.07386 45.3452
5979055 7.48553 7.74174 15.3284 15.0821 0.00546575 4.99036 45.6378
5979061 7.48553 7.74174 15.3284 15.0821 0.00546575 4.99036 45.6378
5979071 7.50279 7.77918 15.3494 15.1008 0.0151664 4.97512 45.7322
5979081 7.59777 7.73238 15.3599 15.1752 -0.02729 4.97272 45.8653
5979101 7.5805 7.88216 15.3074 15.1473 0.0771075 4.8975 45.9173
5979113 7.57186 7.79791 15.2653 15.138 0.0539303 4.92654 45.7731
5979123 7.57186 7.79791 15.2653 15.138 0.0539303 4.92654 45.7731
5979135 7.57186 7.66685 15.2127 15.1287 0.00600219 4.97016 45.5802
5979150 7.57186 7.66685 15.2127 15.1287 0.00600219 4.97016 45.5802
5979161 7.47689 7.63877 15.2653 15.1939 0.0496089 5.05 45.5748
5979162 7.38192 7.56388 15.2653 15.2497 0.0914931 5.13714 45.4608
5979172 7.38192 7.56388 15.2653 15.2497 0.0914931 5.13714 45.4608
5979182 7.32148 7.4141 15.4545 15.2311 -0.0720069 5.26738 45.4212
5979194 7.25241 7.37665 15.4125 15.3801 0.0505328 5.33782 45.4216
5979204 7.25241 7.37665 15.4125 15.3801 0.0505328 5.33782 45.4216
5979214 7.18334 7.31112 15.6122 15.4545 -0.0164151 5.45606 45.5613
5979234 7.20924 7.19879 15.6753 15.4732 -0.116673 5.51199 45.5565
5979244 7.19198 7.23623 15.7699 15.4452 -0.15361 5.51678 45.6434
5979256 7.19198 7.23623 15.7699 15.4452 -0.15361 5.51678 45.6434
5979265 7.14881 7.28304 15.833 15.5197 -0.0977799 5.54364 45.7846
5979275 7.16607 7.23623 15.812 15.5011 -0.131655 5.54871 45.7154
5979285 7.16607 7.23623 15.812 15.5011 -0.131655 5.54871 45.7154
5979295 7.12291 7.16134 15.9171 15.5663 -0.17066 5.63689 45.7676
5979305 7.07974 7.13326 15.9171 15.5849 -0.152425 5.67287 45.715
5979315 7.07974 7.13326 15.9171 15.5849 -0.152425 5.67287 45.715
5979326 7.12291 7.08645 15.9382 15.6128 -0.197656 5.68449 45.7603
5979335 7.12291 7.08645 15.9382 15.6128 -0.197656 5.68449 45.7603
5979348 7.08837 7.13326 15.7699 15.5756 -0.0820085 5.63692 45.5671
5979357 7.19198 7.07709 15.7699 15.4639 -0.231288 5.59241 45.5029
5979365 7.19198 7.07709 15.7699 15.4639 -0.231288 5.59241 45.5029
5979375 7.22651 7.14262 15.6543 15.3708 -0.202356 5.50376 45.3942
5979385 7.38192 7.1707 15.5281 15.2963 -0.244109 5.37886 45.377
5979395 7.38192 7.1707 15.5281 15.2963 -0.244109 5.37886 45.377
5979406 7.45099 7.27368 15.4756 15.259 -0.216594 5.28273 45.4593
5979416 7.45099 7.27368 15.4756 15.259 -0.216594 5.28273 45.4593
5979426 7.53733 7.2924 15.4335 15.2497 -0.235492 5.22494 45.513
5979437 7.52006 7.22687 15.444 15.2311 -0.278562 5.26007 45.4221
5979446 7.52006 7.22687 15.444 15.2311 -0.278562 5.26007 45.4221
5979457 7.61503 7.30176 15.3599 15.2497 -0.23254 5.17047 45.5264
5979467 7.5805 7.32048 15.3179 15.2777 -0.164975 5.17442 45.4965
5979486 7.6323 7.48899 15.3074 15.1566 -0.16126 5.04857 45.5853
5979500 7.6323 7.48899 15.3074 15.1566 -0.16126 5.04857 45.5853
5979507 7.64093 7.47963 15.1602 15.1287 -0.106138 5.01051 45.4094
5979517 7.6064 7.47963 15.2233 15.138 -0.11663 5.04163 45.4473
5979526 7.6064 7.47963 15.2233 15.138 -0.11663 5.04163 45.4473
5979536 7.6841 7.54515 15.2127 15.1846 -0.0915766 4.98658 45.6266
5979548 7.5805 7.55452 15.1076 15.1939 0.033167 5.00692 45.4365
5979557 7.5805 7.55452 15.1076 15.1939 0.033167 5.00692 45.4365
5979568 7.66684 7.59196 15.0656 15.259 0.0650495 4.95766 45.5834
5979577 7.66684 7.59196 15.0656 15.259 0.0650495 4.95766 45.5834
5979587 7.67547 7.61068 15.034 15.2777 0.0980616 4.94284 45.5978
5979597 7.64093 7.62941 15.1076 15.287 0.0918806 4.96801 45.6649
5979609 7.64093 7.62941 15.1076 15.287 0.0918806 4.96801 45.6649
5979618 7.64957 7.66685 14.9709 15.2125 0.142217 4.90123 45.4998
5979628 7.64957 7.66685 14.9709 15.2125 0.142217 4.90123 45.4998
5979637 7.61503 7.7043 14.8553 15.138 0.205228 4.85758 45.3126
5979647 7.73591 7.74174 14.7922 15.0821 0.163043 4.76166 45.352
5979658 7.73591 7.74174 14.7922 15.0821 0.163043 4.76166 45.352
5979667 7.71001 7.84471 14.666 14.9984 0.258198 4.68044 45.2191
5979679 7.75317 7.9196 14.6345 14.9704 0.27737 4.61557 45.2777
5979688 7.75317 7.9196 14.6345 14.9704 0.27737 4.61557 45.2777
5979699 7.72727 7.95705 14.624 14.9146 0.287658 4.59532 45.2229
5979709 7.72727 7.95705 14.603 14.9146 0.299424 4.59048 45.2019
5979719 7.80498 8.01322 14.603 14.9425 0.301877 4.53908 45.3637
5979730 7.82224 8.163 14.645 14.989 0.375268 4.48785 45.6193
5979737 7.82224 8.163 14.645 14.989 0.375268 4.48785 45.6193
5979749 7.82224 8.11619 14.7186 14.9984 0.31414 4.52691 45.6554
5979759 7.79634 8.11619 14.7922 15.0542 0.317892 4.56759 45.759
5979771 7.79634 8.11619 14.7922 15.0542 0.317892 4.56759 45.759
5979778 7.72727 8.17236 14.666 15.0728 0.466642 4.54854 45.6385
5979796 7.72727 8.17236 14.666 15.0728 0.466642 4.54854 45.6385
5979816 7.73591 8.13491 14.7186 15.1287 0.44243 4.58565 45.7181
5979817 7.70137 8.11619 14.6555 15.0915 0.466776 4.58561 45.5646
5979820 7.70137 8.11619 14.6555 15.0915 0.466776 4.58561 45.5646
5979829 7.6323 8.02258 14.6871 15.1287 0.457382 4.67144 45.4706
5979839 7.54596 7.96641 14.6871 15.1566 0.490561 4.7396 45.3561
5979849 7.54596 7.96641 14.6871 15.1566 0.490561 4.7396 45.3561
5979859 7.51143 7.92896 14.7817 15.2683 0.496912 4.81738 45.4904
5979869 7.51143 7.92896 14.7817 15.2683 0.496912 4.81738 45.4904
5979881 7.41646 7.8728 14.8132 15.3056 0.522316 4.89877 45.4081
5979890 7.37329 7.84471 14.992 15.3428 0.451285 4.97778 45.5528
5979900 7.37329 7.84471 14.992 15.3428 0.451285 4.97778 45.5528
5979910 7.35602 7.83535 14.9289 15.3708 0.506261 4.98173 45.491
5979922 7.32148 7.78855 14.992 15.3708 0.465035 5.03137 45.4727
5979929 7.32148 7.78855 14.992 15.3708 0.465035 5.03137 45.4727
5979940 7.39919 7.84471 14.9814 15.3614 0.452721 4.96821 45.5868
5979949 7.39919 7.84471 14.9814 15.3614 0.452721 4.96821 45.5868
5979960 7.39919 7.81663 14.9184 15.3149 0.447735 4.95635 45.4491
5979970 7.42509 7.84471 14.9709 15.287 0.403962 4.93813 45.5277
5979980 7.42509 7.84471 14.9709 15.287 0.403962 4.93813 45.5277
5979991 7.46826 7.86344 14.9499 15.2683 0.391668 4.90228 45.5499
5980000 7.49416 7.9196 14.8868 15.1846 0.39748 4.83376 45.4851
5980010 7.49416 7.9196 14.8868 15.1846 0.39748 4.83376 45.4851
5980020 7.62367 7.94769 14.8553 15.1659 0.348011 4.75402 45.5926
5980030 7.62367 7.94769 14.8553 15.1659 0.348011 4.75402 45.5926
5980040 7.67547 7.95705 14.7922 15.0915 0.319022 4.69651 45.5162
5980050 7.71001 8.01322 14.7817 15.0915 0.336087 4.65495 45.5964
5980060 7.71001 8.01322 14.7817 15.0915 0.336087 4.65495 45.5964
5980070 7.74454 7.98513 14.7186 15.0263 0.301412 4.62299 45.4746
5980080 7.76181 8.00385 14.7712 15.0821 0.30306 4.63217 45.619
5980090 7.76181 8.00385 14.7712 15.0821 0.30306 4.63217 45.619
5980101 7.75317 7.94769 14.7502 15.1101 0.304225 4.66166 45.5611
5980121 7.70137 7.9196 14.7607 15.0449 0.27653 4.6838 45.4265
5980131 7.72727 7.84471 14.7817 15.1008 0.240085 4.72247 45.4544
5980142 7.72727 7.84471 14.7817 15.1008 0.240085 4.72247 45.4544
5980151 7.6582 7.81663 14.8132 15.1659 0.281125 4.78649 45.454
5980161 7.61503 7.74174 14.9289 15.2032 0.220385 4.87217 45.4888
5980170 7.61503 7.74174 14.9289 15.2032 0.220385 4.87217 45.4888
5980191 7.61503 7.77918 14.9394 15.2497 0.260228 4.86852 45.5833
5980204 7.52869 7.74174 14.9499 15.2311 0.271854 4.92083 45.4514
5980211 7.54596 7.66685 14.992 15.3149 0.243753 4.97391 45.5197
5980221 7.54596 7.66685 14.992 15.3149 0.243753 4.97391 45.5197
5980234 7.53733 7.63877 15.0761 15.259 0.156227 4.99624 45.5112
5980241 7.52006 7.65749 15.0866 15.2497 0.165102 4.99587 45.5139
5980256 7.52006 7.65749 15.0866 15.2497 0.165102 4.99587 45.5139
5980261 7.49416 7.61068 15.1076 15.2963 0.167656 5.04267 45.5087
5980271 7.49416 7.61068 15.1076 15.2963 0.167656 5.04267 45.5087
5980282 7.45962 7.66685 15.0761 15.2311 0.199339 5.01193 45.4336
5980291 7.47689 7.7043 15.1391 15.259 0.190488 5.00786 45.5794
5980304 7.47689 7.7043 15.1391 15.259 0.190488 5.00786 45.5794
5980311 7.52869 7.69493 15.2233 15.2032 0.0800431 4.99544 45.6501
5980326 7.52869 7.68557 15.1497 15.259 0.1459 4.99565 45.623
5980332 7.52869 7.68557 15.1497 15.259 0.1459 4.99565 45.623
5980342 7.53733 7.71366 15.1181 15.2497 0.168753 4.9706 45.6188
5980352 7.53733 7.71366 15.1181 15.2497 0.168753 4.9706 45.6188
5980362 7.52006 7.68557 15.1181 15.2404 0.157914 4.98843 45.5642
5980373 7.47689 7.71366 15.1391 15.2125 0.170228 4.99353 45.5422
5980382 7.47689 7.71366 15.1391 15.2125 0.170228 4.99353 45.5422
5980394 7.52006 7.73238 15.1602 15.2311 0.155142 4.97511 45.6437
5980402 7.52006 7.73238 15.1602 15.2311 0.155142 4.97511 45.6437
5980415 7.50279 7.68557 15.1497 15.1101 0.0787675 4.97426 45.4481
5980424 7.52869 7.68557 15.1076 15.1846 0.128457 4.97003 45.5064
5980436 7.52869 7.68557 15.1076 15.1846 0.128457 4.97003 45.5064
5980442 7.52869 7.71366 15.0866 15.138 0.129977 4.94279 45.4669
5980459 7.51143 7.74174 15.1497 15.1473 0.125119 4.95404 45.5501
5980462 7.51143 7.74174 15.1497 15.1473 0.125119 4.95404 45.5501
5980472 7.49416 7.7043 15.1076 15.1659 0.147599 4.97287 45.472
5980483 7.49416 7.7043 15.055 15.1659 0.176704 4.96127 45.4194
5980492 7.54596 7.73238 15.055 15.1566 0.158277 4.92415 45.49
5980504 7.62367 7.72302 15.0971 15.0915 0.0514507 4.88914 45.5352
5980516 7.62367 7.72302 15.0971 15.0915 0.0514507 4.88914 45.5352
5980524 7.61503 7.81663 15.0025 15.0263 0.123957 4.81642 45.4604
5980534 7.6841 7.8728 15.0445 15.0449 0.103551 4.77559 45.6463
5980544 7.6841 7.8728 15.0445 15.0449 0.103551 4.77559 45.6463
5980554 7.71864 7.91024 14.9709 14.989 0.115001 4.71533 45.5889
5980564 7.72727 7.85407 14.9394 15.0728 0.142699 4.74767 45.5936
5980585 7.76181 7.8728 14.9394 14.9797 0.0830531 4.70363 45.5537
5980598 7.76181 7.8728 14.9394 14.9797 0.0830531 4.70363 45.5537
5980605 7.70137 7.86344 14.9814 14.8959 0.0421226 4.72444 45.4422
5980619 7.72727 7.90088 14.9394 14.8773 0.061363 4.68322 45.4449
5980625 7.72727 7.90088 14.9394 14.8773 0.061363 4.68322 45.4449
5980635 7.76181 7.85407 14.8343 14.8401 0.0541478 4.65613 45.2902
5980645 7.77908 7.85407 14.9079 14.8494 0.00911057 4.66754 45.3904
5980658 7.77908 7.85407 14.9079 14.8494 0.00911057 4.66754 45.3904
5980665 7.79634 7.84471 14.9079 14.8587 -0.000429153 4.66623 45.4076
5980677 7.79634 7.84471 14.9079 14.8587 -0.000429153 4.66623 45.4076
5980685 7.75317 7.90088 14.9709 14.8494 0.0143856 4.67283 45.4744
5980698 7.77908 7.8728 15.055 14.8494 -0.0614196 4.69284 45.5563
5980715 7.78771 7.8728 15.1181 14.8308 -0.110863 4.69916 45.6094
5980726 7.74454 7.9196 14.9709 14.8308 0.0191927 4.66424 45.4659
5980735 7.74454 7.9196 14.9709 14.8308 0.0191927 4.66424 45.4659
5980745 7.74454 7.8728 15.055 14.8215 -0.0578731 4.70146 45.4938
5980755 7.74454 7.8728 15.055 14.8215 -0.0578731 4.70146 45.4938
5980766 7.66684 7.84471 15.1391 14.8494 -0.0614673 4.77263 45.5001
5980775 7.69274 7.85407 15.1076 14.8308 -0.0634789 4.74602 45.4852
5980786 7.69274 7.85407 15.1076 14.8308 -0.0634789 4.74602 45.4852
5980795 7.71864 7.86344 15.0971 14.8773 -0.0411391 4.73885 45.5565
5980816 7.61503 7.7511 15.1707 14.9704 -0.0352636 4.8701 45.5072
5980828 7.61503 7.68557 15.2758 14.9797 -0.123772 4.92413 45.5562
5980836 7.61503 7.68557 15.2758 14.9797 -0.123772 4.92413 45.5562
5980846 7.62367 7.74174 15.2022 14.9332 -0.0829488 4.86914 45.5008
5980857 7.59777 7.81663 15.1917 14.9146 -0.0320077 4.84128 45.5207
5980867 7.59777 7.81663 15.1917 14.9146 -0.0320077 4.84128 45.5207
5980880 7.62367 7.79791 15.1181 14.9146 -0.0161216 4.8217 45.4543
5980887 7.64957 7.82599 15.1497 14.8959 -0.0424474 4.80108 45.5212
5980902 7.64957 7.82599 15.1497 14.8959 -0.0424474 4.80108 45.5212
5980908 7.6323 7.82599 15.2233 14.9332 -0.0528201 4.83336 45.6147
5980927 7.59777 7.83535 15.1917 14.8773 -0.0421941 4.8248 45.5022
5980937 7.6323 7.83535 15.1917 14.9053 -0.0457615 4.81601 45.5646
5980948 7.6323 7.83535 15.1917 14.9053 -0.0457615 4.81601 45.5646
5980957 7.66684 7.9196 15.0866 14.9053 0.0391871 4.74088 45.5783
5980970 7.69274 7.8728 14.992 14.868 0.0308812 4.72018 45.4255
5980977 7.69274 7.8728 14.992 14.868 0.0308812 4.72018 45.4255
5980992 7.71001 7.97577 15.034 14.8401 0.0394225 4.67132 45.5599
5980997 7.71001 7.97577 15.034 14.8401 0.0394225 4.67132 45.5599
5981007 7.64957 7.9196 15.013 14.8401 0.0534624 4.71704 45.4222
5981018 7.72727 7.97577 14.992 14.8959 0.0836164 4.667 45.591
5981027 7.72727 7.97577 14.992 14.8959 0.0836164 4.667 45.591
5981039 7.79634 8.01322 15.0235 14.9332 0.0691354 4.63676 45.7662
5981047 7.79634 8.01322 14.992 14.9332 0.0864238 4.62961 45.7347
5981057 7.67547 7.89152 14.992 14.9425 0.0915259 4.73638 45.5014
5981067 7.69274 7.94769 15.0235 14.9611 0.105515 4.71589 45.625
5981077 7.69274 7.94769 15.0235 14.9611 0.105515 4.71589 45.625
5981096 7.59777 7.85407 15.1391 14.9425 0.0327557 4.81946 45.5335
5981099 7.53733 7.82599 15.034 14.9984 0.139335 4.84706 45.3957
5981119 7.56323 7.76982 15.0971 14.989 0.0542432 4.87231 45.4192
5981130 7.54596 7.79791 15.055 15.0263 0.122833 4.8665 45.4252
5981141 7.54596 7.79791 15.055 15.0263 0.122833 4.8665 45.4252
5981152 7.52006 7.80727 15.0761 15.0542 0.145936 4.88464 45.4576
5981160 7.52006 7.80727 15.0761 15.0542 0.145936 4.88464 45.4576
5981173 7.48553 7.74174 15.1286 15.0356 0.0898719 4.93605 45.3915
5981180 7.53733 7.79791 15.2233 15.1101 0.0806928 4.92618 45.6686
5981192 7.53733 7.79791 15.2233 15.1101 0.0806928 4.92618 45.6686
5981200 7.45962 7.82599 15.2653 15.0915 0.10545 4.95301 45.6424
5981212 7.48553 7.76982 15.2022 15.0821 0.090152 4.9503 45.5397
5981231 7.48553 7.79791 15.2653 15.1846 0.126621 4.97442 45.7333
5981251 7.44236 7.73238 15.2233 15.1566 0.122598 5.00668 45.5546
5981261 7.43372 7.74174 15.2338 15.1846 0.14191 5.01478 45.5938
5981281 7.45099 7.7043 15.1707 15.1752 0.14168 5.00777 45.5012
5981292 7.42509 7.72302 15.2022 15.1101 0.113165 5.00354 45.4604
5981311 7.43372 7.67621 15.2758 15.1566 0.0676811 5.04668 45.5424
5981321 7.43372 7.67621 15.2758 15.1566 0.0676811 5.04668 45.5424
5981332 7.30422 7.66685 15.3284 15.1939 0.125358 5.12752 45.4933
5981344 7.37329 7.64813 15.3179 15.287 0.13366 5.12318 45.6263
5981353 7.37329 7.64813 15.3179 15.287 0.13366 5.12318 45.6263
5981362 7.36465 7.66685 15.3494 15.2497 0.110951 5.1175 45.6306
5981374 7.31285 7.61068 15.3704 15.2777 0.112489 5.17577 45.5716
5981382 7.31285 7.61068 15.3704 15.2777 0.112489 5.17577 45.5716
5981395 7.33875 7.65749 15.381 15.3149 0.138253 5.15394 45.6921
5981402 7.33875 7.65749 15.381 15.3149 0.138253 5.15394 45.6921
5981413 7.32148 7.61068 15.381 15.3149 0.122264 5.18224 45.628
5981422 7.35602 7.62004 15.3599 15.3056 0.114855 5.1563 45.6416
5981432 7.35602 7.62004 15.3599 15.3056 0.114855 5.1563 45.6416
5981443 7.28695 7.5826 15.3494 15.2963 0.133204 5.19918 45.5152
5981452 7.33012 7.55452 15.4335 15.2777 0.0375807 5.20658 45.5958
5981462 7.33012 7.55452 15.4335 15.2777 0.0375807 5.20658 45.5958
5981472 7.30422 7.55452 15.5071 15.3708 0.0622869 5.25372 45.7366
5981482 7.30422 7.55452 15.5071 15.3708 0.0622869 5.25372 45.7366
5981492 7.22651 7.48899 15.5597 15.4173 0.0657111 5.33835 45.6925
5981503 7.22651 7.45154 15.6333 15.4545 0.0252932 5.37839 45.7659
5981513 7.22651 7.45154 15.6333 15.4545 0.0252932 5.37839 45.7659
5981524 7.20924 7.37665 15.5597 15.4545 0.0341415 5.40404 45.6001
5981533 7.19198 7.32048 15.6122 15.4639 -0.0109032 5.44993 45.5886
5981545 7.19198 7.32048 15.6122 15.4639 -0.0109032 5.44993 45.5886
5981553 7.14881 7.36729 15.5702 15.3894 0.0207096 5.42383 45.4757
5981565 7.14881 7.36729 15.5702 15.3894 0.0207096 5.42383 45.4757
5981572 7.17471 7.33921 15.5387 15.4173 0.0237286 5.42405 45.4699
5981586 7.21788 7.30176 15.5807 15.4359 -0.0334322 5.43424 45.5363
5981592 7.21788 7.30176 15.5807 15.4359 -0.0334322 5.43424 45.5363
5981602 7.25241 7.28304 15.6228 15.4452 -0.0805289 5.43792 45.6034
5981612 7.21788 7.16134 15.6438 15.4732 -0.124818 5.5184 45.4962
5981627 7.21788 7.16134 15.6438 15.4732 -0.124818 5.5184 45.4962
5981634 7.27831 7.19879 15.7174 15.6873 -0.0597224 5.53408 45.8818
5981643 7.27831 7.19879 15.7174 15.6873 -0.0597224 5.53408 45.8818
5981655 7.33875 7.14262 15.5492 15.6594 -0.0470176 5.49153 45.6899
5981664 7.34738 7.24559 15.402 15.8176 0.171277 5.44391 45.8126
5981674 7.34738 7.24559 15.402 15.8176 0.171277 5.44391 45.8126
5981684 7.33875 7.25496 15.1602 15.7338 0.269234 5.37518 45.4877
5981695 7.31285 7.20815 15.013 15.7152 0.330138 5.37265 45.2492
5981705 7.31285 7.20815 15.013 15.7152 0.330138 5.37265 45.2492
5981720 7.33875 7.33921 14.9499 15.6314 0.37671 5.27076 45.2593
5981729 7.33875 7.33921 14.9499 15.6314 0.37671 5.27076 45.2593
5981737 7.37329 7.40474 14.992 15.5104 0.303605 5.20899 45.2804
5981745 7.48553 7.33921 15.0445 15.529 0.186229 5.20355 45.3983
5981755 7.48553 7.33921 15.0445 15.529 0.186229 5.20355 45.3983
5981765 7.51143 7.27368 15.1391 15.5197 0.0785708 5.23956 45.444
5981776 7.46826 7.2924 15.381 15.6314 0.0407606 5.32575 45.773
5981785 7.46826 7.2924 15.381 15.6314 0.0407606 5.32575 45.773
5981797 7.52006 7.20815 15.4651 15.6407 -0.0743017 5.35986 45.834
5981805 7.52006 7.20815 15.4651 15.6407 -0.0743017 5.35986 45.834
5981815 7.44236 7.08645 15.5176 15.6594 -0.117142 5.4637 45.7058
5981825 7.46826 7.01156 15.6017 15.6128 -0.243801 5.49347 45.6944
5981835 7.46826 7.01156 15.6017 15.6128 -0.243801 5.49347 45.6944
5981845 7.45099 7.04901 15.6543 15.6128 -0.242241 5.49536 45.7671
5981857 7.38192 6.94604 15.6858 15.5197 -0.330529 5.55995 45.5335
5981866 7.38192 6.94604 15.6858 15.5197 -0.330529 5.55995 45.5335
5981876 7.41646 6.94604 15.6228 15.5104 -0.320236 5.52932 45.4957
5981886 7.41646 6.94604 15.6228 15.5104 -0.320236 5.52932 45.4957
5981896 7.33012 6.92731 15.6543 15.5756 -0.264651 5.59687 45.4873
5981907 7.32148 6.85242 15.7279 15.529 -0.367554 5.64034 45.4308
5981916 7.32148 6.85242 15.7279 15.529 -0.367554 5.64034 45.4308
5981928 7.30422 6.88051 15.7805 15.6221 -0.319189 5.66535 45.5873
5981936 7.29558 6.77753 15.8961 15.6594 -0.413552 5.74717 45.6286
5981946 7.29558 6.77753 15.8961 15.6594 -0.413552 5.74717 45.6286
5981956 7.25241 6.77753 16.0012 15.7059 -0.420992 5.79744 45.7371
5981967 7.25241 6.77753 16.0012 15.7059 -0.420992 5.79744 45.7371
5981976 7.16607 6.74009 15.9592 15.7152 -0.367451 5.84731 45.5806
5981986 7.16607 6.84306 16.0433 15.7525 -0.335029 5.82469 45.8049
5981996 7.16607 6.84306 16.0433 15.7525 -0.335029 5.82469 45.8049
5982006 7.17471 6.82434 16.0959 15.799 -0.352557 5.84908 45.8939
5982018 7.14017 6.73073 16.1274 15.8176 -0.392444 5.91742 45.8159
5982026 7.14017 6.73073 16.1274 15.8176 -0.392444 5.91742 45.8159
5982039 7.11427 6.74009 16.0538 15.7432 -0.375032 5.89554 45.6513
5982046 7.11427 6.74009 16.0538 15.7432 -0.375032 5.89554 45.6513
5982056 7.08837 6.70264 16.0223 15.7525 -0.359659 5.92014 45.5657
5982067 7.14017 6.69328 16.0328 15.7897 -0.377804 5.91019 45.6559
5982081 7.14017 6.69328 16.0328 15.7897 -0.377804 5.91019 45.6559
5982086 7.0452 6.67456 15.9907 15.7432 -0.340022 5.94478 45.4536
5982097 7.03657 6.76817 15.9487 15.6873 -0.291462 5.8861 45.4407
5982107 7.03657 6.76817 15.9487 15.6873 -0.291462 5.8861 45.4407
5982117 7.07974 6.81498 15.9276 15.8269 -0.200143 5.86862 45.6493
5982127 7.07974 6.81498 15.9276 15.8269 -0.200143 5.86862 45.6493
5982137 7.0452 6.78689 15.8751 15.8828 -0.13741 5.89794 45.59
5982147 7.0711 6.79626 15.9382 15.8735 -0.185812 5.89252 45.679
5982157 7.0711 6.79626 15.9382 15.8735 -0.185812 5.89252 45.679
5982167 7.18334 6.88051 15.8225 15.8642 -0.142711 5.77791 45.7505
5982180 7.18334 6.88051 15.8225 15.8642 -0.142711 5.77791 45.7505
5982188 7.14017 6.89923 15.7069 15.8735 -0.0407234 5.76755 45.6198
5982197 7.19198 6.9554 15.6438 15.799 -0.0446111 5.69051 45.5902
5982209 7.19198 6.9554 15.6438 15.799 -0.0446111 5.69051 45.5902
5982219 7.19198 7.03965 15.5702 15.7618 0.0215381 5.62961 45.5636
5982229 7.24378 7.13326 15.444 15.7338 0.0983924 5.53206 45.5549
5982239 7.24378 7.13326 15.444 15.7338 0.0983924 5.53206 45.5549
5982249 7.33875 7.2924 15.3179 15.6594 0.161779 5.37601 45.6084
5982259 7.28695 7.2924 15.2022 15.6594 0.2545 5.37475 45.4409
5982270 7.28695 7.2924 15.2022 15.6594 0.2545 5.37475 45.4409
5982279 7.41646 7.4141 15.2863 15.557 0.146836 5.25883 45.6738
5982300 7.39055 7.33921 15.2127 15.5197 0.140572 5.28 45.4622
5982310 7.48553 7.39537 15.1812 15.4452 0.0955254 5.19 45.5073
5982320 7.48553 7.39537 15.1812 15.4452 0.0955254 5.19 45.5073
5982330 7.50279 7.44218 15.1707 15.3987 0.0919402 5.14928 45.5143
5982340 7.47689 7.43282 15.2338 15.2963 0.0101447 5.15639 45.4398
5982351 7.47689 7.43282 15.2338 15.2963 0.0101447 5.15639 45.4398
5982362 7.56323 7.4609 15.2127 15.259 -0.0307888 5.09309 45.4959
5982381 7.52006 7.54515 15.2863 15.2125 -0.0267491 5.08085 45.564
5982391 7.5805 7.61068 15.2338 15.1659 -0.0206441 5.0038 45.5909
5982400 7.5805 7.61068 15.2338 15.1659 -0.0206441 5.0038 45.5909
5982411 7.52006 7.67621 15.2338 15.1101 0.0178218 4.98931 45.5401
5982420 7.5546 7.7043 15.0866 15.0356 0.0543803 4.91283 45.3811
5982432 7.5546 7.7043 15.0866 15.0356 0.0543803 4.91283 45.3811
5982440 7.59777 7.79791 15.055 14.9984 0.0789136 4.83763 45.4491
5982461 7.62367 7.7511 15.0445 14.8773 -0.0219464 4.81728 45.2966
5982471 7.70137 7.74174 15.1707 14.9239 -0.113332 4.82615 45.5377
5982481 7.70137 7.74174 15.1707 14.9239 -0.113332 4.82615 45.5377
5982492 7.75317 7.85407 15.2127 14.8866 -0.123177 4.75603 45.7066
5982501 7.73591 7.74174 15.2022 14.9704 -0.12375 4.82856 45.6503
5982511 7.73591 7.74174 15.2022 14.9704 -0.12375 4.82856 45.6503
5982522 7.85678 7.86344 15.1707 14.8959 -0.146374 4.69996 45.7868
5982531 7.85678 7.86344 15.1707 14.8959 -0.146374 4.69996 45.7868
5982542 7.87405 7.88216 15.0971 14.7377 -0.192639 4.63202 45.591
5982551 7.93448 7.94769 14.9289 14.626 -0.159407 4.51372 45.437
5982563 7.93448 7.94769 14.9289 14.626 -0.159407 4.51372 45.437
5982571 7.97765 7.94769 14.8763 14.5794 -0.180072 4.47225 45.3811
5982581 7.97765 7.94769 14.8763 14.5794 -0.180072 4.47225 45.3811
5982592 7.98629 7.96641 14.8132 14.5515 -0.155368 4.43936 45.3174
5982601 7.96039 7.99449 14.8658 14.4677 -0.200938 4.43114 45.2884
5982611 7.96039 7.99449 14.8658 14.4677 -0.200938 4.43114 45.2884
5982621 7.93448 8.03194 14.7607 14.5049 -0.0874847 4.41032 45.232
5982631 7.93448 7.96641 14.8448 14.6073 -0.113283 4.48191 45.353
5982641 7.93448 7.96641 14.8448 14.6073 -0.113283 4.48191 45.353
5982651 7.96039 7.96641 14.8448 14.6818 -0.086315 4.48805 45.4534
5982662 7.96039 7.96641 14.8448 14.6818 -0.086315 4.48805 45.4534
5982673 7.91722 7.9196 14.9184 14.7284 -0.103121 4.55437 45.4836
5982682 7.98629 7.96641 14.9184 14.7563 -0.0996932 4.5111 45.6274
5982695 7.98629 7.96641 14.9184 14.7563 -0.0996932 4.5111 45.6274
5982702 7.87405 8.00385 14.8132 14.7284 0.0247359 4.5125 45.4195
5982713 7.92585 7.98513 14.7712 14.7842 0.0397682 4.50149 45.4664
5982723 7.92585 7.98513 14.7712 14.7842 0.0397682 4.50149 45.4664
5982733 7.92585 8.06002 14.8343 14.7656 0.0359327 4.47969 45.5857
5982747 7.92585 8.06002 14.8343 14.7656 0.0359327 4.47969 45.5857
5982753 7.91722 8.01322 14.7817 14.7935 0.059247 4.49773 45.5057
5982762 7.90858 7.98513 14.7081 14.8494 0.119823 4.50938 45.4512
5982772 7.90858 7.98513 14.7081 14.8494 0.119823 4.50938 45.4512
5982783 7.90858 8.08811 14.6555 14.7749 0.1645 4.43582 45.4271
5982797 7.89995 8.02258 14.6135 14.7935 0.166938 4.46216 45.3295
5982802 7.89995 8.02258 14.6135 14.7935 0.166938 4.46216 45.3295
5982812 7.87405 8.09747 14.5925 14.8401 0.259367 4.44708 45.4041
5982822 7.87405 8.09747 14.5925 14.8401 0.259367 4.44708 45.4041
5982832 7.89995 8.06002 14.5925 14.8494 0.229624 4.45419 45.4018
5982842 7.89995 8.05066 14.6555 14.8587 0.194594 4.47499 45.4649
5982852 7.89995 8.05066 14.6555 14.8587 0.194594 4.47499 45.4649
5982862 7.90858 8.07874 14.6135 14.8308 0.213209 4.44303 45.4316
5982875 7.87405 8.06002 14.645 14.8494 0.214815 4.47748 45.4285
5982884 7.87405 8.06002 14.645 14.8494 0.214815 4.47748 45.4285
5982896 7.89995 8.12555 14.624 14.9053 0.27816 4.44644 45.5548
5982914 7.90858 8.02258 14.5504 14.868 0.237936 4.4611 45.3496
5982924 7.94312 8.08811 14.624 14.8215 0.188258 4.42454 45.4767
5982934 7.94312 8.08811 14.624 14.8215 0.188258 4.42454 45.4767
5982944 7.97765 8.15363 14.5294 14.8308 0.26235 4.36199 45.4914
5982954 7.95175 8.10683 14.5189 14.8308 0.257111 4.39053 45.4082
5982964 7.95175 8.10683 14.5189 14.8308 0.257111 4.39053 45.4082
5982974 7.99492 8.2098 14.5189 14.7656 0.253701 4.31303 45.4892
5982984 7.99492 8.2098 14.5189 14.7656 0.253701 4.31303 45.4892
5982993 7.95175 8.19108 14.4137 14.8028 0.346369 4.32338 45.3594
5983004 8.00356 8.21916 14.4558 14.8122 0.31434 4.30151 45.4907
5983023 8.00356 8.21916 14.4558 14.8122 0.31434 4.30151 45.4907
5983025 7.96902 8.24725 14.3401 14.7656 0.388166 4.26596 45.322
5983035 8.01219 8.27533 14.3506 14.8587 0.423765 4.26024 45.4969
5983046 8.01219 8.27533 14.3506 14.8587 0.423765 4.26024 45.4969
5983056 8.02946 8.26597 14.2455 14.8587 0.467899 4.23201 45.3997
5983066 7.99492 8.18172 14.3401 14.868 0.393677 4.30701 45.3848
5983076 7.99492 8.18172 14.3401 14.868 0.393677 4.30701 45.3848
5983086 7.98629 8.23789 14.2876 14.8122 0.428134 4.26118 45.3239
5983096 7.98629 8.23789 14.2876 14.8122 0.428134 4.26118 45.3239
5983106 7.97765 8.27533 14.2771 14.7191 0.40867 4.22433 45.2491
5983116 8.06399 8.29405 14.256 14.7749 0.412515 4.1881 45.389
5983136 8.07263 8.3783 14.3191 14.747 0.402901 4.15729 45.517
5983146 8.00356 8.29405 14.3822 14.7842 0.380817 4.24582 45.464
5983167 8.02082 8.28469 14.4453 14.6725 0.270292 4.23095 45.4233
5983177 8.02082 8.28469 14.4453 14.6725 0.270292 4.23095 45.4233
5983189 7.97765 8.21916 14.4768 14.6911 0.251201 4.28894 45.3648
5983199 8.07263 8.18172 14.4348 14.6632 0.186062 4.24795 45.3523
5983209 8.07263 8.18172 14.4348 14.6632 0.186062 4.24795 45.3523
5983223 8.00356 8.17236 14.5399 14.6725 0.166023 4.30832 45.3883
5983229 7.96039 8.17236 14.5819 14.6818 0.171739 4.33878 45.3965
5983239 7.96039 8.17236 14.5819 14.6818 0.171739 4.33878 45.3965
5983249 7.92585 8.163 14.7502 14.7284 0.118154 4.40765 45.5674
5983259 7.92585 8.163 14.7502 14.7284 0.118154 4.40765 45.5674
5983269 7.91722 8.09747 14.6976 14.7004 0.100797 4.42057 45.4127
5983279 7.92585 8.08811 14.8132 14.7284 0.0424683 4.45422 45.5556
5983289 7.92585 8.08811 14.8132 14.7284 0.0424683 4.45422 45.5556
5983298 7.89132 8.0413 14.8448 14.6818 -0.00713319 4.48555 45.4592
5983309 7.94312 7.98513 14.7712 14.6818 -0.026083 4.47038 45.3812
5983320 7.94312 7.98513 14.7712 14.6818 -0.026083 4.47038 45.3812
5983330 7.87405 8.00385 14.8763 14.6632 -0.0458568 4.51202 45.4174
5983344 7.87405 8.00385 14.8763 14.6632 -0.0458568 4.51202 45.4174
5983350 7.91722 7.94769 14.8448 14.6166 -0.10902 4.49954 45.3263
5983360 7.86541 7.9196 14.8343 14.7191 -0.0336453 4.55518 45.3383
5983380 7.89132 7.93833 14.9184 14.6446 -0.124897 4.53818 45.3926
5983390 7.91722 7.88216 14.9289 14.7284 -0.129557 4.57289 45.4566
5983400 7.91722 7.88216 14.9289 14.7284 -0.129557 4.57289 45.4566
5983411 7.85678 7.9196 14.9184 14.7935 -0.0340775 4.59531 45.4883
5983420 7.85678 7.9196 14.9184 14.7935 -0.0340775 4.59531 45.4883
5983431 7.86541 7.83535 14.9079 14.7749 -0.0897899 4.62128 45.3835
5983440 7.85678 7.84471 14.9394 14.7563 -0.107476 4.62392 45.3972
5983460 7.88268 7.91024 14.9079 14.7004 -0.0990361 4.56443 45.4012
5983470 7.90858 7.94769 14.9079 14.6818 -0.102831 4.53288 45.4459
5983480 7.90858 7.94769 14.9079 14.6818 -0.102831 4.53288 45.4459
5983490 7.95175 7.97577 14.8448 14.6073 -0.117572 4.47048 45.3796
5983500 7.95175 7.97577 14.8448 14.6073 -0.117572 4.47048 45.3796
5983510 7.94312 7.90088 14.8553 14.598 -0.165297 4.50666 45.2973
5983520 8.01219 7.93833 14.9604 14.6166 -0.229332 4.48955 45.5276
5983532 8.01219 7.93833 14.9604 14.6166 -0.229332 4.48955 45.5276
5983541 7.98629 8.00385 14.9394 14.5701 -0.193258 4.45697 45.4996
5983551 7.92585 7.99449 14.9709 14.6073 -0.162065 4.50275 45.4986
5983561 7.92585 7.99449 14.9709 14.6073 -0.162065 4.50275 45.4986
5983571 7.90858 7.96641 15.0025 14.5794 -0.200871 4.52304 45.4569
5983591 7.92585 7.84471 14.9184 14.6818 -0.175051 4.5722 45.3708
5983601 7.88268 7.89152 15.0025 14.7377 -0.140592 4.60271 45.5144
5983611 7.88268 7.89152 15.0025 14.7377 -0.140592 4.60271 45.5144
5983621 7.81361 7.86344 14.992 14.7097 -0.128026 4.63587 45.3788
5983631 7.85678 7.84471 15.0025 14.747 -0.147167 4.63619 45.451
5983663 7.83951 7.84471 15.0866 14.7656 -0.173363 4.66702 45.5364
5983664 7.83951 7.84471 15.0866 14.7656 -0.173363 4.66702 45.5364
5983671 7.78771 7.82599 15.1602 14.7749 -0.19044 4.71628 45.5488
5983681 7.80498 7.81663 15.2338 14.8122 -0.224423 4.73783 45.6675
5983691 7.80498 7.81663 15.2338 14.8122 -0.224423 4.73783 45.6675
5983701 7.86541 7.78855 15.1707 14.7842 -0.253966 4.70335 45.6089
5983711 7.86541 7.78855 15.1707 14.7842 -0.253966 4.70335 45.6089
5983721 7.78771 7.76982 15.1812 14.8122 -0.212361 4.75375 45.5509
5983735 7.77908 7.83535 15.2338 14.7656 -0.225744 4.73046 45.6138
5983741 7.77908 7.83535 15.2338 14.7656 -0.225744 4.73046 45.6138
5983751 7.77044 7.69493 15.2653 14.7097 -0.347194 4.78968 45.4404
5983762 7.79634 7.76982 15.2653 14.747 -0.298846 4.75426 45.5785
5983772 7.79634 7.76982 15.2653 14.747 -0.298846 4.75426 45.5785
5983782 7.73591 7.78855 15.2968 14.7563 -0.267626 4.78152 45.5776
5983793 7.81361 7.69493 15.3389 14.7004 -0.415573 4.78533 45.5479
5983803 7.81361 7.69493 15.3389 14.7004 -0.415573 4.78533 45.5479
5983814 7.78771 7.76046 15.3915 14.7377 -0.372742 4.78825 45.6773
5983823 7.78771 7.76046 15.3915 14.7377 -0.372742 4.78825 45.6773
5983833 7.74454 7.7511 15.3704 14.7563 -0.332938 4.8105 45.6224
5983845 7.6841 7.62004 15.3704 14.8494 -0.321315 4.91467 45.524
5983853 7.6841 7.62004 15.3704 14.8494 -0.321315 4.91467 45.524
5983862 7.6582 7.63877 15.4756 14.8866 -0.333105 4.94925 45.6592
5983876 7.62367 7.61068 15.4335 14.8494 -0.327954 4.95918 45.5173
5983884 7.62367 7.61068 15.4335 14.8494 -0.327954 4.95918 45.5173
5983897 7.6323 7.59196 15.4651 14.8494 -0.360134 4.97056 45.5387
5983904 7.6323 7.59196 15.4651 14.8494 -0.360134 4.97056 45.5387
5983914 7.62367 7.54515 15.3599 14.9239 -0.283021 4.98815 45.4526
5983924 7.6064 7.51707 15.444 14.9425 -0.324579 5.03067 45.51
5983934 7.6064 7.51707 15.444 14.9425 -0.324579 5.03067 45.51
5983944 7.61503 7.53579 15.4756 14.8773 -0.372213 5.01126 45.5037
5983955 7.5805 7.55452 15.5176 14.8866 -0.360662 5.02948 45.5393
5983964 7.5805 7.55452 15.5176 14.8866 -0.360662 5.02948 45.5393
5983974 7.64093 7.53579 15.5702 14.8959 -0.426893 5.02469 45.6429
5983995 7.53733 7.57324 15.5176 14.8959 -0.32168 5.04227 45.5241
5984005 7.6064 7.62941 15.5387 14.8494 -0.365077 4.98168 45.6239
5984015 7.6064 7.62941 15.5387 14.8494 -0.365077 4.98168 45.6239
5984025 7.6323 7.64813 15.5071 14.8401 -0.356799 4.95317 45.6276
5984035 7.6323 7.63877 15.4966 14.8401 -0.356323 4.95495 45.6078
5984045 7.6323 7.63877 15.4966 14.8401 -0.356323 4.95495 45.6078
5984055 7.67547 7.62941 15.4651 14.8773 -0.347117 4.94143 45.6473
5984066 7.67547 7.62941 15.4651 14.8773 -0.347117 4.94143 45.6473
5984075 7.64957 7.60132 15.4125 14.8587 -0.330624 4.94935 45.5221
5984085 7.70137 7.68557 15.3494 14.8028 -0.308724 4.8635 45.5392
5984095 7.70137 7.68557 15.3494 14.8028 -0.308724 4.8635 45.5392
5984105 7.69274 7.68557 15.2863 14.8028 -0.269781 4.85321 45.4675
5984115 7.6841 7.61068 15.3074 14.8401 -0.297461 4.90271 45.4422
5984125 7.6841 7.61068 15.3074 14.8401 -0.297461 4.90271 45.4422
5984136 7.67547 7.65749 15.2758 14.8308 -0.254747 4.87691 45.4396
5984156 7.67547 7.65749 15.2968 14.8401 -0.261018 4.88366 45.4699
5984169 7.71864 7.67621 15.3284 14.8959 -0.260234 4.87607 45.6192
5984177 7.71864 7.67621 15.3284 14.8959 -0.260234 4.87607 45.6192
5984187 7.71001 7.73238 15.2548 14.8028 -0.236028 4.81821 45.5
5984197 7.74454 7.76046 15.1497 14.7842 -0.192297 4.76317 45.4389
5984208 7.74454 7.76046 15.1497 14.7842 -0.192297 4.76317 45.4389
5984217 7.83088 7.81663 15.0866 14.8028 -0.163594 4.69133 45.5369
5984228 7.83088 7.81663 15.0866 14.8028 -0.163594 4.69133 45.5369
5984237 7.77044 7.84471 15.0971 14.7842 -0.131106 4.7035 45.4965
5984247 7.81361 7.84471 15.1181 14.7935 -0.161006 4.69168 45.57
5984258 7.81361 7.84471 15.1181 14.7935 -0.161006 4.69168 45.57
5984268 7.82224 7.8728 15.0866 14.7749 -0.14329 4.66446 45.5565
5984285 7.77908 7.84471 14.9499 14.7749 -0.0602841 4.66421 45.3486
5984296 7.77908 7.84471 14.9499 14.7749 -0.0602841 4.66421 45.3486
5984298 7.80498 7.89152 14.9289 14.8308 -0.00635684 4.64068 45.4562
5984310 7.80498 7.89152 14.9289 14.8308 -0.00635684 4.64068 45.4562
5984319 7.77044 7.88216 14.9814 14.747 -0.067617 4.65255 45.381
5984331 7.77908 7.89152 14.992 14.9053 0.0141233 4.68312 45.5678
5984337 7.77908 7.89152 14.992 14.9053 0.0141233 4.68312 45.5678
5984353 7.74454 7.88216 14.9499 14.9332 0.0664115 4.6989 45.5098
5984359 7.6841 7.85407 14.9709 14.9611 0.0880539 4.74834 45.4702
5984369 7.6841 7.85407 14.9709 14.9611 0.0880539 4.74834 45.4702
5984379 7.69274 7.85407 15.0025 15.0077 0.0913858 4.76217 45.557
5984390 7.69274 7.85407 15.0025 15.0077 0.0913858 4.76217 45.557
5984399 7.59777 7.74174 14.992 15.0449 0.108492 4.85849 45.3764
5984410 7.6064 7.7511 15.034 15.0915 0.111109 4.87038 45.483
5984420 7.6064 7.7511 15.034 15.0915 0.111109 4.87038 45.483
5984433 7.51143 7.71366 15.0866 15.1752 0.159878 4.95859 45.4869
5984440 7.53733 7.72302 15.1391 15.1008 0.0809371 4.93829 45.5003
5984450 7.53733 7.72302 15.1391 15.1008 0.0809371 4.93829 45.5003
5984460 7.54596 7.7511 15.1286 15.2404 0.1735 4.95071 45.6661
5984470 7.54596 7.7511 15.1286 15.2404 0.1735 4.95071 45.6661
5984480 7.5805 7.69493 15.0971 15.2218 0.131121 4.94912 45.5943
5984491 7.56323 7.7511 15.0971 15.1846 0.150964 4.92389 45.596
5984500 7.56323 7.7511 15.0971 15.1846 0.150964 4.92389 45.596
5984510 7.56323 7.73238 15.055 15.1008 0.11819 4.9042 45.4514
5984520 7.5546 7.76046 15.2127 15.138 0.0717878 4.93882 45.6658
5984530 7.5546 7.76046 15.2127 15.138 0.0717878 4.93882 45.6658
5984540 7.5805 7.77918 15.2338 15.1101 0.0410229 4.91784 45.7035
5984550 7.5805 7.77918 15.2338 15.1101 0.0410229 4.91784 45.7035
5984560 7.51143 7.74174 15.1707 15.0356 0.0523657 4.934 45.4594
5984570 7.5805 7.72302 15.1602 15.0915 0.0405014 4.92198 45.5551
5984581 7.5805 7.72302 15.1602 15.0915 0.0405014 4.92198 45.5551
5984590 7.54596 7.73238 15.1076 15.0542 0.0731885 4.9131 45.4402
5984601 7.54596 7.7511 15.1076 15.0542 0.0834525 4.9049 45.4589
5984621 7.5805 7.76046 15.0761 15.017 0.0665098 4.87039 45.434
5984641 7.57186 7.74174 15.0866 15.017 0.0551969 4.8847 45.4172
5984651 7.62367 7.74174 15.0866 15.0356 0.0368714 4.8662 45.4876
5984661 7.62367 7.74174 15.0866 15.0356 0.0368714 4.8662 45.4876
5984673 7.6323 7.78855 15.034 14.9984 0.0663251 4.82194 45.4532
5984683 7.6582 7.76982 15.0656 14.9518 -0.00117123 4.81545 45.4454
5984695 7.6582 7.76982 15.0656 14.9518 -0.00117123 4.81545 45.4454
5984703 7.66684 7.80727 15.0866 14.9518 0.00310838 4.8001 45.5125
5984712 7.6323 7.79791 15.0761 14.9797 0.0380754 4.82311 45.486
5984723 7.6323 7.79791 15.0761 14.9797 0.0380754 4.82311 45.486
5984733 7.66684 7.84471 15.0761 14.9611 0.0345379 4.78355 45.5487
5984745 7.66684 7.84471 15.0761 14.9611 0.0345379 4.78355 45.5487
5984752 7.73591 7.79791 15.0971 14.8494 -0.102074 4.75349 45.4803
5984762 7.70137 7.86344 15.0761 14.8866 -0.0150248 4.74369 45.5275
5984772 7.70137 7.86344 15.0761 14.8866 -0.0150248 4.74369 45.5275
5984782 7.71001 7.85407 15.0445 14.8494 -0.0280827 4.72849 45.458
5984802 7.73591 7.83535 15.1181 14.8122 -0.113466 4.73358 45.5015
5984812 7.73591 7.90088 15.0866 14.8401 -0.0447273 4.70439 45.5635
5984832 7.74454 7.8728 15.0656 14.8401 -0.0533849 4.70805 45.523
5984842 7.80498 7.89152 15.0971 14.7935 -0.119008 4.67044 45.5871
5984854 7.80498 7.89152 15.0971 14.7935 -0.119008 4.67044 45.5871
5984864 7.81361 7.86344 15.034 14.8587 -0.0688419 4.67931 45.5698
5984877 7.78771 7.86344 15.0235 14.7656 -0.100224 4.667 45.4403
5984884 7.78771 7.84471 15.0235 14.7656 -0.11057 4.6751 45.4215
5984894 7.82224 7.82599 15.055 14.8215 -0.126208 4.68809 45.5247
5984904 7.82224 7.82599 15.055 14.8215 -0.126208 4.68809 45.5247
5984914 7.83088 7.9196 15.013 14.7097 -0.117934 4.60895 45.4732
5984925 7.83951 7.8728 14.9814 14.7004 -0.136429 4.61609 45.3942
5984934 7.83951 7.8728 14.9814 14.7004 -0.136429 4.61609 45.3942
5984944 7.89132 7.96641 14.992 14.6725 -0.134197 4.54945 45.5222
5984958 7.89132 7.96641 14.992 14.6725 -0.134197 4.54945 45.5222
5984964 7.89995 7.96641 14.9184 14.6725 -0.0986636 4.52882 45.4572
5984974 7.88268 8.00385 14.8658 14.747 0.0012964 4.5252 45.4993
5984984 7.88268 8.00385 14.8658 14.747 0.0012964 4.5252 45.4993
5984994 7.87405 7.98513 14.9499 14.7563 -0.0452772 4.5584 45.5654
5985004 7.89132 8.00385 14.9394 14.7284 -0.0540376 4.53414 45.5629
5985014 7.89132 8.00385 14.9394 14.7284 -0.0540376 4.53414 45.5629
5985024 7.93448 7.93833 14.9604 14.7656 -0.104702 4.5571 45.5988
5985034 7.93448 7.93833 14.9604 14.7656 -0.104702 4.5571 45.5988
5985044 7.84815 7.95705 14.8973 14.8028 0.0079155 4.58022 45.5054
5985054 7.84815 7.92896 14.9079 14.8122 -0.00817478 4.59685 45.4971
5985064 7.84815 7.92896 14.9079 14.8122 -0.00817478 4.59685 45.4971
5985074 7.85678 7.96641 14.9394 14.7656 -0.0352278 4.57359 45.5282
5985084 7.77908 7.8728 14.8343 14.747 0.00356436 4.61919 45.2331
5985095 7.77908 7.8728 14.8343 14.747 0.00356436 4.61919 45.2331
5985105 7.80498 7.90088 14.9814 14.7935 -0.0505731 4.64013 45.4808
5985115 7.80498 7.90088 14.9814 14.7935 -0.0505731 4.64013 45.4808
5985128 7.77908 7.8728 15.055 14.8028 -0.0870526 4.6823 45.5098
5985134 7.79634 7.78855 15.0866 14.8773 -0.11913 4.73526 45.5488
5985145 7.79634 7.78855 15.0866 14.8773 -0.11913 4.73526 45.5488
5985155 7.76181 7.82599 15.1181 14.868 -0.101988 4.739 45.5739
5985165 7.67547 7.81663 15.0866 14.7935 -0.0836864 4.75666 45.3722
5985178 7.67547 7.81663 15.0866 14.7935 -0.0836864 4.75666 45.3722
5985196 7.67547 7.77918 15.2022 14.9053 -0.106038 4.82402 45.5621
5985205 7.64957 7.77918 15.2338 14.9146 -0.103991 4.8444 45.5771
5985218 7.62367 7.76982 15.1812 14.8773 -0.0867486 4.83973 45.452
5985226 7.62367 7.76982 15.1812 14.8773 -0.0867486 4.83973 45.452
5985240 7.74454 7.76982 15.2443 14.868 -0.192313 4.79914 45.6267
5985246 7.67547 7.85407 15.1812 14.9239 -0.0431225 4.79095 45.6346
5985266 7.72727 7.85407 15.1812 14.8494 -0.112362 4.7518 45.6119
5985287 7.71001 7.78855 15.0971 14.8866 -0.0725091 4.77719 45.4823
5985297 7.67547 7.78855 15.1076 14.868 -0.0696063 4.7904 45.4396
5985307 7.67547 7.78855 15.1076 14.868 -0.0696063 4.7904 45.4396
5985317 7.6841 7.78855 15.0866 14.9053 -0.0422761 4.79028 45.4645
5985329 7.67547 7.81663 15.1286 14.868 -0.0656515 4.7829 45.4888
5985347 7.67547 7.8728 15.0971 14.8587 -0.0225574 4.74931 45.5041
5985357 7.6582 7.79791 15.055 14.8866 -0.0158042 4.78621 45.3978
5985369 7.6582 7.79791 15.055 14.8866 -0.0158042 4.78621 45.3978
5985379 7.66684 7.78855 15.1917 14.9611 -0.0596866 4.83382 45.6082
5985391 7.66684 7.78855 15.1917 14.9611 -0.0596866 4.83382 45.6082
5985399 7.6323 7.81663 15.2127 14.989 -0.0215575 4.84752 45.6507
5985412 7.6323 7.80727 15.1707 14.9797 -0.00876337 4.84016 45.59
5985419 7.6323 7.80727 15.1707 14.9797 -0.00876337 4.84016 45.59
5985433 7.6323 7.76982 15.1076 14.9518 -0.0100523 4.83616 45.4615
5985439 7.53733 7.76982 15.1602 14.989 0.0337511 4.89769 45.4564
5985449 7.53733 7.76982 15.1602 14.989 0.0337511 4.89769 45.4564
5985459 7.57186 7.72302 15.2233 14.9518 -0.0661388 4.9088 45.4699
5985469 7.57186 7.72302 15.2233 14.9518 -0.0661388 4.9088 45.4699
5985479 7.6323 7.76982 15.2443 14.9518 -0.084956 4.86662 45.5982
5985489 7.6323 7.85407 15.1812 14.9611 0.000926852 4.818 45.6287
5985500 7.6323 7.85407 15.1812 14.9611 0.000926852 4.818 45.6287
5985509 7.64957 7.86344 15.1497 14.9425 0.00367463 4.79523 45.6052
5985519 7.6323 7.86344 15.1391 14.9425 0.0189155 4.80038 45.5774
5985529 7.6323 7.83535 15.1391 14.9984 0.0341326 4.82506 45.6052
5985540 7.72727 7.92896 15.1917 14.9146 -0.0412181 4.73643 45.7625
5985550 7.72727 7.92896 15.1917 14.9146 -0.0412181 4.73643 45.7625
5985560 7.69274 7.91024 15.0235 14.8401 0.0187457 4.70476 45.4666
5985578 7.71001 7.9196 15.0235 14.8401 0.0143915 4.69322 45.4932
5985580 7.71001 7.9196 15.0235 14.8401 0.0143915 4.69322 45.4932
5985590 7.76181 7.89152 14.9289 14.7935 -0.00310242 4.65086 45.3757
5985600 7.73591 7.89152 14.992 14.7191 -0.0646725 4.65949 45.3384
5985610 7.73591 7.89152 14.992 14.7191 -0.0646725 4.65949 45.3384
5985621 7.77044 7.94769 15.0025 14.8773 0.0285655 4.65866 45.5979
5985630 7.77044 7.94769 15.0025 14.8773 0.0285655 4.65866 45.5979
5985640 7.71001 7.85407 15.034 14.8028 -0.0479594 4.71558 45.4009
5985651 7.69274 7.83535 15.0656 14.9332 0.00562668 4.76773 45.5268
5985662 7.69274 7.83535 15.0656 14.9332 0.00562668 4.76773 45.5268
5985671 7.6841 7.93833 15.0656 14.8959 0.0464082 4.71846 45.5839
5985684 7.74454 7.90088 15.0656 14.9053 -0.00216812 4.71062 45.6162
5985691 7.74454 7.90088 15.0656 14.9053 -0.00216812 4.71062 45.6162
5985705 7.78771 7.94769 15.055 14.8959 0.000482798 4.66734 45.6864
5985711 7.78771 7.94769 15.055 14.8959 0.000482798 4.66734 45.6864
5985721 7.73591 7.91024 14.9814 14.8587 0.0283569 4.68075 45.4863
5985731 7.80498 7.89152 15.034 14.8122 -0.0742778 4.66036 45.5427
5985741 7.80498 7.89152 15.034 14.8122 -0.0742778 4.66036 45.5427
5985751 7.77908 7.93833 14.9709 14.7935 -0.00997186 4.63275 45.4819
5985761 7.77908 7.93833 14.9709 14.7935 -0.00997186 4.63275 45.4819
5985771 7.76181 7.94769 15.0235 14.7749 -0.0344455 4.64389 45.5079
5985781 7.82224 7.90088 15.034 14.7004 -0.140205 4.62343 45.4576
5985792 7.82224 7.90088 15.034 14.7004 -0.140205 4.62343 45.4576
5985801 7.77044 7.90088 15.055 14.7191 -0.113072 4.65485 45.4454
5985814 7.74454 7.83535 15.0025 14.7097 -0.11145 4.6804 45.2921
5985821 7.74454 7.83535 15.0025 14.7097 -0.11145 4.6804 45.2921
5985836 7.78771 7.80727 15.055 14.7656 -0.148559 4.69849 45.4156
5985841 7.78771 7.80727 15.055 14.7656 -0.148559 4.69849 45.4156
5985851 7.71001 7.89152 15.0025 14.7656 -0.0304997 4.68372 45.3696
5985861 7.76181 7.93833 14.9394 14.8308 0.0373334 4.6415 45.4703
5985871 7.76181 7.93833 14.9394 14.8308 0.0373334 4.6415 45.4703
5985882 7.81361 7.9196 14.9079 14.7749 -0.0148311 4.60726 45.416
5985891 7.82224 7.91024 14.9079 14.8028 -0.00935793 4.61396 45.4432
5985901 7.82224 7.91024 14.9079 14.8028 -0.00935793 4.61396 45.4432
5985911 7.86541 7.94769 14.9709 14.8401 -0.026615 4.60215 45.6241
5985922 7.86541 7.94769 14.9709 14.8401 -0.026615 4.60215 45.6241
5985931 7.78771 7.89152 14.9394 14.8587 0.0127107 4.65689 45.4773
5985944 7.82224 7.97577 14.992 14.8494 0.00600517 4.61553 45.6394
5985954 7.82224 7.97577 14.992 14.8494 0.00600517 4.61553 45.6394
5985961 7.82224 7.9196 15.0235 14.8494 -0.0420615 4.64687 45.6147
5985971 7.77044 7.81663 14.992 14.8308 -0.0633106 4.7024 45.4098
5985992 7.71864 7.89152 15.0866 14.8587 -0.0301793 4.72011 45.5554
5986002 7.71864 7.89152 15.0866 14.8587 -0.0301793 4.72011 45.5554
5986012 7.71864 7.80727 15.1602 14.8494 -0.121963 4.77112 45.5355
5986022 7.77044 7.94769 15.0971 14.8401 -0.0436753 4.67165 45.6553
5986033 7.77044 7.94769 15.0971 14.8401 -0.0436753 4.67165 45.6553
5986042 7.78771 7.97577 15.034 14.7563 -0.0492036 4.61877 45.5538
5986054 7.78771 7.98513 14.9814 14.7191 -0.0357181 4.59423 45.4733
5986075 7.73591 7.96641 15.013 14.7563 -0.0143975 4.64036 45.4716
5986084 7.73591 7.96641 15.013 14.7563 -0.0143975 4.64036 45.4716
5986098 7.71001 7.94769 14.9184 14.7284 0.0263125 4.63168 45.3044
5986105 7.72727 7.9196 14.9709 14.6911 -0.0482664 4.63987 45.3089
5986115 7.72727 7.9196 14.9709 14.6911 -0.0482664 4.63987 45.3089
5986125 7.69274 7.9196 14.9079 14.7097 0.0158995 4.64469 45.2299
5986135 7.64957 7.95705 14.9814 14.7656 0.0505149 4.67672 45.3537
5986155 7.76181 8.00385 14.9814 14.7842 0.0246137 4.61221 45.5313
5986166 7.77044 8.07874 15.0235 14.7842 0.0377983 4.5859 45.6569
5986175 7.77044 8.07874 15.0235 14.7842 0.0377983 4.5859 45.6569
5986195 7.78771 7.98513 14.8868 14.7935 0.0572741 4.58962 45.4532
5986196 7.78771 7.98513 14.8868 14.7935 0.0572741 4.58962 45.4532
5986207 7.83088 8.0413 14.8658 14.8122 0.0860482 4.54635 45.5501
5986216 7.78771 8.14427 14.8973 14.8308 0.158784 4.53223 45.6601
5986230 7.78771 8.14427 14.8973 14.8308 0.158784 4.53223 45.6601
5986236 7.82224 8.11619 14.9499 14.8122 0.0854462 4.53725 45.7005
5986247 7.81361 8.08811 14.9079 14.6632 0.0164032 4.50907 45.4728
5986257 7.81361 8.08811 14.9079 14.6632 0.0164032 4.50907 45.4728
5986273 7.82224 8.08811 14.8132 14.7563 0.114846 4.50502 45.4799
5986287 7.70137 8.01322 14.7922 14.7563 0.152406 4.5845 45.2631
5986298 7.6841 7.99449 14.8763 14.8215 0.140789 4.6343 45.3764
5986307 7.6841 7.99449 14.8763 14.8215 0.140789 4.6343 45.3764
5986317 7.62367 7.8728 14.9499 14.8587 0.087148 4.73859 45.3051
5986327 7.5805 7.92896 15.0761 14.9053 0.0976324 4.77191 45.4908
5986349 7.5805 7.80727 15.1076 15.0077 0.0696838 4.8549 45.503
5986363 7.5805 7.80727 15.1076 15.0077 0.0696838 4.8549 45.503
5986369 7.5546 7.77918 15.2443 15.0077 -0.00659376 4.90883 45.5857
5986385 7.52006 7.88216 15.2968 15.0356 0.0551254 4.8968 45.7347
5986389 7.52006 7.88216 15.2968 15.0356 0.0551254 4.8968 45.7347
5986399 7.57186 7.92896 15.2022 14.9239 0.0431478 4.80811 45.6269
5986409 7.53733 7.89152 15.1286 14.9146 0.077039 4.82088 45.472
5986429 7.54596 7.90088 15.1812 14.9518 0.0688493 4.83311 45.5798
5986439 7.49416 7.90088 15.2548 15.017 0.0924677 4.8865 45.6668
5986450 7.49416 7.83535 15.2548 15.017 0.0566751 4.91508 45.6013
5986460 7.45099 7.77918 15.2443 15.0356 0.0656515 4.96035 45.5101
5986471 7.45099 7.77918 15.2443 15.0356 0.0656515 4.96035 45.5101
5986480 7.46826 7.73238 15.2443 15.0635 0.0458002 4.97946 45.5084
5986494 7.40782 7.84471 15.2758 15.1101 0.148532 4.97389 45.6384
5986500 7.40782 7.84471 15.2758 15.1101 0.148532 4.97389 45.6384
5986510 7.51143 7.78855 15.2443 15.1566 0.103647 4.95645 45.7009
5986520 7.53733 7.73238 15.1391 15.0635 0.0656605 4.92595 45.4724
5986530 7.53733 7.73238 15.1391 15.0635 0.0656605 4.92595 45.4724
5986540 7.52869 7.78855 15.055 15.1287 0.183243 4.90094 45.501
5986550 7.52869 7.78855 15.055 15.1287 0.183243 4.90094 45.501
5986560 7.47689 7.84471 15.0761 15.017 0.169951 4.87886 45.4146
5986570 7.45962 7.81663 15.0971 15.1008 0.19829 4.92201 45.4741
5986582 7.45962 7.81663 15.0971 15.1008 0.19829 4.92201 45.4741
5986592 7.44236 7.77918 15.1707 15.1752 0.187299 4.97868 45.5675
5986603 7.39055 7.77918 15.1497 15.259 0.273159 5.01519 45.5784
5986617 7.39055 7.66685 15.1497 15.259 0.212067 5.06464 45.4661
5986620 7.46826 7.69493 15.1917 15.3149 0.191516 5.03946 45.6698
5986631 7.46826 7.69493 15.1917 15.3149 0.191516 5.03946 45.6698
5986641 7.42509 7.66685 15.1497 15.3428 0.238526 5.0677 45.5844
5986651 7.37329 7.59196 15.2758 15.3521 0.161752 5.15298 45.5932
5986661 7.37329 7.59196 15.2758 15.3521 0.161752 5.15298 45.5932
5986671 7.41646 7.64813 15.3284 15.3521 0.139588 5.12053 45.7451
5986681 7.41646 7.64813 15.3284 15.3521 0.139588 5.12053 45.7451
5986694 7.38192 7.57324 15.2443 15.3056 0.138789 5.14054 45.505
5986701 7.35602 7.63877 15.2863 15.3801 0.206128 5.14823 45.6612
5986712 7.35602 7.63877 15.2863 15.3801 0.206128 5.14823 45.6612
5986721 7.35602 7.63877 15.2548 15.3056 0.183043 5.1253 45.5552
5986732 7.33012 7.57324 15.3599 15.3149 0.108653 5.19047 45.5782
5986742 7.33012 7.57324 15.3599 15.3149 0.108653 5.19047 45.5782
5986754 7.36465 7.56388 15.3179 15.3149 0.107682 5.17026 45.5613
5986762 7.33012 7.59196 15.3074 15.2963 0.137705 5.16683 45.5257
5986776 7.33012 7.59196 15.3074 15.2963 0.137705 5.16683 45.5257
5986782 7.38192 7.62004 15.2968 15.3149 0.140402 5.13325 45.6137
5986803 7.37329 7.56388 15.2968 15.2218 0.0635475 5.14175 45.4558
5986814 7.43372 7.64813 15.3074 15.259 0.0909567 5.08822 45.6482
