1571522 4.2 4.39011 8.88185 8.28013 -0.399584 4.99292 25.7521
1571535 4.2 4.39011 8.88185 8.28013 -0.399584 4.99292 25.7521
1571542 4.2087 4.38077 8.79815 8.20528 -0.41105 4.93143 25.5929
1571554 4.26957 4.39011 8.71446 8.18657 -0.398411 4.83634 25.5607
1571562 4.26957 4.39011 8.71446 8.18657 -0.398411 4.83634 25.5607
1571572 4.26087 4.39011 8.75631 8.11172 -0.504863 4.82996 25.519
1571582 4.25217 4.44615 8.67262 8.16786 -0.304221 4.78222 25.5388
1571592 4.25217 4.44615 8.67262 8.16786 -0.304221 4.78222 25.5388
1571603 4.29565 4.39011 8.73538 8.20528 -0.424995 4.83187 25.6264
1571612 4.29565 4.39011 8.73538 8.20528 -0.424995 4.83187 25.6264
1571622 4.25217 4.38077 8.66215 8.16786 -0.359051 4.82882 25.463
1571632 4.29565 4.41813 8.67262 8.18657 -0.355418 4.77774 25.573
1571642 4.29565 4.41813 8.67262 8.18657 -0.355418 4.77774 25.573
1571653 4.28696 4.41813 8.69354 8.18657 -0.367196 4.79282 25.5852
1571673 4.28696 4.44615 8.71446 8.25206 -0.294946 4.80557 25.6996
1571683 4.29565 4.42747 8.68308 8.13979 -0.402674 4.75598 25.546
1571693 4.29565 4.42747 8.68308 8.13979 -0.402674 4.75598 25.546
1571703 4.24348 4.42747 8.65169 8.18657 -0.275514 4.80257 25.5092
1571713 4.26087 4.41813 8.74585 8.11172 -0.46684 4.80403 25.5366
1571729 4.26087 4.41813 8.74585 8.11172 -0.46684 4.80403 25.5366
1571734 4.31304 4.5022 8.69354 8.13043 -0.364624 4.68544 25.6392
1571745 4.31304 4.45549 8.68308 8.19593 -0.335993 4.74342 25.6475
1571754 4.31304 4.45549 8.68308 8.19593 -0.335993 4.74342 25.6475
1571765 4.27826 4.44615 8.65169 8.21464 -0.262946 4.77238 25.5907
1571774 4.27826 4.44615 8.65169 8.21464 -0.262946 4.77238 25.5907
1571785 4.25217 4.46484 8.72492 8.1585 -0.345463 4.78493 25.6004
1571794 4.24348 4.44615 8.67262 8.24271 -0.221863 4.81881 25.605
1571805 4.24348 4.44615 8.67262 8.24271 -0.221863 4.81881 25.605
1571814 4.30435 4.49286 8.65169 8.18657 -0.269756 4.70504 25.6355
1571824 4.27826 4.49286 8.58892 8.16786 -0.202198 4.69232 25.5279
1571834 4.27826 4.45549 8.58892 8.16786 -0.239135 4.72118 25.4905
1571844 4.27826 4.45549 8.60985 8.24271 -0.185554 4.75965 25.5863
1571854 4.27826 4.45549 8.60985 8.24271 -0.185554 4.75965 25.5863
1571866 4.26957 4.51154 8.64123 8.21464 -0.18003 4.72449 25.637
1571874 4.31304 4.51154 8.568 8.19593 -0.169584 4.65405 25.5885
1571884 4.31304 4.51154 8.568 8.19593 -0.169584 4.65405 25.5885
1571894 4.33913 4.53956 8.568 8.17722 -0.185719 4.60499 25.6239
1571904 4.33913 4.53956 8.568 8.17722 -0.185719 4.60499 25.6239
1571914 4.36522 4.5022 8.51569 8.12108 -0.25254 4.56946 25.5042
1571924 4.34783 4.51154 8.59938 8.12108 -0.307462 4.60975 25.5798
1571934 4.34783 4.51154 8.59938 8.12108 -0.307462 4.60975 25.5798
1571944 4.37391 4.51154 8.51569 8.12108 -0.25173 4.55563 25.5222
1571954 4.32174 4.57692 8.58892 8.13979 -0.189203 4.58302 25.6274
1571964 4.32174 4.57692 8.58892 8.13979 -0.189203 4.58302 25.6274
1571974 4.43478 4.56758 8.52615 8.12108 -0.265378 4.47075 25.6496
1571984 4.43478 4.56758 8.52615 8.12108 -0.265378 4.47075 25.6496
1571994 4.41739 4.49286 8.46338 8.04623 -0.336045 4.48431 25.4199
1572006 4.45217 4.55824 8.49477 8.08365 -0.298026 4.43631 25.5888
1572014 4.45217 4.55824 8.49477 8.08365 -0.298026 4.43631 25.5888
1572024 4.46957 4.57692 8.46338 8.08365 -0.266054 4.39597 25.5935
1572034 4.46957 4.55824 8.51569 8.05559 -0.362737 4.42016 25.5991
1572046 4.46957 4.55824 8.51569 8.05559 -0.362737 4.42016 25.5991
1572054 4.53913 4.5956 8.39015 8.05559 -0.271785 4.28706 25.5805
1572075 4.55652 4.53956 8.36923 8.05559 -0.323859 4.30749 25.5209
1572085 4.56522 4.58626 8.37969 8.02752 -0.32389 4.25828 25.5587
1572096 4.56522 4.58626 8.37969 8.02752 -0.32389 4.25828 25.5587
1572104 4.6 4.62363 8.37969 7.98074 -0.366758 4.18433 25.5841
1572114 4.54783 4.5956 8.32738 7.96203 -0.312176 4.21462 25.4328
1572126 4.54783 4.5956 8.32738 7.96203 -0.312176 4.21462 25.4328
1572134 4.61739 4.56758 8.28554 7.96203 -0.366972 4.16549 25.4325
1572156 4.62609 4.64231 8.25415 7.9246 -0.307825 4.07336 25.4471
1572166 4.62609 4.61429 8.24369 7.96203 -0.288324 4.10594 25.4461
1572186 4.65217 4.64231 8.26462 7.96203 -0.306076 4.07437 25.5211
1572196 4.66087 4.67967 8.21231 7.95267 -0.236066 4.01351 25.5055
1572207 4.66087 4.67967 8.21231 7.95267 -0.236066 4.01351 25.5055
1572217 4.66087 4.67967 8.17046 7.93396 -0.213896 3.98736 25.445
1572227 4.66087 4.67967 8.17046 7.93396 -0.213896 3.98736 25.445
1572237 4.65217 4.67967 8.21231 7.93396 -0.246145 4.01193 25.4781
1572247 4.73043 4.67967 8.22277 7.84975 -0.415754 3.92174 25.4826
1572267 4.77391 4.65165 8.22277 7.85911 -0.476258 3.91434 25.5074
1572279 4.73913 4.69835 8.13908 7.89653 -0.278062 3.88535 25.4731
1572287 4.73913 4.69835 8.13908 7.89653 -0.278062 3.88535 25.4731
1572297 4.73043 4.65165 8.17046 7.89653 -0.346491 3.94017 25.4491
1572307 4.73043 4.65165 8.17046 7.89653 -0.346491 3.94017 25.4491
1572317 4.73913 4.60495 8.12862 7.85911 -0.398403 3.93398 25.3318
1572327 4.76522 4.67967 8.13908 7.9246 -0.294043 3.8921 25.5086
1572344 4.76522 4.67967 8.13908 7.9246 -0.294043 3.8921 25.5086
1572353 4.73913 4.69835 8.16 7.83104 -0.363509 3.86587 25.4285
1572371 4.73043 4.73571 8.17046 7.84975 -0.309412 3.85739 25.4864
1572373 4.73043 4.73571 8.17046 7.84975 -0.309412 3.85739 25.4864
1572380 4.78261 4.73571 8.17046 7.80297 -0.406389 3.79835 25.4918
1572389 4.78261 4.73571 8.17046 7.80297 -0.406389 3.79835 25.4918
1572398 4.7913 4.71703 8.20185 7.82168 -0.444965 3.82768 25.5319
1572408 4.8087 4.71703 8.18092 7.83104 -0.432251 3.8098 25.5377
1572428 4.78261 4.7544 8.18092 7.80297 -0.397876 3.78918 25.5209
1572440 4.8087 4.7544 8.20185 7.80297 -0.443108 3.77919 25.5679
1572449 4.8087 4.7544 8.20185 7.80297 -0.443108 3.77919 25.5679
1572460 4.85217 4.73571 8.23323 7.74684 -0.589465 3.75011 25.568
1572480 4.75652 4.77308 8.17046 7.7749 -0.371936 3.77769 25.475
1572492 4.84348 4.77308 8.21231 7.75619 -0.514477 3.72402 25.5851
1572500 4.84348 4.77308 8.21231 7.75619 -0.514477 3.72402 25.5851
1572509 4.87826 4.74505 8.13908 7.75619 -0.505604 3.6867 25.5186
1572519 4.83478 4.78242 8.12862 7.81233 -0.360602 3.71139 25.5581
1572529 4.83478 4.78242 8.12862 7.81233 -0.360602 3.71139 25.5581
1572539 4.8 4.78242 8.11815 7.75619 -0.372735 3.70742 25.4568
1572549 4.8 4.78242 8.11815 7.75619 -0.372735 3.70742 25.4568
1572560 4.81739 4.73571 8.19138 7.68134 -0.58181 3.72827 25.4258
1572569 4.76522 4.74505 8.18092 7.74684 -0.44643 3.78419 25.438
1572579 4.76522 4.74505 8.18092 7.74684 -0.44643 3.78419 25.438
1572589 4.86087 4.77308 8.07631 7.70006 -0.456552 3.62594 25.4103
1572601 4.78261 4.72637 8.14954 7.70941 -0.489162 3.75472 25.3679
1572609 4.78261 4.72637 8.14954 7.70941 -0.489162 3.75472 25.3679
1572619 4.8087 4.81978 8.13908 7.74684 -0.373472 3.67877 25.5144
1572629 4.8087 4.81978 8.13908 7.74684 -0.373472 3.67877 25.5144
1572640 4.7913 4.8011 8.17046 7.72812 -0.424212 3.71083 25.491
1572650 4.81739 4.73571 8.12862 7.70941 -0.493166 3.71286 25.3911
1572671 4.90435 4.81044 8.11815 7.71877 -0.482643 3.59397 25.5517
1572681 4.86087 4.78242 8.06585 7.7749 -0.362378 3.64785 25.484
1572690 4.86087 4.78242 8.06585 7.7749 -0.362378 3.64785 25.484
1572703 4.85217 4.77308 8.09723 7.71877 -0.449623 3.65003 25.4412
1572711 4.85217 4.77308 8.09723 7.71877 -0.449623 3.65003 25.4412
1572721 4.8 4.78242 8.12862 7.6907 -0.448294 3.68296 25.4017
1572731 4.86957 4.77308 8.05538 7.75619 -0.388621 3.63531 25.4542
1572740 4.86957 4.77308 8.05538 7.75619 -0.388621 3.63531 25.4542
1572750 4.90435 4.85714 8.10769 7.67199 -0.472678 3.53441 25.5412
1572761 4.89565 4.83846 8.06585 7.70941 -0.405368 3.55231 25.5094
1572771 4.89565 4.83846 8.06585 7.70941 -0.405368 3.55231 25.5094
1572780 4.87826 4.81044 8.03446 7.73748 -0.358208 3.58391 25.4606
1572791 4.87826 4.81044 8.03446 7.73748 -0.358208 3.58391 25.4606
1572801 4.90435 4.85714 8.08677 7.70006 -0.424606 3.53761 25.5483
1572812 4.90435 4.8478 8.08677 7.65327 -0.480579 3.52337 25.4922
1572832 4.92174 4.85714 8.05538 7.67199 -0.439103 3.49825 25.5063
1572842 4.87826 4.82912 8.04492 7.67199 -0.41503 3.54554 25.4243
1572852 4.87826 4.82912 8.04492 7.67199 -0.41503 3.54554 25.4243
1572862 4.91304 4.82912 8.09723 7.68134 -0.489613 3.54794 25.5207
1572872 4.91304 4.82912 8.09723 7.68134 -0.489613 3.54794 25.5207
1572882 4.88696 4.8478 8.06585 7.6907 -0.406316 3.54344 25.4913
1572892 4.93043 4.85714 8.01354 7.70006 -0.379175 3.48573 25.5012
1572902 4.93043 4.85714 8.01354 7.70006 -0.379175 3.48573 25.5012
1572914 4.93043 4.83846 8.024 7.60649 -0.501469 3.46166 25.3994
1572922 4.94783 4.82912 7.98215 7.61585 -0.477843 3.44103 25.375
1572934 4.94783 4.82912 7.98215 7.61585 -0.477843 3.44103 25.375
1572942 4.93913 4.83846 8.01354 7.62521 -0.48099 3.45909 25.4163
1572954 4.93913 4.83846 8.01354 7.62521 -0.48099 3.45909 25.4163
1572962 4.96522 4.83846 7.99262 7.67199 -0.439158 3.4519 25.4683
1572974 4.94783 4.81978 8.00308 7.62521 -0.49803 3.46159 25.3959
1572982 4.94783 4.81978 8.00308 7.62521 -0.49803 3.46159 25.3959
1572994 4.93043 4.86648 8.03446 7.60649 -0.48345 3.44606 25.4379
1573009 4.93043 4.86648 8.03446 7.60649 -0.48345 3.44606 25.4379
1573014 4.90435 4.8478 8.03446 7.66263 -0.420813 3.504 25.4492
1573023 4.98261 4.85714 8.01354 7.6907 -0.438757 3.44376 25.544
1573034 4.98261 4.85714 8.01354 7.6907 -0.438757 3.44376 25.544
1573043 4.95652 4.87582 7.97169 7.63456 -0.410625 3.40461 25.4386
1573053 4.93913 4.89451 8.01354 7.61585 -0.434269 3.41422 25.463
1573063 4.93913 4.89451 8.01354 7.61585 -0.434269 3.41422 25.463
1573073 4.89565 4.88516 8.024 7.67199 -0.355715 3.48268 25.4768
1573093 4.91304 4.79176 8.10769 7.71877 -0.499596 3.59657 25.5313
1573103 4.93043 4.83846 8.10769 7.62521 -0.563155 3.50799 25.5018
1573115 4.93043 4.83846 8.10769 7.62521 -0.563155 3.50799 25.5018
1573123 4.90435 4.86648 8.06585 7.70006 -0.39517 3.52144 25.5367
1573133 4.96522 4.86648 8.05538 7.70006 -0.443642 3.47269 25.5871
1573143 4.96522 4.86648 8.05538 7.70006 -0.443642 3.47269 25.5871
1573153 4.92174 4.89451 8.10769 7.65327 -0.470781 3.48634 25.5772
1573163 4.92174 4.89451 8.10769 7.65327 -0.470781 3.48634 25.5772
1573174 4.86957 4.81044 8.06585 7.66263 -0.454907 3.57074 25.4085
1573184 4.8087 4.86648 8.13908 7.70941 -0.364248 3.62799 25.5237
1573194 4.8087 4.86648 8.13908 7.70941 -0.364248 3.62799 25.5237
1573204 4.89565 4.81044 8.09723 7.70941 -0.463526 3.58677 25.5127
1573214 4.84348 4.79176 8.12862 7.70941 -0.462176 3.65253 25.4733
1573226 4.84348 4.79176 8.12862 7.70941 -0.462176 3.65253 25.4733
1573234 4.8 4.83846 8.19138 7.73748 -0.406225 3.69049 25.5673
1573254 4.77391 4.76374 8.07631 7.78426 -0.297485 3.73427 25.3982
1573267 4.75652 4.79176 8.20185 7.7749 -0.38365 3.77774 25.525
1573286 4.72174 4.73571 8.27508 7.78426 -0.467186 3.88091 25.5168
1573294 4.66087 4.71703 8.34831 7.7749 -0.507078 3.96765 25.5011
1573307 4.66087 4.71703 8.34831 7.7749 -0.507078 3.96765 25.5011
1573316 4.62609 4.67033 8.36923 7.85911 -0.456303 4.07365 25.5248
1573328 4.62609 4.67033 8.36923 7.85911 -0.456303 4.07365 25.5248
1573336 4.6087 4.68901 8.34831 7.86846 -0.391473 4.06773 25.5145
1573345 4.57391 4.67033 8.34831 7.91525 -0.329943 4.12774 25.5078
1573356 4.57391 4.67033 8.34831 7.91525 -0.329943 4.12774 25.5078
1573366 4.53913 4.65165 8.39015 7.93396 -0.336742 4.19363 25.5149
1573376 4.53043 4.63297 8.41108 8.01816 -0.283659 4.25855 25.5926
1573388 4.53043 4.63297 8.41108 8.01816 -0.283659 4.25855 25.5926
1573396 4.53043 4.68901 8.41108 8.06494 -0.182481 4.2361 25.6955
1573407 4.53043 4.68901 8.41108 8.06494 -0.182481 4.2361 25.6955
1573416 4.49565 4.66099 8.45292 7.94331 -0.336826 4.24977 25.5529
1573429 4.53913 4.61429 8.40062 7.98074 -0.337501 4.24594 25.5348
1573435 4.53913 4.61429 8.40062 7.98074 -0.337501 4.24594 25.5348
1573445 4.43478 4.64231 8.31692 7.95267 -0.154585 4.25648 25.3467
1573456 4.51304 4.67033 8.33785 7.98074 -0.195886 4.19686 25.502
1573467 4.51304 4.67033 8.33785 7.98074 -0.195886 4.19686 25.502
1573475 4.48696 4.66099 8.36923 8.06494 -0.127293 4.27226 25.5821
1573487 4.48696 4.66099 8.36923 8.06494 -0.127293 4.27226 25.5821
1573497 4.45217 4.63297 8.41108 8.11172 -0.115745 4.35666 25.6079
1573507 4.45217 4.71703 8.48431 8.08365 -0.131904 4.3121 25.7372
1573517 4.45217 4.71703 8.48431 8.08365 -0.131904 4.3121 25.7372
1573527 4.45217 4.66099 8.51569 8.08365 -0.217038 4.36724 25.7125
1573535 4.3913 4.56758 8.47385 8.0743 -0.218832 4.46304 25.507
1573546 4.3913 4.56758 8.47385 8.0743 -0.218832 4.46304 25.507
1573557 4.49565 4.61429 8.42154 8.10237 -0.195579 4.33839 25.6338
1573567 4.49565 4.61429 8.42154 8.10237 -0.195579 4.33839 25.6338
1573577 4.45217 4.62363 8.31692 8.04623 -0.0975266 4.29697 25.439
1573587 4.52174 4.61429 8.432 8.09301 -0.240092 4.31919 25.661
1573597 4.52174 4.61429 8.432 8.09301 -0.240092 4.31919 25.661
1573607 4.53913 4.67033 8.34831 8.04623 -0.166845 4.20935 25.604
1573617 4.46087 4.67033 8.26462 8.01816 -0.0363886 4.22105 25.414
1573632 4.46087 4.67033 8.26462 8.01816 -0.0363886 4.22105 25.414
1573640 4.50435 4.70769 8.31692 8.02752 -0.0841856 4.18626 25.5565
1573657 4.53913 4.67033 8.39015 8.00881 -0.244206 4.21122 25.6084
1573668 4.51304 4.67967 8.25415 8.04623 -0.0404984 4.18211 25.4931
1573678 4.51304 4.67967 8.25415 8.04623 -0.0404984 4.18211 25.4931
1573688 4.48696 4.70769 8.34831 8.02752 -0.0978231 4.21258 25.5705
1573698 4.49565 4.71703 8.33785 8.0743 -0.0411391 4.21435 25.6248
1573708 4.49565 4.71703 8.33785 8.0743 -0.0411391 4.21435 25.6248
1573718 4.56522 4.70769 8.27508 8.00881 -0.121097 4.11494 25.5568
1573738 4.52174 4.67967 8.21231 7.95267 -0.100239 4.11779 25.3664
1573751 4.5913 4.70769 8.27508 8.02752 -0.12809 4.10342 25.6016
1573758 4.5913 4.70769 8.27508 8.02752 -0.12809 4.10342 25.6016
1573768 4.55652 4.66099 8.24369 8.01816 -0.118786 4.14709 25.4794
1573778 4.53043 4.67967 8.296 7.98074 -0.162853 4.15899 25.4868
1573788 4.53043 4.67967 8.296 7.98074 -0.162853 4.15899 25.4868
1573798 4.50435 4.62363 8.27508 8.10237 -0.0523731 4.26349 25.5054
1573809 4.50435 4.62363 8.27508 8.10237 -0.0523731 4.26349 25.5054
1573819 4.48696 4.63297 8.33785 8.02752 -0.161187 4.26449 25.4853
1573829 4.51304 4.61429 8.39015 8.06494 -0.21887 4.29656 25.5824
1573842 4.51304 4.61429 8.39015 8.06494 -0.21887 4.29656 25.5824
1573849 4.48696 4.66099 8.28554 7.97138 -0.137892 4.19741 25.4049
1573863 4.53043 4.64231 8.35877 8.02752 -0.214581 4.23346 25.559
1573869 4.53043 4.64231 8.35877 8.02752 -0.214581 4.23346 25.559
1573879 4.46087 4.62363 8.36923 8.03687 -0.166337 4.30842 25.4906
1573899 4.53043 4.61429 8.36923 8.02752 -0.252396 4.25897 25.5415
1573909 4.57391 4.62363 8.36923 7.99945 -0.31298 4.20739 25.5662
1573921 4.57391 4.62363 8.36923 7.99945 -0.31298 4.20739 25.5662
1573929 4.53913 4.70769 8.33785 8.00881 -0.156756 4.16112 25.5935
1573942 4.56522 4.67967 8.32738 8.04623 -0.162677 4.17397 25.6185
1573961 4.57391 4.67033 8.37969 8.02752 -0.249265 4.18863 25.6515
1573970 4.57391 4.67033 8.37969 8.02752 -0.249265 4.18863 25.6515
1573981 4.49565 4.5956 8.42154 7.98074 -0.334251 4.30169 25.4935
1573991 4.53913 4.69835 8.33785 8.02752 -0.14755 4.17603 25.6028
1574001 4.53913 4.69835 8.33785 8.02752 -0.14755 4.17603 25.6028
1574010 4.52174 4.65165 8.34831 7.93396 -0.279348 4.18898 25.4557
1574021 4.57391 4.63297 8.41108 7.96203 -0.381157 4.20224 25.58
1574030 4.57391 4.63297 8.41108 7.96203 -0.381157 4.20224 25.58
1574040 4.58261 4.67967 8.45292 7.94331 -0.40196 4.17052 25.6585
1574050 4.58261 4.67967 8.45292 7.94331 -0.40196 4.17052 25.6585
1574060 4.57391 4.70769 8.37969 7.95267 -0.286214 4.12905 25.614
1574072 4.5913 4.72637 8.39015 7.90589 -0.340828 4.0867 25.6137
1574091 4.55652 4.67033 8.33785 7.89653 -0.321573 4.12835 25.4612
1574101 4.6 4.63297 8.39015 7.86846 -0.479297 4.1341 25.4916
1574121 4.62609 4.67033 8.40062 7.90589 -0.439876 4.107 25.6029
1574130 4.62609 4.67033 8.40062 7.90589 -0.439876 4.107 25.6029
1574142 4.6 4.67033 8.42154 7.90589 -0.434922 4.13538 25.5978
1574152 4.53913 4.63297 8.42154 7.86846 -0.450903 4.19323 25.4621
1574163 4.53913 4.63297 8.42154 7.86846 -0.450903 4.19323 25.4621
1574172 4.58261 4.66099 8.37969 7.86846 -0.424497 4.12166 25.4918
1574180 4.58261 4.65165 8.40062 7.87782 -0.444637 4.14157 25.5127
1574192 4.58261 4.65165 8.40062 7.87782 -0.444637 4.14157 25.5127
1574202 4.65217 4.67967 8.35877 7.83104 -0.490007 4.03068 25.5217
1574212 4.65217 4.67967 8.35877 7.83104 -0.490007 4.03068 25.5217
1574223 4.6 4.63297 8.39015 7.82168 -0.526142 4.11412 25.4448
1574232 4.6 4.69835 8.39015 7.85911 -0.423416 4.08115 25.5476
1574243 4.6 4.69835 8.39015 7.85911 -0.423416 4.08115 25.5476
1574252 4.63478 4.76374 8.39015 7.80297 -0.447635 3.98252 25.5916
1574262 4.63478 4.76374 8.39015 7.80297 -0.447635 3.98252 25.5916
1574272 4.61739 4.69835 8.35877 7.83104 -0.437911 4.04269 25.5056
1574291 4.66087 4.70769 8.36923 7.8404 -0.471118 4.01185 25.5782
1574292 4.66087 4.70769 8.36923 7.8404 -0.471118 4.01185 25.5782
1574304 4.70435 4.70769 8.33785 7.76555 -0.557461 3.93371 25.5154
1574312 4.71304 4.68901 8.27508 7.78426 -0.50552 3.92199 25.4614
1574324 4.71304 4.68901 8.27508 7.78426 -0.50552 3.92199 25.4614
1574333 4.71304 4.79176 8.30646 7.7749 -0.442471 3.85554 25.5862
1574343 4.68696 4.66099 8.28554 7.83104 -0.471701 3.9871 25.4645
1574353 4.68696 4.66099 8.28554 7.83104 -0.471701 3.9871 25.4645
1574364 4.70435 4.7544 8.32738 7.7749 -0.491408 3.89864 25.561
1574384 4.71304 4.67033 8.33785 7.81233 -0.556357 3.97524 25.5335
1574393 4.68696 4.69835 8.36923 7.79362 -0.552113 3.97927 25.5482
1574404 4.68696 4.69835 8.36923 7.79362 -0.552113 3.97927 25.5482
1574413 4.68696 4.78242 8.37969 7.81233 -0.45974 3.92963 25.6614
1574433 4.67826 4.70769 8.432 7.81233 -0.575727 4.01383 25.6303
1574443 4.68696 4.68901 8.432 7.8404 -0.574647 4.03326 25.6484
1574453 4.68696 4.68901 8.432 7.8404 -0.574647 4.03326 25.6484
1574463 4.6 4.68901 8.40062 7.7749 -0.526911 4.05653 25.4645
1574473 4.5913 4.63297 8.45292 7.78426 -0.615637 4.13149 25.4615
1574494 4.6087 4.64231 8.48431 7.85911 -0.577846 4.15662 25.5944
1574504 4.61739 4.64231 8.44246 7.85911 -0.546174 4.13235 25.5613
1574514 4.61739 4.62363 8.44246 7.88718 -0.536796 4.15826 25.5707
1574524 4.58261 4.5956 8.36923 7.89653 -0.45168 4.17833 25.444
1574544 4.55652 4.69835 8.36923 7.85911 -0.361307 4.10474 25.4832
1574554 4.6087 4.66099 8.42154 7.86846 -0.489816 4.11996 25.5597
1574564 4.6087 4.66099 8.42154 7.86846 -0.489816 4.11996 25.5597
1574574 4.64348 4.69835 8.35877 7.81233 -0.481686 4.01518 25.5129
1574587 4.64348 4.69835 8.35877 7.81233 -0.481686 4.01518 25.5129
1574595 4.55652 4.67967 8.41108 7.90589 -0.37377 4.15649 25.5532
1574604 4.64348 4.65165 8.46338 7.85911 -0.581732 4.11477 25.6176
1574614 4.64348 4.65165 8.46338 7.85911 -0.581732 4.11477 25.6176
1574624 4.56522 4.65165 8.44246 7.87782 -0.468154 4.1724 25.5371
1574634 4.61739 4.65165 8.39015 7.86846 -0.477356 4.10706 25.5277
1574656 4.5913 4.72637 8.40062 7.83104 -0.425164 4.05919 25.5493
1574665 4.64348 4.60495 8.296 7.82168 -0.505446 4.06207 25.3661
1574675 4.64348 4.60495 8.296 7.82168 -0.505446 4.06207 25.3661
1574685 4.63478 4.71703 8.34831 7.88718 -0.370184 4.0354 25.5873
1574695 4.63478 4.71703 8.34831 7.88718 -0.370184 4.0354 25.5873
1574706 4.63478 4.68901 8.35877 7.84975 -0.445308 4.04472 25.5323
1574715 4.62609 4.71703 8.34831 7.89653 -0.352539 4.04588 25.588
1574725 4.62609 4.71703 8.34831 7.89653 -0.352539 4.04588 25.588
1574737 4.5913 4.77308 8.31692 7.86846 -0.260949 4.00454 25.5498
1574747 4.6087 4.70769 8.36923 7.84975 -0.411667 4.05472 25.5354
1574767 4.61739 4.72637 8.33785 7.80297 -0.417791 4.00069 25.4846
1574778 4.61739 4.72637 8.33785 7.80297 -0.417791 4.00069 25.4846
1574787 4.6087 4.70769 8.32738 7.83104 -0.389941 4.02871 25.4748
1574799 4.6087 4.71703 8.33785 7.84975 -0.372115 4.03429 25.5133
1574807 4.6087 4.71703 8.33785 7.84975 -0.372115 4.03429 25.5133
1574818 4.65217 4.71703 8.34831 7.89653 -0.37764 4.02648 25.614
1574827 4.5913 4.65165 8.27508 7.99009 -0.220162 4.1294 25.5081
1574839 4.5913 4.65165 8.27508 7.99009 -0.220162 4.1294 25.5081
1574847 4.62609 4.77308 8.35877 7.93396 -0.270341 4.02475 25.6919
1574859 4.62609 4.77308 8.35877 7.93396 -0.270341 4.02475 25.6919
1574867 4.5913 4.71703 8.30646 7.91525 -0.259976 4.0619 25.53
1574879 4.56522 4.68901 8.23323 7.97138 -0.135566 4.09507 25.4588
1574887 4.56522 4.68901 8.23323 7.97138 -0.135566 4.09507 25.4588
1574899 4.57391 4.74505 8.21231 7.88718 -0.151457 4.00133 25.4185
1574907 4.53043 4.74505 8.30646 7.88718 -0.200896 4.07443 25.4691
1574919 4.53043 4.67967 8.30646 7.90589 -0.247161 4.13153 25.4225
1574927 4.51304 4.70769 8.23323 7.91525 -0.121541 4.09615 25.3692
1574936 4.51304 4.70769 8.23323 7.91525 -0.121541 4.09615 25.3692
1574948 4.55652 4.73571 8.32738 7.93396 -0.209592 4.09088 25.5536
1574960 4.6 4.79176 8.25415 7.99009 -0.0705078 4.00949 25.636
1574969 4.6 4.79176 8.25415 7.99009 -0.0705078 4.00949 25.636
1574979 4.53043 4.71703 8.25415 7.93396 -0.131311 4.09307 25.4356
1574988 4.57391 4.71703 8.33785 7.91525 -0.273527 4.08832 25.544
1574999 4.57391 4.71703 8.33785 7.91525 -0.273527 4.08832 25.544
1575009 4.6087 4.77308 8.22277 7.97138 -0.0850484 3.99538 25.5759
1575028 4.6 4.79176 8.21231 7.88718 -0.130802 3.94708 25.4912
1575039 4.5913 4.73571 8.18092 7.88718 -0.147015 3.98172 25.3951
1575058 4.64348 4.83846 8.14954 7.93396 -0.0201404 3.87333 25.5654
1575068 4.64348 4.83846 8.14954 7.93396 -0.0201404 3.87333 25.5654
1575079 4.57391 4.76374 8.23323 7.93396 -0.107285 4.01661 25.5048
1575088 4.6087 4.81044 8.22277 7.91525 -0.103472 3.94344 25.5571
1575103 4.6087 4.81044 8.22277 7.91525 -0.103472 3.94344 25.5571
1575119 4.67826 4.76374 8.13908 7.9246 -0.126442 3.89424 25.5057
1575129 4.67826 4.76374 8.13908 7.9246 -0.126442 3.89424 25.5057
1575139 4.61739 4.76374 8.25415 7.87782 -0.225362 3.96905 25.5131
1575149 4.61739 4.76374 8.25415 7.87782 -0.225362 3.96905 25.5131
1575159 4.57391 4.76374 8.26462 7.9246 -0.147091 4.02609 25.5269
1575169 4.5913 4.76374 8.33785 7.9246 -0.235008 4.04455 25.6175
1575179 4.5913 4.76374 8.33785 7.9246 -0.235008 4.04455 25.6175
1575190 4.6087 4.73571 8.26462 7.96203 -0.171649 4.03712 25.571
1575200 4.53913 4.67967 8.20185 7.95267 -0.107038 4.1002 25.3733
1575209 4.53913 4.67967 8.20185 7.95267 -0.107038 4.1002 25.3733
1575220 4.57391 4.64231 8.33785 8.00881 -0.254904 4.18406 25.5629
1575229 4.57391 4.64231 8.33785 8.00881 -0.254904 4.18406 25.5629
1575240 4.54783 4.67033 8.33785 7.93396 -0.275978 4.15084 25.49
1575249 4.6087 4.70769 8.296 7.93396 -0.257421 4.05943 25.5463
1575259 4.6087 4.70769 8.296 7.93396 -0.257421 4.05943 25.5463
1575269 4.63478 4.68901 8.33785 7.91525 -0.360066 4.0638 25.5769
1575279 4.6 4.67033 8.24369 7.94331 -0.225918 4.07545 25.4573
1575289 4.6 4.67033 8.24369 7.94331 -0.225918 4.07545 25.4573
1575299 4.61739 4.67967 8.28554 7.99945 -0.218718 4.09736 25.5821
1575319 4.57391 4.63297 8.30646 7.93396 -0.307941 4.14594 25.4473
1575331 4.58261 4.67033 8.26462 7.99945 -0.173849 4.12144 25.517
1575341 4.58261 4.67033 8.26462 7.99945 -0.173849 4.12144 25.517
1575350 4.6087 4.67033 8.28554 7.85911 -0.358717 4.05073 25.4237
1575361 4.5913 4.70769 8.33785 7.86846 -0.345999 4.06228 25.5053
1575381 4.64348 4.74505 8.296 7.95267 -0.235745 4.01378 25.6372
1575400 4.5913 4.71703 8.31692 7.9246 -0.260855 4.07039 25.5499
1575410 4.66087 4.68901 8.32738 7.90589 -0.384387 4.03589 25.5832
1575423 4.66087 4.68901 8.32738 7.90589 -0.384387 4.03589 25.5832
1575431 4.62609 4.71703 8.25415 7.87782 -0.280067 3.99735 25.4751
1575441 4.6087 4.67967 8.27508 7.87782 -0.320621 4.04728 25.4413
1575452 4.6087 4.67967 8.27508 7.87782 -0.320621 4.04728 25.4413
1575462 4.5913 4.68901 8.31692 7.85911 -0.353652 4.06326 25.4563
1575472 4.5913 4.68901 8.31692 7.85911 -0.353652 4.06326 25.4563
1575482 4.64348 4.67033 8.25415 7.83104 -0.390038 3.99901 25.399
1575492 4.64348 4.69835 8.35877 7.85911 -0.435047 4.03529 25.5597
1575502 4.64348 4.69835 8.35877 7.85911 -0.435047 4.03529 25.5597
1575512 4.65217 4.71703 8.37969 7.83104 -0.472827 4.01185 25.5799
1575522 4.63478 4.68901 8.35877 7.82168 -0.473312 4.03266 25.5042
1575542 4.66087 4.72637 8.30646 7.84975 -0.382882 3.97497 25.5435
1575551 4.66087 4.72637 8.30646 7.84975 -0.382882 3.97497 25.5435
1575569 4.6087 4.63297 8.36923 7.85911 -0.476886 4.11465 25.47
1575572 4.66957 4.67967 8.39015 7.91525 -0.452943 4.0672 25.6546
1575583 4.66957 4.67967 8.39015 7.91525 -0.452943 4.0672 25.6546
1575592 4.68696 4.72637 8.40062 7.80297 -0.544782 3.97604 25.6169
1575602 4.62609 4.62363 8.36923 7.82168 -0.540483 4.09259 25.4406
1575613 4.62609 4.62363 8.36923 7.82168 -0.540483 4.09259 25.4406
1575623 4.57391 4.70769 8.35877 7.7749 -0.442733 4.04406 25.4153
1575643 4.6 4.67967 8.48431 7.83104 -0.56026 4.12327 25.595
1575653 4.55652 4.63297 8.46338 7.9246 -0.451902 4.22158 25.5775
1575663 4.55652 4.63297 8.46338 7.9246 -0.451902 4.22158 25.5775
1575673 4.62609 4.64231 8.37969 7.82168 -0.531796 4.08306 25.4698
1575683 4.5913 4.65165 8.31692 7.87782 -0.372243 4.09931 25.4377
1575703 4.5913 4.72637 8.37969 7.91525 -0.3215 4.08622 25.6126
1575714 4.5913 4.72637 8.37969 7.91525 -0.3215 4.08622 25.6126
1575723 4.6 4.63297 8.36923 7.89653 -0.431132 4.13714 25.4987
1575733 4.5913 4.68901 8.37969 7.93396 -0.339949 4.12207 25.594
1575743 4.5913 4.68901 8.37969 7.93396 -0.339949 4.12207 25.594
1575753 4.57391 4.72637 8.37969 7.84975 -0.369647 4.07123 25.5297
1575764 4.64348 4.70769 8.34831 7.86846 -0.406398 4.02786 25.5679
1575774 4.64348 4.70769 8.34831 7.86846 -0.406398 4.02786 25.5679
1575784 4.61739 4.72637 8.34831 7.85911 -0.372016 4.02935 25.5512
1575805 4.66957 4.68901 8.27508 7.8404 -0.407507 3.97869 25.474
1575814 4.65217 4.70769 8.31692 7.90589 -0.347419 4.02398 25.5827
1575826 4.65217 4.70769 8.31692 7.90589 -0.347419 4.02398 25.5827
1575835 4.68696 4.71703 8.22277 7.86846 -0.317933 3.93441 25.4952
1575847 4.67826 4.72637 8.27508 7.89653 -0.322986 3.96871 25.5762
1575856 4.67826 4.72637 8.27508 7.89653 -0.322986 3.96871 25.5762
1575865 4.65217 4.67967 8.23323 7.93396 -0.266458 4.02094 25.499
1575876 4.65217 4.67967 8.23323 7.93396 -0.266458 4.02094 25.499
1575886 4.64348 4.67033 8.22277 7.90589 -0.284986 4.0178 25.4425
1575896 4.68696 4.74505 8.28554 7.94331 -0.276808 3.97308 25.6609
1575906 4.68696 4.74505 8.28554 7.94331 -0.276808 3.97308 25.6609
1575915 4.63478 4.65165 8.28554 7.84975 -0.411971 4.04115 25.4217
1575926 4.68696 4.72637 8.24369 7.87782 -0.319616 3.9406 25.5348
1575936 4.68696 4.72637 8.24369 7.87782 -0.319616 3.9406 25.5348
1575947 4.70435 4.69835 8.23323 7.83104 -0.4007 3.92365 25.467
1575957 4.70435 4.69835 8.23323 7.83104 -0.4007 3.92365 25.467
1575967 4.66957 4.68901 8.20185 7.90589 -0.271447 3.97534 25.4663
1575977 4.66087 4.68901 8.26462 7.87782 -0.351726 3.99683 25.4923
1575987 4.66087 4.68901 8.26462 7.87782 -0.351726 3.99683 25.4923
1575997 4.65217 4.67967 8.35877 7.9246 -0.396904 4.07074 25.6152
1576007 4.68696 4.63297 8.25415 7.95267 -0.348139 4.04687 25.5267
1576017 4.68696 4.63297 8.25415 7.95267 -0.348139 4.04687 25.5267
1576027 4.66087 4.71703 8.26462 7.9246 -0.277553 3.99614 25.5671
1576037 4.66087 4.71703 8.26462 7.9246 -0.277553 3.99614 25.5671
1576047 4.65217 4.70769 8.26462 7.89653 -0.306182 3.99746 25.521
1576058 4.66957 4.68901 8.296 7.87782 -0.390419 4.00388 25.5324
1576077 4.6087 4.72637 8.296 7.84975 -0.322369 4.0093 25.4808
1576088 4.63478 4.76374 8.19138 7.8404 -0.21828 3.91261 25.4303
1576097 4.63478 4.76374 8.19138 7.8404 -0.21828 3.91261 25.4303
1576107 4.62609 4.67033 8.28554 7.91525 -0.319692 4.06184 25.4972
1576117 4.62609 4.67033 8.28554 7.91525 -0.319692 4.06184 25.4972
1576127 4.58261 4.68901 8.26462 7.89653 -0.257228 4.06338 25.4328
1576137 4.6087 4.72637 8.28554 7.85911 -0.302941 4.00882 25.4797
1576147 4.6087 4.72637 8.28554 7.85911 -0.302941 4.00882 25.4797
1576158 4.66087 4.73571 8.30646 7.96203 -0.262605 4.0163 25.6651
1576168 4.67826 4.71703 8.39015 7.97138 -0.368835 4.05693 25.7568
1576194 4.5913 4.77308 8.40062 7.95267 -0.258747 4.07632 25.7177
1576203 4.5913 4.77308 8.40062 7.95267 -0.258747 4.07632 25.7177
1576212 4.57391 4.66099 8.47385 7.93396 -0.441463 4.19587 25.6427
1576218 4.55652 4.65165 8.42154 7.9246 -0.393093 4.18988 25.5543
1576228 4.55652 4.65165 8.42154 7.9246 -0.393093 4.18988 25.5543
1576238 4.53043 4.67033 8.37969 7.89653 -0.336836 4.16579 25.477
1576248 4.53913 4.64231 8.45292 7.87782 -0.462452 4.20346 25.5122
1576258 4.53913 4.64231 8.45292 7.87782 -0.462452 4.20346 25.5122
1576269 4.55652 4.69835 8.51569 7.93396 -0.427847 4.19855 25.7045
1576288 4.49565 4.58626 8.47385 7.85911 -0.515573 4.2796 25.4149
1576298 4.54783 4.5956 8.47385 7.9246 -0.490828 4.26066 25.5419
1576309 4.54783 4.5956 8.47385 7.9246 -0.490828 4.26066 25.5419
1576319 4.50435 4.63297 8.47385 7.98074 -0.356059 4.28882 25.5919
1576329 4.48696 4.58626 8.50523 7.98074 -0.415884 4.35034 25.5592
1576339 4.48696 4.58626 8.50523 7.98074 -0.415884 4.35034 25.5592
1576349 4.50435 4.60495 8.47385 7.96203 -0.402446 4.30213 25.5452
1576369 4.51304 4.60495 8.49477 7.97138 -0.421636 4.30823 25.5841
1576381 4.47826 4.5489 8.53662 7.97138 -0.48423 4.39443 25.5352
1576389 4.47826 4.5489 8.53662 7.97138 -0.48423 4.39443 25.5352
1576402 4.48696 4.55824 8.52615 7.94331 -0.501238 4.36471 25.5147
1576410 4.46957 4.55824 8.52615 7.99945 -0.42854 4.40125 25.5534
1576429 4.46087 4.57692 8.52615 7.98074 -0.420207 4.3859 25.5447
1576451 4.49565 4.5956 8.55754 7.94331 -0.502376 4.3429 25.5921
1576461 4.46957 4.60495 8.54708 7.97138 -0.430113 4.36289 25.593
1576470 4.46957 4.60495 8.54708 7.97138 -0.430113 4.36289 25.593
1576483 4.51304 4.5956 8.50523 7.93396 -0.478232 4.30401 25.5478
1576490 4.41739 4.53956 8.63077 7.97138 -0.525467 4.48678 25.5591
1576500 4.41739 4.53956 8.63077 7.97138 -0.525467 4.48678 25.5591
1576510 4.46087 4.57692 8.59938 8.00881 -0.462572 4.42783 25.646
1576557 4.46087 4.57692 8.59938 8.00881 -0.462572 4.42783 25.646
1576557 4.47826 4.5489 8.54708 7.96203 -0.503609 4.39489 25.5363
1576558 4.42609 4.53022 8.63077 7.9246 -0.589959 4.46799 25.5117
1576559 4.42609 4.53022 8.63077 7.9246 -0.589959 4.46799 25.5117
1576560 4.44348 4.5489 8.62031 7.95267 -0.549783 4.44778 25.5654
1576570 4.42609 4.53022 8.68308 7.93396 -0.630529 4.49339 25.5733
1576583 4.42609 4.53022 8.68308 7.93396 -0.630529 4.49339 25.5733
1576590 4.41739 4.53956 8.66215 7.98074 -0.546144 4.50351 25.5998
1576600 4.41739 4.53956 8.66215 7.98074 -0.546144 4.50351 25.5998
1576611 4.43478 4.43681 8.68308 7.9246 -0.742216 4.55434 25.4793
1576620 4.3913 4.47418 8.704 7.90589 -0.701894 4.55994 25.4754
1576630 4.3913 4.47418 8.704 7.90589 -0.701894 4.55994 25.4754
1576641 4.43478 4.52088 8.77723 7.97138 -0.700033 4.54766 25.7043
1576660 4.38261 4.47418 8.73538 7.94331 -0.685817 4.59473 25.5355
1576670 4.34783 4.49286 8.74585 7.99009 -0.596952 4.63035 25.5766
1576680 4.34783 4.49286 8.74585 7.99009 -0.596952 4.63035 25.5766
1576690 4.35652 4.45549 8.74585 7.99009 -0.642692 4.65238 25.548
1576702 4.32174 4.49286 8.79815 7.98074 -0.631313 4.66777 25.5935
1576712 4.32174 4.49286 8.79815 7.98074 -0.631313 4.66777 25.5935
1576722 4.3913 4.56758 8.77723 7.99945 -0.584313 4.55661 25.7356
1576732 4.3913 4.56758 8.77723 7.99945 -0.584313 4.55661 25.7356
1576743 4.34783 4.52088 8.71446 7.94331 -0.585762 4.57705 25.5265
1576752 4.30435 4.55824 8.80862 8.01816 -0.522162 4.65028 25.6894
1576762 4.30435 4.55824 8.80862 8.01816 -0.522162 4.65028 25.6894
1576772 4.4 4.55824 8.75631 8.00881 -0.57269 4.5524 25.7234
1576784 4.34783 4.55824 8.74585 8.03687 -0.485186 4.59928 25.6888
1576792 4.34783 4.55824 8.74585 8.03687 -0.485186 4.59928 25.6888
1576804 4.31304 4.55824 8.62031 8.03687 -0.331232 4.57483 25.5285
1576812 4.31304 4.55824 8.62031 8.03687 -0.331232 4.57483 25.5285
1576823 4.30435 4.46484 8.64123 8.03687 -0.436069 4.66194 25.4473
1576831 4.33913 4.53956 8.69354 7.99945 -0.482622 4.58376 25.5717
1576853 4.32174 4.52088 8.704 8.02752 -0.466628 4.62708 25.5741
1576863 4.4 4.62363 8.67262 8.02752 -0.409612 4.47632 25.7238
1576873 4.4 4.62363 8.67262 8.02752 -0.409612 4.47632 25.7238
1576883 4.3913 4.57692 8.66215 8.00881 -0.456071 4.50642 25.6392
1576893 4.4 4.5489 8.67262 8.06494 -0.44651 4.5483 25.6865
1576904 4.4 4.5489 8.67262 8.06494 -0.44651 4.5483 25.6865
1576913 4.33913 4.56758 8.65169 8.0743 -0.340332 4.57576 25.6327
1576923 4.33913 4.56758 8.65169 8.0743 -0.340332 4.57576 25.6327
1576933 4.31304 4.5022 8.71446 8.02752 -0.486934 4.65235 25.5572
1576944 4.30435 4.55824 8.62031 8.06494 -0.295007 4.59295 25.5478
1576964 4.29565 4.55824 8.59938 8.13043 -0.201651 4.61774 25.5837
1576974 4.35652 4.5489 8.63077 8.10237 -0.327653 4.57965 25.6386
1576985 4.35652 4.5489 8.63077 8.10237 -0.327653 4.57965 25.6386
1576995 4.31304 4.52088 8.69354 8.0743 -0.401737 4.64846 25.6018
1577004 4.31304 4.52088 8.69354 8.0743 -0.401737 4.64846 25.6018
1577014 4.30435 4.51154 8.704 8.12108 -0.366338 4.68539 25.641
1577026 4.34783 4.53956 8.68308 8.05559 -0.425111 4.59568 25.626
1577035 4.34783 4.53956 8.68308 8.05559 -0.425111 4.59568 25.626
1577046 4.35652 4.49286 8.69354 8.06494 -0.480577 4.63282 25.6079
1577056 4.31304 4.5022 8.73538 8.05559 -0.479029 4.67215 25.6062
1577078 4.37391 4.53022 8.67262 8.10237 -0.402997 4.59762 25.6791
1577085 4.37391 4.53022 8.67262 8.10237 -0.402997 4.59762 25.6791
1577095 4.31304 4.44615 8.704 8.05559 -0.504829 4.70265 25.5188
1577106 4.33913 4.45549 8.68308 8.10237 -0.453815 4.68577 25.5801
1577117 4.33913 4.45549 8.68308 8.10237 -0.453815 4.68577 25.5801
1577126 4.33913 4.47418 8.77723 8.12108 -0.506684 4.71674 25.7116
1577135 4.33913 4.5022 8.75631 8.03687 -0.542594 4.65302 25.6345
1577145 4.33913 4.5022 8.75631 8.03687 -0.542594 4.65302 25.6345
1577156 4.4 4.51154 8.86092 8.01816 -0.708807 4.63398 25.7906
1577175 4.30435 4.45549 8.85046 7.99009 -0.692588 4.73472 25.6004
1577185 4.37391 4.5022 8.78769 7.99009 -0.652254 4.62016 25.6539
1577197 4.37391 4.5022 8.78769 7.99009 -0.652254 4.62016 25.6539
1577207 4.3913 4.48352 8.80862 7.88718 -0.810723 4.58787 25.5706
1577219 4.36522 4.46484 8.77723 7.97138 -0.690258 4.64365 25.5787
1577227 4.36522 4.46484 8.77723 7.97138 -0.690258 4.64365 25.5787
1577237 4.33913 4.46484 8.80862 7.99945 -0.667128 4.6877 25.612
1577247 4.33913 4.46484 8.80862 7.99945 -0.667128 4.6877 25.612
1577257 4.33043 4.48352 8.78769 7.93396 -0.685956 4.6451 25.5356
1577268 4.37391 4.39011 8.84 8.01816 -0.786078 4.73855 25.6222
1577277 4.37391 4.39011 8.84 8.01816 -0.786078 4.73855 25.6222
1577289 4.33913 4.45549 8.84 7.95267 -0.753272 4.68868 25.5873
1577297 4.4 4.40879 8.82954 7.96203 -0.838582 4.67734 25.6004
1577308 4.4 4.40879 8.82954 7.96203 -0.838582 4.67734 25.6004
1577317 4.32174 4.48352 8.82954 8.03687 -0.614381 4.71015 25.6717
1577328 4.32174 4.48352 8.82954 8.03687 -0.614381 4.71015 25.6717
1577337 4.30435 4.39945 8.82954 7.97138 -0.747953 4.76213 25.5047
1577348 4.34783 4.41813 8.95508 8.01816 -0.841722 4.78295 25.7392
1577357 4.34783 4.41813 8.95508 8.01816 -0.841722 4.78295 25.7392
1577368 4.33043 4.44615 8.89231 7.99009 -0.766297 4.73858 25.659
1577377 4.33043 4.44615 8.89231 7.99009 -0.766297 4.73858 25.659
1577389 4.27826 4.42747 8.84 7.98074 -0.695406 4.76858 25.5265
1577397 4.29565 4.43681 8.90277 8.02752 -0.715132 4.79166 25.6628
1577417 4.29565 4.42747 8.82954 8.08365 -0.598821 4.79207 25.6363
1577427 4.24348 4.39011 8.90277 8.10237 -0.637485 4.89779 25.6387
1577438 4.24348 4.39011 8.90277 8.10237 -0.637485 4.89779 25.6387
1577447 4.27826 4.39945 8.96554 8.10237 -0.720493 4.88832 25.7456
1577473 4.2 4.42747 9.02831 8.08365 -0.696577 4.94445 25.7394
1577482 4.18261 4.39945 9.08062 8.11172 -0.729455 5.01095 25.7744
1577491 4.18261 4.39945 9.08062 8.11172 -0.729455 5.01095 25.7744
1577498 4.13043 4.38077 9.04923 8.08365 -0.697276 5.04308 25.6441
1577508 4.17391 4.44615 8.976 8.08365 -0.603691 4.92972 25.6797
1577518 4.17391 4.44615 8.976 8.08365 -0.603691 4.92972 25.6797
1577528 4.2 4.44615 8.92369 8.08365 -0.578757 4.88892 25.6535
1577538 4.2 4.44615 8.92369 8.08365 -0.578757 4.88892 25.6535
1577548 4.2087 4.36209 8.92369 8.00881 -0.746466 4.91803 25.5033
1577558 4.2087 4.43681 8.77723 7.99945 -0.540537 4.79768 25.4222
1577568 4.2087 4.43681 8.77723 7.99945 -0.540537 4.79768 25.4222
1577578 4.2087 4.44615 8.85046 8.04623 -0.554541 4.83836 25.5515
1577590 4.21739 4.43681 8.94462 8.04623 -0.661884 4.87617 25.6451
1577598 4.21739 4.43681 8.94462 8.04623 -0.661884 4.87617 25.6451
1577608 4.2087 4.47418 8.976 8.09301 -0.599478 4.88477 25.7519
1577618 4.2087 4.47418 8.976 8.09301 -0.599478 4.88477 25.7519
1577631 4.14783 4.48352 9.02831 8.13043 -0.544959 4.9597 25.7901
1577638 4.22609 4.5022 8.94462 8.11172 -0.539841 4.84478 25.7846
1577651 4.22609 4.5022 8.94462 8.11172 -0.539841 4.84478 25.7846
1577658 4.26087 4.51154 8.94462 8.05559 -0.619222 4.78869 25.7726
1577670 4.15652 4.46484 8.84 7.98074 -0.541376 4.83414 25.4421
1577688 4.17391 4.5022 8.81908 8.00881 -0.472462 4.79441 25.504
1577698 4.17391 4.5022 8.81908 8.00881 -0.472462 4.79441 25.504
1577708 4.1913 4.58626 8.80862 8.06494 -0.339863 4.73429 25.6511
1577719 4.18261 4.53022 8.82954 8.08365 -0.388542 4.80002 25.626
1577729 4.18261 4.53022 8.82954 8.08365 -0.388542 4.80002 25.626
1577739 4.18261 4.53022 8.88185 8.10237 -0.420155 4.82821 25.697
1577753 4.15652 4.49286 8.91323 8.11172 -0.452957 4.89335 25.6743
1577769 4.16522 4.5489 8.90277 8.0743 -0.432819 4.82439 25.6912
1577779 4.16522 4.5489 8.90277 8.0743 -0.432819 4.82439 25.6912
1577789 4.10435 4.47418 8.89231 8.08365 -0.429302 4.92914 25.5545
1577799 4.16522 4.53956 8.81908 8.09301 -0.343251 4.80581 25.6169
1577812 4.16522 4.53956 8.81908 8.09301 -0.343251 4.80581 25.6169
1577819 4.23478 4.55824 8.72492 8.10237 -0.291857 4.70384 25.6203
1577832 4.13913 4.52088 8.72492 8.03687 -0.30122 4.78042 25.4218
1577839 4.13913 4.52088 8.72492 8.03687 -0.30122 4.78042 25.4218
1577850 4.17391 4.56758 8.74585 8.10237 -0.244053 4.75194 25.5897
1577861 4.17391 4.56758 8.74585 8.10237 -0.244053 4.75194 25.5897
1577870 4.16522 4.53956 8.81908 8.11172 -0.324753 4.81325 25.6356
1577880 4.17391 4.55824 8.80862 8.05559 -0.360112 4.76555 25.5964
1577900 4.2087 4.52088 8.84 8.12108 -0.395803 4.80613 25.6907
1577911 4.13043 4.55824 8.84 8.13043 -0.27452 4.84142 25.6591
1577922 4.13043 4.55824 8.84 8.13043 -0.27452 4.84142 25.6591
1577932 4.17391 4.56758 8.80862 8.0743 -0.332348 4.76582 25.6244
1577952 4.1913 4.53022 8.78769 8.06494 -0.375217 4.76914 25.5742
1577963 4.18261 4.58626 8.85046 8.06494 -0.371692 4.7577 25.6843
1577972 4.18261 4.58626 8.85046 8.06494 -0.371692 4.7577 25.6843
1577982 4.15652 4.58626 8.82954 8.00881 -0.382107 4.74699 25.5811
1577992 4.17391 4.58626 8.88185 7.99945 -0.458287 4.75077 25.6415
1578002 4.17391 4.58626 8.88185 7.99945 -0.458287 4.75077 25.6415
1578012 4.22609 4.62363 8.77723 7.98074 -0.389487 4.63235 25.6077
1578022 4.22609 4.62363 8.77723 7.98074 -0.389487 4.63235 25.6077
1578035 4.27826 4.5489 8.74585 7.93396 -0.53049 4.61794 25.507
1578042 4.32174 4.58626 8.74585 7.99009 -0.478894 4.57882 25.6439
1578070 4.32174 4.64231 8.69354 7.86846 -0.494108 4.46482 25.5261
1578072 4.35652 4.61429 8.69354 7.88718 -0.536756 4.46739 25.5515
1578082 4.35652 4.61429 8.69354 7.88718 -0.536756 4.46739 25.5515
1578092 4.31304 4.5956 8.72492 7.99009 -0.441261 4.56982 25.6237
1578102 4.31304 4.5956 8.72492 7.99009 -0.441261 4.56982 25.6237
1578111 4.28696 4.53022 8.77723 8.00881 -0.512789 4.66867 25.6032
1578129 4.32174 4.60495 8.81908 8.02752 -0.493102 4.60937 25.7733
1578133 4.32174 4.60495 8.81908 8.02752 -0.493102 4.60937 25.7733
1578143 4.32174 4.57692 8.87138 8.02752 -0.570484 4.65174 25.7976
1578153 4.32174 4.5489 8.85046 8.01816 -0.587758 4.66096 25.7393
1578173 4.26957 4.53956 8.85046 8.03687 -0.528859 4.71556 25.6965
1578183 4.26957 4.53956 8.85046 8.03687 -0.528859 4.71556 25.6965
1578194 4.26957 4.48352 8.87138 8.01816 -0.62325 4.75953 25.6426
1578203 4.24348 4.53956 8.78769 8.08365 -0.397551 4.72919 25.6544
1578215 4.24348 4.53956 8.78769 8.08365 -0.397551 4.72919 25.6544
1578223 4.28696 4.53022 8.73538 7.94331 -0.538135 4.62517 25.4959
1578243 4.26087 4.48352 8.704 7.9246 -0.548568 4.66099 25.373
1578255 4.21739 4.51154 8.73538 8.0743 -0.359201 4.7462 25.5386
1578266 4.21739 4.51154 8.73538 8.0743 -0.359201 4.7462 25.5386
1578277 4.25217 4.44615 8.77723 8.08365 -0.488667 4.79038 25.5592
1578284 4.26957 4.49286 8.82954 8.14915 -0.44394 4.78783 25.7411
1578293 4.26957 4.49286 8.82954 8.14915 -0.44394 4.78783 25.7411
1578304 4.23478 4.48352 8.90277 8.14915 -0.489798 4.85073 25.7702
1578314 4.21739 4.47418 8.89231 8.224 -0.398643 4.89661 25.8079
1578324 4.21739 4.47418 8.89231 8.224 -0.398643 4.89661 25.8079
1578334 4.1913 4.46484 8.91323 8.17722 -0.449073 4.91384 25.7466
1578344 4.1913 4.46484 8.91323 8.17722 -0.449073 4.91384 25.7466
1578357 4.14783 4.43681 8.92369 8.26142 -0.362135 5.00614 25.7698
1578364 4.1913 4.44615 8.976 8.32691 -0.379944 5.0108 25.9404
1578376 4.1913 4.44615 8.976 8.32691 -0.379944 5.0108 25.9404
1578384 4.17391 4.40879 8.90277 8.31756 -0.339434 5.02128 25.803
1578397 4.17391 4.40879 8.90277 8.31756 -0.339434 5.02128 25.803
1578404 4.15652 4.28736 8.85046 8.23335 -0.476219 5.0768 25.5277
1578417 4.18261 4.34341 8.92369 8.28013 -0.469068 5.059 25.7298
1578424 4.18261 4.34341 8.92369 8.28013 -0.469068 5.059 25.7298
1578437 4.13043 4.34341 8.78769 8.25206 -0.316161 5.03609 25.5136
1578444 4.13043 4.39011 8.82954 8.21464 -0.347376 5.00121 25.5647
1578455 4.13043 4.39011 8.82954 8.21464 -0.347376 5.00121 25.5647
1578464 4.17391 4.40879 8.84 8.224 -0.371517 4.96046 25.6467
1578477 4.17391 4.40879 8.84 8.224 -0.371517 4.96046 25.6467
1578484 4.13043 4.35275 8.76677 8.19593 -0.342423 4.99856 25.4459
1578494 4.14783 4.32473 8.82954 8.29884 -0.345489 5.07159 25.6009
1578505 4.14783 4.32473 8.82954 8.29884 -0.345489 5.07159 25.6009
1578514 4.15652 4.37143 8.93415 8.29884 -0.407985 5.06875 25.7609
1578524 4.15652 4.37143 8.87138 8.29884 -0.347915 5.04449 25.6982
1578534 4.15652 4.37143 8.87138 8.29884 -0.347915 5.04449 25.6982
1578544 4.14783 4.36209 8.93415 8.3082 -0.399667 5.08641 25.7523
1578557 4.14783 4.36209 8.93415 8.3082 -0.399667 5.08641 25.7523
1578564 4.08696 4.33407 8.88185 8.28949 -0.337256 5.12867 25.5924
1578576 4.12174 4.32473 8.93415 8.28949 -0.43015 5.12883 25.6701
1578584 4.12174 4.32473 8.93415 8.28949 -0.43015 5.12883 25.6701
1578594 4.2087 4.39011 8.88185 8.26142 -0.426356 4.97889 25.7421
1578604 4.12174 4.35275 8.81908 8.28013 -0.30103 5.05875 25.5737
1578614 4.12174 4.35275 8.81908 8.28013 -0.30103 5.05875 25.5737
1578624 4.15652 4.36209 8.86092 8.37369 -0.273424 5.07665 25.7532
1578634 4.15652 4.36209 8.86092 8.37369 -0.273424 5.07665 25.7532
1578645 4.11304 4.34341 8.81908 8.28949 -0.292611 5.07654 25.565
1578656 4.06957 4.39945 8.84 8.3082 -0.197051 5.08204 25.6172
1578665 4.06957 4.39945 8.84 8.3082 -0.197051 5.08204 25.6172
1578679 4.13043 4.39011 8.84 8.3082 -0.265038 5.04173 25.6687
1578685 4.10435 4.38077 8.81908 8.33627 -0.201231 5.0722 25.6405
1578695 4.10435 4.38077 8.81908 8.33627 -0.201231 5.0722 25.6405
1578705 4.12174 4.2967 8.91323 8.27078 -0.456488 5.13558 25.6024
1578717 4.12174 4.2967 8.91323 8.27078 -0.456488 5.13558 25.6024
1578725 4.09565 4.36209 8.93415 8.34562 -0.312865 5.14154 25.7375
1578735 4.04348 4.2967 8.90277 8.35498 -0.287683 5.22556 25.5979
1578750 4.04348 4.2967 8.90277 8.35498 -0.287683 5.22556 25.5979
1578761 4.12174 4.28736 8.90277 8.32691 -0.400011 5.16049 25.6388
1578768 4.12174 4.2967 8.90277 8.34562 -0.37225 5.16033 25.6668
1578777 4.12174 4.2967 8.90277 8.34562 -0.37225 5.16033 25.6668
1578788 4.09565 4.39011 8.95508 8.33627 -0.314572 5.12407 25.7771
1578808 4.07826 4.34341 8.88185 8.37369 -0.236596 5.16053 25.6772
1578819 4.13043 4.33407 8.95508 8.33627 -0.402996 5.14068 25.7558
1578838 4.13043 4.30604 8.89231 8.34562 -0.361328 5.14215 25.6744
1578849 4.03478 4.30604 8.89231 8.26142 -0.352646 5.18517 25.4946
1578859 4.03478 4.30604 8.89231 8.26142 -0.352646 5.18517 25.4946
1578869 4.06957 4.33407 8.90277 8.27078 -0.3592 5.14321 25.5772
1578879 4.06087 4.28736 8.92369 8.3082 -0.380178 5.20931 25.5801
1578889 4.06087 4.28736 8.92369 8.3082 -0.380178 5.20931 25.5801
1578899 4.07826 4.30604 8.88185 8.32691 -0.319567 5.17198 25.5931
1578910 4.07826 4.30604 8.88185 8.32691 -0.319567 5.17198 25.5931
1578920 4.07826 4.36209 8.96554 8.28949 -0.381611 5.14568 25.6954
1578930 4.13043 4.32473 8.88185 8.25206 -0.425467 5.08738 25.5891
1578939 4.13043 4.32473 8.88185 8.25206 -0.425467 5.08738 25.5891
1578951 4.12174 4.42747 8.91323 8.23335 -0.364015 5.01874 25.6958
1578959 4.12174 4.42747 8.84 8.23335 -0.293604 4.99022 25.6226
1578972 4.11304 4.37143 8.84 8.21464 -0.35923 5.03356 25.5391
1578979 4.12174 4.35275 8.86092 8.23335 -0.38774 5.05683 25.5688
1578992 4.12174 4.35275 8.86092 8.23335 -0.38774 5.05683 25.5688
1578999 4.17391 4.32473 8.88185 8.18657 -0.532389 5.02782 25.5671
1579009 4.12174 4.43681 8.86092 8.28013 -0.258483 5.00932 25.6996
1579019 4.12174 4.43681 8.86092 8.28013 -0.258483 5.00932 25.6996
1579030 4.1913 4.46484 8.90277 8.1585 -0.457604 4.9024 25.7174
1579049 4.15652 4.39945 8.85046 8.18657 -0.411209 4.97073 25.593
1579060 4.17391 4.42747 8.91323 8.13043 -0.515924 4.93796 25.6451
1579070 4.17391 4.42747 8.91323 8.13043 -0.515924 4.93796 25.6451
1579080 4.1913 4.45549 8.81908 8.13979 -0.405277 4.86927 25.6057
1579090 4.2 4.47418 8.79815 8.14915 -0.365737 4.84347 25.6215
1579100 4.2 4.47418 8.79815 8.14915 -0.365737 4.84347 25.6215
1579110 4.2 4.51154 8.78769 8.11172 -0.355735 4.79553 25.611
1579137 4.2087 4.5022 8.81908 8.12108 -0.394231 4.81224 25.651
1579140 4.2087 4.58626 8.75631 8.09301 -0.278552 4.7112 25.6443
1579150 4.2087 4.58626 8.75631 8.09301 -0.278552 4.7112 25.6443
1579161 4.18261 4.58626 8.78769 8.0743 -0.302117 4.73635 25.6309
1579171 4.22609 4.60495 8.76677 8.05559 -0.32386 4.67267 25.6534
1579181 4.22609 4.60495 8.76677 8.05559 -0.32386 4.67267 25.6534
1579190 4.32174 4.62363 8.82954 8.0743 -0.438461 4.61821 25.8492
1579201 4.32174 4.62363 8.82954 8.0743 -0.438461 4.61821 25.8492
1579211 4.22609 4.57692 8.68308 8.10237 -0.22459 4.67932 25.5885
1579220 4.23478 4.58626 8.77723 8.05559 -0.36073 4.68454 25.6539
1579233 4.23478 4.58626 8.77723 8.05559 -0.36073 4.68454 25.6539
1579244 4.32174 4.55824 8.72492 8.03687 -0.440244 4.61073 25.6418
1579251 4.28696 4.56758 8.66215 7.99945 -0.374351 4.58949 25.5161
1579261 4.28696 4.56758 8.66215 7.99945 -0.374351 4.58949 25.5161
1579270 4.23478 4.62363 8.78769 8.10237 -0.287864 4.67891 25.7485
1579291 4.22609 4.5956 8.66215 8.02752 -0.259803 4.62616 25.5114
1579301 4.26957 4.62363 8.68308 8.11172 -0.211471 4.61399 25.688
1579311 4.26957 4.62363 8.68308 8.11172 -0.211471 4.61399 25.688
1579321 4.26957 4.62363 8.72492 8.03687 -0.325461 4.60063 25.655
1579330 4.25217 4.5956 8.72492 8.13043 -0.244188 4.67311 25.7031
1579344 4.25217 4.5956 8.72492 8.13043 -0.244188 4.67311 25.7031
1579352 4.21739 4.51154 8.704 8.09301 -0.310312 4.74111 25.5259
1579362 4.21739 4.51154 8.704 8.09301 -0.310312 4.74111 25.5259
1579372 4.25217 4.57692 8.68308 8.10237 -0.249821 4.65927 25.6145
1579382 4.30435 4.5489 8.65169 8.08365 -0.316043 4.62048 25.5886
1579391 4.30435 4.5489 8.65169 8.08365 -0.316043 4.62048 25.5886
1579409 4.26087 4.56758 8.71446 8.08365 -0.316168 4.66488 25.6266
1579412 4.27826 4.57692 8.74585 8.14915 -0.289352 4.68335 25.7502
1579424 4.27826 4.57692 8.74585 8.14915 -0.289352 4.68335 25.7502
1579433 4.22609 4.53956 8.66215 8.14915 -0.195034 4.7185 25.577
1579453 4.24348 4.46484 8.66215 8.11172 -0.322849 4.74776 25.4822
1579463 4.26957 4.52088 8.73538 8.13979 -0.335352 4.72504 25.6656
1579473 4.26957 4.52088 8.73538 8.13979 -0.335352 4.72504 25.6656
1579483 4.21739 4.5489 8.68308 8.09301 -0.253066 4.70383 25.5424
1579493 4.22609 4.5022 8.63077 8.02752 -0.322159 4.68555 25.3866
1579503 4.22609 4.5022 8.63077 8.02752 -0.322159 4.68555 25.3866
1579513 4.26087 4.53022 8.68308 8.17722 -0.230506 4.71858 25.6514
1579535 4.26087 4.5022 8.66215 8.13043 -0.284076 4.71296 25.5557
1579543 4.29565 4.53956 8.704 8.13979 -0.311834 4.67809 25.679
1579564 4.33043 4.51154 8.65169 8.12108 -0.341122 4.64428 25.6147
1579574 4.28696 4.5956 8.72492 8.06494 -0.342128 4.62012 25.6724
1579584 4.28696 4.5956 8.72492 8.06494 -0.342128 4.62012 25.6724
1579594 4.33913 4.55824 8.68308 8.04623 -0.407518 4.58425 25.6267
1579604 4.33913 4.55824 8.68308 8.04623 -0.407518 4.58425 25.6267
1579614 4.28696 4.51154 8.65169 8.03687 -0.382778 4.64357 25.4871
1579624 4.36522 4.60495 8.704 8.10237 -0.351006 4.56008 25.7765
1579635 4.36522 4.60495 8.704 8.10237 -0.351006 4.56008 25.7765
1579647 4.31304 4.61429 8.67262 8.02752 -0.335437 4.5495 25.6275
1579655 4.32174 4.5956 8.68308 8.09301 -0.307666 4.58799 25.6934
1579664 4.32174 4.5956 8.68308 8.09301 -0.307666 4.58799 25.6934
1579674 4.34783 4.5489 8.69354 7.99945 -0.48165 4.56996 25.5897
1579684 4.34783 4.5489 8.69354 7.99945 -0.48165 4.56996 25.5897
1579694 4.35652 4.56758 8.64123 7.99945 -0.421205 4.52766 25.5648
1579704 4.33043 4.57692 8.63077 7.99945 -0.376733 4.53617 25.5376
1579714 4.33043 4.57692 8.63077 7.99945 -0.376733 4.53617 25.5376
1579724 4.32174 4.61429 8.58892 7.87782 -0.41192 4.44679 25.4028
1579738 4.33043 4.60495 8.704 7.94331 -0.475106 4.52177 25.5827
1579748 4.33043 4.60495 8.704 7.94331 -0.475106 4.52177 25.5827
1579757 4.4 4.67033 8.63077 8.00881 -0.341925 4.41614 25.7099
1579776 4.37391 4.60495 8.68308 7.96203 -0.478084 4.48774 25.624
1579785 4.38261 4.62363 8.73538 7.96203 -0.517768 4.48838 25.7036
1579806 4.37391 4.63297 8.74585 7.94331 -0.528757 4.48451 25.696
1579817 4.33913 4.60495 8.72492 7.97138 -0.475547 4.53517 25.6404
1579837 4.38261 4.60495 8.75631 7.94331 -0.574858 4.50345 25.6872
1579849 4.38261 4.60495 8.75631 7.94331 -0.574858 4.50345 25.6872
1579857 4.30435 4.55824 8.75631 7.97138 -0.518784 4.61021 25.5903
1579867 4.34783 4.57692 8.71446 8.02752 -0.445955 4.5685 25.6667
1579879 4.34783 4.57692 8.71446 8.02752 -0.445955 4.5685 25.6667
1579888 4.27826 4.53022 8.704 7.95267 -0.490251 4.6229 25.4652
1579898 4.30435 4.53956 8.72492 7.94331 -0.53543 4.60035 25.5121
1579908 4.30435 4.53956 8.72492 7.94331 -0.53543 4.60035 25.5121
1579919 4.32174 4.5956 8.79815 8.01816 -0.491697 4.60426 25.7337
1579928 4.32174 4.5956 8.79815 8.01816 -0.491697 4.60426 25.7337
1579939 4.31304 4.53956 8.77723 7.99009 -0.547056 4.63392 25.6199
1579951 4.29565 4.5489 8.77723 8.06494 -0.446765 4.67029 25.6867
1579960 4.29565 4.5489 8.77723 8.06494 -0.446765 4.67029 25.6867
1579968 4.27826 4.56758 8.75631 8.02752 -0.428672 4.64578 25.6297
1579981 4.31304 4.56758 8.704 8.01816 -0.421144 4.59415 25.6028
1579988 4.31304 4.56758 8.704 8.01816 -0.421144 4.59415 25.6028
1580003 4.29565 4.56758 8.72492 8.0743 -0.36892 4.63867 25.6625
1580009 4.25217 4.56758 8.74585 8.03687 -0.384301 4.66535 25.6025
1580019 4.25217 4.56758 8.74585 8.03687 -0.384301 4.66535 25.6025
1580029 4.30435 4.58626 8.73538 7.99945 -0.442939 4.59166 25.6254
1580048 4.30435 4.58626 8.73538 7.99945 -0.442939 4.59166 25.6254
1580051 4.29565 4.5489 8.71446 7.99945 -0.451672 4.61845 25.5585
1580063 4.31304 4.57692 8.68308 7.99009 -0.419651 4.56705 25.5631
1580069 4.31304 4.57692 8.68308 7.99009 -0.419651 4.56705 25.5631
1580080 4.33043 4.60495 8.67262 7.91525 -0.47296 4.49736 25.5232
1580090 4.31304 4.66099 8.65169 7.96203 -0.333871 4.47852 25.5877
1580101 4.31304 4.66099 8.65169 7.96203 -0.333871 4.47852 25.5877
1580119 4.33913 4.67033 8.67262 7.99945 -0.332893 4.47556 25.6815
1580131 4.37391 4.67967 8.66215 7.95267 -0.393213 4.41861 25.6684
1580141 4.37391 4.62363 8.62031 7.99945 -0.362204 4.46313 25.6173
1580151 4.37391 4.62363 8.62031 7.99945 -0.362204 4.46313 25.6173
1580163 4.3913 4.67967 8.65169 7.99945 -0.353663 4.42042 25.7221
1580171 4.28696 4.64231 8.65169 7.99009 -0.299406 4.52417 25.571
1580181 4.28696 4.64231 8.65169 7.99009 -0.299406 4.52417 25.571
1580192 4.4087 4.64231 8.63077 7.97138 -0.414933 4.41533 25.6532
1580202 4.4087 4.64231 8.63077 7.97138 -0.414933 4.41533 25.6532
1580212 4.37391 4.67033 8.53662 7.86846 -0.365171 4.33853 25.4493
1580222 4.3913 4.70769 8.54708 7.88718 -0.33634 4.30924 25.5333
1580232 4.3913 4.70769 8.54708 7.88718 -0.33634 4.30924 25.5333
1580242 4.47826 4.73571 8.52615 7.87782 -0.381452 4.20994 25.618
1580252 4.4 4.76374 8.54708 7.86846 -0.307746 4.25255 25.5793
1580264 4.4 4.76374 8.54708 7.86846 -0.307746 4.25255 25.5793
1580272 4.44348 4.79176 8.54708 7.87782 -0.31272 4.20282 25.6601
1580282 4.44348 4.79176 8.54708 7.87782 -0.31272 4.20282 25.6601
1580293 4.4087 4.8011 8.59938 7.82168 -0.375815 4.22027 25.6309
1580303 4.41739 4.72637 8.50523 7.89653 -0.293314 4.2618 25.5455
1580313 4.41739 4.72637 8.50523 7.89653 -0.293314 4.2618 25.5455
1580323 4.44348 4.74505 8.53662 7.80297 -0.423126 4.20187 25.5281
1580334 4.49565 4.81978 8.42154 7.83104 -0.260453 4.06982 25.568
1580343 4.49565 4.81978 8.42154 7.83104 -0.260453 4.06982 25.568
1580353 4.53913 4.79176 8.49477 7.84975 -0.382067 4.09748 25.6754
1580363 4.53913 4.79176 8.49477 7.84975 -0.382067 4.09748 25.6754
1580374 4.48696 4.7544 8.41108 7.83104 -0.306664 4.12077 25.4835
1580383 4.46087 4.77308 8.41108 7.83104 -0.262824 4.12633 25.4761
1580394 4.46087 4.77308 8.41108 7.83104 -0.262824 4.12633 25.4761
1580403 4.53913 4.81044 8.432 7.81233 -0.34028 4.04086 25.5939
1580416 4.47826 4.76374 8.45292 7.85911 -0.301653 4.15005 25.554
1580423 4.47826 4.76374 8.45292 7.85911 -0.301653 4.15005 25.554
1580433 4.43478 4.83846 8.42154 7.88718 -0.12771 4.12526 25.582
1580443 4.43478 4.83846 8.42154 7.88718 -0.12771 4.12526 25.582
1580453 4.47826 4.86648 8.41108 7.85911 -0.159815 4.05551 25.6149
1580463 4.47826 4.81044 8.48431 7.78426 -0.359845 4.0966 25.5573
1580483 4.48696 4.90385 8.432 7.75619 -0.253057 3.98612 25.579
1580493 4.48696 4.90385 8.432 7.75619 -0.253057 3.98612 25.579
1580503 4.45217 4.88516 8.41108 7.80297 -0.171335 4.03699 25.5514
1580513 4.50435 4.90385 8.37969 7.74684 -0.228472 3.94659 25.5347
1580533 4.51304 4.93187 8.39015 7.70941 -0.256336 3.90769 25.5445
1580543 4.51304 4.93187 8.296 7.67199 -0.201856 3.85025 25.4129
1580553 4.51304 4.93187 8.296 7.67199 -0.201856 3.85025 25.4129
1580564 4.55652 5.00659 8.31692 7.59714 -0.264663 3.7392 25.4772
1580574 4.6 4.98791 8.296 7.66263 -0.240204 3.74065 25.5465
1580583 4.6 4.98791 8.296 7.66263 -0.240204 3.74065 25.5465
1580594 4.6087 4.96923 8.33785 7.64392 -0.326091 3.75817 25.5597
1580614 4.61739 5.07198 8.32738 7.52229 -0.343111 3.61817 25.539
1580624 4.66957 5.06264 8.36923 7.541 -0.424254 3.61395 25.6424
1580634 4.66957 5.06264 8.36923 7.541 -0.424254 3.61395 25.6424
1580645 4.75652 5.09066 8.26462 7.48487 -0.435227 3.45883 25.5967
1580655 4.67826 5.12802 8.28554 7.44744 -0.380139 3.48093 25.5393
1580671 4.67826 5.12802 8.28554 7.44744 -0.380139 3.48093 25.5393
1580679 4.71304 5.1 8.28554 7.41937 -0.469483 3.46336 25.518
1580689 4.71304 5.1 8.28554 7.41937 -0.469483 3.46336 25.518
1580694 4.73043 5.13736 8.27508 7.36324 -0.494894 3.39361 25.5061
1580706 4.78261 5.19341 8.18092 7.27903 -0.482677 3.23397 25.436
1580715 4.78261 5.19341 8.18092 7.27903 -0.482677 3.23397 25.436
1580726 4.73043 5.23077 8.16 7.29774 -0.355956 3.24357 25.4189
1580736 4.73043 5.23077 8.24369 7.29774 -0.436831 3.28215 25.5026
1580747 4.78261 5.17473 8.24369 7.28839 -0.552377 3.28062 25.4894
1580756 4.78261 5.25879 8.25415 7.26968 -0.49706 3.21673 25.5652
1580766 4.78261 5.25879 8.25415 7.26968 -0.49706 3.21673 25.5652
1580775 4.81739 5.24945 8.14954 7.19483 -0.514196 3.11527 25.4112
1580788 4.78261 5.24011 8.23323 7.31646 -0.448993 3.24195 25.5724
1580795 4.78261 5.24011 8.23323 7.31646 -0.448993 3.24195 25.5724
1580805 4.83478 5.24945 8.20185 7.29774 -0.478266 3.17507 25.5838
1580817 4.82609 5.22143 8.20185 7.22289 -0.572792 3.16652 25.4723
1580837 4.84348 5.24945 8.23323 7.29774 -0.516623 3.18338 25.6239
1580847 4.84348 5.24945 8.23323 7.29774 -0.516623 3.18338 25.6239
1580857 4.77391 5.16538 8.20185 7.3071 -0.49441 3.28293 25.4482
1580868 4.7913 5.21209 8.27508 7.3071 -0.53467 3.27066 25.5856
1580879 4.7913 5.21209 8.27508 7.3071 -0.53467 3.27066 25.5856
1580888 4.75652 5.1467 8.296 7.32581 -0.568075 3.36058 25.525
1580899 4.8 5.1467 8.23323 7.34452 -0.530867 3.30921 25.5245
1580908 4.8 5.1467 8.23323 7.34452 -0.530867 3.30921 25.5245
1580920 4.8087 5.11868 8.27508 7.36324 -0.588538 3.35074 25.5657
1580940 4.74783 5.09066 8.31692 7.36324 -0.598438 3.43377 25.5186
1580948 4.74783 5.1 8.35877 7.41002 -0.58222 3.46706 25.6166
1580959 4.74783 5.1 8.35877 7.41002 -0.58222 3.46706 25.6166
1580968 4.73913 5.12802 8.35877 7.46615 -0.490154 3.47837 25.6921
1580980 4.66957 5.12802 8.39015 7.47551 -0.444399 3.54675 25.6632
1580988 4.66957 5.12802 8.39015 7.47551 -0.444399 3.54675 25.6632
1581001 4.73913 5.03462 8.32738 7.47551 -0.543849 3.53593 25.5766
1581008 4.73913 5.03462 8.32738 7.47551 -0.543849 3.53593 25.5766
1581018 4.67826 4.91319 8.33785 7.41937 -0.674146 3.64858 25.3487
1581028 4.66087 4.99725 8.30646 7.46615 -0.495391 3.60656 25.4307
1581038 4.66087 4.99725 8.30646 7.46615 -0.495391 3.60656 25.4307
1581048 4.68696 4.99725 8.35877 7.42873 -0.608268 3.59416 25.4717
1581058 4.70435 4.93187 8.46338 7.43808 -0.780982 3.68001 25.5377
1581068 4.70435 4.93187 8.46338 7.43808 -0.780982 3.68001 25.5377
1581078 4.66957 4.93187 8.48431 7.44744 -0.758389 3.71888 25.5332
1581088 4.66957 4.93187 8.48431 7.44744 -0.758389 3.71888 25.5332
1581100 4.66957 4.91319 8.41108 7.41002 -0.745396 3.6835 25.4038
1581108 4.66087 4.93187 8.432 7.4568 -0.690897 3.70625 25.4815
1581118 4.66087 4.93187 8.432 7.4568 -0.690897 3.70625 25.4815
1581129 4.72174 4.95989 8.40062 7.4568 -0.690773 3.62726 25.539
1581148 4.73043 4.95989 8.47385 7.44744 -0.77792 3.6493 25.6116
1581158 4.73043 4.91319 8.37969 7.44744 -0.735646 3.64154 25.4708
1581179 4.66087 4.87582 8.47385 7.44744 -0.796853 3.76184 25.458
1581189 4.68696 4.91319 8.55754 7.43808 -0.87243 3.74797 25.5958
1581212 4.73913 4.93187 8.53662 7.43808 -0.882986 3.68699 25.6457
1581219 4.67826 4.93187 8.49477 7.43808 -0.786002 3.71299 25.543
1581232 4.67826 4.87582 8.49477 7.44744 -0.833225 3.75826 25.4963
1581239 4.71304 4.89451 8.51569 7.41002 -0.904913 3.71172 25.5333
1581249 4.71304 4.89451 8.51569 7.41002 -0.904913 3.71172 25.5333
1581259 4.69565 4.81978 8.568 7.46615 -0.956686 3.8271 25.5496
1581269 4.67826 4.87582 8.62031 7.44744 -0.951633 3.81335 25.6218
1581279 4.67826 4.87582 8.62031 7.44744 -0.951633 3.81335 25.6218
1581289 4.71304 4.85714 8.58892 7.49422 -0.926393 3.80825 25.6533
1581317 4.68696 4.83846 8.62031 7.46615 -0.978693 3.84258 25.6119
1581326 4.73043 4.85714 8.54708 7.43808 -0.960284 3.75258 25.5727
1581335 4.73043 4.85714 8.54708 7.43808 -0.960284 3.75258 25.5727
1581339 4.68696 4.89451 8.57846 7.41002 -0.939479 3.75852 25.5699
1581349 4.69565 4.89451 8.53662 7.48487 -0.832529 3.76664 25.6116
1581369 4.69565 4.87582 8.55754 7.3913 -0.965957 3.74841 25.5203
1581391 4.66087 4.8011 8.53662 7.44744 -0.932315 3.84466 25.446
1581400 4.66087 4.8011 8.59938 7.49422 -0.943954 3.89248 25.5556
1581411 4.66087 4.8011 8.59938 7.49422 -0.943954 3.89248 25.5556
1581422 4.61739 4.85714 8.54708 7.41002 -0.882079 3.82352 25.4316
1581430 4.72174 4.8011 8.62031 7.43808 -1.07781 3.83223 25.5812
1581443 4.72174 4.8011 8.62031 7.43808 -1.07781 3.83223 25.5812
1581450 4.69565 4.87582 8.568 7.48487 -0.880963 3.79408 25.6243
1581464 4.69565 4.87582 8.568 7.48487 -0.880963 3.79408 25.6243
1581472 4.63478 4.82912 8.51569 7.52229 -0.783339 3.86682 25.5019
1581480 4.68696 4.85714 8.60985 7.541 -0.874354 3.85684 25.6949
1581491 4.68696 4.85714 8.60985 7.541 -0.874354 3.85684 25.6949
1581501 4.67826 4.82912 8.63077 7.55036 -0.904636 3.89692 25.6885
1581511 4.61739 4.82912 8.54708 7.50358 -0.815549 3.88522 25.4972
1581521 4.61739 4.82912 8.54708 7.50358 -0.815549 3.88522 25.4972
1581532 4.68696 4.86648 8.59938 7.55971 -0.836308 3.85356 25.7125
1581542 4.68696 4.86648 8.59938 7.55971 -0.836308 3.85356 25.7125
1581552 4.61739 4.76374 8.568 7.57843 -0.825803 3.97529 25.5276
1581562 4.5913 4.8478 8.53662 7.59714 -0.667678 3.92681 25.5729
1581572 4.5913 4.8478 8.53662 7.59714 -0.667678 3.92681 25.5729
1581582 4.62609 4.73571 8.58892 7.60649 -0.853772 4.01077 25.5572
1581593 4.5913 4.77308 8.51569 7.66263 -0.657026 4.0015 25.5427
1581602 4.5913 4.77308 8.51569 7.66263 -0.657026 4.0015 25.5427
1581612 4.57391 4.83846 8.53662 7.59714 -0.6605 3.94661 25.5461
1581622 4.57391 4.83846 8.53662 7.59714 -0.6605 3.94661 25.5461
1581633 4.56522 4.76374 8.568 7.67199 -0.681974 4.05435 25.5689
1581642 4.55652 4.72637 8.67262 7.63456 -0.84818 4.11739 25.5901
1581662 4.51304 4.77308 8.58892 7.72812 -0.586614 4.11917 25.6032
1581674 4.53913 4.70769 8.53662 7.6907 -0.664745 4.11034 25.4741
1581682 4.53913 4.70769 8.53662 7.6907 -0.664745 4.11034 25.4741
1581692 4.54783 4.66099 8.60985 7.80297 -0.676879 4.21753 25.6216
1581712 4.47826 4.67967 8.66215 7.80297 -0.64178 4.27771 25.6231
1581723 4.47826 4.70769 8.63077 7.74684 -0.640076 4.21986 25.5636
1581743 4.53043 4.69835 8.66215 7.75619 -0.719422 4.20489 25.6471
1581756 4.48696 4.66099 8.67262 7.76555 -0.716244 4.27393 25.5861
1581763 4.48696 4.66099 8.67262 7.76555 -0.716244 4.27393 25.5861
1581776 4.46087 4.65165 8.67262 7.86846 -0.597745 4.34358 25.6536
1581796 4.41739 4.63297 8.69354 7.86846 -0.594926 4.39923 25.6124
1581803 4.4 4.62363 8.704 7.88718 -0.578959 4.43155 25.6148
1581817 4.4 4.62363 8.704 7.88718 -0.578959 4.43155 25.6148
1581824 4.4 4.67967 8.71446 7.85911 -0.561024 4.38184 25.6532
1581837 4.41739 4.64231 8.68308 7.85911 -0.584967 4.38395 25.6019
1581844 4.41739 4.64231 8.68308 7.85911 -0.584967 4.38395 25.6019
1581854 4.37391 4.67033 8.72492 7.81233 -0.602172 4.39361 25.5815
1581874 4.35652 4.63297 8.74585 7.82168 -0.633599 4.44773 25.557
1581884 4.38261 4.64231 8.79815 7.81233 -0.70813 4.43853 25.6354
1581895 4.38261 4.64231 8.79815 7.81233 -0.70813 4.43853 25.6354
1581905 4.4087 4.60495 8.80862 7.84975 -0.742653 4.46676 25.672
1581915 4.4 4.64231 8.86092 7.78426 -0.812025 4.43964 25.6875
1581925 4.4 4.64231 8.86092 7.78426 -0.812025 4.43964 25.6875
1581935 4.4 4.63297 8.79815 7.78426 -0.762165 4.42085 25.6154
1581959 4.4087 4.61429 8.81908 7.78426 -0.808959 4.43705 25.6263
1581968 4.3913 4.63297 8.78769 7.81233 -0.715825 4.43471 25.6243
1581975 4.3913 4.63297 8.78769 7.81233 -0.715825 4.43471 25.6243
1581986 4.35652 4.60495 8.79815 7.78426 -0.749172 4.47521 25.5439
1581995 4.34783 4.58626 8.81908 7.72812 -0.836414 4.48159 25.4813
1582006 4.34783 4.58626 8.81908 7.72812 -0.836414 4.48159 25.4813
1582016 4.38261 4.57692 8.82954 7.83104 -0.784719 4.50879 25.6201
1582035 4.35652 4.55824 8.82954 7.71877 -0.892518 4.49683 25.4631
1582049 4.36522 4.58626 8.87138 7.84975 -0.779609 4.53966 25.6726
1582057 4.36522 4.58626 8.87138 7.84975 -0.779609 4.53966 25.6726
1582065 4.37391 4.5489 8.80862 7.83104 -0.784926 4.52823 25.5625
1582075 4.29565 4.5489 8.86092 7.86846 -0.722618 4.62473 25.5739
1582087 4.29565 4.5489 8.86092 7.86846 -0.722618 4.62473 25.5739
1582097 4.34783 4.61429 8.85046 7.89653 -0.668508 4.5421 25.7091
1582107 4.34783 4.61429 8.85046 7.89653 -0.668508 4.5421 25.7091
1582117 4.27826 4.53956 8.82954 7.85911 -0.69505 4.62872 25.5065
1582127 4.33913 4.5956 8.81908 7.89653 -0.649181 4.55016 25.6503
1582137 4.33913 4.5956 8.81908 7.89653 -0.649181 4.55016 25.6503
1582147 4.34783 4.48352 8.81908 7.86846 -0.798351 4.61788 25.5189
1582157 4.31304 4.61429 8.77723 7.80297 -0.659628 4.50036 25.5075
1582177 4.38261 4.5956 8.79815 7.89653 -0.670576 4.50853 25.6729
1582187 4.38261 4.5956 8.79815 7.89653 -0.670576 4.50853 25.6729
1582199 4.33043 4.60495 8.77723 7.88718 -0.601123 4.52876 25.5998
1582207 4.35652 4.57692 8.74585 7.89653 -0.614752 4.52122 25.5758
1582219 4.35652 4.57692 8.74585 7.89653 -0.614752 4.52122 25.5758
1582228 4.30435 4.5956 8.704 7.9246 -0.478035 4.54118 25.5286
1582241 4.33043 4.61429 8.69354 7.94331 -0.455773 4.51035 25.5816
1582248 4.33043 4.61429 8.69354 7.94331 -0.455773 4.51035 25.5816
1582258 4.4 4.58626 8.69354 7.86846 -0.625102 4.4479 25.5483
1582267 4.4 4.58626 8.69354 7.86846 -0.625102 4.4479 25.5483
1582278 4.34783 4.60495 8.74585 7.96203 -0.513139 4.53327 25.6606
1582288 4.4 4.60495 8.77723 7.91525 -0.639209 4.48734 25.6974
1582298 4.4 4.60495 8.77723 7.91525 -0.639209 4.48734 25.6974
1582308 4.3913 4.64231 8.76677 7.88718 -0.611764 4.44982 25.6876
1582318 4.35652 4.60495 8.81908 7.99009 -0.563198 4.56782 25.7706
1582328 4.35652 4.60495 8.81908 7.99009 -0.563198 4.56782 25.7706
1582338 4.31304 4.64231 8.79815 7.90589 -0.548534 4.52974 25.6594
1582348 4.31304 4.64231 8.79815 7.90589 -0.548534 4.52974 25.6594
1582358 4.28696 4.57692 8.80862 7.90589 -0.598904 4.60386 25.5784
1582369 4.28696 4.55824 8.85046 7.88718 -0.676234 4.62758 25.5828
1582378 4.28696 4.55824 8.85046 7.88718 -0.676234 4.62758 25.5828
1582388 4.26957 4.5956 8.84 7.87782 -0.621644 4.60422 25.583
1582398 4.29565 4.53022 8.81908 7.85911 -0.711064 4.61827 25.5041
1582409 4.29565 4.53022 8.81908 7.85911 -0.711064 4.61827 25.5041
1582418 4.32174 4.5489 8.86092 7.86846 -0.747359 4.60473 25.6
1582429 4.32174 4.5489 8.86092 7.86846 -0.747359 4.60473 25.6
1582438 4.31304 4.5489 8.87138 7.85911 -0.758445 4.61184 25.5924
1582451 4.33913 4.56758 8.86092 7.89653 -0.716892 4.58854 25.6642
1582458 4.33913 4.56758 8.86092 7.89653 -0.716892 4.58854 25.6642
1582471 4.37391 4.53956 8.93415 7.89653 -0.846767 4.61302 25.7442
1582479 4.37391 4.53956 8.95508 7.89653 -0.866382 4.62145 25.7651
1582488 4.37391 4.55824 8.95508 7.87782 -0.866415 4.59968 25.7651
1582498 4.33043 4.61429 8.90277 7.86846 -0.729561 4.56517 25.716
1582508 4.33043 4.61429 8.90277 7.86846 -0.729561 4.56517 25.716
1582518 4.31304 4.52088 8.98646 7.8404 -0.91407 4.67227 25.6608
1582528 4.27826 4.58626 8.94462 7.85911 -0.757262 4.63951 25.6682
1582538 4.27826 4.58626 8.94462 7.85911 -0.757262 4.63951 25.6682
1582549 4.35652 4.53022 8.95508 7.8404 -0.915989 4.61919 25.6822
1582558 4.35652 4.53022 8.95508 7.8404 -0.915989 4.61919 25.6822
1582568 4.32174 4.5489 8.94462 7.72812 -0.968283 4.58168 25.5434
1582579 4.33913 4.53956 8.96554 7.79362 -0.947323 4.61064 25.6378
1582588 4.33913 4.53956 8.96554 7.79362 -0.947323 4.61064 25.6378
1582607 4.28696 4.53956 8.96554 7.75619 -0.936212 4.63547 25.5482
1582617 4.32174 4.52088 8.98646 7.71877 -1.04564 4.6164 25.5478
1582629 4.29565 4.5489 8.93415 7.70006 -0.962415 4.58597 25.4788
1582640 4.29565 4.5489 8.93415 7.70006 -0.962415 4.58597 25.4788
1582650 4.31304 4.5022 8.93415 7.80297 -0.921661 4.65038 25.5524
1582660 4.32174 4.56758 9.04923 7.81233 -0.962162 4.64386 25.7509
1582671 4.32174 4.56758 9.04923 7.81233 -0.962162 4.64386 25.7509
1582681 4.29565 4.55824 9.01785 7.83104 -0.898947 4.66583 25.7028
1582689 4.29565 4.53956 9.03877 7.80297 -0.965738 4.67726 25.677
1582701 4.29565 4.53956 9.03877 7.80297 -0.965738 4.67726 25.677
1582711 4.30435 4.5489 8.99692 7.82168 -0.90633 4.65414 25.6719
1582730 4.29565 4.52088 8.95508 7.81233 -0.896582 4.66164 25.5839
1582744 4.28696 4.52088 8.96554 7.88718 -0.822699 4.70267 25.6605
1582751 4.28696 4.52088 8.96554 7.88718 -0.822699 4.70267 25.6605
1582761 4.24348 4.53956 8.976 7.8404 -0.819863 4.70715 25.5994
1582771 4.25217 4.49286 9.02831 7.87782 -0.886708 4.77236 25.6512
1582791 4.27826 4.5956 8.976 7.87782 -0.758751 4.65255 25.7277
1582800 4.27826 4.5956 8.976 7.87782 -0.758751 4.65255 25.7277
1582810 4.23478 4.51154 9.03877 7.8404 -0.899123 4.7606 25.6255
1582820 4.26087 4.47418 9.02831 7.95267 -0.838321 4.8098 25.716
1582841 4.1913 4.47418 9.01785 7.91525 -0.80056 4.84457 25.5986
1582850 4.16522 4.49286 8.95508 7.89653 -0.716302 4.8179 25.5097
1582862 4.16522 4.49286 8.95508 7.89653 -0.716302 4.8179 25.5097
1582872 4.16522 4.48352 9.04923 7.93396 -0.777324 4.87739 25.6319
1582882 4.16522 4.48352 9.04923 7.93396 -0.777324 4.87739 25.6319
1582893 4.17391 4.46484 9.05969 7.95267 -0.795385 4.89664 25.6511
1582905 4.12174 4.49286 9.10154 8.02752 -0.682597 4.9611 25.7437
1582912 4.12174 4.49286 9.10154 8.02752 -0.682597 4.9611 25.7437
1582922 4.06087 4.46484 9.04923 8.0743 -0.556517 5.02812 25.6492
1582932 4.02609 4.45549 9.00738 8.09301 -0.47393 5.05365 25.582
1582942 4.02609 4.45549 9.00738 8.09301 -0.47393 5.05365 25.582
1582952 4.13043 4.5022 9.03877 8.0743 -0.575541 4.94088 25.7457
1582962 4.13043 4.5022 9.03877 8.0743 -0.575541 4.94088 25.7457
1582972 4.06957 4.44615 8.94462 8.13043 -0.427492 5.01704 25.5908
1582982 4.04348 4.51154 8.93415 8.13979 -0.318293 4.98592 25.629
1582994 4.04348 4.51154 8.93415 8.13979 -0.318293 4.98592 25.629
1583002 4.10435 4.53022 8.93415 8.13979 -0.358337 4.92408 25.7085
1583012 4.10435 4.46484 8.90277 8.12108 -0.411443 4.95525 25.593
1583032 4.09565 4.55824 8.91323 8.13979 -0.302304 4.90089 25.7069
1583053 4.10435 4.53956 8.89231 8.09301 -0.355145 4.88197 25.6292
1583063 4.09565 4.53956 8.87138 8.21464 -0.206867 4.92831 25.7212
1583073 4.09565 4.53956 8.87138 8.21464 -0.206867 4.92831 25.7212
1583083 4.08696 4.5956 8.86092 8.12108 -0.22521 4.85072 25.6646
1583095 4.13913 4.56758 8.82954 8.14915 -0.245215 4.83074 25.6854
1583103 4.13913 4.56758 8.82954 8.14915 -0.245215 4.83074 25.6854
1583114 4.12174 4.52088 8.81908 8.11172 -0.301301 4.8614 25.5734
1583123 4.12174 4.52088 8.81908 8.11172 -0.301301 4.8614 25.5734
1583133 4.07826 4.5956 8.90277 8.11172 -0.266369 4.87028 25.6884
1583143 4.07826 4.58626 8.87138 8.11172 -0.245303 4.86512 25.6476
1583155 4.07826 4.58626 8.87138 8.11172 -0.245303 4.86512 25.6476
1583163 4.06087 4.58626 8.92369 8.08365 -0.306617 4.88816 25.6545
1583176 4.10435 4.48352 8.86092 8.08365 -0.389798 4.90947 25.5324
1583183 4.10435 4.48352 8.86092 8.08365 -0.389798 4.90947 25.5324
1583193 4.11304 4.52088 8.95508 8.04623 -0.488596 4.89603 25.6352
1583204 4.11304 4.52088 8.95508 8.04623 -0.488596 4.89603 25.6352
1583214 4.08696 4.53956 8.89231 8.0743 -0.356936 4.88809 25.5931
1583224 4.08696 4.53022 8.89231 8.06494 -0.375475 4.89165 25.5744
1583234 4.08696 4.53022 8.89231 8.06494 -0.375475 4.89165 25.5744
1583249 4.05217 4.52088 8.93415 8.0743 -0.382259 4.94619 25.5815
1583253 4.09565 4.49286 8.96554 8.08365 -0.472623 4.95014 25.6377
1583264 4.09565 4.49286 8.96554 8.08365 -0.472623 4.95014 25.6377
1583274 4.10435 4.53022 8.93415 8.13043 -0.36757 4.92041 25.6992
1583295 4.14783 4.52088 8.95508 8.06494 -0.50322 4.87645 25.6887
1583305 4.14783 4.57692 8.87138 8.00881 -0.423242 4.77766 25.6049
1583314 4.14783 4.57692 8.87138 8.00881 -0.423242 4.77766 25.6049
1583325 4.10435 4.55824 8.85046 8.0743 -0.314872 4.84351 25.5873
1583335 4.13913 4.56758 8.87138 7.98074 -0.452089 4.78039 25.5588
1583354 4.16522 4.53022 8.89231 8.05559 -0.459884 4.82725 25.6433
1583366 4.16522 4.53022 8.89231 8.05559 -0.459884 4.82725 25.6433
1583376 4.17391 4.58626 8.87138 8.14915 -0.300503 4.80613 25.7807
1583386 4.21739 4.53022 8.90277 8.13043 -0.445589 4.82079 25.7808
1583395 4.21739 4.53022 8.90277 8.13043 -0.445589 4.82079 25.7808
1583408 4.17391 4.51154 8.85046 8.04623 -0.455987 4.81463 25.5821
1583415 4.16522 4.53022 8.98646 8.1585 -0.447899 4.90484 25.8404
1583426 4.16522 4.53022 8.98646 8.1585 -0.447899 4.90484 25.8404
1583439 4.18261 4.52088 8.89231 8.09301 -0.448664 4.83586 25.6888
1583447 4.18261 4.52088 8.89231 8.09301 -0.448664 4.83586 25.6888
1583457 4.09565 4.51154 8.89231 8.04623 -0.421001 4.89202 25.5457
1583467 4.13913 4.55824 9.02831 8.01816 -0.573958 4.86472 25.7438
1583477 4.13913 4.55824 9.02831 8.01816 -0.573958 4.86472 25.7438
1583487 4.13913 4.47418 8.99692 8.09301 -0.553302 4.94683 25.7032
1583497 4.13913 4.44615 9.112 8.14915 -0.634353 5.03504 25.8464
1583507 4.13913 4.44615 9.112 8.14915 -0.634353 5.03504 25.8464
1583518 4.06957 4.46484 9.10154 8.06494 -0.623837 5.03801 25.7009
1583527 4.06957 4.46484 9.10154 8.06494 -0.623837 5.03801 25.7009
1583537 4.07826 4.37143 9.13292 7.97138 -0.849548 5.08019 25.554
1583547 4.0087 4.38077 9.17477 8.06494 -0.719644 5.17979 25.6292
1583557 4.0087 4.38077 9.17477 8.06494 -0.719644 5.17979 25.6292
1583567 4.06957 4.39945 9.10154 8.11172 -0.642399 5.10717 25.6823
1583577 4.02609 4.35275 9.00738 8.09301 -0.576657 5.13451 25.4792
1583588 4.02609 4.35275 9.00738 8.09301 -0.576657 5.13451 25.4792
1583597 4.04348 4.46484 9.112 8.21464 -0.460622 5.12 25.835
1583610 4.04348 4.46484 9.112 8.21464 -0.460622 5.12 25.835
1583617 4.0087 4.39011 9.07015 8.25206 -0.424434 5.20396 25.721
1583631 4.06957 4.47418 9.13292 8.16786 -0.542141 5.08253 25.8445
1583637 4.06957 4.47418 9.13292 8.16786 -0.542141 5.08253 25.8445
1583647 4.06957 4.45549 9.09108 8.14915 -0.539488 5.07378 25.7653
1583657 4.01739 4.45549 9.05969 8.11172 -0.497057 5.08799 25.6443
1583667 4.01739 4.45549 9.05969 8.11172 -0.497057 5.08799 25.6443
1583677 3.96522 4.39945 9.16431 8.19593 -0.519094 5.24525 25.7249
1583687 3.96522 4.39945 9.16431 8.19593 -0.519094 5.24525 25.7249
1583697 3.98261 4.39945 9.10154 8.16786 -0.503708 5.19698 25.6515
1583707 4.02609 4.36209 9.02831 8.13979 -0.540487 5.15329 25.5563
1583717 4.02609 4.36209 9.02831 8.13979 -0.540487 5.15329 25.5563
1583728 4.04348 4.42747 9.05969 8.13043 -0.531217 5.09673 25.6611
1583738 4.0087 4.40879 9.112 8.12108 -0.575843 5.1552 25.6506
1583748 4.0087 4.40879 9.112 8.12108 -0.575843 5.1552 25.6506
1583758 4.03478 4.39945 9.15385 8.09301 -0.6777 5.14734 25.6811
1583768 4.03478 4.39945 9.15385 8.09301 -0.6777 5.14734 25.6811
1583778 3.96522 4.37143 9.21662 8.13043 -0.661869 5.26233 25.6837
1583788 3.95652 4.43681 9.16431 8.14915 -0.520164 5.20492 25.7068
1583798 3.95652 4.43681 9.16431 8.14915 -0.520164 5.20492 25.7068
1583808 4 4.40879 9.17477 8.04623 -0.702064 5.1574 25.6298
1583818 4 4.40879 9.17477 8.04623 -0.702064 5.1574 25.6298
1583829 3.9913 4.35275 9.19569 8.08365 -0.732334 5.23074 25.6234
1583840 4.03478 4.40879 9.16431 8.10237 -0.668927 5.14762 25.7102
1583848 4.03478 4.40879 9.16431 8.10237 -0.668927 5.14762 25.7102
1583858 3.98261 4.39945 9.13292 8.01816 -0.683346 5.15155 25.5331
1583873 4.01739 4.41813 9.09108 8.04623 -0.629678 5.10412 25.5728
1583882 4.01739 4.41813 9.09108 8.04623 -0.629678 5.10412 25.5728
1583891 4.06087 4.44615 9.07015 7.96203 -0.707583 5.0071 25.5392
1583898 4.06087 4.44615 9.07015 7.96203 -0.707583 5.0071 25.5392
1583908 3.98261 4.41813 9.15385 7.97138 -0.73155 5.12683 25.526
1583919 4.06087 4.43681 9.16431 8.02752 -0.740425 5.07647 25.6895
1583929 4.06087 4.43681 9.16431 8.02752 -0.740425 5.07647 25.6895
1583940 4.09565 4.45549 9.14338 8.03687 -0.725442 5.0303 25.7314
1583949 4.02609 4.48352 9.16431 8.03687 -0.651482 5.07078 25.7108
1583960 4.02609 4.48352 9.16431 8.03687 -0.651482 5.07078 25.7108
1583971 4.02609 4.5022 9.12246 7.99009 -0.639854 5.02184 25.6408
1583981 4.07826 4.56758 9.04923 7.99945 -0.545309 4.90542 25.6945
1584001 4.09565 4.53022 9.05969 7.94331 -0.665082 4.90295 25.6289
1584010 4.09565 4.53022 9.05969 7.94331 -0.665082 4.90295 25.6289
1584020 4.09565 4.5489 9.07015 7.98074 -0.61895 4.90729 25.6954
1584032 4.08696 4.55824 8.98646 8.08365 -0.419518 4.91434 25.7153
1584042 4.08696 4.55824 8.98646 8.08365 -0.419518 4.91434 25.7153
1584053 4.04348 4.60495 9.04923 7.95267 -0.521529 4.88501 25.6503
1584062 4.10435 4.5956 9.00738 7.99945 -0.502472 4.84709 25.7068
1584072 4.10435 4.5956 9.00738 7.99945 -0.502472 4.84709 25.7068
1584082 4.11304 4.66099 8.93415 8.01816 -0.357656 4.76843 25.7263
1584102 4.06957 4.61429 8.90277 7.98074 -0.368936 4.81062 25.5674
1584112 4.07826 4.61429 8.91323 7.98074 -0.38738 4.80805 25.5865
1584123 4.07826 4.61429 8.91323 7.98074 -0.38738 4.80805 25.5865
1584133 4.13913 4.63297 8.84 7.99009 -0.347696 4.72108 25.6022
1584143 4.11304 4.66099 8.81908 7.98074 -0.283878 4.70742 25.5738
1584163 4.11304 4.70769 8.79815 8.02752 -0.171551 4.6819 25.6464
1584184 4.11304 4.69835 8.80862 8.03687 -0.181659 4.69704 25.6569
1584193 4.12174 4.69835 8.76677 8.04623 -0.140372 4.6773 25.6331
1584213 4.09565 4.67033 8.72492 8.05559 -0.0926346 4.70585 25.5465
1584224 4.13913 4.74505 8.67262 8.08365 0.0165373 4.60527 25.6405
1584244 4.12174 4.69835 8.704 8.13979 0.0120819 4.68968 25.6639
1584255 4.05217 4.7544 8.62031 8.08365 0.162253 4.64361 25.5105
1584264 4.05217 4.7544 8.62031 8.08365 0.162253 4.64361 25.5105
1584275 4.2 4.74505 8.64123 8.13043 0.0333041 4.56509 25.7167
1584295 4.13913 4.74505 8.54708 8.11172 0.166944 4.56561 25.543
1584309 4.13913 4.81044 8.54708 8.13043 0.248435 4.52331 25.6271
1584317 4.13913 4.81044 8.54708 8.13043 0.248435 4.52331 25.6271
1584330 4.14783 4.81978 8.58892 8.13043 0.207755 4.52666 25.687
1584337 4.14783 4.78242 8.66215 8.09301 0.0637025 4.56967 25.6854
1584347 4.14783 4.78242 8.66215 8.09301 0.0637025 4.56967 25.6854
1584357 4.2 4.82912 8.53662 8.09301 0.180754 4.44322 25.6587
1584367 4.2 4.82912 8.53662 8.09301 0.180754 4.44322 25.6587
1584377 4.15652 4.81044 8.53662 8.08365 0.196347 4.4866 25.5872
1584387 4.22609 4.81978 8.55754 8.05559 0.0893861 4.42375 25.659
1584397 4.22609 4.81978 8.55754 8.05559 0.0893861 4.42375 25.659
1584407 4.2 4.8011 8.58892 8.08365 0.0933141 4.48211 25.6737
1584417 4.24348 4.78242 8.568 7.99009 -0.0380754 4.41616 25.584
1584437 4.2 4.85714 8.55754 7.94331 0.0419796 4.36872 25.558
1584447 4.2 4.85714 8.55754 7.94331 0.0419796 4.36872 25.558
1584457 4.28696 4.78242 8.568 7.96203 -0.107926 4.37158 25.5994
1584468 4.28696 4.85714 8.60985 7.94331 -0.0937313 4.32482 25.6973
1584477 4.28696 4.85714 8.60985 7.94331 -0.0937313 4.32482 25.6973
1584488 4.25217 4.90385 8.52615 7.82168 -0.0517547 4.22984 25.5039
1584498 4.26087 4.87582 8.53662 7.82168 -0.0980362 4.24884 25.495
1584515 4.26087 4.87582 8.53662 7.82168 -0.0980362 4.24884 25.495
1584522 4.33043 4.95989 8.47385 7.83104 -0.0130415 4.11086 25.5952
1584531 4.33043 4.95989 8.47385 7.83104 -0.0130415 4.11086 25.5952
1584538 4.32174 4.88516 8.53662 7.81233 -0.157364 4.19202 25.5558
1584548 4.35652 4.96923 8.54708 7.80297 -0.127937 4.10365 25.6758
1584558 4.35652 4.96923 8.54708 7.80297 -0.127937 4.10365 25.6758
1584569 4.33043 4.93187 8.55754 7.81233 -0.14023 4.15936 25.6322
1584579 4.34783 4.90385 8.51569 7.79362 -0.162411 4.14165 25.561
1584588 4.34783 4.90385 8.51569 7.79362 -0.162411 4.14165 25.561
1584601 4.33043 4.91319 8.55754 7.80297 -0.167759 4.16938 25.6041
1584608 4.33043 4.91319 8.55754 7.80297 -0.167759 4.16938 25.6041
1584618 4.28696 4.93187 8.55754 7.73748 -0.171621 4.16021 25.5138
1584628 4.30435 4.88516 8.64123 7.80297 -0.251074 4.24521 25.6337
1584638 4.30435 4.88516 8.64123 7.80297 -0.251074 4.24521 25.6337
1584648 4.32174 4.86648 8.58892 7.71877 -0.319082 4.18859 25.4959
1584658 4.31304 4.90385 8.57846 7.76555 -0.217241 4.18243 25.5609
1584669 4.31304 4.90385 8.57846 7.76555 -0.217241 4.18243 25.5609
1584679 4.34783 4.87582 8.53662 7.76555 -0.238064 4.15962 25.5258
1584689 4.34783 4.87582 8.53662 7.76555 -0.238064 4.15962 25.5258
1584699 4.34783 4.92253 8.55754 7.71877 -0.25842 4.11362 25.5467
1584709 4.27826 4.91319 8.568 7.72812 -0.201032 4.18126 25.4876
1584719 4.27826 4.91319 8.568 7.72812 -0.201032 4.18126 25.4876
1584729 4.32174 4.93187 8.52615 7.71877 -0.193401 4.11278 25.4985
1584739 4.32174 4.90385 8.58892 7.70941 -0.291303 4.15654 25.5239
1584749 4.32174 4.90385 8.58892 7.70941 -0.291303 4.15654 25.5239
1584759 4.37391 4.95989 8.57846 7.78426 -0.202581 4.10303 25.6965
1584769 4.37391 4.95989 8.57846 7.78426 -0.202581 4.10303 25.6965
1584779 4.33043 4.92253 8.57846 7.70941 -0.271094 4.13157 25.5408
1584790 4.36522 4.92253 8.58892 7.72812 -0.296322 4.11796 25.6048
1584809 4.34783 4.95989 8.51569 7.62521 -0.273515 4.02764 25.4486
1584819 4.36522 4.96923 8.44246 7.67199 -0.163524 3.99625 25.4489
1584831 4.36522 4.96923 8.44246 7.67199 -0.163524 3.99625 25.4489
1584840 4.37391 5.00659 8.50523 7.70006 -0.168547 4.00112 25.5858
1584852 4.37391 5.00659 8.50523 7.70006 -0.168547 4.00112 25.5858
1584861 4.38261 5.01593 8.49477 7.70941 -0.148451 3.98725 25.6027
1584873 4.37391 4.99725 8.50523 7.71877 -0.159329 4.01609 25.5952
1584880 4.37391 4.99725 8.50523 7.71877 -0.159329 4.01609 25.5952
1584894 4.42609 5.02527 8.44246 7.63456 -0.20439 3.89312 25.5284
1584900 4.4 5.06264 8.40062 7.64392 -0.092189 3.87062 25.5072
1584910 4.4 5.06264 8.40062 7.64392 -0.092189 3.87062 25.5072
1584920 4.41739 5.11868 8.42154 7.6907 -0.0288025 3.84596 25.6483
1584930 4.41739 5.11868 8.42154 7.6907 -0.0288025 3.84596 25.6483
1584940 4.3913 5.13736 8.28554 7.63456 0.0934035 3.76724 25.4488
1584950 4.42609 5.10934 8.34831 7.67199 0.00678301 3.80631 25.5557
1584961 4.42609 5.10934 8.34831 7.67199 0.00678301 3.80631 25.5557
1584970 4.4 5.16538 8.36923 7.67199 0.0665277 3.79346 25.6066
1584982 4.4 5.16538 8.36923 7.67199 0.0665277 3.79346 25.6066
1584990 4.3913 5.07198 8.27508 7.72812 0.13127 3.85207 25.4665
1585001 4.44348 5.15604 8.32738 7.63456 0.0193089 3.7336 25.5615
1585011 4.44348 5.15604 8.32738 7.63456 0.0193089 3.7336 25.5615
1585022 4.42609 5.15604 8.26462 7.68134 0.143653 3.73931 25.5281
1585031 4.47826 5.16538 8.23323 7.55971 0.0133723 3.62625 25.4366
1585041 4.47826 5.16538 8.23323 7.55971 0.0133723 3.62625 25.4366
1585050 4.49565 5.23077 8.296 7.58778 0.0262588 3.60639 25.6102
1585060 4.49565 5.23077 8.296 7.58778 0.0262588 3.60639 25.6102
1585071 4.46087 5.16538 8.31692 7.63456 0.0216544 3.70942 25.5777
1585080 4.48696 5.20275 8.30646 7.60649 0.0154495 3.64606 25.6027
1585092 4.48696 5.20275 8.30646 7.60649 0.0154495 3.64606 25.6027
1585103 4.46087 5.24945 8.296 7.55036 0.0420034 3.60143 25.5567
1585120 4.52174 5.20275 8.27508 7.51293 -0.0795051 3.56503 25.5125
1585130 4.53043 5.23077 8.16 7.52229 0.0615329 3.49073 25.4435
1585168 4.50435 5.23077 8.18092 7.41937 -0.0346646 3.47252 25.3354
1585169 4.55652 5.32418 8.19138 7.50358 0.0780493 3.41004 25.5757
1585172 4.55652 5.32418 8.19138 7.50358 0.0780493 3.41004 25.5757
1585185 4.56522 5.34286 8.20185 7.41937 -0.00473261 3.35682 25.5293
1585194 4.6087 5.38956 8.11815 7.3913 0.0529408 3.2409 25.5077
1585212 4.5913 5.42692 8.16 7.38195 0.0563085 3.2416 25.5602
1585233 4.6087 5.3989 8.13908 7.3071 -0.0410289 3.20497 25.4538
1585243 4.66087 5.4456 8.09723 7.3071 -0.00528842 3.11507 25.5108
1585254 4.66087 5.4456 8.09723 7.3071 -0.00528842 3.11507 25.5108
1585263 4.61739 5.47363 8.08677 7.31646 0.0842571 3.12553 25.4942
1585273 4.65217 5.40824 8.18092 7.32581 -0.0968456 3.1953 25.5672
1585283 4.65217 5.40824 8.18092 7.32581 -0.0968456 3.1953 25.5672
1585298 4.70435 5.49231 8.04492 7.31646 0.058195 3.03118 25.558
1585304 4.67826 5.49231 7.99262 7.26032 0.0803888 2.99862 25.4235
1585313 4.67826 5.46429 7.99262 7.26032 0.0528932 3.01848 25.3955
1585323 4.69565 5.52033 8.03446 7.31646 0.104308 3.01265 25.5669
1585343 4.73043 5.54835 8.07631 7.27903 0.0201285 2.97058 25.6341
1585353 4.63478 5.47363 8.01354 7.28839 0.111854 3.06579 25.4103
1585374 4.74783 5.53901 8.01354 7.33517 0.110018 2.96183 25.6355
1585385 4.65217 5.47363 8.03446 7.3071 0.0923604 3.07203 25.4674
1585394 4.65217 5.47363 8.03446 7.3071 0.0923604 3.07203 25.4674
1585407 4.68696 5.48297 8.06585 7.26032 -0.0093326 3.03355 25.4961
1585428 4.68696 5.46429 8.04492 7.32581 0.0570297 3.06765 25.522
1585435 4.67826 5.4456 8.07631 7.31646 0.00734031 3.09733 25.5166
1585449 4.67826 5.4456 8.07631 7.31646 0.00734031 3.09733 25.5166
1585456 4.67826 5.49231 8.024 7.3071 0.0952363 3.03541 25.5017
1585469 4.72174 5.43626 7.98215 7.34452 0.0754327 3.04222 25.4847
1585489 4.71304 5.46429 8.07631 7.31646 -0.00841767 3.05949 25.5701
1585495 4.71304 5.46429 8.07631 7.31646 -0.00841767 3.05949 25.5701
1585510 4.69565 5.4456 8.00308 7.27903 0.025475 3.03315 25.4234
1585518 4.69565 5.50165 7.98215 7.32581 0.14669 3.00565 25.5053
1585527 4.69565 5.50165 7.98215 7.32581 0.14669 3.00565 25.5053
1585537 4.68696 5.51099 7.95077 7.3071 0.17713 2.98159 25.4558
1585547 4.72174 5.51099 7.90892 7.31646 0.193241 2.94169 25.4581
1585567 4.73913 5.51099 7.98215 7.32581 0.112996 2.96844 25.5581
1585577 4.73913 5.51099 7.98215 7.32581 0.112996 2.96844 25.5581
1585587 4.76522 5.50165 7.95077 7.28839 0.0725776 2.92419 25.506
1585597 4.77391 5.52967 7.97169 7.26032 0.0434518 2.89504 25.5356
1585607 4.77391 5.52967 7.97169 7.26032 0.0434518 2.89504 25.5356
1585618 4.7913 5.49231 7.92985 7.22289 -0.00584573 2.87136 25.4364
1585628 4.73043 5.49231 7.87754 7.34452 0.224859 2.94716 25.4448
1585648 4.78261 5.53901 7.84615 7.27903 0.185958 2.83153 25.4468
1585658 4.78261 5.53901 7.84615 7.27903 0.185958 2.83153 25.4468
1585669 4.78261 5.52967 7.87754 7.29774 0.164068 2.86199 25.4876
1585679 4.7913 5.56703 7.87754 7.19483 0.0914425 2.78051 25.4307
1585689 4.7913 5.56703 7.87754 7.19483 0.0914425 2.78051 25.4307
1585699 4.7913 5.57637 7.79385 7.26032 0.247368 2.76523 25.4218
1585709 4.75652 5.57637 7.83569 7.24161 0.222123 2.80069 25.4102
1585721 4.75652 5.57637 7.83569 7.24161 0.222123 2.80069 25.4102
1585729 4.82609 5.55769 7.888 7.20418 0.046894 2.77226 25.476
1585749 4.85217 5.53901 7.83569 7.22289 0.0727296 2.75095 25.4498
1585762 4.74783 5.55769 7.92985 7.24161 0.119349 2.8649 25.477
1585779 4.81739 5.55769 7.89846 7.20418 0.0451624 2.78335 25.4777
1585789 4.8 5.56703 7.87754 7.26968 0.155962 2.8103 25.5142
1585799 4.8 5.56703 7.87754 7.26968 0.155962 2.8103 25.5142
1585814 4.78261 5.56703 7.85662 7.19483 0.120699 2.77654 25.4011
1585820 4.78261 5.56703 7.85662 7.19483 0.120699 2.77654 25.4011
1585829 4.75652 5.62308 7.80431 7.20418 0.262356 2.73488 25.3881
1585840 4.86087 5.66978 7.87754 7.21354 0.141394 2.66986 25.6217
1585851 4.86087 5.66978 7.87754 7.21354 0.141394 2.66986 25.6217
1585860 4.8087 5.57637 7.80431 7.20418 0.164956 2.73106 25.3936
1585871 4.84348 5.62308 7.84615 7.23225 0.16216 2.70808 25.545
1585880 4.84348 5.62308 7.84615 7.23225 0.16216 2.70808 25.545
1585892 4.81739 5.63242 7.81477 7.1574 0.155044 2.66838 25.422
1585901 4.81739 5.63242 7.81477 7.1574 0.155044 2.66838 25.422
1585912 4.7913 5.64176 7.86708 7.1574 0.13825 2.70534 25.4575
1585921 4.81739 5.70714 7.85662 7.21354 0.240943 2.664 25.5947
1585934 4.81739 5.70714 7.85662 7.21354 0.240943 2.664 25.5947
1585940 4.85217 5.66044 7.77292 7.22289 0.25309 2.63631 25.5084
1585951 4.8 5.66044 7.76246 7.25096 0.34245 2.68098 25.4739
1585962 4.8 5.66044 7.76246 7.25096 0.34245 2.68098 25.4739
1585972 4.86087 5.67912 7.752 7.17611 0.237912 2.58448 25.4681
1585982 4.85217 5.66044 7.78338 7.17611 0.197271 2.61868 25.4721
1586002 4.86087 5.68846 7.77292 7.13869 0.189856 2.56998 25.4609
1586012 4.86087 5.68846 7.77292 7.13869 0.189856 2.56998 25.4609
1586023 4.84348 5.6978 7.73108 7.13869 0.257698 2.55508 25.411
1586035 4.86087 5.72582 7.64738 7.08255 0.296372 2.45486 25.3166
1586044 4.86087 5.72582 7.64738 7.08255 0.296372 2.45486 25.3166
1586053 4.89565 5.76319 7.69969 7.05449 0.218716 2.41727 25.413
1586063 4.84348 5.72582 7.66831 7.0732 0.283709 2.47258 25.3108
1586074 4.84348 5.72582 7.66831 7.0732 0.283709 2.47258 25.3108
1586085 4.92174 5.77253 7.72062 7.12933 0.253978 2.44029 25.5442
1586094 4.92174 5.77253 7.72062 7.12933 0.253978 2.44029 25.5442
1586108 4.89565 5.73516 7.71015 7.19483 0.317383 2.51069 25.5358
1586114 4.86087 5.75385 7.76246 7.16676 0.290942 2.53358 25.5439
1586124 4.86087 5.75385 7.76246 7.16676 0.290942 2.53358 25.5439
1586134 4.85217 5.76319 7.67877 7.13869 0.364619 2.47835 25.4328
1586144 4.83478 5.71648 7.68923 7.16676 0.353467 2.54143 25.4073
1586155 4.83478 5.71648 7.68923 7.16676 0.353467 2.54143 25.4073
1586164 4.87826 5.71648 7.76246 7.20418 0.273794 2.56553 25.5614
1586174 4.87826 5.71648 7.76246 7.20418 0.273794 2.56553 25.5614
1586184 4.8087 5.6978 7.66831 7.17611 0.391418 2.56673 25.3509
1586194 4.83478 5.6978 7.71015 7.17611 0.323558 2.56917 25.4189
1586204 4.83478 5.6978 7.71015 7.17611 0.323558 2.56917 25.4189
1586216 4.88696 5.6511 7.68923 7.19483 0.265259 2.5643 25.4221
1586224 4.86087 5.70714 7.74154 7.11062 0.211796 2.528 25.4202
1586238 4.86087 5.70714 7.74154 7.11062 0.211796 2.528 25.4202
1586244 4.86087 5.71648 7.71015 7.17611 0.31572 2.53828 25.4636
1586264 4.81739 5.70714 7.66831 7.18547 0.400847 2.55883 25.3783
1586274 4.7913 5.70714 7.80431 7.23225 0.336578 2.66582 25.535
1586294 4.86087 5.6978 7.80431 7.20418 0.231555 2.61066 25.5672
1586305 4.82609 5.62308 7.76246 7.20418 0.234807 2.66615 25.4158
1586315 4.82609 5.62308 7.76246 7.20418 0.234807 2.66615 25.4158
1586326 4.8087 5.6511 7.76246 7.20418 0.279361 2.65876 25.4264
1586347 4.8 5.6511 7.74154 7.22289 0.327018 2.66373 25.4155
1586358 4.77391 5.6044 7.79385 7.1574 0.191516 2.70807 25.3296
1586367 4.77391 5.6044 7.79385 7.1574 0.191516 2.70807 25.3296
1586377 4.8087 5.66044 7.81477 7.23225 0.26378 2.69117 25.5162
1586389 4.78261 5.64176 7.76246 7.28839 0.37789 2.72411 25.4752
1586397 4.78261 5.64176 7.76246 7.28839 0.37789 2.72411 25.4752
1586411 4.7913 5.59506 7.78338 7.24161 0.25773 2.73813 25.4114
1586417 4.7913 5.59506 7.78338 7.24161 0.25773 2.73813 25.4114
1586433 4.8 5.58571 7.83569 7.29774 0.242725 2.79068 25.5191
1586440 4.8 5.61374 7.82523 7.29774 0.280234 2.76616 25.5367
1586449 4.8 5.61374 7.82523 7.29774 0.280234 2.76616 25.5367
1586457 4.77391 5.56703 7.81477 7.33517 0.307482 2.82983 25.4909
1586467 4.75652 5.58571 7.84615 7.28839 0.266346 2.82157 25.4768
1586477 4.75652 5.58571 7.84615 7.28839 0.266346 2.82157 25.4768
1586487 4.8087 5.57637 7.83569 7.27903 0.206882 2.78217 25.4998
1586498 4.8087 5.57637 7.83569 7.27903 0.206882 2.78217 25.4998
1586507 4.74783 5.56703 7.79385 7.28839 0.308841 2.8157 25.3971
1586520 4.7913 5.56703 7.82523 7.3071 0.252637 2.80926 25.4907
1586527 4.7913 5.56703 7.82523 7.3071 0.252637 2.80926 25.4907
1586537 4.78261 5.61374 7.74154 7.31646 0.398797 2.74707 25.4543
1586547 4.76522 5.59506 7.81477 7.29774 0.307006 2.79842 25.4728
1586567 4.78261 5.54835 7.888 7.34452 0.217369 2.87611 25.5635
1586577 4.78261 5.54835 7.888 7.34452 0.217369 2.87611 25.5635
1586587 4.76522 5.55769 7.83569 7.26032 0.213525 2.81666 25.4189
1586597 4.76522 5.6044 7.87754 7.35388 0.308111 2.8486 25.601
1586617 4.82609 5.63242 7.80431 7.29774 0.293192 2.72503 25.5606
1586629 4.77391 5.52967 7.752 7.29774 0.297299 2.80801 25.3533
1586637 4.77391 5.52967 7.752 7.29774 0.297299 2.80801 25.3533
1586647 4.78261 5.58571 7.77292 7.26968 0.29501 2.75922 25.4109
1586657 4.78261 5.58571 7.77292 7.26968 0.29501 2.75922 25.4109
1586667 4.8087 5.59506 7.77292 7.26032 0.269052 2.72998 25.437
1586677 4.8087 5.56703 7.77292 7.26968 0.250891 2.75404 25.4183
1586697 4.77391 5.53901 7.79385 7.24161 0.209934 2.79458 25.3484
1586708 4.77391 5.53901 7.79385 7.24161 0.209934 2.79458 25.3484
1586718 4.76522 5.51099 7.77292 7.24161 0.21199 2.81031 25.2907
1586728 4.76522 5.52967 7.81477 7.26032 0.206941 2.82629 25.37
1586739 4.76522 5.52967 7.81477 7.26032 0.206941 2.82629 25.37
1586748 4.74783 5.51099 7.76246 7.26032 0.258112 2.82654 25.2816
1586762 4.83478 5.55769 7.86708 7.29774 0.150228 2.80097 25.5573
1586770 4.83478 5.55769 7.86708 7.29774 0.150228 2.80097 25.5573
1586778 4.74783 5.58571 7.89846 7.25096 0.18678 2.83477 25.483
1586788 4.74783 5.58571 7.89846 7.25096 0.18678 2.83477 25.483
1586798 4.78261 5.58571 7.888 7.34452 0.253537 2.85002 25.6008
1586808 4.72174 5.51099 7.82523 7.27903 0.239816 2.88404 25.337
1586819 4.72174 5.51099 7.82523 7.27903 0.239816 2.88404 25.337
1586829 4.77391 5.53901 7.85662 7.26968 0.175083 2.83816 25.4392
1586839 4.75652 5.57637 7.95077 7.32581 0.190255 2.89562 25.6095
1586849 4.75652 5.57637 7.95077 7.32581 0.190255 2.89562 25.6095
1586859 4.8 5.6044 7.82523 7.26968 0.243968 2.7592 25.4993
1586872 4.8 5.6044 7.82523 7.26968 0.243968 2.7592 25.4993
1586879 4.76522 5.56703 7.87754 7.29774 0.217605 2.848 25.5075
1586889 4.82609 5.59506 7.80431 7.27903 0.238872 2.74199 25.5045
1586899 4.82609 5.59506 7.80431 7.27903 0.238872 2.74199 25.5045
1586911 4.76522 5.52033 7.82523 7.3071 0.233084 2.86026 25.4179
1586919 4.74783 5.54835 7.888 7.27903 0.188074 2.86935 25.4632
1586935 4.74783 5.54835 7.888 7.27903 0.188074 2.86935 25.4632
1586940 4.8 5.62308 7.82523 7.26032 0.253019 2.74171 25.5086
1586951 4.77391 5.58571 7.83569 7.29774 0.268555 2.80889 25.4931
1586961 4.77391 5.58571 7.83569 7.29774 0.268555 2.80889 25.4931
1586970 4.83478 5.6044 7.82523 7.3071 0.24586 2.75296 25.5715
1586982 4.83478 5.6044 7.82523 7.3071 0.24586 2.75296 25.5715
1586990 4.8 5.53901 7.91938 7.29774 0.114813 2.86318 25.5561
1587001 4.77391 5.55769 7.87754 7.25096 0.154364 2.82612 25.4601
1587011 4.77391 5.55769 7.87754 7.25096 0.154364 2.82612 25.4601
1587021 4.81739 5.56703 7.82523 7.23225 0.153941 2.75513 25.4419
1587031 4.82609 5.56703 7.83569 7.23225 0.135013 2.7541 25.4611
1587043 4.82609 5.54835 7.83569 7.24161 0.125903 2.77163 25.4517
1587051 4.8 5.55769 7.82523 7.23225 0.162023 2.77381 25.4152
1587065 4.8 5.55769 7.82523 7.23225 0.162023 2.77381 25.4152
1587089 4.76522 5.58571 7.84615 7.26968 0.239548 2.80654 25.4668
1587093 4.8 5.53901 7.86708 7.26032 0.129831 2.82041 25.4664
1587102 4.78261 5.55769 7.82523 7.26968 0.215772 2.80395 25.4352
1587112 4.70435 5.52033 7.84615 7.3071 0.272802 2.91311 25.3779
1587122 4.70435 5.52033 7.84615 7.3071 0.272802 2.91311 25.3779
1587132 4.71304 5.50165 7.89846 7.37259 0.25773 2.976 25.4857
1587153 4.71304 5.41758 7.87754 7.31646 0.141618 2.99908 25.3246
1587163 4.73043 5.50165 7.94031 7.38195 0.208238 2.98785 25.5543
1587173 4.73043 5.50165 7.94031 7.38195 0.208238 2.98785 25.5543
1587183 4.73043 5.49231 7.91938 7.41002 0.247049 2.99779 25.5521
1587195 4.62609 5.49231 7.94031 7.41937 0.338808 3.08576 25.4781
1587203 4.62609 5.49231 7.94031 7.41937 0.338808 3.08576 25.4781
1587216 4.69565 5.46429 7.90892 7.41002 0.264657 3.03722 25.4789
1587224 4.69565 5.46429 7.90892 7.41002 0.264657 3.03722 25.4789
1587239 4.67826 5.40824 7.84615 7.3913 0.271612 3.05104 25.324
1587244 4.71304 5.48297 7.91938 7.42873 0.27332 3.02541 25.5441
1587254 4.71304 5.48297 7.91938 7.42873 0.27332 3.02541 25.5441
1587264 4.64348 5.43626 7.92985 7.47551 0.332007 3.13455 25.4851
1587274 4.64348 5.45495 7.89846 7.46615 0.372267 3.10226 25.463
1587294 4.66957 5.46429 7.98215 7.4568 0.263333 3.11176 25.5728
1587306 4.66957 5.46429 7.98215 7.4568 0.263333 3.11176 25.5728
1587314 4.65217 5.3989 7.92985 7.48487 0.296226 3.15932 25.4658
1587326 4.71304 5.43626 7.91938 7.46615 0.264335 3.07593 25.5348
1587334 4.71304 5.43626 7.91938 7.46615 0.264335 3.07593 25.5348
1587349 4.66087 5.42692 7.90892 7.43808 0.29017 3.10159 25.4348
1587354 4.62609 5.4456 7.90892 7.4568 0.361073 3.1218 25.4374
1587365 4.62609 5.4456 7.90892 7.4568 0.361073 3.1218 25.4374
1587374 4.64348 5.47363 7.98215 7.46615 0.307199 3.12798 25.5654
1587384 4.64348 5.47363 7.98215 7.46615 0.307199 3.12798 25.5654
1587394 4.58261 5.3989 7.89846 7.47551 0.387827 3.19012 25.3555
1587406 4.65217 5.37088 7.98215 7.52229 0.253493 3.22087 25.5275
1587416 4.65217 5.37088 7.98215 7.52229 0.253493 3.22087 25.5275
1587426 4.61739 5.41758 8.05538 7.51293 0.251666 3.24178 25.6033
1587436 4.66957 5.37088 7.98215 7.50358 0.218144 3.19983 25.5262
1587446 4.66957 5.37088 7.98215 7.50358 0.218144 3.19983 25.5262
1587457 4.61739 5.46429 8.01354 7.55036 0.374055 3.20653 25.6456
1587465 4.61739 5.46429 8.01354 7.55036 0.374055 3.20653 25.6456
1587479 4.5913 5.38956 7.98215 7.41002 0.222793 3.19905 25.373
1587486 4.6 5.40824 7.97169 7.48487 0.315547 3.20932 25.4648
1587495 4.6 5.40824 7.97169 7.48487 0.315547 3.20932 25.4648
1587507 4.64348 5.38956 8.03446 7.49422 0.201318 3.22493 25.5617
1587516 4.64348 5.38956 7.92985 7.3913 0.204641 3.12854 25.3542
1587526 4.64348 5.38956 7.92985 7.3913 0.204641 3.12854 25.3542
1587535 4.66957 5.46429 8.00308 7.44744 0.23362 3.11714 25.5844
1587545 4.66957 5.46429 8.00308 7.44744 0.23362 3.11714 25.5844
1587556 4.58261 5.3522 8.03446 7.41937 0.152135 3.26073 25.3886
1587566 4.66957 5.47363 8.03446 7.40066 0.166407 3.10337 25.5783
1587576 4.66957 5.47363 8.03446 7.40066 0.166407 3.10337 25.5783
1587587 4.66087 5.47363 8.024 7.40066 0.185272 3.10466 25.5592
1587595 4.66087 5.47363 7.96123 7.41002 0.256357 3.07975 25.5057
1587608 4.66087 5.40824 7.96123 7.41002 0.192761 3.12621 25.4404
1587615 4.67826 5.3989 7.98215 7.41937 0.154895 3.1346 25.4787
1587630 4.67826 5.3989 7.98215 7.41937 0.154895 3.1346 25.4787
1587635 4.68696 5.40824 7.98215 7.37259 0.10975 3.09994 25.4499
1587646 4.68696 5.45495 7.98215 7.41002 0.191757 3.08427 25.5341
1587655 4.68696 5.45495 7.98215 7.41002 0.191757 3.08427 25.5341
1587666 4.71304 5.46429 7.97169 7.40066 0.176334 3.04995 25.5497
1587676 4.71304 5.46429 7.97169 7.40066 0.176334 3.04995 25.5497
1587685 4.65217 5.4456 7.89846 7.37259 0.26367 3.05884 25.3688
1587695 4.67826 5.43626 8.08677 7.42873 0.0975043 3.16093 25.63
1587711 4.67826 5.43626 8.08677 7.42873 0.0975043 3.16093 25.63
1587721 4.69565 5.41758 7.95077 7.41937 0.18692 3.09432 25.4834
1587729 4.66957 5.46429 7.91938 7.3913 0.261983 3.05184 25.4445
1587739 4.66957 5.46429 7.91938 7.3913 0.261983 3.05184 25.4445
1587748 4.62609 5.45495 7.92985 7.35388 0.249255 3.07673 25.3648
1587761 4.65217 5.37088 7.92985 7.43808 0.223449 3.15754 25.391
1587768 4.65217 5.37088 7.92985 7.43808 0.223449 3.15754 25.391
1587778 4.72174 5.43626 7.91938 7.40066 0.192127 3.03911 25.478
1587788 4.72174 5.43626 7.91938 7.40066 0.192127 3.03911 25.478
1587798 4.68696 5.41758 7.90892 7.33517 0.154713 3.04132 25.3486
1587808 4.71304 5.45495 7.888 7.37259 0.222677 3.00406 25.4286
1587825 4.71304 5.45495 7.888 7.37259 0.222677 3.00406 25.4286
1587828 4.69565 5.43626 7.87754 7.40066 0.259477 3.03793 25.4101
1587838 4.71304 5.49231 7.90892 7.36324 0.229201 2.98311 25.4775
1587848 4.71304 5.49231 7.90892 7.36324 0.229201 2.98311 25.4775
1587859 4.76522 5.51099 7.888 7.36324 0.216442 2.92334 25.5274
1587869 4.76522 5.51099 7.888 7.36324 0.216442 2.92334 25.5274
1587879 4.66087 5.40824 7.94031 7.36324 0.167799 3.09453 25.3727
1587891 4.66957 5.45495 7.92985 7.42873 0.278875 3.08091 25.4831
1587899 4.66957 5.45495 7.92985 7.42873 0.278875 3.08091 25.4831
1587913 4.70435 5.52033 7.91938 7.41937 0.309005 3.00082 25.5634
1587919 4.70435 5.3989 7.94031 7.38195 0.133914 3.079 25.4255
1587936 4.70435 5.3989 7.94031 7.38195 0.133914 3.079 25.4255
1587939 4.66957 5.48297 7.98215 7.36324 0.190687 3.05487 25.4979
1587949 4.66957 5.48297 7.98215 7.36324 0.190687 3.05487 25.4979
1587959 4.68696 5.40824 7.92985 7.35388 0.143149 3.06664 25.3789
1587969 4.69565 5.38956 7.96123 7.40066 0.130993 3.11038 25.4471
1587980 4.69565 5.38956 7.96123 7.40066 0.130993 3.11038 25.4471
1587989 4.70435 5.43626 7.97169 7.34452 0.102866 3.04963 25.4568
1588003 4.72174 5.46429 8.00308 7.38195 0.118706 3.04974 25.5711
1588011 4.72174 5.46429 8.00308 7.38195 0.118706 3.04974 25.5711
1588024 4.72174 5.4456 7.89846 7.41002 0.231025 3.02707 25.4758
1588034 4.72174 5.4456 7.89846 7.41002 0.231025 3.02707 25.4758
1588040 4.69565 5.40824 8.01354 7.32581 0.0244319 3.08655 25.4432
1588050 4.69565 5.51099 7.96123 7.34452 0.194639 2.99802 25.5124
1588061 4.69565 5.51099 7.96123 7.34452 0.194639 2.99802 25.5124
1588072 4.68696 5.42692 7.97169 7.37259 0.13833 3.08176 25.4582
1588082 4.66957 5.42692 7.95077 7.38195 0.185356 3.08871 25.4292
1588092 4.66957 5.42692 7.95077 7.38195 0.185356 3.08871 25.4292
1588102 4.67826 5.3989 8.03446 7.34452 0.030151 3.12409 25.4561
1588112 4.67826 5.3989 8.03446 7.34452 0.030151 3.12409 25.4561
1588122 4.5913 5.45495 8.00308 7.32581 0.183621 3.12272 25.3751
1588132 4.71304 5.40824 8.07631 7.38195 0.000819564 3.12963 25.5795
1588143 4.71304 5.40824 8.07631 7.38195 0.000819564 3.12963 25.5795
1588153 4.66087 5.38956 8.01354 7.3913 0.104553 3.15519 25.4553
1588162 4.67826 5.38956 8.024 7.36324 0.0496328 3.13459 25.4551
1588175 4.67826 5.38956 8.024 7.36324 0.0496328 3.13459 25.4551
1588182 4.73043 5.42692 8.07631 7.3071 -0.0711799 3.06924 25.5408
1588192 4.73043 5.42692 8.07631 7.3071 -0.0711799 3.06924 25.5408
1588202 4.6087 5.32418 8.07631 7.29774 -0.0623167 3.22511 25.3069
1588212 4.66957 5.40824 8.06585 7.33517 0.00784993 3.1339 25.4788
1588232 4.69565 5.3989 8.08677 7.36324 -0.0198528 3.14477 25.5446
1588242 4.72174 5.37088 8.10769 7.33517 -0.120799 3.14283 25.5355
1588253 4.72174 5.37088 8.10769 7.33517 -0.120799 3.14283 25.5355
1588263 4.64348 5.42692 8.11815 7.33517 0.000447035 3.16348 25.5237
1588273 4.64348 5.42692 8.11815 7.33517 0.000447035 3.16348 25.5237
1588283 4.64348 5.36154 8.06585 7.4568 0.106758 3.24215 25.5277
1588293 4.68696 5.37088 8.13908 7.42873 -0.025779 3.22527 25.6256
1588305 4.68696 5.37088 8.13908 7.42873 -0.025779 3.22527 25.6256
1588313 4.65217 5.38956 8.12862 7.38195 -0.00907928 3.21038 25.5523
1588326 4.64348 5.33352 8.06585 7.35388 -0.0215858 3.21463 25.3967
1588333 4.64348 5.33352 8.06585 7.35388 -0.0215858 3.21463 25.3967
1588347 4.6087 5.36154 8.11815 7.36324 -0.00203699 3.24802 25.4516
1588353 4.6087 5.36154 8.11815 7.36324 -0.00203699 3.24802 25.4516
1588372 4.56522 5.30549 8.12862 7.42873 0.0397086 3.35454 25.4281
1588374 4.5913 5.31484 8.06585 7.44744 0.10339 3.30878 25.4194
1588384 4.5913 5.31484 8.06585 7.44744 0.10339 3.30878 25.4194
1588394 4.62609 5.37088 8.05538 7.43808 0.125039 3.23445 25.4904
1588404 4.63478 5.29615 8.14954 7.47551 -0.0123814 3.34214 25.556
1588416 4.63478 5.29615 8.14954 7.47551 -0.0123814 3.34214 25.556
1588425 4.56522 5.34286 8.08677 7.50358 0.190648 3.34272 25.4984
1588436 4.56522 5.26813 8.13908 7.55971 0.120977 3.44592 25.5321
1588445 4.56522 5.26813 8.13908 7.55971 0.120977 3.44592 25.5321
1588458 4.58261 5.27747 8.05538 7.60649 0.24094 3.40989 25.522
1588479 4.63478 5.34286 8.12862 7.57843 0.153679 3.346 25.6847
1588486 4.55652 5.32418 8.05538 7.66263 0.366133 3.42048 25.5987
1588495 4.55652 5.32418 8.05538 7.66263 0.366133 3.42048 25.5987
1588506 4.6087 5.3522 8.10769 7.64392 0.271976 3.37815 25.7125
1588516 4.56522 5.3522 8.03446 7.62521 0.3692 3.36762 25.5771
1588525 4.56522 5.29615 8.03446 7.62521 0.315112 3.40795 25.521
1588536 4.54783 5.37088 8.00308 7.65327 0.46261 3.36518 25.5751
1588546 4.54783 5.37088 8.00308 7.65327 0.46261 3.36518 25.5751
1588555 4.51304 5.25879 8.03446 7.70006 0.403178 3.50659 25.5064
1588567 4.53913 5.25879 8.03446 7.65327 0.332022 3.46655 25.4857
1588576 4.53913 5.25879 8.03446 7.65327 0.332022 3.46655 25.4857
1588587 4.48696 5.29615 8.01354 7.72812 0.513011 3.50163 25.5248
1588597 4.43478 5.20275 8.01354 7.72812 0.475341 3.60776 25.3792
1588617 4.51304 5.23077 8.07631 7.72812 0.361612 3.55834 25.5482
1588630 4.51304 5.23077 8.07631 7.72812 0.361612 3.55834 25.5482
1588638 4.47826 5.28681 8.01354 7.71877 0.503761 3.5105 25.4974
1588652 4.47826 5.26813 8.06585 7.76555 0.478512 3.56853 25.5778
1588658 4.47826 5.26813 8.06585 7.76555 0.478512 3.56853 25.5778
1588669 4.43478 5.21209 8.08677 7.70941 0.392982 3.62534 25.4431
1588678 4.46087 5.20275 8.03446 7.82168 0.518325 3.63984 25.5198
1588688 4.46087 5.20275 8.03446 7.82168 0.518325 3.63984 25.5198
1588698 4.46957 5.17473 8.08677 7.78426 0.394517 3.66059 25.5153
1588721 4.38261 5.20275 8.03446 7.81233 0.587845 3.69302 25.4321
1588728 4.35652 5.15604 8.10769 7.83104 0.513598 3.78733 25.4513
1588742 4.35652 5.15604 8.10769 7.83104 0.513598 3.78733 25.4513
1588748 4.43478 5.11868 8.06585 7.82168 0.432113 3.73456 25.441
1588758 4.34783 5.15604 8.13908 7.83104 0.490874 3.80756 25.474
1588769 4.34783 5.15604 8.13908 7.83104 0.490874 3.80756 25.474
1588778 4.35652 5.1467 8.18092 7.90589 0.503269 3.85907 25.59
1588788 4.35652 5.1467 8.18092 7.90589 0.503269 3.85907 25.59
1588798 4.36522 5.10934 8.16 7.89653 0.470656 3.86704 25.5311
1588809 4.33043 5.1 8.17046 7.89653 0.485966 3.90425 25.4974
1588829 4.33043 5.10934 8.28554 7.9246 0.407377 3.95929 25.6499
1588839 4.34783 5.04396 8.296 7.86846 0.262746 3.97516 25.5562
1588852 4.34783 5.04396 8.296 7.86846 0.262746 3.97516 25.5562
1588859 4.31304 5.07198 8.32738 7.87782 0.302234 3.99773 25.5902
1588879 4.27826 4.95989 8.27508 7.94331 0.343591 4.11303 25.4565
1588889 4.33913 4.95989 8.35877 7.94331 0.20048 4.10318 25.6011
1588899 4.33913 4.95989 8.35877 7.94331 0.20048 4.10318 25.6011
1588910 4.28696 4.98791 8.28554 8.00881 0.41478 4.11793 25.5692
1588921 4.25217 4.90385 8.30646 8.01816 0.356519 4.22003 25.4806
1588941 4.31304 4.93187 8.42154 7.95267 0.146329 4.1742 25.6191
1588951 4.31304 4.93187 8.42154 7.95267 0.146329 4.1742 25.6191
1588962 4.23478 4.87582 8.42154 7.96203 0.178006 4.27919 25.4942
1588972 4.24348 4.85714 8.42154 7.99009 0.178561 4.29853 25.5123
1588983 4.24348 4.85714 8.42154 7.99009 0.178561 4.29853 25.5123
1588991 4.28696 4.81044 8.42154 8.02752 0.126693 4.31664 25.5465
1589009 4.28696 4.87582 8.44246 8.02752 0.169629 4.27609 25.6328
1589014 4.28696 4.87582 8.44246 8.02752 0.169629 4.27609 25.6328
1589026 4.22609 4.85714 8.48431 8.02752 0.170216 4.35353 25.5951
1589033 4.22609 4.83846 8.54708 8.06494 0.126809 4.40916 25.6766
1589053 4.2087 4.85714 8.46338 8.02752 0.207946 4.35799 25.5567
1589063 4.2087 4.85714 8.46338 8.02752 0.207946 4.35799 25.5567
1589073 4.18261 4.82912 8.47385 8.08365 0.250614 4.42667 25.5692
1589083 4.25217 4.77308 8.49477 8.04623 0.0707626 4.40957 25.5662
1589093 4.25217 4.77308 8.49477 8.04623 0.0707626 4.40957 25.5662
1589104 4.25217 4.8011 8.54708 8.00881 0.010401 4.39449 25.6092
1589114 4.2087 4.81978 8.49477 8.00881 0.122511 4.3916 25.5321
1589124 4.2087 4.81978 8.49477 8.00881 0.122511 4.3916 25.5321
1589135 4.2 4.81044 8.51569 8.11172 0.201336 4.45648 25.6379
1589144 4.2 4.81044 8.51569 8.11172 0.201336 4.45648 25.6379
1589155 4.22609 4.81044 8.50523 8.06494 0.140649 4.41309 25.6067
1589164 4.26957 4.78242 8.50523 8.04623 0.0525832 4.39363 25.6034
1589179 4.26957 4.78242 8.50523 8.04623 0.0525832 4.39363 25.6034
1589184 4.2 4.77308 8.50523 8.08365 0.148171 4.46903 25.562
1589195 4.18261 4.81978 8.54708 8.03687 0.124061 4.44469 25.5863
1589214 4.1913 4.78242 8.57846 8.06494 0.0757247 4.49095 25.6171
1589224 4.1913 4.78242 8.57846 8.06494 0.0757247 4.49095 25.6171
1589236 4.14783 4.79176 8.58892 8.01816 0.0716031 4.50206 25.5467
1589246 4.15652 4.8011 8.59938 8.03687 0.0801623 4.50028 25.5939
1589256 4.15652 4.8011 8.59938 8.03687 0.0801623 4.50028 25.5939
1589265 4.22609 4.8011 8.568 8.00881 0.0154465 4.42292 25.604
1589278 4.2 4.79176 8.65169 8.03687 -0.0224486 4.49574 25.6803
1589288 4.2 4.79176 8.65169 8.03687 -0.0224486 4.49574 25.6803
1589296 4.21739 4.7544 8.64123 8.03687 -0.0656456 4.50664 25.6499
1589312 4.21739 4.7544 8.59938 8.03687 -0.0248998 4.48949 25.608
1589317 4.2087 4.73571 8.59938 7.9246 -0.145046 4.46411 25.4684
1589327 4.2 4.74505 8.72492 7.96203 -0.212473 4.5306 25.632
1589337 4.2 4.74505 8.72492 7.96203 -0.212473 4.5306 25.632
1589348 4.2087 4.74505 8.65169 7.98074 -0.131512 4.50166 25.5862
1589357 4.18261 4.72637 8.71446 8.01816 -0.148718 4.57673 25.6416
1589367 4.18261 4.72637 8.71446 8.01816 -0.148718 4.57673 25.6416
1589379 4.18261 4.73571 8.71446 8.05559 -0.102937 4.58479 25.6884
1589387 4.18261 4.73571 8.71446 8.05559 -0.102937 4.58479 25.6884
1589400 4.12174 4.60495 8.77723 8.13979 -0.150365 4.79085 25.6437
1589408 4.11304 4.70769 8.76677 8.09301 -0.0770122 4.69561 25.6805
1589420 4.11304 4.70769 8.76677 8.09301 -0.0770122 4.69561 25.6805
1589428 4.13043 4.65165 8.81908 8.08365 -0.208497 4.74248 25.6848
1589443 4.07826 4.58626 8.82954 8.14915 -0.168064 4.86337 25.6432
1589458 4.11304 4.55824 8.80862 8.10237 -0.255109 4.83129 25.5823
1589468 4.07826 4.55824 8.79815 8.20528 -0.110075 4.89486 25.6399
1589480 4.07826 4.55824 8.79815 8.20528 -0.110075 4.89486 25.6399
1589489 4.05217 4.63297 8.80862 8.19593 -0.0310361 4.85763 25.6897
1589510 4.04348 4.55824 8.80862 8.10237 -0.187638 4.88537 25.5127
1589519 4.02609 4.61429 8.91323 8.18657 -0.134479 4.9297 25.7402
1589530 4.02609 4.61429 8.91323 8.18657 -0.134479 4.9297 25.7402
1589539 4.08696 4.5489 8.86092 8.24271 -0.151782 4.9347 25.7395
1589551 4.03478 4.5022 8.84 8.224 -0.145102 4.99611 25.601
1589559 4.03478 4.5022 8.84 8.224 -0.145102 4.99611 25.601
1589573 4.04348 4.55824 8.81908 8.25206 -0.05088 4.94847 25.6729
1589594 4 4.55824 8.78769 8.26142 0.031212 4.97369 25.6074
1589601 3.9913 4.5956 8.74585 8.29884 0.153422 4.94962 25.6316
1589615 3.9913 4.5956 8.74585 8.29884 0.153422 4.94962 25.6316
1589621 3.9913 4.51154 8.82954 8.25206 -0.0559345 5.02967 25.5844
1589630 3.96522 4.5022 8.89231 8.28949 -0.0641733 5.09629 25.6492
1589649 3.96522 4.5022 8.89231 8.28949 -0.0641733 5.09629 25.6492
1589651 3.95652 4.53022 8.84 8.38305 0.113526 5.09707 25.7098
1589670 3.92174 4.48352 8.78769 8.36434 0.135404 5.13363 25.5573
1589682 3.93043 4.51154 8.78769 8.38305 0.17224 5.11198 25.6127
1589692 3.93043 4.51154 8.78769 8.38305 0.17224 5.11198 25.6127
1589705 3.9913 4.55824 8.68308 8.33627 0.215229 4.96881 25.5689
1589712 3.95652 4.5022 8.68308 8.36434 0.222433 5.05096 25.5061
1589726 3.95652 4.5022 8.68308 8.36434 0.222433 5.05096 25.5061
1589732 3.95652 4.49286 8.73538 8.36434 0.161734 5.07866 25.5491
1589747 3.95652 4.49286 8.76677 8.28949 0.0578821 5.06175 25.5056
1589752 3.95652 4.57692 8.76677 8.28949 0.139824 4.99585 25.5897
1589762 3.98261 4.63297 8.82954 8.31756 0.13428 4.96737 25.7627
1589773 3.98261 4.63297 8.82954 8.31756 0.13428 4.96737 25.7627
1589783 3.98261 4.66099 8.77723 8.36434 0.2574 4.94352 25.7852
1589793 3.95652 4.69835 8.67262 8.32691 0.386027 4.87908 25.6544
1589806 3.95652 4.69835 8.67262 8.32691 0.386027 4.87908 25.6544
1589813 3.94783 4.69835 8.68308 8.27078 0.330299 4.86777 25.6
1589823 3.94783 4.69835 8.68308 8.27078 0.330299 4.86777 25.6
1589837 3.98261 4.66099 8.71446 8.17722 0.138175 4.84511 25.5353
1589843 3.98261 4.72637 8.77723 8.224 0.185266 4.83791 25.7102
1589853 3.98261 4.72637 8.77723 8.224 0.185266 4.83791 25.7102
1589863 3.96522 4.5956 8.71446 8.20528 0.118923 4.92076 25.4806
1589873 3.98261 4.67967 8.71446 8.18657 0.165445 4.83432 25.5633
1589883 3.98261 4.67967 8.71446 8.18657 0.165445 4.83432 25.5633
1589893 4.0087 4.69835 8.78769 8.27078 0.167608 4.86198 25.7655
1589903 4.0087 4.69835 8.78769 8.27078 0.167608 4.86198 25.7655
1589914 3.9913 4.63297 8.75631 8.21464 0.0976682 4.89154 25.5952
1589923 3.96522 4.63297 8.87138 8.27078 0.0652105 4.97894 25.7403
1589933 3.96522 4.63297 8.87138 8.27078 0.0652105 4.97894 25.7403
1589945 3.95652 4.56758 8.81908 8.27078 0.0612557 5.01626 25.614
1589953 3.93043 4.5489 8.976 8.32691 -0.0296921 5.13352 25.7822
1589963 3.93043 4.5489 8.976 8.32691 -0.0296921 5.13352 25.7822
1589973 3.90435 4.55824 8.92369 8.32691 0.0555307 5.12656 25.7132
1589983 3.90435 4.55824 8.92369 8.32691 0.0555307 5.12656 25.7132
1589994 3.91304 4.46484 8.86092 8.25206 -0.0559673 5.14014 25.4909
1590003 3.94783 4.43681 8.91323 8.28949 -0.131662 5.1694 25.5874
1590014 3.94783 4.43681 8.91323 8.28949 -0.131662 5.1694 25.5874
1590024 3.93913 4.44615 8.98646 8.3082 -0.166705 5.20409 25.6799
1590037 3.90435 4.46484 8.98646 8.28949 -0.133052 5.20962 25.6451
1590044 3.90435 4.46484 8.98646 8.28949 -0.133052 5.20962 25.6451
1590055 3.91304 4.5022 9.00738 8.39241 -0.0250101 5.22053 25.815
1590077 3.91304 4.46484 9.00738 8.34562 -0.106843 5.23212 25.7309
1590084 3.95652 4.41813 9.07015 8.34562 -0.254862 5.25842 25.7904
1590107 3.92174 4.41813 8.98646 8.36434 -0.122352 5.26121 25.6907
1590126 3.89565 4.38077 9.07015 8.34562 -0.232962 5.33587 25.6922
1590136 3.91304 4.38077 9.01785 8.29884 -0.245288 5.28467 25.6105
1590147 3.84348 4.38077 9.00738 8.28949 -0.176917 5.33242 25.5211
1590157 3.84348 4.38077 9.00738 8.28949 -0.176917 5.33242 25.5211
1590167 3.90435 4.44615 9.03877 8.38305 -0.110501 5.27969 25.7723
1590177 3.90435 4.44615 9.03877 8.38305 -0.110501 5.27969 25.7723
1590189 3.87826 4.34341 9.02831 8.41112 -0.148128 5.38817 25.6611
1590197 3.88696 4.36209 9.07015 8.42047 -0.169535 5.38561 25.7397
1590217 3.87826 4.34341 9.07015 8.46725 -0.133695 5.42473 25.7591
1590237 3.87826 4.31538 9.03877 8.47661 -0.121588 5.43879 25.709
1590247 3.87826 4.35275 9.01785 8.46725 -0.0739872 5.39784 25.7161
1590273 3.8 4.31538 9.01785 8.39241 -0.107788 5.46208 25.5256
1590282 3.88696 4.32473 9.07015 8.42983 -0.19695 5.41873 25.7117
1590291 3.88696 4.32473 9.07015 8.42983 -0.19695 5.41873 25.7117
1590302 3.85217 4.32473 9.02831 8.43919 -0.113644 5.43428 25.6444
1590307 3.85217 4.32473 8.96554 8.43919 -0.0525787 5.41081 25.5816
1590317 3.90435 4.34341 8.96554 8.46725 -0.0576556 5.36498 25.6805
1590328 3.86957 4.32473 8.95508 8.46725 -0.0318795 5.40355 25.6166
1590338 3.86957 4.32473 8.95508 8.46725 -0.0318795 5.40355 25.6166
1590349 3.91304 4.30604 8.92369 8.44854 -0.0802532 5.36499 25.5913
1590358 3.89565 4.35275 8.87138 8.51403 0.0972778 5.34666 25.6338
1590370 3.89565 4.35275 8.87138 8.51403 0.0972778 5.34666 25.6338
1590378 3.96522 4.33407 8.84 8.56081 0.0872225 5.31216 25.7001
1590398 3.86957 4.2967 8.91323 8.57017 0.0819474 5.44869 25.6497
1590409 3.86087 4.26868 8.93415 8.67309 0.142542 5.52382 25.7368
1590419 3.86087 4.26868 8.93415 8.67309 0.142542 5.52382 25.7368
1590436 3.84348 4.2967 8.86092 8.71987 0.30342 5.50559 25.721
1590439 3.7913 4.23132 8.88185 8.74794 0.298318 5.6177 25.6524
1590449 3.7913 4.23132 8.88185 8.74794 0.298318 5.6177 25.6524
1590459 3.86087 4.28736 8.82954 8.71987 0.308222 5.48757 25.6976
1590469 3.84348 4.27802 8.74585 8.71051 0.39019 5.47438 25.5779
1590489 3.82609 4.26868 8.86092 8.75729 0.329563 5.55562 25.713
1590504 3.82609 4.26868 8.86092 8.75729 0.329563 5.55562 25.713
1590511 3.86957 4.26868 8.76677 8.79472 0.415435 5.5 25.6997
1590525 3.83478 4.31538 8.74585 8.86957 0.586364 5.5104 25.7656
1590530 3.83478 4.31538 8.74585 8.86957 0.586364 5.5104 25.7656
1590540 3.8 4.30604 8.77723 8.89763 0.607476 5.56739 25.7809
1590551 3.76522 4.23132 8.72492 8.89763 0.623375 5.63604 25.6191
1590561 3.76522 4.23132 8.72492 8.89763 0.623375 5.63604 25.6191
1590571 3.77391 4.27802 8.68308 9.02862 0.824466 5.62407 25.7636
1590580 3.77391 4.27802 8.68308 9.02862 0.824466 5.62407 25.7636
1590591 3.71304 4.13791 8.57846 8.94441 0.779173 5.71766 25.3738
1590601 3.81739 4.25934 8.59938 8.90699 0.73247 5.52883 25.5831
1590613 3.81739 4.25934 8.59938 8.90699 0.73247 5.52883 25.5831
1590620 3.8 4.25934 8.568 8.93506 0.808218 5.54157 25.5624
1590631 3.7913 4.25934 8.63077 8.90699 0.727144 5.56138 25.5884
1590643 3.7913 4.23132 8.63077 8.90699 0.70053 5.58391 25.5604
1590657 3.86087 4.25934 8.67262 8.97248 0.677595 5.54518 25.7653
1590660 3.86087 4.25934 8.67262 8.97248 0.677595 5.54518 25.7653
1590670 3.8 4.25 8.69354 8.96313 0.699806 5.60555 25.7067
1590680 3.86087 4.31538 8.73538 8.94441 0.641572 5.51334 25.8561
1590690 3.86087 4.31538 8.73538 8.94441 0.641572 5.51334 25.8561
1590702 3.83478 4.32473 8.72492 8.89763 0.642553 5.5056 25.7821
1590723 3.8087 4.2967 8.76677 8.8415 0.547117 5.54347 25.7137
1590731 3.78261 4.2033 8.81908 8.94441 0.530136 5.69582 25.7494
1590745 3.78261 4.2033 8.81908 8.94441 0.530136 5.69582 25.7494
1590752 3.78261 4.2033 8.75631 8.82278 0.476396 5.6287 25.565
1590763 3.8 4.16593 8.85046 8.87892 0.383723 5.69955 25.6953
1590773 3.8 4.16593 8.85046 8.87892 0.383723 5.69955 25.6953
1590783 3.8087 4.16593 8.90277 8.86957 0.314635 5.70808 25.747
1590793 3.8087 4.16593 8.90277 8.86957 0.314635 5.70808 25.747
1590803 3.68696 4.10989 8.95508 8.8415 0.302181 5.86072 25.5934
1590813 3.72174 4.10989 8.93415 8.88828 0.333551 5.84165 25.6541
1590835 3.72174 4.06319 8.86092 8.8415 0.315866 5.83672 25.4873
1590843 3.73913 4.10055 8.90277 8.78536 0.238967 5.78689 25.5278
1590852 3.73913 4.10055 8.90277 8.78536 0.238967 5.78689 25.5278
1590862 3.76522 4.10989 8.92369 8.86021 0.27397 5.79258 25.659
1590873 3.76522 4.10989 8.95508 8.86021 0.243092 5.80383 25.6904
1590883 3.76522 4.08187 8.95508 8.8415 0.197974 5.81985 25.6437
1590893 3.8 4.17527 8.98646 8.83214 0.214154 5.72423 25.7939
1590903 3.8 4.17527 8.98646 8.83214 0.214154 5.72423 25.7939
1590918 3.7913 4.13791 9.08062 8.73858 0.00444055 5.76151 25.7484
1590933 3.76522 4.08187 9.112 8.73858 -0.0552297 5.83915 25.6977
1590946 3.71304 4.11923 9.19569 8.79472 0.00504851 5.90071 25.8227
1590963 3.75652 4.01648 9.22708 8.776 -0.185357 5.95324 25.7761
1590974 3.8 4.05385 9.16431 8.75729 -0.148562 5.85892 25.7754
1590994 3.72174 4.07253 9.13292 8.71987 -0.0606969 5.88285 25.6471
1591004 3.72174 4.03516 9.05969 8.74794 0.00163317 5.89727 25.5645
1591017 3.72174 4.03516 9.05969 8.74794 0.00163317 5.89727 25.5645
1591026 3.72174 4.07253 9.14338 8.776 -0.0161335 5.90647 25.7137
1591036 3.70435 3.96978 9.30031 8.78536 -0.242156 6.06267 25.7598
1591057 3.66087 3.98846 9.32123 8.76665 -0.220488 6.08373 25.7372
1591068 3.66087 3.98846 9.32123 8.76665 -0.220488 6.08373 25.7372
1591080 3.52174 3.9511 9.49908 8.87892 -0.184517 6.32774 25.8508
1591086 3.52174 3.9044 9.60369 8.86021 -0.348423 6.39499 25.89
1591096 3.52174 3.9044 9.60369 8.86021 -0.348423 6.39499 25.89
1591105 3.53913 3.91374 9.58277 8.83214 -0.36341 6.35658 25.8678
1591116 3.54783 3.89506 9.61415 8.81343 -0.438239 6.36906 25.8705
1591125 3.54783 3.89506 9.61415 8.81343 -0.438239 6.36906 25.8705
1591136 3.51304 3.96044 9.60369 8.71051 -0.432166 6.30576 25.7877
1591148 3.51304 3.96044 9.60369 8.71051 -0.432166 6.30576 25.7877
1591155 3.52174 3.94176 9.55138 8.65438 -0.464554 6.27732 25.6693
1591170 3.53913 3.9511 9.58277 8.68244 -0.474031 6.27536 25.7554
1591178 3.53913 3.9511 9.58277 8.68244 -0.474031 6.27536 25.7554
1591193 3.63478 3.93242 9.47815 8.56081 -0.605035 6.13432 25.6062
1591197 3.64348 3.93242 9.41538 8.55146 -0.562768 6.1021 25.5427
1591208 3.64348 3.93242 9.41538 8.55146 -0.562768 6.1021 25.5427
1591217 3.63478 4.00714 9.45723 8.58888 -0.482702 6.07531 25.688
1591240 3.66087 4.00714 9.54092 8.5421 -0.633514 6.06675 25.751
1591248 3.68696 3.96044 9.57231 8.61695 -0.659792 6.1203 25.8367
1591262 3.68696 3.96044 9.57231 8.61695 -0.659792 6.1203 25.8367
1591268 3.71304 3.98846 9.56185 8.57953 -0.683846 6.05962 25.8429
1591278 3.70435 4.00714 9.56185 8.57017 -0.666395 6.04825 25.8435
1591298 3.74783 4.00714 9.50954 8.50468 -0.723289 5.97181 25.7692
1591309 3.73913 3.97912 9.384 8.42983 -0.699297 5.93111 25.5321
1591319 3.73913 3.97912 9.384 8.42983 -0.699297 5.93111 25.5321
1591331 3.82609 3.97912 9.42585 8.46725 -0.783667 5.88826 25.6983
1591339 3.82609 3.97912 9.42585 8.46725 -0.783667 5.88826 25.6983
1591353 3.8 3.96044 9.384 8.40176 -0.804228 5.88658 25.5462
1591359 3.89565 3.9978 9.32123 8.40176 -0.797653 5.7558 25.6164
1591377 3.89565 3.9978 9.32123 8.40176 -0.797653 5.7558 25.6164
1591379 3.90435 4.03516 9.40492 8.37369 -0.875272 5.73862 25.7181
1591391 3.88696 4.05385 9.36308 8.38305 -0.791392 5.72587 25.6869
1591411 3.96522 4.07253 9.37354 8.33627 -0.902958 5.63475 25.7476
1591423 3.96522 4.07253 9.37354 8.33627 -0.902958 5.63475 25.7476
1591432 3.93043 4.06319 9.384 8.39241 -0.833181 5.69428 25.77
1591447 3.98261 4.04451 9.32123 8.38305 -0.851378 5.64126 25.7314
1591452 3.98261 4.04451 9.32123 8.38305 -0.851378 5.64126 25.7314
1591462 3.95652 4.04451 9.28985 8.34562 -0.834979 5.63715 25.6365
1591472 3.95652 4.07253 9.23754 8.40176 -0.701027 5.61601 25.6683
1591482 3.95652 4.07253 9.23754 8.40176 -0.701027 5.61601 25.6683
1591492 3.97391 4.01648 9.15385 8.37369 -0.722611 5.60614 25.5179
1591502 3.97391 4.01648 9.15385 8.37369 -0.722611 5.60614 25.5179
1591513 3.92174 4.11923 9.17477 8.38305 -0.58033 5.57654 25.5988
1591522 4.03478 4.13791 9.15385 8.40176 -0.630586 5.47038 25.7283
1591536 4.03478 4.13791 9.15385 8.40176 -0.630586 5.47038 25.7283
1591542 4.07826 4.14725 8.98646 8.36434 -0.540671 5.3518 25.5763
1591551 4.05217 4.19396 8.98646 8.36434 -0.469141 5.33541 25.5969
1591569 4.05217 4.19396 8.98646 8.36434 -0.469141 5.33541 25.5969
1591573 4.08696 4.25 8.95508 8.42047 -0.361265 5.27288 25.7125
1591585 4.06087 4.26868 8.94462 8.39241 -0.335455 5.26412 25.6666
1591606 4.12174 4.33407 8.92369 8.35498 -0.346214 5.14264 25.7345
1591613 4.12174 4.33407 8.92369 8.35498 -0.346214 5.14264 25.7345
1591623 4.13043 4.32473 8.79815 8.23335 -0.363439 5.04755 25.4867
1591633 4.17391 4.33407 8.74585 8.24271 -0.336304 4.98925 25.4965
1591643 4.17391 4.33407 8.74585 8.24271 -0.336304 4.98925 25.4965
1591653 4.23478 4.39011 8.77723 8.25206 -0.36041 4.91405 25.6542
1591663 4.13913 4.33407 8.71446 8.21464 -0.300056 4.99319 25.4023
1591675 4.13913 4.33407 8.71446 8.21464 -0.300056 4.99319 25.4023
1591684 4.18261 4.37143 8.77723 8.224 -0.356498 4.95819 25.5553
1591704 4.27826 4.39945 8.77723 8.14915 -0.494936 4.83243 25.6041
1591714 4.26087 4.44615 8.68308 8.20528 -0.285704 4.79462 25.5954
1591726 4.26087 4.44615 8.68308 8.20528 -0.285704 4.79462 25.5954
1591736 4.34783 4.48352 8.72492 8.21464 -0.363389 4.7194 25.7709
1591746 4.30435 4.48352 8.64123 8.14915 -0.305842 4.69296 25.5782
1591765 4.33043 4.61429 8.55754 8.12108 -0.148894 4.52745 25.6233
