6530666 2.99594 3.99725 7.99011 8.86309 1.96497 6.2022 23.8464
6530676 3.05637 4.0815 7.96908 8.76068 1.90291 6.02818 23.8676
6530686 3.03911 4.00661 8.05318 8.6862 1.68227 6.11328 23.7851
6530706 3.10818 4.00661 8.0637 8.63965 1.54755 6.03861 23.8181
6530716 3.10818 4.00661 8.0637 8.63965 1.54755 6.03861 23.8181
6530726 3.06501 3.9598 8.07421 8.64896 1.54702 6.1258 23.748
6530737 3.07364 3.96916 8.09524 8.67689 1.55068 6.12808 23.8149
6530746 3.07364 3.96916 8.09524 8.67689 1.55068 6.12808 23.8149
6530756 3.09091 3.99725 8.08472 8.64896 1.5433 6.07354 23.8218
6530776 3.08228 3.98789 8.11626 8.64896 1.50858 6.10126 23.8354
6530786 3.13408 3.95044 8.13729 8.62103 1.3632 6.08598 23.8428
6530798 3.13408 3.95044 8.13729 8.62103 1.3632 6.08598 23.8428
6530806 3.10818 3.99725 8.11626 8.61172 1.45229 6.05614 23.8334
6530818 3.13408 3.99725 8.10575 8.5931 1.41681 6.02232 23.8302
6530826 3.13408 3.99725 8.10575 8.5931 1.41681 6.02232 23.8302
6530841 3.13408 3.9598 8.13729 8.61172 1.36325 6.07422 23.8429
6530860 3.15998 3.96916 8.09524 8.55586 1.33494 6.00622 23.7802
6530866 3.19451 4.00661 8.17934 8.60241 1.28754 5.99217 23.9829
6530886 3.16861 4.02533 8.20037 8.50931 1.21912 5.97131 23.9036
6530896 3.12544 3.98789 8.15832 8.47207 1.23843 6.01236 23.7437
6530906 3.12544 3.98789 8.15832 8.47207 1.23843 6.01236 23.7437
6530919 3.17725 4.03469 8.16883 8.49069 1.23506 5.93653 23.8715
6530927 3.17725 4.03469 8.16883 8.49069 1.23506 5.93653 23.8715
6530939 3.15135 3.96916 8.25294 8.47207 1.08715 6.0417 23.8455
6530946 3.20315 4.01597 8.13729 8.53724 1.26892 5.93593 23.8937
6530957 3.20315 4.01597 8.13729 8.53724 1.26892 5.93593 23.8937
6530967 3.24632 4.02533 8.18986 8.66758 1.3021 5.95907 24.1291
6530978 3.15998 4.00661 8.15832 8.52793 1.27473 5.9865 23.8528
6530987 3.15998 4.00661 8.15832 8.52793 1.27473 5.9865 23.8528
6530997 3.18588 4.04405 8.12678 8.5931 1.38257 5.94364 23.9498
6531007 3.18588 4.04405 8.12678 8.5931 1.38257 5.94364 23.9498
6531020 3.17725 4.01597 8.02164 8.55586 1.44394 5.92175 23.7707
6531027 3.18588 4.04405 8.03216 8.51862 1.41357 5.87924 23.7807
6531037 3.18588 4.04405 8.03216 8.51862 1.41357 5.87924 23.7807
6531047 3.16861 4.01597 8.01113 8.46276 1.37264 5.88963 23.6585
6531059 3.22042 4.03469 8.00062 8.49069 1.3732 5.83427 23.7464
6531067 3.22042 4.03469 8.00062 8.49069 1.3732 5.83427 23.7464
6531079 3.20315 3.97852 8.03216 8.48138 1.29203 5.90744 23.6952
6531099 3.21178 3.97852 8.16883 8.48138 1.13178 5.95199 23.8405
6531107 3.21178 3.98789 8.1478 8.48138 1.16422 5.93578 23.8289
6531120 3.21178 3.98789 8.1478 8.48138 1.16422 5.93578 23.8289
6531129 3.23768 4.04405 8.16883 8.49069 1.17812 5.8755 23.9413
6531139 3.17725 3.96916 8.1478 8.54655 1.24856 6.00732 23.8408
6531148 3.17725 3.96916 8.1478 8.54655 1.24856 6.00732 23.8408
6531159 3.18588 3.99725 8.07421 8.51862 1.32042 5.93648 23.776
6531169 3.18588 3.99725 8.07421 8.51862 1.32042 5.93648 23.776
6531179 3.15998 4.02533 8.08472 8.44414 1.29117 5.91011 23.7142
6531189 3.22042 4.07214 8.12678 8.47207 1.25256 5.84287 23.8914
6531198 3.22042 4.07214 8.12678 8.47207 1.25256 5.84287 23.8914
6531208 3.17725 4.03469 8.0637 8.47207 1.33257 5.8893 23.7477
6531218 3.21178 4.02533 8.10575 8.41621 1.18271 5.86187 23.7591
6531227 3.21178 4.02533 8.10575 8.41621 1.18271 5.86187 23.7591
6531237 3.21178 4.02533 8.08472 8.43483 1.22456 5.86095 23.7567
6531248 3.21178 4.02533 8.08472 8.43483 1.22456 5.86095 23.7567
6531260 3.24632 3.99725 8.0637 8.4069 1.15346 5.83641 23.7142
6531268 3.22905 3.97852 8.1478 8.4069 1.0611 5.9004 23.7623
6531289 3.23768 4.02533 8.18986 8.36966 1.01527 5.8536 23.8225
6531301 3.23768 3.96916 8.26345 8.27656 0.783882 5.89541 23.7469
6531308 3.23768 3.96916 8.26345 8.27656 0.783882 5.89541 23.7469
6531319 3.23768 3.9598 8.28448 8.36035 0.836739 5.94364 23.8423
6531329 3.23768 3.9598 8.28448 8.36035 0.836739 5.94364 23.8423
6531339 3.26359 3.98789 8.29499 8.26725 0.73126 5.86475 23.8137
6531348 3.23768 3.98789 8.3055 8.27656 0.757381 5.89506 23.8076
6531361 3.23768 3.98789 8.3055 8.27656 0.757381 5.89506 23.8076
6531368 3.28949 3.99725 8.23191 8.32311 0.837773 5.83113 23.8418
6531378 3.28949 3.99725 8.23191 8.32311 0.837773 5.83113 23.8418
6531388 3.22905 3.96916 8.18986 8.25794 0.854474 5.86754 23.646
6531399 3.23768 3.97852 8.2214 8.42552 0.989982 5.928 23.8631
6531408 3.23768 3.97852 8.2214 8.42552 0.989982 5.928 23.8631
6531419 3.22905 4.06278 8.05318 8.43483 1.27773 5.80083 23.7798
6531430 3.24632 4.0815 8.01113 8.47207 1.36084 5.76753 23.811
6531439 3.24632 4.0815 8.01113 8.47207 1.36084 5.76753 23.811
6531448 3.24632 4.05341 7.95857 8.60241 1.52022 5.82207 23.8607
6531459 3.24632 4.05341 7.95857 8.60241 1.52022 5.82207 23.8607
6531477 3.20315 4.06278 7.93754 8.58379 1.58265 5.83636 23.7873
6531498 3.22905 4.03469 7.906 8.55586 1.53368 5.81531 23.7256
6531500 3.20315 4.10958 7.85343 8.57448 1.71381 5.75922 23.7406
6531511 3.22042 4.07214 7.85343 8.5931 1.67592 5.78412 23.7391
6531524 3.22042 4.07214 7.85343 8.5931 1.67592 5.78412 23.7391
6531531 3.19451 4.10022 7.80087 8.57448 1.77367 5.75449 23.6701
6531542 3.19451 4.04405 7.84292 8.64896 1.74415 5.84901 23.7304
6531552 3.19451 4.04405 7.84292 8.64896 1.74415 5.84901 23.7304
6531562 3.15135 4.14703 7.82189 8.71413 1.98025 5.81365 23.8344
6531572 3.15135 4.14703 7.82189 8.71413 1.98025 5.81365 23.8344
6531582 3.14271 4.10022 7.81138 8.71413 1.95665 5.85813 23.7684
6531592 3.16861 4.09086 7.82189 8.74206 1.9334 5.8584 23.8234
6531602 3.16861 4.09086 7.82189 8.74206 1.9334 5.8584 23.8234
6531612 3.18588 4.11894 7.86395 8.80723 1.95648 5.85983 23.976
6531622 3.14271 4.11894 7.84292 8.74206 1.96607 5.86455 23.8466
6531634 3.14271 4.11894 7.84292 8.74206 1.96607 5.86455 23.8466
6531642 3.11681 4.17511 7.7483 8.81654 2.22845 5.83037 23.8568
6531652 3.11681 4.17511 7.7483 8.81654 2.22845 5.83037 23.8568
6531662 3.14271 4.07214 7.79035 8.76999 2.00741 5.89616 23.7752
6531672 3.09954 4.0815 7.79035 8.86309 2.15516 5.96136 23.8345
6531682 3.09954 4.0815 7.79035 8.86309 2.15516 5.96136 23.8345
6531692 3.13408 4.11894 7.68522 8.81654 2.22711 5.84013 23.7548
6531702 3.09091 4.07214 7.72727 8.78861 2.15652 5.92478 23.6789
6531713 3.09091 4.07214 7.72727 8.78861 2.15652 5.92478 23.6789
6531722 3.10818 4.1283 7.75881 8.8724 2.23494 5.90426 23.8677
6531735 3.10818 4.1283 7.75881 8.8724 2.23494 5.90426 23.8677
6531744 3.09954 4.05341 7.68522 8.84447 2.23066 5.93899 23.6826
6531754 3.09091 4.10022 7.64317 8.86309 2.35177 5.8963 23.6974
6531762 3.09091 4.10022 7.64317 8.86309 2.35177 5.8963 23.6974
6531773 3.07364 4.18447 7.66419 8.89102 2.45415 5.85624 23.8133
6531782 3.05637 4.06278 7.63265 8.88171 2.38587 5.96307 23.6335
6531794 3.05637 4.06278 7.63265 8.88171 2.38587 5.96307 23.6335
6531803 3.10818 4.18447 7.68522 8.88171 2.38142 5.83054 23.8596
6531813 3.10818 4.18447 7.68522 8.88171 2.38142 5.83054 23.8596
6531823 3.10818 4.10958 7.56957 8.88171 2.44364 5.85165 23.669
6531834 3.11681 4.14703 7.66419 8.85378 2.33351 5.8369 23.7818
6531845 3.11681 4.14703 7.66419 8.85378 2.33351 5.8369 23.7818
6531853 3.10818 4.14703 7.68522 8.8724 2.33701 5.85971 23.8128
6531863 3.09091 4.17511 7.68522 8.84447 2.35699 5.8395 23.7957
6531874 3.09091 4.17511 7.68522 8.84447 2.35699 5.8395 23.7957
6531884 3.09954 4.1283 7.64317 8.83516 2.34196 5.85321 23.7062
6531893 3.09954 4.1283 7.64317 8.83516 2.34196 5.85321 23.7062
6531904 3.05637 4.16575 7.66419 8.8724 2.43866 5.88066 23.7587
6531913 3.06501 4.10022 7.72727 8.82585 2.24909 5.93711 23.7183
6531924 3.06501 4.10022 7.72727 8.82585 2.24909 5.93711 23.7183
6531934 3.12544 4.1283 7.68522 8.84447 2.2727 5.85025 23.7834
6531944 3.12544 4.1283 7.68522 8.84447 2.2727 5.85025 23.7834
6531955 3.08228 4.10958 7.67471 8.90033 2.36982 5.92201 23.7669
6531965 3.15135 4.15639 7.76933 8.85378 2.18285 5.83893 23.9308
6531975 3.15135 4.15639 7.76933 8.85378 2.18285 5.83893 23.9308
6531985 3.13408 4.1283 7.63265 8.84447 2.32317 5.82241 23.7395
6531995 3.09954 4.1283 7.72727 8.79792 2.20962 5.87126 23.753
6532005 3.09954 4.1283 7.72727 8.79792 2.20962 5.87126 23.753
6532015 3.13408 4.13767 7.67471 8.7793 2.2214 5.80525 23.7257
6532035 3.11681 4.17511 7.63265 8.72344 2.27195 5.74943 23.648
6532045 3.13408 4.10958 7.65368 8.78861 2.22751 5.82537 23.6859
6532055 3.13408 4.10958 7.65368 8.78861 2.22751 5.82537 23.6859
6532065 3.13408 4.11894 7.70625 8.74206 2.1314 5.81948 23.7013
6532075 3.15998 4.16575 7.67471 8.78861 2.22757 5.76163 23.789
6532085 3.15998 4.16575 7.67471 8.78861 2.22757 5.76163 23.789
6532095 3.13408 4.17511 7.71676 8.76999 2.20023 5.78516 23.7959
6532121 3.16861 4.11894 7.66419 8.78861 2.18483 5.79093 23.7404
6532130 3.19451 4.20319 7.73779 8.65827 2.02696 5.67271 23.7938
6532138 3.19451 4.20319 7.73779 8.65827 2.02696 5.67271 23.7938
6532145 3.24632 4.17511 7.67471 8.64896 2.00362 5.62363 23.7451
6532155 3.22042 4.28745 7.69573 8.66758 2.13529 5.56453 23.8712
6532165 3.22042 4.28745 7.69573 8.66758 2.13529 5.56453 23.8712
6532175 3.26359 4.25 7.72727 8.60241 1.95186 5.54628 23.8433
6532186 3.26359 4.25 7.72727 8.60241 1.95186 5.54628 23.8433
6532196 3.24632 4.19383 7.76933 8.58379 1.85134 5.619 23.7933
6532206 3.24632 4.25 7.76933 8.61172 1.93287 5.58147 23.8774
6532217 3.24632 4.25 7.76933 8.61172 1.93287 5.58147 23.8774
6532226 3.22905 4.25 7.72727 8.53724 1.9278 5.55022 23.7436
6532237 3.28085 4.19383 7.66419 8.53724 1.88589 5.52883 23.6761
6532246 3.28085 4.19383 7.66419 8.53724 1.88589 5.52883 23.6761
6532257 3.32402 4.28745 7.7483 8.49069 1.78803 5.42601 23.8505
6532267 3.32402 4.28745 7.7483 8.49069 1.78803 5.42601 23.8505
6532277 3.26359 4.22192 7.68522 8.47207 1.84536 5.50175 23.6428
6532286 3.33266 4.25 7.68522 8.58379 1.90334 5.46273 23.8517
6532297 3.33266 4.25 7.68522 8.58379 1.90334 5.46273 23.8517
6532306 3.26359 4.19383 7.70625 8.53724 1.85778 5.56059 23.7009
6532316 3.22905 4.24064 7.7483 8.61172 1.96709 5.59616 23.8297
6532326 3.22905 4.24064 7.7483 8.61172 1.96709 5.59616 23.8297
6532338 3.28085 4.24064 7.76933 8.55586 1.83078 5.53769 23.8467
6532346 3.28085 4.24064 7.76933 8.55586 1.83078 5.53769 23.8467
6532358 3.23768 4.17511 7.79035 8.55586 1.79188 5.64002 23.759
6532369 3.27222 4.22192 7.79035 8.53724 1.7805 5.56223 23.8217
6532378 3.27222 4.22192 7.79035 8.53724 1.7805 5.56223 23.8217
6532386 3.26359 4.15639 7.86395 8.51862 1.62533 5.64809 23.8025
6532397 3.26359 4.15639 7.82189 8.50931 1.66331 5.62787 23.7512
6532406 3.26359 4.15639 7.82189 8.50931 1.66331 5.62787 23.7512
6532418 3.28949 4.15639 7.87446 8.52793 1.5938 5.63344 23.8483
6532427 3.28949 4.15639 7.87446 8.52793 1.5938 5.63344 23.8483
6532437 3.22042 4.06278 7.85343 8.46276 1.53784 5.74146 23.5994
6532447 3.20315 4.10022 7.906 8.5 1.57224 5.75888 23.7094
6532457 3.20315 4.10022 7.906 8.5 1.57224 5.75888 23.7094
6532467 3.28085 4.15639 7.88497 8.46276 1.52757 5.6194 23.785
6532478 3.27222 4.11894 7.91651 8.56517 1.56598 5.71184 23.8728
6532497 3.26359 4.13767 7.93754 8.52793 1.53401 5.69677 23.8667
6532507 3.26359 4.13767 7.93754 8.52793 1.53401 5.69677 23.8667
6532517 3.28949 4.07214 7.92703 8.36966 1.29477 5.66507 23.6583
6532527 3.27222 4.10958 7.89549 8.43483 1.45148 5.66072 23.7121
6532537 3.27222 4.10958 7.89549 8.43483 1.45148 5.66072 23.7121
6532547 3.32402 4.16575 7.89549 8.33242 1.34779 5.52634 23.7177
6532558 3.38446 4.10958 7.91651 8.39759 1.26658 5.55696 23.8081
6532567 3.38446 4.10958 7.91651 8.39759 1.26658 5.55696 23.8081
6532577 3.32402 4.16575 7.906 8.33242 1.33612 5.53054 23.7282
6532588 3.32402 4.16575 7.906 8.33242 1.33612 5.53054 23.7282
6532600 3.32402 4.21255 7.93754 8.34173 1.357 5.50643 23.8158
6532609 3.34129 4.18447 7.95857 8.30449 1.24965 5.50929 23.7888
6532628 3.39309 4.24064 7.94805 8.36035 1.31551 5.43477 23.9421
6532641 3.39309 4.23128 7.88497 8.3138 1.3296 5.39878 23.8231
6532650 3.39309 4.23128 7.88497 8.3138 1.3296 5.39878 23.8231
6532662 3.39309 4.20319 7.88497 8.26725 1.25522 5.40409 23.7485
6532670 3.39309 4.20319 7.88497 8.26725 1.25522 5.40409 23.7485
6532680 3.40173 4.27808 7.85343 8.28587 1.37368 5.32733 23.8191
6532689 3.38446 4.27808 7.85343 8.27656 1.38358 5.3383 23.7925
6532710 3.42763 4.32489 7.83241 8.24863 1.37777 5.24168 23.8336
6532720 3.39309 4.26872 7.85343 8.32311 1.41087 5.35779 23.8384
6532730 3.39309 4.26872 7.85343 8.32311 1.41087 5.35779 23.8384
6532740 3.39309 4.26872 7.82189 8.2207 1.34409 5.3033 23.7044
6532750 3.39309 4.26872 7.82189 8.2207 1.34409 5.3033 23.7044
6532760 3.37583 4.29681 7.83241 8.23932 1.39812 5.30595 23.7444
6532779 3.37583 4.26872 7.79035 8.20208 1.37986 5.29756 23.637
6532780 3.37583 4.26872 7.79035 8.20208 1.37986 5.29756 23.637
6532792 3.37583 4.33425 7.80087 8.27656 1.50722 5.27631 23.7875
6532800 3.40173 4.28745 7.7483 8.33242 1.5459 5.29549 23.7699
6532810 3.40173 4.28745 7.7483 8.33242 1.5459 5.29549 23.7699
6532822 3.35856 4.33425 7.79035 8.36966 1.62979 5.32466 23.8528
6532830 3.35856 4.33425 7.79035 8.36966 1.62979 5.32466 23.8528
6532842 3.36719 4.32489 7.69573 8.39759 1.7443 5.29815 23.7854
6532850 3.34129 4.26872 7.69573 8.44414 1.76405 5.38731 23.7499
6532863 3.34129 4.26872 7.69573 8.44414 1.76405 5.38731 23.7499
6532870 3.38446 4.34361 7.65368 8.44414 1.83583 5.26932 23.8259
6532882 3.38446 4.34361 7.65368 8.44414 1.83583 5.26932 23.8259
6532890 3.35856 4.28745 7.64317 8.41621 1.79488 5.32371 23.7054
6532903 3.39309 4.33425 7.64317 8.43483 1.81978 5.26184 23.8053
6532910 3.39309 4.33425 7.64317 8.43483 1.81978 5.26184 23.8053
6532920 3.30675 4.28745 7.61163 8.4069 1.88031 5.35156 23.6127
6532931 3.28085 4.30617 7.56957 8.38828 1.95799 5.3329 23.5449
6532942 3.28085 4.30617 7.56957 8.38828 1.95799 5.3329 23.5449
6532951 3.29812 4.32489 7.58009 8.47207 2.02612 5.3405 23.6752
6532962 3.32402 4.28745 7.72727 8.41621 1.73897 5.38752 23.7549
6532971 3.32402 4.28745 7.72727 8.41621 1.73897 5.38752 23.7549
6532981 3.39309 4.31553 7.76933 8.47207 1.69643 5.34412 23.95
6532991 3.39309 4.31553 7.76933 8.47207 1.69643 5.34412 23.95
6533002 3.36719 4.27808 7.7483 8.41621 1.65773 5.36706 23.8098
6533012 3.34992 4.29681 7.70625 8.38828 1.71528 5.33742 23.7413
6533032 3.39309 4.28745 7.68522 8.30449 1.59866 5.26558 23.6702
6533042 3.34129 4.26872 7.65368 8.23001 1.60018 5.28249 23.4937
6533052 3.34129 4.26872 7.65368 8.23001 1.60018 5.28249 23.4937
6533062 3.39309 4.22192 7.73779 8.25794 1.42835 5.3243 23.6107
6533082 3.36719 4.32489 7.72727 8.25794 1.57151 5.25385 23.6773
6533092 3.43626 4.25 7.80087 8.23001 1.31011 5.27758 23.7171
6533102 3.43626 4.25 7.80087 8.23001 1.31011 5.27758 23.7171
6533112 3.41036 4.33425 7.7483 8.2207 1.47204 5.20232 23.7136
6533122 3.48807 4.36233 7.73779 8.28587 1.48943 5.13523 23.8741
6533144 3.45353 4.30617 7.82189 8.19277 1.28659 5.20832 23.7744
6533153 3.45353 4.30617 7.82189 8.19277 1.28659 5.20832 23.7744
6533164 3.43626 4.31553 7.83241 8.19277 1.3034 5.21937 23.777
6533173 3.4449 4.28745 7.83241 8.13691 1.20989 5.21291 23.7017
6533183 3.4449 4.28745 7.83241 8.13691 1.20989 5.21291 23.7017
6533193 3.4708 4.35297 7.81138 8.17415 1.30721 5.14196 23.8093
6533204 3.47943 4.34361 7.80087 8.16484 1.29069 5.13436 23.7887
6533214 3.47943 4.34361 7.80087 8.16484 1.29069 5.13436 23.7887
6533224 3.50533 4.40914 7.79035 8.13691 1.31111 5.04124 23.8417
6533235 3.50533 4.40914 7.79035 8.13691 1.31111 5.04124 23.8417
6533244 3.50533 4.34361 7.77984 8.1276 1.24813 5.08821 23.7564
6533254 3.4708 4.38106 7.71676 8.1276 1.39379 5.05936 23.6962
6533264 3.4708 4.38106 7.71676 8.1276 1.39379 5.05936 23.6962
6533274 3.51397 4.43722 7.7483 8.11829 1.35744 4.98497 23.8178
6533284 3.4967 4.43722 7.69573 8.10898 1.42571 4.97341 23.7386
6533294 3.4967 4.32489 7.69573 8.10898 1.31362 5.06837 23.6263
6533306 3.47943 4.39978 7.7483 8.14622 1.38627 5.05725 23.7737
6533313 3.47943 4.39978 7.7483 8.14622 1.38627 5.05725 23.7737
6533323 3.48807 4.4185 7.64317 8.15553 1.52161 4.99391 23.7053
6533333 3.48807 4.40914 7.75881 8.2207 1.44803 5.07752 23.8767
6533345 3.48807 4.40914 7.75881 8.2207 1.44803 5.07752 23.8767
6533355 3.46216 4.43722 7.67471 8.17415 1.55223 5.02109 23.7482
6533365 3.46216 4.43722 7.67471 8.17415 1.55223 5.02109 23.7482
6533375 3.50533 4.39978 7.65368 8.09967 1.41645 4.97596 23.6585
6533384 3.5485 4.4185 7.67471 8.1276 1.39139 4.94459 23.7693
6533400 3.5485 4.4185 7.67471 8.1276 1.39139 4.94459 23.7693
6533408 3.4967 4.43722 7.60111 8.14622 1.56837 4.94911 23.6813
6533417 3.56577 4.40914 7.62214 8.0345 1.32845 4.87594 23.6316
6533425 3.56577 4.40914 7.62214 8.0345 1.32845 4.87594 23.6316
6533437 3.56577 4.42786 7.5906 8.04381 1.39168 4.85066 23.628
6533445 3.56577 4.42786 7.5906 8.04381 1.39168 4.85066 23.628
6533456 3.51397 4.43722 7.62214 8.09036 1.47006 4.91976 23.6637
6533465 3.5744 4.46531 7.60111 8.09036 1.45395 4.83652 23.7312
6533475 3.5744 4.46531 7.60111 8.09036 1.45395 4.83652 23.7312
6533485 3.5744 4.45595 7.61163 8.04381 1.38662 4.8289 23.6858
6533496 3.5744 4.47467 7.64317 8.11829 1.4441 4.8586 23.8105
6533505 3.5744 4.47467 7.64317 8.11829 1.4441 4.8586 23.8105
6533516 3.61757 4.52148 7.62214 8.09967 1.44739 4.76686 23.8609
6533526 3.61757 4.52148 7.62214 8.09967 1.44739 4.76686 23.8609
6533536 3.58304 4.47467 7.46444 8.1276 1.64356 4.7787 23.6497
6533545 3.66938 4.50275 7.54855 8.0345 1.38847 4.67956 23.7552
6533555 3.66938 4.50275 7.54855 8.0345 1.38847 4.67956 23.7552
6533565 3.59167 4.49339 7.44341 8.10898 1.65763 4.73866 23.6375
6533576 3.60894 4.52148 7.49598 8.06243 1.56085 4.70348 23.6888
6533585 3.60894 4.52148 7.49598 8.06243 1.56085 4.70348 23.6888
6533595 3.58304 4.59637 7.50649 8.10898 1.69765 4.68761 23.7949
6533605 3.58304 4.59637 7.50649 8.10898 1.69765 4.68761 23.7949
6533617 3.5485 4.5402 7.47495 8.04381 1.65261 4.72101 23.6075
6533625 3.63484 4.55892 7.54855 8.08105 1.52853 4.68186 23.8234
6533646 3.61757 4.5402 7.53803 8.06243 1.52265 4.69902 23.7582
6533659 3.61757 4.52148 7.52752 8.07174 1.5251 4.71404 23.7383
6533666 3.61757 4.52148 7.52752 8.07174 1.5251 4.71404 23.7383
6533676 3.64347 4.50275 7.55906 7.97864 1.34993 4.68132 23.6839
6533686 3.64347 4.50275 7.55906 7.97864 1.34993 4.68132 23.6839
6533697 3.61757 4.50275 7.55906 7.97864 1.37877 4.70287 23.658
6533706 3.69528 4.53084 7.64317 7.98795 1.23689 4.65582 23.8572
6533718 3.69528 4.53084 7.64317 7.98795 1.23689 4.65582 23.8572
6533726 3.69528 4.51211 7.50649 7.95071 1.33222 4.59535 23.6646
6533738 3.61757 4.49339 7.55906 7.96933 1.36012 4.70662 23.6394
6533746 3.61757 4.49339 7.55906 7.96933 1.36012 4.70662 23.6394
6533759 3.66938 4.55892 7.56957 7.97864 1.36544 4.61795 23.7765
6533776 3.56577 4.46531 7.62214 7.97864 1.32876 4.80477 23.6319
6533786 3.6003 4.53084 7.61163 7.99726 1.38602 4.72477 23.74
6533800 3.6003 4.53084 7.61163 7.99726 1.38602 4.72477 23.74
6533807 3.63484 4.52148 7.5906 8.01588 1.38022 4.70283 23.7628
6533817 3.58304 4.48403 7.70625 8.01588 1.27225 4.82681 23.7892
6533837 3.65211 4.47467 7.61163 8.04381 1.319 4.7485 23.7822
6533849 3.65211 4.47467 7.61163 8.04381 1.319 4.7485 23.7822
6533857 3.5744 4.48403 7.61163 8.02519 1.39605 4.79741 23.6953
6533867 3.59167 4.43722 7.63265 8.09036 1.37174 4.85905 23.7519
6533877 3.59167 4.43722 7.63265 8.09036 1.37174 4.85905 23.7519
6533887 3.55714 4.4185 7.65368 8.02519 1.303 4.88484 23.6545
6533897 3.5485 4.45595 7.66419 8.02519 1.33837 4.86515 23.6938
6533907 3.5485 4.45595 7.66419 8.02519 1.33837 4.86515 23.6938
6533917 3.55714 4.42786 7.70625 8.0345 1.26338 4.90337 23.7257
6533927 3.55714 4.42786 7.70625 8.0345 1.26338 4.90337 23.7257
6533937 3.53123 4.46531 7.73779 8.09036 1.35013 4.93077 23.8247
6533950 3.50533 4.4185 7.70625 8.20208 1.47805 5.02545 23.8322
6533967 3.50533 4.45595 7.60111 8.1276 1.55878 4.91817 23.69
6533981 3.4708 4.44659 7.67471 8.11829 1.49657 4.98238 23.7104
6533999 3.47943 4.45595 7.67471 8.1276 1.50542 4.97117 23.7377
6534009 3.47943 4.45595 7.67471 8.1276 1.50542 4.97117 23.7377
6534019 3.45353 4.42786 7.5906 8.18346 1.65627 5.00477 23.6555
6534028 3.4967 4.4185 7.64317 8.2207 1.57632 5.01408 23.7791
6534057 3.4967 4.4185 7.64317 8.2207 1.57632 5.01408 23.7791
6534061 3.50533 4.47467 7.55906 8.27656 1.77073 4.94777 23.8156
6534070 3.45353 4.46531 7.54855 8.19277 1.74978 4.95927 23.6602
6534081 3.4449 4.46531 7.54855 8.23001 1.79608 4.98233 23.6888
6534090 3.4449 4.46531 7.54855 8.23001 1.79608 4.98233 23.6888
6534101 3.45353 4.45595 7.52752 8.23001 1.80093 4.97405 23.667
6534110 3.48807 4.39042 7.56957 8.2207 1.64086 5.01407 23.6688
6534121 3.48807 4.39042 7.56957 8.2207 1.64086 5.01407 23.6688
6534130 3.50533 4.44659 7.48547 8.23932 1.78985 4.92438 23.6767
6534141 3.41036 4.46531 7.51701 8.26725 1.90744 5.01391 23.6599
6534150 3.41036 4.46531 7.51701 8.26725 1.90744 5.01391 23.6599
6534161 3.45353 4.45595 7.53803 8.24863 1.80727 4.98637 23.6961
6534172 3.45353 4.45595 7.53803 8.24863 1.80727 4.98637 23.6961
6534182 3.53123 4.45595 7.49598 8.26725 1.78522 4.91111 23.7504
6534191 3.4967 4.52148 7.45393 8.21139 1.88131 4.84334 23.6835
6534204 3.4967 4.52148 7.45393 8.21139 1.88131 4.84334 23.6835
6534211 3.50533 4.5402 7.4329 8.23001 1.93177 4.81941 23.7084
6534221 3.4967 4.48403 7.46444 8.19277 1.81452 4.87129 23.6379
6534231 3.4967 4.48403 7.46444 8.19277 1.81452 4.87129 23.6379
6534241 3.53987 4.56828 7.42239 8.2207 1.92277 4.75866 23.7512
6534261 3.53123 4.47467 7.44341 8.17415 1.77173 4.83312 23.6235
6534271 3.53123 4.56828 7.4329 8.16484 1.86624 4.74626 23.6973
6534281 3.53123 4.56828 7.4329 8.16484 1.86624 4.74626 23.6973
6534291 3.5485 4.54956 7.36982 8.21139 1.9454 4.74032 23.6793
6534311 3.5485 4.55892 7.29623 8.18346 2.01132 4.68832 23.5871
6534321 3.55714 4.57764 7.39085 8.27656 2.00215 4.74702 23.8022
6534331 3.55714 4.57764 7.39085 8.27656 2.00215 4.74702 23.8022
6534341 3.5485 4.587 7.35931 8.25794 2.03885 4.72476 23.7528
6534351 3.55714 4.61509 7.33828 8.32311 2.14275 4.71341 23.8336
6534362 3.55714 4.61509 7.33828 8.32311 2.14275 4.71341 23.8336
6534373 3.53123 4.59637 7.26469 8.25794 2.17586 4.69025 23.6502
6534381 3.55714 4.56828 7.28571 8.26725 2.10391 4.70527 23.6784
6534394 3.55714 4.56828 7.28571 8.26725 2.10391 4.70527 23.6784
6534402 3.56577 4.62445 7.21212 8.2207 2.18776 4.59886 23.623
6534413 3.56577 4.62445 7.21212 8.2207 2.18776 4.59886 23.623
6534423 3.58304 4.60573 7.17007 8.2207 2.19822 4.58152 23.5795
6534433 3.59167 4.64317 7.18058 8.20208 2.19435 4.53974 23.6175
6534442 3.59167 4.64317 7.18058 8.20208 2.19435 4.53974 23.6175
6534453 3.56577 4.66189 7.15955 8.26725 2.32918 4.56519 23.6545
6534462 3.56577 4.66189 7.15955 8.26725 2.32918 4.56519 23.6545
6534473 3.55714 4.61509 7.13853 8.27656 2.3275 4.60599 23.5873
6534482 3.5744 4.60573 7.18058 8.3138 2.28573 4.63426 23.6745
6534492 3.5744 4.60573 7.18058 8.3138 2.28573 4.63426 23.6745
6534502 3.5485 4.62445 7.23315 8.34173 2.29971 4.67533 23.7478
6534513 3.53123 4.63381 7.14904 8.35104 2.43457 4.64927 23.6651
6534522 3.53123 4.63381 7.14904 8.35104 2.43457 4.64927 23.6651
6534532 3.5744 4.7087 7.20161 8.38828 2.43054 4.59104 23.873
6534542 3.5744 4.7087 7.20161 8.38828 2.43054 4.59104 23.873
6534552 3.50533 4.56828 7.21212 8.42552 2.40007 4.78509 23.7113
6534562 3.56577 4.57764 7.19109 8.37897 2.31909 4.69774 23.7135
6534575 3.56577 4.57764 7.19109 8.37897 2.31909 4.69774 23.7135
6534582 3.58304 4.59637 7.13853 8.29518 2.29743 4.60823 23.6131
6534593 3.55714 4.57764 7.09648 8.32311 2.38506 4.63914 23.5544
6534602 3.55714 4.57764 7.09648 8.32311 2.38506 4.63914 23.5544
6534612 3.5485 4.62445 7.13853 8.27656 2.34651 4.60539 23.588
6534622 3.5485 4.62445 7.13853 8.27656 2.34651 4.60539 23.588
6534632 3.56577 4.61509 7.12802 8.23001 2.28485 4.5736 23.5389
6534642 3.56577 4.63381 7.20161 8.23001 2.21788 4.59057 23.6312
6534652 3.56577 4.63381 7.20161 8.23001 2.21788 4.59057 23.6312
6534662 3.59167 4.61509 7.22263 8.2207 2.13687 4.58978 23.6501
6534673 3.6003 4.66189 7.24366 8.23932 2.16596 4.56142 23.7452
6534682 3.6003 4.66189 7.24366 8.23932 2.16596 4.56142 23.7452
6534701 3.59167 4.66189 7.23315 8.26725 2.21471 4.57618 23.754
6534703 3.59167 4.66189 7.23315 8.26725 2.21471 4.57618 23.754
6534713 3.64347 4.68062 7.23315 8.2207 2.12876 4.49771 23.7779
6534724 3.61757 4.61509 7.26469 8.1276 1.96871 4.5458 23.625
6534733 3.61757 4.61509 7.26469 8.1276 1.96871 4.5458 23.625
6534744 3.65211 4.67126 7.22263 8.15553 2.05899 4.46478 23.7015
6534754 3.62621 4.64317 7.2752 8.18346 2.02843 4.5448 23.728
6534764 3.62621 4.64317 7.2752 8.18346 2.02843 4.5448 23.728
6534774 3.67801 4.64317 7.25417 8.17415 1.9844 4.48882 23.7495
6534783 3.67801 4.64317 7.25417 8.17415 1.9844 4.48882 23.7495
6534797 3.59167 4.60573 7.22263 8.09036 2.00101 4.53986 23.5104
6534804 3.64347 4.61509 7.24366 8.13691 1.97222 4.51921 23.6391
6534816 3.64347 4.61509 7.24366 8.13691 1.97222 4.51921 23.6391
6534823 3.63484 4.64317 7.24366 8.14622 2.01844 4.50729 23.6679
6534833 3.62621 4.64317 7.22263 8.13691 2.0433 4.50095 23.6289
6534853 3.63484 4.587 7.28571 8.23001 1.99732 4.60908 23.7376
6534863 3.63484 4.587 7.28571 8.23001 1.99732 4.60908 23.7376
6534873 3.5744 4.64317 7.26469 8.20208 2.1176 4.59113 23.6843
6534886 3.64347 4.61509 7.24366 8.16484 1.9994 4.53158 23.6671
6534893 3.64347 4.61509 7.24366 8.16484 1.9994 4.53158 23.6671
6534903 3.66074 4.66189 7.28571 8.17415 1.98632 4.50156 23.7825
6534913 3.66074 4.66189 7.28571 8.17415 1.98632 4.50156 23.7825
6534923 3.5485 4.60573 7.29623 8.08105 1.95701 4.60429 23.5315
6534935 3.5744 4.55892 7.39085 8.10898 1.80113 4.67553 23.6332
6534955 3.5744 4.48403 7.42239 8.07174 1.65479 4.7356 23.5526
6534965 3.61757 4.51211 7.54855 8.10898 1.52916 4.74699 23.7872
6534976 3.61757 4.51211 7.54855 8.10898 1.52916 4.74699 23.7872
6534986 3.65211 4.49339 7.51701 8.15553 1.55324 4.74034 23.818
6534996 3.5485 4.48403 7.56957 8.21139 1.65594 4.8807 23.8135
6535006 3.5485 4.48403 7.56957 8.21139 1.65594 4.8807 23.8135
6535016 3.55714 4.50275 7.56957 8.19277 1.64638 4.84996 23.8222
6535026 3.55714 4.50275 7.56957 8.19277 1.64638 4.84996 23.8222
6535039 3.53123 4.53084 7.55906 8.27656 1.79631 4.87927 23.8977
6535046 3.5485 4.47467 7.48547 8.35104 1.87737 4.91205 23.8597
6535056 3.5485 4.47467 7.48547 8.35104 1.87737 4.91205 23.8597
6535066 3.47943 4.49339 7.47495 8.37897 2.01242 4.9615 23.8267
6535076 3.4967 4.47467 7.42239 8.36035 2.01643 4.93264 23.7541
6535096 3.47943 4.43722 7.38033 8.36966 2.05682 4.9648 23.6666
6535116 3.35856 4.44659 7.28571 8.35104 2.29648 5.01129 23.4419
6535126 3.41036 4.42786 7.40136 8.45345 2.18376 5.07528 23.693
6535140 3.41036 4.42786 7.40136 8.45345 2.18376 5.07528 23.693
6535147 3.43626 4.42786 7.40136 8.44414 2.1451 5.04945 23.7096
6535160 3.35856 4.3717 7.40136 8.47207 2.20712 5.17494 23.6037
6535180 3.41036 4.42786 7.51701 8.51862 2.11436 5.15045 23.8739
6535197 3.34129 4.4185 7.49598 8.58379 2.27041 5.23498 23.8396
6535207 3.41899 4.39042 7.54855 8.54655 2.05968 5.19924 23.9045
6535217 3.41899 4.39042 7.54855 8.54655 2.05968 5.19924 23.9045
6535227 3.43626 4.40914 7.46444 8.57448 2.18022 5.14575 23.8843
6535237 3.39309 4.39978 7.38033 8.45345 2.2007 5.10498 23.6267
6535247 3.39309 4.39978 7.38033 8.45345 2.2007 5.10498 23.6267
6535257 3.42763 4.4185 7.40136 8.37897 2.08292 5.03728 23.6265
6535268 3.42763 4.4185 7.40136 8.37897 2.08292 5.03728 23.6265
6535277 3.34129 4.47467 7.40136 8.42552 2.28139 5.08246 23.6428
6535287 3.41036 4.45595 7.40136 8.46276 2.21971 5.05542 23.7304
6535297 3.41036 4.45595 7.40136 8.46276 2.21971 5.05542 23.7304
6535308 3.46216 4.48403 7.40136 8.36966 2.09781 4.94883 23.7172
6535317 3.42763 4.48403 7.42239 8.4069 2.14915 5.00251 23.7409
6535327 3.42763 4.43722 7.42239 8.4069 2.10401 5.04203 23.6941
6535337 3.45353 4.45595 7.46444 8.39759 2.0356 5.01812 23.7715
6535349 3.45353 4.45595 7.46444 8.39759 2.0356 5.01812 23.7715
6535362 3.48807 4.54956 7.31725 8.38828 2.24541 4.84429 23.7432
6535369 3.53987 4.46531 7.33828 8.36035 2.05401 4.86849 23.7038
6535380 3.53987 4.46531 7.33828 8.36035 2.05401 4.86849 23.7038
6535390 3.50533 4.5402 7.34879 8.34173 2.13578 4.83125 23.7361
6535401 3.50533 4.57764 7.25417 8.32311 2.26249 4.7512 23.6603
6535420 3.48807 4.587 7.35931 8.30449 2.15271 4.79513 23.7389
6535430 3.48807 4.587 7.35931 8.30449 2.15271 4.79513 23.7389
6535440 3.48807 4.56828 7.30674 8.36966 2.25757 4.81616 23.7327
6535450 3.47943 4.54956 7.31725 8.36035 2.22852 4.83955 23.7066
6535460 3.47943 4.54956 7.31725 8.36035 2.22852 4.83955 23.7066
6535470 3.53123 4.53084 7.29623 8.35104 2.16625 4.79887 23.7093
6535480 3.4967 4.53084 7.26469 8.3138 2.20627 4.79811 23.606
6535490 3.4967 4.53084 7.26469 8.3138 2.20627 4.79811 23.606
6535500 3.50533 4.61509 7.29623 8.37897 2.30347 4.76229 23.7956
6535510 3.50533 4.61509 7.29623 8.37897 2.30347 4.76229 23.7956
6535523 3.47943 4.53084 7.26469 8.38828 2.29787 4.84467 23.6632
6535530 3.4967 4.56828 7.29623 8.36035 2.25081 4.80044 23.7216
6535540 3.4967 4.56828 7.29623 8.36035 2.25081 4.80044 23.7216
6535550 3.48807 4.56828 7.26469 8.41621 2.35046 4.8181 23.7372
6535560 3.4449 4.63381 7.31725 8.35104 2.33998 4.79403 23.747
6535570 3.4449 4.63381 7.31725 8.35104 2.33998 4.79403 23.747
6535580 3.51397 4.62445 7.23315 8.34173 2.33947 4.70398 23.7133
6535590 3.51397 4.62445 7.23315 8.34173 2.33947 4.70398 23.7133
6535600 3.47943 4.61509 7.22263 8.3138 2.35583 4.72383 23.631
6535610 3.46216 4.59637 7.22263 8.29518 2.34 4.74583 23.5763
6535620 3.46216 4.59637 7.22263 8.29518 2.34 4.74583 23.5763
6535630 3.53123 4.65253 7.15955 8.30449 2.39582 4.61794 23.6478
6535644 3.51397 4.63381 7.19109 8.39759 2.45017 4.7022 23.7365
6535652 3.51397 4.63381 7.19109 8.39759 2.45017 4.7022 23.7365
6535663 3.50533 4.66189 7.14904 8.39759 2.53555 4.66778 23.7139
6535681 3.51397 4.68062 7.12802 8.39759 2.56767 4.63594 23.7202
6535691 3.53123 4.68062 7.05442 8.35104 2.5892 4.56886 23.6173
6535701 3.53123 4.68062 7.05442 8.35104 2.5892 4.56886 23.6173
6535712 3.59167 4.69934 7.0334 8.39759 2.60503 4.51478 23.722
6535725 3.53987 4.7087 7.02288 8.3138 2.6073 4.50798 23.5853
6535734 3.53987 4.7087 7.02288 8.3138 2.6073 4.50798 23.5853
6535742 3.58304 4.80231 7.00186 8.30449 2.66118 4.38191 23.6917
6535752 3.58304 4.80231 7.00186 8.30449 2.66118 4.38191 23.6917
6535764 3.5485 4.73678 7.04391 8.24863 2.53735 4.45795 23.5778
6535774 3.65211 4.75551 7.04391 8.23001 2.41697 4.34915 23.6815
6535794 3.65211 4.79295 7.00186 8.18346 2.45706 4.27855 23.6304
6535804 3.70391 4.74615 7.00186 8.16484 2.33438 4.26602 23.6168
6535815 3.70391 4.74615 7.00186 8.16484 2.33438 4.26602 23.6168
6535825 3.75571 4.79295 6.92826 8.10898 2.35094 4.12656 23.5859
6535836 3.71254 4.79295 6.94929 8.04381 2.31389 4.14127 23.4986
6535845 3.71254 4.79295 6.94929 8.04381 2.31389 4.14127 23.4986
6535855 3.77298 4.84912 6.92826 8.09036 2.36693 4.05858 23.6407
6535865 3.77298 4.84912 6.92826 8.09036 2.36693 4.05858 23.6407
6535875 3.84205 4.81167 6.92826 7.99726 2.16146 3.98982 23.5793
6535885 3.87659 4.86784 6.9598 7.96933 2.11289 3.91874 23.6736
6535895 3.87659 4.86784 6.9598 7.96933 2.11289 3.91874 23.6736
6535906 3.91976 4.85848 6.94929 7.98795 2.08449 3.89556 23.7155
6535916 3.97156 4.8304 6.89672 7.90416 1.97675 3.81242 23.6028
6535926 3.97156 4.8304 6.89672 7.90416 1.97675 3.81242 23.6028
6535936 4.04063 4.8772 6.8757 7.87623 1.94035 3.69718 23.6698
6535948 4.04063 4.8772 6.8757 7.87623 1.94035 3.69718 23.6698
6535956 3.99746 4.86784 6.81262 7.90416 2.07989 3.72199 23.5821
6535969 4.032 4.8772 6.9598 7.87623 1.85473 3.74402 23.7452
6535977 4.032 4.8772 6.9598 7.87623 1.85473 3.74402 23.7452
6535986 4.10107 4.82104 6.88621 7.85761 1.78672 3.68994 23.6659
6535997 4.04926 4.77423 6.86518 7.87623 1.84174 3.76699 23.5649
6536007 4.04926 4.77423 6.86518 7.87623 1.84174 3.76699 23.5649
6536017 4.07517 4.68998 6.93878 7.95071 1.71927 3.8836 23.6546
6536030 4.07517 4.68998 6.93878 7.95071 1.71927 3.8836 23.6546
6536037 3.98883 4.71806 6.99134 7.97864 1.81246 3.96786 23.6769
6536050 3.97156 4.69934 7.06494 8.02519 1.77606 4.05237 23.761
6536057 3.97156 4.69934 7.06494 8.02519 1.77606 4.05237 23.761
6536071 3.87659 4.64317 7.07545 8.11829 1.90759 4.22163 23.7135
6536079 3.85069 4.64317 7.05442 8.16484 2.00618 4.25423 23.7131
6536091 3.85069 4.64317 7.05442 8.16484 2.00618 4.25423 23.7131
6536099 3.85069 4.55892 7.09648 8.14622 1.85815 4.33346 23.6523
6536111 3.85069 4.55892 7.09648 8.14622 1.85815 4.33346 23.6523
6536117 3.77298 4.47467 7.05442 8.21139 1.97616 4.47711 23.5135
6536127 3.81615 4.50275 7.19109 8.23001 1.8171 4.48749 23.74
6536155 3.77298 4.45595 7.15955 8.20208 1.82858 4.53531 23.5906
6536157 3.73845 4.40914 7.15955 8.27656 1.89506 4.63574 23.5837
6536169 3.73845 4.40914 7.15955 8.27656 1.89506 4.63574 23.5837
6536178 3.72981 4.45595 7.21212 8.32311 1.93618 4.64745 23.721
6536188 3.72981 4.45595 7.21212 8.32311 1.93618 4.64745 23.721
6536198 3.72981 4.48403 7.20161 8.29518 1.94827 4.60739 23.7106
6536209 3.72118 4.44659 7.21212 8.33242 1.94594 4.66642 23.7123
6536229 3.69528 4.43722 7.14904 8.32311 2.02928 4.66411 23.6047
6536239 3.67801 4.45595 7.19109 8.32311 2.01914 4.68128 23.6482
6536253 3.67801 4.45595 7.19109 8.32311 2.01914 4.68128 23.6482
6536259 3.68664 4.42786 7.21212 8.35104 1.98514 4.71878 23.6777
6536268 3.68664 4.42786 7.21212 8.35104 1.98514 4.71878 23.6777
6536279 3.66074 4.3717 7.21212 8.41621 2.02344 4.8155 23.6608
6536288 3.6003 4.3717 7.21212 8.4069 2.0836 4.86224 23.591
6536300 3.6003 4.3717 7.21212 8.4069 2.0836 4.86224 23.591
6536310 3.65211 4.40914 7.24366 8.42552 2.04262 4.80897 23.7304
6536320 3.56577 4.42786 7.22263 8.4069 2.16563 4.84857 23.6232
6536333 3.56577 4.42786 7.22263 8.4069 2.16563 4.84857 23.6232
6536340 3.60894 4.36233 7.24366 8.38828 2.01034 4.86841 23.6032
6536353 3.60894 4.36233 7.24366 8.38828 2.01034 4.86841 23.6032
6536361 3.63484 4.38106 7.21212 8.48138 2.12519 4.85732 23.7094
6536373 3.56577 4.44659 7.19109 8.47207 2.28273 4.84729 23.6755
6536380 3.56577 4.44659 7.19109 8.47207 2.28273 4.84729 23.6755
6536393 3.56577 4.45595 7.22263 8.41621 2.20171 4.829 23.6606
6536400 3.55714 4.39978 7.21212 8.47207 2.22345 4.90287 23.6411
6536410 3.55714 4.39978 7.21212 8.47207 2.22345 4.90287 23.6411
6536420 3.60894 4.44659 7.20161 8.46276 2.21207 4.81168 23.7199
6536430 3.60894 4.44659 7.20161 8.46276 2.21207 4.81168 23.7199
6536440 3.5744 4.45595 7.19109 8.45345 2.26389 4.82422 23.6749
6536450 3.56577 4.42786 7.21212 8.51862 2.2852 4.89187 23.7244
6536460 3.56577 4.42786 7.21212 8.51862 2.2852 4.89187 23.7244
6536470 3.55714 4.48403 7.26469 8.44414 2.21721 4.84274 23.75
6536480 3.5226 4.45595 7.21212 8.45345 2.29938 4.8767 23.6441
6536490 3.5226 4.45595 7.21212 8.45345 2.29938 4.8767 23.6441
6536501 3.6003 4.44659 7.22263 8.51862 2.2514 4.8518 23.7881
6536510 3.6003 4.44659 7.22263 8.51862 2.2514 4.8518 23.7881
6536520 3.55714 4.50275 7.23315 8.38828 2.21773 4.78956 23.6813
6536530 3.5744 4.47467 7.21212 8.48138 2.28443 4.82957 23.7426
6536540 3.5744 4.47467 7.21212 8.48138 2.28443 4.82957 23.7426
6536550 3.60894 4.47467 7.14904 8.42552 2.26371 4.74949 23.6582
6536560 3.60894 4.47467 7.14904 8.42552 2.26371 4.74949 23.6582
6536571 3.5485 4.48403 7.09648 8.42552 2.40355 4.76944 23.5545
6536581 3.58304 4.48403 7.22263 8.45345 2.24466 4.80708 23.7432
6536591 3.58304 4.48403 7.22263 8.45345 2.24466 4.80708 23.7432
6536601 3.55714 4.42786 7.19109 8.34173 2.14876 4.81411 23.5178
6536620 3.5744 4.5402 7.18058 8.39759 2.30324 4.72522 23.6928
6536621 3.5744 4.5402 7.18058 8.39759 2.30324 4.72522 23.6928
6536632 3.56577 4.44659 7.20161 8.44414 2.24378 4.83982 23.6581
6536642 3.5744 4.39042 7.26469 8.46276 2.12526 4.91466 23.6923
6536652 3.5744 4.39042 7.26469 8.46276 2.12526 4.91466 23.6923
6536662 3.56577 4.40914 7.30674 8.50931 2.14991 4.94377 23.791
6536673 3.56577 4.40914 7.30674 8.50931 2.14991 4.94377 23.791
6536682 3.4967 4.38106 7.30674 8.46276 2.1571 5.00592 23.6473
6536692 3.53987 4.35297 7.29623 8.41621 2.04731 4.96897 23.6053
6536702 3.53987 4.35297 7.29623 8.41621 2.04731 4.96897 23.6053
6536712 3.51397 4.38106 7.28571 8.41621 2.11636 4.96265 23.5969
6536722 3.47943 4.32489 7.31725 8.47207 2.11951 5.07658 23.5936
6536732 3.47943 4.32489 7.31725 8.47207 2.11951 5.07658 23.5936
6536743 3.53987 4.43722 7.34879 8.45345 2.10478 4.9361 23.7793
6536762 3.45353 4.39042 7.41187 8.46276 2.09517 5.07873 23.7186
6536772 3.4449 4.3717 7.42239 8.48138 2.09292 5.11407 23.7204
6536783 3.4449 4.3717 7.42239 8.48138 2.09292 5.11407 23.7204
6536792 3.50533 4.44659 7.38033 8.5 2.1619 4.99014 23.8323
6536804 3.48807 4.35297 7.38033 8.45345 2.0465 5.06408 23.6748
6536814 3.48807 4.35297 7.38033 8.45345 2.0465 5.06408 23.6748
6536823 3.53123 4.35297 7.41187 8.48138 1.98849 5.0525 23.7775
6536834 3.53123 4.35297 7.41187 8.48138 1.98849 5.0525 23.7775
6536843 3.4449 4.36233 7.42239 8.46276 2.06586 5.11425 23.6924
6536853 3.4708 4.39042 7.50649 8.48138 1.98593 5.1113 23.8491
6536863 3.4708 4.39042 7.50649 8.48138 1.98593 5.1113 23.8491
6536874 3.4708 4.30617 7.48547 8.45345 1.901 5.16233 23.7159
6536885 3.45353 4.30617 7.48547 8.48138 1.94777 5.18859 23.7265
6536893 3.45353 4.34361 7.48547 8.48138 1.98409 5.15678 23.764
6536904 3.48807 4.30617 7.51701 8.45345 1.84575 5.16074 23.7647
6536923 3.45353 4.33425 7.44341 8.48138 2.02286 5.14728 23.7126
6536934 3.42763 4.29681 7.44341 8.44414 1.97982 5.18579 23.612
6536944 3.42763 4.29681 7.44341 8.44414 1.97982 5.18579 23.612
6536954 3.4967 4.3717 7.44341 8.41621 1.94685 5.05177 23.728
6536965 3.4967 4.3717 7.44341 8.41621 1.94685 5.05177 23.728
6536974 3.38446 4.39978 7.53803 8.41621 1.99412 5.16251 23.7385
6536987 3.46216 4.30617 7.49598 8.42552 1.87163 5.16245 23.6898
6536995 3.46216 4.30617 7.49598 8.42552 1.87163 5.16245 23.6898
6537008 3.42763 4.33425 7.50649 8.38828 1.88996 5.15683 23.6567
6537015 3.50533 4.30617 7.55906 8.43483 1.76074 5.1558 23.8054
6537035 3.4967 4.38106 7.54855 8.37897 1.80084 5.07226 23.8053
6537045 3.5485 4.36233 7.49598 8.34173 1.74704 5.00675 23.7485
6537056 3.5485 4.36233 7.49598 8.34173 1.74704 5.00675 23.7485
6537066 3.47943 4.39042 7.44341 8.33242 1.90309 5.01528 23.6457
6537076 3.47943 4.39042 7.44341 8.33242 1.90309 5.01528 23.6457
6537087 3.4708 4.39978 7.4329 8.3138 1.91585 5.00235 23.6173
6537096 3.47943 4.3717 7.52752 8.36035 1.81673 5.07819 23.739
6537106 3.47943 4.3717 7.52752 8.36035 1.81673 5.07819 23.739
6537116 3.51397 4.40914 7.45393 8.28587 1.82471 4.95503 23.6629
6537126 3.53987 4.34361 7.47495 8.3138 1.73472 5.00921 23.6722
6537136 3.53987 4.34361 7.47495 8.3138 1.73472 5.00921 23.6722
6537146 3.5226 4.3717 7.52752 8.36966 1.77714 5.04564 23.7915
6537156 3.5226 4.3717 7.52752 8.36966 1.77714 5.04564 23.7915
6537166 3.53987 4.30617 7.56957 8.26725 1.5454 5.06112 23.6829
6537176 3.5744 4.44659 7.60111 8.3138 1.65533 4.94691 23.9359
6537187 3.5744 4.44659 7.60111 8.3138 1.65533 4.94691 23.9359
6537196 3.60894 4.40914 7.50649 8.25794 1.63108 4.88575 23.7825
6537206 3.59167 4.43722 7.46444 8.15553 1.62444 4.81487 23.6489
6537217 3.59167 4.43722 7.46444 8.15553 1.62444 4.81487 23.6489
6537226 3.60894 4.4185 7.56957 8.21139 1.52402 4.88495 23.8084
6537241 3.60894 4.4185 7.56957 8.21139 1.52402 4.88495 23.8084
6537250 3.56577 4.4185 7.45393 8.16484 1.65619 4.85181 23.603
6537259 3.60894 4.50275 7.44341 8.15553 1.69326 4.73664 23.7106
6537267 3.60894 4.50275 7.44341 8.15553 1.69326 4.73664 23.7106
6537278 3.62621 4.52148 7.53803 8.17415 1.60456 4.75558 23.8599
6537289 3.65211 4.45595 7.4329 8.20208 1.65629 4.75524 23.743
6537299 3.65211 4.45595 7.4329 8.20208 1.65629 4.75524 23.743
6537307 3.64347 4.60573 7.42239 8.14622 1.76977 4.60962 23.8178
6537327 3.62621 4.53084 7.24366 8.07174 1.84547 4.57453 23.4724
6537338 3.61757 4.5402 7.26469 8.09036 1.85888 4.5915 23.5128
6537347 3.61757 4.5402 7.26469 8.09036 1.85888 4.5915 23.5128
6537360 3.70391 4.65253 7.20161 8.04381 1.89691 4.37824 23.6019
6537367 3.72981 4.63381 7.20161 8.02519 1.83081 4.36396 23.5904
6537377 3.72981 4.63381 7.20161 8.02519 1.83081 4.36396 23.5904
6537387 3.78162 4.69934 7.08596 8.0345 1.97686 4.21977 23.6014
6537409 3.74708 4.68062 7.0334 8.09036 2.11293 4.26474 23.5515
6537420 3.78162 4.63381 7.06494 8.05312 1.95507 4.27219 23.5335
6537429 3.78162 4.63381 7.06494 8.05312 1.95507 4.27219 23.5335
6537440 3.73845 4.68998 7.07545 8.06243 2.05645 4.27058 23.5663
6537449 3.66074 4.66189 7.13853 8.1276 2.10929 4.41534 23.5888
6537461 3.66074 4.66189 7.13853 8.1276 2.10929 4.41534 23.5888
6537469 3.66074 4.65253 7.28571 8.23001 2.03123 4.53384 23.829
6537480 3.66074 4.65253 7.28571 8.23001 2.03123 4.53384 23.829
6537491 3.63484 4.61509 7.31725 8.30449 2.06048 4.63215 23.8717
6537501 3.64347 4.62445 7.36982 8.30449 2.00028 4.64016 23.9422
6537509 3.64347 4.62445 7.36982 8.30449 2.00028 4.64016 23.9422
6537523 3.63484 4.587 7.26469 8.33242 2.12005 4.64458 23.819
6537530 3.60894 4.65253 7.20161 8.18346 2.14138 4.5188 23.6465
6537540 3.60894 4.65253 7.20161 8.18346 2.14138 4.5188 23.6465
6537550 3.66074 4.68062 7.17007 8.13691 2.10027 4.41825 23.6483
6537560 3.66074 4.68062 7.17007 8.13691 2.10027 4.41825 23.6483
6537570 3.64347 4.56828 7.0334 8.06243 2.09572 4.43036 23.3076
6537580 3.55714 4.57764 7.01237 8.05312 2.22116 4.48101 23.2003
6537600 3.64347 4.67126 7.06494 8.10898 2.20514 4.38032 23.4886
6537610 3.6003 4.65253 7.02288 8.24863 2.42087 4.47537 23.5244
6537620 3.6003 4.65253 7.02288 8.24863 2.42087 4.47537 23.5244
6537630 3.64347 4.68998 7.04391 8.33242 2.46208 4.45568 23.7098
6537640 3.64347 4.68998 7.04391 8.33242 2.46208 4.45568 23.7098
6537650 3.66074 4.76487 6.9598 8.3138 2.59304 4.33432 23.6992
6537660 3.64347 4.73678 7.00186 8.35104 2.57287 4.4069 23.7332
6537670 3.64347 4.73678 7.00186 8.35104 2.57287 4.4069 23.7332
6537680 3.66074 4.76487 6.93878 8.37897 2.67898 4.35415 23.7434
6537690 3.66074 4.76487 6.93878 8.37897 2.67898 4.35415 23.7434
6537701 3.6003 4.78359 6.88621 8.42552 2.87247 4.38552 23.6956
6537711 3.63484 4.82104 6.90724 8.39759 2.81615 4.3237 23.7607
6537724 3.63484 4.82104 6.90724 8.39759 2.81615 4.3237 23.7607
6537731 3.67801 4.80231 6.76005 8.35104 2.87742 4.21601 23.5914
6537741 3.65211 4.85848 6.79159 8.23932 2.81854 4.15457 23.5415
6537763 3.75571 4.90529 6.718 8.23932 2.82715 3.99879 23.6183
6537771 3.74708 4.89593 6.70748 8.23001 2.83219 4.00404 23.5805
6537784 3.74708 4.89593 6.70748 8.23001 2.83219 4.00404 23.5805
6537792 3.83342 4.92401 6.718 8.10898 2.63053 3.86032 23.5844
6537812 3.88522 4.9989 6.65492 8.06243 2.67059 3.70733 23.6015
6537825 3.87659 4.98954 6.68646 8.0345 2.60842 3.72333 23.5871
6537832 3.87659 4.98954 6.68646 8.0345 2.60842 3.72333 23.5871
6537842 3.96293 5.05507 6.65492 7.96933 2.54476 3.55693 23.6422
6537852 3.92839 4.95209 6.72851 7.98795 2.4189 3.70979 23.5969
6537862 3.92839 4.95209 6.72851 7.98795 2.4189 3.70979 23.5969
6537872 3.91112 5.0457 6.69697 8.01588 2.59139 3.64772 23.6697
6537882 3.91112 5.0457 6.69697 8.01588 2.59139 3.64772 23.6697
6537899 3.91976 4.98018 6.81262 8.02519 2.39386 3.75217 23.7377
6537904 3.95429 4.92401 6.83364 7.96933 2.22265 3.75276 23.6813
6537924 3.85932 4.92401 6.70748 7.9414 2.4524 3.7548 23.4322
6537933 3.92839 4.91465 6.82313 7.9414 2.22866 3.76245 23.6076
6537943 3.92839 4.91465 6.82313 7.9414 2.22866 3.76245 23.6076
6537954 3.91976 4.84912 6.91775 7.96933 2.0935 3.87949 23.656
6537963 3.91976 4.84912 6.91775 7.96933 2.0935 3.87949 23.656
6537975 3.85932 4.8772 6.86518 7.96002 2.24169 3.87621 23.5617
6537983 3.87659 4.80231 6.99134 7.96002 2.00422 3.98163 23.6303
6537996 3.87659 4.80231 6.99134 7.96002 2.00422 3.98163 23.6303
6538007 3.91112 4.84912 7.02288 7.9414 1.95633 3.92255 23.7245
6538017 3.85932 4.8304 7.06494 7.97864 1.98538 4.01579 23.7333
6538025 3.85932 4.8304 7.06494 7.97864 1.98538 4.01579 23.7333
6538035 3.83342 4.88656 7.08596 8.00657 2.07218 4.0142 23.8125
6538046 3.83342 4.88656 7.10699 7.97864 2.02137 4.01102 23.8056
6538056 3.83342 4.76487 7.10699 7.97864 1.9033 4.1087 23.6839
6538066 3.77298 4.74615 7.0334 7.96933 2.02907 4.13462 23.5219
6538076 3.77298 4.74615 7.0334 7.96933 2.02907 4.13462 23.5219
6538086 3.77298 4.71806 7.07545 7.92278 1.90769 4.15542 23.4893
6538096 3.79025 4.71806 7.1175 8.01588 1.93112 4.20343 23.6417
6538110 3.79025 4.71806 7.1175 8.01588 1.93112 4.20343 23.6417
6538116 3.80752 4.73678 7.15955 7.95071 1.81828 4.16366 23.6546
6538138 3.76435 4.69934 7.14904 7.97864 1.86996 4.23714 23.5914
6538146 3.79888 4.78359 7.20161 8.00657 1.88065 4.1775 23.7907
6538159 3.79888 4.78359 7.20161 8.00657 1.88065 4.1775 23.7907
6538166 3.74708 4.75551 7.21212 7.95071 1.84554 4.22151 23.6654
6538178 3.82478 4.71806 7.13853 7.96933 1.82244 4.16373 23.6507
6538187 3.82478 4.71806 7.13853 7.96933 1.82244 4.16373 23.6507
6538200 3.85932 4.81167 7.08596 7.93209 1.89801 4.01898 23.689
6538207 3.85932 4.81167 7.08596 7.93209 1.89801 4.01898 23.689
6538222 3.77298 4.74615 7.09648 7.95071 1.93857 4.15512 23.5663
6538227 3.78162 4.76487 7.15955 7.97864 1.90243 4.17467 23.6847
6538237 3.78162 4.76487 7.15955 7.97864 1.90243 4.17467 23.6847
6538247 3.75571 4.74615 7.14904 7.95071 1.89829 4.19329 23.6016
6538257 3.79025 4.72742 7.15955 7.96933 1.84694 4.19377 23.6466
6538268 3.79025 4.72742 7.15955 7.96933 1.84694 4.19377 23.6466
6538278 3.80752 4.76487 7.19109 7.96933 1.82826 4.16388 23.7328
6538287 3.80752 4.76487 7.19109 7.96933 1.82826 4.16388 23.7328
6538297 3.70391 4.7087 7.19109 7.95071 1.87269 4.28531 23.5544
6538309 3.72981 4.7087 7.22263 8.02519 1.88025 4.31218 23.6863
6538317 3.72981 4.7087 7.22263 8.02519 1.88025 4.31218 23.6863
6538329 3.69528 4.65253 7.21212 8.0345 1.88565 4.38587 23.5944
6538337 3.72981 4.67126 7.29623 8.08105 1.81496 4.40078 23.7783
6538350 3.72981 4.67126 7.29623 8.08105 1.81496 4.40078 23.7783
6538358 3.71254 4.65253 7.33828 8.06243 1.75056 4.44061 23.7658
6538371 3.71254 4.65253 7.33828 8.06243 1.75056 4.44061 23.7658
6538377 3.65211 4.64317 7.38033 8.09967 1.79851 4.5329 23.7753
6538388 3.63484 4.62445 7.41187 8.17415 1.83672 4.60892 23.8453
6538397 3.63484 4.62445 7.41187 8.17415 1.83672 4.60892 23.8453
6538407 3.62621 4.587 7.41187 8.17415 1.81001 4.64688 23.7992
6538417 3.61757 4.60573 7.35931 8.23932 1.96055 4.64404 23.8219
6538439 3.62621 4.587 7.32777 8.18346 1.91416 4.61424 23.7244
6538449 3.62621 4.587 7.32777 8.18346 1.91416 4.61424 23.7244
6538459 3.56577 4.59637 7.26469 8.18346 2.06411 4.62892 23.6103
6538468 3.60894 4.61509 7.21212 8.18346 2.09306 4.55441 23.6196
6538478 3.60894 4.61509 7.21212 8.18346 2.09306 4.55441 23.6196
6538488 3.66074 4.66189 7.1175 8.21139 2.21449 4.44343 23.6515
6538499 3.62621 4.68998 7.19109 8.21139 2.19665 4.48147 23.7187
6538508 3.62621 4.68998 7.19109 8.21139 2.19665 4.48147 23.7187
6538518 3.66938 4.7087 7.19109 8.23001 2.1831 4.43904 23.7992
6538528 3.66938 4.7087 7.19109 8.23001 2.1831 4.43904 23.7992
6538544 3.59167 4.75551 7.1175 8.23001 2.40175 4.43159 23.6947
6538548 3.65211 4.72742 7.10699 8.13691 2.22791 4.35862 23.6234
6538558 3.65211 4.72742 7.10699 8.13691 2.22791 4.35862 23.6234
6538569 3.64347 4.74615 7.09648 8.10898 2.24112 4.333 23.5951
6538579 3.62621 4.69934 7.05442 8.08105 2.2375 4.35399 23.461
6538590 3.62621 4.69934 7.05442 8.08105 2.2375 4.35399 23.461
6538600 3.69528 4.75551 7.15955 7.99726 2.00988 4.26094 23.6076
6538610 3.69528 4.75551 7.15955 7.99726 2.00988 4.26094 23.6076
6538622 3.66938 4.73678 7.28571 7.9414 1.82275 4.32925 23.6333
6538631 3.66938 4.74615 7.18058 7.98795 1.99726 4.29507 23.5841
6538640 3.66938 4.74615 7.18058 7.98795 1.99726 4.29507 23.5841
6538650 3.73845 4.73678 7.30674 7.93209 1.71174 4.27822 23.7141
6538660 3.72118 4.72742 7.31725 7.91347 1.69184 4.29623 23.6793
6538670 3.72118 4.72742 7.31725 7.91347 1.69184 4.29623 23.6793
6538680 3.79025 4.68062 7.36982 7.96002 1.55517 4.32276 23.8007
6538690 3.79025 4.68062 7.36982 7.96002 1.55517 4.32276 23.8007
6538700 3.75571 4.587 7.38033 8.0345 1.56314 4.46518 23.7576
6538710 3.80752 4.56828 7.38033 7.9414 1.39448 4.39662 23.6975
6538720 3.80752 4.56828 7.38033 7.9414 1.39448 4.39662 23.6975
6538730 3.80752 4.62445 7.35931 7.86692 1.39967 4.30777 23.6582
6538741 3.79025 4.59637 7.31725 7.86692 1.43799 4.32584 23.5708
6538751 3.79025 4.59637 7.31725 7.86692 1.43799 4.32584 23.5708
6538761 3.87659 4.68998 7.29623 7.80175 1.39334 4.14 23.6645
6538771 3.87659 4.68998 7.29623 7.80175 1.39334 4.14 23.6645
6538781 3.84205 4.63381 7.30674 7.77382 1.33598 4.20567 23.5564
6538791 3.85932 4.61509 7.35931 7.78313 1.24868 4.23513 23.6168
6538801 3.85932 4.61509 7.35931 7.78313 1.24868 4.23513 23.6168
6538811 3.95429 4.7087 7.31725 7.70865 1.20922 4.02905 23.6889
6538821 3.92839 4.73678 7.2752 7.68072 1.28478 3.99479 23.6211
6538831 3.92839 4.73678 7.2752 7.68072 1.28478 3.99479 23.6211
6538840 4.00609 4.81167 7.28571 7.63417 1.21541 3.85598 23.7377
6538851 4.00609 4.81167 7.28571 7.63417 1.21541 3.85598 23.7377
6538861 4.02336 4.83976 7.20161 7.54107 1.22413 3.73609 23.6058
6538871 4.032 4.82104 7.14904 7.57831 1.29166 3.73679 23.5804
6538881 4.032 4.82104 7.14904 7.57831 1.29166 3.73679 23.5804
6538894 4.032 4.85848 7.21212 7.54107 1.22172 3.71942 23.6437
6538901 4.032 4.85848 7.21212 7.54107 1.22172 3.71942 23.6437
6538911 4.04926 4.8772 7.06494 7.51314 1.35734 3.60671 23.5045
6538921 4.0838 4.88656 7.13853 7.51314 1.24606 3.60763 23.622
6538931 4.0838 4.88656 7.13853 7.51314 1.24606 3.60763 23.622
6538941 4.11833 4.95209 7.09648 7.42004 1.22666 3.46341 23.5869
6538952 4.10107 4.94273 7.06494 7.48521 1.33715 3.5007 23.5939
6538961 4.10107 4.94273 7.06494 7.48521 1.33715 3.5007 23.5939
6538971 4.11833 4.95209 7.1175 7.42004 1.2033 3.47369 23.608
6538991 4.0838 4.92401 7.07545 7.49452 1.33525 3.53861 23.5778
6539003 4.0838 5.02698 7.0334 7.40142 1.3922 3.39174 23.5456
6539012 4.0838 5.02698 7.0334 7.40142 1.3922 3.39174 23.5456
6539024 4.06653 5.01762 7.07545 7.43866 1.39238 3.4515 23.5983
6539032 4.1615 4.93337 7.08596 7.40142 1.1527 3.43002 23.5823
6539042 4.1615 4.93337 7.08596 7.40142 1.1527 3.43002 23.5823
6539052 4.09243 4.98018 7.07545 7.30832 1.19436 3.39641 23.4564
6539066 4.09243 4.98018 7.07545 7.30832 1.19436 3.39641 23.4564
6539072 4.10107 4.95209 7.10699 7.39211 1.20599 3.46842 23.5523
6539082 4.1356 5.00826 7.07545 7.42935 1.29665 3.40037 23.6487
6539092 4.1356 5.00826 7.07545 7.42935 1.29665 3.40037 23.6487
6539102 4.12697 5.00826 7.0334 7.42935 1.35314 3.38643 23.598
6539113 4.14424 4.98954 7.1175 7.39211 1.18417 3.41058 23.6434
6539122 4.14424 4.98954 7.1175 7.39211 1.18417 3.41058 23.6434
6539132 4.1615 5.01762 7.0334 7.37349 1.26793 3.3247 23.586
6539142 4.1615 5.01762 7.0334 7.37349 1.26793 3.3247 23.586
6539153 4.14424 4.96145 7.0334 7.33625 1.19282 3.3635 23.4753
6539162 4.17014 5.02698 7.07545 7.36418 1.21165 3.32692 23.6368
6539182 4.1356 4.9989 6.98083 7.41073 1.37422 3.35185 23.5261
6539199 4.1615 5.05507 7.04391 7.34556 1.2658 3.28702 23.606
6539202 4.1615 5.05507 7.04391 7.34556 1.2658 3.28702 23.606
6539212 4.1615 5.13932 7.0334 7.53176 1.54633 3.30869 23.866
6539222 4.1615 5.13932 7.0334 7.53176 1.54633 3.30869 23.866
6539234 4.17014 5.05507 7.00186 7.42004 1.37767 3.29641 23.6471
6539242 4.1356 5.06443 7.07545 7.46659 1.38991 3.37503 23.7421
6539269 4.20467 5.13932 6.94929 7.37349 1.4354 3.15556 23.6668
6539272 4.1097 5.09251 6.89672 7.46659 1.6472 3.28516 23.5655
6539292 4.15287 5.06443 6.90724 7.4759 1.568 3.28331 23.6004
6539307 4.15287 5.06443 6.90724 7.4759 1.568 3.28331 23.6004
6539312 4.1097 5.10187 6.84416 7.53176 1.78037 3.28416 23.5875
6539322 4.10107 5.0457 6.89672 7.55038 1.69356 3.36973 23.5939
6539333 4.10107 5.0457 6.89672 7.55038 1.69356 3.36973 23.5939
6539342 4.11833 5.08315 6.84416 7.57831 1.79793 3.31506 23.624
6539352 4.11833 5.08315 6.84416 7.57831 1.79793 3.31506 23.624
6539362 4.07517 5.08315 6.84416 7.59693 1.86526 3.35778 23.5994
6539374 4.04926 5.09251 6.92826 7.60624 1.81746 3.41654 23.6763
6539383 4.04926 5.09251 6.92826 7.60624 1.81746 3.41654 23.6763
6539395 4.02336 5.05507 6.79159 7.59693 1.95706 3.3942 23.467
6539404 4.04926 5.05507 6.79159 7.6621 1.99116 3.40608 23.558
6539416 4.04926 5.05507 6.79159 7.6621 1.99116 3.40608 23.558
6539424 4.06653 5.08315 6.77056 7.68072 2.04099 3.36952 23.601
6539436 4.06653 5.08315 6.77056 7.68072 2.04099 3.36952 23.601
6539443 4.04063 5.05507 6.78108 7.67141 2.02221 3.41223 23.5482
6539456 3.98019 5.0457 6.8757 7.76451 2.06448 3.55845 23.6661
6539464 3.98019 5.0457 6.8757 7.76451 2.06448 3.55845 23.6661
6539479 4.01473 4.98018 6.90724 7.74589 1.90724 3.58902 23.648
6539483 4.00609 5.03634 6.82313 7.7552 2.0769 3.51548 23.6208
6539493 4.00609 5.03634 6.82313 7.7552 2.0769 3.51548 23.6208
6539505 3.99746 4.98954 6.89672 7.73658 1.93894 3.58567 23.6203
6539515 4.01473 5.00826 6.99134 7.82968 1.92068 3.64748 23.844
6539525 4.01473 5.00826 6.99134 7.82968 1.92068 3.64748 23.844
6539535 3.96293 5.00826 6.93878 7.87623 2.08397 3.68522 23.7862
6539555 3.90249 4.94273 6.88621 7.86692 2.141 3.75529 23.5984
6539565 3.92839 4.88656 6.9598 7.85761 1.96339 3.8099 23.6324
6539578 3.92839 4.88656 6.9598 7.85761 1.96339 3.8099 23.6324
6539586 3.91976 4.9989 6.90724 7.8483 2.13335 3.69826 23.6742
6539596 3.91976 4.92401 6.86518 7.89485 2.15423 3.75973 23.6038
6539606 3.91976 4.92401 6.86518 7.89485 2.15423 3.75973 23.6038
6539616 3.92839 4.91465 6.90724 7.92278 2.11401 3.79354 23.6731
6539636 3.85932 4.85848 6.97032 7.9414 2.08452 3.93189 23.6295
6539646 3.85932 4.85848 6.9598 7.99726 2.15062 3.95309 23.6749
6539656 3.85932 4.85848 6.9598 7.99726 2.15062 3.95309 23.6749
6539666 3.86795 4.86784 7.0334 7.90416 1.97549 3.92958 23.6734
6539676 3.88522 4.84912 6.91775 7.95071 2.11507 3.89834 23.6028
6539688 3.88522 4.84912 6.91775 7.95071 2.11507 3.89834 23.6028
6539697 3.83342 4.82104 6.93878 7.91347 2.08697 3.95491 23.5067
6539708 3.83342 4.82104 6.93878 7.91347 2.08697 3.95491 23.5067
6539717 3.82478 4.81167 7.0334 7.92278 1.9882 4.01802 23.5926
6539727 3.79025 4.79295 7.0334 7.9414 2.02767 4.0697 23.558
6539737 3.79025 4.79295 7.0334 7.9414 2.02767 4.0697 23.558
6539749 3.90249 4.77423 7.07545 8.00657 1.89705 4.04396 23.7587
6539757 3.79025 4.77423 7.13853 7.98795 1.93471 4.15475 23.691
6539777 3.83342 4.82104 7.12802 7.98795 1.94312 4.07745 23.7704
6539818 3.80752 4.69934 7.14904 7.99726 1.83913 4.2105 23.6532
6539819 3.85069 4.80231 7.12802 8.0345 1.95053 4.09997 23.8155
6539827 3.83342 4.78359 7.20161 7.97864 1.8145 4.13697 23.7973
6539840 3.76435 4.75551 7.21212 8.01588 1.88956 4.23711 23.7479
6539848 3.76435 4.75551 7.21212 8.01588 1.88956 4.23711 23.7479
6539862 3.79888 4.79295 7.18058 7.96002 1.86823 4.13913 23.7324
6539878 3.74708 4.69934 7.17007 7.99726 1.88392 4.26928 23.6138
6539888 3.76435 4.74615 7.23315 8.00657 1.84759 4.25 23.7502
6539901 3.76435 4.74615 7.23315 8.00657 1.84759 4.25 23.7502
6539908 3.82478 4.72742 7.17007 7.98795 1.81412 4.17909 23.7102
6539922 3.74708 4.71806 7.13853 8.01588 1.95636 4.24813 23.6196
6539928 3.74708 4.71806 7.13853 8.01588 1.95636 4.24813 23.6196
6539939 3.79025 4.69934 7.17007 8.05312 1.88943 4.25948 23.7128
6539949 3.79025 4.69934 7.17007 8.05312 1.88943 4.25948 23.7128
6539959 3.72981 4.68998 7.23315 8.05312 1.8773 4.34476 23.7061
6539968 3.72118 4.7087 7.23315 8.05312 1.90534 4.33653 23.7161
6539988 3.70391 4.69934 7.13853 7.98795 1.96013 4.286 23.5297
6540000 3.67801 4.66189 7.10699 8.04381 2.04411 4.3491 23.4907
6540010 3.67801 4.66189 7.10699 8.04381 2.04411 4.3491 23.4907
6540020 3.67801 4.73678 7.20161 8.07174 2.03573 4.34303 23.6881
6540030 3.67801 4.73678 7.20161 8.07174 2.03573 4.34303 23.6881
6540043 3.63484 4.64317 7.12802 8.06243 2.06953 4.41812 23.4685
6540050 3.70391 4.65253 7.21212 8.09036 1.93042 4.40386 23.6589
6540060 3.70391 4.65253 7.21212 8.09036 1.93042 4.40386 23.6589
6540070 3.79025 4.69934 7.22263 8.0345 1.81178 4.27483 23.7467
6540080 3.70391 4.7087 7.25417 8.07174 1.9192 4.36841 23.7385
6540090 3.70391 4.7087 7.25417 8.07174 1.9192 4.36841 23.7385
6540101 3.75571 4.65253 7.19109 8.10898 1.91357 4.36038 23.7083
6540110 3.75571 4.65253 7.19109 8.10898 1.91357 4.36038 23.7083
6540120 3.67801 4.68998 7.13853 8.0345 2.02619 4.33608 23.541
6540130 3.66074 4.67126 7.12802 8.09967 2.10335 4.39035 23.5597
6540150 3.69528 4.71806 7.1175 8.07174 2.09408 4.30625 23.6026
6540160 3.67801 4.65253 7.25417 8.20208 2.02048 4.49349 23.7868
6540170 3.67801 4.65253 7.25417 8.20208 2.02048 4.49349 23.7868
6540192 3.63484 4.66189 7.28571 8.2207 2.06069 4.54331 23.8032
6540210 3.67801 4.64317 7.24366 8.25794 2.07726 4.52115 23.8228
6540211 3.62621 4.587 7.13853 8.09036 2.03974 4.48915 23.4421
6540231 3.70391 4.59637 7.06494 8.16484 2.11683 4.41744 23.5301
6540241 3.67801 4.587 7.09648 8.11829 2.05582 4.43983 23.4798
6540251 3.67801 4.587 7.09648 8.11829 2.05582 4.43983 23.4798
6540261 3.73845 4.60573 7.14904 8.18346 2.00799 4.42735 23.6767
6540271 3.73845 4.60573 7.14904 8.18346 2.00799 4.42735 23.6767
6540281 3.67801 4.59637 7.17007 8.14622 2.00769 4.47757 23.5907
6540291 3.74708 4.56828 7.19109 8.16484 1.8957 4.46146 23.6713
6540301 3.74708 4.56828 7.19109 8.16484 1.8957 4.46146 23.6713
6540311 3.73845 4.57764 7.14904 8.18346 1.98068 4.45042 23.6486
6540322 3.72981 4.54956 7.13853 8.11829 1.91143 4.44684 23.5362
6540332 3.72981 4.54956 7.13853 8.11829 1.91143 4.44684 23.5362
6540342 3.77298 4.61509 7.10699 8.2207 2.06173 4.38925 23.7158
6540352 3.77298 4.61509 7.10699 8.2207 2.06173 4.38925 23.7158
6540362 3.72118 4.57764 7.10699 8.15553 2.02133 4.43334 23.5613
6540372 3.75571 4.51211 7.14904 8.18346 1.89703 4.4902 23.6003
6540382 3.75571 4.51211 7.14904 8.18346 1.89703 4.4902 23.6003
6540392 3.72981 4.5402 7.18058 8.13691 1.87252 4.48171 23.5875
6540402 3.72981 4.5402 7.18058 8.13691 1.87252 4.48171 23.5875
6540415 3.72981 4.45595 7.18058 8.19277 1.84464 4.57632 23.5591
6540422 3.72118 4.5402 7.21212 8.23932 1.94644 4.54821 23.7128
6540432 3.72118 4.5402 7.21212 8.23932 1.94644 4.54821 23.7128
6540442 3.74708 4.50275 7.24366 8.23932 1.84484 4.57161 23.7328
6540458 3.67801 4.51211 7.23315 8.25794 1.96242 4.62453 23.6812
6540462 3.67801 4.51211 7.23315 8.25794 1.96242 4.62453 23.6812
6540475 3.70391 4.46531 7.26469 8.2207 1.81509 4.63937 23.6546
6540482 3.70391 4.46531 7.31725 8.27656 1.81027 4.68665 23.763
6540496 3.70391 4.38106 7.31725 8.27656 1.72776 4.75669 23.6788
6540504 3.64347 4.40914 7.33828 8.34173 1.86359 4.82083 23.7326
6540523 3.62621 4.38106 7.2752 8.33242 1.91836 4.82769 23.6149
6540535 3.68664 4.34361 7.31725 8.41621 1.84728 4.86238 23.7637
6540543 3.68664 4.34361 7.31725 8.41621 1.84728 4.86238 23.7637
6540553 3.62621 4.38106 7.24366 8.33242 1.95436 4.81409 23.5833
6540564 3.60894 4.4185 7.25417 8.38828 2.05289 4.82576 23.6699
6540583 3.60894 4.38106 7.29623 8.37897 1.95948 4.87121 23.6652
6540593 3.60894 4.38106 7.29623 8.37897 1.95948 4.87121 23.6652
6540603 3.6003 4.36233 7.31725 8.4069 1.95433 4.91509 23.6868
6540615 3.6003 4.36233 7.23315 8.43483 2.07751 4.89111 23.6306
6540627 3.6003 4.36233 7.23315 8.43483 2.07751 4.89111 23.6306
6540635 3.62621 4.40914 7.30674 8.47207 2.04528 4.87743 23.8142
6540646 3.58304 4.40914 7.2752 8.44414 2.10345 4.88823 23.7115
6540656 3.58304 4.40914 7.2752 8.44414 2.10345 4.88823 23.7115
6540666 3.61757 4.43722 7.25417 8.48138 2.15093 4.84278 23.7904
6540676 3.61757 4.43722 7.25417 8.48138 2.15093 4.84278 23.7904
6540686 3.56577 4.43722 7.28571 8.41621 2.11133 4.87173 23.7049
6540696 3.5744 4.48403 7.22263 8.36966 2.17399 4.7782 23.6507
6540706 3.5744 4.48403 7.22263 8.36966 2.17399 4.7782 23.6507
6540716 3.58304 4.46531 7.22263 8.41621 2.19089 4.80671 23.6872
6540727 3.62621 4.44659 7.19109 8.37897 2.12353 4.75658 23.6429
6540746 3.63484 4.42786 7.14904 8.38828 2.15282 4.75081 23.6
6540766 3.5485 4.43722 7.22263 8.43483 2.22148 4.8672 23.6432
6540776 3.55714 4.39042 7.29623 8.42552 2.07291 4.92676 23.6693
6540789 3.55714 4.39042 7.29623 8.42552 2.07291 4.92676 23.6693
6540796 3.59167 4.42786 7.21212 8.46276 2.20182 4.8463 23.6944
6540806 3.59167 4.40914 7.19109 8.47207 2.21692 4.85697 23.664
6540816 3.59167 4.40914 7.19109 8.47207 2.21692 4.85697 23.664
6540826 3.63484 4.44659 7.28571 8.50931 2.13112 4.84595 23.8764
6540836 3.63484 4.44659 7.28571 8.50931 2.13112 4.84595 23.8764
6540846 3.55714 4.4185 7.25417 8.49069 2.21104 4.91298 23.7205
6540856 3.56577 4.44659 7.20161 8.43483 2.23483 4.83582 23.6488
6540866 3.56577 4.44659 7.20161 8.43483 2.23483 4.83582 23.6488
6540876 3.56577 4.43722 7.17007 8.42552 2.25322 4.82609 23.5986
6540887 3.56577 4.39978 7.18058 8.48138 2.25882 4.88609 23.6275
6540898 3.56577 4.39978 7.18058 8.48138 2.25882 4.88609 23.6275
6540907 3.61757 4.47467 7.15955 8.43483 2.25061 4.75087 23.6866
6540918 3.61757 4.47467 7.15955 8.43483 2.25061 4.75087 23.6866
6540927 3.53987 4.38106 7.22263 8.48138 2.22216 4.94166 23.6249
6540937 3.5744 4.43722 7.20161 8.50931 2.28741 4.86834 23.7225
6540947 3.5744 4.43722 7.20161 8.50931 2.28741 4.86834 23.7225
6540958 3.55714 4.39042 7.24366 8.47207 2.17815 4.9242 23.6633
6540967 3.55714 4.39042 7.29623 8.47207 2.11791 4.94653 23.7159
6540979 3.5226 4.28745 7.29623 8.46276 2.04864 5.05893 23.569
6540987 3.53123 4.34361 7.34879 8.51862 2.08721 5.04958 23.7423
6541007 3.5226 4.28745 7.26469 8.49069 2.11204 5.05741 23.5654
6541021 3.43626 4.30617 7.36982 8.52793 2.14467 5.17466 23.6402
6541027 3.43626 4.30617 7.36982 8.52793 2.14467 5.17466 23.6402
6541042 3.5226 4.35297 7.28571 8.56517 2.22307 5.04204 23.7265
6541047 3.45353 4.31553 7.39085 8.53724 2.11881 5.16457 23.6971
6541059 3.45353 4.31553 7.39085 8.53724 2.11881 5.16457 23.6971
6541068 3.4967 4.34361 7.40136 8.50931 2.05767 5.09686 23.751
6541097 3.45353 4.33425 7.34879 8.5 2.14914 5.1156 23.6366
6541099 3.42763 4.39042 7.44341 8.56517 2.1872 5.15633 23.8266
6541119 3.50533 4.30617 7.4329 8.5 1.96671 5.13052 23.7444
6541130 3.46216 4.31553 7.45393 8.48138 1.9829 5.16022 23.713
6541140 3.46216 4.31553 7.45393 8.48138 1.9829 5.16022 23.713
6541152 3.50533 4.36233 7.51701 8.53724 1.96184 5.13332 23.9219
6541173 3.51397 4.27808 7.41187 8.53724 1.98967 5.15375 23.7412
6541180 3.46216 4.30617 7.54855 8.50931 1.89368 5.21875 23.8262
6541200 3.5485 4.29681 7.46444 8.5 1.87304 5.115 23.8097
6541211 3.47943 4.26872 7.50649 8.42552 1.80353 5.18399 23.6802
6541221 3.47943 4.26872 7.50649 8.42552 1.80353 5.18399 23.6802
6541231 3.48807 4.26872 7.47495 8.47207 1.87499 5.18286 23.7038
6541242 3.48807 4.26872 7.47495 8.47207 1.87499 5.18286 23.7038
6541252 3.4708 4.23128 7.44341 8.42552 1.84823 5.19718 23.571
6541262 3.4967 4.31553 7.4329 8.5 1.98559 5.1299 23.7451
6541271 3.4967 4.31553 7.4329 8.5 1.98559 5.1299 23.7451
6541285 3.4708 4.30617 7.48547 8.47207 1.91912 5.17005 23.7345
6541291 3.48807 4.25 7.49598 8.46276 1.82379 5.20366 23.6968
6541301 3.48807 4.25 7.49598 8.46276 1.82379 5.20366 23.6968
6541311 3.5485 4.30617 7.54855 8.48138 1.76944 5.13422 23.8846
6541321 3.5485 4.30617 7.54855 8.48138 1.76944 5.13422 23.8846
6541331 3.48807 4.29681 7.4329 8.46276 1.94105 5.13763 23.6805
6541341 3.48807 4.3717 7.49598 8.48138 1.96021 5.10817 23.8371
6541354 3.48807 4.3717 7.49598 8.48138 1.96021 5.10817 23.8371
6541361 3.47943 4.29681 7.36982 8.47207 2.03194 5.12254 23.6181
6541374 3.4708 4.31553 7.41187 8.5 2.03903 5.14314 23.6982
6541381 3.4708 4.31553 7.41187 8.5 2.03903 5.14314 23.6982
6541391 3.53987 4.28745 7.42239 8.5 1.92128 5.11274 23.7497
6541411 3.48807 4.25936 7.47495 8.48138 1.87494 5.19469 23.7038
6541422 3.45353 4.32489 7.44341 8.48138 2.01379 5.15523 23.7032
6541435 3.45353 4.32489 7.44341 8.48138 2.01379 5.15523 23.7032
6541442 3.53123 4.25 7.52752 8.49069 1.76678 5.19149 23.7994
6541457 3.43626 4.25936 7.41187 8.43483 1.96036 5.19346 23.5423
6541462 3.43626 4.25936 7.41187 8.43483 1.96036 5.19346 23.5423
6541472 3.46216 4.25 7.50649 8.50931 1.88665 5.24928 23.728
6541482 3.46216 4.25 7.50649 8.50931 1.88665 5.24928 23.728
6541496 3.45353 4.26872 7.48547 8.51862 1.94757 5.23585 23.7263
6541503 3.45353 4.25 7.45393 8.5 1.94711 5.23116 23.6575
6541523 3.41899 4.26872 7.49598 8.54655 2.00198 5.28112 23.7302
6541536 3.50533 4.30617 7.47495 8.50931 1.92806 5.15182 23.7958
6541545 3.50533 4.30617 7.47495 8.50931 1.92806 5.15182 23.7958
6541558 3.5226 4.30617 7.49598 8.5 1.87577 5.14206 23.8247
6541565 3.48807 4.26872 7.54855 8.5 1.81904 5.22473 23.8053
6541575 3.48807 4.26872 7.54855 8.5 1.81904 5.22473 23.8053
6541585 3.47943 4.31553 7.47495 8.5 1.95746 5.16198 23.7699
6541595 3.47943 4.31553 7.47495 8.5 1.95746 5.16198 23.7699
6541605 3.48807 4.26872 7.46444 8.5 1.91413 5.19007 23.7212
6541615 3.47943 4.31553 7.50649 8.47207 1.89462 5.16348 23.7735
6541635 3.48807 4.35297 7.40136 8.51862 2.08552 5.10012 23.761
6541645 3.46216 4.36233 7.50649 8.46276 1.95055 5.1346 23.7938
6541655 3.46216 4.36233 7.50649 8.46276 1.95055 5.1346 23.7938
6541666 3.50533 4.35297 7.53803 8.49069 1.88418 5.13066 23.887
6541676 3.50533 4.35297 7.53803 8.49069 1.88418 5.13066 23.887
6541686 3.45353 4.31553 7.46444 8.52793 2.02586 5.19117 23.7614
6541696 3.4967 4.36233 7.46444 8.50931 2.00408 5.10728 23.8328
6541719 3.43626 4.3717 7.42239 8.36966 1.99439 5.07463 23.6
6541727 3.39309 4.29681 7.35931 8.4069 2.07974 5.16474 23.4561
6541739 3.39309 4.29681 7.35931 8.4069 2.07974 5.16474 23.4561
6541750 3.40173 4.35297 7.49598 8.43483 1.99499 5.17792 23.6855
6541756 3.40173 4.35297 7.49598 8.43483 1.99499 5.17792 23.6855
6541766 3.39309 4.32489 7.45393 8.44414 2.03464 5.19567 23.6161
6541781 3.41899 4.36233 7.45393 8.5 2.09542 5.16485 23.7353
6541796 3.42763 4.30617 7.52752 8.47207 1.92038 5.22415 23.7334
6541807 3.40173 4.29681 7.52752 8.50931 1.97687 5.26954 23.7354
6541828 3.41036 4.32489 7.53803 8.57448 2.04524 5.26922 23.8478
6541837 3.41036 4.32489 7.53803 8.57448 2.04524 5.26922 23.8478
6541848 3.36719 4.21255 7.56957 8.58379 1.95885 5.41877 23.7331
6541859 3.37583 4.24064 7.60111 8.66758 2.02142 5.43364 23.8852
6541871 3.37583 4.24064 7.60111 8.66758 2.02142 5.43364 23.8852
6541879 3.31539 4.30617 7.61163 8.63034 2.10519 5.41857 23.8635
6541889 3.29812 4.19383 7.62214 8.61172 1.98654 5.52683 23.7258
6541898 3.29812 4.19383 7.62214 8.61172 1.98654 5.52683 23.7258
6541908 3.31539 4.25 7.60111 8.55586 1.99111 5.43259 23.7224
6541931 3.26359 4.21255 7.63265 8.61172 2.03204 5.54472 23.7205
6541938 3.28085 4.19383 7.63265 8.61172 1.99422 5.54597 23.7191
6541950 3.28085 4.19383 7.63265 8.61172 1.99422 5.54597 23.7191
6541960 3.24632 4.24064 7.65368 8.56517 2.00985 5.52516 23.7058
6541970 3.27222 4.17511 7.60111 8.62103 2.0309 5.56084 23.6695
6541991 3.28085 4.19383 7.64317 8.67689 2.04531 5.57605 23.7947
6542016 3.23768 4.11894 7.62214 8.62103 1.9917 5.64828 23.5998
6542020 3.32402 4.23128 7.58009 8.60241 2.03218 5.45155 23.7378
6542030 3.32402 4.23128 7.58009 8.60241 2.03218 5.45155 23.7378
6542040 3.28085 4.23128 7.51701 8.63034 2.18069 5.47469 23.6595
6542050 3.31539 4.26872 7.58009 8.6862 2.15871 5.46039 23.8504
6542060 3.31539 4.26872 7.58009 8.6862 2.15871 5.46039 23.8504
6542070 3.39309 4.26872 7.60111 8.63965 2.00205 5.3837 23.9026
6542080 3.39309 4.26872 7.60111 8.63965 2.00205 5.3837 23.9026
6542091 3.33266 4.24064 7.53803 8.71413 2.18682 5.46403 23.8255
6542102 3.36719 4.22192 7.49598 8.70482 2.16853 5.42984 23.7899
6542111 3.36719 4.22192 7.49598 8.70482 2.16853 5.42984 23.7899
6542122 3.34129 4.21255 7.54855 8.67689 2.10226 5.47005 23.7793
6542131 3.37583 4.21255 7.50649 8.64896 2.08391 5.41219 23.7438
6542143 3.37583 4.21255 7.50649 8.64896 2.08391 5.41219 23.7438
6542151 3.41899 4.18447 7.54855 8.65827 1.9689 5.41994 23.8103
6542164 3.41899 4.18447 7.54855 8.65827 1.9689 5.41994 23.8103
6542171 3.38446 4.19383 7.55906 8.72344 2.06799 5.47187 23.8608
6542181 3.41899 4.22192 7.50649 8.72344 2.11541 5.39719 23.8708
6542191 3.41899 4.22192 7.50649 8.72344 2.11541 5.39719 23.8708
6542201 3.34129 4.16575 7.48547 8.66758 2.12021 5.48139 23.6601
6542212 3.37583 4.13767 7.35931 8.6862 2.21649 5.43233 23.559
6542221 3.37583 4.13767 7.35931 8.6862 2.21649 5.43233 23.559
6542231 3.39309 4.06278 7.42239 8.72344 2.08749 5.52288 23.6017
6542241 3.39309 4.06278 7.42239 8.72344 2.08749 5.52288 23.6017
6542252 3.33266 4.02533 7.54855 8.76999 2.02111 5.67686 23.6765
6542264 3.35856 4.02533 7.56957 8.84447 2.03975 5.69177 23.7979
6542281 3.28085 3.97852 7.65368 8.83516 1.9782 5.82957 23.7482
6542291 3.34129 3.90363 7.61163 8.8724 1.92077 5.8404 23.729
6542301 3.34129 3.90363 7.61163 8.8724 1.92077 5.8404 23.729
6542313 3.33266 3.95044 7.72727 8.98412 1.95319 5.89404 23.9945
6542322 3.33266 3.95044 7.72727 8.98412 1.95319 5.89404 23.9945
6542335 3.28949 3.90363 7.73779 8.90964 1.87286 5.94846 23.8405
6542342 3.28085 3.86619 7.72727 8.93757 1.88523 5.99562 23.8119
6542354 3.28085 3.86619 7.72727 8.93757 1.88523 5.99562 23.8119
6542362 3.29812 3.913 7.70625 8.88171 1.88068 5.91 23.7991
6542372 3.28085 3.87555 7.73779 8.84447 1.79178 5.95601 23.7387
6542381 3.28085 3.87555 7.73779 8.84447 1.79178 5.95601 23.7387
6542392 3.29812 3.87555 7.71676 8.91895 1.86861 5.96112 23.8094
6542402 3.29812 3.87555 7.71676 8.91895 1.86861 5.96112 23.8094
6542412 3.33266 3.95044 7.68522 8.90033 1.91977 5.84603 23.8686
6542423 3.30675 3.95044 7.67471 8.84447 1.90678 5.84319 23.7764
6542441 3.30675 3.95044 7.67471 8.84447 1.90678 5.84319 23.7764
6542443 3.33266 4.01597 7.66419 8.75137 1.86256 5.72307 23.7642
6542456 3.34129 3.95044 7.54855 8.76999 1.93834 5.73488 23.6103
6542463 3.34129 3.95044 7.54855 8.76999 1.93834 5.73488 23.6103
6542473 3.34992 4.04405 7.60111 8.6862 1.87829 5.63314 23.6813
6542485 3.34992 4.04405 7.60111 8.6862 1.87829 5.63314 23.6813
6542495 3.34129 4.01597 7.5906 8.6862 1.87259 5.66103 23.6341
6542506 3.47943 4.10022 7.56957 8.69551 1.83135 5.46374 23.8447
6542516 3.47943 4.10022 7.56957 8.69551 1.83135 5.46374 23.8447
6542526 3.47943 4.04405 7.49598 8.58379 1.75022 5.43757 23.6033
6542535 3.4967 4.14703 7.47495 8.60241 1.87363 5.333 23.7211
6542555 3.4967 4.17511 7.47495 8.52793 1.82831 5.27847 23.6747
6542568 3.53123 4.23128 7.47495 8.50931 1.82593 5.19339 23.7468
6542575 3.53123 4.23128 7.47495 8.50931 1.82593 5.19339 23.7468
6542585 3.53123 4.21255 7.46444 8.49069 1.80132 5.19729 23.6989
6542595 3.53123 4.21255 7.46444 8.49069 1.80132 5.19729 23.6989
6542605 3.5485 4.21255 7.48547 8.5 1.76719 5.19512 23.7465
6542615 3.53123 4.23128 7.38033 8.55586 1.97856 5.1735 23.6987
6542627 3.53123 4.23128 7.38033 8.55586 1.97856 5.1735 23.6987
6542635 3.55714 4.26872 7.39085 8.54655 1.96447 5.12022 23.7633
6542645 3.55714 4.26872 7.39085 8.54655 1.96447 5.12022 23.7633
6542656 3.53987 4.21255 7.42239 8.56517 1.91183 5.20333 23.74
6542666 3.55714 4.24064 7.42239 8.50931 1.86522 5.14166 23.7295
6542676 3.55714 4.24064 7.42239 8.50931 1.86522 5.14166 23.7295
6542686 3.55714 4.19383 7.49598 8.53724 1.76373 5.22338 23.7842
6542697 3.4967 4.20319 7.49598 8.53724 1.84105 5.2669 23.7331
6542717 3.4708 4.21255 7.47495 8.55586 1.92149 5.28005 23.7142
6542726 3.4708 4.21255 7.52752 8.55586 1.86195 5.30155 23.7667
6542738 3.5226 4.13767 7.52752 8.55586 1.73036 5.32129 23.7436
6542746 3.41899 4.13767 7.55906 8.63965 1.89353 5.4569 23.7554
6542760 3.41899 4.13767 7.55906 8.63965 1.89353 5.4569 23.7554
6542767 3.46216 4.10958 7.53803 8.63034 1.83205 5.43171 23.7401
6542777 3.46216 3.99725 7.67471 8.65827 1.59573 5.59437 23.7924
6542787 3.46216 3.99725 7.67471 8.65827 1.59573 5.59437 23.7924
6542797 3.41036 4.02533 7.73779 8.76068 1.7108 5.67982 23.9342
6542807 3.37583 4.01597 7.72727 8.70482 1.69755 5.69196 23.8239
6542817 3.37583 4.01597 7.72727 8.70482 1.69755 5.69196 23.8239
6542827 3.41036 4.05341 7.65368 8.67689 1.75069 5.58964 23.7943
6542840 3.41036 4.05341 7.65368 8.67689 1.75069 5.58964 23.7943
6542847 3.43626 4.02533 7.64317 8.65827 1.68768 5.58 23.763
6542857 3.34992 4.07214 7.67471 8.60241 1.74048 5.60466 23.6992
6542867 3.34992 4.07214 7.67471 8.60241 1.74048 5.60466 23.6992
6542877 3.39309 4.10958 7.68522 8.52793 1.64363 5.50928 23.7158
6542888 3.39309 4.10958 7.68522 8.52793 1.64363 5.50928 23.7158
6542897 3.40173 4.06278 7.63265 8.54655 1.66529 5.52877 23.6437
6542910 3.38446 4.05341 7.67471 8.58379 1.66485 5.58353 23.6964
6542917 3.38446 4.05341 7.67471 8.58379 1.66485 5.58353 23.6964
6542927 3.45353 4.1283 7.65368 8.47207 1.57456 5.40581 23.7076
6542940 3.42763 4.18447 7.60111 8.52793 1.77293 5.38113 23.7411
6542947 3.42763 4.18447 7.60111 8.52793 1.77293 5.38113 23.7411
6542957 3.4708 4.18447 7.65368 8.54655 1.68362 5.37295 23.8555
6542967 3.4708 4.18447 7.65368 8.54655 1.68362 5.37295 23.8555
6542977 3.42763 4.14703 7.65368 8.48138 1.63129 5.41576 23.7097
6542987 3.46216 4.18447 7.69573 8.52793 1.62808 5.38977 23.8703
6543003 3.46216 4.18447 7.69573 8.52793 1.62808 5.38977 23.8703
6543011 3.51397 4.19383 7.66419 8.48138 1.56901 5.30602 23.8534
6543023 3.45353 4.19383 7.64317 8.48138 1.66007 5.34908 23.7719
6543027 3.45353 4.19383 7.64317 8.48138 1.66007 5.34908 23.7719
6543037 3.47943 4.18447 7.55906 8.5931 1.82553 5.34613 23.8161
6543048 3.47943 4.18447 7.55906 8.5931 1.82553 5.34613 23.8161
6543060 3.41036 4.14703 7.64317 8.56517 1.74481 5.46014 23.7657
6543068 3.40173 4.1283 7.64317 8.54655 1.71794 5.47625 23.7197
6543077 3.40173 4.1283 7.64317 8.54655 1.71794 5.47625 23.7197
6543087 3.4449 4.10958 7.65368 8.55586 1.64836 5.46313 23.764
6543097 3.38446 4.05341 7.63265 8.61172 1.73972 5.57791 23.6822
6543110 3.38446 4.05341 7.63265 8.61172 1.73972 5.57791 23.6822
6543117 3.37583 4.13767 7.68522 8.66758 1.82705 5.55552 23.8663
6543131 3.37583 4.13767 7.68522 8.66758 1.82705 5.55552 23.8663
6543139 3.38446 4.05341 7.73779 8.63965 1.64896 5.63056 23.8153
6543148 3.39309 4.00661 7.68522 8.76999 1.77981 5.69412 23.8549
6543160 3.39309 4.00661 7.68522 8.76999 1.77981 5.69412 23.8549
6543169 3.30675 4.05341 7.63265 8.69551 1.90971 5.67874 23.6883
6543178 3.29812 3.98789 7.70625 8.67689 1.75377 5.76518 23.6691
6543189 3.29812 3.98789 7.70625 8.67689 1.75377 5.76518 23.6691
6543198 3.28949 4.00661 7.69573 8.7793 1.89378 5.79207 23.7711
6543209 3.28949 4.00661 7.69573 8.7793 1.89378 5.79207 23.7711
6543219 3.28949 3.99725 7.69573 8.71413 1.8211 5.77496 23.6966
6543229 3.28085 3.89427 7.86395 8.82585 1.65025 5.98033 23.8649
6543240 3.28085 3.89427 7.86395 8.82585 1.65025 5.98033 23.8649
6543250 3.26359 3.92236 7.85343 8.8724 1.75409 5.98443 23.9118
6543261 3.23768 3.85683 7.81138 8.84447 1.73917 6.03865 23.7504
6543283 3.23768 3.89427 7.87446 8.8724 1.73221 6.03981 23.8788
6543290 3.23768 3.89427 7.87446 8.8724 1.73221 6.03981 23.8788
6543300 3.18588 3.83811 7.89549 8.89102 1.73008 6.15014 23.8105
6543310 3.20315 3.86619 7.906 8.90964 1.74448 6.12077 23.885
6543320 3.20315 3.86619 7.906 8.90964 1.74448 6.12077 23.885
6543330 3.20315 3.83811 7.92703 8.81654 1.60235 6.11881 23.7848
6543340 3.20315 3.87555 7.91651 8.85378 1.68735 6.0956 23.849
6543350 3.20315 3.87555 7.91651 8.85378 1.68735 6.0956 23.849
6543360 3.22905 3.88491 7.84292 8.85378 1.74997 6.03684 23.8107
6543372 3.22905 3.88491 7.84292 8.85378 1.74997 6.03684 23.8107
6543381 3.22042 3.90363 7.83241 8.76068 1.69865 5.98873 23.7171
6543391 3.25495 3.88491 7.73779 8.80723 1.79376 5.95643 23.6849
6543401 3.25495 3.88491 7.73779 8.80723 1.79376 5.95643 23.6849
6543411 3.22905 3.98789 7.70625 8.79792 1.95028 5.87277 23.7211
6543421 3.26359 3.95044 7.7483 8.82585 1.85429 5.90217 23.7882
6543441 3.23768 3.87555 7.82189 8.85378 1.75476 6.02956 23.7889
6543453 3.23768 3.87555 7.82189 8.85378 1.75476 6.02956 23.7889
6543461 3.18588 3.913 7.82189 8.78861 1.78604 6.01763 23.7094
6543475 3.17725 3.85683 7.79035 8.85378 1.84031 6.08791 23.6782
6543482 3.17725 3.85683 7.79035 8.85378 1.84031 6.08791 23.6782
6543492 3.15135 3.89427 7.81138 8.91895 1.94576 6.10998 23.7759
6543502 3.13408 3.86619 7.85343 8.8724 1.8451 6.14865 23.7261
6543522 3.19451 3.85683 7.92703 8.93757 1.74868 6.15484 23.9159
6543532 3.19451 3.85683 7.92703 8.93757 1.74868 6.15484 23.9159
6543542 3.10818 3.84747 7.85343 8.94688 1.92871 6.21613 23.756
6543552 3.12544 3.81938 7.85343 8.93757 1.87278 6.22235 23.7358
6543564 3.12544 3.81938 7.85343 8.93757 1.87278 6.22235 23.7358
6543572 3.14271 3.7913 7.83241 8.98412 1.89501 6.24145 23.7505
6543586 3.11681 3.81002 7.80087 8.95619 1.95126 6.22589 23.6839
6543606 3.13408 3.83811 7.80087 9.01205 2.01303 6.20603 23.7851
6543626 3.15998 3.80066 7.93754 8.94688 1.72994 6.24266 23.8451
6543633 3.13408 3.77258 7.82189 8.95619 1.87124 6.25176 23.6847
6543643 3.13408 3.77258 7.82189 8.95619 1.87124 6.25176 23.6847
6543655 3.14271 3.85683 7.87446 9.00274 1.92907 6.20541 23.8767
6543669 3.16861 3.82874 7.82189 8.94688 1.8778 6.16723 23.7661
6543675 3.16861 3.82874 7.82189 8.94688 1.8778 6.16723 23.7661
6543685 3.13408 3.78194 7.77984 8.91895 1.89179 6.21397 23.6148
6543695 3.14271 3.86619 7.76933 8.9655 2.02122 6.14431 23.7437
6543705 3.14271 3.86619 7.76933 8.9655 2.02122 6.14431 23.7437
6543715 3.07364 3.86619 7.89549 8.9655 1.95641 6.25261 23.8008
6543725 3.07364 3.86619 7.89549 8.9655 1.95641 6.25261 23.8008
6543735 3.10818 3.87555 7.88497 8.93757 1.91123 6.1993 23.8063
6543745 3.16861 3.86619 7.85343 8.98412 1.91462 6.15948 23.8724
6543755 3.16861 3.86619 7.85343 8.98412 1.91462 6.15948 23.8724
6543765 3.16861 3.89427 7.83241 8.98412 1.96547 6.12681 23.8794
6543785 3.15998 3.86619 7.84292 8.93757 1.89113 6.14596 23.8067
6543796 3.08228 3.88491 7.84292 8.92826 1.98832 6.19503 23.7384
6543806 3.08228 3.88491 7.84292 8.92826 1.98832 6.19503 23.7384
6543816 3.12544 3.81938 7.88497 8.88171 1.78255 6.21335 23.7115
6543826 3.17725 3.89427 7.84292 8.90033 1.86275 6.09185 23.8148
6543838 3.17725 3.89427 7.84292 8.90033 1.86275 6.09185 23.8148
6543846 3.17725 3.95044 7.79035 8.92826 2.00356 6.03296 23.8463
6543861 3.17725 3.95044 7.79035 8.92826 2.00356 6.03296 23.8463
6543866 3.16861 3.84747 7.80087 8.90033 1.87449 6.12536 23.7173
6543879 3.15135 3.94108 7.81138 8.89102 1.96405 6.05802 23.7948
6543887 3.15135 3.94108 7.81138 8.89102 1.96405 6.05802 23.7948
6543896 3.22042 3.93172 7.77984 8.88171 1.9035 5.98988 23.8137
6543908 3.21178 3.94108 7.82189 8.84447 1.83872 5.99106 23.8192
6543931 3.20315 3.90363 7.79035 8.81654 1.82033 6.00926 23.7137
6543937 3.15998 3.96916 7.77984 8.8724 1.99919 6.00665 23.7814
6543947 3.15998 3.96916 7.77984 8.8724 1.99919 6.00665 23.7814
6543957 3.22905 3.90363 7.82189 8.8724 1.81002 6.0194 23.827
6543968 3.22905 3.90363 7.82189 8.8724 1.81002 6.0194 23.827
6543977 3.21178 3.92236 7.7483 8.80723 1.86738 5.96551 23.6897
6543987 3.21178 3.95044 7.77984 8.81654 1.86812 5.95626 23.7586
6543997 3.21178 3.95044 7.77984 8.81654 1.86812 5.95626 23.7586
6544010 3.21178 3.94108 7.69573 8.88171 2.01775 5.95731 23.7303
6544018 3.21178 3.94108 7.69573 8.88171 2.01775 5.95731 23.7303
6544027 3.23768 3.92236 7.77984 8.86309 1.85683 5.97586 23.803
6544039 3.25495 3.96916 7.77984 8.86309 1.88279 5.91955 23.867
6544057 3.24632 3.92236 7.80087 8.83516 1.79621 5.96564 23.8047
6544067 3.24632 3.9598 7.80087 8.86309 1.85976 5.94332 23.8701
6544077 3.24632 3.9598 7.80087 8.86309 1.85976 5.94332 23.8701
6544087 3.24632 4.00661 7.80087 8.8724 1.91404 5.90587 23.9262
6544099 3.24632 4.00661 7.80087 8.8724 1.91404 5.90587 23.9262
6544109 3.22905 3.94108 7.83241 8.84447 1.80745 5.97984 23.847
6544120 3.26359 3.95044 7.79035 8.79792 1.77968 5.90757 23.8023
6544128 3.26359 3.95044 7.79035 8.79792 1.77968 5.90757 23.8023
6544138 3.21178 3.99725 7.70625 8.76999 1.95185 5.86897 23.6853
6544149 3.27222 3.95044 7.69573 8.75137 1.8313 5.84571 23.6698
6544159 3.27222 3.95044 7.69573 8.75137 1.8313 5.84571 23.6698
6544170 3.28085 4.01597 7.68522 8.76068 1.90645 5.78014 23.7427
6544192 3.27222 3.913 7.72727 8.71413 1.72224 5.87654 23.6266
6544200 3.25495 3.95044 7.77984 8.76068 1.76486 5.89688 23.7459
6544213 3.25495 3.95044 7.77984 8.76068 1.76486 5.89688 23.7459
6544220 3.27222 4.00661 7.75881 8.78861 1.85109 5.83512 23.8262
6544230 3.25495 3.99725 7.77984 8.76999 1.81964 5.85935 23.802
6544240 3.25495 3.99725 7.77984 8.76999 1.81964 5.85935 23.802
6544250 3.26359 3.97852 7.80087 8.76999 1.76801 5.87626 23.813
6544260 3.26359 3.97852 7.80087 8.76999 1.76801 5.87626 23.813
6544270 3.20315 4.03469 7.77984 8.6862 1.83293 5.83967 23.7039
6544278 3.28085 3.96916 7.85343 8.76999 1.6806 5.88944 23.8734
6544301 3.28085 3.96916 7.85343 8.76999 1.6806 5.88944 23.8734
6544302 3.28949 4.00661 7.80087 8.76068 1.75723 5.82546 23.8576
6544310 3.30675 3.93172 7.82189 8.71413 1.59541 5.86609 23.7745
6544322 3.30675 3.93172 7.82189 8.71413 1.59541 5.86609 23.7745
6544330 3.31539 3.97852 7.86395 8.74206 1.61219 5.84443 23.8999
6544341 3.31539 3.97852 7.86395 8.74206 1.61219 5.84443 23.8999
6544351 3.17725 3.93172 7.83241 8.6862 1.70168 5.97372 23.6276
6544362 3.21178 3.92236 7.82189 8.7793 1.75685 5.98289 23.7353
6544371 3.21178 3.92236 7.82189 8.7793 1.75685 5.98289 23.7353
6544384 3.24632 3.93172 7.80087 8.76068 1.73256 5.92903 23.7396
6544391 3.19451 3.90363 7.81138 8.74206 1.73329 5.99661 23.6516
6544405 3.19451 3.90363 7.81138 8.74206 1.73329 5.99661 23.6516
6544411 3.21178 3.89427 7.86395 8.85378 1.75489 6.05173 23.8238
6544423 3.21178 3.89427 7.86395 8.85378 1.75489 6.05173 23.8238
6544431 3.25495 3.90363 7.85343 8.74206 1.61794 5.95913 23.7541
6544441 3.22905 3.89427 7.95857 8.81654 1.59341 6.058 23.8984
6544452 3.22905 3.89427 7.95857 8.81654 1.59341 6.058 23.8984
6544462 3.22905 3.86619 7.86395 8.82585 1.68072 6.05079 23.785
6544472 3.22905 3.913 7.95857 8.75137 1.54783 6.01704 23.852
6544492 3.22042 3.85683 7.87446 8.71413 1.5593 6.02853 23.6658
6544503 3.23768 3.95044 7.93754 8.72344 1.57098 5.95799 23.8491
6544514 3.23768 3.95044 7.93754 8.72344 1.57098 5.95799 23.8491
6544523 3.25495 3.87555 7.89549 8.72344 1.52483 5.99283 23.7494
6544535 3.25495 3.87555 7.89549 8.72344 1.52483 5.99283 23.7494
6544544 3.23768 3.87555 7.88497 8.75137 1.58347 6.0147 23.7496
6544553 3.22905 3.96916 7.91651 8.69551 1.59502 5.93052 23.8102
6544563 3.22905 3.96916 7.91651 8.69551 1.59502 5.93052 23.8102
6544574 3.26359 3.9598 7.906 8.69551 1.55901 5.9044 23.8249
6544583 3.24632 3.99725 7.87446 8.71413 1.66854 5.88177 23.8322
6544604 3.25495 3.90363 7.89549 8.63965 1.46964 5.9361 23.6937
6544625 3.28949 3.93172 7.81138 8.57448 1.48825 5.82325 23.6071
6544639 3.26359 3.94108 7.88497 8.5931 1.46269 5.87352 23.6827
6544645 3.26359 3.94108 7.88497 8.5931 1.46269 5.87352 23.6827
6544655 3.28085 4.01597 7.84292 8.64896 1.61963 5.79796 23.7887
6544665 3.28085 3.95044 7.906 8.58379 1.42002 5.8546 23.7211
6544685 3.32402 4.03469 7.906 8.5931 1.46469 5.74679 23.8578
6544695 3.32402 4.03469 7.906 8.5931 1.46469 5.74679 23.8578
6544705 3.30675 3.96916 7.84292 8.63965 1.53539 5.81265 23.7585
6544715 3.31539 3.99725 7.88497 8.66758 1.5341 5.80757 23.8652
6544725 3.31539 3.99725 7.88497 8.66758 1.5341 5.80757 23.8652
6544735 3.36719 4.00661 7.92703 8.60241 1.37513 5.74544 23.9032
6544746 3.33266 3.97852 7.80087 8.61172 1.53509 5.75461 23.7238
6544755 3.33266 3.97852 7.80087 8.61172 1.53509 5.75461 23.7238
6544767 3.33266 4.06278 7.86395 8.53724 1.47439 5.6767 23.7966
6544790 3.33266 3.98789 7.87446 8.55586 1.40693 5.75334 23.7509
6544796 3.37583 4.05341 7.75881 8.57448 1.57102 5.62065 23.7625
6544806 3.37583 4.05341 7.75881 8.57448 1.57102 5.62065 23.7625
6544817 3.38446 4.07214 7.81138 8.55586 1.50287 5.61033 23.8238
6544827 3.37583 4.07214 7.76933 8.50931 1.51338 5.58277 23.7266
6544840 3.37583 4.07214 7.76933 8.50931 1.51338 5.58277 23.7266
6544847 3.43626 4.04405 7.69573 8.51862 1.50949 5.52911 23.6947
6544857 3.42763 4.0815 7.68522 8.53724 1.58638 5.50743 23.7316
6544867 3.42763 4.0815 7.68522 8.53724 1.58638 5.50743 23.7316
6544877 3.40173 4.09086 7.67471 8.48138 1.58128 5.49513 23.6487
6544887 3.40173 4.09086 7.67471 8.48138 1.58128 5.49513 23.6487
6544898 3.41899 4.09086 7.65368 8.51862 1.62232 5.48669 23.6822
6544907 3.38446 4.11894 7.69573 8.53724 1.65989 5.51658 23.7364
6544931 3.4708 4.15639 7.65368 8.61172 1.71981 5.42316 23.8926
6544942 3.39309 4.15639 7.7483 8.57448 1.66456 5.51265 23.8723
6544948 3.39309 4.10958 7.7483 8.57448 1.61872 5.55295 23.8255
6544962 3.41899 4.14703 7.69573 8.52793 1.63961 5.45886 23.7897
6544968 3.41899 4.14703 7.69573 8.52793 1.63961 5.45886 23.7897
6544979 3.37583 4.06278 7.69573 8.58379 1.66013 5.59124 23.7181
6544989 3.40173 4.1283 7.70625 8.57448 1.67446 5.51265 23.8108
6544998 3.40173 4.1283 7.70625 8.57448 1.67446 5.51265 23.8108
6545009 3.34129 4.1283 7.73779 8.58379 1.71599 5.58105 23.7912
6545019 3.34129 4.1283 7.73779 8.58379 1.71599 5.58105 23.7912
6545029 3.32402 4.09086 7.68522 8.53724 1.71218 5.58919 23.6373
6545039 3.35856 4.14703 7.68522 8.5931 1.78308 5.53278 23.7839
6545051 3.35856 4.14703 7.68522 8.5931 1.78308 5.53278 23.7839
6545059 3.33266 4.1283 7.70625 8.55586 1.73382 5.56493 23.7231
6545069 3.34992 4.18447 7.69573 8.58379 1.8084 5.50841 23.8139
6545078 3.34992 4.18447 7.69573 8.58379 1.8084 5.50841 23.8139
6545089 3.39309 4.15639 7.66419 8.55586 1.74063 5.47165 23.7695
6545110 3.30675 4.11894 7.63265 8.5 1.78231 5.54387 23.5583
6545120 3.37583 4.10022 7.60111 8.52793 1.74879 5.4986 23.6051
6545140 3.38446 4.15639 7.69573 8.48138 1.64177 5.46185 23.718
6545150 3.36719 4.13767 7.70625 8.52793 1.67673 5.5158 23.739
6545170 3.42763 4.1283 7.7483 8.53724 1.562 5.49228 23.8415
6545182 3.39309 4.14703 7.71676 8.54655 1.66334 5.49702 23.8034
6545201 3.35856 4.11894 7.75881 8.54655 1.62735 5.56779 23.7829
6545212 3.35856 4.11894 7.75881 8.54655 1.62735 5.56779 23.7829
6545221 3.35856 4.18447 7.64317 8.52793 1.80344 5.45755 23.7141
6545235 3.40173 4.13767 7.68522 8.51862 1.6524 5.47384 23.7432
6545241 3.40173 4.13767 7.68522 8.51862 1.6524 5.47384 23.7432
6545251 3.40173 4.17511 7.68522 8.49069 1.66176 5.43037 23.7527
6545261 3.40173 4.17511 7.68522 8.49069 1.66176 5.43037 23.7527
6545272 3.38446 4.11894 7.72727 8.51862 1.60618 5.52174 23.7493
6545281 3.38446 4.18447 7.69573 8.49069 1.67854 5.4414 23.7554
6545291 3.38446 4.18447 7.69573 8.49069 1.67854 5.4414 23.7554
6545301 3.39309 4.11894 7.72727 8.5 1.57816 5.50684 23.7393
6545311 3.40173 4.1283 7.72727 8.51862 1.59607 5.49875 23.7759
6545331 3.41899 4.15639 7.71676 8.51862 1.61613 5.45551 23.8108
6545345 3.41899 4.15639 7.71676 8.51862 1.61613 5.45551 23.8108
6545351 3.37583 4.10022 7.71676 8.52793 1.61838 5.54493 23.7207
6545361 3.36719 4.14703 7.73779 8.56517 1.68704 5.53513 23.8172
6545372 3.36719 4.14703 7.73779 8.56517 1.68704 5.53513 23.8172
6545382 3.36719 4.17511 7.75881 8.51862 1.6454 5.50077 23.8197
6545392 3.36719 4.10958 7.72727 8.49069 1.58876 5.53363 23.6947
6545402 3.36719 4.10958 7.72727 8.49069 1.58876 5.53363 23.6947
6545413 3.36719 4.13767 7.76933 8.52793 1.60603 5.54094 23.8021
6545422 3.36719 4.13767 7.76933 8.52793 1.60603 5.54094 23.8021
6545433 3.33266 4.15639 7.7483 8.52793 1.68667 5.54623 23.7653
6545442 3.38446 4.16575 7.80087 8.52793 1.57916 5.51442 23.879
6545454 3.38446 4.16575 7.80087 8.52793 1.57916 5.51442 23.879
6545462 3.31539 4.1283 7.81138 8.55586 1.63517 5.6215 23.8109
6545477 3.33266 4.09086 7.77984 8.56517 1.62351 5.63024 23.7685
6545482 3.33266 4.09086 7.77984 8.56517 1.62351 5.63024 23.7685
6545492 3.34129 4.11894 7.77984 8.62103 1.69611 5.62042 23.8611
6545502 3.34129 4.11894 7.77984 8.62103 1.69611 5.62042 23.8611
6545512 3.34129 4.06278 7.83241 8.65827 1.61892 5.70415 23.8947
6545522 3.32402 4.03469 7.79035 8.61172 1.61194 5.709 23.7608
6545532 3.32402 4.03469 7.79035 8.61172 1.61194 5.709 23.7608
6545542 3.33266 4.10022 7.84292 8.64896 1.64433 5.67968 23.9248
6545552 3.27222 3.98789 7.80087 8.62103 1.62131 5.80301 23.682
6545562 3.27222 3.98789 7.80087 8.62103 1.62131 5.80301 23.682
6545578 3.36719 4.0815 7.75881 8.61172 1.6449 5.61847 23.8192
6545592 3.23768 4.05341 7.76933 8.58379 1.72367 5.74899 23.6442
6545603 3.24632 4.01597 7.77984 8.61172 1.69268 5.78929 23.6538
6545612 3.24632 4.01597 7.77984 8.61172 1.69268 5.78929 23.6538
6545622 3.26359 4.05341 7.88497 8.67689 1.65601 5.80735 23.8789
6545632 3.25495 4.03469 7.85343 8.66758 1.6735 5.81549 23.8107
6545643 3.25495 4.03469 7.85343 8.66758 1.6735 5.81549 23.8107
6545652 3.28085 3.97852 7.89549 8.65827 1.53325 5.85457 23.8131
6545664 3.28085 3.97852 7.89549 8.65827 1.53325 5.85457 23.8131
6545675 3.23768 4.00661 7.93754 8.64896 1.55297 5.88034 23.8308
6545686 3.24632 4.02533 7.89549 8.71413 1.6725 5.86525 23.8813
6545694 3.24632 4.02533 7.89549 8.71413 1.6725 5.86525 23.8813
6545704 3.22042 3.99725 7.85343 8.76999 1.7757 5.91778 23.8411
6545714 3.17725 3.9598 7.84292 8.72344 1.75405 5.96706 23.7034
6545734 3.22042 4.0815 7.86395 8.72344 1.80057 5.83031 23.8893
6545743 3.22042 4.0815 7.86395 8.72344 1.80057 5.83031 23.8893
6545756 3.21178 3.99725 7.87446 8.72344 1.71635 5.91563 23.8069
6545765 3.24632 3.94108 7.92703 8.76068 1.60043 5.96875 23.8751
6545785 3.18588 3.98789 7.88497 8.72344 1.72448 5.95066 23.7822
6545798 3.22042 3.97852 7.85343 8.78861 1.7756 5.9413 23.841
6545805 3.22042 3.97852 7.85343 8.78861 1.7756 5.9413 23.841
6545815 3.17725 4.02533 7.91651 8.76068 1.77164 5.95145 23.8798
6545825 3.17725 4.02533 7.91651 8.76068 1.77164 5.95145 23.8798
6545835 3.19451 3.96916 7.87446 8.75137 1.73559 5.96617 23.7895
6545845 3.19451 3.94108 7.88497 8.81654 1.76 6.01955 23.8371
6545867 3.16861 3.913 7.83241 8.84447 1.84823 6.058 23.7585
6545875 3.14271 3.90363 7.82189 8.80723 1.84395 6.07133 23.6755
6545888 3.14271 3.90363 7.82189 8.80723 1.84395 6.07133 23.6755
6545896 3.13408 3.913 7.87446 8.89102 1.88501 6.12182 23.8126
6545909 3.13408 3.913 7.87446 8.89102 1.88501 6.12182 23.8126
6545916 3.09091 3.90363 7.83241 8.84447 1.92721 6.13546 23.6714
6545926 3.17725 3.913 7.89549 8.86309 1.78557 6.08101 23.8488
6545936 3.17725 3.913 7.89549 8.86309 1.78557 6.08101 23.8488
6545946 3.16861 3.93172 7.80087 8.81654 1.87494 6.01896 23.7177
6545956 3.17725 3.90363 7.80087 8.83516 1.85593 6.04325 23.7169
6545966 3.17725 3.90363 7.80087 8.83516 1.85593 6.04325 23.7169
6545976 3.19451 3.94108 7.84292 8.83516 1.82543 6.01072 23.8137
6545986 3.19451 3.94108 7.84292 8.83516 1.82543 6.01072 23.8137
6545998 3.22042 3.913 7.76933 8.79792 1.81553 5.97062 23.7007
6546006 3.19451 4.04405 7.80087 8.80723 1.94566 5.89361 23.8467
6546019 3.19451 4.04405 7.80087 8.80723 1.94566 5.89361 23.8467
6546026 3.24632 4.01597 7.79035 8.7793 1.84479 5.85813 23.8319
6546036 3.26359 4.01597 7.80087 8.76999 1.80448 5.84348 23.8504
6546057 3.30675 4.02533 7.81138 8.7793 1.76244 5.8053 23.9228
6546067 3.30675 4.02533 7.81138 8.7793 1.76244 5.8053 23.9228
6546077 3.25495 4.03469 7.69573 8.71413 1.89681 5.77241 23.6995
6546088 3.23768 4.07214 7.72727 8.73275 1.93515 5.77425 23.7698
6546097 3.23768 4.07214 7.72727 8.73275 1.93515 5.77425 23.7698
6546109 3.24632 4.01597 7.68522 8.65827 1.84563 5.77054 23.6058
6546117 3.27222 4.05341 7.71676 8.76999 1.92591 5.77081 23.8124
6546128 3.27222 4.05341 7.71676 8.76999 1.92591 5.77081 23.8124
6546139 3.30675 4.05341 7.73779 8.69551 1.79081 5.71993 23.7935
6546150 3.30675 4.05341 7.73779 8.69551 1.79081 5.71993 23.7935
6546158 3.29812 4.04405 7.73779 8.74206 1.83675 5.75371 23.822
6546173 3.28085 4.09086 7.83241 8.7793 1.83137 5.77899 23.9834
6546178 3.28085 4.09086 7.83241 8.7793 1.83137 5.77899 23.9834
6546188 3.27222 4.10022 7.64317 8.67689 1.96446 5.66484 23.6925
6546199 3.33266 4.02533 7.66419 8.66758 1.78987 5.68207 23.6898
6546208 3.33266 4.02533 7.66419 8.66758 1.78987 5.68207 23.6898
6546223 3.35856 4.11894 7.66419 8.63034 1.81572 5.56349 23.772
6546228 3.35856 4.11894 7.66419 8.63034 1.81572 5.56349 23.772
6546239 3.33266 4.10022 7.61163 8.60241 1.85896 5.57017 23.6469
6546249 3.31539 4.10022 7.68522 8.63965 1.83153 5.62916 23.7405
6546259 3.31539 4.10022 7.68522 8.63965 1.83153 5.62916 23.7405
6546269 3.31539 4.11894 7.71676 8.62103 1.79604 5.618 23.7721
6546280 3.39309 4.1283 7.62214 8.65827 1.86051 5.51997 23.8018
6546289 3.39309 4.1283 7.62214 8.65827 1.86051 5.51997 23.8018
6546303 3.37583 4.10022 7.71676 8.63965 1.72799 5.58925 23.8325
6546310 3.37583 4.10022 7.71676 8.63965 1.72799 5.58925 23.8325
6546320 3.37583 4.1283 7.64317 8.5931 1.79274 5.51727 23.7404
6546330 3.40173 4.07214 7.71676 8.63034 1.66239 5.58746 23.821
6546340 3.40173 4.07214 7.71676 8.63034 1.66239 5.58746 23.821
6546350 3.34992 4.06278 7.63265 8.63034 1.80622 5.6072 23.6757
6546360 3.35856 4.05341 7.69573 8.5931 1.6795 5.61808 23.7008
6546370 3.35856 4.05341 7.69573 8.5931 1.6795 5.61808 23.7008
6546380 3.38446 4.11894 7.73779 8.64896 1.72211 5.57762 23.8901
6546390 3.38446 4.11894 7.73779 8.64896 1.72211 5.57762 23.8901
6546400 3.33266 4.01597 7.68522 8.60241 1.69285 5.67286 23.6363
6546412 3.39309 4.07214 7.65368 8.5931 1.70637 5.55513 23.712
6546421 3.39309 4.07214 7.65368 8.5931 1.70637 5.55513 23.712
6546435 3.40173 4.1283 7.7483 8.65827 1.70925 5.56253 23.9366
6546440 3.37583 4.11894 7.72727 8.55586 1.65249 5.54403 23.7779
6546450 3.37583 4.11894 7.72727 8.55586 1.65249 5.54403 23.7779
6546461 3.41036 4.10022 7.7483 8.63965 1.65409 5.57191 23.8985
6546480 3.38446 4.05341 7.66419 8.58379 1.67669 5.57935 23.6859
6546490 3.42763 4.0815 7.67471 8.56517 1.62568 5.51439 23.749
6546510 3.39309 4.10958 7.67471 8.51862 1.64627 5.50134 23.696
6546522 3.40173 4.0815 7.65368 8.5931 1.70585 5.53954 23.73
6546530 3.40173 4.0815 7.65368 8.5931 1.70585 5.53954 23.73
6546543 3.34992 4.0815 7.71676 8.58379 1.68402 5.60581 23.732
6546551 3.34992 4.0815 7.71676 8.58379 1.68402 5.60581 23.732
6546564 3.36719 4.14703 7.69573 8.53724 1.70688 5.50723 23.7472
6546571 3.39309 4.0815 7.73779 8.61172 1.63945 5.58778 23.8241
6546581 3.39309 4.0815 7.73779 8.61172 1.63945 5.58778 23.8241
6546591 3.38446 4.15639 7.72727 8.60241 1.725 5.52281 23.8705
6546611 3.38446 4.09086 7.67471 8.62103 1.73817 5.56586 23.7711
6546621 3.36719 4.03469 7.65368 8.61172 1.71708 5.61758 23.6673
6546632 3.36719 4.03469 7.65368 8.61172 1.71708 5.61758 23.6673
6546641 3.33266 4.05341 7.61163 8.58379 1.79476 5.60356 23.5815
6546652 3.40173 4.05341 7.61163 8.61172 1.74397 5.55454 23.6785
6546662 3.40173 4.05341 7.61163 8.61172 1.74397 5.55454 23.6785
6546672 3.32402 4.04405 7.68522 8.58379 1.71193 5.6485 23.6371
6546682 3.34992 3.9598 7.77984 8.64896 1.55759 5.7622 23.7385
6546693 3.34992 3.9598 7.77984 8.64896 1.55759 5.7622 23.7385
6546703 3.30675 4.01597 7.73779 8.72344 1.78153 5.76345 23.7839
6546723 3.29812 3.93172 7.81138 8.80723 1.70813 5.90527 23.8484
6546739 3.28949 3.92236 7.86395 8.8724 1.71341 5.96569 23.9482
6546743 3.28949 3.92236 7.86395 8.8724 1.71341 5.96569 23.9482
6546754 3.22042 3.82874 7.80087 8.83516 1.73381 6.07143 23.6852
6546764 3.26359 3.90363 7.80087 8.8724 1.79482 5.98103 23.8405
6546785 3.24632 3.87555 7.82189 8.8724 1.76324 6.02895 23.8162
6546806 3.21178 3.82874 7.77984 8.8724 1.80385 6.08522 23.6928
6546815 3.16861 3.77258 7.77984 8.90033 1.8251 6.18443 23.6214
6546830 3.16861 3.77258 7.77984 8.90033 1.8251 6.18443 23.6214
6546835 3.21178 3.76322 7.86395 8.9655 1.73601 6.20963 23.8044
6546846 3.16861 3.72577 7.906 8.93757 1.67319 6.28688 23.738
6546856 3.16861 3.72577 7.906 8.93757 1.67319 6.28688 23.738
6546869 3.20315 3.76322 7.88497 8.95619 1.71299 6.22164 23.8075
6546876 3.15998 3.68833 7.87446 9.06791 1.80932 6.3643 23.7907
6546886 3.15998 3.68833 7.87446 9.06791 1.80932 6.3643 23.7907
6546897 3.24632 3.70705 7.94805 8.99343 1.57577 6.27004 23.8948
6546907 3.24632 3.70705 7.94805 8.99343 1.57577 6.27004 23.8948
6546917 3.15998 3.69769 7.93754 9.03998 1.7203 6.36864 23.8352
6546927 3.20315 3.70705 8.01113 9.04929 1.60828 6.35167 23.9706
6546939 3.20315 3.70705 8.01113 9.04929 1.60828 6.35167 23.9706
6546947 3.09091 3.6696 7.99011 9.10515 1.77498 6.49826 23.8558
6546960 3.14271 3.6228 8.01113 9.08653 1.62958 6.49462 23.8632
6546967 3.14271 3.6228 8.01113 9.08653 1.62958 6.49462 23.8632
6546977 3.15135 3.6696 8.02164 9.10515 1.67214 6.45521 23.9477
6547001 3.09954 3.63216 8.00062 9.03998 1.65316 6.50477 23.7723
6547007 3.05637 3.55727 8.02164 9.11446 1.67761 6.64584 23.7497
6547022 3.05637 3.55727 8.02164 9.11446 1.67761 6.64584 23.7497
6547029 3.09091 3.59471 8.07421 9.01205 1.51612 6.56278 23.7719
6547038 3.03047 3.52919 8.07421 9.08653 1.59254 6.70378 23.7204
6547059 3.05637 3.57599 8.11626 9.12377 1.59925 6.66523 23.8724
6547070 3.05637 3.57599 8.11626 9.12377 1.59925 6.66523 23.8724
6547079 3.02184 3.55727 8.20037 9.07722 1.47996 6.72671 23.8567
6547094 3.02184 3.55727 8.21088 9.11446 1.50495 6.74324 23.9044
6547100 3.02184 3.55727 8.21088 9.11446 1.50495 6.74324 23.9044
6547110 2.99594 3.49174 8.21088 9.0586 1.4138 6.80751 23.7572
6547120 2.99594 3.51046 8.28448 9.08653 1.37848 6.82525 23.8774
6547130 2.99594 3.51046 8.28448 9.08653 1.37848 6.82525 23.8774
6547140 2.99594 3.53855 8.26345 9.13308 1.47532 6.80835 23.931
6547151 2.92687 3.48238 8.29499 9.17032 1.49829 6.94635 23.8746
6547160 2.92687 3.48238 8.29499 9.17032 1.49829 6.94635 23.8746
6547170 2.97004 3.51982 8.29499 9.11446 1.43232 6.8535 23.8993
6547180 2.97004 3.51982 8.29499 9.11446 1.43232 6.8535 23.8993
6547190 2.9096 3.43557 8.33704 9.08653 1.34153 6.99137 23.7687
6547200 2.92687 3.5011 8.28448 8.98412 1.34394 6.86215 23.6966
6547210 2.92687 3.5011 8.28448 8.98412 1.34394 6.86215 23.6966
6547222 2.91823 3.56663 8.3055 8.97481 1.38617 6.81382 23.7652
6547243 2.86643 3.57599 8.33704 8.91895 1.3624 6.84449 23.6984
6547252 2.89233 3.57599 8.38961 8.88171 1.23818 6.82592 23.7396
6547271 2.8837 3.68833 8.38961 8.86309 1.34116 6.72453 23.8247
6547281 2.9614 3.67896 8.38961 8.79792 1.18125 6.63959 23.8279
6547291 2.9614 3.67896 8.38961 8.79792 1.18125 6.63959 23.8279
6547301 2.99594 3.72577 8.43166 8.83516 1.18112 6.59385 23.9885
6547312 2.95277 3.77258 8.43166 8.73275 1.17299 6.55453 23.8898
6547331 2.99594 3.77258 8.41064 8.6862 1.10223 6.49162 23.8654
6547352 2.9873 3.78194 8.38961 8.60241 1.05996 6.45343 23.7613
6547363 3.03047 3.82874 8.40012 8.65827 1.10423 6.39644 23.9176
6547375 3.03047 3.82874 8.40012 8.65827 1.10423 6.39644 23.9176
6547383 2.9873 3.90363 8.48423 8.54655 1.02276 6.35814 23.9217
6547394 3.0132 3.86619 8.41064 8.50931 0.999668 6.32825 23.7993
6547402 3.0132 3.86619 8.41064 8.50931 0.999668 6.32825 23.7993
6547417 3.04774 3.86619 8.43166 8.50931 0.939113 6.30502 23.8549
6547424 3.04774 3.86619 8.43166 8.50931 0.939113 6.30502 23.8549
6547434 3.03047 3.87555 8.45269 8.47207 0.90687 6.30617 23.8308
6547444 3.06501 3.913 8.47372 8.45345 0.865629 6.24289 23.9052
6547453 3.06501 3.913 8.47372 8.45345 0.865629 6.24289 23.9052
6547471 3.06501 3.94108 8.44218 8.42552 0.899956 6.19609 23.8738
6547482 3.03047 3.93172 8.42115 8.38828 0.913247 6.21365 23.7716
6547497 3.03047 3.93172 8.42115 8.38828 0.913247 6.21365 23.7716
6547498 3.06501 3.93172 8.4632 8.36035 0.801688 6.18811 23.8203
6547513 3.03911 3.95044 8.50526 8.35104 0.793764 6.20658 23.8458
6547528 3.11681 3.97852 8.48423 8.36966 0.779924 6.11203 23.9492
6547533 3.11681 3.97852 8.48423 8.36966 0.779924 6.11203 23.9492
6547543 3.09954 4.06278 8.41064 8.28587 0.878569 5.99413 23.8588
6547553 3.08228 4.02533 8.38961 8.33242 0.929374 6.05198 23.8296
6547566 3.08228 4.02533 8.38961 8.33242 0.929374 6.05198 23.8296
6547575 3.09091 4.07214 8.44218 8.32311 0.900772 6.01938 23.9283
6547585 3.09091 4.07214 8.44218 8.32311 0.900772 6.01938 23.9283
6547596 3.10818 4.0815 8.33704 8.34173 1.02437 5.96338 23.8684
6547605 3.12544 4.00661 8.32653 8.39759 0.99788 6.03118 23.8562
6547616 3.12544 4.00661 8.32653 8.39759 0.99788 6.03118 23.8562
6547625 3.15998 4.03469 8.27396 8.26725 0.914228 5.90659 23.7359
6547638 3.17725 4.16575 8.11626 8.28587 1.21931 5.72273 23.7451
6547645 3.17725 4.16575 8.11626 8.28587 1.21931 5.72273 23.7451
6547655 3.22905 4.13767 8.1478 8.27656 1.09009 5.71074 23.7911
6547675 3.22042 4.15639 8.11626 8.29518 1.17168 5.69691 23.7882
6547686 3.21178 4.21255 8.09524 8.24863 1.21398 5.62907 23.7682
6547706 3.26359 4.25 8.02164 8.19277 1.21959 5.50036 23.728
6547716 3.32402 4.30617 7.97959 8.17415 1.23687 5.37562 23.7839
6547736 3.32402 4.36233 7.93754 8.14622 1.31152 5.29913 23.7701
6547757 3.31539 4.28745 7.88497 8.10898 1.26719 5.33407 23.5968
6547767 3.29812 4.3717 7.87446 8.10898 1.38258 5.27219 23.6533
6547780 3.29812 4.3717 7.87446 8.10898 1.38258 5.27219 23.6533
6547791 3.34992 4.44659 7.84292 8.11829 1.44378 5.15498 23.7577
6547797 3.33266 4.47467 7.91651 8.10898 1.39984 5.17239 23.8328
6547808 3.33266 4.47467 7.91651 8.10898 1.39984 5.17239 23.8328
6547818 3.36719 4.48403 7.85343 8.09967 1.43155 5.1053 23.8043
6547828 3.41036 4.51211 7.77984 8.08105 1.47474 5.0067 23.7834
6547839 3.41036 4.51211 7.77984 8.08105 1.47474 5.0067 23.7834
6547849 3.41899 4.53084 7.79035 8.08105 1.47195 4.98814 23.8212
6547861 3.41899 4.53084 7.79035 8.08105 1.47195 4.98814 23.8212
6547868 3.41036 4.48403 7.79035 8.10898 1.46289 5.04646 23.7937
6547882 3.40173 4.48403 7.82189 8.09967 1.42822 5.06303 23.8073
6547890 3.40173 4.48403 7.82189 8.09967 1.42822 5.06303 23.8073
6547898 3.43626 4.55892 7.72727 8.06243 1.53229 4.91563 23.7849
6547908 3.38446 4.54956 7.7483 8.09967 1.59414 4.99156 23.782
6547920 3.38446 4.54956 7.7483 8.09967 1.59414 4.99156 23.782
6547930 3.41036 4.55892 7.76933 8.08105 1.53265 4.96298 23.8197
6547940 3.41036 4.55892 7.76933 8.08105 1.53265 4.96298 23.8197
6547950 3.39309 4.44659 7.75881 8.10898 1.48019 5.07948 23.7075
6547960 3.41036 4.49339 7.79035 8.07174 1.43527 5.02297 23.7658
6547970 3.41036 4.49339 7.79035 8.07174 1.43527 5.02297 23.7658
6547980 3.43626 4.46531 7.76933 8.13691 1.46657 5.0433 23.8078
6547991 3.37583 4.46531 7.77984 8.13691 1.52218 5.0987 23.7579
6548000 3.37583 4.46531 7.77984 8.13691 1.52218 5.0987 23.7579
6548014 3.34992 4.4185 7.89549 8.16484 1.4037 5.21968 23.8288
6548030 3.33266 4.4185 7.92703 8.20208 1.42471 5.26247 23.8803
6548041 3.32402 4.32489 7.88497 8.32311 1.50795 5.38155 23.857
6548051 3.32402 4.32489 7.88497 8.32311 1.50795 5.38155 23.857
6548061 3.31539 4.34361 7.92703 8.2207 1.38816 5.34853 23.8067
6548071 3.32402 4.29681 7.97959 8.28587 1.3387 5.42862 23.8863
6548091 3.26359 4.27808 7.96908 8.34173 1.45389 5.51461 23.8525
6548117 3.22905 4.23128 8.00062 8.35104 1.42013 5.60096 23.812
6548137 3.22042 4.19383 8.04267 8.42552 1.41973 5.68657 23.8824
6548138 3.22042 4.19383 8.04267 8.42552 1.41973 5.68657 23.8824
6548141 3.20315 4.16575 8.10575 8.44414 1.3598 5.7576 23.9188
6548155 3.17725 4.0815 8.09524 8.47207 1.3442 5.86032 23.8261
6548161 3.17725 4.0815 8.09524 8.47207 1.3442 5.86032 23.8261
6548171 3.17725 4.1283 8.21088 8.43483 1.22645 5.84948 23.9513
6548181 3.17725 4.1283 8.21088 8.43483 1.22645 5.84948 23.9513
6548191 3.10818 3.97852 8.21088 8.49069 1.20874 6.06278 23.7883
6548201 3.08228 3.94108 8.24242 8.51862 1.19301 6.14122 23.7844
6548211 3.08228 3.94108 8.24242 8.51862 1.19301 6.14122 23.7844
6548223 3.11681 3.96916 8.20037 8.5931 1.30351 6.09782 23.8794
6548231 3.10818 3.99725 8.23191 8.62103 1.33376 6.10279 23.9584
6548245 3.10818 3.99725 8.23191 8.62103 1.33376 6.10279 23.9584
6548251 3.09091 3.96916 8.26345 8.56517 1.23487 6.13379 23.8887
6548272 3.13408 3.94108 8.24242 8.53724 1.15471 6.10223 23.8548
6548282 3.10818 3.95044 8.20037 8.53724 1.23878 6.10117 23.7962
6548310 3.12544 3.94108 8.25294 8.54655 1.16195 6.11726 23.866
6548312 3.12544 4.00661 8.16883 8.52793 1.30122 6.02089 23.8288
6548322 3.12544 4.00661 8.16883 8.52793 1.30122 6.02089 23.8288
6548332 3.10818 3.95044 8.21088 8.56517 1.25505 6.11553 23.8347
6548353 3.12544 3.97852 8.04267 8.5931 1.47802 6.02269 23.7397
6548362 3.03911 3.98789 8.13729 8.65827 1.5424 6.15083 23.8226
6548377 3.03911 3.98789 8.13729 8.65827 1.5424 6.15083 23.8226
6548384 3.06501 4.03469 8.12678 8.61172 1.52552 6.06514 23.8382
6548401 3.00457 3.98789 8.13729 8.63965 1.56259 6.17463 23.7694
6548414 3.03047 3.9598 8.1478 8.7793 1.63147 6.23197 23.9174
6548424 3.03047 3.9598 8.1478 8.7793 1.63147 6.23197 23.9174
6548434 2.99594 3.92236 8.16883 8.8724 1.70077 6.33752 23.9595
6548449 2.99594 3.93172 8.13729 8.9655 1.83516 6.3514 24.0304
6548455 2.99594 3.93172 8.13729 8.9655 1.83516 6.3514 24.0304
6548473 3.03911 3.89427 8.16883 8.88171 1.63448 6.32747 23.9839
6548475 2.95277 3.84747 8.13729 8.86309 1.70216 6.4285 23.8006
6548485 2.95277 3.84747 8.13729 8.86309 1.70216 6.4285 23.8006
6548498 3.0132 3.84747 8.1478 8.85378 1.61368 6.37466 23.8623
6548507 3.0132 3.84747 8.1478 8.85378 1.61368 6.37466 23.8623
6548515 2.97004 3.83811 8.15832 8.81654 1.60439 6.41218 23.783
6548525 2.94413 3.84747 8.16883 8.91895 1.73104 6.46762 23.8794
6548535 2.94413 3.84747 8.16883 8.91895 1.73104 6.46762 23.8794
6548546 2.9096 3.7913 8.21088 8.78861 1.53945 6.51799 23.7004
6548556 2.92687 3.77258 8.27396 8.88171 1.52321 6.57483 23.8551
6548566 2.92687 3.77258 8.27396 8.88171 1.52321 6.57483 23.8551
6548576 2.9873 3.78194 8.35807 8.92826 1.41841 6.558 24.0556
6548586 2.9873 3.78194 8.35807 8.92826 1.41841 6.558 24.0556
6548596 2.9355 3.78194 8.41064 8.86309 1.35351 6.60011 23.9912
6548606 2.94413 3.70705 8.45269 8.90033 1.26077 6.68748 24.0042
6548617 2.94413 3.70705 8.45269 8.90033 1.26077 6.68748 24.0042
6548626 2.8837 3.67896 8.40012 8.83516 1.29245 6.72703 23.7979
6548637 2.9355 3.6696 8.49474 8.88171 1.16868 6.73727 23.9816
6548649 2.9355 3.6696 8.49474 8.88171 1.16868 6.73727 23.9816
6548657 2.9096 3.75385 8.48423 8.86309 1.27351 6.67442 24.0108
6548671 2.89233 3.75385 8.45269 8.86309 1.32702 6.67908 23.962
6548677 2.89233 3.61344 8.45269 8.85378 1.17817 6.80367 23.8122
6548687 2.92687 3.69769 8.5368 8.78861 1.06747 6.70201 23.95
6548697 2.92687 3.69769 8.5368 8.78861 1.06747 6.70201 23.95
6548707 2.89233 3.68833 8.55782 8.78861 1.07282 6.74911 23.9271
6548720 2.90096 3.66024 8.51577 8.82585 1.11844 6.76515 23.9028
6548727 2.90096 3.66024 8.51577 8.82585 1.11844 6.76515 23.9028
6548737 2.95277 3.71641 8.57885 8.78861 1.01241 6.67623 24.0366
6548747 2.95277 3.71641 8.49474 8.78861 1.10375 6.64701 23.9525
6548763 2.9355 3.61344 8.49474 8.76068 0.991279 6.74655 23.8044
6548771 2.9614 3.64152 8.52628 8.72344 0.919473 6.69536 23.8526
6548780 2.9614 3.64152 8.52628 8.72344 0.919473 6.69536 23.8526
6548789 2.9355 3.65088 8.45269 8.66758 0.981024 6.66515 23.7066
6548799 2.97867 3.71641 8.4632 8.66758 0.988543 6.56999 23.8259
6548810 2.97867 3.71641 8.4632 8.66758 0.988543 6.56999 23.8259
6548823 2.97004 3.75385 8.51577 8.71413 1.02508 6.57893 23.9538
6548830 3.00457 3.70705 8.38961 8.66758 1.03123 6.52887 23.7688
6548841 3.00457 3.70705 8.38961 8.66758 1.03123 6.52887 23.7688
6548851 3.04774 3.82874 8.36858 8.6862 1.14768 6.37971 23.9313
6548865 3.03911 3.76322 8.42115 8.69551 1.04359 6.4683 23.919
6548871 3.03911 3.76322 8.42115 8.69551 1.04359 6.4683 23.919
6548881 3.08228 3.80066 8.31602 8.74206 1.19505 6.37513 23.941
6548901 3.04774 3.80066 8.34756 8.65827 1.11472 6.38719 23.8542
6548913 3.09954 3.83811 8.29499 8.66758 1.16228 6.29173 23.9002
6548922 3.09954 3.83811 8.29499 8.66758 1.16228 6.29173 23.9002
6548934 3.06501 3.87555 8.34756 8.63034 1.14276 6.29472 23.9185
6548942 3.03047 3.84747 8.23191 8.67689 1.32634 6.32549 23.7867
6548956 3.03047 3.84747 8.23191 8.67689 1.32634 6.32549 23.7867
6548962 3.05637 3.81938 8.28448 8.70482 1.23962 6.3567 23.8651
6548983 3.08228 3.82874 8.24242 8.65827 1.22032 6.29291 23.8117
6548992 3.03047 3.82874 8.27396 8.70482 1.28904 6.36771 23.838
6549002 3.03047 3.82874 8.27396 8.70482 1.28904 6.36771 23.838
6549014 3.03047 3.93172 8.25294 8.6862 1.39585 6.26133 23.9013
6549023 3.09091 3.86619 8.25294 8.75137 1.32892 6.28962 23.9614
6549046 3.08228 3.87555 8.23191 8.75137 1.3708 6.28132 23.9411
6549071 3.07364 3.93172 8.2214 8.73275 1.4289 6.2285 23.9595
6549075 3.15135 3.94108 8.1478 8.71413 1.41525 6.11758 23.9544
6549095 3.13408 3.913 8.11626 8.62103 1.34929 6.1113 23.7844
6549105 3.16861 3.97852 8.1478 8.63965 1.3597 6.04166 23.9346
6549119 3.16861 3.97852 8.1478 8.63965 1.3597 6.04166 23.9346
6549126 3.21178 4.00661 8.09524 8.56517 1.32414 5.93122 23.8788
6549144 3.18588 3.99725 8.12678 8.53724 1.28089 5.96354 23.8471
6549146 3.18588 3.99725 8.12678 8.53724 1.28089 5.96354 23.8471
6549156 3.24632 4.00661 8.10575 8.45345 1.16326 5.86231 23.8121
6549167 3.24632 4.00661 8.10575 8.45345 1.16326 5.86231 23.8121
6549176 3.18588 3.9598 7.94805 8.46276 1.36759 5.89973 23.5565
6549187 3.15135 4.04405 8.05318 8.49069 1.40086 5.90697 23.7393
6549196 3.15135 4.04405 8.05318 8.49069 1.40086 5.90697 23.7393
6549209 3.17725 4.10022 8.02164 8.49069 1.46283 5.82279 23.7898
6549217 3.22905 4.04405 8.09524 8.5 1.2776 5.85847 23.8683
6549235 3.22905 4.04405 8.09524 8.5 1.2776 5.85847 23.8683
6549240 3.21178 4.06278 8.09524 8.57448 1.38889 5.88564 23.9443
6549247 3.21178 4.06278 8.09524 8.57448 1.38889 5.88564 23.9443
6549259 3.14271 3.98789 8.09524 8.52793 1.34491 5.99436 23.7538
6549269 3.17725 4.02533 8.09524 8.5931 1.40843 5.95567 23.8909
6549286 3.17725 4.02533 8.09524 8.5931 1.40843 5.95567 23.8909
6549288 3.11681 4.02533 8.08472 8.49069 1.38556 5.96601 23.7176
6549298 3.11681 4.01597 8.0637 8.54655 1.45518 5.98753 23.743
6549319 3.15135 3.96916 7.97959 8.60241 1.5195 5.98765 23.7025
6549334 3.15998 4.00661 8.02164 8.60241 1.49995 5.96293 23.7906
6549341 3.15998 4.00661 8.02164 8.60241 1.49995 5.96293 23.7906
6549350 3.15135 3.97852 8.0637 8.61172 1.44422 6.01477 23.8053
6549360 3.15135 3.97852 8.0637 8.61172 1.44422 6.01477 23.8053
6549370 3.08228 3.99725 8.01113 8.63034 1.6169 6.04651 23.721
6549380 3.12544 4.02533 8.03216 8.65827 1.60017 6.002 23.8412
6549390 3.12544 4.02533 8.03216 8.65827 1.60017 6.002 23.8412
6549403 3.17725 4.01597 8.05318 8.66758 1.51911 5.97614 23.914
6549418 3.09091 3.99725 8.01113 8.69551 1.67128 6.0634 23.7948
6549420 3.09091 3.99725 8.01113 8.69551 1.67128 6.0634 23.7948
6549430 3.14271 3.95044 8.02164 8.67689 1.53727 6.05593 23.7917
6549440 3.14271 3.95044 8.02164 8.67689 1.53727 6.05593 23.7917
6549451 3.13408 3.96916 8.04267 8.63965 1.50518 6.0409 23.7856
6549461 3.11681 3.97852 7.99011 8.69551 1.64745 6.04914 23.7809
6549481 3.18588 3.97852 8.00062 8.64896 1.51275 5.97454 23.814
6549491 3.15998 4.01597 7.99011 8.69551 1.63589 5.97802 23.8616
6549502 3.15998 4.01597 7.99011 8.69551 1.63589 5.97802 23.8616
6549512 3.13408 3.96916 8.0637 8.6862 1.52767 6.06628 23.8531
6549522 3.13408 3.96916 8.0637 8.6862 1.52767 6.06628 23.8531
6549533 3.08228 4.00661 8.00062 8.63965 1.64709 6.03775 23.7292
6549542 3.13408 3.98789 7.97959 8.6862 1.63994 6.01811 23.7878
6549553 3.13408 3.98789 7.97959 8.6862 1.63994 6.01811 23.7878
6549562 3.16861 4.01597 8.01113 8.67689 1.58457 5.97134 23.8726
6549578 3.13408 3.97852 7.97959 8.64896 1.59408 6.01231 23.7412
6549583 3.13408 3.97852 7.97959 8.64896 1.59408 6.01231 23.7412
6549593 3.16861 4.05341 8.04267 8.66758 1.57706 5.94692 23.9323
6549604 3.11681 4.05341 7.96908 8.61172 1.66229 5.94326 23.751
6549613 3.11681 4.01597 7.96908 8.61172 1.62544 5.97633 23.7136
6549624 3.12544 4.05341 7.94805 8.6862 1.74916 5.956 23.8131
6549633 3.12544 4.05341 7.94805 8.6862 1.74916 5.956 23.8131
6549646 3.15998 3.99725 7.96908 8.65827 1.60446 5.97244 23.7846
6549654 3.13408 3.94108 8.04267 8.62103 1.45896 6.05876 23.7389
6549668 3.13408 3.94108 8.04267 8.62103 1.45896 6.05876 23.7389
6549673 3.15135 3.97852 8.04267 8.61172 1.46759 6.00682 23.7843
6549684 3.15135 3.97852 8.04267 8.61172 1.46759 6.00682 23.7843
6549693 3.15135 4.01597 8.02164 8.61172 1.528 5.96583 23.8007
6549704 3.15998 3.96916 8.10575 8.63965 1.4064 6.04174 23.8745
6549714 3.15998 3.96916 8.10575 8.63965 1.4064 6.04174 23.8745
6549723 3.15135 3.97852 8.08472 8.65827 1.46686 6.0402 23.8729
6549734 3.17725 3.90363 8.08472 8.55586 1.26207 6.04497 23.7215
6549743 3.17725 3.90363 8.08472 8.55586 1.26207 6.04497 23.7215
6549753 3.16861 3.95044 8.07421 8.63034 1.40402 6.0353 23.8236
6549763 3.16861 3.95044 8.07421 8.63034 1.40402 6.0353 23.8236
6549775 3.13408 3.93172 8.15832 8.57448 1.27508 6.09301 23.7986
6549784 3.15998 3.97852 8.09524 8.60241 1.39045 6.01553 23.8362
6549796 3.15998 3.97852 8.09524 8.60241 1.39045 6.01553 23.8362
6549804 3.16861 4.00661 8.09524 8.63965 1.44542 5.99725 23.9101
6549819 3.14271 3.97852 8.09524 8.55586 1.36338 6.0132 23.7723
6549824 3.14271 3.97852 8.09524 8.55586 1.36338 6.0132 23.7723
6549833 3.14271 3.92236 8.12678 8.61172 1.32815 6.09579 23.8036
6549853 3.10818 3.90363 8.07421 8.55586 1.35047 6.10247 23.6419
6549865 3.15998 3.92236 8.15832 8.61172 1.27427 6.09229 23.8524
6549873 3.15998 3.92236 8.15832 8.61172 1.27427 6.09229 23.8524
6549886 3.13408 3.85683 8.0637 8.64896 1.37955 6.15208 23.7036
6549893 3.09954 3.90363 8.15832 8.64896 1.35942 6.17634 23.8105
6549907 3.09954 3.90363 8.15832 8.64896 1.35942 6.17634 23.8105
6549913 3.12544 3.92236 8.13729 8.66758 1.39104 6.13583 23.8527
6549923 3.12544 3.92236 8.13729 8.66758 1.39104 6.13583 23.8527
6549934 3.06501 3.89427 8.21088 8.70482 1.38555 6.25535 23.875
6549943 3.09954 3.84747 8.21088 8.76068 1.35639 6.28668 23.9186
6549954 3.09954 3.84747 8.21088 8.76068 1.35639 6.28668 23.9186
6549966 3.09091 3.83811 8.20037 8.71413 1.32212 6.28189 23.8435
6549983 3.08228 3.7913 8.24242 8.66758 1.19219 6.32985 23.7836
6549994 3.06501 3.81938 8.27396 8.7793 1.31562 6.3721 23.9377
6550015 3.05637 3.77258 8.2214 8.72344 1.28108 6.38259 23.7738
6550025 3.06501 3.82874 8.23191 8.69551 1.28807 6.31812 23.8212
6550040 3.06501 3.82874 8.23191 8.69551 1.28807 6.31812 23.8212
6550049 3.04774 3.83811 8.2214 8.70482 1.33733 6.32476 23.8121
6550057 3.04774 3.83811 8.2214 8.70482 1.33733 6.32476 23.8121
6550066 3.05637 3.85683 8.21088 8.69551 1.34876 6.29305 23.8196
6550075 3.05637 3.76322 8.29499 8.74206 1.20921 6.42429 23.8566
6550085 3.05637 3.76322 8.29499 8.74206 1.20921 6.42429 23.8566
6550096 3.0132 3.80066 8.28448 8.72344 1.28708 6.41895 23.8218
6550106 3.05637 3.74449 8.23191 8.74206 1.26002 6.4184 23.7748
6550116 3.05637 3.74449 8.23191 8.74206 1.26002 6.4184 23.7748
6550126 2.9873 3.84747 8.25294 8.72344 1.3971 6.38878 23.8111
6550136 2.9873 3.84747 8.25294 8.72344 1.3971 6.38878 23.8111
6550146 3.03911 3.78194 8.31602 8.76068 1.24227 6.43721 23.8977
6550156 2.9873 3.80066 8.35807 8.79792 1.30848 6.49518 23.944
6550166 2.9873 3.80066 8.35807 8.79792 1.30848 6.49518 23.944
6550177 2.9873 3.7913 8.33704 8.73275 1.25763 6.47288 23.8484
6550196 3.03911 3.76322 8.35807 8.7793 1.19607 6.47568 23.9397
6550211 3.03047 3.71641 8.44218 8.79792 1.08567 6.56182 23.987
6550226 3.03047 3.69769 8.35807 8.81654 1.17736 6.55559 23.9028
6550236 3.03047 3.72577 8.38961 8.81654 1.17082 6.54144 23.9624
6550246 3.03047 3.72577 8.38961 8.81654 1.17082 6.54144 23.9624
6550256 2.97867 3.71641 8.34756 8.7793 1.22732 6.5686 23.8219
6550266 3.05637 3.65088 8.31602 8.81654 1.14832 6.5596 23.8398
6550277 3.05637 3.65088 8.31602 8.81654 1.14832 6.5596 23.8398
6550287 2.9873 3.73513 8.40012 8.80723 1.20659 6.5723 23.9298
6550298 2.9873 3.73513 8.40012 8.80723 1.20659 6.5723 23.9298
6550307 2.99594 3.6696 8.3055 8.78861 1.21716 6.58379 23.7597
6550319 2.97867 3.65088 8.26345 8.83516 1.31059 6.61812 23.7282
6550327 2.97867 3.65088 8.26345 8.83516 1.31059 6.61812 23.7282
6550342 2.9873 3.6696 8.28448 8.7793 1.24061 6.58088 23.7207
6550347 2.97004 3.63216 8.26345 8.82585 1.29215 6.63979 23.6915
6550357 2.97004 3.63216 8.26345 8.82585 1.29215 6.63979 23.6915
6550367 2.94413 3.68833 8.3055 8.8724 1.37659 6.6434 23.8104
6550387 2.9096 3.61344 8.32653 8.92826 1.37267 6.77002 23.7778
6550397 2.9355 3.64152 8.26345 8.92826 1.44184 6.69873 23.7687
6550410 2.9355 3.64152 8.26345 8.92826 1.44184 6.69873 23.7687
6550417 2.95277 3.67896 8.28448 8.92826 1.43637 6.65626 23.8445
6550432 2.9873 3.67896 8.28448 8.97481 1.44405 6.64124 23.9256
6550437 2.9873 3.67896 8.28448 8.97481 1.44405 6.64124 23.9256
6550447 2.94413 3.6696 8.3055 9.01205 1.49596 6.70909 23.9313
6550467 2.9614 3.54791 8.24242 9.02136 1.43591 6.7857 23.7731
6550480 2.9873 3.64152 8.2214 9.01205 1.51376 6.66614 23.8623
6550487 2.9873 3.64152 8.2214 9.01205 1.51376 6.66614 23.8623
6550497 2.9873 3.65088 8.21088 8.9655 1.48878 6.63766 23.8146
6550507 2.99594 3.70705 8.2214 8.98412 1.54112 6.5892 23.9085
6550518 2.99594 3.70705 8.2214 8.98412 1.54112 6.5892 23.9085
6550527 3.04774 3.66024 8.23191 8.94688 1.38933 6.57527 23.8868
6550542 3.04774 3.66024 8.23191 8.94688 1.38933 6.57527 23.8868
6550547 2.97004 3.67896 8.1478 8.95619 1.59697 6.60232 23.753
6550558 3.03047 3.6696 8.21088 8.93757 1.43176 6.57171 23.8485
6550578 3.03911 3.67896 8.20037 8.95619 1.46146 6.55831 23.8746
6550590 2.97867 3.68833 8.17934 8.90033 1.50615 6.57735 23.7467
6550599 2.97867 3.68833 8.17934 8.90033 1.50615 6.57735 23.7467
6550609 3.0132 3.69769 8.23191 8.94688 1.46449 6.57265 23.8897
6550628 2.9873 3.64152 8.18986 8.95619 1.49375 6.63551 23.7749
6550639 3.04774 3.67896 8.21088 8.9655 1.44943 6.55753 23.9031
6550649 3.04774 3.67896 8.21088 8.9655 1.44943 6.55753 23.9031
6550659 3.04774 3.66024 8.2214 8.92826 1.38254 6.56499 23.8576
6550677 3.08228 3.72577 8.17934 8.86309 1.39121 6.43659 23.8505
6550686 3.08228 3.72577 8.17934 8.86309 1.39121 6.43659 23.8505
6550696 3.04774 3.68833 8.2214 8.95619 1.43786 6.54951 23.9137
6550704 3.04774 3.68833 8.2214 8.95619 1.43786 6.54951 23.9137
6550710 3.04774 3.70705 8.23191 8.90033 1.38959 6.51658 23.887
6550720 3.05637 3.66024 8.20037 8.91895 1.38703 6.54644 23.8359
6550740 3.09091 3.70705 8.16883 8.82585 1.33776 6.42849 23.7926
6550751 3.08228 3.69769 8.16883 8.82585 1.33801 6.44471 23.7746
6550762 3.08228 3.69769 8.16883 8.82585 1.33801 6.44471 23.7746
6550771 3.10818 3.74449 8.1478 8.81654 1.36987 6.36835 23.817
6550791 3.03911 3.74449 8.16883 8.88171 1.48764 6.46149 23.8341
6550804 3.03911 3.76322 8.29499 8.8724 1.35746 6.48635 23.9697
6550811 3.03911 3.76322 8.29499 8.8724 1.35746 6.48635 23.9697
6550821 3.07364 3.77258 8.16883 8.84447 1.44028 6.39184 23.8595
6550831 3.04774 3.78194 8.17934 8.79792 1.42057 6.39367 23.8069
6550841 3.04774 3.78194 8.17934 8.79792 1.42057 6.39367 23.8069
6550851 3.08228 3.81002 8.11626 8.78861 1.47086 6.3112 23.7972
6550861 3.08228 3.81002 8.11626 8.78861 1.47086 6.3112 23.7972
6550871 3.04774 3.71641 8.05318 8.7793 1.47774 6.40028 23.5966
6550881 3.06501 3.74449 8.09524 8.82585 1.48553 6.39149 23.7306
6550892 3.06501 3.74449 8.09524 8.82585 1.48553 6.39149 23.7306
6550901 3.05637 3.72577 8.21088 8.84447 1.36653 6.46453 23.8375
6550911 3.00457 3.74449 8.18986 8.83516 1.45665 6.4835 23.7741
6550921 3.00457 3.74449 8.18986 8.83516 1.45665 6.4835 23.7741
6550932 3.09091 3.70705 8.17934 8.88171 1.38156 6.45234 23.859
6550941 3.09091 3.70705 8.17934 8.88171 1.38156 6.45234 23.859
6550953 3.03047 3.73513 8.1478 8.8724 1.50221 6.46684 23.7858
6550961 3.06501 3.85683 8.12678 8.89102 1.62498 6.32589 23.9396
6550972 3.06501 3.85683 8.12678 8.89102 1.62498 6.32589 23.9396
6550981 3.09954 3.82874 8.15832 8.86309 1.49686 6.32145 23.9497
6550995 3.05637 3.80066 8.1478 8.8724 1.53795 6.38464 23.8772
6551012 3.13408 3.76322 8.08472 8.86309 1.47567 6.32238 23.8451
6551022 3.13408 3.76322 8.08472 8.86309 1.47567 6.32238 23.8451
6551033 3.14271 3.84747 8.05318 8.79792 1.51994 6.20411 23.8413
6551043 3.07364 3.78194 8.05318 8.76068 1.49538 6.31085 23.6694
6551054 3.07364 3.78194 8.05318 8.76068 1.49538 6.31085 23.6694
6551070 3.09954 3.82874 8.03216 8.76999 1.54552 6.24126 23.7304
6551074 3.13408 3.81938 8.05318 8.75137 1.45582 6.21964 23.758
6551100 3.19451 3.92236 8.08472 8.71413 1.41878 6.07256 23.9157
6551106 3.19451 3.92236 8.08472 8.71413 1.41878 6.07256 23.9157
6551115 3.14271 3.86619 7.96908 8.66758 1.50343 6.10755 23.6456
6551125 3.15998 3.89427 7.99011 8.75137 1.57125 6.10649 23.7957
6551135 3.15998 3.89427 7.99011 8.75137 1.57125 6.10649 23.7957
6551146 3.18588 3.92236 8.03216 8.72344 1.49573 6.064 23.8638
6551155 3.18588 3.83811 8.03216 8.72344 1.41246 6.13863 23.7796
6551167 3.18588 3.83811 8.03216 8.72344 1.41246 6.13863 23.7796
6551175 3.17725 3.9598 8.04267 8.69551 1.50301 6.03207 23.8752
6551195 3.15998 3.90363 8.07421 8.63965 1.3764 6.08785 23.7775
6551205 3.25495 3.92236 8.03216 8.63965 1.33642 5.9716 23.8491
6551216 3.25495 3.92236 8.03216 8.63965 1.33642 5.9716 23.8491
6551226 3.16861 3.93172 7.96908 8.56517 1.43772 5.98736 23.6346
6551236 3.21178 3.94108 8.05318 8.63034 1.37023 5.99755 23.8364
6551246 3.21178 3.94108 8.05318 8.63034 1.37023 5.99755 23.8364
6551256 3.22905 3.93172 7.94805 8.5 1.32855 5.90073 23.6088
6551266 3.22905 3.93172 8.01113 8.5 1.25839 5.92498 23.6719
6551278 3.22905 3.92236 8.01113 8.60241 1.35134 5.97232 23.7649
6551286 3.26359 3.98789 8.0637 8.57448 1.29249 5.89379 23.8896
6551306 3.28085 3.98789 8.03216 8.55586 1.28971 5.85952 23.8568
6551316 3.24632 3.98789 7.97959 8.63034 1.45981 5.89813 23.8441
6551326 3.24632 3.98789 7.97959 8.63034 1.45981 5.89813 23.8441
6551346 3.24632 4.03469 7.97959 8.52793 1.40479 5.81783 23.7885
