7741195 16.2337 18.7797 20.5536 19.0848 0.360784 0.929303 74.6518
7741207 16.2337 18.7797 20.5536 19.0848 0.360784 0.929303 74.6518
7741214 16.3041 18.7992 20.4551 19.0946 0.37992 0.893401 74.653
7741224 16.3041 18.877 20.5142 19.0848 0.38228 0.886166 74.7802
7741234 16.3041 18.877 20.5142 19.0848 0.38228 0.886166 74.7802
7741244 16.3041 18.877 20.5536 19.0458 0.356087 0.886243 74.7806
7741255 16.3041 18.877 20.5536 19.0458 0.356087 0.886243 74.7806
7741264 16.3482 18.8478 20.4945 19.0361 0.348347 0.870089 74.7266
7741274 16.3746 18.9256 20.4158 19.0069 0.382125 0.827537 74.7229
7741284 16.3746 18.9256 20.4158 19.0069 0.382125 0.827537 74.7229
7741294 16.401 18.8576 20.4551 18.9095 0.305149 0.825344 74.6232
7741304 16.3922 18.9159 20.3764 18.9874 0.379896 0.814694 74.6719
7741315 16.3922 18.9159 20.3764 18.9874 0.379896 0.814694 74.6719
7741324 16.3922 18.9451 20.3961 18.9679 0.376397 0.808554 74.7013
7741334 16.401 18.9451 20.4551 18.9289 0.340512 0.810506 74.7302
7741344 16.401 18.8673 20.4551 18.9289 0.314814 0.826984 74.6524
7741356 16.401 18.9451 20.4847 18.9192 0.327286 0.814263 74.75
7741365 16.401 18.9451 20.4847 18.9192 0.327286 0.814263 74.75
7741374 16.4187 18.9354 20.3862 18.9095 0.348273 0.792035 74.6497
7741393 16.3746 18.9451 20.5339 18.9387 0.325993 0.83288 74.7923
7741396 16.3746 18.9451 20.5339 18.9387 0.325993 0.83288 74.7923
7741406 16.4627 18.9548 20.4059 18.9776 0.355563 0.795321 74.8011
7741416 16.4187 18.9548 20.3173 18.8705 0.365245 0.767357 74.5613
7741426 16.4187 18.9548 20.3173 18.8705 0.365245 0.767357 74.5613
7741436 16.4098 19.0812 20.3173 18.89 0.416356 0.746242 74.6984
7741456 16.4451 18.9354 20.2484 18.8413 0.363612 0.747126 74.4701
7741466 16.4627 19.1104 20.3173 18.8705 0.401577 0.72525 74.7609
7741476 16.4627 19.1104 20.3173 18.8705 0.401577 0.72525 74.7609
7741486 16.5155 19.1396 20.3173 18.8997 0.402832 0.713595 74.8722
7741497 16.5155 19.091 20.1992 18.8413 0.407746 0.690038 74.647
7741506 16.5155 19.091 20.1992 18.8413 0.407746 0.690038 74.647
7741516 16.4803 19.1007 20.209 18.89 0.435629 0.706617 74.68
7741537 16.5155 19.1785 20.1893 18.7731 0.417465 0.656682 74.6564
7741546 16.5067 19.159 20.209 18.7731 0.407359 0.666395 74.6479
7741557 16.5067 19.159 20.209 18.7731 0.407359 0.666395 74.6479
7741566 16.5508 19.1396 20.1795 18.7925 0.40243 0.659307 74.6624
7741576 16.5772 19.1493 20.1992 18.7731 0.383538 0.651766 74.6988
7741586 16.5772 19.1493 20.1992 18.7731 0.383538 0.651766 74.6988
7741596 16.586 19.159 20.1697 18.8218 0.409824 0.651568 74.7365
7741606 16.586 19.159 20.1697 18.8218 0.409824 0.651568 74.7365
7741616 16.5596 19.1007 20.1697 18.8315 0.402805 0.67121 74.6614
7741626 16.5948 19.1493 20.1992 18.8023 0.38718 0.653687 74.7456
7741647 16.586 19.1201 20.15 18.7633 0.384444 0.644701 74.6194
7741657 16.6124 19.1201 20.1893 18.812 0.378141 0.65609 74.7339
7741668 16.6124 19.1201 20.1893 18.812 0.378141 0.65609 74.7339
7741679 16.6741 19.1104 20.1598 18.812 0.364029 0.639546 74.7564
7741699 16.5948 18.984 20.2386 18.7438 0.299901 0.684727 74.5612
7741709 16.586 18.9937 20.2287 18.851 0.34489 0.703193 74.6594
7741719 16.586 18.9937 20.2287 18.851 0.34489 0.703193 74.6594
7741729 16.6829 19.0423 20.2583 18.8802 0.32773 0.683892 74.8637
7741740 16.6301 19.0521 20.209 18.8315 0.349453 0.67418 74.7227
7741749 16.6301 19.0521 20.209 18.8315 0.349453 0.67418 74.7227
7741760 16.6829 19.1201 20.1697 18.8023 0.357693 0.635689 74.775
7741769 16.6829 19.1201 20.1697 18.8023 0.357693 0.635689 74.775
7741779 16.6477 19.0812 20.1106 18.7341 0.35437 0.626721 74.5736
7741789 16.7093 19.1201 20.1401 18.6951 0.323382 0.60386 74.6647
7741799 16.7093 19.1201 20.1401 18.6951 0.323382 0.60386 74.6647
7741809 16.7093 19.1493 20.1401 18.6854 0.329807 0.595885 74.6842
7741819 16.7446 19.1201 20.1204 18.6659 0.308451 0.58706 74.651
7741829 16.7446 19.1201 20.1204 18.6659 0.308451 0.58706 74.651
7741839 16.771 19.1882 20.0811 18.6951 0.344983 0.565394 74.7354
7741851 16.771 19.1882 20.0811 18.6951 0.344983 0.565394 74.7354
7741859 16.7798 19.1396 19.9433 18.6951 0.372756 0.547026 74.5578
7741871 16.8238 19.1396 20.0712 18.6367 0.295028 0.551312 74.6713
7741880 16.8238 19.1396 20.0712 18.6367 0.295028 0.551312 74.6713
7741890 16.8503 19.2174 20.0122 18.6172 0.325367 0.514417 74.697
7741900 16.8415 19.2077 20.0318 18.5782 0.305584 0.514528 74.6592
7741920 16.8503 19.2368 19.9629 18.51 0.313058 0.479988 74.5601
7741930 16.8503 19.2368 19.9629 18.51 0.313058 0.479988 74.5601
7741940 16.8679 19.1493 20.0122 18.5198 0.264606 0.50599 74.5491
7741952 16.8767 19.1785 20.0417 18.5198 0.261298 0.503833 74.6166
7741960 16.8767 19.1785 20.0417 18.5198 0.261298 0.503833 74.6166
7741971 16.8855 19.091 20.0023 18.5393 0.24907 0.516341 74.518
7741981 16.8415 19.1104 20.0417 18.5295 0.253874 0.52722 74.5231
7741991 16.8415 19.1104 20.0417 18.5295 0.253874 0.52722 74.5231
7742001 16.8238 19.1493 20.0712 18.4905 0.249818 0.520955 74.5349
7742018 16.8238 19.1493 20.0712 18.4905 0.249818 0.520955 74.5349
7742025 16.8503 19.1493 20.0811 18.5587 0.260162 0.530598 74.6394
7742034 16.8062 19.1493 20.1106 18.5587 0.265074 0.54549 74.6249
7742051 16.8238 19.091 20.0909 18.6367 0.272265 0.565254 74.6424
7742061 16.8238 19.091 20.0909 18.6367 0.272265 0.565254 74.6424
7742070 16.8591 19.0521 20.2386 18.5977 0.184667 0.587007 74.7474
7742080 16.8326 19.0326 20.209 18.6464 0.213242 0.600277 74.7207
7742101 16.8062 18.9743 20.2583 18.6951 0.202358 0.63684 74.7339
7742111 16.7622 18.9937 20.3173 18.7244 0.213432 0.658937 74.7976
7742121 16.7622 18.9937 20.3173 18.7244 0.213432 0.658937 74.7976
7742131 16.7798 19.0521 20.2878 18.7633 0.249657 0.644857 74.883
7742141 16.7798 19.0521 20.2878 18.7633 0.249657 0.644857 74.883
7742151 16.7534 18.984 20.2878 18.6854 0.210217 0.64967 74.7105
7742164 16.7622 18.9451 20.3665 18.7146 0.177494 0.676687 74.7884
7742182 16.7269 18.8965 20.3075 18.7341 0.199604 0.686701 74.665
7742191 16.6741 18.9256 20.4059 18.7244 0.190681 0.708659 74.73
7742201 16.6741 18.9256 20.4059 18.7244 0.190681 0.708659 74.73
7742211 16.6741 18.8478 20.3665 18.7438 0.184587 0.721226 74.6323
7742232 16.6124 18.8478 20.4256 18.7828 0.198412 0.752955 74.6687
7742242 16.6124 18.8673 20.465 18.8315 0.207749 0.765638 74.7762
7742252 16.6124 18.8673 20.465 18.8315 0.207749 0.765638 74.7762
7742265 16.5508 18.8186 20.465 18.7925 0.199476 0.781505 74.6269
7742272 16.4891 18.7019 20.5437 18.8218 0.164601 0.839851 74.5566
7742282 16.4891 18.7019 20.5437 18.8218 0.164601 0.839851 74.5566
7742292 16.4979 18.7797 20.5929 18.8413 0.177395 0.834509 74.7119
7742304 16.4803 18.7797 20.6028 18.8413 0.180015 0.840109 74.7041
7742314 16.4803 18.7019 20.6028 18.9095 0.176823 0.86954 74.6945
7742324 16.5244 18.6533 20.7111 18.9095 0.109416 0.890965 74.7982
7742344 16.4803 18.663 20.6914 18.9679 0.153494 0.905567 74.8026
7742354 16.4451 18.6533 20.7504 18.9387 0.13254 0.920752 74.7875
7742364 16.4451 18.6533 20.7504 18.9387 0.13254 0.920752 74.7875
7742376 16.4275 18.6533 20.7701 18.9192 0.125363 0.924543 74.7701
7742385 16.3482 18.6241 20.7209 18.9971 0.184825 0.953076 74.6904
7742393 16.3482 18.6241 20.7209 18.9971 0.184825 0.953076 74.6904
7742405 16.3746 18.6533 20.78 19.0166 0.172189 0.955968 74.8245
7742425 16.3482 18.6533 20.7898 18.9095 0.14216 0.943315 74.7008
7742435 16.3658 18.663 20.7406 18.9776 0.178704 0.941051 74.7471
7742455 16.401 18.6728 20.7504 18.9387 0.153813 0.92599 74.7629
7742465 16.3658 18.6728 20.7111 18.8997 0.165984 0.918735 74.6493
7742476 16.3658 18.6728 20.7111 18.8997 0.165984 0.918735 74.6493
7742485 16.3394 18.6825 20.6815 18.8607 0.175127 0.909365 74.5641
7742496 16.3394 18.6825 20.6815 18.8607 0.175127 0.909365 74.5641
7742506 16.2953 18.6047 20.6815 18.9095 0.180316 0.944602 74.491
7742516 16.2953 18.6533 20.7209 18.9484 0.196168 0.948967 74.618
7742526 16.2953 18.6533 20.7209 18.9484 0.196168 0.948967 74.618
7742536 16.2865 18.7019 20.7307 19.0264 0.237817 0.956975 74.7456
7742546 16.3041 18.7214 20.8095 18.9776 0.195622 0.954707 74.8127
7742556 16.3041 18.7214 20.8095 18.9776 0.195622 0.954707 74.8127
7742566 16.3394 18.7117 20.7406 19.0653 0.232786 0.952792 74.857
7742586 16.2953 18.6825 20.6618 18.9095 0.212869 0.924248 74.5491
7742596 16.3041 18.7603 20.6323 18.9776 0.268325 0.913067 74.6744
7742606 16.3041 18.7603 20.6323 18.9776 0.268325 0.913067 74.6744
7742616 16.3394 18.7992 20.6028 18.8997 0.253466 0.876982 74.6411
7742627 16.3394 18.8381 20.4847 18.9387 0.319284 0.853717 74.6008
7742637 16.3394 18.8381 20.4847 18.9387 0.319284 0.853717 74.6008
7742651 16.3922 18.8867 20.5634 18.8997 0.277892 0.839721 74.7421
7742663 16.3922 18.8867 20.5634 18.8997 0.277892 0.839721 74.7421
7742673 16.401 18.877 20.5831 18.9095 0.268266 0.845488 74.7706
7742683 16.4187 18.8867 20.4847 18.8997 0.2956 0.819186 74.6898
7742687 16.4187 18.8867 20.4847 18.8997 0.2956 0.819186 74.6898
7742697 16.4275 18.9743 20.5043 18.8315 0.292346 0.78959 74.7376
7742707 16.3922 18.984 20.5142 18.851 0.310594 0.800555 74.7414
7742727 16.4451 19.0423 20.5831 18.9095 0.307956 0.80124 74.98
7742737 16.4451 19.0423 20.5831 18.9095 0.307956 0.80124 74.98
7742749 16.4539 18.984 20.5043 18.851 0.293058 0.785662 74.7932
7742759 16.5067 18.9743 20.465 18.8023 0.269186 0.759804 74.7483
7742769 16.5067 18.9743 20.465 18.8023 0.269186 0.759804 74.7483
7742784 16.4275 19.0326 20.3961 18.7633 0.325787 0.743635 74.6195
7742791 16.4539 18.984 20.3468 18.6854 0.29161 0.723989 74.4701
7742799 16.4539 18.984 20.3468 18.6854 0.29161 0.723989 74.4701
7742809 16.4715 19.0423 20.3173 18.7049 0.321451 0.706038 74.536
7742820 16.4715 19.0423 20.3173 18.7049 0.321451 0.706038 74.536
7742830 16.4275 18.9548 20.3567 18.7925 0.323087 0.758132 74.5315
7742838 16.4803 19.0229 20.3862 18.7828 0.314429 0.736386 74.6722
7742848 16.4803 19.0229 20.3862 18.7828 0.314429 0.736386 74.6722
7742858 16.4363 18.9937 20.3567 18.7536 0.320071 0.740595 74.5403
7742869 16.4627 18.9937 20.4354 18.7828 0.294071 0.755648 74.6746
7742880 16.4627 18.9937 20.4354 18.7828 0.294071 0.755648 74.6746
7742890 16.4539 18.9548 20.4059 18.8705 0.323191 0.776802 74.6851
7742899 16.4539 18.9548 20.4059 18.8705 0.323191 0.776802 74.6851
7742909 16.357 18.9548 20.465 18.851 0.329584 0.804829 74.6278
7742919 16.4363 18.9548 20.4748 18.9971 0.34759 0.817668 74.863
7742929 16.4363 18.9548 20.4748 18.9971 0.34759 0.817668 74.863
7742940 16.4539 18.9256 20.5142 18.9387 0.299415 0.816497 74.8324
7742949 16.4539 18.9256 20.5142 18.9387 0.299415 0.816497 74.8324
7742961 16.3658 18.8673 20.524 18.9582 0.313058 0.853062 74.7153
7742969 16.401 18.9062 20.5339 18.9874 0.320289 0.844744 74.8285
7742989 16.3306 18.9062 20.5043 18.9776 0.350955 0.852247 74.7187
7742998 16.3394 18.8381 20.4847 19.0166 0.345042 0.86848 74.6787
7743008 16.3394 18.8381 20.4847 19.0166 0.345042 0.86848 74.6787
7743019 16.3306 18.8186 20.5339 18.9971 0.318471 0.88011 74.6802
7743029 16.3306 18.8186 20.5339 18.9971 0.318471 0.88011 74.6802
7743043 16.2689 18.7797 20.5339 18.9776 0.320083 0.897839 74.5602
7743050 16.313 18.8186 20.5536 19.0264 0.327423 0.893099 74.7115
7743063 16.313 18.8186 20.5536 19.0264 0.327423 0.893099 74.7115
7743070 16.313 18.7408 20.6028 18.9971 0.275356 0.913441 74.6537
7743083 16.2953 18.7408 20.6914 19.0361 0.264245 0.941225 74.7637
7743091 16.2953 18.7408 20.6914 19.0361 0.264245 0.941225 74.7637
7743100 16.2777 18.8284 20.7111 19.114 0.318167 0.944667 74.9312
7743111 16.2777 18.8284 20.7111 19.114 0.318167 0.944667 74.9312
7743120 16.2073 18.7797 20.7012 19.0653 0.313231 0.959061 74.7535
7743130 16.2425 18.7408 20.7898 19.0751 0.261736 0.978289 74.8482
7743140 16.2425 18.7408 20.7898 19.0751 0.261736 0.978289 74.8482
7743150 16.2161 18.663 20.7307 19.0946 0.271332 0.993154 74.7044
7743160 16.1456 18.6533 20.8193 19.114 0.268432 1.03057 74.7323
7743170 16.1456 18.6533 20.8193 19.114 0.268432 1.03057 74.7323
7743180 16.1808 18.6144 20.839 19.1725 0.256348 1.04595 74.8068
7743194 16.1808 18.6144 20.839 19.1725 0.256348 1.04595 74.8068
7743200 16.1632 18.5269 20.7997 19.2115 0.259528 1.06846 74.7012
7743210 16.1016 18.5658 20.839 19.2797 0.302485 1.09339 74.786
7743221 16.1016 18.5658 20.839 19.2797 0.302485 1.09339 74.786
7743231 16.1104 18.5074 20.8587 19.2797 0.273564 1.10772 74.7562
7743241 16.0487 18.5463 20.9276 19.3284 0.300059 1.13444 74.851
7743251 16.0487 18.5463 20.9276 19.3284 0.300059 1.13444 74.851
7743261 16.0751 18.488 20.8784 19.3381 0.291711 1.13401 74.7796
7743271 16.0751 18.488 20.8784 19.3381 0.291711 1.13401 74.7796
7743281 16.0663 18.4296 20.8882 19.3576 0.278515 1.15395 74.7418
7743296 16.1192 18.4296 20.8587 19.3089 0.254509 1.12802 74.7164
7743305 16.1192 18.4296 20.8587 19.3089 0.254509 1.12802 74.7164
7743314 16.0311 18.4296 20.8784 19.3771 0.300208 1.16335 74.7162
7743321 16.0135 18.4783 20.9079 19.3479 0.302589 1.1567 74.7475
7743341 16.0927 18.4296 20.8784 19.3771 0.279346 1.15003 74.7779
7743352 16.0927 18.4296 20.8784 19.3771 0.279346 1.15003 74.7779
7743361 16.0751 18.3907 20.9276 19.416 0.268692 1.17856 74.8095
7743373 16.0839 18.3518 20.9768 19.4842 0.258788 1.20672 74.8969
7743381 16.0839 18.3518 20.9768 19.4842 0.258788 1.20672 74.8969
7743394 16.0399 18.4199 20.9768 19.3966 0.267169 1.18535 74.8332
7743404 15.943 18.3421 21.0064 19.455 0.283542 1.23945 74.7465
7743417 15.943 18.3421 21.0064 19.455 0.283542 1.23945 74.7465
7743422 16.0311 18.2643 21.0261 19.3868 0.19877 1.22828 74.7083
7743432 16.0311 18.2643 21.0261 19.3868 0.19877 1.22828 74.7083
7743442 15.943 18.274 21.1147 19.4258 0.214744 1.26878 74.7575
7743452 15.9518 18.2449 21.1343 19.4648 0.208387 1.28398 74.7958
7743462 15.9518 18.2449 21.1343 19.4648 0.208387 1.28398 74.7958
7743472 15.9959 18.1962 21.154 19.4745 0.174031 1.29038 74.8206
7743482 15.9959 18.1962 21.154 19.4745 0.174031 1.29038 74.8206
7743492 15.899 18.1573 21.2229 19.4745 0.170535 1.33261 74.7537
7743502 15.9078 18.099 21.3017 19.5427 0.144354 1.37025 74.8511
7743523 15.8637 18.0309 21.3017 19.5719 0.146252 1.40012 74.7682
7743532 15.8549 18.0309 21.3017 19.6011 0.15893 1.40737 74.7886
7743543 15.8549 18.0309 21.3017 19.6011 0.15893 1.40737 74.7886
7743552 15.899 18.0795 21.4198 19.6499 0.136784 1.41733 75.0481
7743562 15.899 18.0795 21.4198 19.6499 0.136784 1.41733 75.0481
7743572 15.8285 18.0212 21.3411 19.6693 0.173977 1.43482 74.8601
7743583 15.8197 18.0017 21.3607 19.6693 0.163868 1.4446 74.8515
7743592 15.8197 18.0017 21.3607 19.6693 0.163868 1.4446 74.8515
7743604 15.7845 18.0114 21.3509 19.6206 0.166088 1.43959 74.7674
7743611 15.7316 17.9434 21.3607 19.6304 0.161183 1.46977 74.6661
7743625 15.7316 17.9434 21.3607 19.6304 0.161183 1.46977 74.6661
7743632 15.7404 17.8656 21.4296 19.6109 0.102612 1.49395 74.6465
7743642 15.7404 17.8656 21.4296 19.6109 0.102612 1.49395 74.6465
7743652 15.6347 17.8656 21.3607 19.6206 0.164717 1.50663 74.4816
7743666 15.6259 17.8364 21.41 19.6791 0.160825 1.53453 74.5513
7743672 15.6259 17.8364 21.41 19.6791 0.160825 1.53453 74.5513
7743685 15.6259 17.8947 21.469 19.7278 0.176534 1.54104 74.7175
7743694 15.6259 17.885 21.5084 19.7278 0.160041 1.55028 74.7471
7743709 15.6259 17.885 21.5084 19.7278 0.160041 1.55028 74.7471
7743714 15.6347 17.9045 21.5773 19.8447 0.179139 1.57738 74.9612
7743725 15.6347 17.9045 21.5773 19.8447 0.179139 1.57738 74.9612
7743734 15.5907 17.885 21.5675 19.8544 0.19404 1.59142 74.8976
7743744 15.6347 17.8753 21.6167 19.9519 0.191718 1.61002 75.0785
7743754 15.6347 17.8753 21.6167 19.9519 0.191718 1.61002 75.0785
7743764 15.6523 17.885 21.6462 19.8642 0.150123 1.5936 75.0477
7743774 15.6259 17.7586 21.6068 19.9129 0.146434 1.62913 74.9042
7743784 15.6259 17.7586 21.6068 19.9129 0.146434 1.62913 74.9042
7743794 15.5907 17.7683 21.5675 19.9324 0.181192 1.63124 74.8588
7743804 15.5907 17.7683 21.5675 19.9324 0.181192 1.63124 74.8588
7743814 15.5731 17.6711 21.5478 19.8155 0.122541 1.63237 74.6074
7743823 15.5819 17.7294 21.6561 19.9324 0.141475 1.65765 74.8997
7743844 15.6171 17.778 21.6167 19.8934 0.146073 1.62504 74.9052
7743857 15.5907 17.7002 21.6757 19.9324 0.122231 1.66569 74.899
7743877 15.5202 17.6322 21.6364 19.9616 0.146216 1.69476 74.7503
7743885 15.5202 17.6322 21.6364 19.9616 0.146216 1.69476 74.7503
7743899 15.4762 17.6322 21.6265 19.9324 0.154635 1.69765 74.6672
7743905 15.4938 17.6322 21.7151 19.9908 0.138342 1.71986 74.8319
7743915 15.4938 17.6322 21.7151 19.9908 0.138342 1.71986 74.8319
7743925 15.4409 17.5738 21.8332 19.9908 0.0970274 1.76566 74.8388
7743935 15.4762 17.5543 21.8135 20.0201 0.0950694 1.76381 74.8641
7743954 15.4762 17.5543 21.8135 20.0201 0.0950694 1.76381 74.8641
7743956 15.4321 17.6127 21.8923 20.0201 0.102836 1.77452 74.9572
7743966 15.4321 17.6127 21.8923 20.0201 0.102836 1.77452 74.9572
7743976 15.4145 17.5057 21.8234 20.137 0.135145 1.81091 74.8806
7743986 15.3705 17.5252 21.8135 20.098 0.146759 1.80783 74.8072
7744006 15.4057 17.5154 21.8332 20.0883 0.121844 1.80385 74.8426
7744017 15.4585 17.4474 21.8431 20.098 0.081411 1.81073 74.847
7744027 15.4585 17.4474 21.8431 20.098 0.081411 1.81073 74.847
7744037 15.4321 17.4571 21.9612 20.0688 0.0442266 1.83012 74.9192
7744047 15.4321 17.4571 21.9612 20.0688 0.0442266 1.83012 74.9192
7744058 15.485 17.4571 21.8628 20.0493 0.0529796 1.79749 74.8541
7744068 15.485 17.4765 21.9218 20.059 0.0429571 1.80526 74.9424
7744077 15.485 17.4765 21.9218 20.059 0.0429571 1.80526 74.9424
7744088 15.4409 17.4571 21.8431 20.0688 0.0808209 1.80735 74.8099
7744097 15.4321 17.4279 21.9021 20.098 0.0640005 1.83143 74.8602
7744107 15.4321 17.4279 21.9021 20.098 0.0640005 1.83143 74.8602
7744121 15.4057 17.3987 21.9514 20.1662 0.0693619 1.86456 74.922
7744127 15.4057 17.3987 21.9514 20.1662 0.0693619 1.86456 74.922
7744138 15.3705 17.3404 21.971 20.1175 0.038892 1.88057 74.7994
7744147 15.3969 17.4182 21.9612 20.1272 0.0625193 1.85706 74.9035
7744161 15.3969 17.4182 21.9612 20.1272 0.0625193 1.85706 74.9035
7744169 15.4057 17.3987 21.912 20.137 0.072816 1.85252 74.8534
7744182 15.344 17.3598 21.9415 20.1564 0.0771165 1.88379 74.8018
7744203 15.3881 17.3696 21.9218 20.137 0.0657022 1.86479 74.8164
7744208 15.3264 17.3598 21.9218 20.0785 0.0636339 1.87063 74.6866
7744222 15.3264 17.3598 21.9218 20.0785 0.0636339 1.87063 74.6866
7744230 15.3705 17.4085 21.8923 20.0785 0.0749886 1.84453 74.7497
7744247 15.3705 17.4085 21.8923 20.0785 0.0749886 1.84453 74.7497
7744250 15.3352 17.4571 21.8234 20.0785 0.126177 1.82937 74.6942
7744260 15.4233 17.4474 21.8431 20.1272 0.102949 1.82379 74.841
7744280 15.4321 17.4376 21.7939 20.098 0.103548 1.81017 74.7616
7744293 15.4321 17.4376 21.7939 20.098 0.103548 1.81017 74.7616
7744300 15.3793 17.4279 21.7742 20.1175 0.131175 1.82422 74.6988
7744315 15.5114 17.4863 21.8529 20.0785 0.0668824 1.78844 74.9291
7744330 15.4585 17.5446 21.7545 20.0395 0.124043 1.76294 74.7972
7744341 15.4497 17.5446 21.7348 20.1564 0.172439 1.78209 74.8856
7744350 15.4497 17.5446 21.7348 20.1564 0.172439 1.78209 74.8856
7744360 15.485 17.6419 21.7742 20.1077 0.163469 1.75081 75.0088
7744370 15.4938 17.6224 21.6856 19.9908 0.145033 1.71679 74.7926
7744391 15.5554 17.6905 21.6167 19.9616 0.160372 1.67038 74.8242
7744404 15.5554 17.6905 21.6167 19.9616 0.160372 1.67038 74.8242
7744411 15.5819 17.7294 21.5182 19.8642 0.16517 1.62085 74.6937
7744426 15.6347 17.8169 21.41 19.7181 0.164357 1.54392 74.5797
7744431 15.6347 17.8169 21.41 19.7181 0.164357 1.54392 74.5797
7744449 15.6435 17.8169 21.3706 19.7181 0.174677 1.53487 74.5491
7744452 15.7052 17.8753 21.3017 19.6499 0.173846 1.48347 74.532
7744462 15.7052 17.8753 21.3017 19.6499 0.173846 1.48347 74.532
7744474 15.7668 17.9142 21.3312 19.6499 0.156036 1.46662 74.6621
7744494 15.7933 17.9725 21.2721 19.6693 0.19291 1.44076 74.7073
7744502 15.8197 18.0017 21.3115 19.6888 0.186887 1.43921 74.8218
7744518 15.8197 18.0017 21.3115 19.6888 0.186887 1.43921 74.8218
7744525 15.8549 18.0892 21.3312 19.7473 0.216731 1.42643 75.0227
7744532 15.8373 18.0892 21.282 19.6499 0.206992 1.40371 74.8584
7744544 15.8373 18.0892 21.282 19.6499 0.206992 1.40371 74.8584
7744554 15.9166 18.2157 21.2229 19.5524 0.209793 1.33026 74.9076
7744564 15.9166 18.2157 21.2229 19.5524 0.209793 1.33026 74.9076
7744572 15.9694 18.1768 21.1836 19.5037 0.176227 1.31113 74.8335
7744592 16.0487 18.2546 21.1147 19.4453 0.17916 1.25361 74.8632
7744594 16.0487 18.2546 21.1147 19.4453 0.17916 1.25361 74.8632
7744609 16.0047 18.3032 20.9965 19.3479 0.217631 1.21293 74.6522
7744614 16.0663 18.3324 21.0261 19.2991 0.180379 1.18968 74.7239
7744624 16.0663 18.3324 21.0261 19.2991 0.180379 1.18968 74.7239
7744635 16.0487 18.3518 21.0556 19.3284 0.19252 1.20013 74.7845
7744647 16.0487 18.3518 21.0556 19.3284 0.19252 1.20013 74.7845
7744656 16.0927 18.4102 21.0654 19.1822 0.14523 1.15278 74.7506
7744665 16.1808 18.4685 20.9473 19.192 0.177962 1.10109 74.7887
7744676 16.1808 18.4685 20.9473 19.192 0.177962 1.10109 74.7887
7744685 16.1368 18.4102 20.8784 19.0751 0.157738 1.08855 74.5004
7744700 16.1456 18.4685 20.8981 19.1043 0.177291 1.08319 74.6165
7744706 16.1456 18.4685 20.8981 19.1043 0.177291 1.08319 74.6165
7744715 16.1632 18.5755 20.9178 19.0848 0.193784 1.05642 74.7413
7744725 16.1632 18.5755 20.9178 19.0848 0.193784 1.05642 74.7413
7744735 16.1368 18.5269 21.0261 19.0946 0.153309 1.09454 74.7843
7744746 16.1632 18.5172 20.9867 19.2017 0.189993 1.10354 74.8688
7744756 16.1632 18.5172 20.9867 19.2017 0.189993 1.10354 74.8688
7744766 16.1016 18.5366 20.9375 19.153 0.217655 1.09442 74.7286
7744776 16.128 18.5852 21.0162 19.1335 0.191876 1.08929 74.863
7744786 16.128 18.5852 21.0162 19.1335 0.191876 1.08929 74.863
7744796 16.1456 18.5172 20.9375 19.1628 0.199583 1.09094 74.763
7744807 16.1456 18.5172 20.9375 19.1628 0.199583 1.09094 74.763
7744816 16.128 18.5366 20.9178 19.0653 0.18627 1.06872 74.6477
7744827 16.1632 18.5658 20.8981 19.114 0.206891 1.06028 74.7411
7744846 16.1368 18.5269 20.9572 19.1238 0.186211 1.08715 74.7446
7744856 16.172 18.4783 20.8686 18.9971 0.145879 1.04986 74.516
7744876 16.1456 18.5852 20.9079 19.0361 0.190097 1.04718 74.6749
7744897 16.1368 18.4977 20.9276 18.9971 0.14433 1.06431 74.5592
7744908 16.1808 18.5172 20.8882 18.9484 0.132993 1.03415 74.5347
7744929 16.1456 18.4977 20.8882 18.9484 0.138393 1.04593 74.48
7744937 16.1192 18.5074 20.967 19.0458 0.156459 1.08245 74.6395
7744950 16.1192 18.5074 20.967 19.0458 0.156459 1.08245 74.6395
7744959 16.172 18.5172 20.9867 19.1043 0.154704 1.08354 74.7802
7744971 16.1544 18.5463 21.1245 19.1238 0.130495 1.11026 74.949
7744979 16.1544 18.5463 21.1245 19.1238 0.130495 1.11026 74.949
7744991 16.1368 18.4977 21.1836 19.153 0.110167 1.14085 74.9711
7745011 16.128 18.4394 21.2131 19.1043 0.0676334 1.15178 74.8847
7745018 16.1984 18.5561 21.1934 19.1433 0.102374 1.11508 75.0912
7745039 16.2073 18.4977 21.1048 19.114 0.0999987 1.1039 74.9238
7745050 16.1368 18.4491 21.0261 19.1043 0.130671 1.11311 74.7162
7745072 16.1896 18.488 21.0556 19.0848 0.109458 1.09521 74.818
7745080 16.1896 18.488 21.0556 19.0848 0.109458 1.09521 74.818
7745093 16.1808 18.4588 21.0261 19.0264 0.0931472 1.08702 74.6921
7745103 16.1456 18.4491 20.9572 18.9582 0.102165 1.07112 74.51
7745121 16.2249 18.4491 20.9572 18.9484 0.0722319 1.05222 74.5795
7745130 16.1808 18.4199 20.9375 18.9776 0.0936925 1.06978 74.5159
7745140 16.1808 18.4199 20.9375 18.9776 0.0936925 1.06978 74.5159
7745151 16.2777 18.4783 20.9473 18.9289 0.0610203 1.0291 74.6322
7745164 16.2777 18.4783 20.9473 18.9289 0.0610203 1.0291 74.6322
7745174 16.2337 18.5074 20.9178 18.9289 0.0955015 1.02676 74.5878
7745181 16.2689 18.4977 20.9572 18.9192 0.063917 1.02683 74.643
7745192 16.2689 18.4977 20.9572 18.9192 0.063917 1.02683 74.643
7745201 16.2601 18.5561 20.9867 18.851 0.053674 1.00896 74.6539
7745213 16.3306 18.5658 20.9375 18.89 0.0628084 0.98986 74.7238
7745221 16.3306 18.5658 20.9375 18.89 0.0628084 0.98986 74.7238
7745236 16.3394 18.5755 21.0064 18.8023 0.0107259 0.982375 74.7236
7745241 16.3394 18.5755 21.0064 18.8023 0.0107259 0.982375 74.7236
7745252 16.3658 18.5852 20.9473 18.8315 0.034672 0.969046 74.7299
7745263 16.3482 18.7311 20.9867 18.851 0.0825077 0.95273 74.917
7745284 16.4451 18.6241 20.9572 18.7828 0.00157952 0.936531 74.8092
7745293 16.3922 18.7311 20.9079 18.7731 0.0681877 0.913914 74.8043
7745313 16.3834 18.663 20.8686 18.7049 0.0388384 0.910004 74.6199
7745322 16.3834 18.663 20.8686 18.7049 0.0388384 0.910004 74.6199
7745333 16.4627 18.6728 20.9178 18.6854 -0.00746399 0.896666 74.7386
7745344 16.4187 18.7019 20.8193 18.7049 0.056541 0.884913 74.6448
7745353 16.4187 18.7019 20.8193 18.7049 0.056541 0.884913 74.6448
7745362 16.4451 18.7408 20.7898 18.6269 0.0445366 0.850672 74.6027
7745375 16.401 18.7214 20.8587 18.6854 0.0492305 0.888283 74.6665
7745397 16.5067 18.7408 20.7701 18.6464 0.0369668 0.837543 74.6641
7745402 16.5067 18.7408 20.7701 18.6464 0.0369668 0.837543 74.6641
7745412 16.4979 18.6728 20.8095 18.7244 0.0300169 0.876081 74.7046
7745423 16.4891 18.7408 20.8784 18.6659 0.013116 0.865472 74.7743
7745432 16.4891 18.7408 20.8784 18.6659 0.013116 0.865472 74.7743
7745442 16.4715 18.7408 20.8292 18.6854 0.0420004 0.863589 74.7269
7745452 16.5155 18.7311 20.8193 18.7049 0.0338048 0.85813 74.7709
7745478 16.5155 18.7311 20.8193 18.7049 0.0338048 0.85813 74.7709
7745482 16.5067 18.77 20.7997 18.7438 0.0693232 0.855396 74.8203
7745483 16.5067 18.77 20.7997 18.7438 0.0693232 0.855396 74.8203
7745493 16.4451 18.6728 20.8193 18.7049 0.0379205 0.885497 74.6421
7745503 16.4539 18.6436 20.7406 18.7244 0.0581622 0.878618 74.5624
7745524 16.4627 18.663 20.839 18.6756 0.0123799 0.882016 74.6404
7745533 16.401 18.6728 20.8981 18.7731 0.0490725 0.922608 74.745
7745545 16.401 18.6728 20.8981 18.7731 0.0490725 0.922608 74.745
7745556 16.4098 18.7117 20.8292 18.7828 0.0854522 0.901299 74.7335
7745565 16.4098 18.7117 20.8292 18.7828 0.0854522 0.901299 74.7335
7745581 16.401 18.663 20.8686 18.7925 0.0622272 0.922787 74.7252
7745585 16.4891 18.7408 20.8981 18.7828 0.0455379 0.891246 74.9109
7745596 16.4891 18.7408 20.8981 18.7828 0.0455379 0.891246 74.9109
7745605 16.4098 18.6922 20.8292 18.7146 0.0561953 0.89256 74.6459
7745616 16.3658 18.7214 20.7406 18.6464 0.0877559 0.866033 74.4742
7745627 16.3658 18.7214 20.7406 18.6464 0.0877559 0.866033 74.4742
7745636 16.357 18.6728 20.8095 18.6951 0.0675559 0.900562 74.5344
7745651 16.357 18.6728 20.8095 18.6951 0.0675559 0.900562 74.5344
7745656 16.3922 18.7117 20.7701 18.6562 0.0689238 0.869926 74.5302
7745666 16.4187 18.6825 20.7997 18.7146 0.0599086 0.887173 74.6154
7745677 16.4187 18.6825 20.7997 18.7146 0.0599086 0.887173 74.6154
7745686 16.3658 18.6533 20.9375 18.6951 0.0151336 0.927 74.6517
7745698 16.3658 18.6339 20.9473 18.7244 0.0151038 0.93851 74.6713
7745706 16.3658 18.6339 20.9473 18.7244 0.0151038 0.93851 74.6713
7745717 16.3922 18.663 21.095 18.7633 -0.0202969 0.961711 74.9136
7745727 16.3922 18.663 21.095 18.7633 -0.0202969 0.961711 74.9136
7745742 16.401 18.6436 21.0457 18.7925 -0.00355393 0.960231 74.8829
7745747 16.4275 18.6728 21.0753 18.7536 -0.0254855 0.94662 74.9291
7745766 16.4275 18.6728 21.0753 18.7536 -0.0254855 0.94662 74.9291
7745769 16.4098 18.6241 21.0457 18.6659 -0.0553682 0.938716 74.7456
7745777 16.4098 18.6825 20.9572 18.6854 0.000295043 0.913269 74.7349
7745799 16.4451 18.6533 20.9768 18.6075 -0.0539437 0.90099 74.6827
7745812 16.4363 18.6533 20.9572 18.6075 -0.0444219 0.899148 74.6542
7745829 16.5067 18.7214 20.8784 18.6269 -0.0123143 0.858493 74.7335
7745838 16.5067 18.7214 20.8784 18.6269 -0.0123143 0.858493 74.7335
7745858 16.4627 18.7117 20.8981 18.5782 -0.023739 0.864415 74.6507
7745860 16.4627 18.7019 20.8981 18.588 -0.0237361 0.868326 74.6507
7745868 16.4627 18.7019 20.8981 18.588 -0.0237361 0.868326 74.6507
7745880 16.4627 18.7797 20.78 18.549 0.0288606 0.822002 74.5714
7745890 16.4627 18.7506 20.7898 18.51 0.00271499 0.822653 74.5131
7745902 16.4627 18.7506 20.7898 18.51 0.00271499 0.822653 74.5131
7745910 16.5508 18.7797 20.7701 18.5587 0.00588596 0.803314 74.6594
7745920 16.5508 18.7797 20.7701 18.5587 0.00588596 0.803314 74.6594
7745931 16.4627 18.7117 20.78 18.5003 -0.0103086 0.827193 74.4546
7745941 16.4451 18.7506 20.8292 18.5198 -0.00131279 0.835735 74.5446
7745951 16.4451 18.7506 20.8292 18.5198 -0.00131279 0.835735 74.5446
7745961 16.4891 18.6825 20.8587 18.5198 -0.0488162 0.846452 74.5501
7745974 16.4627 18.6144 20.9079 18.6172 -0.0465885 0.894345 74.6022
7745981 16.4627 18.6144 20.9079 18.6172 -0.0465885 0.894345 74.6022
7745991 16.4715 18.6436 20.9768 18.7633 -0.0138327 0.926803 74.8553
7746001 16.4715 18.6436 20.9768 18.7633 -0.0138327 0.926803 74.8553
7746012 16.4715 18.6047 21.0457 18.7341 -0.0596002 0.942537 74.856
7746023 16.4627 18.6436 21.0064 18.7244 -0.033778 0.926903 74.837
7746045 16.4539 18.6144 21.0556 18.6659 -0.0766009 0.933251 74.7898
7746052 16.4363 18.5755 21.0851 18.7633 -0.0609636 0.969138 74.8602
7746065 16.4363 18.5755 21.0851 18.7633 -0.0609636 0.969138 74.8602
7746072 16.4539 18.5755 21.0359 18.6951 -0.0732824 0.943338 74.7604
7746086 16.4539 18.5755 21.0359 18.6951 -0.0732824 0.943338 74.7604
7746092 16.4098 18.5366 21.0457 18.6659 -0.0847444 0.957402 74.6581
7746104 16.3834 18.5755 21.1934 18.7341 -0.0892028 0.995221 74.8864
7746112 16.3834 18.5755 21.1934 18.7341 -0.0892028 0.995221 74.8864
7746125 16.3834 18.5463 21.0162 18.7244 -0.0431687 0.966411 74.6703
7746134 16.3658 18.5172 21.1343 18.6951 -0.0963196 0.993108 74.7124
7746147 16.3658 18.5172 21.1343 18.6951 -0.0963196 0.993108 74.7124
7746154 16.4275 18.5074 21.095 18.6756 -0.113559 0.970954 74.7055
7746167 16.4275 18.5074 21.095 18.6756 -0.113559 0.970954 74.7055
7746172 16.3658 18.4394 21.1147 18.6951 -0.115916 1.00609 74.6149
7746182 16.357 18.4783 21.1147 18.7244 -0.0900701 1.00511 74.6743
7746193 16.357 18.4783 21.1147 18.7244 -0.0900701 1.00511 74.6743
7746203 16.2953 18.4783 21.1147 18.7049 -0.0760332 1.01469 74.5931
7746213 16.3482 18.4102 21.1639 18.7536 -0.1166 1.03629 74.6758
7746234 16.3306 18.4199 21.2721 18.8802 -0.100991 1.08178 74.9029
7746254 16.2953 18.4005 21.1836 18.8023 -0.0924379 1.06252 74.6816
7746267 16.3306 18.3518 21.2623 18.8802 -0.120552 1.09458 74.8249
7746274 16.3306 18.3518 21.2623 18.8802 -0.120552 1.09458 74.8249
7746283 16.2249 18.3907 21.3214 18.89 -0.0887156 1.12174 74.8269
7746294 16.2249 18.3421 21.3017 18.8413 -0.114842 1.11952 74.7099
7746314 16.2073 18.3518 21.3706 18.9874 -0.0796273 1.16106 74.9171
7746334 16.128 18.3129 21.5281 19.0264 -0.105597 1.22278 74.9954
7746344 16.0927 18.2449 21.5281 19.0361 -0.113443 1.24695 74.9018
7746354 16.0927 18.2449 21.5281 19.0361 -0.113443 1.24695 74.9018
7746364 16.0839 18.1865 21.5182 18.9874 -0.143194 1.25077 74.7761
7746374 16.0223 18.1379 21.4986 19.0848 -0.0997245 1.28905 74.7435
7746395 16.0223 18.099 21.5478 19.114 -0.119358 1.31191 74.7831
7746405 16.0223 18.099 21.5478 19.114 -0.119358 1.31191 74.7831
7746415 15.9782 18.0406 21.597 19.0946 -0.147256 1.33971 74.7104
7746426 15.9518 18.0309 21.6068 19.2017 -0.108981 1.36898 74.7913
7746435 15.9518 18.0309 21.6068 19.2017 -0.108981 1.36898 74.7913
7746445 15.9078 17.9628 21.6265 19.2699 -0.100836 1.40955 74.767
7746455 15.9166 17.9531 21.6856 19.2699 -0.126681 1.42048 74.8252
7746465 15.9166 17.9531 21.6856 19.2699 -0.126681 1.42048 74.8252
7746475 15.8725 17.885 21.7053 19.2991 -0.131638 1.45399 74.762
7746485 15.8725 17.885 21.7053 19.2991 -0.131638 1.45399 74.762
7746496 15.8461 17.8169 21.7742 19.3479 -0.152272 1.49608 74.7851
7746507 15.8109 17.8267 21.784 19.416 -0.117651 1.51579 74.8376
7746531 15.7933 17.778 21.725 19.3479 -0.131401 1.50746 74.6441
7746535 15.7933 17.778 21.725 19.3479 -0.131401 1.50746 74.6441
7746545 15.7933 17.8072 21.6757 19.4258 -0.0789806 1.5062 74.702
7746555 15.7933 17.8169 21.6954 19.3868 -0.0953719 1.50056 74.6924
7746565 15.7933 17.8169 21.6954 19.3868 -0.0953719 1.50056 74.6924
7746589 15.8637 17.9142 21.7643 19.3284 -0.128727 1.46548 74.8706
7746590 15.8285 17.8656 21.6954 19.416 -0.0809804 1.48734 74.8055
7746608 15.9078 17.9239 21.6757 19.3576 -0.100848 1.44293 74.865
7746616 15.8461 17.9628 21.725 19.3381 -0.0902042 1.45331 74.872
7746636 15.9254 17.9628 21.6659 19.1822 -0.149268 1.3969 74.7363
7746646 15.9254 17.9628 21.6659 19.1822 -0.149268 1.3969 74.7363
7746656 15.9166 17.9142 21.6167 19.1628 -0.152902 1.39699 74.6102
7746666 15.8902 17.9823 21.597 19.1335 -0.124443 1.37892 74.6029
7746676 15.8902 17.9823 21.597 19.1335 -0.124443 1.37892 74.6029
7746686 15.943 17.9531 21.5379 19.1433 -0.128919 1.36471 74.5773
7746696 15.9166 17.9531 21.5084 19.1433 -0.110243 1.36511 74.5213
7746706 15.9166 18.0114 21.5084 19.2309 -0.0611365 1.36833 74.6674
7746721 15.9254 17.9531 21.6068 19.2699 -0.103411 1.40424 74.7552
7746729 15.9254 17.9531 21.6068 19.2699 -0.103411 1.40424 74.7552
7746736 15.8902 18.0309 21.5675 19.2797 -0.0491753 1.38951 74.7682
7746747 15.943 18.0601 21.6167 19.3186 -0.060381 1.38759 74.9384
7746757 15.943 18.0601 21.6167 19.3186 -0.060381 1.38759 74.9384
7746768 15.987 18.0892 21.6167 19.3284 -0.0620201 1.37336 75.0213
7746787 15.9606 18.0892 21.6462 19.3576 -0.053291 1.38979 75.0537
7746797 16.0135 18.0892 21.5182 19.2699 -0.0575989 1.33904 74.8909
7746810 16.0135 18.0892 21.5182 19.2699 -0.0575989 1.33904 74.8909
7746817 15.9694 18.0892 21.469 19.3089 -0.0134721 1.34678 74.8366
7746828 15.9959 18.1768 21.3607 19.2212 0.0138372 1.28607 74.7546
7746839 15.9959 18.1768 21.3607 19.2212 0.0138372 1.28607 74.7546
7746848 16.0311 18.2254 21.3214 19.1335 0.00216365 1.24447 74.7114
7746859 16.0135 18.2157 21.282 19.0751 -0.00158101 1.23238 74.5862
7746869 16.0135 18.2157 21.282 19.0751 -0.00158101 1.23238 74.5862
7746880 16.0487 18.2546 21.3607 19.0751 -0.026691 1.23079 74.7391
7746889 16.0487 18.2546 21.3607 19.0751 -0.026691 1.23079 74.7391
7746899 15.9959 18.274 21.3607 19.1628 0.0267982 1.25418 74.7934
7746909 16.0487 18.2838 21.4001 19.1238 -0.0137866 1.24066 74.8564
7746919 16.0487 18.2838 21.4001 19.1238 -0.0137866 1.24066 74.8564
7746928 15.987 18.2449 21.3509 19.192 0.0330597 1.266 74.7748
7746939 15.987 18.2449 21.3509 19.192 0.0330597 1.266 74.7748
7746950 15.987 18.2838 21.3607 19.1433 0.0264913 1.2504 74.7748
7746959 15.9254 18.2059 21.4296 19.2212 0.0241071 1.3077 74.7822
7746969 15.9254 18.2059 21.4296 19.2212 0.0241071 1.3077 74.7822
7746979 15.8637 18.1281 21.4001 19.3186 0.061211 1.35059 74.7106
7746990 15.8902 18.1281 21.3903 19.3284 0.0588983 1.34478 74.7369
7747000 15.8902 18.1281 21.3903 19.3284 0.0588983 1.34478 74.7369
7747009 15.8813 18.1573 21.4001 19.3576 0.0780284 1.34747 74.7964
7747019 15.8021 18.1573 21.4493 19.3576 0.0881106 1.37379 74.7663
7747029 15.8021 18.0503 21.4493 19.3576 0.0524133 1.39725 74.6593
7747040 15.8725 18.0601 21.5084 19.455 0.044781 1.40811 74.896
7747050 15.8725 18.0601 21.5084 19.455 0.044781 1.40811 74.896
7747060 15.8285 18.0406 21.5675 19.4258 0.023526 1.42744 74.8624
7747071 15.8109 18.0212 21.6265 19.6011 0.0615925 1.47795 75.0597
7747080 15.8109 18.0212 21.6265 19.6011 0.0615925 1.47795 75.0597
7747090 15.7845 17.992 21.5576 19.5622 0.0707984 1.4707 74.8962
7747100 15.7492 17.992 21.5675 19.5622 0.079298 1.48023 74.8708
7747112 15.7492 17.9628 21.5675 19.5719 0.0728309 1.48842 74.8514
7747121 15.6523 17.8947 21.6364 19.6499 0.085488 1.55128 74.8333
7747133 15.6523 17.8947 21.6364 19.6499 0.085488 1.55128 74.8333
7747141 15.6083 17.7975 21.6954 19.6791 0.0577867 1.59843 74.7803
7747152 15.5819 17.8072 21.6265 19.7181 0.106004 1.59677 74.7336
7747162 15.5819 17.8072 21.6265 19.7181 0.106004 1.59677 74.7336
7747173 15.5995 17.8169 21.7545 19.7083 0.0571817 1.61187 74.8792
7747181 15.5995 17.7391 21.7053 19.8057 0.080198 1.63776 74.8496
7747194 15.5995 17.7391 21.7053 19.8057 0.080198 1.63776 74.8496
7747202 15.5731 17.8169 21.784 19.7375 0.0658751 1.62823 74.9115
7747213 15.5731 17.8169 21.784 19.7375 0.0658751 1.62823 74.9115
7747221 15.529 17.7197 21.7348 19.7862 0.080952 1.65956 74.7697
7747234 15.5026 17.7197 21.725 19.796 0.0963688 1.66544 74.7432
7747241 15.5026 17.7197 21.725 19.796 0.0963688 1.66544 74.7432
7747256 15.5642 17.7683 21.7446 19.7862 0.0820369 1.64266 74.8634
7747261 15.5642 17.7683 21.8332 19.8057 0.0588715 1.66191 74.9715
7747271 15.5642 17.7489 21.8332 19.8057 0.0524014 1.66624 74.9521
7747282 15.5026 17.71 21.784 19.757 0.0603169 1.67119 74.7536
7747291 15.5026 17.71 21.784 19.757 0.0603169 1.67119 74.7536
7747301 15.4674 17.6808 21.7446 19.7765 0.0821233 1.68202 74.6693
7747312 15.5202 17.6613 21.8332 19.7668 0.0249535 1.68861 74.7815
7747322 15.5202 17.6613 21.8332 19.7668 0.0249535 1.68861 74.7815
7747332 15.529 17.6711 21.9415 19.7862 -0.0044167 1.70718 74.9278
7747352 15.4938 17.6808 21.971 19.8057 0.00723302 1.72156 74.9513
7747364 15.5378 17.6613 21.8923 19.7765 0.00257492 1.69692 74.868
7747372 15.5378 17.6613 21.8923 19.7765 0.00257492 1.69692 74.868
7747384 15.529 17.6808 21.9218 19.757 -0.00435561 1.69633 74.8886
7747394 15.5114 17.6224 21.9809 19.7181 -0.0507161 1.71685 74.8328
7747414 15.5026 17.6905 22.0006 19.835 0.00742674 1.72783 75.0286
7747425 15.4674 17.5641 22.04 19.7765 -0.0556931 1.76058 74.8479
7747435 15.4674 17.5641 22.04 19.7765 -0.0556931 1.76058 74.8479
7747445 15.5202 17.5738 22.0892 19.796 -0.0798836 1.75872 74.9792
7747457 15.5202 17.5738 22.0892 19.796 -0.0798836 1.75872 74.9792
7747467 15.4497 17.5057 22.1089 19.7668 -0.095588 1.78806 74.8311
7747475 15.4145 17.5154 22.1384 19.7668 -0.0904292 1.799 74.8351
7747496 15.3881 17.4182 22.0892 19.757 -0.101151 1.8164 74.6525
7747505 15.4233 17.4182 22.1384 19.7375 -0.135837 1.81372 74.7174
7747516 15.4233 17.4182 22.1384 19.7375 -0.135837 1.81372 74.7174
7747526 15.4057 17.3598 22.1482 19.796 -0.133216 1.84287 74.7098
7747536 15.3352 17.3112 22.2171 19.796 -0.149068 1.88188 74.6596
7747556 15.4145 17.3209 22.286 19.8447 -0.178625 1.88242 74.8662
7747568 15.4145 17.3209 22.286 19.8447 -0.178625 1.88242 74.8662
7747576 15.344 17.3209 22.2565 19.8934 -0.129054 1.90168 74.8149
7747586 15.4057 17.3501 22.286 19.8739 -0.156076 1.88295 74.9158
7747605 15.4057 17.3501 22.286 19.8739 -0.156076 1.88295 74.9158
7747607 15.3793 17.4279 22.2368 19.8447 -0.114664 1.85762 74.8887
7747619 15.4762 17.3015 22.3451 19.8252 -0.231685 1.87984 74.948
7747641 15.4233 17.3112 22.2762 19.8544 -0.178273 1.88261 74.8652
7747649 15.4233 17.3112 22.2762 19.8544 -0.178273 1.88261 74.8652
7747664 15.3969 17.3598 22.286 19.8155 -0.169528 1.87249 74.8583
7747669 15.4145 17.3404 22.1876 19.8057 -0.152512 1.85391 74.7482
7747689 15.4321 17.282 22.2171 19.7765 -0.19768 1.86316 74.7078
7747699 15.4497 17.3598 22.1778 19.757 -0.170799 1.83128 74.7444
7747710 15.4497 17.3598 22.1778 19.757 -0.170799 1.83128 74.7444
7747719 15.4321 17.4182 22.2073 19.7765 -0.148571 1.83075 74.8341
7747729 15.4321 17.4182 22.2073 19.7765 -0.148571 1.83075 74.8341
7747738 15.4762 17.3404 22.1975 19.8837 -0.150059 1.85544 74.8977
7747749 15.4145 17.4085 22.1975 19.8739 -0.110011 1.85229 74.8944
7747766 15.4145 17.4085 22.1975 19.8739 -0.110011 1.85229 74.8944
7747775 15.5026 17.3307 22.2664 19.9421 -0.165299 1.874 75.0417
7747792 15.4409 17.3598 22.227 19.9129 -0.131831 1.8693 74.9407
7747801 15.4497 17.3404 22.2073 19.8642 -0.151099 1.8597 74.8616
7747820 15.5114 17.3209 22.1482 19.7862 -0.184722 1.82611 74.7668
7747832 15.485 17.3793 22.1285 19.8642 -0.123583 1.82918 74.857
7747840 15.485 17.3793 22.1285 19.8642 -0.123583 1.82918 74.857
7747856 15.529 17.3793 22.0793 19.796 -0.144774 1.79859 74.7836
7747860 15.5554 17.3501 22.1285 19.757 -0.192823 1.80102 74.7911
7747871 15.5554 17.3501 22.1285 19.757 -0.192823 1.80102 74.7911
7747881 15.5202 17.3598 22.1187 19.796 -0.161467 1.81189 74.7947
7747890 15.5202 17.3598 22.1187 19.796 -0.161467 1.81189 74.7947
7747906 15.529 17.3015 22.1089 19.8155 -0.174209 1.82473 74.7548
7747911 15.529 17.3501 22.1679 19.9324 -0.138186 1.84474 74.9794
7747920 15.529 17.3501 22.1679 19.9324 -0.138186 1.84474 74.9794
7747930 15.4938 17.389 22.1975 19.8642 -0.146122 1.83713 74.9444
7747940 15.5554 17.3112 22.2073 19.8642 -0.195941 1.84248 74.9381
7747952 15.5554 17.3112 22.2073 19.8642 -0.195941 1.84248 74.9381
7747961 15.5114 17.3501 22.1975 19.8447 -0.171566 1.83849 74.9037
7747981 15.5378 17.3404 22.1089 19.8544 -0.150935 1.82087 74.8415
7747991 15.529 17.3112 22.1482 19.7181 -0.216842 1.8123 74.7065
7748005 15.529 17.3112 22.1482 19.7181 -0.216842 1.8123 74.7065
7748011 15.5466 17.3015 22.1187 19.7765 -0.196452 1.81563 74.7433
7748021 15.5114 17.3501 22.1482 19.8544 -0.151968 1.83155 74.8642
7748031 15.5114 17.3501 22.1482 19.8544 -0.151968 1.83155 74.8642
7748041 15.4674 17.3015 22.2368 19.8057 -0.199491 1.85942 74.8114
7748051 15.4674 17.3015 22.2368 19.8057 -0.199491 1.85942 74.8114
7748061 15.4409 17.3209 22.1975 19.835 -0.161272 1.85921 74.7943
7748071 15.5026 17.282 22.2368 19.8739 -0.194758 1.86783 74.8954
7748084 15.5026 17.282 22.2368 19.8739 -0.194758 1.86783 74.8954
7748091 15.4938 17.3307 22.2368 19.9129 -0.162406 1.8657 74.9742
7748101 15.4938 17.3307 22.2368 19.9129 -0.162406 1.8657 74.9742
7748111 15.4497 17.282 22.2762 19.8739 -0.190294 1.88664 74.8819
7748125 15.5466 17.3501 22.2171 19.8544 -0.186485 1.83574 74.9683
7748132 15.5466 17.3501 22.2171 19.8544 -0.186485 1.83574 74.9683
7748142 15.4321 17.282 22.2171 19.8642 -0.168142 1.87855 74.7955
7748152 15.4409 17.2626 22.1975 19.8155 -0.187483 1.86895 74.7164
7748172 15.5202 17.282 22.2171 19.8155 -0.213748 1.85015 74.8349
7748184 15.4321 17.2626 22.227 19.8837 -0.171395 1.88809 74.8054
7748192 15.4321 17.2626 22.227 19.8837 -0.171395 1.88809 74.8054
7748204 15.485 17.3307 22.2171 19.8739 -0.166047 1.8574 74.9067
7748216 15.485 17.3307 22.2171 19.8739 -0.166047 1.8574 74.9067
7748223 15.485 17.4182 22.227 19.8837 -0.136676 1.84116 75.0138
7748234 15.4674 17.3015 22.2664 19.9129 -0.173233 1.88338 74.9481
7748246 15.4674 17.3015 22.2664 19.9129 -0.173233 1.88338 74.9481
7748254 15.4409 17.3307 22.1679 19.9032 -0.125273 1.86381 74.8427
7748264 15.4938 17.3209 22.2565 19.8837 -0.182007 1.86621 74.9549
7748273 15.4938 17.3209 22.2565 19.8837 -0.182007 1.86621 74.9549
7748284 15.4409 17.2918 22.2565 20.0103 -0.131789 1.90684 74.9995
7748305 15.4497 17.3307 22.1482 19.9324 -0.111851 1.8635 74.861
7748315 15.4497 17.4085 22.2073 19.9129 -0.111927 1.85293 74.9784
7748325 15.4497 17.4085 22.2073 19.9129 -0.111927 1.85293 74.9784
7748335 15.4497 17.3598 22.099 19.8837 -0.102033 1.83971 74.7923
7748345 15.4497 17.3112 22.0498 19.8155 -0.124907 1.82998 74.6262
7748355 15.4497 17.3112 22.0498 19.8155 -0.124907 1.82998 74.6262
7748365 15.5114 17.3112 22.0301 19.8252 -0.135608 1.81433 74.6779
7748385 15.4762 17.3015 22.0301 19.7862 -0.140274 1.81758 74.594
7748396 15.5202 17.3501 22.0301 19.8057 -0.132008 1.80016 74.7062
7748406 15.5202 17.3501 22.0301 19.8057 -0.132008 1.80016 74.7062
7748416 15.5466 17.4668 22.0301 19.7862 -0.108135 1.76459 74.8298
7748425 15.5554 17.4571 21.9809 19.7375 -0.114311 1.74745 74.731
7748444 15.5554 17.4571 21.9809 19.7375 -0.114311 1.74745 74.731
7748446 15.6435 17.5641 21.9317 19.8252 -0.0619948 1.71067 74.9645
7748466 15.6611 17.6127 21.9218 19.8252 -0.0483394 1.69417 75.0209
7748476 15.6788 17.6224 21.9317 19.7765 -0.0704914 1.68119 75.0094
7748487 15.6788 17.6224 21.9317 19.7765 -0.0704914 1.68119 75.0094
7748504 15.6523 17.6419 21.8726 19.7473 -0.0453174 1.66704 74.9141
7748507 15.6699 17.6322 21.7643 19.8252 0.00770688 1.65989 74.8916
7748519 15.6699 17.6322 21.7643 19.8252 0.00770688 1.65989 74.8916
7748528 15.6964 17.7002 21.7742 19.6693 -0.0337303 1.61282 74.8401
7748538 15.6964 17.7002 21.6856 19.6693 -0.00414103 1.59696 74.7515
7748549 15.6699 17.6905 21.6856 19.6888 0.00796318 1.60848 74.7349
7748557 15.7052 17.71 21.6561 19.7181 0.022319 1.59628 74.7892
7748571 15.7052 17.71 21.6561 19.7181 0.022319 1.59628 74.7892
7748577 15.6876 17.7683 21.6265 19.6109 0.0217944 1.5627 74.6933
7748592 15.7052 17.7683 21.6659 19.5914 -0.00380278 1.56237 74.7308
7748597 15.7052 17.7683 21.6659 19.5914 -0.00380278 1.56237 74.7308
7748609 15.7756 17.8461 21.6364 19.6206 0.0182718 1.52952 74.8788
7748630 15.7756 17.8461 21.6364 19.6206 0.0182718 1.52952 74.8788
7748637 15.758 17.7391 21.6659 19.6693 -0.00516325 1.57113 74.8324
7748639 15.8197 17.8364 21.597 19.6401 0.0199705 1.51837 74.8932
7748649 15.8197 17.8364 21.597 19.6401 0.0199705 1.51837 74.8932
7748659 15.8813 17.8753 21.5084 19.6109 0.0321984 1.47497 74.8759
7748669 15.8549 17.9823 21.4887 19.5622 0.0670344 1.4449 74.8881
7748689 15.8373 17.9725 21.4592 19.5524 0.0763446 1.44379 74.8215
7748702 15.9518 17.9725 21.3903 19.5524 0.0610709 1.40616 74.8671
7748709 15.9518 17.9336 21.3903 19.455 0.0155747 1.39698 74.7307
7748724 15.9606 17.9725 21.3509 19.4745 0.0453174 1.3829 74.7586
7748730 15.9606 17.9725 21.3509 19.4745 0.0453174 1.3829 74.7586
7748740 15.9518 17.9628 21.3607 19.494 0.0482291 1.3923 74.7693
7748750 15.9254 17.9531 21.3509 19.4842 0.0538856 1.39666 74.7136
7748770 15.9342 18.0406 21.3607 19.4745 0.073576 1.37557 74.8101
7748781 15.9518 17.992 21.3214 19.4745 0.0646621 1.37518 74.7397
7748792 15.9518 17.992 21.3214 19.4745 0.0646621 1.37518 74.7397
7748801 15.943 18.0309 21.3411 19.5427 0.0966907 1.3846 74.8577
7748814 15.943 18.0309 21.3411 19.5427 0.0966907 1.3846 74.8577
7748820 15.9342 18.0212 21.3214 19.494 0.0867963 1.3762 74.7707
7748830 15.9518 18.0017 21.3214 19.4842 0.071153 1.37483 74.7591
7748840 15.9518 18.0017 21.3214 19.4842 0.071153 1.37483 74.7591
7748850 15.9078 18.0892 21.3411 19.5037 0.114959 1.37245 74.8418
7748861 15.9078 18.0892 21.3214 19.5135 0.124806 1.37064 74.8318
7748871 15.9078 17.992 21.3214 19.5135 0.0924349 1.39194 74.7346
7748881 15.9518 17.992 21.3509 19.5817 0.0904649 1.40006 74.8764
7748902 15.8549 17.992 21.3214 19.5427 0.119928 1.40886 74.711
7748914 15.9342 18.0406 21.2721 19.5037 0.11304 1.36475 74.7507
7748931 15.9078 18.0017 21.3017 19.5817 0.124988 1.39863 74.7928
7748941 15.9078 18.0017 21.2623 19.5817 0.138223 1.39147 74.7534
7748951 15.9694 18.0601 21.2623 19.5135 0.114232 1.35277 74.8053
7748961 15.899 18.0212 21.3509 19.5622 0.111407 1.40171 74.8332
7748971 15.899 18.0212 21.3509 19.5622 0.111407 1.40171 74.8332
7748981 15.9694 18.0406 21.282 19.6109 0.133535 1.37835 74.9029
7748991 15.9342 18.0212 21.2426 19.5719 0.139183 1.37606 74.7699
7749011 15.8813 18.0212 21.3214 19.5914 0.136957 1.40551 74.8153
7749024 15.8813 18.0212 21.3214 19.5914 0.136957 1.40551 74.8153
7749036 15.8902 17.9628 21.3706 19.5914 0.0980675 1.42532 74.815
7749046 15.8637 17.9045 21.4198 19.6109 0.0774801 1.45641 74.7989
7749072 15.8902 17.8753 21.3607 19.6401 0.0884444 1.45161 74.7663
7749073 15.8197 17.885 21.3903 19.6109 0.0956893 1.46504 74.7059
7749086 15.8197 17.885 21.3903 19.6109 0.0956893 1.46504 74.7059
7749092 15.8461 17.8753 21.4493 19.7181 0.0994444 1.49141 74.8888
7749102 15.8461 17.8753 21.4493 19.7181 0.0994444 1.49141 74.8888
7749112 15.8197 17.8558 21.4592 19.7278 0.101775 1.50505 74.8625
7749122 15.8109 17.9045 21.4986 19.7083 0.101215 1.49986 74.9222
7749132 15.8109 17.9045 21.4986 19.7083 0.101215 1.49986 74.9222
7749142 15.8373 17.8364 21.5871 19.6401 0.0173718 1.51271 74.9009
7749154 15.7933 17.7878 21.5871 19.6693 0.0256181 1.53843 74.8375
7749164 15.7933 17.7878 21.5871 19.6693 0.0256181 1.53843 74.8375
7749174 15.8285 17.8072 21.6068 19.6888 0.0202507 1.53339 74.9314
7749184 15.8285 17.8072 21.6068 19.6888 0.0202507 1.53339 74.9314
7749195 15.7756 17.778 21.5675 19.5817 0.00555217 1.52513 74.7028
7749204 15.7316 17.7489 21.6265 19.5524 -0.0190303 1.54672 74.6594
7749218 15.7316 17.7489 21.6265 19.5524 -0.0190303 1.54672 74.6594
7749224 15.758 17.7489 21.6167 19.5135 -0.0376448 1.53207 74.637
7749241 15.7668 17.7391 21.6462 19.5914 -0.0275955 1.55163 74.7436
7749244 15.7668 17.7391 21.6462 19.5914 -0.0275955 1.55163 74.7436
7749254 15.8109 17.7391 21.6659 19.5232 -0.0717297 1.53315 74.7391
7749274 15.7316 17.6905 21.6954 19.6206 -0.0387684 1.58432 74.7382
7749285 15.7668 17.778 21.6954 19.6304 -0.0179827 1.55887 74.8707
7749295 15.7668 17.778 21.6954 19.6304 -0.0179827 1.55887 74.8707
7749305 15.8725 17.7586 21.7151 19.6304 -0.0662521 1.54336 74.9766
7749315 15.8109 17.7294 21.6659 19.6499 -0.0325665 1.55808 74.856
7749327 15.8109 17.7294 21.6659 19.6499 -0.0325665 1.55808 74.856
7749337 15.8021 17.8364 21.6757 19.6304 -0.00368804 1.53467 74.9446
7749348 15.8021 17.8364 21.6757 19.6304 -0.00368804 1.53467 74.9446
7749355 15.8461 17.7586 21.6265 19.6011 -0.0377223 1.52801 74.8324
7749370 15.8813 17.778 21.6068 19.6791 -0.0103638 1.52642 74.9453
7749376 15.8813 17.778 21.6068 19.6791 -0.0103638 1.52642 74.9453
7749386 15.7933 17.7489 21.6265 19.6499 -0.0070408 1.5506 74.8185
7749396 15.8285 17.8072 21.6462 19.6206 -0.0156403 1.52821 74.9025
7749406 15.8285 17.8072 21.6462 19.6206 -0.0156403 1.52821 74.9025
7749416 15.8109 17.778 21.6068 19.6011 -0.0128776 1.52795 74.7969
7749426 15.8285 17.7294 21.6265 19.5817 -0.0481337 1.53484 74.7661
7749440 15.8285 17.7294 21.6265 19.5817 -0.0481337 1.53484 74.7661
7749446 15.8549 17.778 21.6561 19.6109 -0.0407398 1.52884 74.8999
7749467 15.8461 17.7197 21.6659 19.5232 -0.09 1.52966 74.7549
7749477 15.8285 17.7197 21.6856 19.5427 -0.0841513 1.54061 74.7765
7749487 15.8285 17.7197 21.6856 19.5427 -0.0841513 1.54061 74.7765
7749497 15.7933 17.7294 21.6954 19.5232 -0.0789642 1.54452 74.7413
7749507 15.8549 17.7878 21.7053 19.5037 -0.0897497 1.51626 74.8517
7749519 15.8549 17.7878 21.7053 19.5037 -0.0897497 1.51626 74.8517
7749527 15.8021 17.8461 21.6757 19.494 -0.0460178 1.50797 74.8179
7749544 15.8021 17.8461 21.6757 19.494 -0.0460178 1.50797 74.8179
7749547 15.8285 17.778 21.6561 19.3673 -0.113618 1.49073 74.6299
7749559 15.9166 17.8169 21.6954 19.3966 -0.133148 1.47513 74.8255
7749579 15.8373 17.8753 21.6462 19.4648 -0.0479385 1.48316 74.8236
7749594 15.899 17.885 21.6954 19.4355 -0.0913873 1.47106 74.9149
7749609 15.943 17.885 21.6856 19.4355 -0.102751 1.45961 74.9491
7749620 15.943 17.885 21.6856 19.4355 -0.102751 1.45961 74.9491
7749629 15.8813 17.9434 21.6364 19.3771 -0.0658974 1.44086 74.8382
7749639 15.9782 17.885 21.6265 19.2894 -0.143874 1.4147 74.7792
7749660 15.9782 17.885 21.6265 19.2894 -0.143874 1.4147 74.7792
7749661 15.9254 17.8947 21.6659 19.3186 -0.126301 1.43662 74.8046
7749669 15.8549 17.778 21.6856 19.3284 -0.145386 1.48318 74.6469
7749695 15.9078 17.8364 21.6167 19.3868 -0.100753 1.45677 74.7477
7749704 15.9078 17.8364 21.6167 19.3868 -0.100753 1.45677 74.7477
7749712 15.8461 17.8267 21.7446 19.3868 -0.126089 1.49564 74.8042
7749720 15.8725 17.8169 21.7545 19.3966 -0.13814 1.49549 74.8405
7749730 15.8725 17.8169 21.7545 19.3966 -0.13814 1.49549 74.8405
7749740 15.8813 17.7683 21.725 19.3381 -0.167271 1.48838 74.7127
7749751 15.8902 17.7975 21.7446 19.3771 -0.153802 1.49061 74.8094
7749760 15.8902 17.7975 21.7446 19.3771 -0.153802 1.49061 74.8094
7749772 15.943 17.7975 21.7742 19.3868 -0.177859 1.48605 74.9015
7749781 15.943 17.7975 21.7742 19.3868 -0.177859 1.48605 74.9015
7749793 15.8637 17.7002 21.7545 19.3576 -0.187609 1.51617 74.676
7749801 15.8637 17.778 21.7643 19.3576 -0.164662 1.50076 74.7637
7749811 15.8637 17.778 21.7643 19.3576 -0.164662 1.50076 74.7637
7749823 15.8461 17.7197 21.7348 19.3673 -0.165364 1.51397 74.6679
7749831 15.8902 17.6905 21.7446 19.3576 -0.196397 1.5107 74.6829
7749843 15.8902 17.6905 21.7446 19.3576 -0.196397 1.5107 74.6829
7749850 15.8902 17.7683 21.7545 19.3576 -0.173444 1.4953 74.7705
7749864 15.8902 17.7683 21.7545 19.3576 -0.173444 1.4953 74.7705
7749871 15.8902 17.778 21.7643 19.4063 -0.157055 1.50372 74.8388
7749881 15.9166 17.7975 21.7742 19.3479 -0.182207 1.48484 74.8361
7749891 15.9166 17.7975 21.7742 19.3479 -0.182207 1.48484 74.8361
7749901 15.943 17.7683 21.6856 19.3868 -0.158276 1.47648 74.7837
7749911 15.899 17.7683 21.7348 19.4258 -0.146893 1.50211 74.8279
7749932 15.8902 17.7683 21.7151 19.4453 -0.13088 1.50402 74.8188
7749941 15.8902 17.7683 21.7151 19.4453 -0.13088 1.50402 74.8188
7749956 15.9342 17.8364 21.6757 19.416 -0.119388 1.46693 74.8624
7749961 15.9166 17.7683 21.6462 19.3966 -0.133123 1.47694 74.7277
7749971 15.9166 17.7683 21.6462 19.3966 -0.133123 1.47694 74.7277
7749981 15.9254 17.8169 21.6068 19.416 -0.10006 1.46069 74.7652
7749991 15.9166 17.8558 21.6265 19.4648 -0.0743061 1.46644 74.8637
7750001 15.9166 17.8558 21.6265 19.4648 -0.0743061 1.46644 74.8637
7750011 15.9518 17.8072 21.6856 19.5037 -0.108893 1.48708 74.9483
7750022 15.9518 17.8072 21.6856 19.5037 -0.108893 1.48708 74.9483
7750031 15.9342 17.778 21.6265 19.4453 -0.112794 1.47616 74.784
7750041 15.9078 17.778 21.597 19.4842 -0.0810802 1.48369 74.767
7750062 15.9782 17.8169 21.6364 19.416 -0.127466 1.4544 74.8476
7750071 15.9782 17.8169 21.6364 19.416 -0.127466 1.4544 74.8476
7750082 15.9078 17.7683 21.6265 19.4063 -0.120361 1.47708 74.7089
7750092 15.8725 17.7489 21.6659 19.4063 -0.128281 1.49627 74.6936
7750103 15.8725 17.7489 21.6659 19.4063 -0.128281 1.49627 74.6936
7750124 15.8725 17.7002 21.6954 19.4258 -0.147919 1.51587 74.694
7750134 15.8725 17.7002 21.6954 19.4258 -0.147919 1.51587 74.694
7750144 15.8373 17.6808 21.8628 19.5135 -0.168848 1.57385 74.8943
7750154 15.8461 17.6516 21.8529 19.5232 -0.175035 1.57834 74.8738
7750164 15.8461 17.6516 21.8529 19.5232 -0.175035 1.57834 74.8738
7750176 15.7933 17.6322 21.9514 19.5622 -0.183582 1.61894 74.939
7750184 15.7933 17.6322 21.9514 19.5622 -0.183582 1.61894 74.939
7750199 15.8197 17.5446 21.8726 19.5232 -0.208823 1.61146 74.7601
7750204 15.7492 17.5835 21.8923 19.5427 -0.172302 1.62548 74.7677
7750214 15.7492 17.5835 21.8923 19.5427 -0.172302 1.62548 74.7677
7750224 15.7228 17.5349 21.912 19.5427 -0.186445 1.64571 74.7124
7750234 15.6788 17.5057 22.0301 19.6304 -0.19132 1.69871 74.845
7750245 15.6788 17.5057 22.0301 19.6304 -0.19132 1.69871 74.845
7750255 15.7052 17.4863 22.0104 19.6986 -0.177155 1.70577 74.9004
7750274 15.7052 17.4863 22.0104 19.6986 -0.177155 1.70577 74.9004
7750277 15.6523 17.4182 22.0104 19.6596 -0.195664 1.72587 74.7405
7750286 15.6435 17.4182 22.0892 19.6596 -0.218855 1.74181 74.8105
7750295 15.6435 17.4182 22.0892 19.6596 -0.218855 1.74181 74.8105
7750307 15.6347 17.3696 22.1089 19.7765 -0.199461 1.77883 74.8896
7750315 15.5995 17.389 22.099 19.8934 -0.138725 1.80124 74.9809
7750335 15.5554 17.3015 22.099 19.9226 -0.143678 1.83592 74.8786
7750353 15.5554 17.3015 22.099 19.9226 -0.143678 1.83592 74.8786
7750355 15.5202 17.2918 22.1285 19.8739 -0.161423 1.84266 74.8144
7750365 15.4762 17.2723 22.0892 19.7278 -0.189508 1.82427 74.5654
7750376 15.4762 17.2723 22.0892 19.7278 -0.189508 1.82427 74.5654
7750387 15.529 17.3112 22.1482 19.7862 -0.193848 1.82433 74.7747
7750398 15.4409 17.2723 22.1285 19.8252 -0.158019 1.85635 74.667
7750416 15.4762 17.282 22.1482 19.9129 -0.143501 1.86508 74.8193
7750426 15.4762 17.282 22.1482 19.9129 -0.143501 1.86508 74.8193
7750437 15.4938 17.1167 22.2171 20.0006 -0.198336 1.92586 74.8282
7750446 15.4321 17.1556 22.2959 20.0785 -0.164716 1.95832 74.9621
7750467 15.3969 17.2042 22.3353 20.0395 -0.162846 1.95536 74.9759
7750476 15.3969 17.107 22.3746 20.0883 -0.192186 1.99269 74.9668
7750487 15.3969 17.107 22.3746 20.0883 -0.192186 1.99269 74.9668
7750497 15.3617 17.1362 22.5223 20.0201 -0.242449 2.00783 75.0402
7750507 15.3617 17.1362 22.5223 20.0201 -0.242449 2.00783 75.0402
7750517 15.3088 17.0389 22.4337 20.059 -0.21532 2.03333 74.8404
7750527 15.3 17.0097 22.542 20.0298 -0.267908 2.05566 74.8815
7750537 15.3 17.0097 22.542 20.0298 -0.267908 2.05566 74.8815
7750547 15.2207 17.0292 22.542 20.098 -0.212157 2.08107 74.8899
7750557 15.2031 16.9079 22.5814 20.1662 -0.237238 2.13132 74.8586
7750567 15.2031 16.9079 22.5814 20.1662 -0.237238 2.13132 74.8586
7750578 15.1326 16.8434 22.7192 20.2344 -0.258236 2.19756 74.9296
7750590 15.1326 16.8434 22.7192 20.2344 -0.258236 2.19756 74.9296
7750598 15.0269 16.7514 22.7684 20.2734 -0.257495 2.25811 74.82
7750611 15.0622 16.7329 22.8176 20.3513 -0.265309 2.27585 74.964
7750618 15.0622 16.7329 22.8176 20.3513 -0.265309 2.27585 74.964
7750631 15.0181 16.6501 22.916 20.3123 -0.324379 2.31523 74.8965
7750639 15.0093 16.6593 22.9357 20.3903 -0.298531 2.33165 74.9946
7750659 15.0093 16.6961 23.044 20.361 -0.331579 2.33648 75.1105
7750679 14.9212 16.5303 23.0342 20.361 -0.355406 2.39361 74.8468
7750689 14.9124 16.5119 23.1523 20.4195 -0.377794 2.42961 74.9961
7750699 14.9124 16.5119 23.1523 20.4195 -0.377794 2.42961 74.9961
7750710 14.9477 16.5211 23.172 20.439 -0.386105 2.42585 75.0797
7750720 14.8948 16.4567 23.231 20.4097 -0.419861 2.45811 74.9923
7750740 14.8684 16.4475 23.1818 20.4 -0.401467 2.45655 74.8977
7750760 14.7979 16.4751 23.2606 20.3415 -0.414646 2.46993 74.8751
7750771 14.8332 16.4567 23.2704 20.3805 -0.422463 2.47417 74.9408
7750780 14.8332 16.4567 23.2704 20.3805 -0.422463 2.47417 74.9408
7750790 14.8332 16.4382 23.2606 20.3708 -0.428791 2.4752 74.9027
7750801 14.8772 16.3922 23.2999 20.3805 -0.468458 2.48387 74.9499
7750811 14.8772 16.3922 23.2999 20.3805 -0.468458 2.48387 74.9499
7750821 14.8508 16.4567 23.3393 20.439 -0.430995 2.49132 75.0857
7750831 14.8508 16.4567 23.3393 20.439 -0.430995 2.49132 75.0857
7750842 14.8596 16.4014 23.3196 20.3805 -0.466004 2.48912 74.9611
7750851 14.8332 16.3646 23.4574 20.3513 -0.524867 2.52198 75.0065
7750874 14.8684 16.3185 23.487 20.4 -0.545074 2.53751 75.0739
7750887 14.8244 16.2909 23.5165 20.4292 -0.539804 2.56401 75.061
7750893 14.8244 16.2909 23.5165 20.4292 -0.539804 2.56401 75.061
7750902 14.8684 16.3369 23.5165 20.3903 -0.551739 2.53649 75.1121
7750914 14.842 16.2356 23.5756 20.3805 -0.600186 2.57454 75.0337
7750922 14.842 16.2356 23.5756 20.3805 -0.600186 2.57454 75.0337
7750932 14.8244 16.2356 23.5756 20.2928 -0.624408 2.56413 74.9284
7750942 14.8244 16.2356 23.5756 20.2928 -0.624408 2.56413 74.9284
7750952 14.8508 16.1528 23.6642 20.1564 -0.736968 2.56944 74.8241
7750962 14.8067 16.1343 23.8118 20.2052 -0.76011 2.61664 74.9581
7750972 14.8067 16.1343 23.8118 20.2052 -0.76011 2.61664 74.9581
7750993 14.8244 16.0883 23.8413 20.1272 -0.81802 2.61533 74.8812
7750996 14.7891 16.033 23.7823 20.1467 -0.799872 2.63009 74.7512
7751015 14.8155 16.0423 23.8512 20.1077 -0.840968 2.62664 74.8167
7751024 14.8155 16.0423 23.8512 20.1077 -0.840968 2.62664 74.8167
7751036 14.7979 16.0791 23.9201 20.1662 -0.824653 2.64315 74.9633
7751044 14.8508 16.033 23.9398 20.1467 -0.870614 2.64158 74.9703
7751064 14.8067 16.0699 23.9398 20.1467 -0.843725 2.64327 74.9631
7751074 14.8772 16.0238 23.9792 20.1272 -0.90168 2.64081 75.0074
7751085 14.8772 16.0238 23.9792 20.1272 -0.90168 2.64081 75.0074
7751095 14.8596 16.0054 23.9988 20.137 -0.905339 2.65413 75.0008
7751105 14.8596 16.0054 23.9988 20.137 -0.905339 2.65413 75.0008
7751114 14.7979 15.9133 24.1367 20.137 -0.961626 2.71302 74.9849
7751124 14.8596 15.9317 24.2154 20.0201 -1.04069 2.68786 75.0268
7751147 14.8684 15.9317 24.1957 20.0201 -1.03722 2.68256 75.0159
7751155 14.9124 15.9041 24.2351 20.0006 -1.08019 2.68196 75.0522
7751168 14.9124 15.9041 24.2351 20.0006 -1.08019 2.68196 75.0522
7751175 14.8772 15.941 24.1957 19.9519 -1.06052 2.6671 74.9657
7751195 14.9124 15.8765 24.2154 19.9032 -1.11744 2.66922 74.9075
7751205 14.9653 15.9502 24.2154 19.757 -1.15957 2.6153 74.8879
7751215 14.9653 15.9502 24.2154 19.757 -1.15957 2.6153 74.8879
7751225 15.0005 16.0146 24.1563 19.6888 -1.15328 2.57079 74.8603
7751235 15.0446 15.9594 24.2449 19.7083 -1.20796 2.59134 74.9572
7751246 15.0446 15.9594 24.2449 19.7083 -1.20796 2.59134 74.9572
7751258 15.0093 16.0146 24.2548 19.6596 -1.19761 2.58021 74.9383
7751276 15.0358 15.9594 24.2056 19.6693 -1.20629 2.58043 74.87
7751286 15.0005 16.0238 24.2449 19.6304 -1.19868 2.57363 74.8997
7751296 15.0005 16.0238 24.2449 19.6304 -1.19868 2.57363 74.8997
7751306 15.0622 15.9686 24.1268 19.6011 -1.21031 2.54764 74.7587
7751316 15.071 16.0146 24.2056 19.6693 -1.19816 2.55921 74.9605
7751327 15.071 16.0146 24.2056 19.6693 -1.19816 2.55921 74.9605
7751336 15.1062 16.0607 24.1957 19.6986 -1.17993 2.5434 75.0612
7751347 15.1062 16.0607 24.1957 19.6986 -1.17993 2.5434 75.0612
7751357 15.115 16.0975 24.1957 19.6791 -1.17668 2.52951 75.0873
7751369 15.0798 16.1343 24.0776 19.7083 -1.10491 2.51435 75
7751377 15.0798 16.1343 24.0776 19.7083 -1.10491 2.51435 75
7751390 15.0622 16.1712 24.0284 19.6888 -1.07756 2.49842 74.9506
7751396 15.0446 16.1251 23.9693 19.7473 -1.04874 2.51319 74.8863
7751407 15.0446 16.1251 23.9693 19.7473 -1.04874 2.51319 74.8863
7751417 15.071 16.2264 23.9102 19.835 -0.972727 2.48814 75.0426
7751429 15.071 16.2264 23.9102 19.835 -0.972727 2.48814 75.0426
7751437 15.0446 16.1159 23.8217 19.8155 -0.980918 2.50208 74.7976
7751447 14.9741 16.1896 23.8709 19.8934 -0.92154 2.52254 74.928
7751458 14.9741 16.1896 23.8709 19.8934 -0.92154 2.52254 74.928
7751467 15.0005 16.1988 23.802 19.9713 -0.877765 2.51572 74.9726
7751479 14.9829 16.162 23.7232 20.0006 -0.849347 2.5202 74.8687
7751487 14.9829 16.162 23.7232 20.0006 -0.849347 2.5202 74.8687
7751500 14.9565 16.2725 23.6248 20.0785 -0.744095 2.49712 74.9323
7751509 14.9565 16.2725 23.6248 20.0785 -0.744095 2.49712 74.9323
7751518 14.9389 16.2725 23.546 20.059 -0.719561 2.48482 74.8164
7751531 14.9829 16.3554 23.5263 20.0688 -0.695656 2.45355 74.9334
7751538 14.9829 16.3554 23.5263 20.0688 -0.695656 2.45355 74.9334
7751548 15.0269 16.429 23.4574 20.1175 -0.64569 2.42279 75.0309
7751558 14.9565 16.4106 23.3196 20.1272 -0.580864 2.42196 74.8139
7751568 14.9565 16.4106 23.3196 20.1272 -0.580864 2.42196 74.8139
7751578 15.0005 16.5119 23.2113 20.1759 -0.508685 2.37815 74.8997
7751590 15.0005 16.5119 23.2113 20.1759 -0.508685 2.37815 74.8997
7751598 14.9477 16.5119 23.1228 20.1857 -0.459033 2.37712 74.768
7751608 14.9653 16.6132 23.0735 20.3026 -0.37457 2.36095 74.9546
7751636 15.0446 16.6408 22.8865 20.2441 -0.349556 2.29467 74.816
7751643 15.0093 16.6777 22.9062 20.3513 -0.295739 2.31581 74.9445
7751650 15.0093 16.6777 22.9062 20.3513 -0.295739 2.31581 74.9445
7751660 14.9477 16.7421 22.8078 20.4195 -0.198151 2.31004 74.9171
7751670 14.9477 16.7421 22.8078 20.4195 -0.198151 2.31004 74.9171
7751680 14.9741 16.7698 22.7192 20.4779 -0.148633 2.29245 74.941
7751697 14.9477 16.7421 22.7487 20.5266 -0.142591 2.31818 74.9652
7751710 14.9477 16.7974 22.7093 20.6533 -0.0686675 2.32018 75.1077
7751720 14.9389 16.7514 22.6503 20.5364 -0.100626 2.30307 74.8769
7751740 14.9653 16.8158 22.5124 20.6338 -0.0093773 2.27524 74.9274
7751750 14.9653 16.8158 22.5124 20.6338 -0.0093773 2.27524 74.9274
7751761 14.8948 16.8066 22.4829 20.6241 0.0176936 2.28696 74.8084
7751770 14.9124 16.7974 22.5321 20.6825 0.0117928 2.30328 74.9245
7751782 14.9124 16.7974 22.5321 20.6825 0.0117928 2.30328 74.9245
7751790 14.9212 16.7882 22.5124 20.7605 0.0383258 2.31324 74.9823
7751803 14.9124 16.7237 22.5912 20.7312 -0.0162348 2.33854 74.9586
7751810 14.9124 16.7237 22.5912 20.7312 -0.0162348 2.33854 74.9586
7751826 14.9301 16.7237 22.5617 20.7312 -0.0122637 2.32948 74.9467
7751841 14.8772 16.7882 22.5518 20.7312 0.030154 2.32513 74.9484
7751852 14.8684 16.7606 22.5223 20.7312 0.0337571 2.32856 74.8825
7751872 14.8508 16.7514 22.5518 20.663 0.00393987 2.32823 74.817
7751882 14.8684 16.7882 22.414 20.6728 0.0597239 2.29389 74.7434
7751892 14.8684 16.7882 22.414 20.6728 0.0597239 2.29389 74.7434
7751902 14.8508 16.7514 22.4534 20.7605 0.0693828 2.32805 74.816
7751912 14.8508 16.7514 22.4534 20.7605 0.0693828 2.32805 74.816
7751922 14.8684 16.6224 22.5026 20.7507 0.000718236 2.36055 74.7441
7751935 14.8332 16.7421 22.5518 20.8871 0.081405 2.37227 75.0142
7751942 14.8332 16.7421 22.5518 20.8871 0.081405 2.37227 75.0142
7751955 14.8332 16.7329 22.5912 20.8871 0.0651866 2.38103 75.0444
7751962 14.8332 16.6869 22.5617 20.9456 0.0791758 2.39656 75.0273
7751984 14.842 16.6685 22.6404 20.9748 0.0535339 2.4169 75.1256
7751994 14.842 16.6685 22.6404 20.9748 0.0535339 2.4169 75.1256
7752002 14.7803 16.6593 22.5912 20.9553 0.0810325 2.42183 74.9861
7752012 14.7891 16.6685 22.6798 21.0138 0.0709623 2.44227 75.1511
7752034 14.7979 16.6316 22.6109 20.9456 0.0561386 2.42583 74.986
7752044 14.8067 16.6777 22.5321 20.8871 0.0754029 2.39003 74.9037
7752053 14.8067 16.6777 22.5321 20.8871 0.0754029 2.39003 74.9037
7752066 14.8067 16.6593 22.5124 20.8871 0.0758648 2.391 74.8656
7752075 14.8067 16.6593 22.5124 20.8871 0.0758648 2.391 74.8656
7752089 14.7979 16.604 22.6109 20.8287 0.00796616 2.41262 74.8415
7752095 14.7891 16.6593 22.6601 20.9066 0.0388682 2.42318 75.0151
7752115 14.7891 16.5856 22.601 20.8287 0.00804961 2.4173 74.8044
7752126 14.7539 16.5948 22.6601 20.8092 -0.00334978 2.43002 74.818
7752136 14.7539 16.5948 22.6601 20.8092 -0.00334978 2.43002 74.818
7752146 14.7979 16.6132 22.6896 20.7799 -0.0315189 2.41553 74.8807
7752156 14.7451 16.604 22.7979 20.8774 -0.0205368 2.46444 75.0244
7752167 14.7451 16.604 22.7979 20.8774 -0.0205368 2.46444 75.0244
7752177 14.7539 16.5948 22.7487 20.8579 -0.0166446 2.45304 74.9553
7752186 14.7539 16.5948 22.7487 20.8579 -0.0166446 2.45304 74.9553
7752199 14.8155 16.5488 22.7389 20.7507 -0.0851423 2.42979 74.8539
7752206 14.7979 16.6132 22.729 20.7994 -0.0381291 2.42541 74.9396
7752216 14.7979 16.6132 22.729 20.7994 -0.0381291 2.42541 74.9396
7752228 14.842 16.6316 22.729 20.6923 -0.0824779 2.39289 74.8949
7752237 14.8332 16.6408 22.7782 20.702 -0.0895679 2.40271 74.9542
7752247 14.8332 16.6408 22.7782 20.702 -0.0895679 2.40271 74.9542
7752256 14.8596 16.6777 22.6207 20.6923 -0.0368655 2.35986 74.8503
7752266 14.8596 16.6777 22.6207 20.6923 -0.0368655 2.35986 74.8503
7752281 14.8684 16.7145 22.5912 20.6436 -0.033924 2.33604 74.8177
7752287 14.9212 16.7514 22.6503 20.5948 -0.0751838 2.31704 74.9177
7752309 14.9741 16.825 22.5912 20.5461 -0.0647649 2.26957 74.9364
7752319 14.9653 16.7882 22.5026 20.5656 -0.0381202 2.26834 74.8217
7752335 14.9653 16.7882 22.5026 20.5656 -0.0381202 2.26834 74.8217
7752339 14.9917 16.8895 22.5912 20.4974 -0.0653595 2.24239 74.9698
7752349 14.9917 16.8895 22.5912 20.4974 -0.0653595 2.24239 74.9698
7752360 15.0093 16.8066 22.6601 20.5169 -0.115317 2.27243 74.9929
7752368 14.9829 16.8158 22.6896 20.439 -0.139384 2.26818 74.9273
7752382 14.9829 16.8158 22.6896 20.439 -0.139384 2.26818 74.9273
7752389 15.0358 16.825 22.6404 20.4487 -0.134233 2.24717 74.9499
7752403 14.9917 16.779 22.6798 20.4487 -0.148135 2.27462 74.8992
7752419 15.0358 16.7974 22.6699 20.4585 -0.150025 2.26021 74.9615
7752440 15.0181 16.8711 22.6601 20.361 -0.148889 2.22905 74.9103
7752450 15.0093 16.8527 22.6896 20.3513 -0.165223 2.23869 74.9029
7752460 15.0093 16.8527 22.6896 20.3513 -0.165223 2.23869 74.9029
7752470 15.0005 16.7882 22.7093 20.3708 -0.183946 2.26223 74.8688
7752480 15.0269 16.7514 22.7881 20.3805 -0.227876 2.27967 74.9469
7752490 15.0269 16.7514 22.7881 20.3805 -0.227876 2.27967 74.9469
7752501 15.0534 16.7329 22.7881 20.3903 -0.239526 2.27948 74.9646
7752512 15.0534 16.7329 22.7881 20.3903 -0.239526 2.27948 74.9646
7752521 15.0446 16.7421 22.857 20.2928 -0.289099 2.27455 74.9365
7752535 15.0798 16.779 22.8471 20.3318 -0.271912 2.26289 75.0377
7752541 15.0798 16.779 22.8471 20.3318 -0.271912 2.26289 75.0377
7752551 15.0269 16.7421 22.8373 20.361 -0.253795 2.28684 74.9674
7752562 15.0446 16.779 22.8274 20.3026 -0.263646 2.2627 74.9536
7752571 15.0446 16.779 22.8274 20.3026 -0.263646 2.2627 74.9536
7752584 15.0798 16.7606 22.8767 20.3805 -0.27144 2.2804 75.0975
7752593 15.0798 16.7606 22.8767 20.3805 -0.27144 2.2804 75.0975
7752606 15.0358 16.6777 22.8176 20.2831 -0.298265 2.28311 74.8141
7752611 15.0534 16.7329 22.8865 20.3513 -0.285123 2.28956 75.0241
7752621 15.0534 16.7329 22.8865 20.3513 -0.285123 2.28956 75.0241
7752631 15.1326 16.7974 22.8274 20.361 -0.266795 2.24813 75.1185
7752641 15.0798 16.6961 22.857 20.2734 -0.322844 2.27373 74.9062
7752652 15.0798 16.6961 22.857 20.2734 -0.322844 2.27373 74.9062
7752662 15.0534 16.779 22.8767 20.2831 -0.289349 2.26572 74.9921
7752672 15.1415 16.7237 22.8668 20.2052 -0.360097 2.24324 74.9372
7752696 15.1415 16.7882 22.857 20.1564 -0.351532 2.21844 74.9431
7752704 15.1415 16.7882 22.857 20.1564 -0.351532 2.21844 74.9431
7752716 15.115 16.6869 22.8767 20.1175 -0.396854 2.24455 74.7961
7752724 15.1591 16.7514 22.8865 20.0493 -0.415833 2.2096 74.8462
7752736 15.1591 16.7514 22.8865 20.0493 -0.415833 2.2096 74.8462
7752744 15.1326 16.6316 22.8668 20.0201 -0.451353 2.23492 74.6512
7752754 15.0974 16.7514 22.8373 20.0298 -0.385976 2.21205 74.7159
7752764 15.0974 16.7514 22.8373 20.0298 -0.385976 2.21205 74.7159
7752774 15.1943 16.6961 22.8668 20.0006 -0.456293 2.20251 74.7578
7752794 15.0886 16.6316 22.8964 20.0395 -0.439945 2.25346 74.6561
7752805 15.1326 16.7237 23.0342 20.0883 -0.451738 2.25385 74.9788
7752825 15.1767 16.7329 23.0932 20.0785 -0.485629 2.24998 75.0814
7752837 15.1503 16.7237 23.0539 20.1077 -0.45733 2.25645 75.0356
7752845 15.1503 16.7237 23.0539 20.1077 -0.45733 2.25645 75.0356
7752856 15.1238 16.6961 23.1031 20.1467 -0.460939 2.28385 75.0697
7752867 15.0886 16.7329 22.9751 20.0395 -0.431351 2.24352 74.8362
7752876 15.0886 16.7329 22.9751 20.0395 -0.431351 2.24352 74.8362
7752888 15.1767 16.7698 23.1031 20.0298 -0.492874 2.23492 75.0793
7752896 15.1767 16.7698 23.1031 20.0298 -0.492874 2.23492 75.0793
7752913 15.2119 16.7421 23.0342 19.9713 -0.511137 2.21148 74.9596
7752916 15.1767 16.7606 23.0243 19.9032 -0.513354 2.20202 74.8647
7752927 15.1767 16.7606 23.0243 19.9032 -0.513354 2.20202 74.8647
7752948 15.1943 16.7698 23.0145 19.8544 -0.529367 2.18584 74.833
7752951 15.1855 16.7698 23.0243 19.8739 -0.523058 2.19288 74.8535
7752957 15.1855 16.7698 23.0243 19.8739 -0.523058 2.19288 74.8535
7752967 15.1591 16.7974 23.0243 19.9713 -0.471848 2.20925 74.9521
7752977 15.1591 16.7974 23.0243 19.9713 -0.471848 2.20925 74.9521
7752988 15.1679 16.7882 23.0539 19.8837 -0.517356 2.19941 74.8936
7752998 15.1943 16.7606 22.9653 19.9129 -0.496474 2.18953 74.833
7753018 15.1679 16.7882 23.0539 19.8837 -0.517356 2.19941 74.8936
7753028 15.1062 16.7053 23.1031 19.8837 -0.541562 2.24107 74.7983
7753037 15.1062 16.7053 23.1031 19.8837 -0.541562 2.24107 74.7983
7753049 15.1591 16.7698 23.1031 19.9713 -0.506982 2.22902 75.0033
7753058 15.1591 16.7698 23.1031 19.9713 -0.506982 2.22902 75.0033
7753069 15.1591 16.7053 23.1228 19.9519 -0.541991 2.24387 74.939
7753077 15.1238 16.7329 23.0932 19.9713 -0.504787 2.24391 74.9213
7753096 15.1238 16.7329 23.0932 19.9713 -0.504787 2.24391 74.9213
7753099 15.1679 16.7514 23.1326 20.0006 -0.515822 2.24122 75.0524
7753122 15.1238 16.6593 23.1621 19.9908 -0.545757 2.27591 74.9361
7753129 15.115 16.7237 23.1621 19.9519 -0.53419 2.25647 74.9527
7753139 15.115 16.7237 23.1621 19.9519 -0.53419 2.25647 74.9527
7753149 15.1415 16.6408 23.1228 19.9421 -0.561559 2.26113 74.8472
7753159 15.115 16.7514 23.1129 19.8642 -0.538589 2.22679 74.8435
7753174 15.115 16.7514 23.1129 19.8642 -0.538589 2.22679 74.8435
7753179 15.1767 16.7606 23.0834 19.9519 -0.516069 2.22041 74.9725
7753200 15.115 16.7053 23.0539 19.8837 -0.52834 2.23064 74.7579
7753209 15.1591 16.7237 23.044 19.9908 -0.496718 2.23286 74.9176
7753229 15.1855 16.7514 23.0637 19.9713 -0.509018 2.22047 74.9719
7753239 15.1415 16.7421 23.0243 20.0006 -0.47493 2.23098 74.9085
7753260 15.1591 16.7421 23.0735 20.059 -0.47693 2.24526 75.0338
7753271 15.1679 16.6408 23.0145 20.0103 -0.511532 2.2482 74.8335
7753291 15.0974 16.7145 23.0243 20.0103 -0.466587 2.24914 74.8466
7753311 15.1767 16.6501 22.9948 20.0006 -0.508153 2.23904 74.8221
7753324 15.1591 16.7053 23.0145 20.0493 -0.473438 2.24202 74.9281
7753335 15.1591 16.7053 23.0145 20.0493 -0.473438 2.24202 74.9281
7753346 15.1679 16.7237 23.0342 19.9519 -0.509647 2.22251 74.8776
7753352 15.115 16.7053 23.0539 20.0201 -0.48185 2.25389 74.8942
7753361 15.115 16.7053 23.0539 20.0201 -0.48185 2.25389 74.8942
7753373 15.1943 16.7421 23.0637 19.9713 -0.51503 2.22056 74.9715
7753394 15.1767 16.7053 23.0243 20.0493 -0.482422 2.23965 74.9556
7753401 15.2119 16.8066 22.9948 20.0103 -0.463113 2.19662 75.0236
7753413 15.2119 16.8066 22.9948 20.0103 -0.463113 2.19662 75.0236
7753425 15.1767 16.6961 22.9357 19.9129 -0.503008 2.20335 74.7214
7753434 15.2031 16.7053 22.9849 19.9616 -0.508027 2.2119 74.855
7753446 15.2031 16.7053 22.9849 19.9616 -0.508027 2.2119 74.855
7753452 15.2031 16.7421 22.9948 19.9421 -0.505339 2.20179 74.8822
7753463 15.2031 16.7421 22.9948 19.9421 -0.505339 2.20179 74.8822
7753476 15.1503 16.825 22.9751 19.9421 -0.453386 2.19153 74.8925
7753482 15.1855 16.7606 22.9259 19.9908 -0.454158 2.19815 74.8628
7753496 15.1855 16.7606 22.9259 19.9908 -0.454158 2.19815 74.8628
7753502 15.2207 16.7698 22.9849 20.0006 -0.478595 2.19971 74.976
7753512 15.2031 16.7974 22.9456 20.0493 -0.434025 2.19901 74.9954
7753522 15.2031 16.7974 22.9456 20.0493 -0.434025 2.19901 74.9954
7753532 15.2119 16.8803 23.0046 20.0395 -0.431459 2.18642 75.1364
7753544 15.2119 16.8803 23.0046 20.0395 -0.431459 2.18642 75.1364
7753552 15.256 16.825 22.9062 19.9519 -0.46213 2.15717 74.939
7753562 15.2736 16.8803 22.857 19.9226 -0.442939 2.12704 74.9335
7753574 15.2736 16.8803 22.857 19.9226 -0.442939 2.12704 74.9335
7753584 15.2912 16.954 22.857 19.8739 -0.440237 2.09782 74.9761
7753594 15.2648 16.8803 22.7487 19.8155 -0.440946 2.09194 74.7092
7753614 15.2648 16.8803 22.7684 19.8447 -0.437467 2.10038 74.7581
7753626 15.2648 16.8803 22.7684 19.8447 -0.437467 2.10038 74.7581
7753637 15.2207 16.8895 22.6798 19.7668 -0.417221 2.07956 74.5568
7753647 15.2648 16.8803 22.7093 19.7375 -0.454563 2.07163 74.5919
7753655 15.2648 16.8803 22.7093 19.7375 -0.454563 2.07163 74.5919
7753669 15.2736 16.8803 22.6699 19.8252 -0.414614 2.07799 74.649
7753676 15.2824 16.9355 22.6995 19.8155 -0.411752 2.06677 74.7329
7753690 15.2824 16.9355 22.6995 19.8155 -0.411752 2.06677 74.7329
7753696 15.3969 16.9816 22.7192 19.7668 -0.456731 2.02515 74.8644
7753706 15.3528 17.0292 22.6995 19.8544 -0.389902 2.03612 74.9359
7753716 15.3528 17.0292 22.6995 19.8544 -0.389902 2.03612 74.9359
7753726 15.4497 17.0097 22.6109 19.835 -0.405827 1.9998 74.9053
7753736 15.4497 17.0097 22.6109 19.835 -0.405827 1.9998 74.9053
7753757 15.4057 17.107 22.6109 19.7765 -0.378205 1.97758 74.9001
7753758 15.485 17.1264 22.6207 19.7765 -0.400876 1.95694 75.0086
7753778 15.4938 17.1362 22.5518 19.7668 -0.38116 1.93906 74.9485
7753787 15.5202 17.1751 22.4731 19.6986 -0.373884 1.89864 74.8669
7753809 15.5378 17.1751 22.4829 19.7375 -0.369713 1.90321 74.9333
7753822 15.5378 17.1751 22.4829 19.7375 -0.369713 1.90321 74.9333
7753829 15.5202 17.1653 22.4928 19.6791 -0.390261 1.90088 74.8574
7753843 15.529 17.1362 22.4435 19.6986 -0.380255 1.90027 74.8073
7753849 15.529 17.1362 22.4435 19.6986 -0.380255 1.90027 74.8073
7753859 15.5378 17.1751 22.4534 19.6791 -0.379807 1.88781 74.8454
7753869 15.5026 17.1362 22.4731 19.6791 -0.387892 1.908 74.7909
7753879 15.5026 17.1362 22.4731 19.6791 -0.387892 1.908 74.7909
7753889 15.5554 17.1167 22.4534 19.6304 -0.421956 1.88847 74.7559
7753899 15.5554 17.1167 22.4534 19.6304 -0.421956 1.88847 74.7559
7753909 15.5026 17.0584 22.4829 19.7181 -0.404319 1.93414 74.7619
7753919 15.485 17.107 22.5617 19.6986 -0.414516 1.93747 74.8522
7753939 15.5114 17.0778 22.5518 19.7375 -0.416636 1.94318 74.8786
7753952 15.485 17.0389 22.5223 19.7668 -0.401534 1.95792 74.8129
7753960 15.485 17.0389 22.5223 19.7668 -0.401534 1.95792 74.8129
7753974 15.4497 16.9908 22.6503 19.7862 -0.441714 2.00248 74.877
7753980 15.4497 16.9908 22.6503 19.7862 -0.441714 2.00248 74.877
7753990 15.4057 16.9816 22.5617 19.8252 -0.388028 2.00596 74.7742
7754000 15.4585 16.9263 22.6306 19.7862 -0.460066 2.01171 74.8017
7754020 15.4409 16.9355 22.601 19.8155 -0.431514 2.01357 74.793
7754031 15.4233 16.9816 22.7093 19.8057 -0.44892 2.02419 74.92
7754052 15.485 16.9816 22.6404 19.757 -0.463103 1.98979 74.864
7754071 15.485 16.9908 22.5814 19.796 -0.427353 1.9842 74.8531
7754081 15.4321 17.0584 22.6404 19.796 -0.406463 1.99113 74.9269
7754101 15.4145 16.954 22.5814 19.7473 -0.433294 2.00011 74.6971
7754111 15.4145 16.9447 22.6404 19.7862 -0.442573 2.01925 74.7859
7754121 15.4145 16.9447 22.6404 19.7862 -0.442573 2.01925 74.7859
7754131 15.4674 17.0584 22.5814 19.8739 -0.372241 1.98642 74.981
7754144 15.4674 17.0584 22.5814 19.8739 -0.372241 1.98642 74.981
7754152 15.485 16.9816 22.5814 19.8252 -0.420554 1.99137 74.8731
7754169 15.4585 17.0097 22.6207 19.796 -0.425175 1.99274 74.885
7754185 15.4585 17.0097 22.6207 19.796 -0.425175 1.99274 74.885
7754192 15.4762 17.0486 22.5124 19.7765 -0.388794 1.95769 74.8138
7754195 15.4938 17.0486 22.4731 19.757 -0.388247 1.94343 74.7725
7754215 15.485 17.0486 22.5518 19.7181 -0.424488 1.95237 74.8035
7754224 15.4497 17.0389 22.4435 19.835 -0.340869 1.96407 74.7672
7754238 15.4497 17.0389 22.4435 19.835 -0.340869 1.96407 74.7672
7754244 15.4938 17.0584 22.5124 19.835 -0.37147 1.96168 74.8995
7754260 15.4938 17.0584 22.5124 19.835 -0.37147 1.96168 74.8995
7754264 15.529 17.0292 22.4042 19.796 -0.370535 1.93463 74.7584
7754274 15.5554 17.0778 22.4435 19.7765 -0.382307 1.92112 74.8533
7754284 15.5554 17.0778 22.4435 19.7765 -0.382307 1.92112 74.8533
7754294 15.5731 17.0681 22.3943 19.7765 -0.375208 1.91073 74.812
7754308 15.5202 17.0875 22.4239 19.7375 -0.37415 1.91663 74.7691
7754314 15.5202 17.0875 22.4239 19.7375 -0.37415 1.91663 74.7691
7754324 15.5554 17.1653 22.3845 19.8155 -0.320046 1.89784 74.9207
7754345 15.485 17.0973 22.4042 19.8447 -0.316443 1.93769 74.8311
7754365 15.4938 17.1459 22.3746 19.8447 -0.293164 1.91954 74.859
7754378 15.5378 17.1848 22.2959 19.7862 -0.288311 1.87679 74.8047
7754386 15.4938 17.1945 22.2959 19.796 -0.267176 1.88625 74.7802
7754405 15.5642 17.2237 22.2565 19.8155 -0.261024 1.86028 74.8599
7754415 15.5642 17.2237 22.2565 19.8155 -0.261024 1.86028 74.8599
7754426 15.5731 17.1751 22.2959 19.796 -0.299941 1.87275 74.84
7754435 15.6259 17.1945 22.2959 19.8057 -0.307506 1.85817 74.922
7754456 15.6435 17.3015 22.2171 19.7278 -0.277534 1.80263 74.8899
7754466 15.5907 17.2042 22.1975 19.6986 -0.296329 1.82775 74.6909
7754476 15.5907 17.2042 22.1975 19.6986 -0.296329 1.82775 74.6909
7754488 15.5554 17.2529 22.0695 19.7668 -0.202727 1.81419 74.6445
7754499 15.5554 17.2529 22.0695 19.7668 -0.202727 1.81419 74.6445
7754506 15.5554 17.2529 22.0695 19.7181 -0.219186 1.80558 74.5958
7754522 15.6083 17.214 22.0892 19.6986 -0.263013 1.80247 74.61
7754526 15.6083 17.214 22.0892 19.6986 -0.263013 1.80247 74.61
7754536 15.6435 17.282 22.0301 19.6791 -0.238666 1.76532 74.6348
7754546 15.5731 17.3112 22.0892 19.7862 -0.188863 1.80401 74.7597
7754557 15.5731 17.3112 22.0892 19.7862 -0.188863 1.80401 74.7597
7754570 15.6523 17.3307 22.04 19.8447 -0.172612 1.78348 74.8676
7754579 15.6523 17.3307 22.04 19.8447 -0.172612 1.78348 74.8676
7754594 15.6347 17.3598 21.9809 19.8155 -0.147174 1.76528 74.7909
7754599 15.6347 17.4085 22.0006 19.8642 -0.121029 1.76648 74.9079
7754619 15.6435 17.3501 21.9415 19.8057 -0.143559 1.75679 74.7409
7754629 15.6523 17.4085 22.0104 19.835 -0.13995 1.75912 74.9062
7754649 15.6699 17.4376 21.9612 19.7862 -0.136015 1.73132 74.855
7754659 15.6699 17.4376 21.9612 19.7862 -0.136015 1.73132 74.855
7754669 15.6788 17.4085 21.9218 19.835 -0.119302 1.73753 74.844
7754679 15.6083 17.4376 21.9218 19.7765 -0.105682 1.7364 74.7443
7754690 15.6083 17.4376 21.9218 19.7765 -0.105682 1.7364 74.7443
7754700 15.7404 17.4085 21.8923 19.7083 -0.172555 1.69601 74.7495
7754710 15.6876 17.496 21.9415 19.8057 -0.10922 1.71432 74.9308
7754721 15.6876 17.496 21.9415 19.8057 -0.10922 1.71432 74.9308
7754730 15.7404 17.4668 21.912 19.7278 -0.152907 1.68996 74.847
7754742 15.7404 17.4668 21.912 19.7278 -0.152907 1.68996 74.847
7754750 15.714 17.496 21.8332 19.6986 -0.117962 1.67011 74.7418
7754762 15.7228 17.4474 21.8825 19.7765 -0.127417 1.70163 74.8291
7754780 15.7228 17.4474 21.8825 19.7765 -0.127417 1.70163 74.8291
7754784 15.7316 17.4571 21.8234 19.7083 -0.130348 1.67484 74.7204
7754790 15.7668 17.4863 21.9021 19.6986 -0.161697 1.67278 74.8538
7754800 15.7668 17.4863 21.9021 19.6986 -0.161697 1.67278 74.8538
7754815 15.7492 17.4085 21.8037 19.6693 -0.159158 1.6713 74.6307
7754824 15.7228 17.496 21.8726 19.6888 -0.137264 1.67343 74.7802
7754832 15.7228 17.496 21.8726 19.6888 -0.137264 1.67343 74.7802
7754841 15.7668 17.5057 21.8332 19.6011 -0.165048 1.63877 74.7069
7754851 15.7668 17.5057 21.8332 19.6011 -0.165048 1.63877 74.7069
7754861 15.7756 17.4765 21.8825 19.5914 -0.197442 1.65036 74.7261
7754871 15.7316 17.4474 21.9415 19.6499 -0.192556 1.68765 74.7703
7754881 15.7316 17.4474 21.9415 19.6499 -0.192556 1.68765 74.7703
7754895 15.8197 17.5349 21.9809 19.6596 -0.20204 1.65729 74.9951
7754901 15.8197 17.5349 21.971 19.6596 -0.198784 1.65554 74.9852
7754911 15.7845 17.4863 21.971 19.6791 -0.196926 1.67765 74.9209
7754922 15.7668 17.5057 21.9809 19.6888 -0.184537 1.68072 74.9423
7754931 15.7668 17.5057 21.9809 19.6888 -0.184537 1.68072 74.9423
7754943 15.7228 17.4085 21.9809 19.6109 -0.228956 1.69837 74.723
7754951 15.758 17.5057 21.9907 19.5817 -0.220947 1.66537 74.8362
7754972 15.7404 17.3987 22.0203 19.6109 -0.25112 1.70362 74.7703
7754992 15.6876 17.3598 22.0695 19.5622 -0.27954 1.72423 74.6791
7755004 15.7316 17.3696 22.0301 19.6011 -0.264613 1.71213 74.7324
7755012 15.7316 17.3696 22.0301 19.6011 -0.264613 1.71213 74.7324
7755024 15.7316 17.3209 22.099 19.6011 -0.303845 1.73525 74.7527
7755034 15.7316 17.3501 22.1187 19.6206 -0.293888 1.73566 74.8211
7755044 15.7316 17.3501 22.1187 19.6206 -0.293888 1.73566 74.8211
7755056 15.7404 17.3696 22.1384 19.6109 -0.300014 1.73111 74.8593
7755064 15.6964 17.3112 22.0793 19.6206 -0.282387 1.74528 74.7075
7755078 15.6964 17.3112 22.0793 19.6206 -0.282387 1.74528 74.7075
7755084 15.7756 17.3112 22.1679 19.5817 -0.350995 1.73633 74.8364
7755094 15.7756 17.3112 22.1679 19.5817 -0.350995 1.73633 74.8364
7755110 15.7668 17.3112 22.1089 19.4842 -0.361668 1.71051 74.6712
7755124 15.7933 17.3696 22.1187 19.494 -0.350522 1.69505 74.7755
7755134 15.7845 17.3209 22.099 19.416 -0.384106 1.69049 74.6205
7755145 15.8109 17.3793 22.1679 19.3868 -0.405608 1.67862 74.7449
7755154 15.8109 17.3793 22.1679 19.3868 -0.405608 1.67862 74.7449
7755167 15.8197 17.3598 22.1482 19.494 -0.37225 1.69657 74.8217
7755175 15.8197 17.3598 22.1482 19.494 -0.37225 1.69657 74.8217
7755189 15.7845 17.3404 22.1187 19.3284 -0.413831 1.674 74.5719
7755195 15.8637 17.3501 22.2171 19.4745 -0.41928 1.6977 74.9055
7755205 15.8637 17.3501 22.2171 19.4745 -0.41928 1.6977 74.9055
7755217 15.8549 17.3987 22.2073 19.4453 -0.406578 1.68188 74.9062
7755225 15.8373 17.3696 22.2565 19.4453 -0.426848 1.70105 74.9087
7755235 15.8373 17.3696 22.2565 19.4453 -0.426848 1.70105 74.9087
7755245 15.8637 17.3793 22.2171 19.4453 -0.419298 1.686 74.9054
7755266 15.8549 17.3501 22.1384 19.3576 -0.430249 1.66483 74.701
7755278 15.8902 17.4376 22.1482 19.3089 -0.431859 1.63054 74.7849
7755286 15.8902 17.4376 22.1482 19.3089 -0.431859 1.63054 74.7849
7755302 15.8637 17.3696 22.1975 19.2894 -0.469156 1.65689 74.7201
7755306 15.9078 17.4474 22.2171 19.3381 -0.447011 1.64198 74.9104
7755326 15.8637 17.4182 22.1482 19.3576 -0.413229 1.64945 74.7878
7755348 15.9078 17.4376 22.1778 19.2602 -0.463913 1.62319 74.7833
7755358 15.8725 17.4279 22.2171 19.2797 -0.461952 1.64371 74.7973
7755389 15.8902 17.4085 22.1778 19.2699 -0.464751 1.63534 74.7463
7755391 15.8461 17.4279 22.1975 19.2407 -0.460087 1.63911 74.7122
7755399 15.8461 17.4279 22.1975 19.2407 -0.460087 1.63911 74.7122
7755412 15.8813 17.389 22.1285 19.2017 -0.475585 1.62061 74.6006
7755418 15.8637 17.389 22.1384 21.6665 0.341746 2.05407 77.0576
7755435 15.8637 17.4085 22.1384 19.1725 -0.476369 1.61672 74.5831
7755439 15.9254 17.4182 22.1581 19.2699 -0.466542 1.62182 74.7716
7755449 15.9254 17.4182 22.1581 19.2699 -0.466542 1.62182 74.7716
7755458 15.8637 17.4571 22.1482 19.2991 -0.419874 1.63035 74.7682
7755474 15.9518 17.4668 22.1384 19.2115 -0.472097 1.59116 74.7685
7755489 15.899 17.4279 22.2171 19.2991 -0.463985 1.64131 74.8432
7755502 15.899 17.4765 22.2073 19.3284 -0.434299 1.63396 74.9112
7755509 15.899 17.4765 22.2073 19.3284 -0.434299 1.63396 74.9112
7755519 15.9606 17.4765 22.1876 19.3673 -0.434829 1.62373 74.9921
7755530 15.9606 17.4765 22.1876 19.3673 -0.434829 1.62373 74.9921
7755540 15.9694 17.4474 22.1384 19.2699 -0.464594 1.60204 74.8251
7755550 15.8902 17.4571 22.1679 19.2017 -0.46819 1.61056 74.7169
7755560 15.8902 17.4571 22.1679 19.2017 -0.46819 1.61056 74.7169
7755571 15.9254 17.4668 22.1384 19.2309 -0.456789 1.60051 74.7615
7755580 15.9166 17.4085 22.1778 19.2212 -0.490029 1.62075 74.724
7755609 15.9166 17.4085 22.1778 19.2212 -0.490029 1.62075 74.724
7755612 15.9518 17.4376 22.1876 19.2017 -0.5015 1.60471 74.7788
7755640 15.943 17.3501 22.2664 19.2699 -0.530985 1.65239 74.8294
7755643 15.9782 17.3987 22.1778 19.3186 -0.480357 1.62663 74.8734
7755644 15.9782 17.3987 22.1778 19.3186 -0.480357 1.62663 74.8734
7755652 15.8813 17.4182 22.1679 19.2212 -0.471914 1.62466 74.6887
7755663 15.943 17.4765 22.1187 19.2894 -0.432914 1.60139 74.8277
7755672 15.943 17.4765 22.1187 19.2894 -0.432914 1.60139 74.8277
7755684 15.9606 17.4863 22.1482 19.2894 -0.44508 1.60061 74.8845
7755693 15.9078 17.4085 22.1285 19.2309 -0.46766 1.61564 74.6757
7755704 15.9078 17.4085 22.1285 19.2309 -0.46766 1.61564 74.6757
7755713 15.8549 17.4182 22.1187 19.2017 -0.453697 1.61823 74.5935
7755724 15.8549 17.4182 22.1187 19.2017 -0.453697 1.61823 74.5935
7755735 15.8813 17.4182 22.1679 19.1822 -0.485215 1.61768 74.6497
7755744 15.9606 17.4765 22.1778 19.2115 -0.484581 1.5941 74.8264
7755755 15.9606 17.4765 22.1778 19.2115 -0.484581 1.5941 74.8264
7755766 15.9518 17.3987 22.1581 19.2699 -0.481835 1.62027 74.7785
7755775 15.8813 17.389 22.1285 19.1822 -0.482242 1.61711 74.5811
7755785 15.8813 17.389 22.1285 19.1822 -0.482242 1.61711 74.5811
7755795 16.0047 17.4571 22.1581 19.2504 -0.485912 1.59211 74.8703
7755808 16.0047 17.4571 22.1581 19.2504 -0.485912 1.59211 74.8703
7755815 15.9166 17.4474 22.1285 19.2699 -0.44402 1.61201 74.7624
7755829 15.9606 17.4668 22.1581 19.2212 -0.478123 1.59448 74.8067
7755835 15.9606 17.4668 22.1581 19.2212 -0.478123 1.59448 74.8067
7755846 15.9342 17.496 22.1384 19.2797 -0.433189 1.60081 74.8482
7755856 15.9606 17.496 22.0892 19.2991 -0.419085 1.58963 74.8449
7755866 15.9606 17.496 22.0892 19.2991 -0.419085 1.58963 74.8449
7755876 15.9694 17.4085 22.099 19.2602 -0.468242 1.60187 74.7371
7755886 15.9694 17.4085 22.099 19.2602 -0.468242 1.60187 74.7371
7755895 15.9606 17.4668 22.0301 19.2699 -0.419524 1.58026 74.7275
7755905 15.9078 17.4863 22.0203 19.2407 -0.402211 1.58065 74.655
7755916 15.9078 17.4863 22.0203 19.2407 -0.402211 1.58065 74.655
7755926 15.943 17.5738 21.971 19.2017 -0.381088 1.53756 74.6896
7755936 15.9342 17.5154 22.0498 19.2504 -0.407398 1.57537 74.7499
7755947 15.9342 17.5154 22.0498 19.2504 -0.407398 1.57537 74.7499
7755959 15.9959 17.5835 22.04 19.2504 -0.401314 1.54488 74.8698
7755966 15.9959 17.5835 22.04 19.2504 -0.401314 1.54488 74.8698
7755976 15.943 17.5641 21.971 19.2309 -0.374463 1.54498 74.7091
7755986 16.0575 17.5543 22.0793 19.2991 -0.427841 1.55352 74.9903
7755996 16.0575 17.5543 22.0793 19.2991 -0.427841 1.55352 74.9903
7756008 15.987 17.6127 21.9218 19.2504 -0.349645 1.51912 74.772
7756016 15.9782 17.5641 22.0104 19.192 -0.412275 1.53725 74.7447
7756030 15.9782 17.5641 22.0104 19.192 -0.412275 1.53725 74.7447
7756036 16.0223 17.5738 21.971 19.2212 -0.400573 1.52354 74.7883
7756049 16.0223 17.5738 21.971 19.2212 -0.400573 1.52354 74.7883
7756056 15.9606 17.5349 21.9907 19.2504 -0.390047 1.55459 74.7367
7756066 15.9518 17.5641 21.971 19.2991 -0.354229 1.55529 74.7861
7756079 15.9518 17.5641 21.971 19.2991 -0.354229 1.55529 74.7861
7756091 15.9694 17.5835 21.9415 19.3576 -0.323917 1.55229 74.8521
7756104 15.9342 17.5446 21.9218 19.3284 -0.328869 1.55991 74.729
7756114 15.9342 17.5446 21.9218 19.3284 -0.328869 1.55991 74.729
7756130 15.943 17.5446 21.912 19.4063 -0.302136 1.5702 74.8059
7756132 15.943 17.5446 21.912 19.4063 -0.302136 1.5702 74.8059
7756137 15.9166 17.5543 21.9218 19.4063 -0.293371 1.57566 74.7991
7756158 15.9078 17.5252 21.9907 19.4842 -0.296731 1.61038 74.9079
7756160 15.9078 17.5252 21.9907 19.4842 -0.296731 1.61038 74.9079
7756169 15.9078 17.5349 21.9415 19.5232 -0.264055 1.60639 74.9074
7756186 15.8637 17.4668 21.9612 19.5719 -0.262542 1.6435 74.8637
7756201 15.8373 17.4474 21.9809 19.6206 -0.250447 1.6659 74.8862
7756208 15.8373 17.4474 21.9809 19.6206 -0.250447 1.6659 74.8862
7756219 15.8549 17.3598 21.9218 19.533 -0.295956 1.6553 74.6695
7756228 15.758 17.3793 21.971 19.5135 -0.280184 1.6779 74.6218
7756250 15.8285 17.3598 21.9612 19.5622 -0.290343 1.67344 74.7117
7756261 15.7228 17.3209 22.0301 19.5427 -0.297949 1.71458 74.6165
7756270 15.7228 17.3209 22.0301 19.5427 -0.297949 1.71458 74.6165
7756280 15.7756 17.3307 22.0104 19.6304 -0.275943 1.71267 74.7471
7756290 15.7756 17.3307 22.0104 19.6304 -0.275943 1.71267 74.7471
7756301 15.7228 17.3015 22.0498 19.6791 -0.264882 1.74667 74.7532
7756310 15.7404 17.2626 22.0301 19.757 -0.251007 1.76176 74.7901
7756320 15.7404 17.2626 22.0301 19.757 -0.251007 1.76176 74.7901
7756330 15.6876 17.2431 22.0892 19.757 -0.259635 1.78842 74.7769
7756340 15.6611 17.1848 22.0793 19.8544 -0.234435 1.82293 74.7797
7756350 15.6611 17.1848 22.0793 19.8544 -0.234435 1.82293 74.7797
7756360 15.6699 17.2626 22.1187 19.9616 -0.188121 1.82924 75.0128
7756371 15.6699 17.2626 22.1187 19.9616 -0.188121 1.82924 75.0128
7756381 15.5907 17.1945 22.1384 19.9226 -0.204393 1.85898 74.8462
7756391 15.5731 17.1848 22.1975 20.0298 -0.185345 1.89426 74.9851
7756417 15.4938 17.1653 22.1975 20.059 -0.155799 1.92164 74.9156
7756421 15.5202 17.1167 22.2467 20.1175 -0.177561 1.94542 75.0011
7756449 15.5202 17.1167 22.2467 20.1175 -0.177561 1.94542 75.0011
7756466 15.485 17.0973 22.1975 20.0883 -0.165932 1.94412 74.8679
7756469 15.4585 17.0778 22.2467 20.1175 -0.170206 1.96817 74.9005
7756470 15.4585 17.0778 22.2467 20.1175 -0.170206 1.96817 74.9005
7756473 15.4057 17.0486 22.2762 20.137 -0.165729 1.99529 74.8675
7756482 15.4057 17.0486 22.2762 20.137 -0.165729 1.99529 74.8675
7756492 15.3881 17.0097 22.2565 20.2246 -0.136963 2.01993 74.879
7756502 15.3264 16.9632 22.2565 20.3026 -0.105947 2.05805 74.8487
7756524 15.3705 17.0195 22.3254 20.2734 -0.134382 2.04208 74.9887
7756533 15.2824 16.9171 22.227 20.2539 -0.113276 2.06507 74.6804
7756552 15.2824 16.9171 22.227 20.2539 -0.113276 2.06507 74.6804
7756554 15.2472 16.8987 22.4435 20.361 -0.143749 2.13315 74.9504
7756564 15.2472 16.8987 22.4435 20.361 -0.143749 2.13315 74.9504
7756577 15.1503 16.8895 22.3943 20.4097 -0.0819549 2.15736 74.8438
7756584 15.1415 16.8066 22.5124 20.4779 -0.123219 2.21028 74.9384
7756594 15.1415 16.8066 22.5124 20.4779 -0.123219 2.21028 74.9384
7756605 15.1326 16.825 22.5715 20.5754 -0.101116 2.23472 75.1045
7756614 15.071 16.7237 22.5026 20.6046 -0.0818685 2.26546 74.9019
7756633 15.071 16.7237 22.5026 20.6046 -0.0818685 2.26546 74.9019
7756637 15.0534 16.7514 22.5026 20.6338 -0.0569806 2.26812 74.9411
7756654 15.0181 16.7606 22.542 20.5656 -0.0780955 2.26922 74.8863
7756664 14.9829 16.7329 22.601 20.6143 -0.0789657 2.30202 74.9312
7756675 14.9829 16.7329 22.601 20.6143 -0.0789657 2.30202 74.9312
7756683 14.9829 16.7514 22.5912 20.702 -0.0402302 2.31094 75.0275
7756695 14.9829 16.6961 22.5617 20.702 -0.0488579 2.31871 74.9427
7756705 14.9829 16.6961 22.5617 20.702 -0.0488579 2.31871 74.9427
7756716 14.9565 16.6408 22.6699 20.7312 -0.0847846 2.36082 74.9985
7756725 14.9565 16.6408 22.6699 20.7312 -0.0847846 2.36082 74.9985
7756737 14.8155 16.5764 22.7093 20.7215 -0.0758454 2.41348 74.8227
7756752 14.8155 16.604 22.6896 20.7605 -0.0469878 2.4103 74.8696
7756762 14.8155 16.604 22.6896 20.7605 -0.0469878 2.4103 74.8696
7756766 14.842 16.5672 22.7585 20.7312 -0.100836 2.41939 74.8989
7756778 14.8596 16.5856 22.8176 20.7507 -0.113606 2.42419 75.0135
7756789 14.8596 16.5856 22.8176 20.7507 -0.113606 2.42419 75.0135
7756796 14.8155 16.604 22.7487 20.7994 -0.0536278 2.42676 74.9677
7756821 14.7979 16.6132 22.7389 20.7799 -0.0479192 2.42379 74.9299
7756828 14.8244 16.5303 22.7585 20.8676 -0.061661 2.45492 74.9809
7756843 14.8244 16.5303 22.7585 20.8676 -0.061661 2.45492 74.9809
7756847 14.7803 16.5672 22.7684 20.8481 -0.0444829 2.45499 74.964
7756858 14.8155 16.5211 22.8471 20.8676 -0.0912488 2.47392 75.0514
7756878 14.7539 16.5211 22.7881 20.8189 -0.0674129 2.47028 74.882
7756895 14.7539 16.5211 22.7881 20.8189 -0.0674129 2.47028 74.882
7756898 14.7979 16.5672 22.7487 20.7994 -0.060077 2.43943 74.9132
7756908 14.7627 16.5211 22.7487 20.8092 -0.0604913 2.46 74.8417
7756922 14.7627 16.5211 22.7487 20.8092 -0.0604913 2.46 74.8417
7756928 14.7715 16.4935 22.8471 20.7507 -0.125036 2.47109 74.8629
7756938 14.7451 16.5488 22.8274 20.8287 -0.0650808 2.47411 74.9499
7756951 14.7451 16.5488 22.8274 20.8287 -0.0650808 2.47411 74.9499
7756957 14.7803 16.5488 22.8767 20.9066 -0.0671089 2.48711 75.1123
7756975 14.7803 16.5488 22.8767 20.9066 -0.0671089 2.48711 75.1123
7756979 14.7803 16.5303 22.8964 20.8092 -0.112362 2.47844 75.0162
7756987 14.7539 16.5303 22.8865 20.8871 -0.0742599 2.49595 75.0578
7757005 14.7539 16.5303 22.8865 20.8871 -0.0742599 2.49595 75.0578
7757011 14.7979 16.4751 22.8865 20.8774 -0.11061 2.49694 75.0369
7757031 14.7451 16.4935 22.916 20.8676 -0.0999689 2.50827 75.0222
7757033 14.7451 16.4935 22.916 20.8676 -0.0999689 2.50827 75.0222
7757040 14.7451 16.5211 22.9653 20.8384 -0.116827 2.50516 75.0699
7757051 14.6922 16.5211 22.9357 20.9066 -0.0666946 2.52392 75.0557
7757060 14.6922 16.4567 22.9357 20.9066 -0.0882462 2.53898 74.9912
7757071 14.6746 16.4198 22.9849 20.9261 -0.104545 2.56313 75.0055
7757094 14.6306 16.4382 23.0046 20.9163 -0.093554 2.57078 74.9898
7757100 14.5777 16.2633 23.1228 20.9066 -0.177179 2.64224 74.8703
7757110 14.5777 16.2633 23.1228 20.9066 -0.177179 2.64224 74.8703
7757121 14.6218 16.3462 23.044 20.9261 -0.131288 2.60258 74.938
7757131 14.5953 16.2817 23.0834 20.9845 -0.1376 2.64011 74.9449
7757142 14.5953 16.2817 23.0834 20.9845 -0.1376 2.64011 74.9449
7757151 14.613 16.3554 23.2113 20.9748 -0.164381 2.63813 75.1544
7757166 14.613 16.3554 23.2113 20.9748 -0.164381 2.63813 75.1544
7757171 14.5689 16.2633 23.2409 20.9553 -0.196998 2.67179 75.0284
7757188 14.5953 16.2633 23.2901 20.9845 -0.212167 2.67845 75.1332
7757191 14.5953 16.2633 23.2901 20.9845 -0.212167 2.67845 75.1332
7757201 14.613 16.2449 23.2901 21.0138 -0.214353 2.68342 75.1617
7757211 14.5161 16.2449 23.3787 21.0138 -0.211616 2.72074 75.1534
7757235 14.5161 16.1896 23.3787 21.1112 -0.197478 2.74967 75.1955
7757236 14.613 16.208 23.4082 21.1307 -0.226414 2.73048 75.3599
7757241 14.613 16.208 23.4082 21.1307 -0.226414 2.73048 75.3599
7757251 14.5337 16.162 23.3787 21.1209 -0.209281 2.75362 75.1953
7757261 14.4984 16.0883 23.3393 21.0625 -0.229034 2.76343 74.9885
7757271 14.4984 16.0883 23.3393 21.0625 -0.229034 2.76343 74.9885
7757281 14.5337 16.0883 23.3098 21.0138 -0.247319 2.7423 74.9455
7757306 14.4808 15.9962 23.2704 20.9456 -0.270936 2.75908 74.693
7757311 14.428 16.0238 23.3885 21.0332 -0.253573 2.79871 74.8736
7757325 14.428 16.0238 23.3885 21.0332 -0.253573 2.79871 74.8736
7757331 14.4544 15.9502 23.4673 21.0332 -0.313161 2.82276 74.9051
7757341 14.4368 15.9686 23.5067 21.0625 -0.304237 2.83372 74.9745
7757352 14.4368 15.9686 23.5067 21.0625 -0.304237 2.83372 74.9745
7757362 14.4192 16.0054 23.5263 21.0819 -0.285926 2.8355 75.0329
7757372 14.4632 15.9594 23.546 21.0138 -0.345457 2.8281 74.9824
7757384 14.4632 15.9594 23.546 21.0138 -0.345457 2.8281 74.9824
7757395 14.428 15.9594 23.6248 21.0332 -0.353172 2.85241 75.0454
7757404 14.428 15.9594 23.6248 21.0332 -0.353172 2.85241 75.0454
7757413 14.4808 15.9317 23.6149 20.9943 -0.389805 2.8385 75.0218
7757424 14.4544 15.941 23.6445 20.9163 -0.414106 2.83475 74.9562
7757443 14.428 15.8765 23.7724 20.9261 -0.465931 2.87869 75.003
7757454 14.4192 15.8857 23.7626 20.8676 -0.47656 2.86755 74.9351
7757465 14.4192 15.8857 23.7626 20.8676 -0.47656 2.86755 74.9351
7757476 14.4104 15.8673 23.8512 20.9163 -0.492349 2.89623 75.0452
7757501 14.4016 15.8397 23.8512 20.9358 -0.492239 2.90807 75.0282
7757506 14.3839 15.8397 23.8807 20.8871 -0.512691 2.90918 74.9914
7757525 14.3839 15.8212 23.9201 20.9358 -0.51524 2.92776 75.0611
7757535 14.3751 15.8028 23.9595 20.8774 -0.551364 2.9312 75.0148
7757546 14.3751 15.8028 23.9595 20.8774 -0.551364 2.9312 75.0148
7757556 14.3223 15.8028 23.989 21.0527 -0.48417 2.9767 75.1668
7757566 14.3135 15.8028 24.0481 21.1014 -0.484046 2.99602 75.2658
7757576 14.3135 15.7015 24.0481 21.1014 -0.518392 3.02028 75.1645
7757586 14.2606 15.7384 24.0776 21.1599 -0.478482 3.03812 75.2365
7757596 14.2606 15.7384 24.0776 21.1599 -0.478482 3.03812 75.2365
7757607 14.1902 15.7199 24.0284 21.0917 -0.468777 3.04077 75.0302
7757617 14.2078 15.6647 24.0087 21.1014 -0.483562 3.04824 74.9826
7757627 14.2078 15.6647 24.0087 21.1014 -0.483562 3.04824 74.9826
7757637 14.2342 15.7107 23.9693 21.0917 -0.466993 3.02298 75.0059
7757648 14.1902 15.6371 24.0382 21.0625 -0.510108 3.05763 74.9279
7757659 14.1902 15.6371 24.0382 21.0625 -0.510108 3.05763 74.9279
7757668 14.2078 15.6739 24.0284 21.0527 -0.503427 3.0414 74.9628
7757682 14.2078 15.6739 24.0284 21.0527 -0.503427 3.0414 74.9628
7757688 14.2606 15.6831 23.9496 20.9845 -0.515045 3.00298 74.8779
7757702 14.2959 15.7199 23.8807 20.9748 -0.494799 2.97304 74.8713
7757719 14.3399 15.7936 23.861 21.0235 -0.461166 2.94949 75.018
7757729 14.3047 15.7936 23.8413 20.9066 -0.482929 2.93595 74.8462
7757739 14.3047 15.7936 23.8413 20.9066 -0.482929 2.93595 74.8462
7757750 14.4104 15.9225 23.8118 20.9845 -0.437619 2.88771 75.1292
7757760 14.4104 15.9225 23.8118 20.9845 -0.437619 2.88771 75.1292
7757774 14.4192 15.987 23.7528 20.9553 -0.40925 2.85603 75.1142
7757780 14.428 16.0146 23.7331 21.004 -0.37989 2.85206 75.1797
7757790 14.428 16.0146 23.7331 21.004 -0.37989 2.85206 75.1797
7757800 14.4632 16.0146 23.6838 20.9456 -0.39506 2.82627 75.1072
7757811 14.4896 15.9686 23.6838 20.9163 -0.429191 2.82619 75.0584
7757821 14.4896 15.9686 23.6838 20.9163 -0.429191 2.82619 75.0584
7757831 14.4808 16.0607 23.5559 20.8968 -0.359756 2.78246 74.9942
7757845 14.4984 16.0607 23.5953 20.9943 -0.345567 2.80053 75.1486
7757851 14.4984 16.0975 23.5953 20.9943 -0.33315 2.79181 75.1855
7757865 14.4984 16.0699 23.5953 20.8676 -0.385238 2.77775 75.0312
7757871 14.4984 16.0699 23.5953 20.8676 -0.385238 2.77775 75.0312
7757881 14.4984 16.0515 23.5067 20.8384 -0.372268 2.7629 74.895
7757891 14.472 16.0699 23.5362 20.8774 -0.353868 2.77598 74.9555
7757912 14.5073 16.1251 23.4673 20.8384 -0.337282 2.73692 74.9381
7757921 14.4544 16.0515 23.4771 20.8676 -0.338157 2.7733 74.8506
7757932 14.4544 16.0515 23.4771 20.8676 -0.338157 2.7733 74.8506
7757942 14.4632 16.0699 23.5165 20.8481 -0.354382 2.77009 74.8977
7757953 14.4632 16.0699 23.5165 20.8481 -0.354382 2.77009 74.8977
7757964 14.4016 16.0975 23.5165 20.9066 -0.304969 2.7877 74.9221
7757972 14.4544 16.0515 23.487 20.9845 -0.30189 2.79397 74.9774
7757982 14.4544 16.0515 23.487 20.9845 -0.30189 2.79397 74.9774
7757997 14.472 16.0791 23.4771 21.004 -0.288559 2.78481 75.0322
7758002 14.4632 16.162 23.5165 20.8968 -0.306806 2.75622 75.0385
7758012 14.4632 16.162 23.5165 20.8968 -0.306806 2.75622 75.0385
7758022 14.4456 16.1528 23.5165 20.9748 -0.277852 2.77527 75.0896
7758052 14.4456 16.1528 23.5165 20.9748 -0.277852 2.77527 75.0896
7758056 14.4104 16.1436 23.4279 20.9456 -0.249963 2.76659 74.9274
7758064 14.472 16.0699 23.5362 20.965 -0.324243 2.79026 75.0431
7758076 14.4984 16.0883 23.487 21.0819 -0.271161 2.79064 75.1557
7758085 14.4808 16.1343 23.4476 21.0138 -0.259843 2.76641 75.0765
7758095 14.4808 16.1343 23.4476 21.0138 -0.259843 2.76641 75.0765
7758105 14.4632 16.1712 23.3984 20.9261 -0.254919 2.73952 74.9588
7758115 14.4632 16.1712 23.3984 20.9261 -0.254919 2.73952 74.9588
7758127 14.4808 16.1988 23.3688 20.8968 -0.251524 2.71919 74.9453
7758135 14.5513 16.2356 23.359 20.9748 -0.232914 2.70502 75.1207
7758145 14.5513 16.2356 23.359 20.9748 -0.232914 2.70502 75.1207
7758160 14.5425 16.2356 23.2507 20.9456 -0.204071 2.68454 74.9744
7758169 14.5425 16.2725 23.2212 20.9066 -0.195019 2.6646 74.9427
7758176 14.5425 16.2725 23.2212 20.9066 -0.195019 2.6646 74.9427
7758186 14.5073 16.2541 23.172 20.9163 -0.169952 2.67075 74.8496
7758196 14.5513 16.3093 23.1621 20.9358 -0.156184 2.64893 74.9586
7758216 14.5953 16.3185 23.1129 20.9066 -0.161187 2.62346 74.9334
7758236 14.5513 16.2633 23.1031 20.8384 -0.184834 2.63395 74.756
7758247 14.6218 16.3462 23.0145 20.8287 -0.1542 2.58155 74.811
7758256 14.6218 16.3462 23.0145 20.8287 -0.1542 2.58155 74.811
7758267 14.6394 16.3646 23.0145 20.7799 -0.170237 2.56499 74.7984
7758276 14.6394 16.3646 22.9849 20.7799 -0.160432 2.56008 74.7688
7758290 14.6482 16.4014 22.9849 20.7994 -0.144419 2.5526 74.834
7758297 14.657 16.4751 22.9751 20.8092 -0.116082 2.53326 74.9164
7758312 14.657 16.4751 22.9751 20.8092 -0.116082 2.53326 74.9164
7758317 14.701 16.4567 22.9259 20.8384 -0.110734 2.52394 74.922
7758334 14.7187 16.5488 22.9062 20.8579 -0.0727087 2.49829 75.0315
7758337 14.7187 16.5488 22.9062 20.8579 -0.0727087 2.49829 75.0315
7758348 14.6922 16.558 22.8668 20.8579 -0.0477538 2.49574 74.9749
7758357 14.6922 16.558 22.8668 20.8579 -0.0477538 2.49574 74.9749
7758367 14.7187 16.558 22.8964 20.8968 -0.0533491 2.50099 75.0698
7758377 14.7979 16.5672 22.8964 20.8968 -0.076592 2.48039 75.1583
7758388 14.7979 16.5672 22.8964 20.8968 -0.076592 2.48039 75.1583
7758397 14.7451 16.604 22.8767 20.7605 -0.0857785 2.45806 74.9862
7758407 14.7715 16.5764 22.7979 20.7799 -0.0711024 2.44842 74.9257
7758421 14.7715 16.5764 22.7979 20.7799 -0.0711024 2.44842 74.9257
7758429 14.8067 16.5948 22.7782 20.8189 -0.0570849 2.43916 74.9987
7758439 14.7803 16.6408 22.8964 20.8481 -0.062421 2.45924 75.1656
7758466 14.7803 16.6408 22.8964 20.8481 -0.062421 2.45924 75.1656
7758467 14.7979 16.5764 22.9456 20.8676 -0.0995815 2.48157 75.1875
7758480 14.8155 16.5948 22.8668 20.8871 -0.0666752 2.46332 75.1643
7758490 14.7891 16.604 22.8865 20.8676 -0.0678673 2.46736 75.1473
7758504 14.7891 16.604 22.8865 20.8676 -0.0678673 2.46736 75.1473
7758510 14.8332 16.6224 22.8865 20.8092 -0.0958309 2.44309 75.1513
7758520 14.8684 16.6685 22.857 20.7799 -0.0921041 2.41442 75.1738
7758531 14.8684 16.6685 22.857 20.7799 -0.0921041 2.41442 75.1738
7758542 14.8508 16.6501 22.8668 20.7702 -0.0989318 2.42279 75.1379
7758557 14.8508 16.6501 22.8668 20.7702 -0.0989318 2.42279 75.1379
7758560 14.842 16.6224 22.8865 20.6728 -0.144379 2.41822 75.0237
7758570 14.8684 16.5856 22.8373 20.6436 -0.158988 2.40746 74.9348
7758584 14.8684 16.5856 22.8373 20.6436 -0.158988 2.40746 74.9348
7758590 14.886 16.5672 22.7585 20.5169 -0.187504 2.37304 74.7286
7758600 14.886 16.5672 22.7585 20.5169 -0.187504 2.37304 74.7286
7758612 14.8596 16.5488 22.7192 20.5364 -0.165276 2.38011 74.6639
7758620 14.8508 16.5856 22.7979 20.5948 -0.156441 2.39674 74.8291
7758641 14.8596 16.5764 22.7389 20.5948 -0.142841 2.38688 74.7697
7758650 14.9036 16.5948 22.8274 20.6533 -0.16104 2.39713 74.9792
7758682 14.8772 16.5856 22.8373 20.6923 -0.145559 2.4136 74.9923
7758690 14.8596 16.5948 22.8274 20.7215 -0.123575 2.4188 75.0033
7758704 14.886 16.5948 22.7782 20.6046 -0.155233 2.38474 74.8636
7758726 14.8948 16.6316 22.7192 20.4974 -0.162198 2.34606 74.743
7758731 14.886 16.6777 22.6207 20.439 -0.130685 2.31081 74.6234
7758741 14.886 16.6777 22.6207 20.439 -0.130685 2.31081 74.6234
7758751 14.9829 16.7329 22.6404 20.361 -0.177118 2.26566 74.7173
7758762 15.0093 16.8342 22.5814 20.361 -0.132182 2.22612 74.7859
7758774 15.0093 16.8342 22.5814 20.361 -0.132182 2.22612 74.7859
7758783 15.0446 16.8803 22.601 20.3708 -0.131696 2.21245 74.8967
7758793 15.0446 16.8803 22.601 20.3708 -0.131696 2.21245 74.8967
7758802 15.115 16.9079 22.542 20.3318 -0.139289 2.17316 74.8967
7758816 15.1503 16.954 22.5026 20.2831 -0.138809 2.13944 74.8899
7758823 15.1503 16.954 22.5026 20.2831 -0.138809 2.13944 74.8899
7758832 15.1943 17 22.5026 20.2539 -0.147776 2.11382 74.9508
7758842 15.1943 17 22.5026 20.2539 -0.147776 2.11382 74.9508
7758853 15.1855 16.9908 22.5321 20.2441 -0.161006 2.12134 74.9525
7758864 15.2383 17 22.542 20.2052 -0.191759 2.10217 74.9855
7758872 15.2383 17 22.542 20.2052 -0.191759 2.10217 74.9855
7758883 15.1679 16.9724 22.542 20.1662 -0.190818 2.11786 74.8484
7758892 15.2472 16.9908 22.5124 20.137 -0.210932 2.08543 74.8874
7758906 15.2472 16.9908 22.5124 20.137 -0.210932 2.08543 74.8874
7758912 15.256 17.0584 22.542 20.1467 -0.197619 2.07479 75.003
7758922 15.2383 16.9816 22.5124 20.098 -0.224246 2.08281 74.8304
7758933 15.2383 16.9816 22.5124 20.098 -0.224246 2.08281 74.8304
7758944 15.2119 17.0097 22.5518 20.1662 -0.196101 2.10096 74.9397
7758964 15.1943 16.9171 22.5321 20.0883 -0.241219 2.10934 74.7318
7758975 15.2119 16.9079 22.6207 20.1077 -0.272883 2.12603 74.8483
7758985 15.2119 16.9079 22.6207 20.1077 -0.272883 2.12603 74.8483
7759000 15.2207 16.8895 22.601 20.0785 -0.285387 2.11981 74.7898
7759004 15.2207 16.9447 22.6896 20.0688 -0.299254 2.12074 74.9239
7759015 15.2207 16.9447 22.6896 20.0688 -0.299254 2.12074 74.9239
7759025 15.1943 16.9447 22.6601 20.1077 -0.267638 2.1284 74.9069
7759035 15.1943 16.9447 22.6601 20.1077 -0.267638 2.1284 74.9069
7759046 15.2119 16.8527 22.6503 20.0395 -0.324388 2.13203 74.7544
7759055 15.256 16.9171 22.6699 20.1077 -0.300546 2.12232 74.9508
7759067 15.256 16.9171 22.6699 20.1077 -0.300546 2.12232 74.9508
7759076 15.2912 16.9724 22.6109 20.0395 -0.297064 2.07976 74.914
7759090 15.2383 16.9263 22.6896 20.0493 -0.317866 2.11757 74.9036
7759095 15.2383 16.9263 22.6896 20.0493 -0.317866 2.11757 74.9036
7759105 15.2912 16.9171 22.601 20.0103 -0.322375 2.08562 74.8197
7759117 15.2912 16.9171 22.601 20.0103 -0.322375 2.08562 74.8197
7759126 15.3 16.954 22.6207 20.0006 -0.322604 2.07692 74.8753
7759137 15.3176 16.9724 22.6503 19.9324 -0.354978 2.06203 74.8726
7759146 15.3176 16.9724 22.6503 19.9324 -0.354978 2.06203 74.8726
7759158 15.3793 17.0195 22.6207 19.9421 -0.346322 2.03387 74.9616
7759168 15.3176 17.0486 22.5223 19.8252 -0.323258 2.0039 74.7138
7759181 15.3176 17.0486 22.5223 19.8252 -0.323258 2.0039 74.7138
7759186 15.3793 17.0486 22.542 19.8934 -0.327002 2.00515 74.8633
7759196 15.3793 17.0486 22.542 19.8934 -0.327002 2.00515 74.8633
7759207 15.344 17.0195 22.5026 19.8642 -0.322163 2.00788 74.7303
7759216 15.3969 17.0973 22.4928 19.8544 -0.313315 1.97479 74.8413
7759230 15.3969 17.0973 22.4928 19.8544 -0.313315 1.97479 74.8413
7759236 15.3969 17.1556 22.5026 19.7765 -0.323184 1.9497 74.8316
7759246 15.3969 17.1556 22.5026 19.7765 -0.323184 1.9497 74.8316
7759256 15.4497 17.1459 22.4534 19.8155 -0.314492 1.93815 74.8645
7759266 15.4497 17.1264 22.5321 19.8252 -0.343713 1.95797 74.9335
7759277 15.4497 17.1264 22.5321 19.8252 -0.343713 1.95797 74.9335
7759287 15.4145 17.1848 22.4928 19.7473 -0.325766 1.93229 74.8393
7759297 15.4409 17.107 22.4731 19.7862 -0.341138 1.94729 74.8072
7759320 15.3969 17.0973 22.5124 19.7668 -0.349498 1.96295 74.7734
7759326 15.4497 17.0973 22.5321 19.7668 -0.373389 1.9544 74.8459
7759337 15.4497 17.0875 22.5321 19.8252 -0.356881 1.96678 74.8946
7759347 15.4145 17.0973 22.5518 19.8447 -0.341874 1.97937 74.9083
7759368 15.4321 17.1167 22.4731 19.796 -0.331642 1.94878 74.8179
7759377 15.4497 17.0778 22.5715 19.7862 -0.386323 1.96905 74.8853
7759390 15.4497 17.0778 22.5715 19.7862 -0.386323 1.96905 74.8853
7759397 15.4321 17.1167 22.4731 19.7375 -0.351447 1.93857 74.7594
7759407 15.4321 17.1167 22.4731 19.7375 -0.351447 1.93857 74.7594
7759417 15.4409 17.0292 22.5124 19.7668 -0.38711 1.9684 74.7493
7759427 15.4321 17.0097 22.5814 19.7765 -0.410178 1.98851 74.7997
7759447 15.4233 17.0195 22.5814 19.8544 -0.377536 2.00185 74.8786
7759462 15.4321 17.0875 22.6109 19.9032 -0.35062 1.99798 75.0337
7759490 15.4585 17.0195 22.5617 19.8642 -0.379346 1.99212 74.9039
7759497 15.3 17.0097 22.5715 19.8934 -0.323762 2.03716 74.7746
7759507 15.4057 17 22.6207 19.9324 -0.364883 2.0306 74.9588
7759519 15.4057 17 22.6207 19.9324 -0.364883 2.0306 74.9588
7759529 15.4321 17.0195 22.6109 19.8739 -0.383535 2.00835 74.9364
7759539 15.3793 17 22.6306 19.9032 -0.369325 2.03325 74.913
7759549 15.3793 17 22.6306 19.9032 -0.369325 2.03325 74.913
7759559 15.3969 17.0389 22.5912 19.8057 -0.382003 1.99668 74.8327
7759575 15.3969 17.0389 22.5912 19.8057 -0.382003 1.99668 74.8327
7759579 15.3705 17 22.601 19.835 -0.379834 2.01831 74.8065
7759589 15.4321 17.0389 22.542 19.835 -0.367492 1.98521 74.848
7759602 15.4321 17.0389 22.542 19.835 -0.367492 1.98521 74.848
7759609 15.3617 17.0292 22.5223 19.7181 -0.380778 1.97964 74.6312
7759619 15.4057 17.0681 22.4632 19.7181 -0.362602 1.95047 74.6551
7759629 15.4057 17.0681 22.4632 19.7181 -0.362602 1.95047 74.6551
7759639 15.3969 17.0292 22.4337 19.6693 -0.379744 1.94762 74.5291
7759660 15.3969 17.1167 22.4239 19.6693 -0.346717 1.92602 74.6068
7759676 15.4674 17.1459 22.5026 19.7765 -0.349694 1.93595 74.8923
7759684 15.4674 17.1459 22.5026 19.7765 -0.349694 1.93595 74.8923
7759690 15.4145 17.1264 22.4731 19.6791 -0.362174 1.93014 74.6931
7759702 15.5378 17.1459 22.4829 19.7862 -0.363098 1.9183 74.9529
7759710 15.5378 17.1459 22.4829 19.7862 -0.363098 1.9183 74.9529
7759721 15.5378 17.2529 22.4435 19.8252 -0.30086 1.89411 75.0594
7759731 15.5466 17.214 22.4731 19.7668 -0.346327 1.89584 75.0004
7759741 15.5466 17.214 22.4731 19.7668 -0.346327 1.89584 75.0004
7759751 15.5554 17.3209 22.3451 19.7181 -0.287418 1.83884 74.9395
7759765 15.5554 17.3209 22.3451 19.7181 -0.287418 1.83884 74.9395
7759771 15.5466 17.2626 22.3353 19.7181 -0.300972 1.85221 74.8625
7759782 15.5466 17.3015 22.3648 19.6986 -0.304151 1.84523 74.9115
7759793 15.5466 17.3015 22.3648 19.6986 -0.304151 1.84523 74.9115
7759804 15.5907 17.2529 22.3156 19.6304 -0.341965 1.82561 74.7895
7759821 15.6171 17.282 22.2368 19.6206 -0.31812 1.7975 74.7566
7759823 15.6171 17.282 22.2368 19.6206 -0.31812 1.7975 74.7566
7759832 15.6083 17.214 22.2664 19.6499 -0.338124 1.82516 74.7385
7759851 15.6083 17.214 22.2664 19.6499 -0.338124 1.82516 74.7385
7759857 15.6259 17.282 22.2467 19.5622 -0.344086 1.78693 74.7168
7759863 15.6523 17.3112 22.1975 19.5914 -0.316766 1.77091 74.7524
7759876 15.6523 17.3112 22.1975 19.5914 -0.316766 1.77091 74.7524
7759894 15.6876 17.2918 22.2762 19.5622 -0.370844 1.77613 74.8177
7759897 15.6523 17.282 22.227 19.6011 -0.333099 1.7844 74.7625
7759903 15.6523 17.282 22.227 19.6011 -0.333099 1.7844 74.7625
7759916 15.6523 17.3307 22.1581 19.5817 -0.300473 1.75785 74.7227
7759924 15.6523 17.3307 22.1581 19.5817 -0.300473 1.75785 74.7227
7759936 15.7228 17.3015 22.2171 19.5524 -0.363004 1.75388 74.7939
7759952 15.6523 17.3015 22.2467 19.5037 -0.36604 1.76628 74.7042
7759954 15.6523 17.3015 22.2467 19.5037 -0.36604 1.76628 74.7042
7759964 15.7052 17.3307 22.2664 19.5914 -0.35032 1.76689 74.8936
7759974 15.6788 17.3307 22.2368 19.533 -0.351693 1.75724 74.7792
7759984 15.6788 17.3307 22.2368 19.533 -0.351693 1.75724 74.7792
7759995 15.6788 17.3209 22.1581 19.5719 -0.315794 1.75238 74.7297
7760005 15.6788 17.3209 22.1581 19.5719 -0.315794 1.75238 74.7297
7760015 15.6964 17.3404 22.1679 19.5135 -0.338081 1.73545 74.7181
7760025 15.7228 17.3696 22.1581 19.533 -0.327063 1.72471 74.7834
7760035 15.7228 17.3696 22.1581 19.533 -0.327063 1.72471 74.7834
7760045 15.758 17.3793 22.1876 19.4355 -0.378148 1.7026 74.7605
7760055 15.7756 17.4085 22.1679 19.416 -0.374176 1.68518 74.7681
7760065 15.7756 17.4085 22.1679 19.416 -0.374176 1.68518 74.7681
7760076 15.8285 17.4474 22.1679 19.3868 -0.388286 1.65952 74.8306
7760086 15.758 17.4474 22.1581 19.3966 -0.358541 1.67521 74.76
7760107 15.7933 17.4668 22.1285 19.4258 -0.343919 1.66296 74.8144
7760125 15.7756 17.4376 22.1679 19.4258 -0.360973 1.68041 74.807
7760144 15.8109 17.4474 22.1581 19.3186 -0.40241 1.64952 74.7349
7760146 15.8109 17.4474 22.1581 19.3186 -0.40241 1.64952 74.7349
7760156 15.8813 17.5154 22.1679 19.3771 -0.385879 1.63091 74.9418
7760179 15.7845 17.4474 22.0892 19.3673 -0.354449 1.6518 74.6883
7760186 15.8109 17.4279 22.1679 19.3966 -0.385788 1.66952 74.8033
7760196 15.8109 17.4279 22.1679 19.3966 -0.385788 1.66952 74.8033
7760206 15.8197 17.389 22.1384 19.4648 -0.369026 1.68311 74.8118
7760222 15.7756 17.4376 22.0596 19.4355 -0.321957 1.66284 74.7085
7760226 15.7756 17.4376 22.0596 19.4355 -0.321957 1.66284 74.7085
7760237 15.8373 17.4571 22.1679 19.455 -0.364771 1.66755 74.9173
7760248 15.8373 17.4571 22.1679 19.455 -0.364771 1.66755 74.9173
7760257 15.8109 17.4182 22.1285 19.4745 -0.349696 1.67855 74.8321
7760271 15.8285 17.4474 22.1778 19.5037 -0.351921 1.68208 74.9574
7760277 15.8285 17.4474 22.1778 19.5037 -0.351921 1.68208 74.9574
7760287 15.8373 17.4279 22.1384 19.4063 -0.381459 1.6601 74.8099
7760296 15.7845 17.4668 22.0006 19.416 -0.30206 1.64033 74.6679
7760306 15.7845 17.4668 22.0006 19.416 -0.30206 1.64033 74.6679
7760317 15.8637 17.4571 22.0793 19.416 -0.357518 1.63893 74.8162
7760329 15.8637 17.4571 22.0793 19.416 -0.357518 1.63893 74.8162
7760337 15.7933 17.4376 22.04 19.4063 -0.331181 1.65017 74.6772
7760347 15.8549 17.4279 22.0695 19.4355 -0.354657 1.6491 74.7879
7760359 15.8549 17.4279 22.0695 19.4355 -0.354657 1.6491 74.7879
7760367 15.758 17.3987 22.1482 19.416 -0.365184 1.68778 74.7211
7760381 15.758 17.389 22.0498 19.5037 -0.306253 1.68803 74.7006
7760389 15.758 17.389 22.0498 19.5037 -0.306253 1.68803 74.7006
7760402 15.7668 17.4474 22.1876 19.3966 -0.371172 1.6785 74.7984
7760409 15.7668 17.4474 22.1876 19.3966 -0.371172 1.6785 74.7984
7760419 15.8021 17.4279 22.1482 19.4648 -0.353281 1.68012 74.843
7760429 15.7668 17.389 22.1187 19.3868 -0.371581 1.67751 74.6614
7760437 15.7668 17.389 22.1187 19.3868 -0.371581 1.67751 74.6614
7760449 15.7668 17.3987 22.1581 19.416 -0.371329 1.68757 74.7397
7760459 15.8109 17.389 22.2073 19.455 -0.392106 1.6956 74.8622
7760473 15.8109 17.389 22.2073 19.455 -0.392106 1.6956 74.8622
7760479 15.8461 17.389 22.2171 19.5037 -0.390401 1.69814 74.956
7760489 15.8461 17.389 22.2171 19.5037 -0.390401 1.69814 74.956
7760499 15.8197 17.389 22.1975 19.5037 -0.375253 1.70054 74.9099
7760509 15.8461 17.3793 22.2368 19.4063 -0.433208 1.6865 74.8685
7760523 15.8461 17.3793 22.2368 19.4063 -0.433208 1.6865 74.8685
7760529 15.8021 17.4085 22.1975 19.4258 -0.389288 1.68628 74.8338
7760540 15.8285 17.3307 22.2368 19.3576 -0.460538 1.69261 74.7536
7760549 15.8285 17.3307 22.2368 19.3576 -0.460538 1.69261 74.7536
7760558 15.7933 17.3112 22.1482 19.2991 -0.446382 1.67861 74.5518
7760574 15.7933 17.3112 22.1482 19.2991 -0.446382 1.67861 74.5518
7760582 15.7933 17.3404 22.2073 19.3576 -0.435947 1.69305 74.6985
7760591 15.8373 17.389 22.1285 19.2894 -0.431193 1.64613 74.6443
7760599 15.8373 17.389 22.1285 19.2894 -0.431193 1.64613 74.6443
7760610 15.8109 17.3793 22.1975 19.3576 -0.42526 1.67868 74.7452
7760620 15.8021 17.2918 22.227 19.3186 -0.475174 1.69852 74.6394
7760640 15.8461 17.4085 22.2762 19.3186 -0.466013 1.6714 74.8494
7760651 15.8461 17.4085 22.2762 19.3186 -0.466013 1.6714 74.8494
7760663 15.8725 17.3987 22.1778 19.3673 -0.429125 1.65883 74.8164
7760678 15.8813 17.4182 22.2467 19.3089 -0.467885 1.6544 74.8551
7760681 15.8813 17.4182 22.2467 19.3089 -0.467885 1.6544 74.8551
7760690 15.8637 17.4571 22.2467 19.2797 -0.45882 1.64445 74.8472
7760703 15.9342 17.4376 22.1778 19.2797 -0.465947 1.62081 74.8293
7760710 15.9342 17.4376 22.1778 19.2797 -0.465947 1.62081 74.8293
7760721 15.9518 17.4571 22.2073 19.2407 -0.488037 1.61089 74.8569
7760731 15.9518 17.4571 22.2073 19.2407 -0.488037 1.61089 74.8569
7760741 15.9518 17.4765 22.1285 19.2212 -0.462238 1.58898 74.7781
7760754 15.899 17.4668 22.1089 19.153 -0.464976 1.5871 74.6277
7760761 15.899 17.4668 22.1089 19.153 -0.464976 1.5871 74.6277
7760771 15.8902 17.4376 22.1285 19.2115 -0.458564 1.60957 74.6678
7760781 15.9342 17.4668 22.1482 19.1822 -0.479507 1.59159 74.7315
7760791 15.9342 17.4668 22.1482 19.1822 -0.479507 1.59159 74.7315
7760805 15.943 17.4765 22.1679 19.1628 -0.492181 1.58751 74.7502
7760812 15.943 17.4765 22.1679 19.1628 -0.492181 1.58751 74.7502
7760822 15.9166 17.4668 22.1187 19.114 -0.487301 1.57795 74.6161
7760832 15.9606 17.4863 22.1187 19.1433 -0.485145 1.56911 74.7089
7760853 16.0047 17.5446 22.0892 19.2309 -0.440189 1.55688 74.8694
7760864 15.9959 17.5835 22.0596 19.153 -0.440876 1.5309 74.792
7760876 15.9959 17.5835 22.0596 19.153 -0.440876 1.5309 74.792
7760884 15.987 17.5154 22.1089 19.1238 -0.487281 1.55151 74.7351
7760899 15.9518 17.5543 22.1482 19.0848 -0.488663 1.55077 74.7392
7760904 15.9518 17.5543 22.1482 19.0848 -0.488663 1.55077 74.7392
7760914 15.9518 17.5252 22.1384 19.1335 -0.478773 1.56422 74.7489
7760924 15.9518 17.5252 22.1384 19.1335 -0.478773 1.56422 74.7489
7760934 15.9782 17.5835 22.0892 19.1628 -0.441475 1.54186 74.8137
7760949 15.9959 17.4668 22.04 19.1725 -0.467525 1.5567 74.6751
7760954 15.9959 17.4668 22.04 19.1725 -0.467525 1.5567 74.6751
7760965 15.987 17.5446 22.1482 19.2309 -0.453776 1.57137 74.9108
7760976 15.9606 17.5057 22.0892 19.2602 -0.429022 1.58048 74.8157
7760985 15.9606 17.5057 22.0892 19.2602 -0.429022 1.58048 74.8157
7760998 15.9606 17.5349 22.1089 19.2504 -0.428882 1.57581 74.8548
7761005 15.9606 17.5349 22.1089 19.2504 -0.428882 1.57581 74.8548
7761015 15.9606 17.4863 22.0892 19.2309 -0.445578 1.57955 74.767
7761026 15.9078 17.5933 22.1384 19.2212 -0.411333 1.57464 74.8606
7761038 15.9078 17.5933 22.1384 19.2212 -0.411333 1.57464 74.8606
7761046 15.9078 17.4668 22.0892 19.2504 -0.428198 1.59909 74.7142
7761058 15.8813 17.5641 22.1285 19.2212 -0.409321 1.5852 74.7952
7761067 15.8813 17.5641 22.1285 19.2212 -0.409321 1.5852 74.7952
7761081 15.943 17.5446 22.1089 19.1822 -0.442976 1.56531 74.7787
7761086 15.943 17.5446 22.1089 19.1822 -0.442976 1.56531 74.7787
7761096 15.9166 17.4474 22.1089 19.192 -0.464109 1.5945 74.6648
7761106 15.943 17.4765 22.1778 19.2212 -0.475493 1.59975 74.8185
7761129 15.943 17.4765 22.1778 19.2212 -0.475493 1.59975 74.8185
7761130 15.9078 17.5154 22.1285 19.2212 -0.434537 1.59012 74.773
7761137 15.8725 17.5252 22.1089 19.2991 -0.386699 1.60622 74.8057
7761149 15.8725 17.5252 22.1089 19.2991 -0.386699 1.60622 74.8057
7761159 15.943 17.4863 22.1384 19.1822 -0.472538 1.58355 74.7499
7761172 15.9254 17.4765 22.1778 19.2115 -0.473033 1.60192 74.7912
7761179 15.9254 17.4765 22.1778 19.2115 -0.473033 1.60192 74.7912
7761189 15.899 17.4668 22.1089 19.2602 -0.428461 1.60633 74.7348
7761200 15.899 17.4668 22.1089 19.2602 -0.428461 1.60633 74.7348
7761216 15.8637 17.496 22.1285 19.2017 -0.433312 1.60072 74.69
7761231 15.9078 17.4668 22.1975 19.2115 -0.477023 1.61152 74.7835
7761232 15.9078 17.4668 22.1975 19.2115 -0.477023 1.61152 74.7835
7761240 15.8902 17.4571 22.099 19.2212 -0.438902 1.6017 74.6675
7761257 15.8725 17.4668 22.1482 19.2602 -0.432716 1.61925 74.7478
7761260 15.8725 17.4668 22.1482 19.2602 -0.432716 1.61925 74.7478
7761270 15.899 17.4279 22.099 19.2212 -0.451744 1.60623 74.6471
7761286 15.8461 17.4279 22.1876 19.3284 -0.427008 1.65302 74.79
7761291 15.8461 17.4182 22.1876 19.3284 -0.430314 1.65518 74.7803
7761301 15.8637 17.4085 22.1482 19.3673 -0.413223 1.65335 74.7878
7761314 15.8637 17.4085 22.1482 19.3673 -0.413223 1.65335 74.7878
7761321 15.8637 17.4085 22.1482 19.2602 -0.449689 1.6342 74.6806
7761335 15.8197 17.4571 22.1778 19.3673 -0.391938 1.6576 74.8219
7761341 15.8197 17.4571 22.1778 19.3673 -0.391938 1.6576 74.8219
7761351 15.8285 17.4474 22.1679 19.3771 -0.391591 1.65779 74.8209
7761371 15.8285 17.4182 22.1778 19.3576 -0.411351 1.66257 74.782
7761381 15.8373 17.3598 22.1975 19.3771 -0.433935 1.68059 74.7717
7761391 15.8373 17.3598 22.1975 19.3771 -0.433935 1.68059 74.7717
7761401 15.7668 17.3696 22.1975 19.416 -0.394207 1.70109 74.7499
7761413 15.7756 17.4279 22.2664 19.416 -0.399956 1.69835 74.886
7761421 15.7756 17.4279 22.2664 19.416 -0.399956 1.69835 74.886
7761434 15.7756 17.4085 22.3156 19.3966 -0.429325 1.70797 74.8962
7761443 15.7933 17.4085 22.2664 19.4453 -0.402427 1.70395 74.9134
7761456 15.7933 17.3793 22.2664 19.4453 -0.412324 1.71046 74.8842
7761463 15.7668 17.3598 22.2565 19.3966 -0.423561 1.7103 74.7798
7761482 15.7668 17.2918 22.2664 19.416 -0.443326 1.73074 74.741
7761492 15.7668 17.3112 22.286 19.3966 -0.449808 1.72642 74.7607
