10655963 11.3451 12.5244 29.2947 24.4917 -1.1666 5.77876 77.6559
10655968 11.3451 12.5244 29.2947 24.4917 -1.1666 5.77876 77.6559
10655970 11.3979 12.5981 29.3439 24.4819 -1.17637 5.74965 77.8219
10655980 11.3891 12.6073 29.2947 24.4819 -1.15549 5.74369 77.7731
10655988 11.3891 12.6073 29.2947 24.4819 -1.15549 5.74369 77.7731
10656000 11.3979 12.6257 29.2455 24.4527 -1.14673 5.72708 77.7218
10656009 11.4772 12.6257 29.2061 24.5112 -1.13932 5.70824 77.8202
10656020 11.4772 12.7086 29.2061 24.5112 -1.11151 5.68621 77.9031
10656029 11.486 12.7546 29.1865 24.4235 -1.12214 5.65879 77.8506
10656039 11.486 12.7546 29.1865 24.4235 -1.12214 5.65879 77.8506
10656049 11.4772 12.7178 29.1175 24.443 -1.1041 5.66498 77.7555
10656059 11.5565 12.8006 29.088 24.4625 -1.08506 5.62076 77.9076
10656069 11.5565 12.8006 29.088 24.4625 -1.08506 5.62076 77.9076
10656079 11.5301 12.8191 29.0388 24.4332 -1.06543 5.61343 77.8212
10656089 11.6005 12.8191 28.9404 24.4332 -1.05683 5.58288 77.7932
10656099 11.6005 12.8375 28.9404 24.3748 -1.07025 5.57093 77.7532
10656110 11.6005 12.8375 29.0388 24.4332 -1.08092 5.58991 77.91
10656120 11.6005 12.8375 29.0388 24.4332 -1.08092 5.58991 77.91
10656131 11.5917 12.8283 28.96 24.3553 -1.08322 5.57572 77.7353
10656139 11.6181 12.8651 28.9502 24.3358 -1.0825 5.55543 77.7693
10656159 11.6269 12.8835 28.9305 24.2871 -1.08932 5.53992 77.7281
10656172 11.6534 12.8927 28.8616 24.3163 -1.06335 5.52567 77.7241
10656180 11.6534 12.8927 28.8616 24.3163 -1.06335 5.52567 77.7241
10656191 11.6446 12.8375 28.9207 24.3358 -1.09081 5.55216 77.7385
10656212 11.6886 12.9204 28.901 24.3163 -1.07704 5.51389 77.8263
10656221 11.671 12.9112 28.8715 24.2774 -1.07869 5.5126 77.731
10656240 11.6974 12.948 28.8616 24.2968 -1.06491 5.4971 77.8039
10656257 11.7503 12.9204 28.8715 24.2579 -1.10651 5.4869 77.8
10656261 11.7503 12.9204 28.8715 24.2579 -1.10651 5.4869 77.8
10656271 11.7062 12.9112 28.8616 24.2968 -1.07997 5.50449 77.7758
10656298 11.7062 12.9112 28.8616 24.2968 -1.07997 5.50449 77.7758
10656300 11.6974 12.9388 28.8616 24.3456 -1.05169 5.50547 77.8434
10656301 11.7062 12.9572 28.8616 24.3163 -1.05801 5.49474 77.8414
10656311 11.7062 12.9572 28.8616 24.3163 -1.05801 5.49474 77.8414
10656322 11.6974 12.8835 28.901 24.3066 -1.09536 5.52009 77.7885
10656332 11.7415 12.8743 28.8025 24.3358 -1.07192 5.50246 77.7541
10656351 11.7326 12.9112 28.9207 24.3261 -1.09643 5.5083 77.8905
10656365 11.7326 12.9112 28.9207 24.3261 -1.09643 5.5083 77.8905
10656371 11.6269 12.8375 28.9108 24.3748 -1.06929 5.56036 77.75
10656381 11.671 12.8651 29.0191 24.3553 -1.11336 5.5522 77.9105
10656393 11.671 12.8651 29.0191 24.3553 -1.11336 5.5522 77.9105
10656401 11.6798 12.8375 28.9404 24.3261 -1.11096 5.54406 77.7837
10656411 11.6798 12.8191 28.9502 24.3748 -1.10382 5.55604 77.8238
10656431 11.7503 12.8099 29.0388 24.2968 -1.18182 5.54116 77.8958
10656442 11.7503 12.8099 29.0388 24.2968 -1.18182 5.54116 77.8958
10656453 11.6358 12.7822 28.9699 24.3163 -1.12834 5.57272 77.7042
10656467 11.671 12.8099 29.029 24.3261 -1.14472 5.56444 77.8359
10656472 11.671 12.8099 29.029 24.3261 -1.14472 5.56444 77.8359
10656483 11.6798 12.7546 28.9699 24.2676 -1.16756 5.56246 77.6719
10656493 11.6534 12.7362 28.9896 24.2384 -1.18155 5.57318 77.6175
10656503 11.6534 12.7362 28.9896 24.2384 -1.18155 5.57318 77.6175
10656513 11.6622 12.7822 29.0782 24.3163 -1.16965 5.57885 77.8389
10656522 11.6622 12.7822 29.0782 24.3163 -1.16965 5.57885 77.8389
10656536 11.7062 12.7362 29.0782 24.3066 -1.2019 5.5782 77.8272
10656544 11.6446 12.6994 29.0388 24.3066 -1.18337 5.59951 77.6893
10656559 11.6446 12.6994 29.0388 24.3066 -1.18337 5.59951 77.6893
10656564 11.6622 12.7178 29.1963 24.3456 -1.21762 5.61369 77.9218
10656574 11.6446 12.6994 29.1077 24.2871 -1.21104 5.60549 77.7387
10656590 11.6446 12.6994 29.1077 24.2871 -1.21104 5.60549 77.7387
10656594 11.6974 12.7178 29.1569 24.2871 -1.23603 5.59256 77.8592
10656604 11.6974 12.7178 29.1569 24.2871 -1.23603 5.59256 77.8592
10656614 11.671 12.6809 29.1175 24.2871 -1.22835 5.60456 77.7566
10656625 11.6798 12.6901 29.1274 24.2968 -1.22766 5.60215 77.7942
10656634 11.6798 12.6901 29.1274 24.2968 -1.22766 5.60215 77.7942
10656647 11.715 12.6809 29.1668 24.2676 -1.2634 5.59649 77.8303
10656655 11.7062 12.7362 29.0782 24.2676 -1.21503 5.57348 77.7882
10656665 11.7062 12.7362 29.0782 24.2676 -1.21503 5.57348 77.7882
10656675 11.6974 12.727 29.0683 24.3163 -1.19601 5.58295 77.809
10656697 11.6886 12.6994 29.1865 24.2384 -1.26499 5.59745 77.8128
10656706 11.7238 12.7086 29.1077 24.2189 -1.25518 5.5738 77.759
10656715 11.7238 12.7086 29.1077 24.2189 -1.25518 5.5738 77.759
10656726 11.6446 12.6533 29.1274 24.1994 -1.26223 5.60948 77.6247
10656735 11.7062 12.7178 29.088 24.1702 -1.25713 5.56773 77.6822
10656745 11.7062 12.7178 29.088 24.1702 -1.25713 5.56773 77.6822
10656757 11.6798 12.6625 29.1569 24.2968 -1.246 5.61303 77.7961
10656766 11.6798 12.6625 29.1569 24.2968 -1.246 5.61303 77.7961
10656779 11.715 12.7178 29.1372 24.2092 -1.26169 5.5761 77.7792
10656787 11.7767 12.7178 29.1766 24.2774 -1.26948 5.57282 77.9484
10656800 11.7767 12.7178 29.1766 24.2774 -1.26948 5.57282 77.9484
10656806 11.7415 12.7638 29.1372 24.2189 -1.25093 5.55812 77.8614
10656816 11.7238 12.7086 29.1668 24.2384 -1.26663 5.58331 77.8376
10656836 11.7238 12.727 29.1274 24.2189 -1.25497 5.57132 77.7971
10656847 11.7238 12.727 29.1274 24.2189 -1.25497 5.57132 77.7971
10656858 11.7238 12.7362 29.1865 24.2189 -1.26988 5.57604 77.8654
10656869 11.7238 12.6717 29.2061 24.2676 -1.28119 5.60135 77.8693
10656877 11.7238 12.6717 29.2061 24.2676 -1.28119 5.60135 77.8693
10656888 11.7238 12.6349 29.1569 24.2384 -1.28851 5.60163 77.754
10656904 11.7326 12.7178 29.2357 24.2384 -1.28719 5.58688 77.9245
10656908 11.7326 12.7178 29.2357 24.2384 -1.28719 5.58688 77.9245
10656918 11.6974 12.6901 29.1668 24.2287 -1.26807 5.594 77.783
10656927 11.6974 12.6901 29.1668 24.2287 -1.26807 5.594 77.783
10656938 11.7503 12.6901 29.1569 24.2287 -1.28119 5.57883 77.826
10656948 11.7238 12.727 29.1077 24.1897 -1.25883 5.56538 77.7482
10656961 11.7238 12.727 29.1077 24.1897 -1.25883 5.56538 77.7482
10656969 11.7415 12.6994 29.1569 24.2092 -1.28197 5.57636 77.8069
10656981 11.7326 12.7546 29.1077 24.2189 -1.24233 5.5593 77.8139
10656989 11.7326 12.7546 29.1077 24.2189 -1.24233 5.5593 77.8139
10657001 11.7503 12.6809 29.1175 24.2384 -1.269 5.57767 77.7871
10657009 11.7503 12.6809 29.1175 24.2384 -1.269 5.57767 77.7871
10657021 11.6798 12.727 29.0979 24.2092 -1.23579 5.57821 77.7138
10657029 11.7943 12.727 29.1668 24.2579 -1.27531 5.5622 77.9459
10657049 11.7503 12.8099 29.0486 24.1897 -1.2209 5.52933 77.7984
10657061 11.7326 12.6994 29.088 24.1994 -1.26155 5.56916 77.7194
10657082 11.7591 12.7546 29.1274 24.1897 -1.26626 5.55116 77.8307
10657091 11.7591 12.7546 29.1274 24.1897 -1.26626 5.55116 77.8307
10657099 11.7326 12.7638 29.0782 24.1799 -1.24335 5.54855 77.7546
10657110 11.6798 12.773 29.1175 24.2579 -1.20986 5.57432 77.8282
10657120 11.6798 12.773 29.1175 24.2579 -1.20986 5.57432 77.8282
10657130 11.6974 12.7546 29.1668 24.2579 -1.23647 5.58048 77.8767
10657140 11.7591 12.7822 29.0979 24.2287 -1.2348 5.54501 77.8678
10657150 11.7591 12.7822 29.0979 24.2287 -1.2348 5.54501 77.8678
10657162 11.7415 12.7546 29.1175 24.1799 -1.26118 5.55344 77.7935
10657170 11.7415 12.7546 29.029 24.1799 -1.23411 5.54266 77.705
10657180 11.7062 12.7178 29.029 24.1605 -1.24235 5.55937 77.6134
10657191 11.7326 12.8099 29.0979 24.2189 -1.2207 5.54351 77.8593
10657200 11.7326 12.8099 29.0979 24.2189 -1.2207 5.54351 77.8593
10657211 11.7062 12.8375 29.0979 24.2092 -1.20661 5.54201 77.8507
10657220 11.7326 12.7914 29.0486 24.1799 -1.22501 5.53765 77.7527
10657231 11.7326 12.7914 29.0486 24.1799 -1.22501 5.53765 77.7527
10657245 11.8119 12.8283 29.0486 24.2384 -1.21712 5.51415 77.9272
10657252 11.8119 12.8283 29.0486 24.2384 -1.21712 5.51415 77.9272
10657263 11.6798 12.8006 29.1372 24.2676 -1.20329 5.57058 77.8853
10657274 11.7591 12.727 29.1274 24.1897 -1.27559 5.55846 77.8031
10657281 11.7591 12.727 29.1274 24.1897 -1.27559 5.55846 77.8031
10657292 11.671 12.7638 29.0683 24.1605 -1.22807 5.56129 77.6636
10657310 11.6974 12.7178 29.0486 24.1702 -1.24239 5.56528 77.634
10657324 11.7591 12.8651 29.029 24.1117 -1.22522 5.50053 77.7649
10657331 11.7591 12.8651 29.029 24.1117 -1.22522 5.50053 77.7649
10657341 11.7238 12.8006 29.0979 24.1702 -1.23754 5.54235 77.7925
10657351 11.7238 12.7546 29.0585 24.1605 -1.24433 5.54855 77.6974
10657364 11.7238 12.7546 29.0585 24.1605 -1.24433 5.54855 77.6974
10657371 11.7679 12.727 29.1077 24.1215 -1.29532 5.54545 77.724
10657381 11.7415 12.7454 29.1668 24.1799 -1.27929 5.56184 77.8336
10657391 11.7415 12.7454 29.1668 24.1799 -1.27929 5.56184 77.8336
10657403 11.7591 12.7822 29.1372 24.1702 -1.26652 5.5427 77.8487
10657422 11.6974 12.7914 29.1372 24.2384 -1.22161 5.56482 77.8645
10657431 11.7503 12.7914 29.1372 24.1702 -1.26073 5.54259 77.8491
10657444 11.7503 12.7914 29.1372 24.1702 -1.26073 5.54259 77.8491
10657451 11.7679 12.7638 29.088 24.2092 -1.24726 5.54399 77.8289
10657465 11.7238 12.727 29.1569 24.1994 -1.27056 5.57253 77.8072
10657474 11.7238 12.727 29.1569 24.1994 -1.27056 5.57253 77.8072
10657482 11.7679 12.7178 29.1175 24.1507 -1.29156 5.55264 77.7539
10657493 11.7679 12.7178 29.1175 24.1507 -1.29156 5.55264 77.7539
10657503 11.7238 12.6625 29.1963 24.2481 -1.28788 5.60024 77.8308
10657513 11.7238 12.6994 29.1569 24.3163 -1.24045 5.59398 77.8964
10657524 11.7238 12.6994 29.1569 24.3163 -1.24045 5.59398 77.8964
10657534 11.6886 12.6717 29.1865 24.2092 -1.2842 5.60124 77.7559
10657543 11.671 12.6533 29.2455 24.2384 -1.29318 5.62144 77.8082
10657555 11.671 12.6533 29.2455 24.2384 -1.29318 5.62144 77.8082
10657563 11.6974 12.6533 29.1766 24.3358 -1.24735 5.61788 77.8631
10657577 11.6974 12.6533 29.1766 24.3358 -1.24735 5.61788 77.8631
10657584 11.6886 12.5796 29.1963 24.2579 -1.30187 5.63273 77.7224
10657593 11.6534 12.5704 29.216 24.2676 -1.29695 5.64808 77.7074
10657603 11.6534 12.5704 29.216 24.2676 -1.29695 5.64808 77.7074
10657614 11.7238 12.5704 29.1963 24.3066 -1.29925 5.63169 77.7971
10657622 11.6886 12.5796 29.2554 24.3163 -1.3001 5.64687 77.8399
10657633 11.6886 12.5796 29.2554 24.3163 -1.3001 5.64687 77.8399
10657643 11.7062 12.4875 29.2061 24.3553 -1.30844 5.66541 77.7552
10657653 11.7062 12.4875 29.2061 24.3553 -1.30844 5.66541 77.7552
10657666 11.6534 12.5336 29.3144 24.4138 -1.29001 5.68719 77.9151
10657673 11.6974 12.4783 29.2849 24.365 -1.32955 5.68081 77.8257
10657682 11.6974 12.4783 29.2849 24.365 -1.32955 5.68081 77.8257
10657694 11.6886 12.4415 29.2652 24.4235 -1.31357 5.69758 77.8188
10657703 11.6886 12.4415 29.2652 24.4235 -1.31357 5.69758 77.8188
10657723 11.6269 12.4231 29.2849 24.4722 -1.29055 5.72706 77.8071
10657724 11.6181 12.4507 29.2849 24.5404 -1.25553 5.73017 77.8941
10657744 11.6093 12.3862 29.3439 24.4819 -1.31233 5.74976 77.8215
10657757 11.6269 12.4783 29.2947 24.4722 -1.27489 5.71353 77.8722
10657764 11.6269 12.4783 29.2947 24.4722 -1.27489 5.71353 77.8722
10657779 11.6622 12.4507 29.2652 24.4722 -1.28595 5.70798 77.8503
10657784 11.6358 12.4139 29.3243 24.4625 -1.31162 5.7307 77.8363
10657795 11.6358 12.4139 29.3243 24.4625 -1.31162 5.7307 77.8363
10657804 11.6798 12.4047 29.3439 24.5014 -1.32095 5.72841 77.9298
10657815 11.6798 12.4047 29.3439 24.5014 -1.32095 5.72841 77.9298
10657826 11.671 12.3954 29.3144 24.5014 -1.3124 5.72969 77.8823
10657835 11.6446 12.4783 29.2652 24.5307 -1.25155 5.71229 77.9187
10657855 11.6886 12.4507 29.2554 24.5112 -1.27785 5.70443 77.9058
10657866 11.6974 12.4231 29.1865 24.4722 -1.28202 5.69655 77.7791
10657875 11.6974 12.4231 29.1865 24.4722 -1.28202 5.69655 77.7791
10657890 11.6622 12.4691 29.1569 24.4527 -1.25328 5.6878 77.7409
10657896 11.6622 12.4691 29.1569 24.4527 -1.25328 5.6878 77.7409
10657906 11.6622 12.4507 29.1471 24.443 -1.25979 5.69036 77.7029
10657917 11.6974 12.4783 29.1471 24.4819 -1.24806 5.67831 77.8048
10657926 11.6974 12.4783 29.1471 24.4819 -1.24806 5.67831 77.8048
10657936 11.671 12.4783 29.1175 24.443 -1.24412 5.67712 77.7098
10657946 11.7326 12.4967 29.1077 24.4332 -1.25702 5.65348 77.7703
10657956 11.7326 12.4967 29.1077 24.4332 -1.25702 5.65348 77.7703
10657966 11.7326 12.552 29.1077 24.4625 -1.22853 5.64233 77.8548
10657976 11.7326 12.552 29.1077 24.4625 -1.22853 5.64233 77.8548
10657986 11.6798 12.5428 29.1274 24.4917 -1.21166 5.66467 77.8417
10657996 11.6798 12.5796 29.0585 24.5112 -1.17163 5.64896 77.8291
10658008 11.6798 12.5796 29.0585 24.5112 -1.17163 5.64896 77.8291
10658018 11.671 12.6165 29.0388 24.5209 -1.14725 5.64033 77.8472
10658028 11.7415 12.6441 29.0486 24.4527 -1.18546 5.60732 77.8869
10658038 11.7415 12.6441 29.0486 24.4527 -1.18546 5.60732 77.8869
10658051 11.7238 12.6625 28.9797 24.4722 -1.14624 5.60115 77.8383
10658068 11.7062 12.6809 28.9699 24.4235 -1.148 5.59386 77.7805
10658078 11.7415 12.7362 28.9699 24.404 -1.14678 5.56757 77.8515
10658088 11.7415 12.7362 28.9699 24.404 -1.14678 5.56757 77.8515
10658098 11.7326 12.7454 28.8911 24.4332 -1.10702 5.56146 77.8024
10658109 11.715 12.7086 28.901 24.4332 -1.117 5.57705 77.7578
10658119 11.715 12.7086 28.901 24.4332 -1.117 5.57705 77.7578
10658129 11.8031 12.8006 28.8616 24.365 -1.12393 5.5164 77.8304
10658141 11.8031 12.8006 28.8616 24.365 -1.12393 5.5164 77.8304
10658149 11.7326 12.7546 28.8911 24.3845 -1.12028 5.55311 77.7629
10658161 11.7503 12.8743 28.8518 24.3261 -1.09303 5.50496 77.8024
10658169 11.7503 12.8743 28.8518 24.3261 -1.09303 5.50496 77.8024
10658181 11.7062 12.7914 28.8124 24.3066 -1.10175 5.53129 77.6166
10658189 11.7326 12.8006 28.7927 24.2579 -1.11712 5.51351 77.5839
10658203 11.7326 12.8006 28.7927 24.2579 -1.11712 5.51351 77.5839
10658210 11.7679 12.8467 28.7533 24.3261 -1.07744 5.49557 77.694
10658220 11.7679 12.8467 28.7533 24.3261 -1.07744 5.49557 77.694
10658230 11.7679 12.8559 28.7829 24.3261 -1.08344 5.49675 77.7327
10658240 11.7943 12.9296 28.8025 24.365 -1.05988 5.47757 77.8915
10658250 11.7943 12.9296 28.8025 24.365 -1.05988 5.47757 77.8915
10658260 11.8295 12.9112 28.8025 24.3358 -1.08666 5.46957 77.8791
10658270 11.7591 12.8835 28.8222 24.3748 -1.06726 5.50255 77.8396
10658280 11.7591 12.8835 28.8222 24.3748 -1.06726 5.50255 77.8396
10658290 11.7943 12.8835 28.8715 24.4235 -1.07689 5.50521 77.9728
10658310 11.7855 12.9388 28.7336 24.3358 -1.04267 5.46545 77.7937
10658320 11.7855 12.9204 28.7336 24.2579 -1.07497 5.46074 77.6974
10658333 11.7855 12.9204 28.7336 24.2579 -1.07497 5.46074 77.6974
10658341 11.8119 12.9572 28.773 24.2092 -1.0992 5.44294 77.7513
10658351 11.8383 12.9664 28.7336 24.2287 -1.08559 5.43113 77.7671
10658360 11.8383 12.9664 28.7336 24.2287 -1.08559 5.43113 77.7671
10658370 11.9176 12.9848 28.7041 24.2676 -1.08164 5.40666 77.8742
10658380 11.9176 12.9848 28.7041 24.2676 -1.08164 5.40666 77.8742
10658390 11.8207 12.9296 28.7435 24.2579 -1.08575 5.45025 77.7517
10658400 11.8912 12.9388 28.7041 24.2774 -1.08569 5.42687 77.8114
10658420 11.8383 13.0585 28.6549 24.1507 -1.0566 5.38762 77.7025
10658432 11.856 12.9664 28.7041 24.1507 -1.10809 5.41326 77.6772
10658454 11.8912 13.0217 28.6943 24.1507 -1.09734 5.38829 77.7578
10658461 11.8912 13.0217 28.6943 24.1507 -1.09734 5.38829 77.7578
10658473 11.944 13.0125 28.7041 24.1799 -1.10988 5.38168 77.8406
10658481 11.9088 13.0493 28.7041 24.141 -1.09978 5.37645 77.8032
10658501 11.9264 13.123 28.6057 24.0923 -1.06655 5.33431 77.7473
10658513 11.9705 13.0769 28.6155 24.0825 -1.10185 5.33484 77.7454
10658523 11.9705 13.0769 28.6155 24.0825 -1.10185 5.33484 77.7454
10658537 11.9528 13.0769 28.6647 24.0241 -1.1312 5.3383 77.7186
10658541 11.9528 13.0769 28.6647 24.0241 -1.1312 5.3383 77.7186
10658553 11.9352 13.0953 28.6746 24.0825 -1.10299 5.34658 77.7877
10658563 11.9705 13.1138 28.6647 24.0241 -1.12423 5.32407 77.773
10658583 11.9969 13.1322 28.6155 24.063 -1.09796 5.31108 77.8076
10658593 11.944 13.123 28.6746 24.1117 -1.08663 5.34068 77.8533
10658603 11.944 13.123 28.6746 24.1117 -1.08663 5.34068 77.8533
10658612 12.0145 13.1598 28.6549 24.0923 -1.0964 5.30781 77.9215
10658623 12.0145 13.1598 28.6549 24.0923 -1.0964 5.30781 77.9215
10658634 12.0057 13.1414 28.5958 24.0825 -1.085 5.30635 77.8254
10658644 12.0057 13.1046 28.6057 24.0728 -1.10364 5.31598 77.7887
10658667 12.0145 13.1046 28.5761 23.9851 -1.12673 5.29906 77.6803
10658674 12.0321 13.0953 28.5466 24.0533 -1.10325 5.30169 77.7274
10658684 12.0321 13.0953 28.5466 24.0533 -1.10325 5.30169 77.7274
10658694 12.0321 13.1782 28.5171 23.9754 -1.09251 5.26662 77.7028
10658704 12.0321 13.1782 28.5171 23.9754 -1.09251 5.26662 77.7028
10658714 11.9617 13.1138 28.5565 23.9559 -1.11115 5.30437 77.5877
10658724 12.0145 13.169 28.5565 23.9364 -1.11538 5.27368 77.6764
10658737 12.0145 13.169 28.5565 23.9364 -1.11538 5.27368 77.6764
10658746 12.0321 13.169 28.586 24.0046 -1.10697 5.2813 77.7917
10658758 12.0497 13.1966 28.5958 23.9559 -1.12247 5.26465 77.7981
10658765 12.0497 13.1966 28.5958 23.9559 -1.12247 5.26465 77.7981
10658779 11.9969 13.1414 28.6647 23.9948 -1.13287 5.30631 77.7979
10658785 11.9969 13.1414 28.6647 23.9948 -1.13287 5.30631 77.7979
10658795 11.9793 13.1874 28.5368 24.0143 -1.06613 5.28535 77.7178
10658805 12.0497 13.169 28.6254 24.0436 -1.11139 5.28649 77.8877
10658815 12.0497 13.169 28.6254 24.0436 -1.11139 5.28649 77.8877
10658825 11.9793 13.2427 28.5958 24.0436 -1.056 5.28197 77.8613
10658836 11.9528 13.1322 28.5466 23.9851 -1.08939 5.30427 77.6167
10658849 11.9528 13.1322 28.5466 23.9851 -1.08939 5.30427 77.6167
10658855 12.0233 13.1782 28.586 23.9948 -1.10444 5.27998 77.7824
10658865 12.0233 13.1782 28.586 23.9948 -1.10444 5.27998 77.7824
10658875 11.9793 13.123 28.5958 24.0241 -1.10267 5.31078 77.7221
10658885 11.9705 13.1414 28.6057 24.0338 -1.09353 5.31071 77.7513
10658896 11.9705 13.1414 28.6057 24.0338 -1.09353 5.31071 77.7513
10658905 12.0057 13.1598 28.6451 24.063 -1.10047 5.30525 77.8736
10658918 12.0145 13.1138 28.6451 24.0923 -1.10881 5.3186 77.8656
10658925 12.0145 13.1138 28.6451 24.0923 -1.10881 5.3186 77.8656
10658940 12.0497 13.1322 28.6746 24.0046 -1.15191 5.29737 77.8611
10658945 12.0497 13.1322 28.6746 24.0046 -1.15191 5.29737 77.8611
10658956 11.944 13.123 28.6254 24.0825 -1.0813 5.33094 77.7749
10658966 11.9969 13.1598 28.5958 23.9754 -1.11207 5.29047 77.7279
10658976 11.9969 13.1598 28.5958 23.9754 -1.11207 5.29047 77.7279
10658986 11.9528 13.1598 28.6057 23.9754 -1.10156 5.30321 77.6937
10658996 11.9705 13.1506 28.6352 23.9266 -1.13552 5.29861 77.6829
10659016 11.9969 13.1414 28.5663 23.9364 -1.12229 5.28672 77.641
10659026 11.9969 13.1414 28.5663 23.9364 -1.12229 5.28672 77.641
10659036 11.9793 13.1046 28.6451 23.9754 -1.14036 5.31565 77.7042
10659047 11.9881 13.1046 28.6746 23.9754 -1.15212 5.31703 77.7426
10659056 11.9881 13.1046 28.6746 23.9754 -1.15212 5.31703 77.7426
10659067 12.0145 13.1322 28.6746 23.8779 -1.18372 5.29076 77.6992
10659076 12.0145 13.1138 28.6549 23.8974 -1.17733 5.29554 77.6806
10659087 12.0145 13.1138 28.6549 23.8974 -1.17733 5.29554 77.6806
10659098 12.1026 13.1782 28.6057 23.9072 -1.16426 5.25082 77.7937
10659108 12.1026 13.1782 28.6057 23.9072 -1.16426 5.25082 77.7937
10659118 12.0497 13.1414 28.6549 23.8487 -1.19524 5.27304 77.6947
10659130 12.085 13.1598 28.6451 23.9169 -1.17384 5.26635 77.8067
10659139 12.085 13.1598 28.6451 23.9169 -1.17384 5.26635 77.8067
10659160 12.1026 13.2335 28.5663 23.7903 -1.17294 5.21681 77.6926
10659164 12.1026 13.2059 28.6057 23.7513 -1.20746 5.22405 77.6654
10659175 12.1026 13.2059 28.6057 23.7513 -1.20746 5.22405 77.6654
10659186 12.1114 13.2427 28.5958 23.7318 -1.20129 5.20847 77.6817
10659194 12.1202 13.1782 28.6254 23.6928 -1.24796 5.22177 77.6166
10659201 12.1202 13.1782 28.6254 23.6928 -1.24796 5.22177 77.6166
10659209 12.1554 13.2427 28.5761 23.7415 -1.20547 5.19577 77.7158
10659220 12.1554 13.2427 28.5761 23.7415 -1.20547 5.19577 77.7158
10659233 12.1026 13.2335 28.6057 23.6928 -1.21787 5.20949 77.6346
10659240 12.1554 13.2427 28.6057 23.7513 -1.21122 5.20072 77.7551
10659252 12.1554 13.2427 28.6057 23.7513 -1.21122 5.20072 77.7551
10659260 12.1731 13.2427 28.5761 23.7123 -1.22072 5.1875 77.7042
10659272 12.1378 13.2151 28.586 23.6734 -1.23544 5.20017 77.6122
10659292 12.1819 13.2059 28.5269 23.6344 -1.24713 5.17871 77.549
10659301 12.1819 13.2059 28.5269 23.6344 -1.24713 5.17871 77.549
10659311 12.1554 13.2427 28.5269 23.6734 -1.2134 5.18093 77.5984
10659321 12.2171 13.2151 28.6647 23.6246 -1.3002 5.18336 77.7215
10659342 12.2259 13.2335 28.586 23.6441 -1.26603 5.16879 77.6895
10659354 12.2083 13.2335 28.586 23.6441 -1.26065 5.17337 77.6719
10659363 12.2083 13.2335 28.586 23.6441 -1.26065 5.17337 77.6719
10659371 12.2347 13.2427 28.6647 23.6149 -1.29952 5.17038 77.757
10659381 12.2347 13.2427 28.6647 23.6149 -1.29952 5.17038 77.757
10659391 12.1819 13.2795 28.6155 23.6344 -1.24933 5.17078 77.7113
10659402 12.2083 13.2427 28.6352 23.6539 -1.26928 5.17843 77.7401
10659422 12.2788 13.2887 28.7041 23.6052 -1.31264 5.15079 77.8768
10659434 12.2171 13.2427 28.6549 23.5564 -1.31093 5.16631 77.6711
10659444 12.2171 13.2427 28.6549 23.5564 -1.31093 5.16631 77.6711
10659453 12.3052 13.3072 28.6254 23.6246 -1.28392 5.13169 77.8623
10659463 12.3052 13.3072 28.6254 23.6246 -1.28392 5.13169 77.8623
10659473 12.2083 13.2243 28.6254 23.5662 -1.30217 5.17088 77.6241
10659484 12.2876 13.2611 28.6155 23.5662 -1.31087 5.1395 77.7304
10659493 12.2876 13.2611 28.6155 23.5662 -1.31087 5.1395 77.7304
10659503 12.2876 13.2795 28.6155 23.5077 -1.32443 5.12731 77.6903
10659513 12.2699 13.2519 28.586 23.5175 -1.31612 5.13653 77.6253
10659523 12.2699 13.2519 28.586 23.5175 -1.31612 5.13653 77.6253
10659536 12.3228 13.2703 28.6647 23.5564 -1.33677 5.133 77.8143
10659543 12.3228 13.2703 28.6647 23.5564 -1.33677 5.133 77.8143
10659553 12.2788 13.2703 28.6943 23.5467 -1.33565 5.14691 77.79
10659563 12.3316 13.3164 28.6254 23.4883 -1.33497 5.10515 77.7616
10659573 12.3316 13.3164 28.6254 23.4883 -1.33497 5.10515 77.7616
10659585 12.3052 13.3072 28.6057 23.4785 -1.32734 5.11062 77.6965
10659594 12.2876 13.3348 28.586 23.4493 -1.31651 5.1018 77.6576
10659608 12.2876 13.3348 28.586 23.4493 -1.31651 5.1018 77.6576
10659614 12.2788 13.3808 28.6352 23.4785 -1.30335 5.10216 77.7733
10659624 12.2788 13.3808 28.6352 23.4785 -1.30335 5.10216 77.7733
10659634 12.2876 13.2795 28.586 23.4883 -1.32203 5.12108 77.6413
10659644 12.2964 13.3164 28.5958 23.4688 -1.32184 5.10803 77.6773
10659654 12.2964 13.3164 28.5958 23.4688 -1.32184 5.10803 77.6773
10659664 12.2876 13.344 28.5761 23.4201 -1.3203 5.09444 77.6278
10659677 12.2788 13.3624 28.5466 23.4395 -1.29575 5.09067 77.6273
10659694 12.358 13.3532 28.5368 23.4103 -1.32996 5.06756 77.6583
10659704 12.358 13.3532 28.5368 23.4103 -1.32996 5.06756 77.6583
10659714 12.3316 13.3164 28.5761 23.4883 -1.31997 5.09889 77.7124
10659725 12.3404 13.3624 28.5958 23.4883 -1.31307 5.08722 77.7869
10659734 12.3404 13.3624 28.5958 23.4883 -1.31307 5.08722 77.7869
10659747 12.3845 13.4177 28.5171 23.3616 -1.32667 5.03533 77.6808
10659754 12.3845 13.4177 28.5171 23.3616 -1.32667 5.03533 77.6808
10659770 12.314 13.3532 28.6352 23.4785 -1.32342 5.1002 77.7809
10659779 12.3404 13.39 28.5761 23.4298 -1.31751 5.07012 77.7364
10659788 12.3404 13.39 28.5761 23.4298 -1.31751 5.07012 77.7364
10659806 12.3492 13.344 28.5171 23.3811 -1.33431 5.06595 77.5914
10659816 12.3845 13.4361 28.4777 23.3226 -1.32163 5.02052 77.6209
10659824 12.3668 13.39 28.5171 23.3324 -1.34058 5.04326 77.6063
10659838 12.3668 13.39 28.5171 23.3324 -1.34058 5.04326 77.6063
10659844 12.3492 13.3992 28.4777 23.3616 -1.31016 5.04413 77.5878
10659854 12.3756 13.39 28.5368 23.4298 -1.31625 5.05599 77.7323
10659864 12.3756 13.39 28.5368 23.4298 -1.31625 5.05599 77.7323
10659874 12.3668 13.4085 28.5466 23.3129 -1.34995 5.03979 77.6348
10659884 12.3756 13.4177 28.5368 23.3421 -1.33659 5.03763 77.6722
10659897 12.3756 13.4177 28.5368 23.3421 -1.33659 5.03763 77.6722
10659906 12.3845 13.4821 28.5368 23.3616 -1.31084 5.02125 77.765
10659914 12.3845 13.4821 28.5368 23.3616 -1.31084 5.02125 77.765
10659927 12.3756 13.39 28.5466 23.3713 -1.33905 5.04976 77.6836
10659934 12.3668 13.4913 28.5171 23.3324 -1.30625 5.01713 77.7076
10659944 12.3668 13.4913 28.5171 23.3324 -1.30625 5.01713 77.7076
10659954 12.3756 13.5005 28.4679 23.2837 -1.3073 4.99989 77.6277
10659964 12.3668 13.4545 28.4482 23.2544 -1.32413 5.00773 77.524
10659976 12.3668 13.4545 28.4482 23.2544 -1.32413 5.00773 77.524
10659984 12.3845 13.4269 28.458 23.3324 -1.31544 5.02162 77.6017
10659995 12.3845 13.4269 28.458 23.3324 -1.31544 5.02162 77.6017
10660006 12.3845 13.4545 28.5269 23.3324 -1.32709 5.02335 77.6983
10660015 12.3756 13.4913 28.4482 23.4103 -1.26155 5.01602 77.7255
10660025 12.3756 13.4913 28.4482 23.4103 -1.26155 5.01602 77.7255
10660035 12.3668 13.4637 28.5072 23.2837 -1.32911 5.01673 77.6215
10660045 12.3668 13.4177 28.5072 23.3324 -1.32821 5.03486 77.6241
10660055 12.3668 13.4177 28.5072 23.3324 -1.32821 5.03486 77.6241
10660065 12.4109 13.5005 28.5269 23.4201 -1.28991 5.01594 77.8584
10660075 12.4109 13.5005 28.5269 23.4201 -1.28991 5.01594 77.8584
10660085 12.3845 13.4545 28.4777 23.3421 -1.30879 5.01828 77.6588
10660096 12.4021 13.4913 28.4777 23.3324 -1.30498 5.003 77.7035
10660108 12.4021 13.4913 28.4777 23.3324 -1.30498 5.003 77.7035
10660128 12.3492 13.4729 28.4679 23.3129 -1.29869 5.01759 77.6029
10660149 12.4109 13.4545 28.4679 23.3421 -1.31384 5.0102 77.6754
10660156 12.4109 13.4545 28.4679 23.3421 -1.31384 5.0102 77.6754
10660171 12.3228 13.4269 28.5171 23.3811 -1.29814 5.05136 77.6478
10660176 12.3052 13.4913 28.5368 23.3324 -1.29344 5.03555 77.6657
10660188 12.3052 13.4913 28.5368 23.3324 -1.29344 5.03555 77.6657
10660198 12.3316 13.4821 28.5368 23.3421 -1.30132 5.03236 77.6926
10660208 12.3316 13.4637 28.5072 23.3908 -1.28206 5.03957 77.6934
10660219 12.3316 13.4637 28.5072 23.3908 -1.28206 5.03957 77.6934
10660228 12.358 13.4637 28.5368 23.4103 -1.29254 5.03904 77.7688
10660243 12.358 13.4637 28.5368 23.4103 -1.29254 5.03904 77.7688
10660248 12.3492 13.3992 28.5171 23.3616 -1.32217 5.04918 77.6272
10660258 12.3492 13.5098 28.5171 23.3713 -1.28146 5.02193 77.7474
10660268 12.3492 13.5098 28.5171 23.3713 -1.28146 5.02193 77.7474
10660278 12.3228 13.4637 28.5368 23.4103 -1.2818 5.04812 77.7336
10660290 12.3316 13.4269 28.5269 23.3908 -1.30054 5.0516 77.6762
10660308 12.3228 13.4269 28.5761 23.4201 -1.30297 5.06391 77.7459
10660319 12.3228 13.4269 28.5761 23.4201 -1.30297 5.06391 77.7459
10660328 12.314 13.3808 28.5466 23.4298 -1.30357 5.07555 77.6712
10660338 12.3404 13.4085 28.5761 23.4298 -1.31127 5.06536 77.7548
10660348 12.3404 13.4085 28.5761 23.4298 -1.31127 5.06536 77.7548
10660359 12.2788 13.39 28.5269 23.4298 -1.28368 5.07976 77.6255
10660368 12.3228 13.3164 28.5761 23.4883 -1.31729 5.10116 77.7036
10660391 12.3228 13.3164 28.5761 23.4883 -1.31729 5.10116 77.7036
10660393 12.2964 13.4269 28.5466 23.5077 -1.25627 5.07815 77.7776
10660399 12.2964 13.4269 28.5466 23.5077 -1.25627 5.07815 77.7776
10660407 12.2964 13.3532 28.5466 23.5077 -1.28116 5.09719 77.7039
10660427 12.2523 13.3256 28.5466 23.5077 -1.27706 5.11575 77.6322
10660450 12.2523 13.3256 28.5466 23.5077 -1.27706 5.11575 77.6322
10660450 12.314 13.3624 28.586 23.498 -1.29873 5.09403 77.7604
10660452 12.2347 13.2979 28.5958 23.5272 -1.28947 5.13621 77.6557
10660459 12.2347 13.2979 28.5958 23.5272 -1.28947 5.13621 77.6557
10660474 12.2788 13.3716 28.6352 23.5272 -1.29 5.11074 77.8128
10660479 12.2788 13.3716 28.6352 23.5272 -1.29 5.11074 77.8128
10660489 12.1995 13.2703 28.5663 23.5564 -1.26914 5.15248 77.5925
10660499 12.1995 13.3164 28.6057 23.6441 -1.23598 5.15664 77.7656
10660509 12.1995 13.3164 28.6057 23.6441 -1.23598 5.15664 77.7656
10660520 12.2435 13.3348 28.5761 23.5564 -1.2638 5.12559 77.7109
10660529 12.1907 13.3164 28.6254 23.6344 -1.24259 5.16018 77.7668
10660543 12.1907 13.3164 28.6254 23.6344 -1.24259 5.16018 77.7668
10660550 12.1995 13.3072 28.6647 23.6636 -1.25055 5.16896 77.835
10660560 12.1995 13.3072 28.6647 23.6636 -1.25055 5.16896 77.835
10660570 12.1907 13.2611 28.6254 23.6246 -1.26454 5.17328 77.7018
10660580 12.1466 13.3072 28.6746 23.6246 -1.25057 5.17898 77.753
10660590 12.1466 13.3072 28.6746 23.6246 -1.25057 5.17898 77.753
10660600 12.1642 13.39 28.5761 23.5954 -1.20775 5.13676 77.7258
10660612 12.1642 13.2887 28.5368 23.5467 -1.24637 5.15187 77.5365
10660636 12.1202 13.2335 28.5269 23.6539 -1.2123 5.19003 77.5345
10660641 12.1202 13.2335 28.5269 23.6539 -1.2123 5.19003 77.5345
10660650 12.0762 13.2611 28.5466 23.6539 -1.19548 5.1968 77.5378
10660661 12.1202 13.2335 28.5466 23.6928 -1.20517 5.19745 77.5931
10660670 12.1202 13.2335 28.5466 23.6928 -1.20517 5.19745 77.5931
10660681 12.129 13.2611 28.5466 23.7708 -1.17226 5.19781 77.7075
10660690 12.129 13.2611 28.586 23.7708 -1.18433 5.20278 77.7469
10660703 12.1202 13.2703 28.586 23.761 -1.18181 5.20144 77.7375
10660710 12.085 13.2795 28.5958 23.8097 -1.15454 5.21558 77.7701
10660720 12.085 13.2795 28.5958 23.8097 -1.15454 5.21558 77.7701
10660732 12.0938 13.2703 28.6254 23.7903 -1.17594 5.21695 77.7797
10660740 12.085 13.2611 28.6647 23.8779 -1.15892 5.23758 77.8888
10660751 12.085 13.2611 28.6647 23.8779 -1.15892 5.23758 77.8888
10660761 12.0762 13.2519 28.6451 23.8585 -1.15983 5.23735 77.8316
10660773 12.0762 13.2519 28.6451 23.8585 -1.15983 5.23735 77.8316
10660781 12.0409 13.2059 28.6549 23.839 -1.1741 5.2573 77.7406
10660797 12.0145 13.2795 28.6647 23.9656 -1.10174 5.26209 77.9244
10660803 12.0145 13.2795 28.6647 23.9656 -1.10174 5.26209 77.9244
10660811 11.9617 13.2703 28.5761 23.8487 -1.1006 5.25251 77.6568
10660821 11.9969 13.2335 28.586 23.8682 -1.1203 5.25661 77.6846
10660831 11.9969 13.2335 28.586 23.8682 -1.1203 5.25661 77.6846
10660843 12.0233 13.2151 28.6155 23.9169 -1.12731 5.26433 77.7708
10660851 12.0233 13.2151 28.6155 23.9169 -1.12731 5.26433 77.7708
10660866 11.9528 13.2151 28.6352 23.9266 -1.10844 5.28638 77.7298
10660872 11.9352 13.2243 28.6647 23.8877 -1.1221 5.2874 77.7119
10660881 11.9352 13.2243 28.6647 23.8877 -1.1221 5.2874 77.7119
10660891 11.9793 13.1598 28.6352 23.9656 -1.12203 5.29877 77.7399
10660901 11.9528 13.1966 28.6254 23.9656 -1.09851 5.29483 77.7405
10660913 11.9528 13.1966 28.6254 23.9656 -1.09851 5.29483 77.7405
10660921 11.9352 13.2243 28.6451 23.9559 -1.09315 5.29346 77.7604
10660936 11.9352 13.2243 28.6451 23.9559 -1.09315 5.29346 77.7604
10660943 11.9 13.1138 28.6254 23.9754 -1.10683 5.33154 77.6145
10660951 11.9264 13.1966 28.6647 23.9851 -1.09596 5.30907 77.7729
10660963 11.9264 13.1966 28.6647 23.9851 -1.09596 5.30907 77.7729
10660973 11.9 13.2151 28.7238 23.9559 -1.10961 5.31487 77.7947
10660983 11.8295 13.1506 28.6549 23.9851 -1.07856 5.34524 77.6201
10660995 11.8295 13.1506 28.6549 23.9851 -1.07856 5.34524 77.6201
10661005 11.9264 13.1782 28.7435 24.0825 -1.09365 5.33577 77.9307
10661024 11.8383 13.1322 28.7336 24.0436 -1.09208 5.36479 77.7477
10661032 11.9176 13.1414 28.8025 24.0533 -1.13119 5.35139 77.9148
10661044 11.9176 13.1414 28.8025 24.0533 -1.13119 5.35139 77.9148
10661053 11.8824 13.1414 28.6943 23.9851 -1.11005 5.3387 77.7031
10661071 11.8736 13.1138 28.6254 23.9754 -1.0987 5.33846 77.5881
10661082 11.8736 13.1138 28.6254 23.9754 -1.0987 5.33846 77.5881
10661089 11.8824 13.1322 28.7435 24.0436 -1.10863 5.35448 77.8016
10661095 11.8824 13.1322 28.7435 24.0436 -1.10863 5.35448 77.8016
10661104 11.9 13.1966 28.6746 23.9948 -1.08759 5.31841 77.7661
10661114 11.9176 13.1874 28.714 24.0241 -1.09839 5.32475 77.8431
10661124 11.9176 13.1874 28.714 24.0241 -1.09839 5.32475 77.8431
10661135 11.9 13.1138 28.7829 24.0533 -1.12903 5.36078 77.8499
10661145 11.9 13.123 28.773 24.0241 -1.13273 5.35353 77.8201
10661155 11.9 13.123 28.773 24.0241 -1.13273 5.35353 77.8201
10661165 11.856 13.1046 28.7632 24.0241 -1.12238 5.36866 77.7477
10661175 11.8824 13.1046 28.773 24.0241 -1.13352 5.36296 77.784
10661189 11.8824 13.0861 28.773 24.063 -1.12661 5.3726 77.8046
10661201 11.8471 13.0953 28.8124 24.1605 -1.09213 5.39631 77.9153
10661205 11.8471 13.0953 28.8124 24.1605 -1.09213 5.39631 77.9153
10661215 11.8648 13.0677 28.8124 24.0241 -1.15258 5.38209 77.7689
10661225 11.8031 13.0309 28.8222 24.0825 -1.12941 5.41637 77.7387
10661235 11.8031 13.0309 28.8222 24.0825 -1.12941 5.41637 77.7387
10661245 11.8119 13.0217 28.8813 24.1312 -1.13696 5.42974 77.8461
10661258 11.8119 13.0217 28.8813 24.1312 -1.13696 5.42974 77.8461
10661265 11.8119 12.948 28.8813 24.1215 -1.165 5.4479 77.7627
10661275 11.8207 13.0033 28.9699 24.1994 -1.15008 5.4515 77.9933
10661287 11.8207 13.0033 28.9699 24.1994 -1.15008 5.4515 77.9933
10661295 11.8031 13.0033 28.8616 24.2092 -1.10825 5.44404 77.8771
10661307 11.7943 12.9572 28.9108 24.1897 -1.14263 5.4621 77.852
10661316 11.7943 12.9572 28.9108 24.1897 -1.14263 5.4621 77.852
10661329 11.7238 13.0033 28.9207 24.1994 -1.10532 5.47091 77.8472
10661346 11.7415 12.9019 28.9502 24.2287 -1.14397 5.50012 77.8223
10661356 11.7679 12.8191 28.9502 24.2384 -1.17666 5.51619 77.7755
10661366 11.7679 12.8191 28.9502 24.2384 -1.17666 5.51619 77.7755
10661376 11.7062 12.8191 28.96 24.2092 -1.17062 5.53011 77.6945
10661387 11.6886 12.7822 28.9404 24.2092 -1.17159 5.54211 77.6204
10661423 11.7238 12.7914 29.0093 24.1799 -1.21026 5.53519 77.7045
10661425 11.715 12.7178 29.029 24.3261 -1.18918 5.57714 77.7878
10661428 11.715 12.7178 29.029 24.3261 -1.18918 5.57714 77.7878
10661438 11.6886 12.7178 29.0388 24.365 -1.17099 5.59004 77.8102
10661448 11.6886 12.7178 29.0388 24.365 -1.17099 5.59004 77.8102
10661457 11.6446 12.6625 29.1372 24.3358 -1.21608 5.6247 77.7801
10661469 11.6798 12.6809 29.1668 24.404 -1.20671 5.62225 77.9315
10661478 11.6798 12.6809 29.1668 24.404 -1.20671 5.62225 77.9315
10661492 11.6093 12.6165 29.1865 24.3748 -1.22274 5.65688 77.787
10661498 11.6446 12.6165 29.0979 24.4722 -1.17361 5.64859 77.8311
10661514 11.6446 12.6165 29.0979 24.4722 -1.17361 5.64859 77.8311
10661518 11.5741 12.5796 29.1865 24.5112 -1.17844 5.69237 77.8513
10661529 11.5741 12.5796 29.1865 24.5112 -1.17844 5.69237 77.8513
10661540 11.6005 12.506 29.1865 24.4332 -1.2376 5.69561 77.7262
10661549 11.6093 12.5152 29.1963 24.5404 -1.20408 5.70481 77.8612
10661560 11.6093 12.5152 29.1963 24.5404 -1.20408 5.70481 77.8612
10661570 11.5829 12.4599 29.2947 24.4722 -1.26768 5.73015 77.8098
10661584 11.5917 12.4231 29.3046 24.5794 -1.24965 5.75154 77.8987
10661589 11.5917 12.4231 29.3046 24.5794 -1.24965 5.75154 77.8987
10661599 11.5477 12.3862 29.3538 24.706 -1.221 5.79391 77.9937
10661609 11.5477 12.3862 29.3538 24.706 -1.221 5.79391 77.9937
10661620 11.4948 12.3954 29.2258 24.6183 -1.19216 5.78004 77.7344
10661631 11.4596 12.3402 29.2947 24.6476 -1.21124 5.81587 77.7421
10661655 11.5565 12.2665 29.3735 24.7352 -1.26014 5.82928 77.9317
10661661 11.442 12.2665 29.3341 24.8034 -1.19021 5.86331 77.846
10661677 11.442 12.2665 29.3341 24.8034 -1.19021 5.86331 77.846
10661680 11.4684 12.2573 29.403 24.8716 -1.1995 5.87477 78.0004
10661690 11.4684 12.2573 29.403 24.8716 -1.1995 5.87477 78.0004
10661700 11.3715 12.156 29.3735 24.9203 -1.17854 5.93018 77.8213
10661710 11.4332 12.1008 29.4424 24.9593 -1.22392 5.94101 77.9356
10661738 11.3979 12.0731 29.4818 25.047 -1.20499 5.97265 77.9998
10661745 11.3715 12.0639 29.4818 24.9691 -1.22624 5.97321 77.8862
10661751 11.3715 12.0639 29.4818 24.9691 -1.22624 5.97321 77.8862
10661762 11.3451 11.9995 29.4818 25.0373 -1.21691 6.0056 77.8635
10661773 11.3451 11.9995 29.4818 25.0373 -1.21691 6.0056 77.8635
10661781 11.3363 11.935 29.4719 25.1054 -1.20996 6.03211 77.8486
10661792 11.2658 11.9718 29.5802 25.1444 -1.19601 6.05812 77.9622
10661801 11.2658 11.9718 29.5802 25.1444 -1.19601 6.05812 77.9622
10661816 11.3627 11.9442 29.4719 25.2029 -1.18218 6.0337 77.9817
10661823 11.2658 11.9166 29.4818 25.2418 -1.15176 6.07294 77.906
10661833 11.2658 11.9166 29.4818 25.2418 -1.15176 6.07294 77.906
10661843 11.3098 12.0179 29.4818 25.1639 -1.15739 6.02474 77.9734
10661853 11.3098 12.0179 29.4818 25.1639 -1.15739 6.02474 77.9734
10661863 11.257 11.9442 29.3735 25.2126 -1.1164 6.05206 77.7873
10661875 11.301 11.9995 29.3932 25.3003 -1.08805 6.03757 77.9939
10661885 11.301 11.9995 29.3932 25.3003 -1.08805 6.03757 77.9939
10661893 11.2394 11.9626 29.3439 25.2613 -1.0794 6.05405 77.8073
10661903 11.2394 11.9626 29.4227 25.2418 -1.11011 6.06086 77.8665
10661915 11.2394 11.9626 29.4227 25.2418 -1.11011 6.06086 77.8665
10661923 11.2394 12.0087 29.4129 25.3198 -1.06558 6.05623 77.9807
10661933 11.2394 12.0087 29.4129 25.3198 -1.06558 6.05623 77.9807
10661943 11.2306 11.9534 29.4227 25.31 -1.08764 6.07355 77.9167
10661957 11.1953 11.8982 29.4129 25.3587 -1.07599 6.1025 77.8651
10661963 11.1953 11.8982 29.4129 25.3587 -1.07599 6.1025 77.8651
10661973 11.257 11.9166 29.4227 25.3393 -1.0983 6.07971 77.9355
10661984 11.2306 11.9074 29.4719 25.3587 -1.10185 6.09721 77.9686
10661994 11.2306 11.9074 29.4719 25.3587 -1.10185 6.09721 77.9686
10662005 11.2482 11.8889 29.403 25.3587 -1.09228 6.08955 77.8989
10662014 11.2482 11.8889 29.403 25.3587 -1.09228 6.08955 77.8989
10662028 11.2218 11.8061 29.4227 25.3977 -1.10493 6.12588 77.8482
10662034 11.2394 11.8613 29.4916 25.4269 -1.10317 6.11731 78.0192
10662054 11.1777 11.8153 29.4424 25.5146 -1.05523 6.15087 77.95
10662065 11.1513 11.8245 29.5605 25.4854 -1.09006 6.16562 78.0217
10662077 11.1513 11.8245 29.5605 25.4854 -1.09006 6.16562 78.0217
10662086 11.1865 11.7416 29.5605 25.5438 -1.10902 6.18516 78.0325
10662096 11.1073 11.7416 29.5211 25.4756 -1.09548 6.19455 77.8456
10662105 11.1073 11.7508 29.5211 25.4756 -1.0924 6.19204 77.8549
10662116 11.1249 11.7048 29.5802 25.5536 -1.10524 6.21525 77.9634
10662126 11.1249 11.7048 29.5802 25.5536 -1.10524 6.21525 77.9634
10662136 11.0368 11.7048 29.6294 25.4951 -1.11291 6.2382 77.8661
10662146 10.9663 11.6495 29.6786 25.5633 -1.10205 6.28572 77.8578
10662168 10.9927 11.6679 29.6885 25.5731 -1.10374 6.27566 77.9222
10662176 10.8959 11.6495 29.8263 25.6413 -1.09962 6.33014 78.0129
10662196 10.9487 11.6127 29.8657 25.7387 -1.10759 6.34094 78.1657
10662206 10.9487 11.6127 29.8657 25.7387 -1.10759 6.34094 78.1657
10662216 10.9047 11.5206 29.8558 25.651 -1.15129 6.36739 77.9321
10662226 10.8959 11.585 29.8361 25.6705 -1.11443 6.35212 77.9875
10662236 10.8959 11.585 29.8361 25.6705 -1.11443 6.35212 77.9875
10662246 10.9047 11.585 29.8558 25.6413 -1.13294 6.34865 77.9868
10662256 10.8694 11.585 29.7968 25.651 -1.10078 6.35282 77.9022
10662266 10.8694 11.585 29.7968 25.651 -1.10078 6.35282 77.9022
10662276 10.8959 11.6035 29.7574 25.7095 -1.07108 6.34266 77.9662
10662289 10.8959 11.6035 29.7574 25.7095 -1.07108 6.34266 77.9662
10662296 10.8782 11.5574 29.7574 25.6607 -1.0974 6.35469 77.8538
10662306 10.8959 11.6311 29.846 25.6705 -1.10203 6.34061 78.0434
10662316 10.8959 11.6311 29.846 25.6705 -1.10203 6.34061 78.0434
10662326 10.8694 11.5574 29.8657 25.69 -1.1181 6.37235 77.9825
10662339 10.8694 11.5574 29.8657 25.69 -1.1181 6.37235 77.9825
10662346 10.8606 11.493 29.8066 25.6997 -1.11564 6.387 77.8599
10662365 10.8959 11.5666 29.8164 25.7289 -1.095 6.36145 78.0079
10662368 10.8959 11.5666 29.8164 25.7289 -1.095 6.36145 78.0079
10662380 10.9311 11.5666 29.8558 25.6705 -1.1374 6.3497 78.024
10662387 10.9311 11.6035 29.8164 25.6315 -1.12607 6.33092 77.9825
10662400 10.9311 11.6035 29.8164 25.6315 -1.12607 6.33092 77.9825
10662407 10.9223 11.6035 29.7771 25.5926 -1.12437 6.32462 77.8954
10662418 10.9223 11.6035 29.7771 25.5926 -1.12437 6.32462 77.8954
10662428 10.9135 11.5482 29.7968 25.7192 -1.10378 6.35841 77.9776
10662438 10.8782 11.6127 29.8066 25.6705 -1.09073 6.3461 77.968
10662448 10.8782 11.6127 29.8066 25.6705 -1.09073 6.3461 77.968
10662458 10.8518 11.5758 29.7771 25.6413 -1.09568 6.35691 77.846
10662468 10.9399 11.6587 29.8263 25.651 -1.10676 6.31668 78.0759
10662478 10.9399 11.6587 29.8263 25.651 -1.10676 6.31668 78.0759
10662488 10.9047 11.6035 29.8066 25.6413 -1.1117 6.33814 77.956
10662499 10.9047 11.6035 29.8066 25.6413 -1.1117 6.33814 77.956
10662509 10.9575 11.5943 29.7574 25.6315 -1.11916 6.31964 77.9407
10662519 10.9487 11.6219 29.7672 25.612 -1.11675 6.31342 77.9499
10662529 10.9487 11.6219 29.7672 25.612 -1.11675 6.31342 77.9499
10662539 10.9047 11.5943 29.7771 25.6607 -1.0992 6.33954 77.9367
10662549 10.9839 11.6495 29.7475 25.6315 -1.10573 6.29622 78.0125
10662559 10.9839 11.6495 29.7475 25.6315 -1.10573 6.29622 78.0125
10662569 10.9399 11.7416 29.7279 25.6218 -1.05867 6.27983 78.0311
10662579 10.9399 11.7416 29.7279 25.6218 -1.05867 6.27983 78.0311
10662589 10.9487 11.6403 29.6589 25.6023 -1.08062 6.29521 77.8503
10662600 10.9751 11.6771 29.6885 25.6705 -1.06266 6.28884 78.0112
10662609 10.9751 11.6771 29.6885 25.6705 -1.06266 6.28884 78.0112
10662619 10.9839 11.7232 29.6983 25.5633 -1.08882 6.26299 77.9688
10662631 10.9487 11.7324 29.6589 25.6023 -1.0498 6.27005 77.9423
10662640 10.9487 11.7324 29.6589 25.6023 -1.0498 6.27005 77.9423
10662651 11.0016 11.7048 29.6786 25.612 -1.07805 6.26646 77.997
10662660 11.0016 11.7048 29.6786 25.612 -1.07805 6.26646 77.997
10662673 10.9839 11.76 29.5999 25.5926 -1.0365 6.24518 77.9364
10662680 11.028 11.7692 29.6097 25.6023 -1.04673 6.23288 78.0092
10662694 11.028 11.7692 29.6097 25.6023 -1.04673 6.23288 78.0092
10662701 11.0368 11.7692 29.531 25.5828 -1.03174 6.21943 77.9198
10662710 11.0456 11.7416 29.5408 25.6023 -1.0402 6.22786 77.9303
10662720 11.0456 11.7416 29.5408 25.6023 -1.0402 6.22786 77.9303
10662730 11.0632 11.7969 29.5605 25.612 -1.02996 6.21134 78.0326
10662740 11.0632 11.7969 29.5605 25.612 -1.02996 6.21134 78.0326
10662751 11.0632 11.7232 29.5507 25.5731 -1.06457 6.22589 77.9101
10662760 11.0544 11.76 29.5704 25.651 -1.02957 6.22925 78.0358
10662773 11.0544 11.76 29.5704 25.651 -1.02957 6.22925 78.0358
10662780 11.0896 11.8153 29.5605 25.5633 -1.04819 6.19366 78.0287
10662790 11.0808 11.8613 29.5014 25.4951 -1.03473 6.16916 77.9387
10662811 11.1161 11.7784 29.5113 25.4367 -1.09588 6.1766 77.8425
10662831 11.1777 11.8613 29.3636 25.4074 -1.05146 6.11721 77.8101
10662841 11.1601 11.8982 29.3538 25.349 -1.05025 6.10419 77.7611
10662851 11.1601 11.8982 29.3538 25.349 -1.05025 6.10419 77.7611
10662861 11.1601 11.9166 29.3341 25.31 -1.05107 6.09247 77.7208
10662871 11.2306 11.9534 29.2554 25.2711 -1.04924 6.04985 77.7104
10662881 11.2306 11.9534 29.2554 25.2711 -1.04924 6.04985 77.7104
10662891 11.2482 11.9718 29.2652 25.2905 -1.04499 6.04348 77.7758
10662902 11.2482 11.9718 29.2652 25.2905 -1.04499 6.04348 77.7758
10662913 11.2306 11.9995 29.2455 25.2516 -1.0373 6.03401 77.7271
10662921 11.3187 12.0731 29.2652 25.2808 -1.03606 5.99598 77.9378
10662933 11.3187 12.0731 29.2652 25.2808 -1.03606 5.99598 77.9378
10662942 11.3539 12.0915 29.216 25.2418 -1.03862 5.97133 77.9032
10662953 11.4244 12.1652 29.0979 25.1542 -1.02864 5.90862 77.8416
10662963 11.4244 12.1652 29.0979 25.1542 -1.02864 5.90862 77.8416
10662972 11.3803 12.2849 29.0979 25.1542 -0.975098 5.88831 77.9173
10662988 11.3803 12.2849 29.0979 25.1542 -0.975098 5.88831 77.9173
10662996 11.3979 12.2389 29.0388 25.086 -1.00045 5.88104 77.7616
10663005 11.4332 12.331 29.0486 25.0665 -0.990102 5.84577 77.8793
10663013 11.4332 12.331 29.0486 25.0665 -0.990102 5.84577 77.8793
10663023 11.4772 12.3126 28.9994 25.0567 -0.997908 5.83198 77.8459
10663033 11.442 12.2849 28.9797 25.0373 -0.996707 5.8442 77.7439
10663048 11.442 12.2849 28.9797 25.0373 -0.996707 5.8442 77.7439
10663055 11.5036 12.2941 29.0191 24.9885 -1.04107 5.82412 77.8054
10663063 11.5036 12.2941 29.0191 24.9885 -1.04107 5.82412 77.8054
10663072 11.4596 12.3034 29.0486 25.0373 -1.01723 5.84266 77.8488
10663083 11.4948 12.331 28.9699 25.047 -0.991338 5.81771 77.8427
10663093 11.4948 12.331 28.9699 25.047 -0.991338 5.81771 77.8427
10663106 11.5036 12.3494 28.9896 25.047 -0.993975 5.81275 77.8896
10663114 11.4596 12.331 28.9797 25.0567 -0.980251 5.82944 77.827
10663130 11.4596 12.331 28.9797 25.0567 -0.980251 5.82944 77.827
10663134 11.5212 12.3494 28.9797 25.0567 -0.993119 5.80804 77.9071
10663144 11.5212 12.3494 28.9797 25.0567 -0.993119 5.80804 77.9071
10663154 11.4684 12.3034 28.8911 25.0275 -0.974594 5.82058 77.6904
10663164 11.4684 12.3586 28.9797 25.047 -0.976998 5.81855 77.8537
10663179 11.4684 12.3586 28.9797 25.047 -0.976998 5.81855 77.8537
10663184 11.4596 12.2757 28.9896 25.0373 -1.00826 5.84311 77.7621
10663194 11.442 12.2481 28.9797 25.0665 -0.999251 5.85752 77.7363
10663214 11.4155 12.2757 28.9896 25.0957 -0.97513 5.86179 77.7766
10663225 11.4155 12.2757 28.9896 25.0957 -0.97513 5.86179 77.7766
10663234 11.5036 12.2389 28.9896 25.0665 -1.02439 5.84462 77.7986
10663249 11.5301 12.2389 29.0979 25.1054 -1.0528 5.85484 77.9723
10663254 11.5301 12.2389 29.0979 25.1054 -1.0528 5.85484 77.9723
10663264 11.5124 12.377 29.0093 25.0567 -0.990288 5.8065 77.9555
10663274 11.4244 12.2481 29.0191 25.0373 -1.01575 5.86344 77.7288
10663284 11.4244 12.2481 29.0191 25.0373 -1.01575 5.86344 77.7288
10663297 11.4772 12.2849 29.0683 25.047 -1.03162 5.84633 77.8775
10663315 11.5212 12.2757 29.0486 25.0178 -1.05197 5.83126 77.8634
10663326 11.5036 12.2941 29.0388 25.0762 -1.01782 5.83676 77.9128
10663335 11.5036 12.2941 29.0388 25.0762 -1.01782 5.83676 77.9128
10663345 11.5389 12.2573 29.0093 25.0665 -1.03514 5.83257 77.8719
10663355 11.4948 12.2389 29.029 25.0567 -1.03706 5.85046 77.8194
10663371 11.4948 12.2389 29.029 25.0567 -1.03706 5.85046 77.8194
10663375 11.5389 12.2849 29.0683 25.0178 -1.06036 5.8264 77.9099
10663385 11.5389 12.2849 29.0683 25.0178 -1.06036 5.8264 77.9099
10663395 11.5389 12.2665 29.0683 24.9983 -1.07304 5.82903 77.872
10663405 11.5124 12.3034 29.0585 25.008 -1.0463 5.82624 77.8823
10663418 11.5124 12.3034 29.0585 25.008 -1.0463 5.82624 77.8823
10663425 11.5477 12.2941 29.0486 24.9885 -1.06371 5.81582 77.879
10663435 11.5917 12.2757 29.0093 24.9203 -1.09416 5.79627 77.7971
10663445 11.5917 12.2757 29.0093 24.9203 -1.09416 5.79627 77.7971
10663456 11.5829 12.2849 29.0683 24.9593 -1.09344 5.80774 77.8955
10663465 11.5829 12.2849 29.0683 24.9593 -1.09344 5.80774 77.8955
10663476 11.5477 12.2849 29.029 24.9983 -1.05748 5.81711 77.8598
10663490 11.6093 12.331 29.029 24.9301 -1.08384 5.78029 77.8993
10663496 11.6093 12.331 29.029 24.9301 -1.08384 5.78029 77.8993
10663506 11.5917 12.4231 28.9896 24.8424 -1.06485 5.74536 77.8468
10663516 11.6093 12.3862 28.9502 24.9009 -1.05092 5.75275 77.8466
10663537 11.6446 12.3862 29.0093 24.8327 -1.10273 5.74228 77.8727
10663561 11.6181 12.4691 28.9502 24.8132 -1.05524 5.7179 77.8506
10663566 11.6534 12.4875 28.9108 24.745 -1.07063 5.69077 77.7967
10663587 11.6622 12.5612 28.8813 24.7645 -1.03308 5.66766 77.8692
10663598 11.6622 12.4967 28.8616 24.6865 -1.07471 5.67308 77.7071
10663610 11.6622 12.4967 28.8616 24.6865 -1.07471 5.67308 77.7071
10663618 11.6798 12.552 28.8813 24.6573 -1.07746 5.65256 77.7704
10663628 11.6798 12.552 28.8813 24.6573 -1.07746 5.65256 77.7704
10663648 11.6886 12.506 28.8321 24.6573 -1.08047 5.65654 77.6839
10663649 11.715 12.552 28.8321 24.5989 -1.09277 5.63024 77.698
10663658 11.715 12.552 28.8321 24.5989 -1.09277 5.63024 77.698
10663668 11.7679 12.5704 28.7927 24.5891 -1.094 5.60541 77.7201
10663683 11.715 12.5796 28.8222 24.6086 -1.0772 5.6229 77.7255
10663689 11.715 12.5796 28.8222 24.6086 -1.0772 5.6229 77.7255
10663698 11.7679 12.5981 28.8025 24.5794 -1.09103 5.5981 77.7478
10663719 11.7767 12.6717 28.8025 24.5501 -1.07883 5.57273 77.8011
10663730 11.8383 12.6717 28.8124 24.5696 -1.09427 5.55999 77.8921
10663739 11.8383 12.6717 28.8124 24.5696 -1.09427 5.55999 77.8921
10663749 11.7943 12.6717 28.773 24.5501 -1.07517 5.56449 77.7892
10663759 11.8471 12.7086 28.7927 24.5112 -1.09817 5.53846 77.8596
10663769 11.8471 12.7086 28.7927 24.5112 -1.09817 5.53846 77.8596
10663780 11.8471 12.6625 28.8025 24.4722 -1.12972 5.54708 77.7844
10663789 11.8471 12.6625 28.8025 24.4722 -1.12972 5.54708 77.7844
10663805 11.8207 12.7086 28.7632 24.5112 -1.08098 5.54185 77.8036
10663809 11.8295 12.7178 28.7927 24.5599 -1.07336 5.5466 77.8999
10663819 11.8295 12.7178 28.7927 24.5599 -1.07336 5.5466 77.8999
10663830 11.8912 12.7546 28.7829 24.4917 -1.09976 5.51116 77.9203
10663840 11.8736 12.727 28.7927 24.5014 -1.10337 5.52546 77.8947
10663854 11.8736 12.727 28.7927 24.5014 -1.10337 5.52546 77.8947
10663869 11.8119 12.7914 28.7533 24.4917 -1.05401 5.51874 77.8484
10663871 11.8119 12.7914 28.7533 24.4917 -1.05401 5.51874 77.8484
10663880 11.7767 12.727 28.7533 24.4819 -1.06802 5.54387 77.7389
10663890 11.8648 12.7362 28.7829 24.443 -1.11416 5.51704 77.8268
10663910 11.8383 12.7546 28.8025 24.4332 -1.10918 5.52036 77.8287
10663927 11.8471 12.7178 28.7336 24.5112 -1.07694 5.52885 77.8097
10663931 11.8471 12.7178 28.7336 24.5112 -1.07694 5.52885 77.8097
10663943 11.8031 12.7638 28.7829 24.3845 -1.10557 5.51889 77.7343
10663953 11.8031 12.7638 28.7829 24.3845 -1.10557 5.51889 77.7343
10663963 11.8207 12.7638 28.773 24.3358 -1.12433 5.50709 77.6934
10663977 11.8471 12.7546 28.7632 24.3845 -1.11615 5.5073 77.7495
10663991 11.8031 12.773 28.7927 24.365 -1.11205 5.51528 77.7339
10664005 11.856 12.7914 28.8025 24.3358 -1.13493 5.49412 77.7858
10664012 11.856 12.7914 28.8025 24.3358 -1.13493 5.49412 77.7858
10664025 11.8471 12.773 28.8321 24.404 -1.12457 5.51322 77.8563
10664032 11.8471 12.773 28.8321 24.404 -1.12457 5.51322 77.8563
10664045 11.8207 12.7822 28.8025 24.3943 -1.10758 5.51297 77.7998
10664052 11.9088 12.7178 28.8124 24.404 -1.15598 5.50914 77.843
10664070 11.9088 12.7178 28.8124 24.404 -1.15598 5.50914 77.843
10664073 11.8119 12.7178 28.7632 24.3553 -1.12753 5.52275 77.6482
10664085 11.8736 12.8099 28.8025 24.3358 -1.13414 5.48463 77.8218
10664093 11.8736 12.8099 28.8025 24.3358 -1.13414 5.48463 77.8218
10664102 11.8383 12.773 28.8518 24.3845 -1.13444 5.51557 77.8477
10664123 11.7855 12.6717 28.8419 24.3358 -1.16567 5.54915 77.6349
10664134 11.8031 12.7638 28.8321 24.365 -1.12723 5.52251 77.764
10664144 11.8031 12.7638 28.8321 24.365 -1.12723 5.52251 77.764
10664155 11.8648 12.7362 28.7927 24.3456 -1.14991 5.50636 77.7392
10664164 11.8383 12.727 28.8124 24.3748 -1.14111 5.52172 77.7525
10664177 11.8383 12.727 28.8124 24.3748 -1.14111 5.52172 77.7525
10664184 11.8912 12.773 28.8518 24.2871 -1.18338 5.48975 77.8031
10664199 11.8119 12.7638 28.9305 24.3553 -1.16339 5.53099 77.8615
10664214 11.856 12.6717 28.8321 24.3456 -1.18099 5.5305 77.7053
10664225 11.856 12.6717 28.8321 24.3456 -1.18099 5.5305 77.7053
10664238 11.8207 12.6717 28.9305 24.3943 -1.18394 5.5577 77.8172
10664246 11.8736 12.7086 28.9404 24.3066 -1.22023 5.52457 77.8291
10664268 11.8736 12.7086 28.9404 24.3066 -1.22023 5.52457 77.8291
10664285 11.8824 12.6349 28.9305 24.3358 -1.2349 5.54405 77.7836
10664292 11.8119 12.6257 28.8813 24.2676 -1.22441 5.55083 77.5865
10664295 11.8471 12.6901 28.9502 24.3358 -1.21153 5.54115 77.8233
10664316 11.8912 12.6533 28.9108 24.3456 -1.22208 5.53565 77.8009
10664326 11.8648 12.6901 28.9404 24.3358 -1.2139 5.53531 77.8311
10664340 11.8648 12.6901 28.9404 24.3358 -1.2139 5.53531 77.8311
10664346 11.8824 12.7178 28.9502 24.3163 -1.21955 5.5222 77.8667
10664356 11.8736 12.7546 28.9502 24.2871 -1.2143 5.51126 77.8655
10664366 11.8736 12.7546 28.9502 24.2871 -1.2143 5.51126 77.8655
10664376 11.8824 12.7638 28.9502 24.2968 -1.21061 5.5077 77.8932
10664389 11.8824 12.7638 28.9502 24.2968 -1.21061 5.5077 77.8932
10664396 11.9 12.6717 28.9896 24.2871 -1.26231 5.53093 77.8484
10664412 11.9 12.6533 28.9994 24.2774 -1.27481 5.53581 77.8301
10664416 11.9 12.6533 28.9994 24.2774 -1.27481 5.53581 77.8301
10664426 11.9176 12.6809 28.9797 24.2384 -1.27801 5.51673 77.8167
10664437 11.8295 12.6717 28.9404 24.1702 -1.26526 5.52931 77.6118
10664446 11.8295 12.6717 28.9404 24.1702 -1.26526 5.52931 77.6118
10664461 11.9088 12.6901 28.9207 24.2287 -1.25749 5.50823 77.7483
10664467 11.9088 12.6901 28.9207 24.2287 -1.25749 5.50823 77.7483
10664489 11.8295 12.6994 28.8911 24.2189 -1.22439 5.52194 77.6389
10664490 11.8912 12.6901 28.9305 24.2871 -1.23538 5.52121 77.799
10664498 11.8912 12.6901 28.9305 24.2871 -1.23538 5.52121 77.799
10664511 11.8648 12.6901 28.9207 24.2481 -1.23745 5.52223 77.7237
10664518 11.8471 12.6257 28.9207 24.2676 -1.24725 5.5463 77.6611
10664528 11.8471 12.6257 28.9207 24.2676 -1.24725 5.5463 77.6611
10664538 11.9 12.6625 29.0486 24.3845 -1.25058 5.55235 77.9957
10664548 11.9 12.6625 29.0486 24.3845 -1.25058 5.55235 77.9957
10664559 11.8207 12.6165 28.9994 24.3163 -1.2499 5.57121 77.7529
10664567 11.8383 12.6809 28.9896 24.3358 -1.22397 5.55069 77.8447
10664583 11.8383 12.6809 28.9896 24.3358 -1.22397 5.55069 77.8447
10664588 11.9 12.7086 28.901 24.3163 -1.21299 5.51399 77.8259
10664598 11.856 12.7086 28.9108 24.3163 -1.20254 5.52681 77.7917
10664608 11.856 12.6349 28.9108 24.2676 -1.24383 5.54034 77.6693
10664618 11.8471 12.6994 28.9305 24.3456 -1.19912 5.53752 77.8226
10664632 11.8471 12.6994 28.9305 24.3456 -1.19912 5.53752 77.8226
10664637 11.856 12.6441 28.8911 24.3358 -1.21167 5.54381 77.727
10664648 11.8383 12.6901 28.9108 24.3456 -1.19351 5.53988 77.7849
10664658 11.8383 12.6901 28.9108 24.3456 -1.19351 5.53988 77.7849
10664668 11.8648 12.7178 28.9404 24.3943 -1.18494 5.53513 77.9172
10664682 11.8648 12.7178 28.9404 24.3943 -1.18494 5.53513 77.9172
10664689 11.8383 12.6349 28.9207 24.365 -1.20857 5.55804 77.7589
10664698 11.8383 12.6533 28.9207 24.3845 -1.1958 5.55554 77.7968
10664709 11.8383 12.6533 28.9207 24.3845 -1.1958 5.55554 77.7968
10664719 11.856 12.6441 28.8715 24.3163 -1.21222 5.53904 77.6878
10664729 11.8471 12.6717 28.9502 24.4138 -1.19149 5.55548 77.8828
10664739 11.8471 12.6717 28.9502 24.4138 -1.19149 5.55548 77.8828
10664754 11.8648 12.6809 28.9404 24.3553 -1.21044 5.54011 77.8414
10664759 11.8648 12.6809 28.9404 24.3553 -1.21044 5.54011 77.8414
10664769 11.7767 12.6073 28.96 24.3358 -1.22093 5.5829 77.6798
10664779 11.8471 12.6625 28.9699 24.4235 -1.19733 5.56148 77.903
10664790 11.8471 12.6625 28.9699 24.4235 -1.19733 5.56148 77.903
10664802 11.8648 12.6441 29.0093 24.3845 -1.23404 5.56173 77.9027
10664809 11.8119 12.6257 29.0585 24.4527 -1.21618 5.59475 77.9488
10664819 11.8119 12.6257 29.0585 24.4527 -1.21618 5.59475 77.9488
10664830 11.8471 12.6441 28.9994 24.443 -1.20599 5.57227 77.9336
10664851 11.8031 12.5796 29.0782 24.4332 -1.24156 5.60928 77.8941
10664859 11.7679 12.5612 29.1175 24.4332 -1.24903 5.62822 77.8799
10664875 11.7679 12.5612 29.1175 24.4332 -1.24903 5.62822 77.8799
10664879 11.7503 12.5612 29.029 24.4527 -1.21003 5.62457 77.7931
10664890 11.7062 12.552 29.0388 24.4819 -1.19282 5.6434 77.779
10664919 11.7855 12.5336 29.088 24.5696 -1.20879 5.64372 77.9767
10664920 11.7855 12.5336 29.088 24.5696 -1.20879 5.64372 77.9767
10664930 11.7591 12.4783 29.0388 24.4722 -1.23711 5.64776 77.7484
10664940 11.7415 12.5244 29.1175 24.4819 -1.23697 5.65085 77.8653
10664950 11.7415 12.5244 29.1175 24.4819 -1.23697 5.65085 77.8653
10664960 11.7415 12.4875 29.0486 24.4625 -1.23491 5.65 77.7401
10664970 11.7503 12.4783 29.1274 24.5501 -1.2352 5.67008 77.9061
10664990 11.7326 12.4415 29.1274 24.5307 -1.2488 5.68221 77.8322
10665001 11.7326 12.4415 29.1274 24.5307 -1.2488 5.68221 77.8322
10665011 11.715 12.377 29.1471 24.5696 -1.25803 5.71105 77.8088
10665022 11.6974 12.3494 29.1963 24.667 -1.24414 5.74056 77.9102
10665030 11.6974 12.3494 29.1963 24.667 -1.24414 5.74056 77.9102
10665041 11.7062 12.3954 29.1274 24.6086 -1.22998 5.71079 77.8377
10665051 11.6534 12.377 29.1569 24.667 -1.20938 5.74025 77.8544
10665063 11.6534 12.377 29.1569 24.667 -1.20938 5.74025 77.8544
10665071 11.6534 12.3494 29.1963 24.6768 -1.22742 5.75345 77.8759
10665086 11.6534 12.3494 29.1963 24.6768 -1.22742 5.75345 77.8759
10665091 11.5477 12.2941 29.1668 24.6476 -1.21456 5.78947 77.6561
10665103 11.6358 12.2297 29.2258 24.6963 -1.26486 5.79592 77.7875
10665123 11.5829 12.2481 29.2258 24.6963 -1.2425 5.80513 77.7531
10665131 11.5653 12.2297 29.2652 24.784 -1.2258 5.82976 77.8441
10665142 11.5653 12.2297 29.2652 24.784 -1.2258 5.82976 77.8441
10665153 11.5829 12.1928 29.2357 24.7742 -1.23786 5.83028 77.7856
10665163 11.5829 12.1928 29.2357 24.7742 -1.23786 5.83028 77.7856
10665176 11.5829 12.1928 29.2357 24.8327 -1.21816 5.83716 77.8441
10665183 11.5565 12.1284 29.3341 24.9009 -1.23888 5.88107 77.9198
10665193 11.5565 12.1284 29.3341 24.9009 -1.23888 5.88107 77.9198
10665203 11.5653 12.1376 29.3144 24.8814 -1.23902 5.87165 77.8987
10665214 11.5389 12.1468 29.2947 24.9009 -1.21529 5.87624 77.8813
10665224 11.5389 12.1468 29.2947 24.9009 -1.21529 5.87624 77.8813
10665234 11.5565 12.1744 29.2357 24.8814 -1.19988 5.8549 77.8479
10665245 11.5565 12.1744 29.2357 24.8814 -1.19988 5.8549 77.8479
10665254 11.4772 12.156 29.2455 24.8619 -1.1914 5.87997 77.7406
10665266 11.4772 12.2021 29.2947 24.8229 -1.20408 5.86882 77.7969
10665274 11.4772 12.2021 29.2947 24.8229 -1.20408 5.86882 77.7969
10665284 11.4772 12.1836 29.1865 24.8132 -1.1804 5.85989 77.6605
10665294 11.5124 12.1652 29.1963 24.8619 -1.18401 5.86226 77.7358
10665304 11.5124 12.1652 29.1963 24.8619 -1.18401 5.86226 77.7358
10665315 11.4508 12.1376 29.2258 24.8424 -1.19005 5.88743 77.6566
10665325 11.4508 12.1376 29.2258 24.8424 -1.19005 5.88743 77.6566
10665335 11.442 12.1744 29.2455 24.9398 -1.14818 5.89362 77.8017
10665344 11.4948 12.156 29.3636 24.9009 -1.21978 5.89364 77.9153
10665357 11.4948 12.156 29.3636 24.9009 -1.21978 5.89364 77.9153
10665364 11.486 12.1376 29.2849 24.9398 -1.18611 5.89629 77.8483
10665374 11.486 12.156 29.3439 24.9885 -1.18161 5.90394 77.9745
10665384 11.486 12.156 29.3439 24.9885 -1.18161 5.90394 77.9745
10665394 11.5036 12.2021 29.3439 24.9788 -1.1748 5.88575 78.0284
10665404 11.5036 12.2021 29.3439 24.9788 -1.1748 5.88575 78.0284
10665414 11.4596 12.1836 29.2554 24.9398 -1.1535 5.88757 77.8384
10665427 11.486 12.1376 29.2652 24.9691 -1.17026 5.89741 77.8579
10665434 11.486 12.1376 29.2652 24.9691 -1.17026 5.89741 77.8579
10665444 11.5301 12.1284 29.2554 24.9301 -1.19693 5.88235 77.8439
10665454 11.4508 12.1468 29.3538 24.9691 -1.18348 5.91474 77.9204
10665464 11.4508 12.1468 29.3538 24.9691 -1.18348 5.91474 77.9204
10665474 11.4948 12.1744 29.3932 25.0567 -1.17027 5.91033 78.1191
10665484 11.4948 12.1744 29.3932 25.0567 -1.17027 5.91033 78.1191
10665496 11.442 12.11 29.3243 25.008 -1.17105 5.9281 77.8842
10665505 11.4244 12.0731 29.3932 25.0178 -1.19583 5.95188 77.9084
10665521 11.4244 12.0731 29.3932 25.0178 -1.19583 5.95188 77.9084
10665525 11.4772 12.0639 29.3735 25.0373 -1.20251 5.94013 77.9519
10665535 11.3275 12.0363 29.3932 25.0373 -1.17203 5.99016 77.7942
10665545 11.3275 12.0363 29.3932 25.0373 -1.17203 5.99016 77.7942
10665555 11.4508 12.0363 29.4129 25.1639 -1.17322 5.9739 78.0638
10665571 11.4508 12.0363 29.4129 25.1639 -1.17322 5.9739 78.0638
10665575 11.3891 11.8889 29.3932 25.1542 -1.20114 6.02681 77.8254
10665592 11.3715 11.9534 29.3636 25.1834 -1.15521 6.01412 77.8719
10665595 11.3715 11.9534 29.3636 25.1834 -1.15521 6.01412 77.8719
10665605 11.3187 11.8797 29.3243 25.2613 -1.1255 6.05276 77.784
10665616 11.3187 11.8797 29.3243 25.2613 -1.1255 6.05276 77.784
10665625 11.3098 11.9074 29.3735 25.2711 -1.12536 6.05445 77.8618
10665640 11.301 11.8705 29.3932 25.4269 -1.08882 6.08691 77.9917
10665645 11.301 11.8705 29.3932 25.4269 -1.08882 6.08691 77.9917
10665655 11.3363 11.8982 29.4424 25.4074 -1.11196 6.07333 78.0843
10665666 11.2658 11.8153 29.3833 25.4464 -1.08696 6.1125 77.9108
10665676 11.2658 11.8153 29.3833 25.4464 -1.08696 6.1125 77.9108
10665687 11.257 11.8337 29.3833 25.388 -1.09767 6.10322 77.862
10665707 11.2394 11.7969 29.3833 25.4659 -1.07849 6.12688 77.8855
10665716 11.257 11.7416 29.3046 25.5049 -1.06515 6.13256 77.808
10665728 11.257 11.7416 29.3046 25.5049 -1.06515 6.13256 77.808
10665736 11.2482 11.8429 29.3046 25.5049 -1.02855 6.10747 77.9005
10665750 11.2306 11.8337 29.2849 25.5536 -1.00387 6.11805 77.9027
10665757 11.2306 11.8337 29.2849 25.5536 -1.00387 6.11805 77.9027
10665766 11.213 11.8153 29.2947 25.5536 -1.00763 6.12895 77.8765
10665778 11.213 11.8153 29.2849 25.651 -0.972103 6.13891 77.9641
10665786 11.213 11.8153 29.2849 25.651 -0.972103 6.13891 77.9641
10665798 11.2394 11.8429 29.2455 25.6218 -0.968643 6.11646 77.9496
10665808 11.2394 11.8429 29.2455 25.6218 -0.968643 6.11646 77.9496
10665817 11.2041 11.8705 29.1274 25.6023 -0.918555 6.10281 77.8044
10665828 11.2482 11.9166 29.1766 25.6315 -0.922337 6.08738 77.9729
10665838 11.2482 11.9166 29.1766 25.6315 -0.922337 6.08738 77.9729
10665850 11.257 11.8889 29.1766 25.6607 -0.924526 6.09581 77.9833
10665860 11.257 11.8889 29.1766 25.6607 -0.924526 6.09581 77.9833
10665868 11.1953 11.8705 29.216 25.6802 -0.917293 6.1242 77.9621
10665882 11.1425 11.9442 29.1175 25.7582 -0.820158 6.11622 77.9624
10665898 11.1865 11.8429 29.1766 25.7095 -0.901867 6.13292 77.9155
10665909 11.1953 11.9626 29.0782 25.7679 -0.815015 6.09355 78.004
10665918 11.1953 11.9626 29.0782 25.7679 -0.815015 6.09355 78.004
10665928 11.1777 11.9626 29.1274 25.7874 -0.818361 6.10615 78.0551
10665938 11.1777 11.9626 29.1274 25.7874 -0.818361 6.10615 78.0551
10665949 11.1249 11.9442 29.0979 25.7387 -0.815038 6.11653 77.9056
10665959 11.1865 11.9534 29.088 25.8556 -0.789393 6.10954 78.0835
10665970 11.1865 11.9534 29.088 25.8556 -0.789393 6.10954 78.0835
10665979 11.1425 11.9442 29.0486 25.7484 -0.801998 6.10725 77.8838
10665992 11.1337 11.9626 29.029 25.8361 -0.758038 6.1124 77.9614
10665999 11.1337 11.9626 29.029 25.8361 -0.758038 6.1124 77.9614
10666011 11.1865 11.9902 29.0388 25.8361 -0.76839 6.09176 78.0517
10666019 11.1865 11.9902 29.0388 25.8361 -0.76839 6.09176 78.0517
10666031 11.1689 11.9534 29.0585 25.8264 -0.784422 6.10761 78.0072
10666039 11.2041 12.0547 29.029 25.8069 -0.759177 6.06513 78.0947
10666049 11.2041 12.0547 29.029 25.8069 -0.759177 6.06513 78.0947
10666061 11.1865 12.0271 29.0093 25.7484 -0.776017 6.0684 77.9713
10666069 11.1777 12.0547 28.9797 25.6997 -0.771071 6.05434 77.9119
10666079 11.1777 12.0547 28.9797 25.6997 -0.771071 6.05434 77.9119
10666089 11.1865 12.0179 28.9207 25.69 -0.770852 6.05402 77.815
10666109 11.1777 11.9902 28.9207 25.651 -0.790182 6.0594 77.7396
10666119 11.1865 12.0547 28.9404 25.69 -0.764786 6.04632 77.8716
10666129 11.1865 12.0547 28.9404 25.69 -0.764786 6.04632 77.8716
10666139 11.1337 12.0823 28.9404 25.6705 -0.745633 6.0509 77.8269
10666149 11.1425 12.0823 29.0093 25.6607 -0.773051 6.05531 77.8948
10666159 11.1425 12.0823 29.0093 25.6607 -0.773051 6.05531 77.8948
10666171 11.213 12.11 29.0486 25.7289 -0.775503 6.04119 78.1005
10666180 11.213 12.11 29.0486 25.7289 -0.775503 6.04119 78.1005
10666194 11.1777 12.0639 28.9207 25.7484 -0.733545 6.05067 77.9107
10666205 11.213 12.0915 28.9994 25.7484 -0.759876 6.04274 78.0524
10666210 11.213 12.0915 28.9994 25.7484 -0.759876 6.04274 78.0524
10666220 11.213 12.0915 28.8616 25.6607 -0.745974 6.01679 77.8269
10666230 11.2482 12.1192 28.9305 25.6218 -0.782137 6.00329 77.9197
10666241 11.2482 12.1192 28.9305 25.6218 -0.782137 6.00329 77.9197
10666250 11.213 12.1376 28.8715 25.6607 -0.733817 6.0055 77.8827
10666270 11.2041 12.11 28.8321 25.7095 -0.711831 6.01641 77.8557
10666280 11.2922 12.1376 28.7927 25.69 -0.724326 5.97841 77.9125
10666291 11.2922 12.1376 28.7927 25.69 -0.724326 5.97841 77.9125
10666300 11.2834 12.2297 28.7435 25.651 -0.688706 5.94577 77.9076
10666310 11.2834 12.1836 28.7632 25.6997 -0.693969 5.96609 77.9299
10666333 11.2834 12.1836 28.7632 25.6997 -0.693969 5.96609 77.9299
10666334 11.2306 12.2665 28.773 25.69 -0.656457 5.95803 77.9601
10666341 11.2306 12.2665 28.773 25.69 -0.656457 5.95803 77.9601
10666356 11.2394 12.2757 28.6451 25.6607 -0.625783 5.93491 77.8209
10666361 11.2658 12.2757 28.7632 25.6023 -0.690232 5.93475 77.907
10666371 11.2658 12.2757 28.7632 25.6023 -0.690232 5.93475 77.907
10666383 11.2922 12.3126 28.7041 25.6413 -0.655067 5.91543 77.9502
10666391 11.2746 12.3034 28.6844 25.651 -0.643238 5.92147 77.9134
10666401 11.2746 12.3034 28.6844 25.651 -0.643238 5.92147 77.9134
10666411 11.2306 12.2941 28.6451 25.6705 -0.613751 5.93346 77.8403
10666422 11.2306 12.2941 28.6451 25.6705 -0.613751 5.93346 77.8403
10666431 11.301 12.2757 28.6549 25.6705 -0.644948 5.92062 77.9021
10666441 11.2746 12.2665 28.7336 25.6705 -0.664328 5.93936 77.9453
10666451 11.2746 12.2665 28.7336 25.6705 -0.664328 5.93936 77.9453
10666462 11.2482 12.3402 28.6746 25.7095 -0.60057 5.92433 77.9724
10666471 11.2746 12.2941 28.6549 25.6218 -0.64666 5.91709 77.8454
10666484 11.2746 12.2941 28.6549 25.6218 -0.64666 5.91709 77.8454
10666493 11.2218 12.2389 28.6943 25.6607 -0.647809 5.9553 77.8157
10666506 11.2218 12.2389 28.6943 25.6607 -0.647809 5.9553 77.8157
10666513 11.257 12.3034 28.6057 25.69 -0.600255 5.92156 77.856
10666528 11.2834 12.2757 28.6943 25.6218 -0.667794 5.92426 77.8752
10666533 11.2834 12.2757 28.6943 25.6218 -0.667794 5.92426 77.8752
10666542 11.3275 12.3586 28.6155 25.6413 -0.623247 5.88329 77.9429
10666553 11.2922 12.2665 28.6254 25.5828 -0.664891 5.91179 77.7669
10666573 11.3363 12.3678 28.6352 25.6315 -0.632328 5.87963 77.9708
10666583 11.3363 12.3678 28.6352 25.6315 -0.632328 5.87963 77.9708
10666594 11.3275 12.3034 28.6155 25.612 -0.651048 5.89469 77.8584
10666603 11.3627 12.3402 28.6155 25.6997 -0.621106 5.88562 78.0181
10666613 11.3627 12.3402 28.6155 25.6997 -0.621106 5.88562 78.0181
10666628 11.3098 12.4139 28.6057 25.5828 -0.615709 5.86521 77.9122
10666632 11.3715 12.3494 28.5466 25.6218 -0.624906 5.86361 77.8893
10666642 11.3715 12.3494 28.5466 25.6218 -0.624906 5.86361 77.8893
10666653 11.3803 12.3402 28.6057 25.6218 -0.649154 5.87064 77.948
10666662 11.3803 12.3402 28.6057 25.6218 -0.649154 5.87064 77.948
10666672 11.3363 12.3126 28.6155 25.6315 -0.644353 5.89214 77.8959
10666683 11.3187 12.3218 28.5958 25.612 -0.636069 5.88981 77.8483
10666693 11.3187 12.3218 28.5958 25.612 -0.636069 5.88981 77.8483
10666703 11.3363 12.3494 28.5958 25.5244 -0.661369 5.8674 77.8059
10666713 11.3363 12.3494 28.5958 25.5244 -0.661369 5.8674 77.8059
10666723 11.3451 12.3678 28.5466 25.5244 -0.64265 5.85431 77.7839
10666736 11.3715 12.3678 28.5958 25.4951 -0.675954 5.84958 77.8303
10666742 11.3715 12.3678 28.5958 25.4951 -0.675954 5.84958 77.8303
10666755 11.3715 12.3862 28.6155 25.5049 -0.672814 5.84811 77.8781
10666762 11.3715 12.377 28.6057 25.5146 -0.669564 5.85056 77.8688
10666773 11.3715 12.377 28.6057 25.5146 -0.669564 5.85056 77.8688
10666783 11.4155 12.3954 28.6549 25.4951 -0.699021 5.83735 77.961
10666803 11.3627 12.3678 28.5958 25.4854 -0.676413 5.85079 77.8117
10666812 11.442 12.4139 28.6155 25.4172 -0.714621 5.81155 77.8885
10666833 11.442 12.4139 28.6155 25.4172 -0.714621 5.81155 77.8885
10666834 11.442 12.4231 28.6254 25.3685 -0.730737 5.8045 77.8589
10666844 11.3891 12.3954 28.6155 25.3295 -0.733206 5.82027 77.7296
10666854 11.3891 12.3954 28.6155 25.3295 -0.733206 5.82027 77.7296
10666864 11.4508 12.4507 28.586 25.3003 -0.734617 5.78204 77.7878
10666874 11.4508 12.4507 28.586 25.3003 -0.734617 5.78204 77.7878
10666886 11.4508 12.3954 28.586 25.3003 -0.752911 5.79681 77.7325
10666894 11.4332 12.4231 28.6155 25.2321 -0.770077 5.78955 77.7038
10666907 11.4332 12.4231 28.6155 25.2321 -0.770077 5.78955 77.7038
10666914 11.4596 12.4507 28.6352 25.1931 -0.788204 5.77281 77.7386
10666928 11.5036 12.3954 28.6844 25.2029 -0.832321 5.7828 77.7864
10666935 11.5036 12.3954 28.6844 25.2029 -0.832321 5.7828 77.7864
10666950 11.5301 12.4415 28.7336 25.1542 -0.856687 5.76352 77.8593
10666955 11.5301 12.4415 28.7238 25.1542 -0.853635 5.76235 77.8495
10666965 11.5301 12.4415 28.7238 25.2029 -0.837468 5.76813 77.8982
10666975 11.5036 12.4507 28.8321 25.1249 -0.885645 5.77631 77.9113
10666985 11.5036 12.4507 28.8321 25.1249 -0.885645 5.77631 77.9113
10666995 11.5565 12.4599 28.7632 25.1347 -0.874381 5.75276 77.9142
10667006 11.5389 12.4231 28.7829 25.1249 -0.890498 5.76845 77.8697
10667016 11.5389 12.4231 28.7829 25.1249 -0.890498 5.76845 77.8697
10667026 11.6269 12.4047 28.8124 25.1249 -0.932983 5.75339 77.9689
10667036 11.6269 12.4047 28.8124 25.1249 -0.932983 5.75339 77.9689
10667046 11.5565 12.4415 28.7927 25.1542 -0.883166 5.76348 77.9448
10667056 11.5829 12.4415 28.773 25.086 -0.907917 5.74601 77.8834
10667078 11.5653 12.4231 28.7927 25.1249 -0.901721 5.76258 77.906
10667086 11.6269 12.4691 28.7238 25.0373 -0.913329 5.71527 77.8571
10667100 11.6269 12.4691 28.7238 25.0373 -0.913329 5.71527 77.8571
10667109 11.5829 12.4139 28.8616 25.0275 -0.963953 5.75695 77.8859
10667116 11.5829 12.4139 28.8616 25.0275 -0.963953 5.75695 77.8859
10667128 11.6093 12.4599 28.7238 24.9885 -0.927171 5.7166 77.7816
10667138 11.6446 12.4507 28.8616 25.047 -0.964208 5.73305 78.0039
10667149 11.6446 12.4507 28.8616 25.047 -0.964208 5.73305 78.0039
10667158 11.6005 12.4231 28.7927 24.9593 -0.967795 5.7335 77.7756
10667175 11.6358 12.4323 28.773 24.9885 -0.959772 5.7228 77.8296
10667179 11.6358 12.4323 28.773 24.9885 -0.959772 5.7228 77.8296
10667188 11.6534 12.4967 28.8222 24.9691 -0.965403 5.70451 77.9414
10667208 11.6269 12.4415 28.7829 24.9496 -0.970021 5.71922 77.8009
10667225 11.6269 12.4875 28.8222 25.0178 -0.944099 5.71978 77.9545
10667228 11.6269 12.4875 28.8222 25.0178 -0.944099 5.71978 77.9545
10667239 11.6181 12.4783 28.8025 24.9301 -0.967591 5.71178 77.8291
10667252 11.6798 12.506 28.7927 24.9106 -0.98086 5.68454 77.8891
10667268 11.6974 12.4783 28.9108 24.8814 -1.04162 5.69781 77.9679
10667279 11.6886 12.4691 28.8616 24.8327 -1.04314 5.6909 77.852
10667289 11.6886 12.4691 28.8616 24.8327 -1.04314 5.6909 77.852
10667299 11.671 12.552 28.8518 24.8229 -1.01024 5.67123 77.8977
10667309 11.671 12.552 28.8518 24.8229 -1.01024 5.67123 77.8977
10667321 11.6534 12.4599 28.8025 24.8132 -1.02369 5.69333 77.729
10667329 11.6886 12.4599 28.8715 24.8034 -1.05903 5.69103 77.8234
10667354 11.7415 12.4967 28.7927 24.8034 -1.03873 5.65777 77.8343
10667363 11.7415 12.4967 28.7927 24.8034 -1.03873 5.65777 77.8343
10667369 11.6534 12.4967 28.8715 24.8034 -1.03586 5.69061 77.825
10667383 11.7238 12.4875 28.8222 24.784 -1.052 5.6661 77.8176
10667389 11.7238 12.4875 28.8222 24.784 -1.052 5.6661 77.8176
10667402 11.7062 12.4875 28.8518 24.7742 -1.05893 5.67315 77.8197
10667409 11.7415 12.5244 28.8715 24.7937 -1.05697 5.65872 77.931
10667423 11.7415 12.5244 28.8715 24.7937 -1.05697 5.65872 77.931
10667429 11.7591 12.506 28.8813 24.7742 -1.07808 5.65778 77.9205
10667443 11.7503 12.506 28.8419 24.7742 -1.06328 5.65539 77.8724
10667450 11.7503 12.5152 28.8419 24.6573 -1.09938 5.6389 77.7647
10667460 11.6974 12.5336 28.8222 24.7742 -1.03172 5.65972 77.8274
10667470 11.6974 12.5336 28.8222 24.7742 -1.03172 5.65972 77.8274
10667489 11.7415 12.5244 28.8124 24.6963 -1.07143 5.63993 77.7745
10667490 11.7943 12.506 28.8222 24.7158 -1.09034 5.63433 77.8383
10667500 11.7943 12.506 28.8222 24.7158 -1.09034 5.63433 77.8383
10667512 11.7767 12.5244 28.8419 24.6963 -1.09134 5.63414 77.8393
10667520 11.7767 12.5244 28.8419 24.6963 -1.09134 5.63414 77.8393
10667535 11.7326 12.5704 28.8025 24.6865 -1.05352 5.62769 77.7921
10667540 11.7767 12.552 28.8222 24.6378 -1.09562 5.6174 77.7887
10667550 11.7767 12.552 28.8222 24.6378 -1.09562 5.6174 77.7887
10667560 11.7679 12.5888 28.7927 24.667 -1.06169 5.60994 77.8165
10667570 11.8207 12.5612 28.7829 24.6476 -1.0907 5.59972 77.8124
10667590 11.8031 12.6073 28.773 24.6281 -1.07336 5.58865 77.8115
10667601 11.8031 12.6073 28.773 24.6281 -1.07336 5.58865 77.8115
10667611 11.8295 12.6441 28.7238 24.6086 -1.06053 5.5636 77.806
10667625 11.8471 12.6165 28.7041 24.5891 -1.07569 5.56149 77.7568
10667631 11.8471 12.6165 28.7041 24.5891 -1.07569 5.56149 77.7568
10667641 11.8383 12.6165 28.7336 24.5696 -1.0886 5.56504 77.7581
10667651 11.8471 12.5981 28.6451 24.5404 -1.08003 5.55327 77.6306
10667661 11.8471 12.5981 28.6451 24.5404 -1.08003 5.55327 77.6306
10667671 11.8383 12.6441 28.6451 24.6086 -1.039 5.55171 77.7361
10667694 11.7679 12.6349 28.5958 24.6281 -0.998606 5.56919 77.6267
10667701 11.7767 12.6349 28.714 24.6476 -1.03127 5.58354 77.7731
10667717 11.7767 12.6349 28.714 24.6476 -1.03127 5.58354 77.7731
10667721 11.8912 12.6717 28.7435 24.6086 -1.07629 5.54242 77.915
10667734 11.856 12.6625 28.714 24.5989 -1.06273 5.54938 77.8313
10667743 11.856 12.6625 28.714 24.5989 -1.06273 5.54938 77.8313
10667753 11.856 12.6717 28.6549 24.5989 -1.04147 5.53977 77.7814
10667765 11.856 12.6717 28.6549 24.5989 -1.04147 5.53977 77.7814
10667773 11.8736 12.6994 28.6352 24.5794 -1.03811 5.52306 77.7875
10667788 11.9 12.6994 28.6155 24.5404 -1.05323 5.50894 77.7553
10667793 11.9 12.6994 28.6155 24.5404 -1.05323 5.50894 77.7553
10667803 11.8736 12.7362 28.6155 24.5209 -1.03928 5.50381 77.7462
10667813 11.8471 12.7454 28.5368 24.4722 -1.02005 5.49276 77.6015
10667823 11.8471 12.7454 28.5368 24.4722 -1.02005 5.49276 77.6015
10667837 11.944 12.7638 28.5958 24.4527 -1.06851 5.46721 77.7564
10667845 11.944 12.7638 28.5958 24.4527 -1.06851 5.46721 77.7564
10667853 11.9528 12.7546 28.5368 24.4722 -1.04959 5.46246 77.7164
10667864 11.9617 12.7914 28.6647 24.4917 -1.0728 5.46852 77.9095
10667883 11.9793 12.7638 28.5565 24.4917 -1.05418 5.45789 77.7912
10667893 11.9705 12.773 28.5958 24.4527 -1.07355 5.45783 77.792
10667906 11.9705 12.773 28.5958 24.4527 -1.07355 5.45783 77.792
10667913 11.9705 12.8006 28.5466 24.5209 -1.02632 5.4529 77.8386
10667934 11.9352 12.7546 28.4974 24.3748 -1.06471 5.45028 77.562
10667944 11.9528 12.8006 28.5565 24.3456 -1.0827 5.43719 77.6555
10667958 11.9528 12.8006 28.5565 24.3456 -1.0827 5.43719 77.6555
10667964 11.944 12.8467 28.5368 24.3943 -1.04213 5.43097 77.7218
10667980 11.9793 12.7914 28.4974 24.4625 -1.03652 5.43978 77.7306
10667994 12.0585 12.7914 28.5269 24.443 -1.07654 5.42019 77.8199
10668004 12.0585 12.7914 28.5269 24.443 -1.07654 5.42019 77.8199
10668014 11.944 12.8283 28.5466 24.4527 -1.03176 5.44421 77.7717
10668024 11.9969 12.8651 28.4974 24.443 -1.02381 5.4134 77.8024
10668034 11.9969 12.8651 28.4974 24.443 -1.02381 5.4134 77.8024
10668044 12.0233 12.8467 28.4974 24.4819 -1.02508 5.4161 77.8494
10668054 12.0321 12.8006 28.4777 24.3748 -1.07305 5.41024 77.6853
10668075 12.0057 12.8927 28.4974 24.4527 -1.01403 5.40505 77.8486
10668085 12.0057 12.8927 28.4974 24.4527 -1.01403 5.40505 77.8486
10668095 12.0233 12.8191 28.4777 24.3845 -1.06089 5.40892 77.7046
10668109 11.9617 12.8743 28.458 24.5307 -0.968425 5.42618 77.8247
10668124 11.9617 12.8743 28.458 24.5307 -0.968425 5.42618 77.8247
10668125 12.0321 12.8559 28.4383 24.3943 -1.03585 5.39327 77.7206
10668135 12.0409 12.9296 28.458 24.443 -1.0037 5.38011 77.8715
10668145 12.0409 12.9296 28.458 24.443 -1.0037 5.38011 77.8715
10668156 12.0057 12.9112 28.4088 24.4138 -0.993571 5.38447 77.7394
10668169 12.0057 12.9112 28.4088 24.4138 -0.993571 5.38447 77.7394
10668176 12.0585 12.8927 28.3793 24.3943 -1.01345 5.36937 77.7248
10668186 11.9969 12.8927 28.3891 24.4332 -0.984412 5.39158 77.712
10668198 11.9969 12.8927 28.3891 24.4332 -0.984412 5.39158 77.712
10668206 12.0409 12.9204 28.4088 24.443 -0.991601 5.37644 77.8131
10668218 11.9617 12.9296 28.3399 24.4235 -0.949231 5.38387 77.6546
10668226 11.9617 12.9296 28.3399 24.4235 -0.949231 5.38387 77.6546
10668239 12.0674 12.948 28.3104 24.4235 -0.966644 5.34768 77.7492
10668246 12.0674 12.948 28.3104 24.4235 -0.966644 5.34768 77.7492
10668261 11.9969 12.9572 28.3202 24.3748 -0.961092 5.35889 77.6491
10668269 11.9969 12.9572 28.2513 24.3943 -0.933225 5.35276 77.5997
10668276 11.9969 12.9572 28.2513 24.3943 -0.933225 5.35276 77.5997
10668286 12.0938 12.9756 28.271 24.3845 -0.966428 5.3238 77.7249
10668296 12.0057 13.0033 28.3202 24.4722 -0.915939 5.35662 77.8014
10668307 12.0057 13.0033 28.3202 24.4722 -0.915939 5.35662 77.8014
10668316 12.1202 13.0125 28.271 24.4819 -0.929822 5.31939 77.8856
10668327 12.1202 13.0125 28.271 24.4819 -0.929822 5.31939 77.8856
10668336 12.0321 13.0033 28.2415 24.4917 -0.893241 5.34235 77.7685
10668349 12.0409 13.1138 28.2808 24.5307 -0.858498 5.32092 77.9662
10668356 12.0409 13.1138 28.2808 24.5307 -0.858498 5.32092 77.9662
10668374 12.0585 13.0953 28.2513 24.5307 -0.860918 5.31746 77.9359
10668378 12.0585 13.1138 28.1922 24.443 -0.865613 5.2944 77.8075
10668388 12.0585 13.1138 28.1922 24.443 -0.865613 5.2944 77.8075
10668399 12.0233 13.0769 28.0938 24.5014 -0.816897 5.30823 77.6955
10668425 11.9352 13.0309 28.1233 24.4527 -0.830182 5.34095 77.5422
10668428 11.9969 13.1046 28.1036 24.4138 -0.831704 5.29819 77.6188
10668438 11.9969 13.1046 28.1036 24.4138 -0.831704 5.29819 77.6188
10668451 11.9969 13.2059 28.0938 24.404 -0.798203 5.26928 77.7006
10668458 12.0057 13.1322 28.0446 24.4819 -0.784193 5.28981 77.6644
10668468 12.0057 13.1322 28.0446 24.4819 -0.784193 5.28981 77.6644
10668480 12.0057 13.1966 28.1036 24.4819 -0.781213 5.28037 77.7879
10668488 12.0057 13.1966 28.1036 24.4819 -0.781213 5.28037 77.7879
10668500 12.0321 13.1414 28.084 24.443 -0.814578 5.28055 77.7005
10668508 12.0497 13.2243 28.0544 24.4917 -0.767221 5.25676 77.8201
10668518 12.0497 13.2243 28.0544 24.4917 -0.767221 5.25676 77.8201
10668527 12.0409 13.2335 28.0249 24.5404 -0.736111 5.25906 77.8397
10668538 12.0674 13.2151 28.0446 24.4917 -0.772692 5.25334 77.8187
10668559 12.0497 13.2887 28.0249 24.5209 -0.72704 5.23995 77.8843
10668575 12.0497 13.2887 28.0249 24.5209 -0.72704 5.23995 77.8843
10668579 12.0233 13.2427 27.9658 24.5014 -0.722031 5.24896 77.7333
10668593 11.9881 13.2151 28.1135 24.5112 -0.763012 5.28504 77.8278
10668599 11.9881 13.2151 28.1135 24.5112 -0.763012 5.28504 77.8278
10668609 11.9793 13.2151 28.0446 24.5307 -0.732335 5.28116 77.7696
10668619 12.0057 13.2151 28.0446 24.5112 -0.747028 5.27184 77.7765
10668629 12.0057 13.2335 28.0446 24.5112 -0.740933 5.26704 77.7949
10668639 12.0145 13.2703 28.0643 24.5989 -0.708684 5.26857 77.948
10668649 12.0145 13.2703 28.0643 24.5989 -0.708684 5.26857 77.948
10668663 11.9617 13.2335 28.0151 24.5891 -0.692205 5.28456 77.7993
10668669 11.9617 13.2519 28.0151 24.5209 -0.708655 5.27124 77.7495
10668679 11.9617 13.2519 28.0151 24.5209 -0.708655 5.27124 77.7495
10668691 11.9176 13.2887 28.0347 24.5307 -0.685649 5.2768 77.7717
10668709 11.8912 13.2151 28.0249 24.6183 -0.669681 5.31264 77.7495
10668719 11.9264 13.2059 28.0643 24.6183 -0.696047 5.31074 77.8149
10668731 11.9264 13.2059 28.0643 24.6183 -0.696047 5.31074 77.8149
10668739 11.9 13.2335 27.9954 24.5794 -0.66998 5.29698 77.7082
10668749 11.8912 13.1782 28.0151 24.5599 -0.698099 5.31375 77.6444
10668765 11.8912 13.1782 28.0151 24.5599 -0.698099 5.31375 77.6444
10668770 11.8736 13.2151 27.9954 24.6281 -0.651701 5.31478 77.7121
10668781 11.8736 13.2151 28.0249 24.6281 -0.660951 5.31845 77.7416
10668790 11.8736 13.2059 28.0249 24.5891 -0.676864 5.31601 77.6934
10668801 11.8471 13.2059 28.0249 24.6281 -0.655714 5.32777 77.706
10668821 11.8824 13.1598 28.0446 24.667 -0.675246 5.33789 77.7538
10668831 11.9088 13.1966 28.1135 24.667 -0.692874 5.32992 77.886
10668845 11.9088 13.1966 28.1135 24.667 -0.692874 5.32992 77.886
10668851 11.8736 13.2151 28.084 24.6476 -0.672998 5.32823 77.8202
10668861 11.8295 13.2059 28.0446 24.6281 -0.656365 5.33483 77.7081
10668871 11.8295 13.2059 28.0446 24.6281 -0.656365 5.33483 77.7081
10668881 11.8471 13.1874 28.0249 24.6768 -0.645715 5.33865 77.7363
10668901 11.8295 13.2059 28.084 24.6183 -0.67191 5.33852 77.7377
10668913 11.7855 13.2059 28.0347 24.6573 -0.629824 5.34877 77.6834
10668922 11.7855 13.2059 28.0347 24.6573 -0.629824 5.34877 77.6834
10668936 11.8295 13.1506 28.084 24.667 -0.674069 5.35903 77.7311
10668951 11.7591 13.1322 28.1627 24.6963 -0.673091 5.39569 77.7502
10668963 11.7591 13.1138 28.084 24.6963 -0.654511 5.39079 77.6531
10668971 11.7591 13.1138 28.084 24.6963 -0.654511 5.39079 77.6531
10668991 11.7767 13.1966 28.0544 24.6086 -0.652361 5.34988 77.6364
10668993 11.7503 13.1322 28.1726 24.667 -0.683074 5.39561 77.722
10669004 11.7503 13.1322 28.1726 24.667 -0.683074 5.39561 77.722
10669013 11.7503 13.0953 28.2316 24.6378 -0.723386 5.40896 77.715
10669023 11.7238 13.0953 28.1824 24.706 -0.677177 5.41824 77.7076
10669038 11.7238 13.0769 28.1824 24.706 -0.683264 5.42308 77.6892
10669043 11.7062 13.0585 28.271 24.7352 -0.701889 5.44705 77.771
10669064 11.7503 13.1322 28.2611 24.6768 -0.707538 5.40774 77.8204
10669073 11.715 13.0493 28.3301 24.6963 -0.739005 5.44963 77.7906
10669090 11.715 13.0493 28.3301 24.6963 -0.739005 5.44963 77.7906
10669093 11.7062 13.0953 28.2611 24.7645 -0.677 5.43975 77.8272
10669104 11.715 13.1138 28.3005 24.7547 -0.689183 5.43625 77.884
10669124 11.7415 13.0585 28.2611 24.7742 -0.696945 5.44137 77.8353
10669134 11.7415 13.0585 28.2611 24.7742 -0.696945 5.44137 77.8353
10669145 11.671 13.0953 28.3202 24.7158 -0.700523 5.45028 77.8023
10669154 11.7062 13.0953 28.3497 24.7158 -0.720733 5.44465 77.8671
10669167 11.7062 13.0953 28.3497 24.7158 -0.720733 5.44465 77.8671
10669174 11.7591 13.1598 28.3005 24.6768 -0.71345 5.40304 77.8962
10669190 11.6886 13.1414 28.3104 24.6476 -0.71027 5.42397 77.7879
10669195 11.6886 13.1414 28.3104 24.6476 -0.71027 5.42397 77.7879
10669211 11.7503 13.1322 28.1922 24.667 -0.689231 5.39804 77.7417
10669215 11.7503 13.1322 28.1922 24.667 -0.689231 5.39804 77.7417
10669225 11.7238 13.123 28.1627 24.5501 -0.713463 5.38928 77.5597
10669235 11.7855 13.1138 28.1726 24.5599 -0.735654 5.37793 77.6317
10669256 11.7767 13.1506 28.1824 24.5307 -0.733455 5.36817 77.6403
10669266 11.7855 13.1506 28.2021 24.5307 -0.742356 5.3683 77.6688
10669288 11.8383 13.1874 28.2316 24.5112 -0.762309 5.34606 77.7686
10669296 11.856 13.1874 28.2021 24.5112 -0.758596 5.33778 77.7567
10669309 11.856 13.1966 28.2021 24.4625 -0.771689 5.32932 77.7171
10669316 11.9176 13.2519 28.2316 24.4722 -0.77855 5.30367 77.8733
10669326 11.9176 13.2519 28.2316 24.4722 -0.77855 5.30367 77.8733
10669336 11.8648 13.1506 28.2021 24.443 -0.796182 5.33664 77.6604
10669348 11.9264 13.2519 28.2513 24.3163 -0.83911 5.28439 77.746
10669371 11.9793 13.2979 28.1726 24.4235 -0.780238 5.26217 77.8733
10669378 11.9793 13.2979 28.1726 24.4235 -0.780238 5.26217 77.8733
10669405 11.944 13.2519 28.2415 24.4138 -0.80919 5.29073 77.8512
10669406 12.0057 13.2703 28.1726 24.2968 -0.839628 5.24662 77.7454
10669419 11.9528 13.2703 28.1233 24.2871 -0.811107 5.253 77.6336
10669429 12.0233 13.3072 28.2021 24.2774 -0.848505 5.23371 77.8099
10669441 12.0233 13.3072 28.2021 24.2774 -0.848505 5.23371 77.8099
10669449 12.0409 13.3164 28.1922 24.1994 -0.873771 5.21571 77.749
10669464 12.0233 13.3072 28.1529 24.1994 -0.859138 5.21773 77.6828
10669469 12.0233 13.3072 28.1529 24.1994 -0.859138 5.21773 77.6828
10669479 12.0321 13.2887 28.1726 24.2092 -0.870878 5.22393 77.7026
10669489 12.0321 13.2887 28.1726 24.2092 -0.870878 5.22393 77.7026
10669500 12.0145 13.3256 28.143 24.1994 -0.84721 5.21399 77.6825
10669512 12.0585 13.344 28.143 24.1702 -0.864492 5.19406 77.7158
10669520 12.0585 13.344 28.143 24.1702 -0.864492 5.19406 77.7158
10669534 12.0497 13.3256 28.1036 24.2384 -0.832961 5.20477 77.7174
10669540 12.085 13.39 28.1036 24.141 -0.854872 5.16657 77.7196
10669550 12.085 13.39 28.1036 24.141 -0.854872 5.16657 77.7196
10669560 12.1114 13.344 28.0249 24.2092 -0.831237 5.17033 77.6895
10669570 12.1114 13.344 28.0249 24.2092 -0.831237 5.17033 77.6895
10669580 12.129 13.4085 28.1135 24.2287 -0.836354 5.16271 77.8796
10669590 12.0674 13.3256 28.084 24.2579 -0.825842 5.20017 77.7348
10669609 12.0674 13.3256 28.084 24.2579 -0.825842 5.20017 77.7348
10669610 12.1114 13.39 28.0938 24.1605 -0.853541 5.16094 77.7557
10669620 12.1642 13.4085 28.1332 24.1897 -0.866319 5.15116 77.8956
10669631 12.1642 13.4085 28.1332 24.1897 -0.866319 5.15116 77.8956
10669640 12.1642 13.4545 28.0249 24.2481 -0.798066 5.13295 77.8918
10669650 12.1642 13.4545 28.0249 24.2481 -0.798066 5.13295 77.8918
10669660 12.129 13.3716 27.9855 24.1799 -0.824997 5.1499 77.6661
10669670 12.1731 13.4177 28.0052 24.2384 -0.810121 5.13647 77.8343
10669680 12.1731 13.4177 28.0052 24.2384 -0.810121 5.13647 77.8343
10669690 12.1466 13.4269 27.956 24.141 -0.81588 5.12231 77.6705
10669701 12.0762 13.4729 27.9363 24.2189 -0.746629 5.13603 77.7043
10669712 12.0762 13.4729 27.9363 24.2189 -0.746629 5.13603 77.7043
10669721 12.1731 13.4729 27.9658 24.1605 -0.805402 5.10728 77.7723
10669734 12.1731 13.4729 27.9658 24.1605 -0.805402 5.10728 77.7723
10669741 12.1114 13.4545 27.8871 24.2384 -0.741906 5.1279 77.6914
10669751 12.1202 13.4085 27.8969 24.2189 -0.769462 5.13633 77.6445
10669761 12.1202 13.4085 27.8969 24.2189 -0.769462 5.13633 77.6445
10669771 12.1378 13.4085 27.9068 24.2189 -0.778027 5.13301 77.672
10669783 12.1378 13.4085 27.9068 24.2189 -0.778027 5.13301 77.672
10669791 12.1378 13.4177 27.8871 24.2774 -0.749452 5.13555 77.7199
10669813 12.085 13.4085 27.9068 24.3358 -0.722793 5.16154 77.736
10669814 12.085 13.4085 27.9068 24.3358 -0.722793 5.16154 77.736
10669821 12.0409 13.39 27.956 24.2774 -0.749871 5.17658 77.6643
10669831 12.1026 13.3716 28.0052 24.3066 -0.78086 5.17527 77.786
10669843 12.1026 13.3716 28.0052 24.3066 -0.78086 5.17527 77.786
10669852 12.0585 13.4545 27.9757 24.3358 -0.720824 5.16517 77.8245
10669863 12.0409 13.4361 27.9757 24.3845 -0.70532 5.18066 77.8372
10669878 12.0409 13.4361 27.9757 24.3845 -0.70532 5.18066 77.8372
10669883 12.085 13.4085 27.9265 24.4819 -0.680678 5.18248 77.9018
10669893 12.085 13.4085 27.9265 24.4819 -0.680678 5.18248 77.9018
10669903 11.9969 13.3808 27.9363 24.4138 -0.687853 5.20516 77.7278
10669913 11.9705 13.344 27.9658 24.4917 -0.675251 5.23513 77.772
10669925 11.9705 13.344 27.9658 24.4917 -0.675251 5.23513 77.772
10669933 11.9793 13.3624 27.956 24.4527 -0.681713 5.22191 77.7504
10669943 11.9793 13.3624 27.956 24.4527 -0.681713 5.22191 77.7504
10669953 11.9528 13.3624 27.9265 24.4235 -0.673856 5.2214 77.6652
10669963 11.9264 13.3992 27.8674 24.4332 -0.631663 5.21247 77.6263
10669973 11.9264 13.3992 27.8674 24.4332 -0.631663 5.21247 77.6263
10669983 11.944 13.344 27.7985 24.365 -0.656381 5.20496 77.4516
10669999 11.9352 13.344 27.8182 24.404 -0.6469 5.21467 77.5014
10670024 11.9352 13.344 27.8182 24.404 -0.6469 5.21467 77.5014
10670026 11.9969 13.3624 27.8379 24.5307 -0.624518 5.21227 77.7278
10670029 11.9969 13.3624 27.8379 24.5307 -0.624518 5.21227 77.7278
10670040 11.944 13.4085 27.9855 24.4819 -0.655089 5.22648 77.82
10670051 11.9352 13.4177 27.9461 24.5696 -0.608103 5.23244 77.8687
10670071 11.9264 13.3624 27.956 24.6183 -0.610581 5.25643 77.8632
10670074 11.8824 13.3532 27.9363 24.5794 -0.606461 5.26296 77.7513
10670084 11.8824 13.3532 27.9363 24.5794 -0.606461 5.26296 77.7513
10670095 11.9 13.3992 27.8772 24.5696 -0.5815 5.23775 77.7461
10670106 11.9 13.3992 27.8772 24.5696 -0.5815 5.23775 77.7461
10670126 11.8648 13.3716 27.9166 24.6378 -0.569457 5.2676 77.7908
10670134 11.8648 13.3716 27.9166 24.6378 -0.569457 5.2676 77.7908
10670152 11.9 13.3072 27.9658 24.5891 -0.633205 5.27528 77.7621
10670156 11.9264 13.3164 27.956 24.5989 -0.632153 5.26598 77.7976
10670179 11.9088 13.2795 27.9757 24.5599 -0.657803 5.27777 77.7239
10670184 11.9088 13.2795 27.9757 24.5599 -0.657803 5.27777 77.7239
10670203 11.8031 13.3164 27.9068 24.5404 -0.59727 5.28469 77.5667
10670206 11.8471 13.3256 27.9954 24.5307 -0.6391 5.28065 77.6987
10670215 11.8471 13.3256 27.9954 24.5307 -0.6391 5.28065 77.6987
10670229 11.7943 13.3164 28.0151 24.6281 -0.599624 5.31147 77.7538
10670235 11.856 13.2427 28.0544 24.5696 -0.674857 5.31223 77.7227
10670245 11.856 13.2427 28.0544 24.5696 -0.674857 5.31223 77.7227
10670257 11.8295 13.1966 28.0741 24.6476 -0.662218 5.34333 77.7478
10670266 11.7679 13.2059 28.1332 24.6378 -0.66158 5.36318 77.7447
10670281 11.7679 13.2059 28.1332 24.6378 -0.66158 5.36318 77.7447
10670286 11.7767 13.1874 28.2119 24.7547 -0.656496 5.38989 77.9308
10670296 11.7767 13.1874 28.2119 24.7547 -0.656496 5.38989 77.9308
10670307 11.7679 13.169 28.2513 24.7255 -0.681737 5.39826 77.9137
10670316 11.7415 13.1322 28.3202 24.7352 -0.70392 5.42451 77.9291
10670333 11.7415 13.1322 28.3202 24.7352 -0.70392 5.42451 77.9291
10670337 11.6622 13.123 28.2907 24.7352 -0.67299 5.4441 77.8111
10670360 11.671 13.0033 28.271 24.784 -0.693038 5.47685 77.7292
10670366 11.715 13.0033 28.4088 24.8034 -0.743337 5.48449 77.9305
10670378 11.715 13.0033 28.4088 24.8034 -0.743337 5.48449 77.9305
10670387 11.7238 12.9756 28.4285 24.784 -0.76777 5.48947 77.9119
10670396 11.6181 12.994 28.3596 24.784 -0.707252 5.50404 77.7557
10670417 11.6622 12.9848 28.4285 24.8034 -0.739096 5.50564 77.8789
10670426 11.6622 12.9848 28.4285 24.8034 -0.739096 5.50564 77.8789
10670439 11.6446 12.8835 28.4186 24.8229 -0.757606 5.53818 77.7697
10670446 11.5917 12.9019 28.5368 24.7645 -0.791202 5.55452 77.7949
10670456 11.5917 12.9019 28.5368 24.7645 -0.791202 5.55452 77.7949
10670466 11.6181 12.9019 28.5269 24.8229 -0.776997 5.55344 77.8699
10670478 11.6005 12.8099 28.5466 24.8132 -0.811395 5.58365 77.7702
10670498 11.6181 12.8559 28.6352 24.8814 -0.806527 5.58578 77.9906
10670509 11.6181 12.8559 28.6352 24.8814 -0.806527 5.58578 77.9906
10670520 11.5653 12.7362 28.6254 24.8521 -0.836444 5.62672 77.779
10670532 11.5653 12.7178 28.714 24.9106 -0.850643 5.64929 77.9076
10670548 11.5653 12.7454 28.7632 24.8716 -0.869657 5.6432 77.9455
10670558 11.6005 12.6441 28.6844 24.9106 -0.876883 5.65594 77.8396
10670568 11.6005 12.6441 28.6844 24.9106 -0.876883 5.65594 77.8396
10670578 11.4948 12.6257 28.7435 24.8814 -0.87827 5.6925 77.7454
10670601 11.5389 12.6533 28.7829 24.9106 -0.885212 5.68166 77.8856
10670609 11.5301 12.5888 28.901 24.8814 -0.950184 5.71174 77.9013
10670624 11.5301 12.5888 28.901 24.8814 -0.950184 5.71174 77.9013
10670633 11.5565 12.6165 28.8124 24.8327 -0.938 5.68097 77.818
10670639 11.6181 12.6073 28.8518 24.8132 -0.978765 5.66942 77.8903
10670649 11.6181 12.6073 28.8518 24.8132 -0.978765 5.66942 77.8903
10670659 11.5124 12.6349 28.901 24.7742 -0.965121 5.69139 77.8225
10670670 11.5124 12.6349 28.901 24.7742 -0.965121 5.69139 77.8225
10670685 11.5565 12.5796 28.8616 24.784 -0.981756 5.69082 77.7817
10670694 11.5917 12.552 28.8813 24.7937 -1.00468 5.69232 77.8187
10670700 11.5917 12.552 28.8813 24.7937 -1.00468 5.69232 77.8187
10670710 11.5389 12.5336 28.8419 24.7645 -0.992136 5.70309 77.6788
10670721 11.5301 12.5981 28.9699 24.784 -1.00085 5.7059 77.8819
10670730 11.5301 12.5981 28.9699 24.784 -1.00085 5.7059 77.8819
10670740 11.5741 12.5152 28.9699 24.7547 -1.0519 5.71274 77.8139
10670750 11.5741 12.5152 28.9699 24.7547 -1.0519 5.71274 77.8139
10670761 11.486 12.5152 28.9502 24.8716 -0.979596 5.74778 77.823
10670770 11.5653 12.4599 29.0585 24.8521 -1.06232 5.75193 77.9358
10670790 11.486 12.5336 29.0486 24.8424 -1.01355 5.7511 77.9106
10670800 11.5477 12.552 29.0191 24.7937 -1.03355 5.72048 77.9125
10670810 11.5477 12.552 29.0191 24.7937 -1.03355 5.72048 77.9125
10670820 11.5565 12.552 29.0191 24.784 -1.03952 5.71698 77.9115
10670830 11.5565 12.552 29.0191 24.784 -1.03952 5.71698 77.9115
10670840 11.5389 12.5152 29.0486 24.7547 -1.06528 5.73151 77.8574
10670853 11.5565 12.4691 29.0979 24.7547 -1.10124 5.74493 77.8782
10670860 11.5565 12.4691 29.0979 24.7547 -1.10124 5.74493 77.8782
10670875 11.5124 12.5152 29.029 24.6865 -1.07395 5.72808 77.7431
10670880 11.5741 12.5336 29.0585 24.7255 -1.08275 5.71492 77.8917
10670891 11.5741 12.5336 29.0585 24.7255 -1.08275 5.71492 77.8917
10670901 11.5741 12.5244 29.029 24.6476 -1.10289 5.70454 77.775
10670911 11.5741 12.5244 29.029 24.6476 -1.10289 5.70454 77.775
10670921 11.6005 12.5428 28.9994 24.667 -1.08922 5.69141 77.8098
10670931 11.6005 12.4875 29.088 24.7158 -1.11861 5.7225 77.8918
10670941 11.6005 12.4875 29.088 24.7158 -1.11861 5.7225 77.8918
10670951 11.6005 12.5612 29.0191 24.6476 -1.09563 5.68654 77.8284
10670964 11.5565 12.5612 28.9797 24.5989 -1.08632 5.6877 77.6963
10670971 11.5565 12.5612 28.9797 24.5989 -1.08632 5.6877 77.6963
10670986 11.6093 12.6073 28.96 24.6281 -1.07128 5.66255 77.8047
10670994 11.6093 12.6073 28.96 24.6281 -1.07128 5.66255 77.8047
10671001 11.5917 12.5612 28.9797 24.6281 -1.08736 5.68183 77.7607
10671011 11.671 12.6165 28.9797 24.6768 -1.07688 5.65196 77.944
10671031 11.6181 12.6257 28.9305 24.6378 -1.05548 5.65295 77.8121
10671041 11.671 12.6257 28.9699 24.6476 -1.08056 5.64483 77.9141
10671051 11.671 12.6257 28.9699 24.6476 -1.08056 5.64483 77.9141
10671061 11.6181 12.6533 28.9305 24.6378 -1.04623 5.64562 77.8398
10671071 11.6181 12.6533 28.9305 24.6378 -1.04623 5.64562 77.8398
10671081 11.5741 12.6625 28.901 24.6573 -1.01397 5.65365 77.7949
10671094 11.6181 12.6809 28.8813 24.6768 -1.00881 5.63706 77.8572
10671113 11.6181 12.6994 28.8518 24.6573 -1.00006 5.62628 77.8266
10671123 11.6886 12.6809 28.7435 24.5599 -1.02715 5.58763 77.6729
10671139 11.6886 12.6809 28.7435 24.5599 -1.02715 5.58763 77.6729
10671143 11.7415 12.7822 28.7533 24.5696 -1.00933 5.54923 77.8466
10671153 11.7415 12.7822 28.7533 24.5696 -1.00933 5.54923 77.8466
10671165 11.671 12.727 28.7041 24.6086 -0.977832 5.58123 77.7107
10671173 11.6974 12.8006 28.7041 24.5696 -0.974403 5.55002 77.7718
10671190 11.6974 12.8006 28.7041 24.5696 -0.974403 5.55002 77.7718
10671193 11.7679 12.8006 28.6844 24.6573 -0.960831 5.53968 77.9103
10671203 11.7062 12.8375 28.6155 24.5501 -0.943935 5.52481 77.7094
10671216 11.7062 12.8375 28.6155 24.5501 -0.943935 5.52481 77.7094
10671223 11.7503 12.8927 28.5565 24.6573 -0.885174 5.50448 77.8568
10671246 11.7503 12.8927 28.5565 24.6573 -0.885174 5.50448 77.8568
10671248 11.6974 12.8559 28.5368 24.5307 -0.917158 5.51028 77.6207
10671253 11.7503 12.8375 28.5171 24.5404 -0.930339 5.49996 77.6452
10671273 11.7679 12.9112 28.5663 24.5501 -0.923213 5.48311 77.7955
10671283 11.7679 12.9112 28.5663 24.5501 -0.923213 5.48311 77.7955
10671292 11.7503 12.8927 28.5269 24.5307 -0.918199 5.4854 77.7006
10671315 11.7591 12.9756 28.4876 24.5794 -0.864901 5.4624 77.8016
10671323 11.7591 12.9756 28.4876 24.5794 -0.864901 5.4624 77.8016
10671325 11.8207 13.0033 28.4974 24.5307 -0.894071 5.43417 77.852
10671339 11.8295 13.0585 28.3891 24.5794 -0.828695 5.41004 77.8565
10671354 11.8207 13.0401 28.3596 24.5209 -0.842315 5.40633 77.7413
10671364 11.7943 13.0493 28.399 24.4625 -0.862719 5.4085 77.705
10671374 11.7943 13.0493 28.399 24.4625 -0.862719 5.4085 77.705
10671384 11.8912 13.0769 28.3497 24.5209 -0.848901 5.37699 77.8388
10671407 11.8383 13.0861 28.2808 24.4527 -0.830665 5.37145 77.658
10671416 11.8736 13.169 28.3596 24.4235 -0.848258 5.34666 77.8257
10671425 11.8736 13.169 28.3596 24.4235 -0.848258 5.34666 77.8257
10671441 11.9 13.1506 28.3399 24.3553 -0.879145 5.33365 77.7458
10671454 11.9 13.1414 28.3104 24.4138 -0.853598 5.33966 77.7655
10671456 11.9 13.1414 28.3104 24.4138 -0.853598 5.33966 77.7655
10671465 11.9264 13.1966 28.2611 24.4138 -0.828163 5.31219 77.798
10671478 11.9264 13.1966 28.2611 24.4138 -0.828163 5.31219 77.798
10671486 11.9264 13.1322 28.2611 24.3358 -0.875525 5.31933 77.6556
10671500 12.0233 13.1506 28.2611 24.3943 -0.880003 5.29649 77.8293
10671506 12.0233 13.1506 28.2611 24.3943 -0.880003 5.29649 77.8293
10671523 12.0057 13.2151 28.2021 24.3163 -0.860696 5.26716 77.7392
10671526 11.9705 13.1966 28.2415 24.3358 -0.86163 5.28852 77.7444
10671536 11.9705 13.1966 28.2415 24.3358 -0.86163 5.28852 77.7444
10671547 12.0233 13.1782 28.2119 24.3358 -0.874995 5.27584 77.7493
10671568 11.944 13.2427 28.2119 24.3066 -0.838646 5.27605 77.7052
10671576 11.9617 13.2059 28.2513 24.3066 -0.868608 5.28599 77.7254
10671590 11.9617 13.2059 28.2513 24.3066 -0.868608 5.28599 77.7254
10671598 11.9352 13.1506 28.2021 24.2774 -0.873251 5.29753 77.5653
10671613 11.9705 13.2059 28.1726 24.3163 -0.843632 5.27506 77.6652
10671620 11.9705 13.2059 28.1726 24.3163 -0.843632 5.27506 77.6652
10671628 12.0497 13.2519 28.2513 24.365 -0.861196 5.25836 77.918
10671638 12.0497 13.2519 28.2513 24.365 -0.861196 5.25836 77.918
10671648 11.9793 13.2059 28.2218 24.2774 -0.874642 5.27404 77.6843
10671660 12.0057 13.169 28.3005 24.3845 -0.883858 5.29998 77.8598
10671683 11.9969 13.2151 28.2021 24.2774 -0.870928 5.26458 77.6914
10671689 12.0057 13.2151 28.1922 24.2579 -0.8771 5.2586 77.6709
10671710 12.0145 13.2335 28.2218 24.1702 -0.912094 5.2442 77.64
10671719 12.0145 13.2335 28.2218 24.1702 -0.912094 5.2442 77.64
10671730 12.085 13.1966 28.2415 24.1507 -0.958841 5.23546 77.6738
10671739 12.0145 13.2151 28.2808 24.2384 -0.913805 5.26497 77.7488
10671750 12.0145 13.2151 28.2808 24.2384 -0.913805 5.26497 77.7488
10671759 12.0497 13.2335 28.3202 24.2189 -0.937252 5.25348 77.8223
10671774 12.0233 13.1322 28.3399 24.1702 -0.985262 5.28315 77.6656
10671780 12.0233 13.1322 28.3399 24.1702 -0.985262 5.28315 77.6656
10671790 12.0674 13.1506 28.3399 24.1312 -1.00575 5.26197 77.6891
10671800 12.0409 13.169 28.2611 24.1702 -0.954024 5.25907 77.6413
10671810 12.0409 13.169 28.2611 24.1702 -0.954024 5.25907 77.6413
10671821 12.0409 13.169 28.3399 24.1994 -0.968623 5.2726 77.7493
10671830 12.0409 13.169 28.3399 24.1994 -0.968623 5.2726 77.7493
10671844 12.0409 13.1966 28.3596 24.063 -1.01108 5.25077 77.6602
10671851 12.0145 13.1322 28.3497 24.1312 -0.998622 5.28181 77.6277
10671866 12.0145 13.1322 28.3497 24.1312 -0.998622 5.28181 77.6277
10671870 12.0497 13.1506 28.3694 24.1117 -1.01595 5.26782 77.6815
10671880 12.085 13.169 28.3793 24.1215 -1.02043 5.25629 77.7547
10671890 12.085 13.169 28.3793 24.1215 -1.02043 5.25629 77.7547
10671900 12.0674 13.1414 28.4285 24.0728 -1.05575 5.26815 77.71
10671911 12.0674 13.1414 28.4285 24.0728 -1.05575 5.26815 77.71
10671920 12.129 13.1138 28.4974 24.0338 -1.11825 5.26303 77.774
10671930 12.1026 13.0677 28.458 24.0143 -1.12006 5.27456 77.6426
10671940 12.1026 13.0677 28.458 24.0143 -1.12006 5.27456 77.6426
10671951 12.0321 13.1506 28.4876 23.9754 -1.0927 5.27013 77.6456
10671976 12.085 13.1598 28.399 23.9656 -1.08186 5.2416 77.6094
10671981 12.1466 13.1874 28.5466 24.0046 -1.12384 5.24178 77.8853
10672002 12.1466 13.123 28.4974 23.9461 -1.15004 5.24505 77.7131
10672011 12.1819 13.0953 28.586 23.9364 -1.20056 5.25295 77.7996
10672021 12.1819 13.0953 28.586 23.9364 -1.20056 5.25295 77.7996
10672031 12.1466 13.1138 28.5565 23.8195 -1.21395 5.23895 77.6363
10672042 12.1378 13.0677 28.4777 23.8877 -1.17961 5.25194 77.5709
10672060 12.1378 13.0677 28.4777 23.8877 -1.17961 5.25194 77.5709
10672063 12.1907 13.0861 28.586 23.7805 -1.25897 5.23349 77.6433
10672073 12.1907 13.0861 28.586 23.7805 -1.25897 5.23349 77.6433
10672085 12.2083 13.1046 28.6057 23.8487 -1.24111 5.23515 77.7672
10672092 12.1466 13.0861 28.6057 23.9266 -1.20219 5.26577 77.7651
10672103 12.1466 13.0861 28.6057 23.9266 -1.20219 5.26577 77.7651
10672113 12.1819 13.1046 28.586 23.8682 -1.22044 5.242 77.7406
10672123 12.1819 13.1046 28.586 23.8682 -1.22044 5.242 77.7406
10672133 12.0762 13.0769 28.6647 23.9266 -1.2018 5.29394 77.7445
10672142 12.1642 13.0769 28.6549 23.9169 -1.22901 5.26852 77.813
10672159 12.1642 13.0769 28.6549 23.9169 -1.22901 5.26852 77.813
10672164 12.1202 13.0309 28.6155 23.9559 -1.20588 5.29197 77.7225
10672173 12.1642 13.123 28.6057 23.9461 -1.18861 5.25403 77.839
10672183 12.1642 13.123 28.6057 23.9461 -1.18861 5.25403 77.839
10672193 12.1819 13.0861 28.5958 23.9266 -1.20996 5.25536 77.7905
10672204 12.1819 13.0861 28.5663 23.9266 -1.20092 5.25166 77.7609
10672214 12.1202 13.0861 28.5663 23.9169 -1.18532 5.26651 77.6895
10672225 12.1202 13.1046 28.5958 23.9266 -1.18488 5.26663 77.7472
10672234 12.1202 13.1046 28.5958 23.9266 -1.18488 5.26663 77.7472
10672247 12.1114 13.1138 28.5466 24.0436 -1.12468 5.27499 77.8153
10672257 12.1202 13.123 28.5466 23.9948 -1.14065 5.2642 77.7846
10672266 12.1202 13.123 28.5466 23.9948 -1.14065 5.2642 77.7846
10672274 12.1114 13.1506 28.5466 23.9851 -1.13194 5.25808 77.7937
10672285 12.1026 13.0769 28.4974 24.0338 -1.12251 5.27952 77.7107
10672294 12.1026 13.0769 28.4974 24.0338 -1.12251 5.27952 77.7107
10672304 12.0057 13.1138 28.5072 24.0825 -1.06701 5.30252 77.7092
10672314 12.0057 13.1138 28.5072 24.0825 -1.06701 5.30252 77.7092
10672324 12.0674 13.1782 28.4777 24.0825 -1.05529 5.26593 77.8058
10672334 12.0497 13.1782 28.4482 24.141 -1.02121 5.27413 77.8171
10672346 12.0497 13.1782 28.4482 24.141 -1.02121 5.27413 77.8171
10672356 12.0585 13.169 28.5072 24.1605 -1.03868 5.28404 77.8953
10672371 12.0585 13.169 28.5072 24.1605 -1.03868 5.28404 77.8953
10672375 12.0233 13.123 28.4876 24.1605 -1.03717 5.30278 77.7943
10672385 11.9881 13.2059 28.4285 24.1897 -0.970615 5.28663 77.8121
10672395 11.9881 13.2059 28.4285 24.1897 -0.970615 5.28663 77.8121
10672405 11.9881 13.123 28.3202 24.2287 -0.951798 5.29961 77.6599
10672419 11.9617 13.1414 28.2808 24.2287 -0.925253 5.29678 77.6125
10672425 11.9617 13.1414 28.2808 24.2287 -0.925253 5.29678 77.6125
10672435 11.9969 13.1598 28.2808 24.2968 -0.907278 5.29129 77.7344
10672447 11.9969 13.1598 28.2808 24.2968 -0.907278 5.29129 77.7344
10672455 11.8824 13.1046 28.2611 24.2579 -0.897059 5.32838 77.506
10672471 11.9617 13.1598 28.2316 24.2871 -0.884323 5.29312 77.6402
10672476 11.9617 13.1598 28.2316 24.2871 -0.884323 5.29312 77.6402
10672485 11.9176 13.1506 28.3497 24.3748 -0.881182 5.33269 77.7927
10672496 11.8648 13.1414 28.3005 24.4138 -0.839594 5.34765 77.7204
10672505 11.8648 13.1414 28.3005 24.4138 -0.839594 5.34765 77.7204
10672520 11.944 13.123 28.2808 24.4625 -0.848036 5.33534 77.8103
10672525 11.944 13.123 28.2808 24.4625 -0.848036 5.33534 77.8103
10672535 11.9176 13.1874 28.2611 24.4625 -0.812319 5.32295 77.8287
10672545 11.8912 13.1782 28.1824 24.5209 -0.763266 5.32974 77.7727
10672555 11.8912 13.1782 28.1824 24.5209 -0.763266 5.32974 77.7727
10672569 11.856 13.2243 28.2611 24.5307 -0.758351 5.33791 77.872
10672584 11.8207 13.2151 28.2316 24.5014 -0.750896 5.34223 77.7688
10672604 11.8207 13.2151 28.2316 24.5014 -0.750896 5.34223 77.7688
10672605 11.8383 13.2151 28.2021 24.5209 -0.740728 5.33637 77.7764
10672606 11.8383 13.2151 28.2021 24.5209 -0.740728 5.33637 77.7764
10672617 11.8207 13.169 28.2021 24.5794 -0.731128 5.36028 77.7712
10672626 11.856 13.1966 28.1726 24.6086 -0.714113 5.3438 77.8338
10672640 11.856 13.1966 28.1726 24.6086 -0.714113 5.3438 77.8338
10672646 11.8119 13.1966 28.1824 24.5891 -0.709875 5.35413 77.7801
10672656 11.8295 13.1874 28.1233 24.667 -0.674225 5.35427 77.8074
10672669 11.8295 13.1874 28.1233 24.667 -0.674225 5.35427 77.8074
10672678 11.8383 13.2427 28.1726 24.6476 -0.680555 5.34121 77.9011
10672688 11.8383 13.2427 28.1726 24.6476 -0.680555 5.34121 77.9011
10672698 11.7855 13.2243 28.1135 24.6183 -0.661287 5.34889 77.7416
10672713 11.7679 13.2059 28.0544 24.7158 -0.611204 5.36308 77.7439
10672718 11.7679 13.2059 28.0544 24.7158 -0.611204 5.36308 77.7439
10672728 11.8031 13.2059 28.0249 24.6281 -0.641911 5.3393 77.6619
10672738 11.7503 13.2335 28.0347 24.6865 -0.600022 5.35439 77.705
10672748 11.7503 13.2335 28.0347 24.6865 -0.600022 5.35439 77.705
10672760 11.7943 13.2979 28.0446 24.6476 -0.608537 5.32239 77.7844
10672771 11.7943 13.2979 28.0446 24.6476 -0.608537 5.32239 77.7844
10672783 11.7943 13.2151 28.0446 24.5989 -0.651933 5.33801 77.6528
10672787 11.8119 13.3256 27.9461 24.6865 -0.561258 5.30317 77.7702
10672809 11.8119 13.2519 27.9658 24.6183 -0.614157 5.31637 77.648
10672819 11.8383 13.2979 27.9363 24.6378 -0.591584 5.29617 77.7104
10672830 11.8383 13.2979 27.9363 24.6378 -0.591584 5.29617 77.7104
10672839 11.8824 13.3532 27.8969 24.6086 -0.584479 5.26169 77.7411
10672853 11.8824 13.3532 27.8969 24.6086 -0.584479 5.26169 77.7411
10672859 11.8912 13.3072 27.956 24.6086 -0.620937 5.27878 77.7629
10672897 11.9088 13.3624 27.8871 24.5501 -0.605904 5.24383 77.7085
10672900 11.9088 13.3624 27.8871 24.5501 -0.605904 5.24383 77.7085
10672902 11.9264 13.3348 27.9166 24.4625 -0.658745 5.23914 77.6403
10672903 11.9176 13.3808 27.8969 24.5014 -0.621741 5.23186 77.6968
10672909 11.9176 13.3808 27.8969 24.5014 -0.621741 5.23186 77.6968
10672921 11.9528 13.39 27.8477 24.4235 -0.640035 5.20427 77.6141
10672929 11.9528 13.39 27.8477 24.4235 -0.640035 5.20427 77.6141
10672941 11.9176 13.3716 27.8576 24.4917 -0.615631 5.22808 77.6385
10672949 11.9793 13.3532 27.9068 24.5014 -0.653267 5.22424 77.7407
10672962 11.9793 13.3532 27.9068 24.5014 -0.653267 5.22424 77.7407
10672969 12.0233 13.3992 27.8969 24.4332 -0.671284 5.191 77.7527
10672981 11.9705 13.4177 27.9265 24.4332 -0.657907 5.20366 77.7478
10672989 11.9705 13.4177 27.9265 24.4332 -0.657907 5.20366 77.7478
10673003 11.9969 13.4269 27.9068 24.4138 -0.663409 5.18947 77.7443
10673009 11.9969 13.4269 27.9068 24.4138 -0.663409 5.18947 77.7443
10673023 11.9969 13.3624 27.8871 24.4138 -0.678542 5.20374 77.6601
10673029 12.0497 13.3348 27.8674 24.4235 -0.694837 5.19593 77.6754
10673039 12.0497 13.3348 27.8674 24.4235 -0.694837 5.19593 77.6754
10673049 12.0409 13.3716 27.8969 24.365 -0.708473 5.18499 77.6745
10673059 12.0057 13.3072 27.8969 24.4235 -0.699437 5.2183 77.6333
10673069 12.0057 13.3072 27.8969 24.4235 -0.699437 5.2183 77.6333
10673080 12.0497 13.3808 27.9757 24.4138 -0.716667 5.19639 77.82
10673089 12.0497 13.3808 27.9757 24.4138 -0.716667 5.19639 77.82
10673100 11.944 13.3716 27.956 24.3456 -0.703086 5.21519 77.6172
10673110 12.0321 13.344 27.9954 24.4138 -0.729494 5.21301 77.7852
10673120 12.0321 13.344 27.9954 24.4138 -0.729494 5.21301 77.7852
10673130 12.0233 13.4361 28.0052 24.3358 -0.725137 5.18281 77.8004
10673140 12.0321 13.3348 28.0151 24.2774 -0.783885 5.2007 77.6593
10673150 12.0321 13.3348 28.0151 24.2774 -0.783885 5.2007 77.6593
10673160 11.9793 13.3256 28.0347 24.2579 -0.783068 5.21688 77.5975
10673174 11.9793 13.3256 28.0347 24.2579 -0.783068 5.21688 77.5975
10673181 12.0321 13.344 28.0544 24.2481 -0.802805 5.19958 77.6787
10673190 12.0497 13.3532 28.1332 24.2968 -0.813562 5.20867 77.833
10673201 12.0497 13.3532 28.1332 24.2968 -0.813562 5.20867 77.833
10673211 12.0321 13.2979 28.1627 24.2481 -0.851788 5.2252 77.7409
10673227 12.0497 13.2427 28.0347 24.2676 -0.829366 5.22134 77.5948
10673235 12.0497 13.2427 28.0347 24.2676 -0.829366 5.22134 77.5948
10673245 12.0762 13.3256 28.0938 24.2871 -0.821935 5.2028 77.7826
10673251 12.0762 13.3256 28.0938 24.2871 -0.821935 5.2028 77.7826
10673267 12.0409 13.3072 28.143 24.1312 -0.884271 5.2033 77.6223
10673273 12.0674 13.344 28.1036 24.1702 -0.854996 5.1868 77.6852
10673283 12.0674 13.344 28.1036 24.1702 -0.854996 5.1868 77.6852
10673292 12.129 13.3624 28.0249 24.1117 -0.863014 5.14863 77.6281
10673301 12.129 13.3624 28.0249 24.1117 -0.863014 5.14863 77.6281
10673313 12.0762 13.2519 28.0643 24.102 -0.898948 5.19487 77.4943
10673321 12.0938 13.2795 28.2218 24.0825 -0.950566 5.20053 77.6776
10673333 12.0938 13.2795 28.2218 24.0825 -0.950566 5.20053 77.6776
10673343 12.129 13.3348 28.1332 24.0436 -0.928596 5.16089 77.6405
10673354 12.1819 13.3348 28.1824 24.1215 -0.934197 5.16327 77.8205
10673362 12.1819 13.3348 28.1824 24.1215 -0.934197 5.16327 77.8205
10673374 12.1819 13.3624 28.1529 24.0825 -0.928842 5.14745 77.7797
10673384 12.1378 13.3624 28.1233 24.1215 -0.893068 5.16006 77.7451
10673396 12.1378 13.3624 28.1233 24.1215 -0.893068 5.16006 77.7451
10673403 12.2171 13.4269 28.1824 24.0533 -0.937128 5.1217 77.8797
10673423 12.2435 13.344 28.143 23.9754 -0.986798 5.1214 77.7059
10673433 12.2083 13.344 28.084 23.9656 -0.960881 5.12178 77.6019
10673445 12.2083 13.344 28.084 23.9656 -0.960881 5.12178 77.6019
10673453 12.2171 13.4545 28.0741 23.9559 -0.926894 5.08839 77.7016
10673471 12.2171 13.4545 28.0741 23.9559 -0.926894 5.08839 77.7016
10673473 12.2699 13.3808 28.1036 23.9559 -0.976995 5.09754 77.7103
10673483 12.2876 13.39 28.1529 23.9364 -1.00107 5.09439 77.7669
10673500 12.2876 13.39 28.1529 23.9364 -1.00107 5.09439 77.7669
10673503 12.3052 13.3716 28.143 23.8877 -1.02593 5.08713 77.7075
10673513 12.2699 13.4177 28.1824 23.9364 -0.995515 5.09557 77.8064
10673525 12.2699 13.4177 28.1824 23.9364 -0.995515 5.09557 77.8064
10673533 12.2876 13.4637 28.1332 23.8585 -0.996421 5.06291 77.7429
10673542 12.2876 13.4637 28.1332 23.8585 -0.996421 5.06291 77.7429
10673553 12.2876 13.4545 28.1036 23.8877 -0.980607 5.06525 77.7334
10673566 12.3316 13.4269 28.0741 23.7903 -1.02695 5.04476 77.6228
10673573 12.3316 13.4269 28.0741 23.7903 -1.02695 5.04476 77.6228
10673583 12.3492 13.4729 28.1036 23.7221 -1.04893 5.02337 77.6479
10673593 12.3316 13.4361 28.084 23.761 -1.03671 5.03989 77.6127
10673603 12.3316 13.4361 28.084 23.761 -1.03671 5.03989 77.6127
10673615 12.3316 13.5098 28.0741 23.7415 -1.0155 5.01712 77.657
10673639 12.3316 13.4729 28.084 23.7903 -1.01456 5.03414 77.6787
10673644 12.3316 13.4637 28.0643 23.7708 -1.01809 5.03149 77.6304
10673654 12.3316 13.4637 28.0643 23.7708 -1.01809 5.03149 77.6304
10673664 12.3492 13.4453 28.1529 23.8097 -1.04398 5.04805 77.7571
10673674 12.3756 13.4913 28.1036 23.7903 -1.02805 5.02057 77.7609
10673684 12.3756 13.4913 28.1036 23.7903 -1.02805 5.02057 77.7609
10673694 12.3933 13.4821 28.0643 23.7805 -1.02769 5.0121 77.7202
10673704 12.3933 13.4821 28.0643 23.7805 -1.02769 5.0121 77.7202
10673714 12.3756 13.4453 28.084 23.7026 -1.06682 5.01864 77.6075
10673724 12.3845 13.519 28.084 23.7221 -1.03829 4.9999 77.7094
10673745 12.3756 13.5282 28.0938 23.761 -1.02248 5.00607 77.7587
10673755 12.4021 13.5005 28.1036 23.7026 -1.06249 5.00013 77.7088
10673765 12.4021 13.5005 28.1036 23.7026 -1.06249 5.00013 77.7088
10673775 12.3756 13.519 28.0938 23.6928 -1.0484 4.99967 77.6812
10673785 12.3756 13.519 28.0938 23.6928 -1.0484 4.99967 77.6812
10673795 12.4725 13.4085 28.1332 23.6831 -1.13073 5.00699 77.6973
10673809 12.3668 13.519 28.0741 23.6928 -1.03962 4.9994 77.6528
10673815 12.3668 13.519 28.0741 23.6928 -1.03962 4.9994 77.6528
10673825 12.4197 13.5466 28.1233 23.6344 -1.08141 4.97751 77.724
10673835 12.4285 13.4637 28.143 23.7026 -1.09511 5.00787 77.7378
10673857 12.4109 13.4821 28.1036 23.7513 -1.05505 5.00887 77.7479
10673866 12.4109 13.4821 28.1036 23.7513 -1.05505 5.00887 77.7479
10673881 12.4021 13.4729 28.143 23.6344 -1.10679 5.00353 77.6524
10673889 12.4021 13.5005 28.1233 23.6441 -1.08817 4.99514 77.6701
10673910 12.4021 13.5005 28.1233 23.6441 -1.08817 4.99514 77.6701
10673911 12.4109 13.5282 28.0643 23.6344 -1.06669 4.97689 77.6377
10673916 12.4285 13.5005 28.0938 23.6539 -1.08394 4.98579 77.6767
10673931 12.4285 13.5005 28.0938 23.6539 -1.08394 4.98579 77.6767
10673936 12.3668 13.4913 28.084 23.6344 -1.07155 5.00026 77.5765
10673948 12.358 13.4913 28.0643 23.6246 -1.06603 4.99873 77.5383
10673959 12.358 13.5098 28.0643 23.6246 -1.05984 4.99398 77.5567
10673978 12.4637 13.4729 28.0938 23.6928 -1.09098 4.98885 77.7233
10673979 12.4637 13.4729 28.0938 23.6928 -1.09098 4.98885 77.7233
10673988 12.4373 13.5098 28.0643 23.6246 -1.08429 4.97357 77.636
10674001 12.4021 13.5374 28.0938 23.6052 -1.07979 4.97682 77.6384
10674008 12.4021 13.5374 28.0938 23.6052 -1.07979 4.97682 77.6384
10674021 12.4813 13.5282 28.0643 23.6831 -1.07205 4.96506 77.7569
10674027 12.4461 13.5374 28.0249 23.6344 -1.06232 4.96037 77.6428
10674037 12.4461 13.5374 28.0249 23.6344 -1.06232 4.96037 77.6428
10674050 12.4549 13.5098 28.0643 23.6441 -1.08317 4.97155 77.6731
10674058 12.4549 13.5098 28.0643 23.6441 -1.08317 4.97155 77.6731
10674068 12.4285 13.6018 28.0446 23.6344 -1.04133 4.95088 77.7093
10674078 12.4725 13.5374 28.0643 23.6734 -1.06951 4.9637 77.7475
10674096 12.4725 13.5374 28.0643 23.6734 -1.06951 4.9637 77.7475
10674110 12.4109 13.5742 28.0446 23.6441 -1.0419 4.96376 77.6738
10674138 12.4021 13.565 28.0446 23.6734 -1.03247 4.97217 77.685
10674139 12.4549 13.5834 28.0347 23.6441 -1.04935 4.94881 77.7172
10674201 12.499 13.5926 27.956 23.537 -1.07153 4.91104 77.5845
10674203 12.4549 13.5466 27.9954 23.6344 -1.05284 4.95192 77.6313
10674265 12.4902 13.5926 27.956 23.5467 -1.06554 4.91456 77.5855
10674266 12.4902 13.5926 27.956 23.5467 -1.06554 4.91456 77.5855
10674330 12.4725 13.6295 27.9954 23.6344 -1.03049 4.92612 77.7318
10674332 12.4725 13.6295 27.9954 23.6344 -1.03049 4.92612 77.7318
10674333 12.543 13.6847 27.8379 23.5857 -1.00143 4.86711 77.6513
10674393 12.5078 13.6755 27.8969 23.5759 -1.01513 4.88492 77.6561
10674395 12.4637 13.7216 27.8477 23.5857 -0.967619 4.87925 77.6187
10674456 12.4725 13.7124 27.8674 23.6441 -0.959976 4.88954 77.6964
10674458 12.499 13.7216 27.8379 23.6344 -0.959191 4.8753 77.6928
10674522 12.543 13.74 27.7985 23.5954 -0.967503 4.84911 77.6769
10674523 12.5694 13.7216 27.7887 23.6149 -0.972275 4.84833 77.6945
10674525 12.5254 13.7676 27.769 23.6246 -0.933915 4.84651 77.6866
10674584 12.5782 13.7584 27.7099 23.5272 -0.967635 4.81487 77.5738
10674586 12.5782 13.7584 27.7099 23.5272 -0.967635 4.81487 77.5738
10674647 12.5606 13.8597 27.6705 23.5077 -0.922605 4.78577 77.5986
10674649 12.5606 13.8597 27.6705 23.5077 -0.922605 4.78577 77.5986
10674711 12.5959 13.8321 27.6705 23.5077 -0.942765 4.78383 77.6062
10674721 12.5782 13.8689 27.6705 23.4883 -0.931501 4.77637 77.6059
10674776 12.5782 13.8689 27.6312 23.5077 -0.912777 4.77375 77.586
10674778 12.5782 13.8689 27.6312 23.5077 -0.912777 4.77375 77.586
10674779 12.5959 13.8689 27.6115 23.5759 -0.889377 4.77565 77.6522
10674839 12.5166 13.8137 27.6804 23.5175 -0.924121 4.81134 77.5281
10674840 12.5166 13.8137 27.6804 23.5175 -0.924121 4.81134 77.5281
10674910 12.5342 13.8044 27.7591 23.6246 -0.9213 4.83357 77.7224
10674912 12.5078 13.8137 27.7001 23.6344 -0.88847 4.83151 77.6559
10674966 12.499 13.74 27.6705 23.7708 -0.855669 4.86656 77.6802
10674968 12.4725 13.7216 27.7591 23.7221 -0.897339 4.88323 77.6753
10674969 12.4637 13.7124 27.8576 23.7903 -0.905468 4.90949 77.8239
10675030 12.4637 13.7124 27.8576 23.7903 -0.905468 4.90949 77.8239
10675031 12.4637 13.6939 27.8182 23.6831 -0.935142 4.89518 77.6589
10675096 12.4109 13.6571 27.9068 23.7903 -0.922748 4.94356 77.765
10675098 12.4109 13.6571 27.9068 23.7903 -0.922748 4.94356 77.765
10675161 12.3756 13.6479 27.9166 23.7903 -0.917956 4.95623 77.7304
10675171 12.2964 13.5466 27.9363 23.7903 -0.933303 5.00524 77.5695
10675289 12.3492 13.5558 27.956 23.7805 -0.955968 4.99053 77.6415
10675299 12.1995 13.4453 28.0544 23.9461 -0.921655 5.09158 77.6453
10675301 12.2171 13.5098 28.0643 23.9461 -0.908667 5.07161 77.7373
10675353 12.2259 13.4821 28.0741 23.8877 -0.943166 5.07026 77.6698
10675356 12.2171 13.4821 28.1036 23.9072 -0.943078 5.0788 77.71
10675413 12.1819 13.4453 28.2021 23.9656 -0.955412 5.11741 77.7949
10675414 12.1819 13.4453 28.2021 23.9656 -0.955412 5.11741 77.7949
10675422 12.1378 13.3808 28.1726 23.9754 -0.950925 5.143 77.6666
10675476 12.1819 13.344 28.1824 24.0241 -0.963628 5.14856 77.7323
10675478 12.1114 13.3808 28.1726 23.9559 -0.94925 5.14738 77.6207
10675541 12.1554 13.3532 28.2218 23.9754 -0.980835 5.15184 77.7058
10675544 12.1554 13.3532 28.2218 23.9754 -0.980835 5.15184 77.7058
10675604 12.0938 13.3348 28.2808 24.0533 -0.960149 5.18994 77.7627
10675605 12.0938 13.3348 28.2808 24.0533 -0.960149 5.18994 77.7627
10675614 12.1202 13.3256 28.2218 24.0241 -0.962891 5.17432 77.6916
10675621 12.085 13.2887 28.2119 24.0046 -0.967772 5.18934 77.5902
10675629 12.0762 13.3164 28.3005 23.9461 -1.00278 5.18826 77.6392
10675639 12.0762 13.3164 28.3005 23.9461 -1.00278 5.18826 77.6392
10675649 12.1026 13.3624 28.1922 24.0436 -0.929488 5.16806 77.7008
10675661 12.085 13.3072 28.2611 24.0241 -0.970328 5.19323 77.6773
10675669 12.085 13.3072 28.2611 24.0241 -0.970328 5.19323 77.6773
10675685 12.1466 13.3164 28.3005 24.0923 -0.975691 5.1884 77.8558
10675689 12.1466 13.3164 28.3005 24.0923 -0.975691 5.1884 77.8558
10675699 12.0585 13.3532 28.3202 24.102 -0.939038 5.2054 77.834
10675709 12.0585 13.3164 28.2611 24.0825 -0.939548 5.20508 77.7186
10675719 12.0585 13.3164 28.2611 24.0825 -0.939548 5.20508 77.7186
10675733 12.1466 13.3164 28.271 24.0728 -0.97308 5.18222 77.8068
10675740 12.0409 13.3256 28.2513 24.0728 -0.931223 5.2048 77.6906
10675760 12.1026 13.2243 28.271 24.1117 -0.977215 5.2225 77.7096
10675770 12.1026 13.2243 28.271 24.1117 -0.977215 5.2225 77.7096
10675780 12.0321 13.2887 28.2907 24.0923 -0.94648 5.22409 77.7038
10675798 12.0497 13.3164 28.271 24.0923 -0.936618 5.20984 77.7294
10675806 12.0497 13.3164 28.271 24.0923 -0.936618 5.20984 77.7294
10675811 12.0674 13.2611 28.2907 24.1117 -0.960103 5.22456 77.7309
10675821 12.0233 13.2519 28.2808 24.2189 -0.91075 5.25064 77.775
10675835 12.0233 13.2519 28.2808 24.2189 -0.91075 5.25064 77.775
10675841 12.0674 13.2795 28.3399 24.102 -0.972417 5.22473 77.7888
10675851 12.0674 13.2795 28.3399 24.102 -0.972417 5.22473 77.7888
10675861 12.0674 13.2519 28.3497 24.102 -0.984684 5.23315 77.771
10675871 12.0321 13.2427 28.3694 24.0825 -0.989473 5.24475 77.7268
10675881 12.0321 13.2427 28.3694 24.0825 -0.989473 5.24475 77.7268
10675891 12.0233 13.2519 28.3596 24.1117 -0.970866 5.24707 77.7465
10675901 12.0497 13.2243 28.3202 24.1117 -0.976093 5.24245 77.706
10675911 12.0497 13.2243 28.3202 24.1117 -0.976093 5.24245 77.706
10675921 12.0145 13.2795 28.3596 24.1897 -0.932927 5.25194 77.8433
10675935 12.0145 13.2795 28.3596 24.1897 -0.932927 5.25194 77.8433
10675944 12.0057 13.2887 28.3301 24.1507 -0.930984 5.24325 77.7752
10675954 12.0321 13.2427 28.3399 24.141 -0.960819 5.24837 77.7557
10675961 12.0321 13.2427 28.3399 24.141 -0.960819 5.24837 77.7557
10675975 12.0145 13.2427 28.3793 24.1897 -0.95129 5.26399 77.8262
10675982 11.9969 13.2335 28.4186 24.1897 -0.96108 5.2759 77.8387
10675992 11.9969 13.2335 28.4186 24.1897 -0.96108 5.2759 77.8387
10676002 12.0321 13.2427 28.3694 24.2481 -0.934215 5.26549 77.8924
10676012 12.0321 13.2427 28.3694 24.2481 -0.934215 5.26549 77.8924
10676022 11.9881 13.1874 28.4186 24.1799 -0.976981 5.28899 77.7741
10676033 12.0233 13.2703 28.3891 24.1994 -0.944597 5.25696 77.8822
10676042 12.0233 13.2703 28.3891 24.1994 -0.944597 5.25696 77.8822
10676054 11.9881 13.2611 28.3399 24.0923 -0.957312 5.24894 77.6814
10676062 11.9793 13.2243 28.2907 24.1507 -0.932117 5.262 77.6449
10676074 11.9793 13.2243 28.2907 24.1507 -0.932117 5.262 77.6449
10676082 11.9528 13.1966 28.3694 24.1605 -0.9543 5.28719 77.6794
10676094 11.9528 13.1966 28.3694 24.1605 -0.9543 5.28719 77.6794
10676102 11.9528 13.2243 28.3202 24.1994 -0.916822 5.2787 77.6968
10676112 11.9617 13.2151 28.3596 24.2092 -0.931568 5.28495 77.7455
10676122 11.9617 13.2151 28.3596 24.2092 -0.931568 5.28495 77.7455
10676132 12.0497 13.2795 28.3497 24.2579 -0.918075 5.25009 77.9369
10676144 11.9528 13.2151 28.3104 24.2189 -0.910345 5.28231 77.6972
10676163 11.9528 13.2151 28.3104 24.2189 -0.910345 5.28231 77.6972
10676165 11.9881 13.3072 28.3005 24.2092 -0.890781 5.24667 77.8049
10676174 11.9881 13.3072 28.3005 24.2092 -0.890781 5.24667 77.8049
10676190 11.9617 13.1966 28.3104 24.1702 -0.93548 5.27872 77.6389
10676194 11.9793 13.2979 28.2316 24.2287 -0.863257 5.24516 77.7375
10676204 11.9793 13.2979 28.2316 24.2287 -0.863257 5.24516 77.7375
10676217 12.0585 13.3532 28.2119 24.1507 -0.889291 5.1979 77.7744
10676224 11.9969 13.2979 28.1922 24.1897 -0.869471 5.23073 77.6768
10676234 11.9969 13.2979 28.1922 24.1897 -0.869471 5.23073 77.6768
10676249 11.9969 13.3532 28.1627 24.1994 -0.838663 5.21386 77.7122
10676255 11.9969 13.3532 28.1627 24.1994 -0.838663 5.21386 77.7122
10676268 11.9969 13.2519 28.1627 24.1897 -0.875637 5.23902 77.6012
10676275 12.0145 13.3348 28.1036 24.1897 -0.83514 5.2054 77.6426
10676294 12.0145 13.3348 28.1036 24.1897 -0.83514 5.2054 77.6426
10676296 11.9705 13.39 28.2021 24.2092 -0.827213 5.21734 77.7718
10676305 12.0145 13.3716 28.1332 24.1994 -0.828837 5.20077 77.7187
10676322 12.0145 13.3716 28.1332 24.1994 -0.828837 5.20077 77.7187
10676325 12.0674 13.39 28.0741 24.1799 -0.827257 5.17234 77.7114
10676335 12.0674 13.39 28.0741 24.1799 -0.827257 5.17234 77.7114
10676350 11.9881 13.3716 28.0643 24.1117 -0.828327 5.18786 77.5357
10676355 12.0409 13.344 28.0347 24.1507 -0.831816 5.18249 77.5704
10676365 12.0409 13.344 28.0347 24.1507 -0.831816 5.18249 77.5704
10676378 12.0938 13.39 28.0347 24.1799 -0.82323 5.1605 77.6985
10676385 12.0938 13.39 28.0347 24.1799 -0.82323 5.1605 77.6985
10676404 12.0497 13.4545 28.0151 24.1994 -0.775513 5.15518 77.7187
10676405 12.1554 13.3992 28.1332 24.1994 -0.863411 5.15705 77.8873
10676415 12.1554 13.3992 28.1332 24.1994 -0.863411 5.15705 77.8873
10676430 12.0938 13.4085 28.0151 24.1507 -0.820696 5.14952 77.668
10676444 12.0585 13.4453 28.0249 24.1605 -0.797313 5.15159 77.6892
10676445 12.0585 13.4453 28.0249 24.1605 -0.797313 5.15159 77.6892
10676456 12.1114 13.4545 28.0347 24.102 -0.833188 5.12933 77.7026
