2675859 14.1725 14.0899 26.3318 22.514 -1.26457 4.00412 77.1083
2675870 14.1725 14.0899 26.3318 22.514 -1.26457 4.00412 77.1083
2675878 14.1725 14.0531 26.3515 22.4946 -1.28983 4.01323 77.0717
2675888 14.2166 14.1728 26.3219 22.4264 -1.27673 3.95894 77.1377
2675898 14.2166 14.1728 26.3219 22.4264 -1.27673 3.95894 77.1377
2675908 14.2254 14.136 26.3121 22.4069 -1.29561 3.96164 77.0803
2675918 14.2254 14.182 26.3121 22.3484 -1.29985 3.94194 77.0679
2675928 14.2254 14.182 26.3121 22.3484 -1.29985 3.94194 77.0679
2675939 14.287 14.2465 26.2432 22.3289 -1.28227 3.89828 77.1057
2675958 14.3223 14.1636 26.2038 22.2218 -1.34594 3.88883 76.9115
2675968 14.3751 14.1912 26.1841 22.212 -1.35001 3.86483 76.9625
2675978 14.3751 14.1912 26.1841 22.212 -1.35001 3.86483 76.9625
2675988 14.3575 14.2741 26.1841 22.2705 -1.29629 3.8573 77.0862
2675998 14.3575 14.2741 26.2038 22.2705 -1.30235 3.86015 77.1059
2676009 14.3399 14.3017 26.2038 22.2607 -1.29083 3.85629 77.1062
2676019 14.4016 14.3017 26.2137 22.2802 -1.30615 3.84547 77.1972
2676029 14.4016 14.3017 26.2137 22.2802 -1.30615 3.84547 77.1972
2676038 14.4016 14.3202 26.0463 22.1828 -1.28164 3.80257 76.9508
2676048 14.472 14.3386 26.1152 22.1438 -1.33154 3.78524 77.0697
2676060 14.472 14.3386 26.1152 22.1438 -1.33154 3.78524 77.0697
2676068 14.4896 14.3017 26.0365 22.1536 -1.32201 3.77988 76.9814
2676080 14.4896 14.3017 26.0365 22.1536 -1.32201 3.77988 76.9814
2676090 14.4456 14.3294 26.066 22.1341 -1.31476 3.78535 76.9751
2676100 14.4896 14.3109 26.1152 22.1438 -1.34639 3.78768 77.0596
2676110 14.4896 14.3109 26.1152 22.1438 -1.34639 3.78768 77.0596
2676120 14.472 14.3109 26.1251 22.1244 -1.35067 3.79057 77.0324
2676130 14.5161 14.3202 26.1743 22.1146 -1.37944 3.78334 77.1251
2676150 14.5073 14.3294 26.1546 22.1731 -1.34759 3.78887 77.1643
2676160 14.5073 14.3294 26.1546 22.1731 -1.34759 3.78887 77.1643
2676170 14.4896 14.3202 26.1448 22.1049 -1.36563 3.78406 77.0594
2676181 14.472 14.3202 26.1644 22.1731 -1.34295 3.80113 77.1297
2676200 14.4368 14.3294 26.1251 22.1536 -1.32355 3.79893 77.0448
2676224 14.472 14.3294 26.1349 22.1146 -1.35072 3.7861 77.0509
2676232 14.4808 14.3109 26.1152 22.1341 -1.34701 3.78841 77.0411
2676241 14.4808 14.3109 26.1152 22.1341 -1.34701 3.78841 77.0411
2676252 14.4456 14.3294 26.1251 22.0562 -1.35959 3.78259 76.9562
2676261 14.5073 14.357 26.1644 22.1341 -1.35448 3.77792 77.1628
2676273 14.5073 14.357 26.1644 22.1341 -1.35448 3.77792 77.1628
2676281 14.5073 14.3017 26.2038 22.2218 -1.35547 3.80981 77.2346
2676292 14.4632 14.3109 26.1054 22.1731 -1.32526 3.79694 77.0526
2676301 14.4632 14.3109 26.1054 22.1731 -1.32526 3.79694 77.0526
2676311 14.4368 14.3202 26.1054 22.2218 -1.29736 3.80822 77.0841
2676331 14.3927 14.2557 26.1546 22.1731 -1.33762 3.83481 76.9761
2676341 14.428 14.3017 26.1841 22.1731 -1.34177 3.81923 77.0869
2676351 14.428 14.3017 26.1841 22.1731 -1.34177 3.81923 77.0869
2676361 14.4104 14.2833 26.2038 22.1341 -1.36203 3.82523 77.0316
2676371 14.4632 14.3109 26.2038 22.1341 -1.36878 3.80558 77.1121
2676390 14.4632 14.3109 26.2038 22.1341 -1.36878 3.80558 77.1121
2676410 14.3575 14.3202 26.2038 22.1926 -1.31323 3.83762 77.074
2676412 14.3575 14.3202 26.2038 22.1926 -1.31323 3.83762 77.074
2676416 14.428 14.3109 26.2137 22.1926 -1.34103 3.82408 77.1451
2676422 14.4016 14.3478 26.2334 22.2218 -1.31642 3.82863 77.2045
2676435 14.4016 14.3478 26.2334 22.2218 -1.31642 3.82863 77.2045
2676443 14.4104 14.3386 26.1054 22.1731 -1.29957 3.8031 77.0274
2676454 14.4104 14.3294 26.0955 22.1926 -1.29304 3.80675 77.0278
2676464 14.4104 14.3294 26.0955 22.1926 -1.29304 3.80675 77.0278
2676474 14.4544 14.3294 26.066 22.2315 -1.28421 3.79737 77.0813
2676484 14.4544 14.3294 26.066 22.2315 -1.28421 3.79737 77.0813
2676495 14.472 14.3754 26.0759 22.1438 -1.30686 3.77053 77.0671
2676503 14.4808 14.403 26.0857 22.1828 -1.28988 3.76877 77.1524
2676513 14.4808 14.403 26.0857 22.1828 -1.28988 3.76877 77.1524
2676525 14.4456 14.357 26.066 22.1926 -1.28537 3.78712 77.0611
2676535 14.4984 14.3386 26.2137 22.1926 -1.35319 3.80018 77.2432
2676555 14.4632 14.3846 26.1448 22.1536 -1.31885 3.78188 77.1462
2676565 14.4632 14.3846 26.1448 22.1536 -1.31885 3.78188 77.1462
2676576 14.4896 14.3662 26.1152 22.0951 -1.34415 3.76712 77.0662
2676585 14.4544 14.3478 26.0955 22.0367 -1.35358 3.7688 76.9344
2676597 14.4544 14.3478 26.0955 22.0367 -1.35358 3.7688 76.9344
2676605 14.3927 14.2557 26.1349 21.988 -1.39506 3.80502 76.7713
2676617 14.4016 14.2649 26.1251 21.9782 -1.39492 3.79775 76.7697
2676626 14.4016 14.2649 26.1251 21.9782 -1.39492 3.79775 76.7697
2676636 14.4456 14.2649 26.1546 22.0269 -1.40078 3.79839 76.892
2676646 14.472 14.3017 26.1054 21.9685 -1.40121 3.76722 76.8476
2676656 14.472 14.3017 26.1054 21.9685 -1.40121 3.76722 76.8476
2676666 14.4632 14.357 26.194 22.1146 -1.35669 3.7901 77.1288
2676686 14.472 14.3846 26.1349 22.1438 -1.32186 3.77689 77.1354
2676696 14.5161 14.3846 26.0955 22.1049 -1.33659 3.75476 77.1011
2676707 14.5161 14.3846 26.0955 22.1049 -1.33659 3.75476 77.1011
2676717 14.5073 14.3938 26.1054 22.0854 -1.34042 3.75326 77.0919
2676727 14.5513 14.4491 26.066 22.0269 -1.34295 3.71483 77.0933
2676747 14.5601 14.4583 26.0168 21.988 -1.34072 3.69753 77.0231
2676768 14.5161 14.403 26.1054 22.0464 -1.3533 3.74319 77.0709
2676778 14.5249 14.4122 26.0759 22.0269 -1.35045 3.73164 77.0399
2676798 14.5161 14.3938 26.1054 22.0367 -1.35978 3.744 77.0519
2676810 14.4984 14.3386 26.0759 22.0854 -1.34754 3.76454 76.9983
2676819 14.4984 14.3386 26.0759 22.0854 -1.34754 3.76454 76.9983
2676830 14.4192 14.4122 26.1251 22.1341 -1.29649 3.78018 77.0906
2676840 14.4192 14.4122 26.1251 22.1341 -1.29649 3.78018 77.0906
2676850 14.4456 14.3202 26.2038 22.1146 -1.3669 3.80481 77.0842
2676860 14.3839 14.3754 26.1152 22.0367 -1.32851 3.78213 76.9112
2676870 14.3839 14.3754 26.1152 22.0367 -1.32851 3.78213 76.9112
2676880 14.4544 14.357 26.1152 22.0659 -1.34648 3.77369 76.9925
2676890 14.4104 14.4122 26.1054 22.0562 -1.31434 3.7681 76.9841
2676900 14.4104 14.4122 26.1054 22.0562 -1.31434 3.7681 76.9841
2676911 14.4632 14.403 26.0759 22.0464 -1.32799 3.75173 76.9885
2676920 14.4544 14.403 25.9971 22.0464 -1.30104 3.74236 76.901
2676930 14.4544 14.4859 25.9971 22.0464 -1.27273 3.72218 76.9838
2676940 14.428 14.4122 26.0365 22.1146 -1.27859 3.76228 76.9913
2676953 14.428 14.4122 26.0365 22.1146 -1.27859 3.76228 76.9913
2676960 14.4104 14.4215 26.0168 22.0659 -1.28058 3.75434 76.9145
2676970 14.4368 14.403 26.0365 22.1926 -1.25786 3.77374 77.0688
2676981 14.4368 14.403 26.0365 22.1926 -1.25786 3.77374 77.0688
2676990 14.4544 14.4491 26.0955 22.1731 -1.27241 3.76402 77.1721
2677000 14.4544 14.4491 26.0955 22.1731 -1.27241 3.76402 77.1721
2677011 14.5337 14.4122 25.9971 22.1731 -1.27907 3.73935 77.1161
2677021 14.472 14.4122 26.0168 22.1926 -1.25951 3.76005 77.0936
2677032 14.472 14.4122 26.0168 22.1926 -1.25951 3.76005 77.0936
2677041 14.4896 14.4491 25.9577 22.1828 -1.23752 3.73677 77.0793
2677051 14.4984 14.3662 26.0069 22.1926 -1.28031 3.7634 77.0641
2677061 14.4984 14.3662 26.0069 22.1926 -1.28031 3.7634 77.0641
2677071 14.4632 14.4491 26.0759 22.2413 -1.24588 3.76893 77.2294
2677081 14.4632 14.4491 26.0759 22.2413 -1.24588 3.76893 77.2294
2677091 14.3927 14.403 26.0857 22.1731 -1.2661 3.78881 77.0545
2677101 14.3751 14.3202 26.1152 22.29 -1.25818 3.83459 77.1005
2677121 14.3927 14.4215 26.0955 22.2802 -1.22639 3.80132 77.19
2677132 14.3575 14.3017 26.1152 22.3289 -1.24575 3.84904 77.1034
2677141 14.3575 14.3017 26.1152 22.3289 -1.24575 3.84904 77.1034
2677151 14.3047 14.3478 26.1448 22.3679 -1.20966 3.8606 77.1651
2677161 14.3047 14.3478 26.1448 22.3679 -1.20966 3.8606 77.1651
2677171 14.3311 14.2741 26.1054 22.3971 -1.22077 3.87069 77.1077
2677181 14.3135 14.2189 26.1448 22.3874 -1.2496 3.89281 77.0645
2677191 14.3135 14.2189 26.1448 22.3874 -1.2496 3.89281 77.0645
2677201 14.3135 14.3109 26.066 22.3095 -1.22048 3.84761 76.9999
2677211 14.3223 14.2189 26.1644 22.3289 -1.2783 3.88506 77.0345
2677222 14.3223 14.2189 26.1644 22.3289 -1.2783 3.88506 77.0345
2677232 14.3399 14.2373 26.066 22.2705 -1.26705 3.85354 76.9137
2677250 14.3399 14.2373 26.066 22.2705 -1.26705 3.85354 76.9137
2677252 14.3487 14.182 26.1841 22.2705 -1.32504 3.88202 76.9853
2677262 14.3839 14.2741 26.1448 22.2705 -1.29231 3.84515 77.0733
2677272 14.3839 14.2741 26.1448 22.2705 -1.29231 3.84515 77.0733
2677282 14.3927 14.2465 26.1546 22.2023 -1.33078 3.8413 76.9961
2677292 14.4104 14.2833 26.1054 22.1926 -1.31179 3.81943 76.9916
2677302 14.4104 14.2833 26.1054 22.1926 -1.31179 3.81943 76.9916
2677315 14.4544 14.3109 26.1644 22.2218 -1.32406 3.81474 77.1516
2677322 14.4544 14.3109 26.1644 22.2218 -1.32406 3.81474 77.1516
2677333 14.4368 14.2465 26.2038 22.1926 -1.36274 3.83625 77.0796
2677343 14.3487 14.2741 26.2334 22.1731 -1.34199 3.85249 77.0292
2677353 14.3487 14.2741 26.2334 22.1731 -1.34199 3.85249 77.0292
2677363 14.3575 14.2557 26.2629 22.2413 -1.33674 3.86896 77.1173
2677373 14.3487 14.182 26.3909 22.2802 -1.38511 3.91319 77.2018
2677383 14.3487 14.182 26.3909 22.2802 -1.38511 3.91319 77.2018
2677393 14.3223 14.1636 26.4007 22.3582 -1.35971 3.93677 77.2447
2677413 14.2606 14.182 26.3712 22.2997 -1.34544 3.93476 77.1135
2677423 14.2606 14.182 26.4302 22.3192 -1.35689 3.94602 77.1921
2677433 14.2606 14.182 26.4302 22.3192 -1.35689 3.94602 77.1921
2677445 14.3047 14.2189 26.4007 22.3484 -1.33879 3.92615 77.2726
2677455 14.2782 14.1452 26.3416 22.3387 -1.34105 3.94084 77.1037
2677465 14.2782 14.1452 26.3416 22.3387 -1.34105 3.94084 77.1037
2677475 14.2606 14.2557 26.3909 22.4458 -1.2766 3.94045 77.353
2677485 14.2606 14.2557 26.3909 22.4458 -1.2766 3.94045 77.353
2677495 14.2694 14.1912 26.4204 22.3679 -1.33681 3.94717 77.2489
2677505 14.243 14.2281 26.4007 22.3679 -1.31012 3.9418 77.2397
2677515 14.243 14.2281 26.4007 22.3679 -1.31012 3.9418 77.2397
2677525 14.2606 14.1452 26.4696 22.3192 -1.38152 3.96071 77.1946
2677536 14.2078 14.1268 26.3909 22.3095 -1.35082 3.96557 77.0348
2677555 14.2078 14.0623 26.4893 22.3387 -1.39306 3.99969 77.098
2677565 14.2078 14.0623 26.4893 22.3387 -1.39306 3.99969 77.098
2677575 14.1197 14.0255 26.5582 22.3387 -1.3998 4.04034 77.042
2677585 14.1461 13.9794 26.5976 22.3192 -1.44241 4.04802 77.0423
2677606 14.0933 14.0439 26.6566 22.3582 -1.40886 4.05907 77.1519
2677616 14.1461 13.9794 26.6665 22.3582 -1.4501 4.06333 77.1502
2677626 14.1461 13.9794 26.6665 22.3582 -1.4501 4.06333 77.1502
2677640 14.1902 13.9057 26.7255 22.3582 -1.5068 4.07902 77.1796
2677660 14.1902 13.9057 26.7255 22.3582 -1.5068 4.07902 77.1796
2677661 14.1285 13.9334 26.7255 22.3289 -1.48857 4.0833 77.1163
2677678 14.1637 13.9426 26.6566 22.2607 -1.49858 4.05286 77.0237
2677687 14.1373 13.9242 26.7058 22.2705 -1.50851 4.07232 77.0378
2677698 14.199 13.9334 26.7157 22.2315 -1.54054 4.05066 77.0795
2677707 14.199 13.9334 26.7157 22.2315 -1.54054 4.05066 77.0795
2677717 14.1549 13.9242 26.7255 22.2023 -1.54337 4.06108 77.0069
2677727 14.1549 13.9242 26.7255 22.2023 -1.54337 4.06108 77.0069
2677737 14.199 13.9702 26.7354 22.2607 -1.5238 4.04851 77.1653
2677747 14.1902 13.8781 26.7354 22.1536 -1.58979 4.05823 76.9572
2677761 14.1902 13.8781 26.7354 22.1536 -1.58979 4.05823 76.9572
2677767 14.2078 13.9426 26.8043 22.1731 -1.58711 4.05049 77.1277
2677778 14.1902 13.9242 26.7452 22.0951 -1.59707 4.03992 76.9547
2677788 14.1902 13.9242 26.7452 22.0951 -1.59707 4.03992 76.9547
2677798 14.199 13.8781 26.8338 22.1926 -1.60892 4.07555 77.1034
2677808 14.199 13.8781 26.8338 22.1926 -1.60892 4.07555 77.1034
2677818 14.1637 13.8505 26.8633 22.1438 -1.63355 4.0884 77.0214
2677828 14.2342 13.9242 26.8732 22.1828 -1.61901 4.05967 77.2144
2677838 14.2342 13.9242 26.8732 22.1828 -1.61901 4.05967 77.2144
2677850 14.1725 13.9057 26.9224 22.1049 -1.6485 4.07539 77.1056
2677858 14.1725 13.8965 26.9913 22.0951 -1.6759 4.08604 77.1555
2677870 14.1725 13.8965 26.9913 22.0951 -1.6759 4.08604 77.1555
2677880 14.2078 13.9426 26.9323 22.1244 -1.64269 4.06173 77.207
2677890 14.2078 13.9426 26.9323 22.1244 -1.64269 4.06173 77.207
2677900 14.1813 13.915 26.8338 22.1146 -1.61776 4.05975 77.0447
2677910 14.1902 13.961 26.8141 22.1049 -1.60192 4.042 77.0702
2677920 14.1902 13.961 26.8141 22.1049 -1.60192 4.042 77.0702
2677930 14.2606 13.9518 26.696 22.1438 -1.57718 4.01561 77.0523
2677940 14.243 13.9702 26.6862 22.1341 -1.56583 4.01262 77.0335
2677960 14.3047 14.0255 26.696 22.1438 -1.56517 3.9866 77.17
2677980 14.2518 14.0255 26.6665 22.1244 -1.54684 3.99262 77.0681
2677990 14.2782 13.9886 26.6763 22.1049 -1.57728 3.99381 77.048
2678000 14.2782 13.9886 26.6763 22.1049 -1.57728 3.99381 77.048
2678010 14.3311 13.9794 26.6369 22.1244 -1.57783 3.98021 77.0718
2678020 14.287 14.0255 26.6173 22.0951 -1.55265 3.97272 77.0249
2678030 14.287 14.0255 26.6173 22.0951 -1.55265 3.97272 77.0249
2678040 14.3223 14.0991 26.6173 22.1341 -1.5246 3.95151 77.1728
2678050 14.3223 14.0991 26.6173 22.1341 -1.5246 3.95151 77.1728
2678060 14.3047 14.0991 26.5483 22.1438 -1.4949 3.94736 77.096
2678071 14.287 14.1083 26.5385 22.1341 -1.48671 3.94662 77.068
2678081 14.287 14.1083 26.5385 22.1341 -1.48671 3.94662 77.068
2678091 14.3135 14.1728 26.4893 22.1633 -1.4476 3.92143 77.1389
2678101 14.3487 14.2373 26.4401 22.1536 -1.42457 3.88853 77.1796
2678111 14.3487 14.2373 26.4401 22.1536 -1.42457 3.88853 77.1796
2678121 14.2694 14.2189 26.4794 22.2218 -1.39535 3.92792 77.1895
2678131 14.2694 14.2189 26.4794 22.2218 -1.39535 3.92792 77.1895
2678141 14.2694 14.1544 26.4499 22.2607 -1.39503 3.94509 77.1345
2678151 14.2782 14.2096 26.4105 22.212 -1.38344 3.91673 77.1105
2678161 14.2782 14.2096 26.4105 22.212 -1.38344 3.91673 77.1105
2678171 14.2606 14.2096 26.3318 22.2218 -1.35055 3.91112 77.0238
2678181 14.2254 14.1544 26.3712 22.2607 -1.3574 3.94462 77.0117
2678202 14.1637 14.2189 26.3712 22.3679 -1.27984 3.95929 77.1217
2678212 14.1637 14.2189 26.3712 22.3679 -1.27984 3.95929 77.1217
2678222 14.1813 14.1912 26.3515 22.4264 -1.2687 3.9673 77.1504
2678232 14.1725 14.2004 26.3416 22.5628 -1.21348 3.98527 77.2774
2678252 14.1373 14.2649 26.2334 22.5238 -1.16058 3.95706 77.1593
2678262 14.1109 14.136 26.253 22.5725 -1.18572 4.00507 77.0724
2678273 14.1109 14.136 26.253 22.5725 -1.18572 4.00507 77.0724
2678285 14.1109 14.2557 26.2235 22.6115 -1.12279 3.97694 77.2015
2678293 14.1109 14.2557 26.2235 22.6115 -1.12279 3.97694 77.2015
2678305 14.058 14.2741 26.1546 22.6699 -1.05908 3.98392 77.1567
2678316 14.0756 14.2833 26.1152 22.5822 -1.07886 3.95914 77.0564
2678327 14.0756 14.2833 26.1152 22.5822 -1.07886 3.95914 77.0564
2678338 14.1285 14.2557 26.0759 22.5043 -1.11882 3.9361 76.9643
2678343 14.1021 14.2281 26.1054 22.553 -1.11263 3.96064 76.9885
2678353 14.1021 14.2281 26.1054 22.553 -1.11263 3.96064 76.9885
2678363 14.1637 14.3109 26.0955 22.6017 -1.08414 3.93069 77.1719
2678385 14.1197 14.2281 26.0857 22.592 -1.09878 3.95907 77.0254
2678396 14.1637 14.3017 26.0857 22.5725 -1.09409 3.92734 77.1237
2678405 14.1637 14.3017 26.0857 22.5725 -1.09409 3.92734 77.1237
2678416 14.1373 14.2925 26.1054 22.7186 -1.04576 3.95984 77.2538
2678425 14.1109 14.2465 26.1251 22.6699 -1.07565 3.97349 77.1523
2678445 14.1021 14.2833 26.1841 22.5725 -1.11171 3.96112 77.142
2678455 14.1021 14.2833 26.1841 22.5725 -1.11171 3.96112 77.142
2678465 14.0933 14.2925 26.2629 22.592 -1.12365 3.97506 77.2406
2678475 14.1725 14.2741 26.2629 22.5238 -1.17745 3.95037 77.2333
2678485 14.1725 14.2741 26.2629 22.5238 -1.17745 3.95037 77.2333
2678496 14.1109 14.2741 26.2235 22.5043 -1.15285 3.95709 77.1128
2678506 14.1021 14.2925 26.253 22.4458 -1.17284 3.95058 77.0935
2678526 14.1813 14.2925 26.1644 22.3484 -1.20308 3.90437 76.9867
2678546 14.1109 14.2373 26.2235 22.3387 -1.22169 3.94239 76.9103
2678556 14.1637 14.3017 26.3318 22.3095 -1.2594 3.92491 77.1067
2678566 14.1637 14.3017 26.3318 22.3095 -1.2594 3.92491 77.1067
2678577 14.058 14.2833 26.3023 22.3582 -1.20738 3.95817 77.0018
2678588 14.0845 14.2096 26.3712 22.3192 -1.27519 3.9741 76.9845
2678597 14.0845 14.2096 26.3712 22.3192 -1.27519 3.9741 76.9845
2678607 14.1637 14.2465 26.3613 22.3874 -1.26077 3.95389 77.1589
2678617 14.1637 14.2465 26.3613 22.3874 -1.26077 3.95389 77.1589
2678627 14.1197 14.2465 26.3909 22.3192 -1.27953 3.95917 77.0762
2678637 14.2254 14.2833 26.4007 22.3582 -1.28922 3.93118 77.2676
2678647 14.2254 14.2833 26.4007 22.3582 -1.28922 3.93118 77.2676
2678657 14.2342 14.2833 26.2727 22.3192 -1.26586 3.90505 77.1094
2678681 14.2342 14.2741 26.2629 22.3192 -1.26597 3.90589 77.0904
2678683 14.2342 14.2741 26.2629 22.3192 -1.26597 3.90589 77.0904
2678687 14.2782 14.3202 26.2432 22.2315 -1.28766 3.86834 77.0731
2678707 14.3223 14.2925 26.2334 22.1731 -1.32757 3.85445 77.0212
2678717 14.3047 14.3386 26.194 22.1828 -1.29098 3.8432 77.02
2678727 14.3047 14.3386 26.194 22.1828 -1.29098 3.8432 77.02
2678737 14.3663 14.3202 26.2137 22.1341 -1.33893 3.82842 77.0342
2678747 14.287 14.3202 26.3023 22.1244 -1.34512 3.85923 77.0338
2678757 14.287 14.3202 26.3023 22.1244 -1.34512 3.85923 77.0338
2678767 14.3663 14.2833 26.3023 22.1438 -1.37538 3.85166 77.0957
2678777 14.3663 14.2833 26.3023 22.1438 -1.37538 3.85166 77.0957
2678787 14.3399 14.3109 26.2924 22.1926 -1.33816 3.85699 77.1358
2678797 14.3311 14.3017 26.2629 22.2023 -1.32621 3.85854 77.098
2678818 14.4104 14.3846 26.2235 22.1731 -1.32016 3.80902 77.1916
2678828 14.3839 14.3754 26.3023 22.1341 -1.35263 3.82347 77.1957
2678838 14.3839 14.3754 26.3023 22.1341 -1.35263 3.82347 77.1957
2678848 14.3751 14.3938 26.2924 22.0659 -1.36392 3.80981 77.1273
2678858 14.3751 14.3938 26.2924 22.0659 -1.36392 3.80981 77.1273
2678868 14.3223 14.3386 26.3219 22.0659 -1.37567 3.84049 77.0487
2678878 14.3047 14.3662 26.253 22.0367 -1.34966 3.82381 76.9606
2678890 14.3047 14.3662 26.253 22.0367 -1.34966 3.82381 76.9606
2678900 14.3047 14.357 26.2826 22.0075 -1.3719 3.82611 76.9517
2678910 14.3663 14.3846 26.3023 22.0367 -1.37738 3.8114 77.0899
2678921 14.3663 14.3846 26.3023 22.0367 -1.37738 3.8114 77.0899
2678932 14.3399 14.3754 26.4007 21.9782 -1.4226 3.82589 77.0942
2678942 14.3311 14.4122 26.2826 22.1438 -1.3145 3.82593 77.1697
2678971 14.3223 14.4307 26.3121 22.0756 -1.33784 3.81799 77.1407
2678972 14.3223 14.4307 26.3121 22.0756 -1.33784 3.81799 77.1407
2678981 14.3135 14.3662 26.3318 22.0659 -1.36654 3.83732 77.0774
2678991 14.2959 14.3938 26.3023 22.0951 -1.33264 3.83483 77.0871
2679001 14.2959 14.3938 26.3023 22.0951 -1.33264 3.83483 77.0871
2679011 14.2694 14.403 26.3416 22.1341 -1.32016 3.85037 77.1482
2679023 14.2254 14.403 26.2924 22.1341 -1.2915 3.85402 77.0549
2679033 14.2254 14.3294 26.2924 22.1049 -1.32666 3.86784 76.952
2679041 14.287 14.3662 26.4302 22.1244 -1.36862 3.86645 77.2078
2679051 14.287 14.3662 26.4302 22.1244 -1.36862 3.86645 77.2078
2679061 14.2254 14.3662 26.3613 22.1146 -1.33191 3.87018 77.0675
2679071 14.2606 14.3662 26.3712 22.1438 -1.33577 3.8672 77.1418
2679082 14.2606 14.3662 26.3712 22.1438 -1.33577 3.8672 77.1418
2679092 14.2606 14.3662 26.3416 22.0951 -1.34335 3.8559 77.0636
2679102 14.2606 14.3662 26.3416 22.0951 -1.34335 3.8559 77.0636
2679112 14.2078 14.3294 26.3023 22.1536 -1.30762 3.88062 76.993
2679122 14.1637 14.3662 26.4401 22.2315 -1.29728 3.91346 77.2015
2679143 14.2254 14.3478 26.3416 22.1633 -1.31552 3.87888 77.0781
2679152 14.1637 14.3478 26.3416 22.212 -1.27994 3.90101 77.0652
2679165 14.1637 14.3478 26.3416 22.212 -1.27994 3.90101 77.0652
2679172 14.2518 14.3938 26.3318 22.2023 -1.29162 3.86535 77.1797
2679195 14.1549 14.3294 26.2727 22.1828 -1.27226 3.89355 76.9398
2679203 14.2518 14.403 26.2727 22.2218 -1.2637 3.85739 77.1494
2679215 14.2518 14.403 26.2727 22.2218 -1.2637 3.85739 77.1494
2679227 14.243 14.3017 26.3023 22.1828 -1.3179 3.88298 77.0298
2679235 14.2518 14.357 26.253 22.2315 -1.27 3.86721 77.0934
2679245 14.2518 14.357 26.253 22.2315 -1.27 3.86721 77.0934
2679255 14.2342 14.4399 26.3219 22.212 -1.26419 3.85839 77.208
2679265 14.199 14.3478 26.2727 22.2315 -1.26293 3.88525 77.051
2679275 14.199 14.3478 26.2727 22.2315 -1.26293 3.88525 77.051
2679285 14.1902 14.3846 26.3318 22.212 -1.27249 3.88409 77.1186
2679295 14.1902 14.3846 26.3318 22.212 -1.27249 3.88409 77.1186
2679305 14.2166 14.4215 26.1841 22.2315 -1.21595 3.8501 77.0537
2679315 14.2342 14.3938 26.2432 22.212 -1.25563 3.85827 77.0833
2679337 14.2342 14.4491 26.1644 22.1438 -1.23576 3.82347 76.9916
2679345 14.1902 14.3662 26.2038 22.212 -1.23933 3.87013 76.9722
2679355 14.1902 14.3662 26.2038 22.212 -1.23933 3.87013 76.9722
2679365 14.1902 14.403 26.194 22.2218 -1.22042 3.86109 77.0089
2679375 14.1902 14.403 26.194 22.2218 -1.22042 3.86109 77.0089
2679386 14.2254 14.4215 26.2137 22.1828 -1.24436 3.84517 77.0433
2679395 14.1902 14.3754 26.194 22.212 -1.23315 3.86645 76.9716
2679405 14.1902 14.3754 26.194 22.212 -1.23315 3.86645 76.9716
2679415 14.2342 14.4767 26.1841 22.3095 -1.17615 3.84356 77.2045
2679425 14.2342 14.4767 26.1841 22.3095 -1.17615 3.84356 77.2045
2679437 14.1637 14.357 26.1546 22.3874 -1.15943 3.89707 77.0627
2679446 14.1902 14.3938 26.2038 22.4361 -1.1538 3.89567 77.2239
2679456 14.1902 14.3938 26.2038 22.4361 -1.1538 3.89567 77.2239
2679466 14.1109 14.3478 26.2727 22.4458 -1.1629 3.93767 77.1772
2679476 14.1021 14.357 26.2727 22.4848 -1.14386 3.94316 77.2166
2679488 14.1021 14.357 26.2727 22.4848 -1.14386 3.94316 77.2166
2679496 14.1461 14.3846 26.2629 22.4653 -1.15166 3.92139 77.2589
2679516 14.0316 14.3017 26.3219 22.553 -1.13291 3.99082 77.2083
2679526 13.9876 14.3109 26.3219 22.5335 -1.12277 3.99661 77.154
2679536 13.9876 14.3109 26.3219 22.5335 -1.12277 3.99661 77.154
2679546 13.9964 14.2741 26.3318 22.5822 -1.12452 4.01186 77.1845
2679556 13.9347 14.2096 26.3416 22.553 -1.14024 4.04022 77.039
2679566 13.9347 14.2096 26.3416 22.553 -1.14024 4.04022 77.039
2679576 13.9876 14.2281 26.3613 22.4848 -1.17958 4.01571 77.0618
2679605 13.9171 14.2281 26.2924 22.4751 -1.13973 4.0219 76.9126
2679612 14.0052 14.2925 26.3121 22.514 -1.13801 3.99262 77.1238
2679617 14.0052 14.2925 26.3121 22.514 -1.13801 3.99262 77.1238
2679627 13.9876 14.2741 26.2432 22.3874 -1.16047 3.97353 76.8923
2679637 14.0316 14.3017 26.2038 22.4946 -1.11615 3.96558 77.0317
2679647 14.0316 14.3017 26.2038 22.4946 -1.11615 3.96558 77.0317
2679657 14.0668 14.2833 26.2924 22.5238 -1.15081 3.9783 77.1664
2679667 14.0668 14.2833 26.2924 22.5238 -1.15081 3.9783 77.1664
2679677 14.0492 14.3109 26.3023 22.5725 -1.12257 3.98419 77.2349
2679687 14.0668 14.3386 26.2924 22.5238 -1.1321 3.96472 77.2216
2679697 14.0668 14.3386 26.2924 22.5238 -1.1321 3.96472 77.2216
2679707 14.0668 14.3294 26.253 22.5433 -1.11645 3.96414 77.1925
2679717 14.0052 14.2925 26.2727 22.4751 -1.13904 3.98143 77.0455
2679727 14.0052 14.2925 26.2727 22.4751 -1.13904 3.98143 77.0455
2679737 14.014 14.3202 26.2235 22.4848 -1.11384 3.96681 77.0425
2679747 14.014 14.3202 26.2235 22.4848 -1.11384 3.96681 77.0425
2679757 13.9964 14.3017 26.2924 22.4848 -1.13598 3.98554 77.0753
2679767 14.0052 14.3109 26.2924 22.4458 -1.1488 3.97553 77.0544
2679777 14.0052 14.3109 26.2924 22.4458 -1.1488 3.97553 77.0544
2679787 14.0228 14.3386 26.2924 22.5628 -1.1053 3.9811 77.2165
2679807 14.0404 14.2649 26.3613 22.553 -1.16027 4.00332 77.2196
2679817 14.0228 14.3386 26.3121 22.514 -1.12787 3.97696 77.1875
2679827 14.0228 14.3386 26.3121 22.514 -1.12787 3.97696 77.1875
2679837 14.0052 14.2649 26.3318 22.4751 -1.16669 3.99668 77.0769
2679848 14.0052 14.2465 26.3613 22.5335 -1.16224 4.01376 77.1465
2679858 14.0052 14.2465 26.3613 22.5335 -1.16224 4.01376 77.1465
2679868 14.014 14.3662 26.2924 22.4458 -1.13279 3.95977 77.1184
2679888 14.014 14.3017 26.2629 22.4653 -1.1389 3.97419 77.0439
2679898 14.058 14.2925 26.3121 22.3777 -1.20066 3.96011 77.0403
2679918 14.0668 14.3017 26.253 22.3289 -1.19856 3.94021 76.9506
2679928 14.0845 14.3478 26.2334 22.29 -1.19552 3.91611 76.9556
2679938 14.0845 14.3478 26.2334 22.29 -1.19552 3.91611 76.9556
2679950 14.1021 14.3754 26.2432 22.3777 -1.16481 3.91903 77.0983
2679960 14.058 14.3202 26.3416 22.3095 -1.22358 3.94777 77.0293
2679970 14.058 14.3202 26.3416 22.3095 -1.22358 3.94777 77.0293
2679980 14.1021 14.2925 26.3121 22.3582 -1.22088 3.94648 77.0649
2680005 14.0933 14.3386 26.3909 22.3387 -1.23341 3.94583 77.1614
2680010 14.0404 14.3478 26.4499 22.3095 -1.24213 3.96082 77.1476
2680030 14.058 14.2833 26.4499 22.3192 -1.26618 3.97373 77.1105
2680040 14.0756 14.2833 26.4598 22.2802 -1.28791 3.96523 77.0989
2680050 14.0756 14.2833 26.4598 22.2802 -1.28791 3.96523 77.0989
2680061 14.0316 14.2925 26.4204 22.3582 -1.23255 3.97932 77.1027
2680071 14.0316 14.2925 26.4204 22.3582 -1.23255 3.97932 77.1027
2680081 14.0316 14.2649 26.4794 22.3484 -1.26346 3.99317 77.1244
2680092 14.0404 14.2649 26.4893 22.3874 -1.25593 3.99796 77.182
2680104 14.0404 14.2649 26.4893 22.3874 -1.25593 3.99796 77.182
2680121 14.0052 14.2925 26.4893 22.4069 -1.22907 4.00261 77.1939
2680131 14.0052 14.2925 26.4893 22.4069 -1.22907 4.00261 77.1939
2680141 13.9964 14.2096 26.5582 22.4264 -1.26912 4.03777 77.1906
2680151 13.9964 14.2096 26.5582 22.4264 -1.26912 4.03777 77.1906
2680161 14.0052 14.1636 26.4991 22.3777 -1.28595 4.03164 77.0456
2680171 14.0668 14.2189 26.4598 22.3095 -1.29722 3.98745 77.0549
2680191 14.0845 14.3017 26.4598 22.3289 -1.26775 3.96551 77.1749
2680201 14.0228 14.1912 26.4302 22.3679 -1.26405 4.00926 77.0122
2680222 14.0845 14.1912 26.5779 22.4556 -1.29853 4.02755 77.3092
2680233 14.0845 14.1912 26.5779 22.4556 -1.29853 4.02755 77.3092
2680245 13.9876 14.2189 26.5582 22.4264 -1.26328 4.03768 77.191
2680257 13.9788 14.1912 26.5779 22.4556 -1.26608 4.0536 77.2035
2680262 13.9788 14.1912 26.5779 22.4556 -1.26608 4.0536 77.2035
2680273 13.9699 14.2465 26.4991 22.4556 -1.22034 4.03097 77.1711
2680282 13.9699 14.2465 26.509 22.4556 -1.22338 4.03236 77.181
2680292 13.9876 14.136 26.509 22.4069 -1.28301 4.04838 77.0394
2680302 13.9611 14.1452 26.509 22.4264 -1.26509 4.05541 77.0417
2680312 13.9611 14.1452 26.509 22.4264 -1.26509 4.05541 77.0417
2680323 13.9788 14.2189 26.5188 22.4264 -1.24845 4.03425 77.1428
2680333 13.9347 14.1544 26.4598 22.3971 -1.24859 4.04851 76.946
2680343 13.9347 14.1544 26.4598 22.3971 -1.24859 4.04851 76.946
2680353 13.9876 14.1544 26.509 22.3679 -1.29002 4.03828 77.0188
2680363 13.9611 14.1636 26.4794 22.4556 -1.23975 4.05081 77.0598
2680384 13.9788 14.2004 26.5385 22.4751 -1.24421 4.04851 77.1928
2680393 13.9788 14.2004 26.5385 22.4751 -1.24421 4.04851 77.1928
2680403 13.9435 14.1268 26.5287 22.4458 -1.26536 4.06989 77.0448
2680415 13.9259 14.1083 26.6074 22.553 -1.25396 4.10511 77.1947
2680425 13.9259 14.1083 26.6074 22.553 -1.25396 4.10511 77.1947
2680435 13.9259 14.0991 26.6468 22.4946 -1.2891 4.1047 77.1664
2680445 13.9259 14.1268 26.5976 22.4264 -1.28779 4.08125 77.0766
2680466 13.9788 14.1452 26.5877 22.4264 -1.29474 4.06223 77.138
2680475 13.9788 14.1452 26.5877 22.4264 -1.29474 4.06223 77.138
2680485 13.9788 14.1452 26.5976 22.3484 -1.32436 4.05256 77.0699
2680496 14.0228 14.182 26.5582 22.4361 -1.28333 4.03945 77.1991
2680506 14.0228 14.182 26.5582 22.4361 -1.28333 4.03945 77.1991
2680516 13.9964 14.182 26.568 22.3679 -1.30147 4.03768 77.1143
2680526 13.9699 14.1728 26.6173 22.4848 -1.2718 4.07004 77.2448
2680536 13.9699 14.1728 26.6173 22.4848 -1.2718 4.07004 77.2448
2680546 14.0052 14.2004 26.6271 22.4946 -1.27293 4.05731 77.3273
2680556 14.0052 14.2004 26.6271 22.4946 -1.27293 4.05731 77.3273
2680566 13.9611 14.1636 26.5582 22.4946 -1.25075 4.06751 77.1775
2680576 13.9259 14.136 26.6369 22.5043 -1.27022 4.09556 77.2031
2680596 13.8819 14.1544 26.568 22.4848 -1.23581 4.08941 77.0891
2680606 13.9083 14.136 26.6369 22.5335 -1.25486 4.10405 77.2147
2680617 13.9083 14.136 26.6369 22.5335 -1.25486 4.10405 77.2147
2680627 13.9259 14.1083 26.5877 22.4751 -1.27444 4.09131 77.097
2680637 13.9259 14.1083 26.5877 22.4751 -1.27444 4.09131 77.097
2680647 13.8114 14.0715 26.509 22.4848 -1.22406 4.11911 76.8767
2680657 13.8995 14.0807 26.4991 22.4166 -1.26836 4.08387 76.896
2680667 13.8995 14.0807 26.4991 22.4166 -1.26836 4.08387 76.896
2680677 13.8995 14.0991 26.568 22.4751 -1.26338 4.09736 77.0417
2680690 13.8202 14.1268 26.6369 22.5043 -1.24082 4.12403 77.0882
2680698 13.8202 14.1268 26.6369 22.5043 -1.24082 4.12403 77.0882
2680710 13.8202 14.0439 26.6468 22.5822 -1.24553 4.15697 77.0931
2680731 13.8202 14.0439 26.6468 22.5822 -1.24553 4.15697 77.0931
2680734 13.8466 14.0715 26.5877 22.5725 -1.22938 4.13386 77.0784
2680739 13.8554 14.0347 26.5877 22.6407 -1.22143 4.15042 77.1185
2680749 13.8554 14.0347 26.5877 22.6407 -1.22143 4.15042 77.1185
2680759 13.829 14.0347 26.6566 22.6017 -1.24778 4.1612 77.122
2680771 13.8819 14.1083 26.6173 22.6894 -1.19713 4.13661 77.2969
2680789 13.9435 14.0347 26.6468 22.6504 -1.26341 4.13826 77.2754
2680810 13.8026 14.007 26.6566 22.6017 -1.24905 4.17463 77.068
2680821 13.8554 14.0991 26.6468 22.6212 -1.22435 4.14 77.2226
2680840 13.7938 14.0255 26.6173 22.592 -1.23123 4.16534 77.0285
2680850 13.8202 14.007 26.6665 22.6115 -1.25419 4.17301 77.1052
2680860 13.8202 14.007 26.6665 22.6115 -1.25419 4.17301 77.1052
2680875 13.8114 13.9978 26.7649 22.6407 -1.27495 4.19538 77.2148
2680884 13.785 13.9702 26.7354 22.6894 -1.25057 4.21151 77.18
2680893 13.785 13.9702 26.7354 22.6894 -1.25057 4.21151 77.18
2680901 13.8466 13.961 26.7944 22.6894 -1.29079 4.20672 77.2915
2680912 13.8466 13.961 26.7944 22.6894 -1.29079 4.20672 77.2915
2680922 13.7762 13.8965 26.7846 22.6407 -1.30468 4.23213 77.098
2680931 13.7321 13.9426 26.824 22.6504 -1.28423 4.23849 77.1491
2680941 13.7321 13.9426 26.824 22.6504 -1.28423 4.23849 77.1491
2680951 13.7585 13.9242 26.7944 22.592 -1.30949 4.2242 77.0691
2680961 13.7585 13.9242 26.7944 22.592 -1.30949 4.2242 77.0691
2680971 13.7585 13.8965 26.8043 22.6309 -1.30865 4.23792 77.0903
2680983 13.7321 13.8965 26.9224 22.6699 -1.3235 4.26639 77.221
2680991 13.7321 13.8965 26.9224 22.6699 -1.3235 4.26639 77.221
2681002 13.7674 13.8781 26.9224 22.6212 -1.3572 4.25542 77.1891
2681011 13.7938 13.8965 26.9126 22.5433 -1.38262 4.232 77.1461
2681021 13.7938 13.8965 26.9126 22.5433 -1.38262 4.232 77.1461
2681031 13.7585 13.9242 26.9815 22.5335 -1.38681 4.24215 77.1977
2681054 13.7674 13.8781 26.9618 22.514 -1.4059 4.24598 77.1213
2681061 13.829 13.9794 27.0012 22.5822 -1.37887 4.2204 77.3918
2681072 13.829 13.9794 27.0012 22.5822 -1.37887 4.2204 77.3918
2681081 13.8642 13.9426 26.9618 22.5433 -1.40347 4.20988 77.3119
2681091 13.8202 13.9242 26.9618 22.4848 -1.4163 4.21725 77.191
2681101 13.8202 13.9242 26.9618 22.4848 -1.4163 4.21725 77.191
2681111 13.8731 14.007 26.9519 22.4166 -1.4244 4.17259 77.2487
2681122 13.8731 14.007 26.9519 22.4166 -1.4244 4.17259 77.2487
2681132 13.7762 13.9426 26.8535 22.4361 -1.38004 4.20166 77.0084
2681144 13.8202 13.915 26.883 22.4848 -1.39537 4.20853 77.103
2681152 13.8202 13.915 26.883 22.4848 -1.39537 4.20853 77.103
2681162 13.7938 13.9334 26.8535 22.4751 -1.37525 4.20503 77.0557
2681172 13.8202 13.9794 26.8043 22.4458 -1.36251 4.17597 77.0498
2681182 13.8202 13.9794 26.8043 22.4458 -1.36251 4.17597 77.0498
2681192 13.9435 14.0439 26.8338 22.4751 -1.3773 4.13761 77.2963
2681202 13.9435 14.0439 26.8338 22.4751 -1.3773 4.13761 77.2963
2681215 13.8554 13.9334 26.8338 22.4946 -1.38145 4.18964 77.1172
2681223 13.8995 14.007 26.7649 22.5238 -1.33868 4.15482 77.1952
2681232 13.8995 14.007 26.7649 22.5238 -1.33868 4.15482 77.1952
2681243 13.9171 13.9978 26.7846 22.4166 -1.38987 4.14043 77.1161
2681254 13.8731 13.9702 26.7944 22.4361 -1.38218 4.16236 77.0738
2681265 13.8731 13.9702 26.7944 22.4361 -1.38218 4.16236 77.0738
2681273 13.9523 14.0347 26.7551 22.4264 -1.37568 4.11977 77.1684
2681285 13.9523 14.0347 26.7551 22.4264 -1.37568 4.11977 77.1684
2681294 13.9259 14.0347 26.7748 22.3777 -1.39028 4.12223 77.113
2681304 13.9259 14.0347 26.7846 22.3777 -1.39329 4.12362 77.1228
2681314 13.9259 14.0347 26.7846 22.3777 -1.39329 4.12362 77.1228
2681325 13.9788 14.1083 26.7255 22.3874 -1.36287 4.08533 77.2
2681333 13.9347 14.0715 26.696 22.4264 -1.3396 4.10668 77.1286
2681343 13.9347 14.0715 26.696 22.4264 -1.3396 4.10668 77.1286
2681354 13.9699 14.0715 26.7255 22.4556 -1.34947 4.10625 77.2226
2681364 13.9699 14.0715 26.7255 22.4556 -1.34947 4.10625 77.2226
2681375 13.9611 14.0439 26.6665 22.3874 -1.36141 4.09729 77.0589
2681383 14.014 14.0991 26.7058 22.3777 -1.37411 4.07473 77.1966
2681394 14.014 14.0991 26.7058 22.3777 -1.37411 4.07473 77.1966
2681403 14.0316 14.1728 26.6665 22.4069 -1.33234 4.05077 77.2778
2681430 13.9964 14.1544 26.5877 22.3095 -1.33691 4.03899 77.0479
2681433 13.9699 14.0899 26.6566 22.3484 -1.35867 4.07679 77.0649
2681444 13.9699 14.0899 26.6566 22.3484 -1.35867 4.07679 77.0649
2681454 13.9788 14.1452 26.5779 22.3679 -1.31165 4.05254 77.0697
2681465 13.9964 14.136 26.6074 22.3582 -1.3326 4.05327 77.0979
2681489 13.9435 14.1636 26.6369 22.4458 -1.28612 4.07612 77.1899
2681506 13.8731 14.1268 26.6271 22.5335 -1.24412 4.11366 77.1604
2681515 13.9171 14.1912 26.5779 22.6504 -1.18098 4.09637 77.3366
2681536 13.8642 14.2096 26.568 22.6309 -1.16202 4.10075 77.2729
2681545 13.8819 14.182 26.5582 22.6797 -1.15728 4.1087 77.3017
2681555 13.8819 14.182 26.5582 22.6797 -1.15728 4.1087 77.3017
2681565 13.8642 14.2004 26.5877 22.5822 -1.18771 4.09893 77.2346
2681575 13.8642 14.2004 26.5877 22.5822 -1.18771 4.09893 77.2346
2681585 13.785 14.2373 26.568 22.6115 -1.13478 4.11077 77.2017
2681595 13.7938 14.1268 26.6173 22.5822 -1.20009 4.1388 77.12
2681606 13.7938 14.1268 26.6173 22.5822 -1.20009 4.1388 77.12
2681615 13.8026 14.136 26.4893 22.6017 -1.15352 4.11902 77.0296
2681625 13.7585 14.1268 26.4991 22.5822 -1.15267 4.13089 76.9667
2681635 13.7585 14.1268 26.4991 22.5822 -1.15267 4.13089 76.9667
2681645 13.7497 14.1544 26.4598 22.6602 -1.10191 4.13166 77.0241
2681655 13.7497 14.1544 26.4598 22.6602 -1.10191 4.13166 77.0241
2681665 13.7057 14.1083 26.5582 22.6797 -1.12778 4.17066 77.0519
2681675 13.6617 14.1544 26.6173 22.6991 -1.11023 4.18119 77.1324
2681685 13.6617 14.1544 26.6173 22.6991 -1.11023 4.18119 77.1324
2681696 13.6969 14.182 26.6763 22.7284 -1.12017 4.17795 77.2836
2681707 13.6088 14.182 26.6271 22.7771 -1.06121 4.19976 77.195
2681715 13.6088 14.136 26.6271 22.7771 -1.07677 4.21122 77.149
2681725 13.6969 14.136 26.6173 22.894 -1.06155 4.20427 77.3441
2681736 13.6969 14.136 26.6173 22.894 -1.06155 4.20427 77.3441
2681751 13.6881 14.1268 26.5483 22.8453 -1.05701 4.19231 77.2085
2681756 13.6705 14.1452 26.5582 22.855 -1.0451 4.19485 77.2289
2681766 13.6705 14.1452 26.5582 22.855 -1.0451 4.19485 77.2289
2681776 13.6969 14.2004 26.5385 22.8258 -1.03841 4.16772 77.2616
2681786 13.7233 14.182 26.4499 22.816 -1.02861 4.15193 77.1713
2681796 13.7233 14.182 26.4499 22.816 -1.02861 4.15193 77.1713
2681806 13.7321 14.1728 26.4499 22.8355 -1.02788 4.15476 77.1904
2681816 13.7321 14.1728 26.4499 22.8355 -1.02788 4.15476 77.1904
2681826 13.6881 14.1636 26.4007 22.7868 -1.01843 4.15422 77.0392
2681838 13.7321 14.2096 26.4204 22.855 -0.999728 4.14422 77.2172
2681846 13.7321 14.2096 26.4204 22.855 -0.999728 4.14422 77.2172
2681856 13.7409 14.1912 26.3712 22.855 -0.993368 4.13967 77.1583
2681866 13.6705 14.1176 26.4007 22.7771 -1.0318 4.16869 76.9658
2681876 13.6705 14.1176 26.4007 22.7771 -1.0318 4.16869 76.9658
2681886 13.7674 14.1636 26.3909 22.8453 -1.0203 4.14137 77.1671
2681897 13.7674 14.1636 26.3909 22.8453 -1.0203 4.14137 77.1671
2681906 13.7585 14.1544 26.3909 22.8063 -1.03382 4.14035 77.1101
2681916 13.7674 14.2281 26.4105 22.8648 -0.998138 4.13091 77.2707
2681926 13.7674 14.2281 26.4105 22.8648 -0.998138 4.13091 77.2707
2681938 13.8378 14.2004 26.4204 22.894 -1.02252 4.1258 77.3526
2681947 13.8378 14.2004 26.4204 22.894 -1.02252 4.1258 77.3526
2681957 13.7762 14.136 26.4105 22.8842 -1.02533 4.15429 77.2069
2681967 13.7057 14.1452 26.4696 22.816 -1.04169 4.16821 77.1365
2681977 13.7057 14.1452 26.4696 22.816 -1.04169 4.16821 77.1365
2681988 13.6969 14.1176 26.4105 22.8745 -1.01018 4.17718 77.0995
2681998 13.7233 14.1268 26.4007 22.7771 -1.04513 4.15324 77.0278
2682017 13.785 14.1268 26.3515 22.7381 -1.06219 4.12548 77.0013
2682027 13.785 14.1268 26.3515 22.7381 -1.06219 4.12548 77.0013
2682037 13.785 14.1176 26.381 22.8063 -1.05141 4.14155 77.0898
2682048 13.829 14.1268 26.4794 22.7966 -1.09577 4.14083 77.2318
2682057 13.829 14.1268 26.4794 22.7966 -1.09577 4.14083 77.2318
2682068 13.8731 14.1544 26.4794 22.7868 -1.10335 4.12171 77.2937
2682078 13.7938 14.0807 26.4696 22.7576 -1.11057 4.15413 77.1017
2682088 13.7938 14.0807 26.4696 22.7576 -1.11057 4.15413 77.1017
2682098 13.8026 14.136 26.568 22.7089 -1.14154 4.14522 77.2155
2682108 13.8026 14.136 26.568 22.7089 -1.14154 4.14522 77.2155
2682118 13.7409 14.0807 26.5582 22.7576 -1.12164 4.17971 77.1374
2682128 13.7674 14.0807 26.5976 22.7673 -1.13869 4.18003 77.213
2682138 13.7674 14.0807 26.5976 22.7673 -1.13869 4.18003 77.213
2682151 13.7321 14.0347 26.6369 22.7966 -1.14567 4.20984 77.2003
2682160 13.7145 13.9978 26.6862 22.7771 -1.17452 4.22755 77.1756
2682170 13.7145 13.9978 26.6862 22.7771 -1.17452 4.22755 77.1756
2682178 13.6793 14.0531 26.7551 22.7966 -1.15958 4.23489 77.284
2682190 13.6793 14.0531 26.7551 22.7966 -1.15958 4.23489 77.284
2682200 13.6617 13.9886 26.7846 22.8258 -1.17519 4.26351 77.2607
2682210 13.644 13.9334 26.8929 22.8745 -1.20533 4.30345 77.3448
2682220 13.644 13.9334 26.8929 22.8745 -1.20533 4.30345 77.3448
2682230 13.6529 13.961 26.9027 22.9037 -1.19182 4.29977 77.4203
2682240 13.5824 13.9057 26.824 22.9135 -1.16125 4.32162 77.2256
2682249 13.5824 13.9057 26.824 22.9135 -1.16125 4.32162 77.2256
2682261 13.644 13.915 26.883 22.894 -1.20194 4.30938 77.336
2682280 13.6352 13.8505 26.8141 22.8355 -1.21972 4.31007 77.1354
2682290 13.644 13.9057 26.8437 22.8258 -1.21607 4.29679 77.2192
2682300 13.644 13.9057 26.8437 22.8258 -1.21607 4.29679 77.2192
2682310 13.6969 13.9334 26.7551 22.7284 -1.22878 4.25083 77.1137
2682320 13.644 14.0163 26.6862 22.7284 -1.16302 4.23372 77.0748
2682330 13.644 14.0163 26.6862 22.7284 -1.16302 4.23372 77.0748
2682340 13.7233 13.9886 26.7452 22.6504 -1.2416 4.21821 77.1076
2682350 13.7233 13.9886 26.7452 22.6504 -1.2416 4.21821 77.1076
2682361 13.7145 13.9886 26.7649 22.6894 -1.2317 4.2286 77.1574
2682371 13.6881 14.0623 26.8141 22.6991 -1.21039 4.22506 77.2636
2682381 13.6881 14.0623 26.8141 22.6991 -1.21039 4.22506 77.2636
2682391 13.6529 14.007 26.7452 22.7089 -1.19374 4.23935 77.114
2682401 13.7497 13.9978 26.8141 22.7576 -1.2314 4.2339 77.3193
2682411 13.7497 13.9978 26.8141 22.7576 -1.2314 4.2339 77.3193
2682421 13.7145 14.0439 26.7748 22.6991 -1.21266 4.21757 77.2323
2682441 13.6881 14.0255 26.7649 22.6894 -1.21104 4.226 77.1679
2682451 13.7145 14.0347 26.6763 22.592 -1.22186 4.19109 77.0175
2682463 13.7145 14.0347 26.6763 22.592 -1.22186 4.19109 77.0175
2682471 13.7497 14.0531 26.7354 22.592 -1.24467 4.18601 77.1302
2682481 13.7321 14.0531 26.7255 22.6309 -1.22295 4.19448 77.1417
2682491 13.7321 14.0531 26.7255 22.6309 -1.22295 4.19448 77.1417
2682501 13.7497 14.1083 26.7354 22.6797 -1.19612 4.18456 77.2731
2682511 13.7497 14.1083 26.7354 22.6797 -1.19612 4.18456 77.2731
2682521 13.7585 14.136 26.7748 22.6407 -1.2148 4.17558 77.31
2682531 13.6969 14.1083 26.7354 22.6797 -1.17983 4.19769 77.2203
2682541 13.6969 14.1083 26.7354 22.6797 -1.17983 4.19769 77.2203
2682551 13.7057 14.1176 26.7551 22.6699 -1.1888 4.19461 77.2482
2682562 13.6969 14.0255 26.7551 22.7089 -1.2041 4.22515 77.1863
2682573 13.6969 14.0255 26.7551 22.7089 -1.2041 4.22515 77.1863
2682582 13.6617 14.0715 26.8338 22.6991 -1.2052 4.23209 77.2661
2682593 13.6617 14.0715 26.8338 22.6991 -1.2052 4.23209 77.2661
2682603 13.6264 14.0255 26.8141 22.6699 -1.21382 4.24552 77.1359
2682613 13.6264 13.9886 26.8338 22.6991 -1.22248 4.26153 77.148
2682624 13.6264 13.9886 26.8338 22.6991 -1.22248 4.26153 77.148
2682633 13.6529 13.9886 26.7846 22.6407 -1.23534 4.23992 77.0668
2682643 13.6088 13.9978 26.7551 22.6602 -1.20286 4.24722 77.0219
2682653 13.6088 13.9978 26.7551 22.6602 -1.20286 4.24722 77.0219
2682663 13.6617 14.007 26.8437 22.6699 -1.24004 4.24545 77.1823
2682673 13.6617 14.007 26.8437 22.6699 -1.24004 4.24545 77.1823
2682683 13.5736 13.9426 26.8437 22.6407 -1.24478 4.27949 77.0005
2682693 13.5648 14.0255 26.8929 22.7673 -1.18603 4.28541 77.2504
2682703 13.5648 14.0255 26.8929 22.7673 -1.18603 4.28541 77.2504
2682713 13.5912 14.0255 26.8437 22.6699 -1.21207 4.25843 77.1302
2682723 13.5824 14.0163 26.7846 22.6602 -1.19756 4.25334 77.0434
2682734 13.5824 14.0163 26.7846 22.6602 -1.19756 4.25334 77.0434
2682743 13.6529 14.007 26.8338 22.6407 -1.24424 4.24219 77.1344
2682753 13.6529 14.007 26.8338 22.6407 -1.24424 4.24219 77.1344
2682778 13.6793 14.0163 26.8338 22.6991 -1.22937 4.24146 77.2285
2682780 13.7409 14.0899 26.7551 22.6991 -1.19911 4.1968 77.2851
2682788 13.7409 14.0899 26.7551 22.6991 -1.19911 4.1968 77.2851
2682797 13.7409 14.0991 26.6763 22.592 -1.20808 4.16847 77.1084
2682815 13.7674 14.136 26.6862 22.5433 -1.2233 4.14729 77.1328
2682816 13.7674 14.136 26.6862 22.5433 -1.2233 4.14729 77.1328
2682825 13.7674 14.1544 26.696 22.5238 -1.2267 4.14136 77.1415
2682835 13.7674 14.1544 26.696 22.5238 -1.2267 4.14136 77.1415
2682845 13.7674 14.1268 26.6566 22.553 -1.21402 4.14679 77.1038
2682855 13.7409 14.136 26.7058 22.5335 -1.22454 4.15525 77.1163
2682865 13.7409 14.136 26.7058 22.5335 -1.22454 4.15525 77.1163
2682875 13.7321 14.1083 26.7649 22.5822 -1.23286 4.17943 77.1876
2682886 13.6969 14.1544 26.7551 22.5822 -1.20333 4.17536 77.1886
2682906 13.7233 14.1452 26.7452 22.553 -1.2215 4.1656 77.1667
2682916 13.7233 14.1452 26.7452 22.553 -1.2215 4.1656 77.1667
2682926 13.6881 14.0899 26.7551 22.6115 -1.21258 4.19768 77.1445
2682936 13.7057 14.136 26.7649 22.6212 -1.2021 4.18459 77.2278
2682956 13.7057 14.1544 26.7748 22.592 -1.20881 4.1773 77.2268
2682966 13.6793 14.0991 26.7944 22.592 -1.2255 4.20036 77.1648
2682986 13.7321 14.1544 26.7354 22.6017 -1.20151 4.16658 77.2236
2682996 13.7321 14.1544 26.7354 22.6017 -1.20151 4.16658 77.2236
2683006 13.6881 14.1083 26.7058 22.4946 -1.2309 4.16978 76.9968
2683016 13.7321 14.0991 26.7551 22.5822 -1.23296 4.18034 77.1686
2683037 13.7585 14.0807 26.7058 22.553 -1.24214 4.16734 77.0981
2683047 13.7497 14.136 26.7058 22.6309 -1.19417 4.16674 77.2225
2683075 13.7233 14.1268 26.6862 22.6797 -1.16655 4.17966 77.2159
2683077 13.7233 14.1268 26.6862 22.6797 -1.16655 4.17966 77.2159
2683090 13.7762 14.1083 26.7157 22.6212 -1.21803 4.16706 77.2214
2683098 13.7233 14.1268 26.7846 22.6212 -1.21672 4.18526 77.2559
2683108 13.7233 14.1268 26.7846 22.6212 -1.21672 4.18526 77.2559
2683118 13.7674 14.0991 26.7551 22.5433 -1.25706 4.16612 77.1648
2683128 13.7409 14.0807 26.7452 22.5725 -1.24222 4.17998 77.1394
2683138 13.7409 14.0807 26.7452 22.5725 -1.24222 4.17998 77.1394
2683150 13.7233 14.0715 26.7551 22.5822 -1.23964 4.1894 77.1321
2683169 13.6705 14.0163 26.7354 22.6309 -1.2195 4.22039 77.053
2683178 13.6793 14.1452 26.7649 22.6017 -1.19745 4.18614 77.1911
2683188 13.6793 14.1452 26.7649 22.6017 -1.19745 4.18614 77.1911
2683200 13.7321 14.1636 26.8043 22.6504 -1.20309 4.18078 77.3504
2683210 13.7233 14.1083 26.7649 22.6309 -1.2136 4.18844 77.2275
2683220 13.7233 14.1083 26.7649 22.6309 -1.2136 4.18844 77.2275
2683230 13.7497 14.0715 26.7157 22.6602 -1.20916 4.18823 77.1971
2683250 13.6793 14.0439 26.7551 22.7186 -1.18911 4.22631 77.1968
2683260 13.6705 14.007 26.7354 22.6991 -1.19944 4.23222 77.112
2683280 13.6352 13.9886 26.7452 22.7284 -1.18793 4.25106 77.0974
2683289 13.6352 14.0623 26.7452 22.7284 -1.16293 4.23268 77.1711
2683301 13.6352 14.0623 26.7452 22.7284 -1.16293 4.23268 77.1711
2683311 13.6705 14.0807 26.7846 22.6602 -1.20284 4.2153 77.196
2683321 13.6705 14.0807 26.7846 22.6602 -1.20284 4.2153 77.196
2683331 13.6264 14.1083 26.7551 22.6797 -1.16416 4.21798 77.1695
2683341 13.6969 14.0899 26.7944 22.6797 -1.20428 4.21053 77.2609
2683351 13.6969 14.0899 26.7944 22.6797 -1.20428 4.21053 77.2609
2683361 13.6264 14.0623 26.7944 22.7381 -1.1721 4.2431 77.2213
2683371 13.6088 14.0347 26.8141 22.6894 -1.19864 4.25034 77.147
2683381 13.6088 14.0347 26.8141 22.6894 -1.19864 4.25034 77.147
2683391 13.6969 14.0255 26.7846 22.6699 -1.22644 4.22384 77.1769
2683401 13.6969 14.0255 26.7846 22.6699 -1.22644 4.22384 77.1769
2683411 13.6264 14.007 26.8338 22.7284 -1.2063 4.261 77.1956
2683421 13.7585 13.9886 26.7452 22.6504 -1.25245 4.20943 77.1428
2683450 13.7585 13.9886 26.7452 22.6504 -1.25245 4.20943 77.1428
2683451 13.7145 14.0439 26.7058 22.6699 -1.20134 4.20385 77.1341
2683461 13.7762 14.0715 26.7058 22.6212 -1.22751 4.17482 77.1747
2683471 13.7585 14.1452 26.696 22.6017 -1.20064 4.15679 77.2014
2683482 13.7585 14.1452 26.696 22.6017 -1.20064 4.15679 77.2014
2683491 13.7938 14.136 26.6566 22.6017 -1.20249 4.1448 77.1881
2683503 13.7762 14.0807 26.7157 22.6115 -1.23072 4.17255 77.184
2683522 13.829 14.136 26.6566 22.6017 -1.21335 4.13606 77.2233
2683533 13.8026 14.1452 26.6566 22.592 -1.20539 4.13896 77.1964
2683542 13.8026 14.1452 26.6566 22.592 -1.20539 4.13896 77.1964
2683552 13.7938 14.136 26.6468 22.5822 -1.20607 4.14067 77.1588
2683562 13.7938 14.136 26.6468 22.5822 -1.20607 4.14067 77.1588
2683572 13.7674 14.136 26.7058 22.6115 -1.20621 4.15963 77.2206
2683583 13.7674 14.1083 26.6763 22.6309 -1.19987 4.16508 77.183
2683592 13.7674 14.1083 26.6763 22.6309 -1.19987 4.16508 77.183
2683602 13.7674 14.1636 26.6763 22.6504 -1.17453 4.15411 77.2577
2683613 13.7497 14.1636 26.7157 22.6504 -1.18123 4.164 77.2795
2683622 13.7497 14.0531 26.7157 22.6699 -1.21211 4.19417 77.1884
2683632 13.7674 14.1452 26.8141 22.6504 -1.22319 4.17799 77.3771
2683642 13.7674 14.1452 26.8141 22.6504 -1.22319 4.17799 77.3771
2683652 13.7409 14.1176 26.7748 22.6602 -1.20902 4.18725 77.2934
2683662 13.6881 14.1268 26.7649 22.6504 -1.18988 4.19535 77.2302
2683672 13.6881 14.1268 26.7649 22.6504 -1.18988 4.19535 77.2302
2683682 13.7057 14.136 26.8043 22.5725 -1.23077 4.18328 77.2185
2683692 13.7057 14.136 26.8043 22.5725 -1.23077 4.18328 77.2185
2683702 13.6617 14.1544 26.6862 22.514 -1.19435 4.16487 77.0162
2683712 13.6969 14.1452 26.696 22.6017 -1.18162 4.1721 77.1398
2683722 13.6969 14.1452 26.696 22.6017 -1.18162 4.1721 77.1398
2683732 13.6881 14.1452 26.7649 22.4751 -1.24321 4.16618 77.0732
2683742 13.6705 14.0531 26.7748 22.592 -1.23237 4.21126 77.0903
2683752 13.6705 14.0531 26.7748 22.592 -1.23237 4.21126 77.0903
2683762 13.644 14.0899 26.824 22.6407 -1.21032 4.22236 77.1986
2683772 13.644 14.0899 26.824 22.6407 -1.21032 4.22236 77.1986
2683782 13.6176 14.0623 26.7944 22.6504 -1.19914 4.23307 77.1248
2683792 13.6 14.0531 26.7748 22.7089 -1.1709 4.24517 77.1367
2683802 13.6 14.0531 26.7748 22.7089 -1.1709 4.24517 77.1367
2683812 13.7321 14.1176 26.7551 22.6894 -1.19034 4.19077 77.2941
2683823 13.7145 14.1268 26.7157 22.6991 -1.16635 4.18871 77.2561
2683833 13.7145 14.1268 26.7157 22.6991 -1.16635 4.18871 77.2561
2683843 13.7762 14.1636 26.6665 22.6407 -1.17751 4.14917 77.2469
2683863 13.7585 14.1083 26.6271 22.6602 -1.17205 4.16446 77.1542
2683873 13.7321 14.1544 26.5779 22.5433 -1.17272 4.13621 77.0077
2683883 13.7321 14.1544 26.5779 22.5433 -1.17272 4.13621 77.0077
2683893 13.8202 14.1268 26.5287 22.5628 -1.18751 4.117 77.0384
2683903 13.7233 14.1452 26.6271 22.6212 -1.16188 4.15859 77.1168
2683913 13.7233 14.1452 26.6271 22.6212 -1.16188 4.15859 77.1168
2683925 13.6881 14.1544 26.6665 22.592 -1.16996 4.16648 77.1009
2683935 13.6881 14.1544 26.6665 22.592 -1.16996 4.16648 77.1009
2683945 13.7233 14.1544 26.6468 22.6017 -1.17145 4.15633 77.1262
2683955 13.7674 14.1636 26.6468 22.6699 -1.15881 4.1527 77.2477
2683965 13.7674 14.1636 26.6468 22.6699 -1.15881 4.1527 77.2477
2683975 13.7409 14.182 26.6862 22.6991 -1.14669 4.16431 77.3083
2683985 13.7233 14.2373 26.696 22.6504 -1.14208 4.14953 77.307
2683996 13.7233 14.2373 26.696 22.6504 -1.14208 4.14953 77.307
2684005 13.6793 14.2189 26.6763 22.6602 -1.12533 4.16362 77.2346
2684015 13.6793 14.2189 26.6763 22.6602 -1.12533 4.16362 77.2346
2684025 13.6969 14.0899 26.7157 22.6115 -1.20315 4.18997 77.114
2684036 13.7057 14.0715 26.6862 22.6407 -1.19309 4.19232 77.1041
2684046 13.7057 14.0715 26.6862 22.6407 -1.19309 4.19232 77.1041
2684055 13.7145 14.1176 26.6862 22.5725 -1.20333 4.1691 77.0907
2684064 13.6969 14.1544 26.6862 22.6017 -1.17546 4.16843 77.1392
2684085 13.6969 14.1544 26.6862 22.6017 -1.17546 4.16843 77.1392
2684086 13.7057 14.1912 26.6566 22.6504 -1.14006 4.15979 77.204
2684107 13.7497 14.1452 26.6566 22.6602 -1.16596 4.16165 77.2117
2684116 13.7497 14.1728 26.7354 22.6407 -1.18748 4.16311 77.2986
2684142 13.6617 14.1544 26.6566 22.6894 -1.12572 4.18534 77.1621
2684146 13.7585 14.182 26.696 22.6309 -1.17824 4.15175 77.2675
2684156 13.7585 14.182 26.696 22.6309 -1.17824 4.15175 77.2675
2684166 13.7762 14.1636 26.7058 22.5822 -1.20946 4.14649 77.2278
2684186 13.7233 14.1636 26.7452 22.6115 -1.1954 4.16923 77.2436
2684198 13.6617 14.1636 26.6862 22.6212 -1.15484 4.17763 77.1326
2684206 13.6617 14.1636 26.6862 22.6212 -1.15484 4.17763 77.1326
2684216 13.7409 14.0715 26.7551 22.6212 -1.23181 4.19048 77.1887
2684226 13.7145 14.1268 26.7255 22.6602 -1.18259 4.18463 77.227
2684236 13.7145 14.1268 26.7255 22.6602 -1.18259 4.18463 77.227
2684247 13.6881 14.0623 26.7748 22.6991 -1.19826 4.21956 77.2243
2684257 13.6881 14.0623 26.7748 22.6991 -1.19826 4.21956 77.2243
2684267 13.7409 14.0899 26.7748 22.6991 -1.20517 4.19955 77.3047
2684277 13.7145 14.1176 26.8141 22.5433 -1.2527 4.18295 77.1895
2684287 13.7145 14.1176 26.8141 22.5433 -1.2527 4.18295 77.1895
2684297 13.7057 14.1268 26.7354 22.6602 -1.18291 4.1882 77.228
2684307 13.6705 14.0991 26.8732 22.5725 -1.25365 4.21084 77.2153
2684317 13.6705 14.0991 26.8732 22.5725 -1.25365 4.21084 77.2153
2684327 13.644 14.0439 26.8338 22.6602 -1.22238 4.23792 77.1819
2684337 13.644 14.0439 26.8338 22.6602 -1.22238 4.23792 77.1819
2684348 13.6352 14.0439 26.8929 22.6894 -1.22792 4.25241 77.2614
2684358 13.6352 14.0347 26.9027 22.7284 -1.22085 4.26149 77.301
2684368 13.6352 14.0347 26.9027 22.7284 -1.22085 4.26149 77.301
2684378 13.7057 14.0255 26.8633 22.7479 -1.22692 4.24348 77.3424
2684388 13.5472 14.007 26.8732 22.7673 -1.18077 4.29168 77.1947
2684408 13.5736 13.9886 26.8732 22.7089 -1.21502 4.28156 77.1443
2684418 13.5736 13.9886 26.8732 22.7089 -1.21502 4.28156 77.1443
2684428 13.5824 13.9334 26.8732 22.7186 -1.23321 4.29453 77.1076
2684438 13.5472 13.9057 26.8929 22.7576 -1.22456 4.31841 77.1034
2684448 13.5472 13.9057 26.8929 22.7576 -1.22456 4.31841 77.1034
2684458 13.5824 13.9702 26.8732 22.7673 -1.20413 4.29208 77.1931
2684468 13.5824 13.9702 26.8732 22.7673 -1.20413 4.29208 77.1931
2684478 13.5472 13.9334 26.9027 22.7868 -1.20827 4.3169 77.1701
2684488 13.5824 13.8965 26.8929 22.7868 -1.22861 4.31594 77.1586
2684498 13.5824 13.8965 26.8929 22.7868 -1.22861 4.31594 77.1586
2684508 13.6 13.8873 26.883 22.7868 -1.23413 4.31247 77.1572
2684518 13.6352 13.915 26.8929 22.7284 -1.2585 4.29001 77.1714
2684528 13.6352 13.915 26.8929 22.7284 -1.2585 4.29001 77.1714
2684538 13.6969 13.9334 26.8929 22.7381 -1.26787 4.27136 77.2612
2684560 13.6088 13.9057 26.9323 22.7381 -1.26229 4.30573 77.1849
2684570 13.6529 13.9334 26.9323 22.7966 -1.24658 4.29592 77.315
2684580 13.6529 13.9334 26.9323 22.7966 -1.24658 4.29592 77.315
2684590 13.6088 13.8873 26.8437 22.6991 -1.25456 4.29264 77.0389
2684602 13.6529 13.9057 26.883 22.7771 -1.24745 4.2933 77.2187
2684615 13.6529 13.9057 26.883 22.7771 -1.24745 4.2933 77.2187
2684622 13.6617 13.9334 26.9421 22.855 -1.23248 4.30317 77.3921
2684630 13.6617 13.9334 26.9421 22.855 -1.23248 4.30317 77.3921
2684640 13.6705 13.9426 26.883 22.7868 -1.23705 4.28105 77.2829
2684650 13.6617 13.9334 26.8732 22.855 -1.2113 4.29363 77.3232
2684662 13.6617 13.9334 26.8732 22.855 -1.2113 4.29363 77.3232
2684671 13.6705 13.915 26.9323 22.8453 -1.24171 4.30286 77.3629
2684680 13.5912 13.9334 26.8535 22.8258 -1.19344 4.30446 77.2039
2684690 13.5912 13.9334 26.8535 22.8258 -1.19344 4.30446 77.2039
2684699 13.644 13.915 26.8929 22.8258 -1.2281 4.30131 77.2777
2684715 13.644 13.915 26.8929 22.8258 -1.2281 4.30131 77.2777
2684723 13.6088 13.8873 26.883 22.8258 -1.2236 4.31566 77.205
2684732 13.5912 13.915 26.9027 22.7673 -1.23471 4.30779 77.1762
2684741 13.5912 13.915 26.9027 22.7673 -1.23471 4.30779 77.1762
2684751 13.5648 13.9057 26.9224 22.7576 -1.23909 4.31808 77.1505
2684761 13.556 13.9057 26.9224 22.7479 -1.23969 4.31894 77.132
2684781 13.556 13.9057 26.8043 22.7673 -1.19661 4.30527 77.0333
2684791 13.556 13.9057 26.8043 22.7673 -1.19661 4.30527 77.0333
2684801 13.5736 13.8505 26.9224 22.7868 -1.25065 4.33376 77.1333
2684827 13.556 13.8873 26.883 22.7576 -1.2305 4.31945 77.0839
2684831 13.5472 13.915 26.8437 22.8258 -1.18307 4.31873 77.1315
2684841 13.6352 13.9426 26.9224 22.8648 -1.21189 4.30609 77.365
2684851 13.6352 13.9426 26.9224 22.8648 -1.21189 4.30609 77.365
2684861 13.644 13.9426 26.883 22.8258 -1.21569 4.29305 77.2954
2684872 13.644 13.9426 26.883 22.8258 -1.21569 4.29305 77.2954
2684882 13.6529 14.0439 26.8141 22.7576 -1.18596 4.24656 77.2684
2684892 13.6969 14.0531 26.7157 22.6894 -1.18919 4.21005 77.1551
2684902 13.6969 14.0531 26.7157 22.6894 -1.18919 4.21005 77.1551
2684920 13.6881 14.0163 26.7058 22.6894 -1.19595 4.22005 77.0996
2684922 13.7585 14.007 26.7157 22.6504 -1.2371 4.20071 77.1317
2684932 13.7585 14.007 26.7157 22.6504 -1.2371 4.20071 77.1317
2684942 13.7938 14.0715 26.6763 22.592 -1.23377 4.1622 77.1336
2684952 13.7938 14.0715 26.6763 22.592 -1.23377 4.1622 77.1336
2684962 13.7762 14.0623 26.696 22.6309 -1.2243 4.1771 77.1654
2684972 13.7585 14.0531 26.7551 22.6115 -1.24681 4.18931 77.1782
2684983 13.7585 14.0531 26.7551 22.6115 -1.24681 4.18931 77.1782
2684995 13.7321 14.1176 26.7452 22.6407 -1.20382 4.18257 77.2356
2685003 13.7145 14.0991 26.6763 22.6991 -1.16356 4.19006 77.1891
2685014 13.7145 14.0991 26.6763 22.6991 -1.16356 4.19006 77.1891
2685023 13.8202 14.0899 26.6665 22.6115 -1.226 4.15242 77.1881
2685035 13.8202 14.0899 26.6665 22.6115 -1.226 4.15242 77.1881
2685046 13.7409 14.0899 26.6369 22.6504 -1.1792 4.17343 77.1182
2685055 13.7762 14.1268 26.5877 22.5725 -1.18884 4.13764 77.0631
2685065 13.7762 14.1268 26.5877 22.5725 -1.18884 4.13764 77.0631
2685075 13.7938 14.0715 26.5188 22.5628 -1.19509 4.1359 76.9469
2685085 13.7938 14.182 26.5188 22.6115 -1.141 4.11533 77.1061
2685095 13.7938 14.182 26.5188 22.6115 -1.141 4.11533 77.1061
2685106 13.829 14.1268 26.5385 22.6017 -1.18004 4.1217 77.096
2685126 13.8114 14.182 26.509 22.5725 -1.15662 4.10407 77.0749
2685135 13.8378 14.1452 26.5385 22.6017 -1.1765 4.11495 77.1232
2685145 13.8378 14.1452 26.5385 22.6017 -1.1765 4.11495 77.1232
2685155 13.8642 14.1636 26.6173 22.5725 -1.21262 4.11083 77.2176
2685165 13.8026 14.136 26.6369 22.553 -1.21568 4.13299 77.1285
2685177 13.8026 14.136 26.6369 22.553 -1.21568 4.13299 77.1285
2685187 13.8731 14.2281 26.568 22.5822 -1.17499 4.08714 77.2514
2685196 13.8731 14.2281 26.568 22.5822 -1.17499 4.08714 77.2514
2685205 13.8819 14.1912 26.5188 22.5238 -1.19485 4.07884 77.1157
2685215 13.8731 14.2096 26.568 22.514 -1.20437 4.08205 77.1648
2685226 13.8731 14.2096 26.568 22.514 -1.20437 4.08205 77.1648
2685237 13.9523 14.2004 26.5483 22.4556 -1.24573 4.05367 77.1567
2685246 13.9171 14.2004 26.5188 22.4556 -1.22577 4.05818 77.0919
2685256 13.9171 14.2004 26.5188 22.4556 -1.22577 4.05818 77.0919
2685268 13.9347 14.182 26.509 22.4653 -1.23112 4.05837 77.091
2685277 13.9347 14.182 26.509 22.4653 -1.23112 4.05837 77.091
2685286 13.9788 14.2189 26.4991 22.4556 -1.23245 4.03561 77.1523
2685297 13.9964 14.2281 26.509 22.4264 -1.24771 4.02624 77.1598
2685316 14.014 14.2557 26.4499 22.4751 -1.209 4.01362 77.1947
2685327 13.9876 14.2557 26.4991 22.4458 -1.22595 4.02297 77.1882
2685339 13.9876 14.2557 26.4991 22.4458 -1.22595 4.02297 77.1882
2685347 14.0052 14.2557 26.568 22.4751 -1.24264 4.03257 77.304
2685357 14.0052 14.2557 26.568 22.4751 -1.24264 4.03257 77.304
2685367 13.9964 14.2096 26.4991 22.5043 -1.22445 4.04045 77.2094
2685377 13.9788 14.2465 26.4696 22.4653 -1.21065 4.02598 77.1602
2685391 13.9788 14.2465 26.4696 22.4653 -1.21065 4.02598 77.1602
2685397 14.014 14.2004 26.4794 22.3387 -1.28333 4.01201 77.0326
2685407 13.9964 14.182 26.4893 22.3484 -1.28389 4.0237 77.0161
2685417 13.9964 14.182 26.4893 22.3484 -1.28389 4.0237 77.0161
2685427 13.9523 14.2373 26.5188 22.3387 -1.2639 4.02375 77.0471
2685437 13.9523 14.2373 26.5188 22.3387 -1.2639 4.02375 77.0471
2685447 13.9699 14.182 26.509 22.4069 -1.26189 4.04136 77.0678
2685457 14.0404 14.2649 26.5779 22.3971 -1.27984 4.01196 77.2803
2685467 14.0404 14.2649 26.5779 22.3971 -1.27984 4.01196 77.2803
2685478 14.014 14.2649 26.4991 22.3387 -1.26741 3.99893 77.1167
2685487 14.0756 14.2741 26.568 22.3582 -1.29776 3.99408 77.276
2685501 14.0756 14.2741 26.568 22.3582 -1.29776 3.99408 77.276
2685509 14.0228 14.2741 26.5779 22.2705 -1.31443 3.99599 77.1453
2685519 14.0228 14.2741 26.5779 22.2705 -1.31443 3.99599 77.1453
2685530 14.0404 14.2281 26.5877 22.3192 -1.32195 4.01134 77.1754
2685539 14.0228 14.2557 26.568 22.3289 -1.29776 4.00746 77.1755
2685549 14.0228 14.2557 26.568 22.3289 -1.29776 4.00746 77.1755
2685558 14.0404 14.2004 26.5287 22.3387 -1.30659 4.01251 77.1082
2685569 13.9876 14.2281 26.5779 22.3095 -1.30602 4.02158 77.103
2685579 13.9876 14.2281 26.5779 22.3095 -1.30602 4.02158 77.103
2685590 14.0404 14.1912 26.6074 22.3679 -1.32394 4.03015 77.207
2685609 13.9259 14.2004 26.6468 22.29 -1.32433 4.05066 77.0631
2685619 13.9435 14.2096 26.7058 22.3777 -1.31481 4.06485 77.2367
2685629 13.9435 14.2096 26.7058 22.3777 -1.31481 4.06485 77.2367
2685646 13.8819 14.2281 26.7255 22.4556 -1.26915 4.08932 77.2911
2685658 13.9347 14.136 26.7058 22.5335 -1.28414 4.10723 77.3101
2685668 13.8466 14.1452 26.8043 22.5238 -1.28749 4.13922 77.3199
2685690 13.8466 14.0899 26.7944 22.553 -1.29333 4.15563 77.284
2685700 13.8731 14.1268 26.7157 22.5335 -1.27136 4.12615 77.249
2685710 13.8731 14.1268 26.7157 22.5335 -1.27136 4.12615 77.249
2685720 13.8642 14.1268 26.7944 22.4946 -1.30609 4.13393 77.28
2685730 13.8466 14.1268 26.6665 22.514 -1.25473 4.12301 77.1539
2685740 13.8466 14.1268 26.6665 22.514 -1.25473 4.12301 77.1539
2685752 13.8202 14.0347 26.7748 22.5238 -1.30795 4.16903 77.1534
2685760 13.8202 14.0347 26.7748 22.5238 -1.30795 4.16903 77.1534
2685770 13.8466 14.1452 26.6369 22.3679 -1.28917 4.09363 76.9967
2685780 13.7938 14.1083 26.6665 22.4458 -1.26797 4.13108 77.0144
2685801 13.8731 14.2004 26.6468 22.3874 -1.27485 4.07755 77.1077
2685811 13.8819 14.1176 26.6665 22.4166 -1.3019 4.10281 77.0825
2685821 13.8819 14.1176 26.6665 22.4166 -1.3019 4.10281 77.0825
2685831 13.8202 14.1636 26.7058 22.4556 -1.26608 4.11775 77.1452
2685843 13.8202 14.1636 26.7058 22.4556 -1.26608 4.11775 77.1452
2685851 13.8114 14.0807 26.6369 22.5335 -1.24383 4.14177 77.0626
2685861 13.7938 14.136 26.6566 22.5335 -1.22566 4.1352 77.1199
2685871 13.7938 14.136 26.6566 22.5335 -1.22566 4.1352 77.1199
2685881 13.7938 14.1452 26.696 22.5335 -1.23466 4.13846 77.1685
2685891 13.8026 14.0807 26.7157 22.5628 -1.25542 4.15915 77.1617
2685912 13.8114 14.1912 26.7452 22.6212 -1.20985 4.14193 77.369
2685924 13.8114 14.1912 26.7452 22.6212 -1.20985 4.14193 77.369
2685932 13.7409 14.1083 26.6665 22.553 -1.21517 4.15931 77.0688
2685944 13.7585 14.1268 26.7157 22.553 -1.22951 4.15728 77.154
2685954 13.7585 14.1268 26.7157 22.553 -1.22951 4.15728 77.154
2685963 13.7497 14.1083 26.6665 22.6212 -1.19471 4.16671 77.1458
2685973 13.7674 14.1268 26.7058 22.5628 -1.22588 4.15508 77.1627
2685986 13.7674 14.1268 26.7058 22.5628 -1.22588 4.15508 77.1627
2685994 13.7497 14.1268 26.7551 22.5043 -1.2555 4.15816 77.1359
2686005 13.7497 14.1268 26.7551 22.5043 -1.2555 4.15816 77.1359
2686023 13.7938 14.0439 26.6468 22.5628 -1.24402 4.1608 77.0472
2686030 13.829 14.1452 26.6566 22.5335 -1.23339 4.12418 77.1643
2686035 13.829 14.1452 26.6566 22.5335 -1.23339 4.12418 77.1643
2686045 13.8378 14.182 26.6665 22.4751 -1.24648 4.10601 77.1614
2686056 13.7762 14.1728 26.7157 22.4751 -1.24578 4.13052 77.1397
2686065 13.7762 14.1728 26.7157 22.4751 -1.24578 4.13052 77.1397
2686076 13.8114 14.1452 26.6763 22.514 -1.24065 4.12857 77.1469
2686085 13.8202 14.1912 26.6271 22.4946 -1.21917 4.10529 77.1331
2686095 13.8202 14.1912 26.6271 22.4946 -1.21917 4.10529 77.1331
2686105 13.8554 14.2649 26.6173 22.4361 -1.22182 4.06868 77.1737
2686115 13.8554 14.2649 26.6173 22.4361 -1.22182 4.06868 77.1737
2686125 13.8554 14.2465 26.5779 22.4751 -1.2027 4.07318 77.1549
2686136 13.8731 14.2281 26.5188 22.4166 -1.21604 4.05671 77.0366
2686146 13.8731 14.2281 26.5188 22.4166 -1.21604 4.05671 77.0366
2686156 13.9347 14.2833 26.5779 22.3777 -1.24772 4.03069 77.1736
2686166 13.8907 14.3017 26.5877 22.3679 -1.23424 4.03702 77.148
2686176 13.8907 14.3017 26.5877 22.3679 -1.23424 4.03702 77.148
2686186 13.9347 14.2649 26.5877 22.3874 -1.2537 4.03801 77.1747
2686196 13.9347 14.2649 26.5877 22.3874 -1.2537 4.03801 77.1747
2686206 13.9876 14.2741 26.5483 22.29 -1.28789 4.00324 77.1
2686216 13.9611 14.3202 26.4991 22.3095 -1.24227 3.99416 77.0899
2686226 13.9611 14.3202 26.4991 22.3095 -1.24227 3.99416 77.0899
2686236 14.0756 14.3938 26.4696 22.3095 -1.24338 3.94368 77.2485
2686260 14.0756 14.3938 26.4696 22.3095 -1.24338 3.94368 77.2485
2686262 14.0756 14.3202 26.4499 22.2705 -1.27565 3.95337 77.1162
2686266 14.1021 14.3202 26.4105 22.3289 -1.25176 3.94961 77.1617
2686276 14.1021 14.3202 26.4105 22.3289 -1.25176 3.94961 77.1617
2686286 14.1197 14.3386 26.3613 22.2413 -1.26562 3.92112 77.0608
2686296 14.1021 14.403 26.4204 22.2607 -1.24979 3.92091 77.1862
2686306 14.1021 14.403 26.4204 22.2607 -1.24979 3.92091 77.1862
2686316 14.1197 14.3386 26.4401 22.2705 -1.27989 3.93662 77.1688
2686326 14.1197 14.3386 26.4401 22.2705 -1.27989 3.93662 77.1688
2686336 14.0933 14.3294 26.4204 22.3289 -1.24895 3.95092 77.172
2686349 14.0316 14.3294 26.4794 22.2802 -1.26473 3.96756 77.1206
2686357 14.0316 14.3294 26.4794 22.2802 -1.26473 3.96756 77.1206
2686367 14.014 14.3017 26.4598 22.3289 -1.24606 3.98284 77.1044
2686377 14.0316 14.3662 26.4204 22.2997 -1.22737 3.95283 77.1179
2686387 14.0316 14.3662 26.4204 22.2997 -1.22737 3.95283 77.1179
2686397 14.0316 14.3202 26.4696 22.3387 -1.24494 3.97677 77.16
2686409 14.0316 14.3202 26.4696 22.3387 -1.24494 3.97677 77.16
2686417 13.9964 14.3202 26.4893 22.3387 -1.24015 3.98825 77.1445
2686427 13.9435 14.2925 26.5483 22.4166 -1.22496 4.02759 77.201
2686437 13.9435 14.2925 26.5483 22.4166 -1.22496 4.02759 77.201
2686447 13.9083 14.3017 26.5976 22.4069 -1.22945 4.03961 77.2145
2686457 13.9435 14.3017 26.5385 22.4361 -1.21218 4.02669 77.2199
2686467 13.9435 14.3017 26.5385 22.4361 -1.21218 4.02669 77.2199
2686479 13.8907 14.3109 26.5483 22.4653 -1.18589 4.04299 77.2153
2686487 13.8907 14.3109 26.5483 22.4653 -1.18589 4.04299 77.2153
2686498 13.8819 14.2281 26.5483 22.4556 -1.21462 4.06425 77.1139
2686507 13.8466 14.2096 26.5483 22.5335 -1.18353 4.08856 77.1381
2686519 13.8466 14.2096 26.5483 22.5335 -1.18353 4.08856 77.1381
2686527 13.8642 14.2557 26.6074 22.5628 -1.18166 4.0853 77.2901
2686539 13.7938 14.2741 26.5385 22.5822 -1.1258 4.09118 77.1886
2686547 13.7938 14.2741 26.5385 22.5822 -1.1258 4.09118 77.1886
2686558 13.8819 14.2741 26.509 22.4946 -1.1736 4.05282 77.1595
2686568 13.8819 14.2741 26.509 22.4946 -1.1736 4.05282 77.1595
2686579 13.8202 14.2465 26.5188 22.4946 -1.16697 4.07629 77.0801
2686590 13.829 14.2557 26.4696 22.5043 -1.14803 4.06623 77.0586
2686598 13.829 14.2557 26.4696 22.5043 -1.14803 4.06623 77.0586
2686609 13.8378 14.2925 26.4794 22.4264 -1.16776 4.04527 77.0362
2686625 13.8378 14.2925 26.4499 22.514 -1.12887 4.05353 77.0943
2686635 13.8378 14.2925 26.4499 22.514 -1.12887 4.05353 77.0943
2686639 13.8731 14.3478 26.4696 22.4556 -1.14695 4.02568 77.146
2686648 13.8731 14.3478 26.4696 22.4556 -1.14695 4.02568 77.146
2686675 13.8731 14.3386 26.4007 22.4458 -1.13205 4.01675 77.0582
2686688 13.9435 14.403 26.3613 22.3777 -1.14294 3.96814 77.0855
2686698 13.9083 14.403 26.3613 22.3777 -1.13203 3.97681 77.0503
2686710 13.9083 14.357 26.3613 22.3095 -1.17083 3.9784 76.9361
2686718 13.9964 14.4307 26.3909 22.3874 -1.15574 3.95398 77.2053
2686740 13.9435 14.3938 26.2629 22.3484 -1.12548 3.95211 76.9487
2686750 13.9699 14.4491 26.4204 22.3874 -1.15046 3.96017 77.2268
2686761 13.9699 14.4491 26.4204 22.3874 -1.15046 3.96017 77.2268
2686770 14.0668 14.403 26.3023 22.3874 -1.15951 3.93078 77.1595
2686780 14.0316 14.4767 26.3416 22.3679 -1.14242 3.9242 77.2178
2686790 14.0316 14.4767 26.3416 22.3679 -1.14242 3.9242 77.2178
2686800 14.0316 14.4491 26.3515 22.4264 -1.13503 3.94076 77.2585
2686812 14.0316 14.4491 26.3515 22.4264 -1.13503 3.94076 77.2585
2686820 13.9788 14.4767 26.3712 22.3582 -1.13852 3.94 77.1848
2686830 14.0316 14.4859 26.4105 22.3484 -1.16717 3.92903 77.2765
2686851 14.0052 14.4767 26.3318 22.3582 -1.13451 3.92787 77.1718
2686861 13.9699 14.4215 26.3219 22.2802 -1.16575 3.93749 76.9936
2686881 13.9611 14.4307 26.2826 22.3582 -1.12124 3.94293 77.0325
2686891 13.9611 14.4307 26.2826 22.3582 -1.12124 3.94293 77.0325
2686902 13.9083 14.4307 26.3318 22.2802 -1.14657 3.95182 76.951
2686913 13.8995 14.3938 26.3613 22.3777 -1.13242 3.98125 77.0323
2686921 13.8995 14.3938 26.3613 22.3777 -1.13242 3.98125 77.0323
2686931 13.9259 14.3846 26.3712 22.3777 -1.14678 3.97842 77.0593
2686941 13.9259 14.3846 26.3219 22.4069 -1.12162 3.97556 77.0393
2686951 13.9259 14.403 26.3219 22.4069 -1.11538 3.97102 77.0578
2686963 13.9611 14.4399 26.3121 22.3874 -1.11737 3.9491 77.1005
2686972 13.9611 14.4399 26.3121 22.3874 -1.11737 3.9491 77.1005
2686982 14.0052 14.4122 26.2432 22.3971 -1.11572 3.93657 77.0578
2686992 13.9347 14.4767 26.3023 22.3874 -1.09365 3.94513 77.1011
2687004 13.9347 14.4767 26.3023 22.3874 -1.09365 3.94513 77.1011
2687012 14.014 14.5043 26.3219 22.3971 -1.11166 3.92312 77.2374
2687023 14.014 14.5043 26.3219 22.3971 -1.11166 3.92312 77.2374
2687032 14.0228 14.5412 26.2629 22.3582 -1.09683 3.89786 77.185
2687042 14.0228 14.5228 26.3613 22.3874 -1.12362 3.9207 77.2943
2687052 14.0228 14.5228 26.3613 22.3874 -1.12362 3.9207 77.2943
2687062 13.9788 14.4675 26.2432 22.3387 -1.10861 3.92109 77.0281
2687074 13.9611 14.403 26.3023 22.4069 -1.12019 3.95953 77.0733
2687083 13.9611 14.403 26.3023 22.4069 -1.12019 3.95953 77.0733
2687092 13.9523 14.3938 26.381 22.4264 -1.13836 3.97802 77.1535
2687115 13.9435 14.3202 26.3613 22.5238 -1.12151 4.00941 77.1488
2687124 13.8378 14.3294 26.4696 22.4848 -1.13238 4.04308 77.1216
2687133 13.8378 14.3294 26.4696 22.4848 -1.13238 4.04308 77.1216
2687143 13.8731 14.2833 26.4204 22.514 -1.13376 4.04291 77.0908
2687153 13.8114 14.2741 26.4893 22.514 -1.13912 4.07021 77.0888
2687164 13.8114 14.2741 26.4893 22.514 -1.13912 4.07021 77.0888
2687173 13.8114 14.3478 26.4991 22.5043 -1.12051 4.05201 77.1626
2687184 13.8114 14.3478 26.3909 22.5043 -1.08695 4.03663 77.0543
2687193 13.8819 14.2925 26.3909 22.4848 -1.13413 4.0301 77.05
2687204 13.8554 14.3202 26.4105 22.5433 -1.10287 4.04091 77.1294
2687214 13.8554 14.3202 26.4105 22.5433 -1.10287 4.04091 77.1294
2687229 13.9347 14.3109 26.3613 22.4556 -1.14501 4.00413 77.0626
2687233 13.9171 14.3202 26.3712 22.514 -1.11967 4.01594 77.1225
2687255 13.9347 14.3386 26.4302 22.5628 -1.12068 4.02239 77.2663
2687265 13.9347 14.3386 26.4302 22.5628 -1.12068 4.02239 77.2663
2687288 13.8642 14.2925 26.4598 22.5238 -1.13679 4.04978 77.1403
2687310 13.9083 14.3294 26.5483 22.5725 -1.1488 4.0493 77.3585
2687310 13.8554 14.3109 26.4401 22.514 -1.12503 4.04323 77.1205
2687315 13.8378 14.3017 26.568 22.5043 -1.16557 4.06662 77.2119
2687330 13.8378 14.3017 26.568 22.5043 -1.16557 4.06662 77.2119
2687336 13.8731 14.2925 26.5287 22.4166 -1.19716 4.04217 77.1109
2687346 13.8819 14.2925 26.509 22.4166 -1.1938 4.0372 77.1
2687356 13.8819 14.2833 26.509 22.4946 -1.17048 4.05054 77.1687
2687366 13.8731 14.2649 26.4598 22.4069 -1.18858 4.03781 77.0046
2687376 13.8731 14.2649 26.4598 22.4069 -1.18858 4.03781 77.0046
2687386 13.8995 14.2741 26.4696 22.4653 -1.1768 4.03872 77.1085
2687397 13.9171 14.3109 26.4991 22.5238 -1.15905 4.03779 77.251
2687406 13.9171 14.3109 26.4991 22.5238 -1.15905 4.03779 77.251
2687420 13.8731 14.2741 26.5582 22.5433 -1.16956 4.06887 77.2486
2687426 13.8731 14.2741 26.5582 22.5433 -1.16956 4.06887 77.2486
2687436 13.8819 14.2925 26.5976 22.514 -1.18808 4.06359 77.286
2687446 13.8466 14.2281 26.5779 22.5238 -1.1897 4.0868 77.1764
2687456 13.8466 14.2281 26.5779 22.5238 -1.1897 4.0868 77.1764
2687466 13.8114 14.2189 26.6074 22.4946 -1.20099 4.09784 77.1322
2687486 13.8114 14.2465 26.5483 22.5043 -1.17006 4.08403 77.1105
2687488 13.8114 14.2465 26.5483 22.5043 -1.17006 4.08403 77.1105
2687497 13.8907 14.2281 26.6074 22.4458 -1.23885 4.06906 77.172
2687516 13.8378 14.2649 26.509 22.3971 -1.19622 4.05214 77.0088
2687526 13.8378 14.2925 26.5582 22.4458 -1.18548 4.05922 77.1344
2687547 13.9259 14.2833 26.5582 22.4361 -1.21908 4.03837 77.2035
2687560 13.8466 14.2189 26.6074 22.4166 -1.23836 4.07809 77.0895
2687567 13.8466 14.2189 26.6074 22.4166 -1.23836 4.07809 77.0895
2687580 13.9259 14.2096 26.6862 22.4458 -1.28016 4.07605 77.2676
2687587 13.9259 14.2096 26.6862 22.4458 -1.28016 4.07605 77.2676
2687601 13.8731 14.2096 26.6468 22.4069 -1.26507 4.07803 77.1364
2687608 13.8731 14.2465 26.696 22.514 -1.23127 4.09103 77.3296
2687622 13.8731 14.2465 26.696 22.514 -1.23127 4.09103 77.3296
2687629 13.8378 14.1912 26.6468 22.4653 -1.2406 4.09957 77.1412
2687638 13.8731 14.1912 26.7157 22.4264 -1.28589 4.09509 77.2063
2687649 13.8731 14.1912 26.7157 22.4264 -1.28589 4.09509 77.2063
2687659 13.8731 14.1728 26.6665 22.553 -1.23397 4.11056 77.2654
2687669 13.8731 14.1728 26.6665 22.553 -1.23397 4.11056 77.2654
2687685 13.8114 14.1268 26.6763 22.4458 -1.27015 4.12352 77.0603
2687689 13.8114 14.2004 26.7452 22.4653 -1.25963 4.11773 77.2224
2687701 13.8114 14.2004 26.7452 22.4653 -1.25963 4.11773 77.2224
2687710 13.829 14.1452 26.7058 22.4166 -1.28834 4.11463 77.0967
2687720 13.8466 14.1176 26.7255 22.4556 -1.29594 4.12538 77.1453
2687732 13.8466 14.1176 26.7255 22.4556 -1.29594 4.12538 77.1453
2687740 13.829 14.1452 26.7354 22.4946 -1.27087 4.12978 77.2041
2687756 13.785 14.1083 26.7649 22.5433 -1.26237 4.16084 77.2015
2687760 13.785 14.1083 26.7649 22.5433 -1.26237 4.16084 77.2015
2687770 13.7674 14.1083 26.8633 22.6017 -1.26733 4.18719 77.3408
2687780 13.7674 14.1083 26.8633 22.6017 -1.26733 4.18719 77.3408
2687790 13.7321 14.0715 26.8043 22.553 -1.26745 4.19001 77.1609
2687803 13.7057 14.0899 26.7649 22.5822 -1.23098 4.19058 77.1428
2687811 13.7057 14.0899 26.7649 22.5822 -1.23098 4.19058 77.1428
2687825 13.7762 14.1176 26.8141 22.6212 -1.24518 4.17856 77.3291
2687831 13.7674 14.0899 26.824 22.5725 -1.27143 4.18216 77.2537
2687851 13.7762 14.1268 26.8043 22.6797 -1.21921 4.18307 77.3869
2687872 13.7409 14.0715 26.7748 22.6699 -1.22133 4.20005 77.2571
2687881 13.7762 14.0439 26.8338 22.6699 -1.2597 4.20641 77.3238
2687897 13.7762 14.0439 26.8338 22.6699 -1.2597 4.20641 77.3238
2687903 13.7938 14.0991 26.7846 22.6407 -1.24115 4.17735 77.3182
2687912 13.7057 14.1083 26.8535 22.6309 -1.23544 4.20521 77.2985
2687923 13.7057 14.1083 26.8535 22.6309 -1.23544 4.20521 77.2985
2687939 13.7409 14.0531 26.8535 22.6309 -1.26504 4.21018 77.2785
2687945 13.7409 14.0531 26.8535 22.6309 -1.26504 4.21018 77.2785
2687954 13.7233 14.0439 26.8338 22.4946 -1.30315 4.19502 77.0956
2687969 13.7321 14.007 26.8437 22.5238 -1.31148 4.20747 77.1066
2687974 13.7321 14.007 26.8437 22.5238 -1.31148 4.20747 77.1066
2687984 13.6705 14.0807 26.7748 22.5628 -1.23291 4.20029 77.0887
2687993 13.6969 14.007 26.7748 22.5725 -1.26283 4.21343 77.0512
2688004 13.6969 14.007 26.7748 22.5725 -1.26283 4.21343 77.0512
2688014 13.7145 13.9518 26.883 22.5822 -1.31707 4.23931 77.1316
2688036 13.6264 13.9334 26.8338 22.6699 -1.25123 4.27127 77.0635
2688043 13.7233 13.9886 26.9027 22.6212 -1.29998 4.23611 77.2359
2688055 13.7233 13.9886 26.9027 22.6212 -1.29998 4.23611 77.2359
2688064 13.7057 13.9794 26.8437 22.592 -1.28953 4.23048 77.1208
2688076 13.6793 13.9886 26.9126 22.7673 -1.23982 4.26877 77.3478
2688084 13.6793 13.9886 26.9126 22.7673 -1.23982 4.26877 77.3478
2688097 13.7145 14.0255 26.8929 22.816 -1.2156 4.25486 77.4489
2688105 13.7145 14.0255 26.8929 22.816 -1.2156 4.25486 77.4489
2688115 13.7057 13.9518 26.8338 22.7966 -1.22631 4.26449 77.2879
2688125 13.7057 13.9794 26.8437 22.6797 -1.25967 4.24271 77.2084
2688135 13.7057 13.9794 26.8437 22.6797 -1.25967 4.24271 77.2084
2688145 13.6617 14.0255 26.7649 22.6602 -1.21282 4.22851 77.1122
2688155 13.6969 14.007 26.7452 22.6115 -1.24046 4.21475 77.0606
2688165 13.6969 14.007 26.7452 22.6115 -1.24046 4.21475 77.0606
2688175 13.7057 14.0163 26.696 22.5822 -1.23481 4.19927 77.0002
2688195 13.6529 14.007 26.7748 22.6407 -1.22603 4.23395 77.0753
2688209 13.7145 13.915 26.8043 22.6212 -1.29214 4.24295 77.0549
2688215 13.7145 13.915 26.8043 22.6212 -1.29214 4.24295 77.0549
2688225 13.7321 14.0255 26.824 22.6797 -1.24609 4.22192 77.2612
2688235 13.7233 14.0623 26.8535 22.6017 -1.26643 4.20819 77.2408
2688246 13.7233 14.0623 26.8535 22.6017 -1.26643 4.20819 77.2408
2688255 13.7409 14.0623 26.8338 22.592 -1.26911 4.1997 77.229
2688265 13.7409 14.0623 26.8338 22.592 -1.26911 4.1997 77.229
2688278 13.7409 14.0439 26.8437 22.5628 -1.28835 4.20157 77.1912
2688285 13.7762 14.0439 26.8437 22.4751 -1.32906 4.18052 77.1388
2688309 13.7762 14.0439 26.8437 22.4751 -1.32906 4.18052 77.1388
2688311 13.8202 14.1544 26.7944 22.4653 -1.29312 4.13388 77.2344
2688315 13.8202 14.1544 26.7944 22.4653 -1.29312 4.13388 77.2344
2688325 13.7762 14.1176 26.7748 22.4751 -1.28277 4.15254 77.1435
2688335 13.7938 14.136 26.7944 22.4751 -1.28796 4.14637 77.1993
2688349 13.7938 14.136 26.7944 22.4751 -1.28796 4.14637 77.1993
2688356 13.8202 14.0623 26.7649 22.4653 -1.31544 4.15257 77.1127
2688366 13.7762 14.0623 26.8437 22.5433 -1.29953 4.1855 77.2254
2688376 13.7762 14.0623 26.8437 22.5433 -1.29953 4.1855 77.2254
2688386 13.8114 14.0899 26.7748 22.5628 -1.27316 4.16297 77.2388
2688406 13.7762 14.0623 26.824 22.5043 -1.30676 4.17728 77.1667
2688417 13.8202 14.1083 26.7846 22.3971 -1.32905 4.13431 77.1103
2688426 13.8202 14.1083 26.7846 22.3971 -1.32905 4.13431 77.1103
2688440 13.8114 14.0715 26.7354 22.3582 -1.33713 4.13321 76.9764
2688447 13.8378 14.1176 26.7649 22.3874 -1.32859 4.1235 77.1077
2688466 13.8907 14.2281 26.7157 22.3874 -1.29203 4.07612 77.2218
2688476 13.8907 14.2281 26.7157 22.3874 -1.29203 4.07612 77.2218
2688487 13.8466 14.1636 26.7649 22.2997 -1.34552 4.09752 77.0749
2688496 13.8554 14.1912 26.7748 22.3192 -1.33515 4.09265 77.1406
2688514 13.8554 14.1912 26.7748 22.3192 -1.33515 4.09265 77.1406
2688517 13.8819 14.1176 26.8043 22.3582 -1.36416 4.11402 77.1619
2688527 13.7674 14.1728 26.824 22.3777 -1.30956 4.13423 77.1418
2688537 13.7674 14.1728 26.824 22.3777 -1.30956 4.13423 77.1418
2688547 13.8378 14.0991 26.7846 22.4264 -1.32762 4.13634 77.1479
2688560 13.8378 14.0991 26.7846 22.4264 -1.32762 4.13634 77.1479
2688569 13.785 14.1544 26.8043 22.3679 -1.31853 4.13028 77.1116
2688580 13.8466 14.2096 26.8043 22.3874 -1.31197 4.10407 77.2479
2688589 13.8466 14.2096 26.8043 22.3874 -1.31197 4.10407 77.2479
2688597 13.8202 14.1544 26.7157 22.3484 -1.30879 4.10628 77.0387
2688607 13.8731 14.2096 26.7551 22.4166 -1.29503 4.09472 77.2544
2688617 13.8731 14.2096 26.7551 22.4166 -1.29503 4.09472 77.2544
2688627 13.8819 14.182 26.7354 22.3971 -1.30773 4.09384 77.1964
2688637 13.8819 14.182 26.7354 22.3971 -1.30773 4.09384 77.1964
2688650 13.8731 14.136 26.7551 22.3971 -1.32677 4.11019 77.1612
2688659 13.8466 14.136 26.7649 22.4361 -1.30839 4.12362 77.1836
2688672 13.8466 14.136 26.7649 22.4361 -1.30839 4.12362 77.1836
2688679 13.8642 14.1452 26.8043 22.3484 -1.35265 4.11017 77.1621
2688689 13.8554 14.1544 26.7846 22.3387 -1.3441 4.10591 77.1331
2688698 13.8554 14.1544 26.7846 22.3387 -1.3441 4.10591 77.1331
2688714 13.8731 14.2281 26.7846 22.3192 -1.331 4.08057 77.2049
2688730 13.9083 14.1636 26.7551 22.3484 -1.34477 4.08775 77.1754
2688742 13.9083 14.1636 26.7649 22.3289 -1.35444 4.08639 77.1657
2688750 13.9083 14.1636 26.7649 22.3289 -1.35444 4.08639 77.1657
2688764 13.9699 14.1636 26.7255 22.2802 -1.37792 4.05867 77.1393
2688770 13.9523 14.1912 26.7748 22.2997 -1.37149 4.06594 77.218
2688780 13.9523 14.1912 26.7748 22.2997 -1.37149 4.06594 77.218
2688790 13.9435 14.2557 26.7255 22.2802 -1.33837 4.04246 77.205
2688810 13.9611 14.1728 26.6862 22.29 -1.35667 4.05437 77.1101
2688820 13.9347 14.2557 26.6862 22.2802 -1.32359 4.03905 77.1568
2688841 13.9259 14.2096 26.7058 22.3387 -1.3227 4.06367 77.1801
2688854 13.9699 14.1912 26.7255 22.3289 -1.35184 4.05876 77.2156
2688861 13.9699 14.1912 26.7255 22.3289 -1.35184 4.05876 77.2156
2688871 14.0052 14.2004 26.7255 22.2997 -1.36946 4.04365 77.2309
2688881 14.0052 14.2004 26.7255 22.2997 -1.36946 4.04365 77.2309
2688891 13.8995 14.2004 26.7255 22.3387 -1.32377 4.07527 77.1641
2688901 13.9964 14.2096 26.696 22.4458 -1.30479 4.06007 77.3479
2688923 13.9699 14.2096 26.6566 22.3679 -1.31114 4.04997 77.2041
2688931 13.9171 14.2189 26.6665 22.4458 -1.26827 4.07317 77.2483
2688952 13.9347 14.2925 26.6862 22.3777 -1.27786 4.04379 77.291
2688964 13.9083 14.2833 26.6665 22.3484 -1.27678 4.04564 77.2065
2688973 13.9083 14.2833 26.6665 22.3484 -1.27678 4.04564 77.2065
2688983 13.9083 14.2096 26.6173 22.3095 -1.30004 4.05131 77.0446
2688992 13.9083 14.2096 26.6173 22.3095 -1.30004 4.05131 77.0446
2689003 13.9259 14.2004 26.6074 22.3387 -1.2956 4.05198 77.0724
2689012 13.9171 14.2004 26.6074 22.3289 -1.29621 4.05278 77.0539
2689024 13.9171 14.2004 26.6074 22.3289 -1.29621 4.05278 77.0539
2689032 13.9083 14.1912 26.568 22.3484 -1.27788 4.05441 77.016
2689045 13.9083 14.1912 26.6074 22.3484 -1.29 4.06 77.0553
2689052 13.8554 14.1452 26.6074 22.3679 -1.28279 4.08726 76.9759
2689066 13.8554 14.2189 26.6665 22.4069 -1.26258 4.0829 77.1476
2689074 13.8554 14.2189 26.6665 22.4069 -1.26258 4.0829 77.1476
2689088 13.829 14.1636 26.6468 22.4361 -1.25724 4.10447 77.0755
2689093 13.829 14.1544 26.696 22.4848 -1.25894 4.12058 77.1642
2689113 13.829 14.2004 26.6074 22.4946 -1.21268 4.09804 77.1314
2689124 13.8202 14.1636 26.6173 22.5238 -1.21559 4.11487 77.1248
2689134 13.8202 14.1636 26.6173 22.5238 -1.21559 4.11487 77.1248
2689144 13.8995 14.182 26.6862 22.553 -1.24502 4.10453 77.3207
2689153 13.8995 14.182 26.6862 22.553 -1.24502 4.10453 77.3207
2689164 13.785 14.2004 26.6369 22.5043 -1.20489 4.1145 77.1266
2689175 13.9171 14.2189 26.5877 22.4848 -1.23081 4.06754 77.2085
2689195 13.8731 14.2557 26.5877 22.4556 -1.21466 4.06518 77.1721
2689205 13.8907 14.2741 26.5385 22.3971 -1.21852 4.041 77.1004
2689220 13.8907 14.2741 26.5385 22.3971 -1.21852 4.041 77.1004
2689225 13.9435 14.2649 26.5188 22.3971 -1.23188 4.02743 77.1244
2689249 13.9171 14.2557 26.4204 22.3387 -1.21637 4.01386 76.9319
2689255 13.9876 14.2833 26.4204 22.3777 -1.21547 3.99522 77.0689
2689265 13.9876 14.2833 26.4204 22.3777 -1.21547 3.99522 77.0689
2689276 13.9347 14.3662 26.3515 22.3777 -1.14966 3.97797 77.03
2689286 13.9699 14.3109 26.4499 22.3777 -1.20975 3.99697 77.1085
2689306 14.014 14.357 26.4499 22.4069 -1.19777 3.97897 77.2278
2689326 13.9876 14.3846 26.4204 22.4458 -1.15794 3.98002 77.2384
2689336 14.0052 14.4122 26.4794 22.3874 -1.19202 3.969 77.2843
2689351 14.0052 14.4122 26.4794 22.3874 -1.19202 3.969 77.2843
2689356 14.0052 14.403 26.381 22.3387 -1.18131 3.95022 77.1279
2689367 14.058 14.3754 26.3515 22.2802 -1.21776 3.9314 77.0651
2689381 14.058 14.3754 26.3515 22.2802 -1.21776 3.9314 77.0651
2689387 14.0933 14.4491 26.3712 22.2413 -1.2229 3.90191 77.1548
2689407 14.058 14.3754 26.3613 22.2218 -1.2407 3.92442 77.0165
2689417 14.1109 14.4583 26.2826 22.1536 -1.2277 3.86992 77.0053
2689430 14.1109 14.4583 26.2826 22.1536 -1.2277 3.86992 77.0053
2689437 14.0933 14.4399 26.2924 22.2413 -1.20173 3.89283 77.0668
2689452 14.0756 14.4491 26.3613 22.251 -1.21112 3.90622 77.1371
2689457 14.0756 14.4491 26.3613 22.251 -1.21112 3.90622 77.1371
2689467 14.1373 14.4307 26.3318 22.251 -1.22728 3.89137 77.1508
2689479 14.1373 14.4307 26.3318 22.251 -1.22728 3.89137 77.1508
2689489 14.0933 14.3846 26.3318 22.212 -1.24264 3.90785 77.0217
2689503 14.0756 14.5043 26.2629 22.251 -1.16196 3.8785 77.0939
2689519 14.0668 14.4951 26.2826 22.1828 -1.19161 3.87591 77.0273
2689530 14.1109 14.5135 26.3121 22.2413 -1.18822 3.87332 77.1778
2689539 14.1109 14.5135 26.3121 22.2413 -1.18822 3.87332 77.1778
2689553 14.0668 14.4859 26.2826 22.251 -1.17157 3.88801 77.0863
2689558 14.0668 14.4859 26.2826 22.251 -1.17157 3.88801 77.0863
2689568 14.0668 14.5228 26.3416 22.2413 -1.18062 3.88609 77.1725
2689579 14.1197 14.4583 26.2826 22.2802 -1.18736 3.88604 77.1408
2689589 14.1197 14.4583 26.2826 22.2802 -1.18736 3.88604 77.1408
2689600 14.1813 14.4859 26.253 22.2315 -1.20443 3.85291 77.1518
2689609 14.1549 14.4859 26.2629 22.2023 -1.20924 3.85657 77.106
2689623 14.1549 14.4859 26.2629 22.2023 -1.20924 3.85657 77.106
2689628 14.199 14.5043 26.2432 22.2315 -1.20057 3.84269 77.178
2689650 14.1637 14.4491 26.2629 22.2607 -1.20462 3.87187 77.1364
2689660 14.1549 14.4307 26.2727 22.3289 -1.18804 3.88978 77.1872
2689671 14.1549 14.4307 26.2727 22.3289 -1.18804 3.88978 77.1872
2689680 14.1725 14.4859 26.2727 22.1926 -1.22102 3.85228 77.1237
2689693 14.1549 14.4859 26.2924 22.1438 -1.23824 3.85239 77.0771
2689700 14.1549 14.4675 26.2924 22.1438 -1.24451 3.8569 77.0587
2689710 14.1725 14.5043 26.2235 22.1633 -1.20952 3.83643 77.0637
2689720 14.1725 14.5043 26.2235 22.1633 -1.20952 3.83643 77.0637
2689730 14.1637 14.4675 26.2334 22.1146 -1.23896 3.84196 76.9792
2689740 14.1373 14.5135 26.2334 22.1438 -1.20517 3.8414 77.028
2689763 14.1813 14.532 26.3023 22.1244 -1.24037 3.83329 77.1399
2689771 14.1549 14.532 26.2629 22.1341 -1.21677 3.83545 77.0839
2689786 14.1549 14.532 26.2629 22.1341 -1.21677 3.83545 77.0839
2689793 14.1725 14.532 26.2727 22.0951 -1.2385 3.82693 77.0724
2689812 14.1725 14.4583 26.2924 22.1633 -1.24644 3.85766 77.0866
2689821 14.1461 14.532 26.3219 22.1438 -1.22896 3.84756 77.1439
2689855 14.1549 14.5043 26.3023 22.1633 -1.22837 3.85213 77.1248
2689856 14.1725 14.4399 26.253 22.1633 -1.24057 3.85647 77.0288
2689861 14.1725 14.4399 26.253 22.1633 -1.24057 3.85647 77.0288
2689871 14.199 14.5043 26.2826 22.1244 -1.24914 3.83288 77.1102
2689881 14.199 14.5043 26.2826 22.1244 -1.24914 3.83288 77.1102
2689895 14.1197 14.4675 26.2727 22.0854 -1.24749 3.85422 76.9453
2689902 14.1549 14.5228 26.2432 22.1244 -1.21715 3.83344 77.0452
2689911 14.1549 14.5228 26.2432 22.1244 -1.21715 3.83344 77.0452
2689925 14.1813 14.5596 26.194 22.1633 -1.18434 3.8165 77.0982
2689931 14.1813 14.5596 26.194 22.1633 -1.18434 3.8165 77.0982
2689941 14.1373 14.5043 26.3121 22.1731 -1.22267 3.85927 77.1268
2689951 14.1285 14.4951 26.3613 22.212 -1.225 3.8764 77.197
2689972 14.0668 14.5135 26.3121 22.2607 -1.16802 3.8869 77.1532
2689982 14.1109 14.4767 26.3318 22.2413 -1.2068 3.88517 77.1606
2689995 14.1109 14.4767 26.3318 22.2413 -1.2068 3.88517 77.1606
2690002 14.1197 14.532 26.3613 22.3095 -1.17676 3.88357 77.3224
2690012 14.1197 14.532 26.3613 22.3095 -1.17676 3.88357 77.3224
2690022 14.1109 14.5504 26.3121 22.2802 -1.16253 3.86993 77.2536
2690032 14.1109 14.5228 26.4105 22.2705 -1.20552 3.88944 77.3147
2690042 14.1109 14.5228 26.4105 22.2705 -1.20552 3.88944 77.3147
2690055 14.1021 14.4675 26.3023 22.2023 -1.21135 3.8797 77.0741
2690062 14.0228 14.4399 26.3416 22.1926 -1.21174 3.9102 76.9968
2690072 14.0228 14.4399 26.3416 22.1926 -1.21174 3.9102 76.9968
2690082 14.0668 14.4675 26.2334 22.212 -1.17585 3.8798 76.9797
2690092 14.0668 14.4675 26.2334 22.212 -1.17585 3.8798 76.9797
2690107 14.0668 14.403 26.3023 22.2413 -1.20914 3.90977 77.0134
2690122 14.0228 14.4307 26.381 22.2315 -1.21377 3.92373 77.066
2690132 14.014 14.3846 26.3121 22.212 -1.21208 3.9245 76.9227
2690143 13.9788 14.3754 26.4598 22.3387 -1.20684 3.97477 77.1526
2690152 13.9788 14.3754 26.4598 22.3387 -1.20684 3.97477 77.1526
2690164 13.8907 14.3846 26.4696 22.4069 -1.15642 4.00532 77.1518
2690173 13.8907 14.3846 26.4696 22.4069 -1.15642 4.00532 77.1518
2690190 13.9259 14.3938 26.4598 22.4264 -1.15454 3.99576 77.2058
2690192 13.9171 14.3662 26.509 22.4458 -1.16977 4.01451 77.2381
2690204 13.9171 14.3662 26.509 22.4458 -1.16977 4.01451 77.2381
2690215 13.9347 14.3478 26.568 22.4361 -1.20295 4.02171 77.2866
2690224 13.9347 14.3386 26.509 22.4361 -1.18787 4.01558 77.2184
2690241 13.9347 14.3386 26.509 22.4361 -1.18787 4.01558 77.2184
2690245 13.8819 14.2925 26.5779 22.3971 -1.22168 4.04422 77.1494
2690268 13.829 14.2833 26.4991 22.3874 -1.1875 4.04698 76.9989
2690274 13.8731 14.2833 26.4401 22.3679 -1.18948 4.0249 76.9644
2690296 13.9083 14.357 26.5385 22.3874 -1.19911 4.01483 77.1912
2690304 13.8378 14.2649 26.509 22.3192 -1.22275 4.04105 76.9309
2690321 13.8378 14.2649 26.509 22.3192 -1.22275 4.04105 76.9309
2690324 13.7938 14.2373 26.5877 22.4848 -1.18653 4.09348 77.1036
2690333 13.7938 14.2373 26.5877 22.4848 -1.18653 4.09348 77.1036
2690348 13.7938 14.2096 26.6271 22.4751 -1.21138 4.10452 77.1056
2690354 13.8202 14.2281 26.6862 22.5043 -1.22154 4.10588 77.2387
2690375 13.8202 14.2649 26.7255 22.5725 -1.19805 4.11193 77.3831
2690385 13.8202 14.2649 26.7255 22.5725 -1.19805 4.11193 77.3831
2690402 13.7409 14.2465 26.6862 22.4556 -1.2074 4.11407 77.1292
2690405 13.7497 14.2373 26.6862 22.4458 -1.21656 4.1128 77.119
2690415 13.7497 14.2373 26.6862 22.4458 -1.21656 4.1128 77.119
2690428 13.7145 14.2373 26.696 22.3679 -1.23525 4.11192 77.0157
2690435 13.8114 14.2649 26.6468 22.4264 -1.22066 4.08237 77.1494
2690455 13.8378 14.2557 26.6665 22.4751 -1.22145 4.08779 77.2351
2690476 13.8642 14.2833 26.6271 22.4361 -1.22131 4.06335 77.2108
2690485 13.8554 14.2096 26.5779 22.4751 -1.21522 4.08229 77.118
2690511 13.8114 14.2189 26.6566 22.4166 -1.24267 4.09378 77.1035
2690519 13.8378 14.182 26.696 22.4946 -1.24895 4.11293 77.2104
2690526 13.8378 14.182 26.696 22.4946 -1.24895 4.11293 77.2104
2690535 13.7938 14.2465 26.6665 22.4653 -1.21432 4.09958 77.1721
2690557 13.8026 14.2281 26.7354 22.4848 -1.23788 4.11443 77.2508
2690566 13.7409 14.1912 26.7255 22.5043 -1.22176 4.14019 77.162
2690589 13.7409 14.136 26.7157 22.5238 -1.23089 4.15526 77.1164
2690596 13.7497 14.2465 26.7551 22.4166 -1.2446 4.11611 77.1679
2690606 13.7497 14.2465 26.7551 22.4166 -1.2446 4.11611 77.1679
2690616 13.6793 14.1636 26.7748 22.4458 -1.24721 4.16106 77.0635
2690626 13.6793 14.1636 26.7748 22.4458 -1.24721 4.16106 77.0635
2690636 13.7057 14.2281 26.7846 22.514 -1.21329 4.14947 77.2324
2690646 13.7233 14.1636 26.7649 22.4653 -1.25111 4.15147 77.1172
2690659 13.7233 14.1636 26.7649 22.4653 -1.25111 4.15147 77.1172
2690666 13.7762 14.2373 26.8141 22.5433 -1.23101 4.13799 77.3708
2690676 13.6705 14.1544 26.7452 22.5628 -1.19876 4.17782 77.1328
2690686 13.6705 14.1544 26.7452 22.5628 -1.19876 4.17782 77.1328
2690696 13.7233 14.1636 26.8043 22.514 -1.24667 4.16385 77.2052
2690706 13.7233 14.1636 26.8043 22.514 -1.24667 4.16385 77.2052
2690716 13.644 14.136 26.8338 22.4653 -1.25733 4.18774 77.0792
2690729 13.644 14.1544 26.824 22.514 -1.23145 4.1886 77.1364
2690738 13.644 14.1544 26.824 22.514 -1.23145 4.1886 77.1364
2690753 13.6705 14.1636 26.824 22.4751 -1.24971 4.17427 77.1331
2690756 13.644 14.1268 26.824 22.4653 -1.25743 4.18864 77.0601
2690766 13.644 14.1268 26.824 22.4653 -1.25743 4.18864 77.0601
2690778 13.7409 14.1083 26.8535 22.6017 -1.25619 4.19237 77.3045
2690801 13.7321 14.2004 26.8043 22.5628 -1.22032 4.15936 77.2996
2690807 13.6881 14.1083 26.8535 22.592 -1.24326 4.20414 77.2419
2690818 13.6881 14.1083 26.8535 22.592 -1.24326 4.20414 77.2419
2690829 13.7057 14.1176 26.8437 22.6212 -1.2326 4.20018 77.2881
2690837 13.6176 14.0715 26.8633 22.553 -1.25038 4.22679 77.1055
2690851 13.6176 14.0715 26.8633 22.553 -1.25038 4.22679 77.1055
2690859 13.6705 14.0531 26.8929 22.6699 -1.24224 4.23863 77.2863
2690879 13.5736 14.0347 26.824 22.6309 -1.21067 4.25236 77.0632
2690889 13.5736 14.1083 26.8732 22.5822 -1.21737 4.23404 77.1373
2690903 13.5736 14.1083 26.8732 22.5822 -1.21737 4.23404 77.1373
2690909 13.6 14.0715 26.8732 22.6115 -1.2281 4.24071 77.1562
2690919 13.5824 14.0807 26.8929 22.6504 -1.21237 4.25098 77.2064
2690930 13.5824 14.0807 26.8929 22.6504 -1.21237 4.25098 77.2064
2690939 13.6705 14.1083 26.8338 22.6017 -1.22847 4.20713 77.2143
2690951 13.6705 14.1083 26.8338 22.6017 -1.22847 4.20713 77.2143
2690960 13.6793 14.0623 26.8437 22.6017 -1.24986 4.21777 77.187
2690977 13.644 14.0623 26.8141 22.6894 -1.20013 4.23466 77.2099
2690980 13.644 14.0623 26.8141 22.6894 -1.20013 4.23466 77.2099
2690990 13.6352 14.0623 26.8437 22.6991 -1.20321 4.24233 77.2403
2691006 13.6264 14.0531 26.8535 22.7673 -1.18354 4.25768 77.3004
2691020 13.6 14.0255 26.824 22.7479 -1.18225 4.26434 77.1973
2691040 13.5736 14.0163 26.8732 22.855 -1.1561 4.29493 77.318
2691049 13.6 14.0163 26.9815 22.8648 -1.19428 4.30466 77.4625
2691061 13.6 14.0163 26.9815 22.8648 -1.19428 4.30466 77.4625
2691071 13.5824 14.0439 27.011 22.816 -1.20507 4.29952 77.4533
2691081 13.5295 13.9886 26.9519 22.8355 -1.18275 4.32103 77.3056
2691091 13.5295 13.9886 26.9519 22.8355 -1.18275 4.32103 77.3056
2691101 13.4767 13.9426 26.9224 22.7966 -1.18617 4.33631 77.1382
2691115 13.4767 13.9426 26.9224 22.7966 -1.18617 4.33631 77.1382
2691123 13.4415 13.9978 26.883 22.7673 -1.15428 4.3218 77.0897
2691133 13.4591 13.9978 26.8338 22.6991 -1.16766 4.3011 76.9899
2691141 13.4591 13.9978 26.8338 22.6991 -1.16766 4.3011 76.9899
2691152 13.4238 13.961 26.8929 22.6699 -1.1975 4.32332 76.9476
2691164 13.5031 13.9518 26.8633 22.7284 -1.19613 4.30976 77.0466
2691172 13.5031 13.9518 26.8633 22.7284 -1.19613 4.30976 77.0466
2691182 13.4767 13.915 26.9323 22.7089 -1.22841 4.33247 77.0328
2691192 13.4767 13.915 26.9323 22.7089 -1.22841 4.33247 77.0328
2691202 13.5119 13.9886 26.9323 22.7186 -1.2109 4.30653 77.1514
2691212 13.5295 13.9978 26.9716 22.7771 -1.2055 4.31337 77.2761
2691233 13.5472 13.9794 26.9224 22.7576 -1.20863 4.30406 77.2066
2691242 13.6088 13.961 26.9126 22.7771 -1.22422 4.29459 77.2594
2691252 13.6088 13.961 26.9126 22.7771 -1.22422 4.29459 77.2594
2691262 13.6088 13.9978 26.883 22.7673 -1.20593 4.27995 77.257
2691274 13.6088 13.9978 26.883 22.7673 -1.20593 4.27995 77.257
2691282 13.5824 13.9886 26.8732 22.7089 -1.21773 4.27936 77.1531
2691295 13.6088 13.9794 26.9224 22.6407 -1.26735 4.27242 77.1513
2691302 13.6088 13.9794 26.9224 22.6407 -1.26735 4.27242 77.1513
2691312 13.6264 14.007 26.9027 22.6407 -1.25731 4.25839 77.1769
2691322 13.6352 14.0163 27.0504 22.7089 -1.27905 4.28386 77.4107
2691334 13.6352 14.0163 27.0504 22.7089 -1.27905 4.28386 77.4107
2691344 13.6264 14.0255 26.9716 22.6991 -1.25237 4.27149 77.3227
2691363 13.6529 14.0623 26.9224 22.6602 -1.24609 4.24348 77.2977
2691375 13.6 14.0623 26.9618 22.6894 -1.23203 4.26618 77.3135
2691383 13.6 14.0623 26.9618 22.6894 -1.23203 4.26618 77.3135
2691395 13.5736 14.0439 26.9716 22.6212 -1.25635 4.26926 77.2103
2691405 13.6088 14.0715 27.0012 22.6602 -1.25362 4.2631 77.3416
2691415 13.6088 14.0715 27.0012 22.6602 -1.25362 4.2631 77.3416
2691425 13.644 14.0255 26.8929 22.553 -1.28329 4.23581 77.1154
2691435 13.644 14.0255 26.8929 22.553 -1.28329 4.23581 77.1154
2691445 13.6 14.0623 26.883 22.514 -1.26743 4.23078 77.0594
2691455 13.5824 14.0991 26.8633 22.6212 -1.20694 4.2382 77.1661
2691475 13.6352 14.0347 26.883 22.6115 -1.25451 4.24249 77.1644
2691485 13.6088 14.0347 26.8437 22.6212 -1.23093 4.24495 77.1083
2691495 13.6088 14.0347 26.8437 22.6212 -1.23093 4.24495 77.1083
2691510 13.6617 14.0899 26.9126 22.6991 -1.22318 4.23847 77.3633
2691515 13.6617 14.0899 26.9126 22.6991 -1.22318 4.23847 77.3633
2691525 13.6264 14.0347 26.9618 22.6407 -1.26607 4.25971 77.2636
2691535 13.6352 14.0531 26.9027 22.6407 -1.24436 4.24471 77.2317
2691545 13.6352 14.0531 26.9027 22.6407 -1.24436 4.24471 77.2317
2691559 13.6617 14.0531 26.9027 22.5628 -1.279 4.22726 77.1802
2691565 13.6617 14.0807 26.9126 22.592 -1.26268 4.22583 77.2469
2691577 13.6617 14.0807 26.9126 22.592 -1.26268 4.22583 77.2469
2691585 13.6176 14.0991 26.9027 22.5335 -1.25973 4.22268 77.153
2691595 13.6176 14.0991 26.9027 22.5335 -1.25973 4.22268 77.153
2691607 13.5912 14.0623 26.9126 22.6115 -1.24065 4.25069 77.1775
2691615 13.6 14.0807 26.9224 22.553 -1.26001 4.23713 77.1561
2691629 13.6 14.0807 26.9224 22.553 -1.26001 4.23713 77.1561
2691635 13.7321 14.0899 26.883 22.514 -1.29864 4.191 77.2191
2691645 13.6264 14.0899 26.9126 22.5043 -1.27856 4.22007 77.1332
2691655 13.6264 14.0623 26.9126 22.5043 -1.28797 4.22696 77.1056
2691665 13.6793 14.0531 26.8929 22.5725 -1.27807 4.22286 77.1977
2691677 13.6793 14.0531 26.8929 22.5725 -1.27807 4.22286 77.1977
2691685 13.6529 14.0807 26.883 22.553 -1.26415 4.21846 77.1696
2691696 13.7057 14.0899 26.9126 22.5238 -1.29627 4.20306 77.232
2691705 13.7057 14.0899 26.9126 22.5238 -1.29627 4.20306 77.232
2691716 13.7409 14.0991 26.9224 22.553 -1.29702 4.19748 77.3155
2691726 13.7409 14.0991 26.9224 22.553 -1.29702 4.19748 77.3155
2691743 13.6969 14.1083 26.883 22.4946 -1.28818 4.19245 77.1828
2691746 13.7762 14.0531 26.8633 22.5043 -1.32198 4.18509 77.1969
2691755 13.7762 14.0531 26.8633 22.5043 -1.32198 4.18509 77.1969
2691769 13.7057 14.0807 26.8535 22.4751 -1.29787 4.19027 77.115
2691779 13.7409 14.0899 26.883 22.4458 -1.32459 4.17926 77.1597
2691786 13.7409 14.0899 26.883 22.4458 -1.32459 4.17926 77.1597
2691796 13.7585 14.1452 26.883 22.3679 -1.33773 4.15021 77.1547
2691806 13.7585 14.1452 26.883 22.3679 -1.33773 4.15021 77.1547
2691823 13.7409 14.1268 26.8732 22.4848 -1.29573 4.17419 77.2257
2691826 13.7938 14.1176 26.8929 22.4069 -1.34768 4.15518 77.2111
2691836 13.7938 14.1176 26.8929 22.4069 -1.34768 4.15518 77.2111
2691849 13.829 14.1544 26.9323 22.4166 -1.35463 4.14422 77.3323
2691856 13.8026 14.0991 26.8437 22.3679 -1.35489 4.14517 77.1133
2691866 13.8026 14.0991 26.8437 22.3679 -1.35489 4.14517 77.1133
2691877 13.8554 14.1452 26.8732 22.4166 -1.34778 4.13166 77.2904
2691887 13.8554 14.1452 26.8732 22.4166 -1.34778 4.13166 77.2904
2691901 13.785 14.136 26.8141 22.3387 -1.33783 4.13212 77.0738
2691906 13.8114 14.1728 26.824 22.3484 -1.33305 4.11919 77.1566
2691916 13.8114 14.1728 26.824 22.3484 -1.33305 4.11919 77.1566
2691926 13.8378 14.136 26.883 22.3192 -1.3818 4.12598 77.176
2691936 13.829 14.0899 26.8633 22.3289 -1.3855 4.13818 77.1112
2691948 13.829 14.0899 26.8633 22.3289 -1.3855 4.13818 77.1112
2691956 13.8466 14.2281 26.9323 22.3679 -1.35151 4.1148 77.3748
2691971 13.8466 14.2281 26.9323 22.3679 -1.35151 4.1148 77.3748
2691976 13.8114 14.2004 26.8633 22.4069 -1.31578 4.12613 77.2821
2691995 13.8907 14.2096 26.8141 22.3874 -1.32848 4.09457 77.3018
2691997 13.8907 14.2096 26.8141 22.3874 -1.32848 4.09457 77.3018
2692006 13.8378 14.2096 26.7944 22.4361 -1.28967 4.11173 77.278
2692019 13.8378 14.2096 26.7944 22.4361 -1.28967 4.11173 77.278
2692026 13.829 14.1912 26.8338 22.3679 -1.32854 4.1144 77.222
2692042 13.8466 14.2373 26.7649 22.3679 -1.29712 4.08893 77.2167
2692046 13.8466 14.2373 26.7649 22.3679 -1.29712 4.08893 77.2167
2692057 13.8642 14.2373 26.7944 22.3192 -1.32818 4.08186 77.2152
2692067 13.8466 14.2189 26.7748 22.2607 -1.34297 4.07972 77.101
2692077 13.8466 14.2189 26.7748 22.2607 -1.34297 4.07972 77.101
2692090 13.8731 14.2281 26.8141 22.2607 -1.36 4.07648 77.176
2692098 13.8731 14.2281 26.8141 22.2607 -1.36 4.07648 77.176
2692107 13.8466 14.2741 26.7354 22.2413 -1.31867 4.0577 77.0974
2692118 13.8819 14.2465 26.7649 22.251 -1.34465 4.0614 77.1443
2692128 13.8819 14.2465 26.7649 22.251 -1.34465 4.0614 77.1443
2692139 13.829 14.2004 26.7058 22.1828 -1.34937 4.06781 76.9181
2692149 13.8907 14.2281 26.7157 22.29 -1.32524 4.06232 77.1244
2692159 13.8907 14.2281 26.7157 22.29 -1.32524 4.06232 77.1244
2692168 13.8907 14.2557 26.6862 22.251 -1.32004 4.04577 77.0835
2692189 13.8995 14.2557 26.7551 22.2413 -1.34722 4.05199 77.1515
2692200 13.829 14.2741 26.7354 22.2023 -1.32657 4.05653 77.0408
2692209 13.829 14.2741 26.7354 22.2023 -1.32657 4.05653 77.0408
2692219 13.8995 14.2096 26.6763 22.2023 -1.35212 4.04665 76.9877
2692229 13.9171 14.2925 26.7354 22.2997 -1.31408 4.04406 77.2447
2692253 13.9435 14.3109 26.7157 22.3582 -1.28999 4.03851 77.3283
2692260 13.9435 14.3109 26.7157 22.3582 -1.28999 4.03851 77.3283
2692270 13.8907 14.2189 26.6369 22.3484 -1.28424 4.06172 77.0949
2692280 13.8819 14.2373 26.7354 22.3484 -1.30551 4.07329 77.2029
2692290 13.8819 14.2373 26.7354 22.3484 -1.30551 4.07329 77.2029
2692300 13.7938 14.2189 26.7255 22.3387 -1.28501 4.09687 77.0769
2692310 13.8378 14.2465 26.6763 22.3874 -1.25741 4.07906 77.148
2692322 13.8378 14.2465 26.6763 22.3874 -1.25741 4.07906 77.148
2692330 13.8466 14.2649 26.6271 22.3679 -1.24533 4.06259 77.1065
2692345 13.8114 14.2649 26.7157 22.3777 -1.25844 4.08523 77.1696
2692350 13.8114 14.1452 26.7157 22.3777 -1.29924 4.11488 77.0499
2692360 13.8378 14.1636 26.6862 22.4069 -1.28204 4.10372 77.0945
2692381 13.829 14.2189 26.6173 22.3095 -1.27248 4.06865 76.9746
2692391 13.8378 14.2649 26.6074 22.3777 -1.23323 4.06336 77.0878
2692413 13.8378 14.2649 26.6074 22.3777 -1.23323 4.06336 77.0878
2692417 13.9435 14.2925 26.6369 22.3387 -1.27871 4.0291 77.2117
2692422 13.9171 14.3202 26.6173 22.3289 -1.25845 4.02462 77.1834
2692438 13.9171 14.3202 26.6173 22.3289 -1.25845 4.02462 77.1834
2692441 13.9347 14.3109 26.5287 22.3289 -1.23973 4.00994 77.1033
2692464 13.9259 14.2557 26.5385 22.2705 -1.2788 4.01881 76.9906
2692472 13.9964 14.3386 26.4794 22.2802 -1.25074 3.97396 77.0946
2692486 13.9964 14.3386 26.4794 22.2802 -1.25074 3.97396 77.0946
2692492 13.9876 14.3754 26.5287 22.3289 -1.23409 3.98106 77.2206
2692502 13.9788 14.3754 26.4696 22.3192 -1.21649 3.9734 77.143
2692513 13.9788 14.3754 26.4696 22.3192 -1.21649 3.9734 77.143
2692522 13.9435 14.3846 26.509 22.2802 -1.22789 3.97986 77.1173
2692533 13.9435 14.3846 26.509 22.2802 -1.22789 3.97986 77.1173
2692542 13.9788 14.3109 26.4007 22.2413 -1.24372 3.96825 76.9317
2692556 14.0052 14.357 26.4794 22.251 -1.25714 3.96308 77.0926
2692562 14.0052 14.357 26.4794 22.251 -1.25714 3.96308 77.0926
2692572 14.014 14.4215 26.4893 22.2705 -1.23432 3.94927 77.1952
2692584 14.0316 14.4122 26.4794 22.2705 -1.23984 3.9458 77.1938
2692592 14.0316 14.4122 26.4794 22.2705 -1.23984 3.9458 77.1938
2692603 14.0228 14.3938 26.4302 22.1828 -1.25808 3.93285 77.0297
2692626 14.0316 14.4491 26.4499 22.2607 -1.22154 3.93113 77.1913
2692634 14.058 14.4859 26.4105 22.2607 -1.20504 3.90998 77.2152
2692649 14.058 14.4859 26.4105 22.2607 -1.20504 3.90998 77.2152
2692654 14.1109 14.4859 26.4105 22.2218 -1.23455 3.89145 77.2291
2692664 14.0316 14.4859 26.4302 22.2997 -1.18975 3.92487 77.2475
2692674 14.0316 14.4675 26.4302 22.2997 -1.19599 3.92938 77.229
2692684 13.9964 14.3938 26.4401 22.2997 -1.21318 3.95752 77.13
2692698 13.9964 14.3938 26.4401 22.2997 -1.21318 3.95752 77.13
2692703 13.9964 14.4491 26.4401 22.29 -1.19772 3.94256 77.1755
2692714 13.9523 14.4122 26.4105 22.3192 -1.17759 3.96238 77.0943
2692725 13.9523 14.4122 26.4105 22.3192 -1.17759 3.96238 77.0943
2692734 13.9611 14.4122 26.4204 22.3679 -1.16683 3.9686 77.1617
2692744 13.9611 14.4122 26.4204 22.3679 -1.16683 3.9686 77.1617
2692754 13.9347 14.3754 26.4598 22.3777 -1.18002 3.99118 77.1475
2692767 13.9083 14.403 26.4696 22.3582 -1.17213 3.98951 77.1391
2692774 13.9083 14.403 26.4696 22.3582 -1.17213 3.98951 77.1391
2692784 13.9347 14.3938 26.4598 22.3874 -1.17047 3.98803 77.1757
2692795 13.8554 14.4215 26.4794 22.4264 -1.12949 4.00911 77.1827
2692805 13.8554 14.4215 26.4794 22.4264 -1.12949 4.00911 77.1827
2692815 13.8907 14.3662 26.5188 22.4361 -1.16795 4.02103 77.2118
2692826 13.829 14.3662 26.4794 22.4361 -1.13673 4.03063 77.1108
2692837 13.829 14.3017 26.4794 22.4848 -1.14207 4.05348 77.095
2692845 13.8026 14.3662 26.5188 22.4751 -1.12753 4.04829 77.1627
2692860 13.8026 14.3662 26.5188 22.4751 -1.12753 4.04829 77.1627
2692865 13.7938 14.3294 26.5483 22.4653 -1.14972 4.06237 77.1368
2692875 13.7762 14.357 26.6074 22.4848 -1.14657 4.07102 77.2254
2692886 13.7762 14.357 26.6074 22.4848 -1.14657 4.07102 77.2254
2692895 13.7938 14.3294 26.5779 22.4946 -1.14895 4.07069 77.1956
2692908 13.7938 14.3294 26.5779 22.4946 -1.14895 4.07069 77.1956
2692915 13.7585 14.357 26.5779 22.5043 -1.12541 4.07395 77.1977
2692932 13.7497 14.357 26.5385 22.5433 -1.09731 4.07607 77.1885
2692937 13.7497 14.357 26.5385 22.5433 -1.09731 4.07607 77.1885
2692946 13.7762 14.2833 26.4991 22.553 -1.11493 4.08356 77.1116
2692957 13.7762 14.357 26.5188 22.5725 -1.08952 4.07089 77.2245
2692966 13.7762 14.357 26.5188 22.5725 -1.08952 4.07089 77.2245
2692978 13.7409 14.3478 26.5976 22.5822 -1.10281 4.09438 77.2685
2692986 13.7409 14.3478 26.5976 22.5822 -1.10281 4.09438 77.2685
2692996 13.7674 14.3478 26.568 22.6797 -1.06898 4.09742 77.3628
2693007 13.7145 14.2925 26.568 22.6504 -1.08112 4.12003 77.2255
2693016 13.7145 14.2925 26.568 22.6504 -1.08112 4.12003 77.2255
2693027 13.6881 14.2925 26.5976 22.592 -1.10184 4.1225 77.1702
2693036 13.6969 14.3017 26.5287 22.6407 -1.06363 4.11519 77.168
2693047 13.6969 14.3017 26.5287 22.6407 -1.06363 4.11519 77.168
2693059 13.7233 14.2465 26.568 22.6115 -1.11259 4.12376 77.1493
2693066 13.7233 14.2465 26.568 22.6115 -1.11259 4.12376 77.1493
2693076 13.7233 14.2373 26.5779 22.6407 -1.10886 4.13155 77.1792
2693086 13.7145 14.3202 26.6566 22.6602 -1.09591 4.12703 77.3515
2693096 13.7145 14.3202 26.6566 22.6602 -1.09591 4.12703 77.3515
2693106 13.7057 14.2649 26.5483 22.5725 -1.10799 4.11529 77.0914
2693116 13.6881 14.3017 26.5976 22.6115 -1.09213 4.12297 77.1988
2693126 13.6881 14.3017 26.5976 22.6115 -1.09213 4.12297 77.1988
2693136 13.785 14.3478 26.5976 22.5238 -1.13618 4.07524 77.2541
2693157 13.8114 14.3294 26.568 22.5043 -1.14805 4.06633 77.2131
2693169 13.785 14.3294 26.5385 22.3679 -1.17702 4.04931 77.0208
2693177 13.785 14.3294 26.5385 22.3679 -1.17702 4.04931 77.0208
2693191 13.8378 14.3202 26.4598 22.3484 -1.17877 4.02454 76.9662
2693197 13.7762 14.3202 26.4893 22.3289 -1.17545 4.04122 76.9145
2693219 13.8026 14.3846 26.5877 22.3679 -1.17891 4.03831 77.1428
2693239 13.8378 14.3202 26.568 22.3192 -1.22218 4.0358 77.0452
2693255 13.8466 14.4122 26.5976 22.3582 -1.18948 4.02065 77.2146
2693269 13.829 14.4583 26.5779 22.3679 -1.15906 4.01223 77.2331
2693279 13.8202 14.4307 26.6468 22.3874 -1.18035 4.03376 77.285
2693289 13.8202 14.4307 26.6468 22.3874 -1.18035 4.03376 77.285
2693299 13.8114 14.4675 26.6271 22.3582 -1.16899 4.01992 77.2642
2693321 13.7321 14.3938 26.6271 22.3971 -1.15627 4.06317 77.1502
2693330 13.7585 14.4122 26.6566 22.3095 -1.19705 4.04384 77.1369
2693343 13.7585 14.4122 26.6566 22.3095 -1.19705 4.04384 77.1369
2693351 13.785 14.3846 26.5976 22.3582 -1.17982 4.04267 77.1253
2693364 13.7057 14.3386 26.6763 22.3874 -1.18537 4.08896 77.108
2693381 13.7409 14.3386 26.6862 22.3777 -1.20259 4.08026 77.1433
2693391 13.7409 14.3386 26.6862 22.3777 -1.20259 4.08026 77.1433
2693401 13.6617 14.2925 26.7846 22.514 -1.17785 4.1444 77.2528
2693417 13.6529 14.3294 26.8043 22.4751 -1.18193 4.13475 77.2616
2693431 13.6176 14.2373 26.7551 22.5238 -1.17058 4.16626 77.1337
2693444 13.6088 14.2649 26.8338 22.5238 -1.18279 4.17264 77.2313
2693456 13.6088 14.2649 26.8338 22.5238 -1.18279 4.17264 77.2313
2693461 13.5912 14.2465 26.9126 22.553 -1.19797 4.1967 77.3032
2693471 13.5912 14.2465 26.9126 22.553 -1.19797 4.1967 77.3032
2693481 13.5383 14.1268 26.7846 22.4361 -1.22262 4.20538 76.8858
2693491 13.5736 14.1728 26.8043 22.553 -1.18413 4.20426 77.1037
2693511 13.6 14.182 26.8633 22.553 -1.20738 4.20365 77.1984
2693521 13.6176 14.136 26.9126 22.6602 -1.20723 4.23255 77.3263
2693542 13.5824 14.1176 26.8732 22.592 -1.21365 4.23091 77.1651
2693562 13.5119 14.0991 26.9027 22.6115 -1.20066 4.25992 77.1252
2693572 13.5472 14.1176 26.9519 22.6699 -1.2006 4.26151 77.2866
2693582 13.5472 14.1176 26.9519 22.6699 -1.2006 4.26151 77.2866
2693594 13.5031 14.0715 27.0307 22.6894 -1.2203 4.29761 77.2947
2693602 13.5031 14.007 27.011 22.7673 -1.20967 4.32176 77.2885
2693615 13.5031 14.007 27.011 22.7673 -1.20967 4.32176 77.2885
2693622 13.5031 13.9886 27.0012 22.7576 -1.21619 4.32367 77.2505
2693637 13.5031 13.9886 27.0012 22.7576 -1.21619 4.32367 77.2505
2693642 13.4238 13.9334 27.0208 22.7284 -1.22653 4.35606 77.1064
2693652 13.4238 13.9334 27.0898 22.7673 -1.23451 4.37093 77.2143
2693662 13.4238 13.9334 27.0898 22.7673 -1.23451 4.37093 77.2143
2693672 13.3974 13.9242 27.0504 22.7673 -1.21737 4.37445 77.1393
2693682 13.3798 13.8965 27.0898 22.7966 -1.22354 4.39526 77.1626
2693702 13.3798 13.8965 27.0898 22.7966 -1.22354 4.39526 77.1626
2693704 13.4503 13.915 27.1291 22.7576 -1.26432 4.373 77.2519
2693714 13.4503 13.915 27.1291 22.7576 -1.26432 4.373 77.2519
2693723 13.4415 13.8873 27.0602 22.7381 -1.25644 4.36997 77.1271
2693733 13.4503 13.9057 27.1291 22.7868 -1.25751 4.37933 77.2719
2693745 13.4503 13.9057 27.1291 22.7868 -1.25751 4.37933 77.2719
2693753 13.4238 13.8321 27.0701 22.8258 -1.24302 4.4017 77.1518
2693766 13.4238 13.8965 27.0799 22.7771 -1.24069 4.38016 77.1774
2693775 13.4238 13.8965 27.0799 22.7771 -1.24069 4.38016 77.1774
2693787 13.4238 13.8873 27.1685 22.8063 -1.26113 4.39866 77.286
2693795 13.4062 13.8229 27.2177 22.7966 -1.29607 4.42469 77.2434
2693805 13.4062 13.8229 27.2177 22.7966 -1.29607 4.42469 77.2434
2693815 13.3269 13.8229 27.2571 22.8648 -1.26062 4.45934 77.2717
2693825 13.3269 13.8229 27.2571 22.8648 -1.26062 4.45934 77.2717
2693835 13.3269 13.7952 27.2079 22.855 -1.2582 4.45826 77.1851
2693845 13.371 13.7952 27.2965 22.8648 -1.29561 4.46058 77.3274
2693855 13.371 13.7952 27.2965 22.8648 -1.29561 4.46058 77.3274
2693869 13.3622 13.8689 27.2866 22.933 -1.24174 4.45222 77.4507
2693877 13.3622 13.8689 27.3358 22.933 -1.25683 4.45892 77.4999
2693886 13.3181 13.8044 27.3358 22.816 -1.30492 4.47029 77.2745
2693896 13.3093 13.7952 27.3654 22.933 -1.27467 4.49475 77.4029
2693906 13.3093 13.7952 27.3654 22.933 -1.27467 4.49475 77.4029
2693920 13.2741 13.7308 27.4047 22.9232 -1.30115 4.5239 77.3328
2693926 13.2565 13.7216 27.3851 22.9037 -1.29948 4.52537 77.2668
2693936 13.2565 13.7216 27.3851 22.9037 -1.29948 4.52537 77.2668
2693946 13.3005 13.7676 27.3752 22.933 -1.28436 4.50527 77.3763
2693956 13.3005 13.7676 27.3752 22.933 -1.28436 4.50527 77.3763
2693966 13.2565 13.6663 27.3457 22.855 -1.32283 4.5274 77.1235
2693977 13.2741 13.7584 27.3063 22.9135 -1.26486 4.50225 77.2523
2693986 13.2741 13.7584 27.3063 22.9135 -1.26486 4.50225 77.2523
2693997 13.2917 13.74 27.2768 22.8453 -1.29068 4.48916 77.1537
2694008 13.3181 13.7308 27.3654 22.8258 -1.33575 4.49422 77.2401
2694017 13.3181 13.7308 27.3654 22.8258 -1.33575 4.49422 77.2401
2694031 13.3358 13.7676 27.326 22.7381 -1.34643 4.46317 77.1675
2694047 13.3974 13.8044 27.326 22.7284 -1.35607 4.43702 77.2562
2694058 13.3798 13.74 27.2768 22.8258 -1.32436 4.46428 77.2223
2694071 13.3798 13.74 27.2768 22.8258 -1.32436 4.46428 77.2223
2694078 13.3446 13.7492 27.3162 22.8453 -1.31585 4.47886 77.2552
2694089 13.371 13.7768 27.3063 22.8648 -1.30489 4.46656 77.3189
2694100 13.371 13.7768 27.3063 22.8648 -1.30489 4.46656 77.3189
2694109 13.371 13.7676 27.2965 22.9037 -1.29176 4.47284 77.3388
2694122 13.3886 13.7676 27.3457 22.933 -1.3023 4.47907 77.4348
2694129 13.3886 13.7492 27.3457 22.933 -1.30856 4.48371 77.4164
2694139 13.4326 13.7492 27.2965 22.8842 -1.32353 4.4593 77.3625
2694148 13.4326 13.7492 27.2965 22.8842 -1.32353 4.4593 77.3625
2694159 13.3974 13.7492 27.2965 22.9135 -1.30281 4.47215 77.3565
2694169 13.3886 13.7768 27.326 22.8745 -1.31301 4.46613 77.3659
2694180 13.3886 13.7768 27.326 22.8745 -1.31301 4.46613 77.3659
2694191 13.4062 13.8137 27.2669 22.9232 -1.27125 4.45103 77.41
2694200 13.3005 13.7492 27.2177 22.8355 -1.27541 4.47523 77.103
2694220 13.3358 13.7768 27.2177 22.7576 -1.3034 4.4487 77.0879
2694230 13.3358 13.7768 27.2177 22.7576 -1.3034 4.4487 77.0879
2694242 13.3269 13.6755 27.1685 22.7966 -1.30684 4.47512 76.9675
2694259 13.3181 13.7216 27.2571 22.7381 -1.33561 4.46983 77.0349
2694264 13.3181 13.7216 27.2571 22.7381 -1.33561 4.46983 77.0349
2694270 13.3798 13.7584 27.1685 22.8258 -1.28484 4.44484 77.1325
2694281 13.3446 13.74 27.198 22.816 -1.29269 4.46108 77.0986
2694291 13.3446 13.74 27.198 22.816 -1.29269 4.46108 77.0986
2694301 13.371 13.6939 27.2768 22.8842 -1.31743 4.48608 77.2259
2694311 13.371 13.6939 27.2768 22.8842 -1.31743 4.48608 77.2259
2694323 13.3446 13.786 27.2768 22.9135 -1.26804 4.4735 77.3208
2694334 13.3798 13.7676 27.2177 22.8842 -1.27692 4.45723 77.2494
2694343 13.3798 13.7676 27.2177 22.8842 -1.27692 4.45723 77.2494
2694351 13.3974 13.7952 27.2177 22.8842 -1.27294 4.44584 77.2946
2694366 13.3974 13.7952 27.1882 22.9037 -1.25725 4.44447 77.2846
2694371 13.3974 13.8321 27.1882 22.9037 -1.24474 4.43521 77.3214
2694381 13.415 13.8229 27.1291 22.8842 -1.24174 4.42235 77.2513
2694401 13.3886 13.786 27.0799 22.8258 -1.25087 4.42352 77.0803
2694415 13.4503 13.8044 27.0898 22.8453 -1.25998 4.40738 77.1897
2694431 13.4679 13.8321 27.139 22.816 -1.28106 4.39876 77.255
2694441 13.4679 13.8321 27.139 22.816 -1.28106 4.39876 77.255
2694451 13.4238 13.7676 27.2177 22.9524 -1.26727 4.45545 77.3616
2694462 13.4326 13.8413 27.139 22.9232 -1.23071 4.41998 77.3361
2694484 13.3886 13.7768 27.139 23.0109 -1.20929 4.45923 77.3153
2694495 13.415 13.8597 27.1882 22.894 -1.24408 4.42251 77.3569
2694507 13.415 13.8597 27.1882 22.894 -1.24408 4.42251 77.3569
2694514 13.4415 13.8229 27.1094 22.933 -1.22728 4.41968 77.3067
2694524 13.3974 13.8137 27.0504 22.7868 -1.24834 4.40493 77.0483
2694533 13.3974 13.8137 27.0504 22.7868 -1.24834 4.40493 77.0483
2694544 13.4238 13.8689 27.0996 22.8355 -1.23627 4.39784 77.2279
2694556 13.4238 13.8689 27.0996 22.8355 -1.23627 4.39784 77.2279
2694564 13.3974 13.8321 27.0996 22.8063 -1.2506 4.40973 77.1354
2694579 13.4326 13.8229 27.0701 22.7966 -1.25881 4.39779 77.1221
2694584 13.4326 13.8229 27.0701 22.7966 -1.25881 4.39779 77.1221
2694594 13.4591 13.9242 27.0504 22.7868 -1.22975 4.36166 77.2204
2694605 13.5295 13.8781 27.0405 22.7771 -1.26736 4.35284 77.2253
2694614 13.5295 13.8781 27.0405 22.7771 -1.26736 4.35284 77.2253
2694627 13.5295 13.961 27.0307 22.816 -1.22295 4.33611 77.3373
2694635 13.5295 13.961 27.0307 22.816 -1.22295 4.33611 77.3373
2694651 13.5207 13.9702 27.0307 22.7868 -1.22703 4.33198 77.3084
2694655 13.5207 13.9794 27.0307 22.6894 -1.25699 4.31621 77.2202
2694665 13.5207 13.9794 27.0307 22.6894 -1.25699 4.31621 77.2202
2694675 13.5119 14.0255 26.9421 22.6797 -1.21467 4.29328 77.1591
2694685 13.6 13.9978 26.9027 22.6407 -1.25231 4.26729 77.1412
2694699 13.6 13.9978 26.9027 22.6407 -1.25231 4.26729 77.1412
2694705 13.5912 14.0807 26.9323 22.6699 -1.22059 4.25698 77.2741
2694715 13.5912 14.0807 26.9323 22.6699 -1.22059 4.25698 77.2741
2694725 13.6088 14.0991 26.8732 22.5822 -1.23136 4.22755 77.1634
2694735 13.6 14.0807 26.8043 22.6212 -1.20041 4.23016 77.1062
2694747 13.6 14.0807 26.8043 22.6212 -1.20041 4.23016 77.1062
2694755 13.6881 14.136 26.8929 22.6115 -1.23937 4.2055 77.3284
2694775 13.7057 14.1268 26.9224 22.6212 -1.25366 4.20889 77.3761
2694785 13.644 14.0991 26.8338 22.6602 -1.20362 4.22416 77.2372
2694795 13.644 14.0991 26.8338 22.6602 -1.20362 4.22416 77.2372
2694805 13.6176 14.0899 26.8141 22.6115 -1.20907 4.22349 77.1331
2694820 13.644 14.2004 26.7551 22.5822 -1.1714 4.17705 77.1818
2694825 13.644 14.2004 26.7551 22.5822 -1.1714 4.17705 77.1818
2694835 13.6529 14.1544 26.7649 22.553 -1.20271 4.18359 77.1252
2694845 13.6529 14.1544 26.7649 22.553 -1.20271 4.18359 77.1252
2694855 13.6705 14.1452 26.7255 22.4946 -1.219 4.16776 77.0357
2694867 13.7674 14.1728 26.7157 22.4946 -1.23644 4.13545 77.1504
2694890 13.7585 14.2373 26.696 22.4556 -1.219 4.11338 77.1474
2694896 13.7321 14.2649 26.696 22.4166 -1.2147 4.10758 77.1096
2694905 13.7321 14.2649 26.696 22.4166 -1.2147 4.10758 77.1096
2694915 13.7938 14.3294 26.7058 22.4653 -1.19832 4.08466 77.2943
2694942 13.8466 14.2465 26.6862 22.4264 -1.24989 4.08379 77.2056
2694946 13.8202 14.2557 26.6369 22.4458 -1.21685 4.08383 77.1587
2694956 13.8202 14.2557 26.6369 22.4458 -1.21685 4.08383 77.1587
2694971 13.9171 14.2649 26.5976 22.4556 -1.22813 4.05343 77.2352
2694976 13.8819 14.403 26.4794 22.2705 -1.19679 3.98489 77.0348
2694988 13.8819 14.403 26.4794 22.2705 -1.19679 3.98489 77.0348
2694997 13.8907 14.4215 26.509 22.2315 -1.21562 3.97683 77.0526
2695011 13.9347 14.3938 26.4696 22.2607 -1.21652 3.97134 77.0589
2695027 14.014 14.3846 26.4302 22.29 -1.22202 3.95265 77.1188
2695039 14.014 14.3846 26.4302 22.29 -1.22202 3.95265 77.1188
2695049 14.058 14.4951 26.4204 22.251 -1.20826 3.90774 77.2245
2695059 14.0492 14.4307 26.4499 22.2802 -1.2266 3.93412 77.21
2695069 14.0492 14.4307 26.4499 22.2802 -1.2266 3.93412 77.21
2695079 14.0845 14.5043 26.3219 22.2023 -1.19946 3.87784 77.113
2695089 14.0668 14.5135 26.3219 22.2413 -1.17767 3.88551 77.1436
2695106 14.0668 14.5135 26.3219 22.2413 -1.17767 3.88551 77.1436
2695121 14.1197 14.5964 26.2924 22.2218 -1.16337 3.84527 77.2303
2695130 14.1461 14.6148 26.2432 22.0659 -1.20298 3.80462 77.0701
2695143 14.199 14.6333 26.2629 22.0367 -1.22904 3.78586 77.1318
2695150 14.199 14.6333 26.2629 22.0367 -1.22904 3.78586 77.1318
2695164 14.2078 14.5872 26.2924 21.949 -1.2864 3.78647 77.0364
2695170 14.2078 14.7069 26.1644 22.0269 -1.17966 3.75003 77.1061
2695190 14.2254 14.6701 26.1841 21.91 -1.24348 3.7405 76.9896
2695200 14.2254 14.6701 26.1841 21.91 -1.24348 3.7405 76.9896
2695211 14.2078 14.6885 26.1054 21.8613 -1.22404 3.72164 76.863
2695222 14.2959 14.753 26.1448 21.8126 -1.25803 3.68318 77.0062
2695232 14.2959 14.753 26.1448 21.8126 -1.25803 3.68318 77.0062
2695241 14.2959 14.7714 26.1251 21.8321 -1.23903 3.67869 77.0244
2695251 14.3487 14.7806 26.1152 21.7931 -1.26243 3.65647 77.0377
2695272 14.3575 14.7714 26.0955 21.7639 -1.27219 3.64936 76.9883
2695283 14.3575 14.7714 26.0955 21.7639 -1.27219 3.64936 76.9883
2695295 14.3223 14.7438 26.1349 21.7736 -1.27957 3.67183 76.9746
2695302 14.3839 14.8359 26.1152 21.8223 -1.24452 3.63888 77.1574
2695311 14.3839 14.8359 26.1152 21.8223 -1.24452 3.63888 77.1574
2695322 14.4192 14.7161 26.1054 21.7347 -1.32307 3.64495 76.9754
2695332 14.4192 14.8174 26.0463 21.7249 -1.27361 3.61027 77.0079
2695342 14.4192 14.8174 26.0463 21.7249 -1.27361 3.61027 77.0079
2695352 14.4808 14.8727 26.0759 21.7444 -1.2762 3.58931 77.1738
2695362 14.4808 14.8727 26.0759 21.7444 -1.2762 3.58931 77.1738
2695372 14.472 14.8543 26.0463 21.7152 -1.28064 3.58718 77.0878
2695385 14.5337 14.8727 26.0266 21.6178 -1.32051 3.55052 77.0508
2695402 14.5425 14.9187 25.9774 21.5788 -1.30567 3.5242 77.0174
2695412 14.5425 14.8819 25.9282 21.5788 -1.30311 3.52573 76.9314
2695433 14.5601 14.9648 25.9873 21.5496 -1.30837 3.50601 77.0617
2695442 14.5601 14.9648 25.9873 21.5496 -1.30837 3.50601 77.0617
2695453 14.5601 14.8082 25.9577 21.5885 -1.33949 3.54509 76.9146
2695462 14.5777 14.8359 25.9676 21.608 -1.33181 3.53855 76.9892
2695476 14.5777 14.8359 25.9676 21.608 -1.33181 3.53855 76.9892
2695482 14.6041 14.8543 25.938 21.6957 -1.29462 3.53641 77.0922
2695497 14.5689 14.8174 25.9282 21.6275 -1.31663 3.54215 76.9421
2695502 14.5689 14.8174 25.9282 21.6275 -1.31663 3.54215 76.9421
2695513 14.6041 14.9187 25.9282 21.5496 -1.31948 3.49767 77.0007
2695525 14.6041 14.9187 25.9282 21.5496 -1.31948 3.49767 77.0007
2695534 14.5865 14.8819 25.9479 21.5593 -1.32938 3.51516 76.9756
2695544 14.6394 14.9464 25.8987 21.5691 -1.30514 3.48108 77.0535
2695554 14.6394 14.9464 25.8987 21.5691 -1.30514 3.48108 77.0535
2695564 14.6482 15.0108 25.879 21.5398 -1.28977 3.4562 77.0778
2695574 14.6482 14.928 25.8987 21.5398 -1.32412 3.47902 77.0146
2695585 14.6482 14.928 25.8987 21.5398 -1.32412 3.47902 77.0146
2695594 14.6834 14.9372 25.8888 21.5301 -1.33211 3.46543 77.0395
2695611 14.6834 14.9372 25.8888 21.5301 -1.33211 3.46543 77.0395
2695615 14.6482 14.928 25.8298 21.5398 -1.30292 3.4687 76.9457
2695631 14.6658 15.0016 25.8494 21.5398 -1.28924 3.44977 77.0567
2695635 14.6658 15.0016 25.8494 21.5398 -1.28924 3.44977 77.0567
2695646 14.6658 15.0016 25.8298 21.4814 -1.30314 3.43804 76.9786
2695656 14.7098 15.0293 25.7805 21.5009 -1.28546 3.41642 77.0205
2695680 14.7627 15.0753 25.7215 21.5009 -1.26784 3.38391 77.0603
2695686 14.7627 15.0753 25.7215 21.5009 -1.26784 3.38391 77.0603
2695696 14.7539 15.0753 25.6723 21.4716 -1.25993 3.37418 76.9731
2695706 14.6922 15.0845 25.6821 21.4132 -1.26075 3.37936 76.872
2695716 14.6922 15.0845 25.6821 21.4132 -1.26075 3.37936 76.872
2695728 14.7803 15.1582 25.5837 21.4521 -1.21913 3.33176 76.9743
2695738 14.8067 15.1582 25.5837 21.3352 -1.26717 3.30772 76.8838
2695751 14.8067 15.1582 25.5837 21.3352 -1.26717 3.30772 76.8838
2695757 14.8508 15.2319 25.5738 21.3645 -1.24261 3.28268 77.0209
2695767 14.886 15.2595 25.4852 21.2963 -1.23997 3.24386 76.927
2695787 14.9477 15.2963 25.5148 21.267 -1.26551 3.22057 77.0258
2695799 14.9477 15.2963 25.5148 21.267 -1.26551 3.22057 77.0258
2695809 14.9565 15.3239 25.3671 21.2378 -1.22319 3.18484 76.8854
2695821 15.0093 15.3239 25.377 21.2476 -1.23924 3.17536 76.9578
2695828 15.0093 15.3239 25.377 21.2476 -1.23924 3.17536 76.9578
2695843 15.0446 15.3608 25.3277 21.1696 -1.24894 3.13878 76.9027
2695849 15.0446 15.3976 25.2785 21.1891 -1.21452 3.1255 76.9098
2695860 15.0446 15.3976 25.2785 21.1891 -1.21452 3.1255 76.9098
2695869 15.1503 15.4713 25.2293 21.1014 -1.23675 3.06213 76.9523
2695880 15.1503 15.4713 25.2293 21.1014 -1.23675 3.06213 76.9523
2695892 15.0886 15.4437 25.1604 21.0917 -1.20912 3.0709 76.7843
2695900 15.1415 15.4897 25.0816 21.0917 -1.18538 3.0354 76.8045
2695910 15.1415 15.4897 25.0816 21.0917 -1.18538 3.0354 76.8045
2695920 15.1767 15.4621 25.0226 21.0625 -1.19739 3.01985 76.7238
2695930 15.2119 15.4989 24.9931 21.0819 -1.17994 3.00137 76.7858
2695940 15.2119 15.4989 24.9931 21.0819 -1.17994 3.00137 76.7858
2695949 15.256 15.5634 25.0127 21.0917 -1.17442 2.98057 76.9238
2695963 15.256 15.5634 25.0127 21.0917 -1.17442 2.98057 76.9238
2695969 15.2472 15.5173 24.9143 20.965 -1.20006 2.95814 76.6438
2695978 15.3176 15.6831 24.8552 20.9748 -1.14374 2.89519 76.8307
2696000 15.3881 15.7107 24.7666 20.8968 -1.15524 2.84606 76.7623
2696010 15.4057 15.7476 24.6781 20.9261 -1.11068 2.824 76.7574
2696020 15.4057 15.7476 24.6781 20.9261 -1.11068 2.824 76.7574
2696030 15.4057 15.7752 24.7371 20.9358 -1.11634 2.8285 76.8538
2696040 15.4057 15.7752 24.7371 20.9358 -1.11634 2.8285 76.8538
2696050 15.4145 15.7752 24.6288 20.9943 -1.06554 2.81856 76.8128
2696060 15.344 15.7844 24.6387 21.1112 -1.00391 2.85284 76.8783
2696080 15.3176 15.812 24.7666 21.1501 -1.01306 2.87888 77.0464
2696094 15.3 15.7752 24.6387 21.1696 -0.973508 2.87444 76.8835
2696101 15.3 15.7752 24.6387 21.1696 -0.973508 2.87444 76.8835
2696111 15.2824 15.8212 24.6288 21.1501 -0.955951 2.8632 76.8826
2696121 15.2824 15.8212 24.6288 21.1501 -0.955951 2.8632 76.8826
2696131 15.2912 15.8489 24.6879 21.2183 -0.944853 2.8748 77.0463
2696144 15.2472 15.8581 24.6091 21.2281 -0.900072 2.87202 76.9425
2696154 15.2472 15.8581 24.6091 21.2281 -0.900072 2.87202 76.9425
2696162 15.2295 15.8673 24.5304 21.3255 -0.834003 2.87691 76.9527
2696171 15.2295 15.8673 24.5304 21.3255 -0.834003 2.87691 76.9527
2696184 15.1767 15.7844 24.5993 21.267 -0.88658 2.91014 76.8274
2696191 15.1326 15.8304 24.6879 21.4034 -0.839232 2.94498 77.0544
2696206 15.1326 15.8304 24.6879 21.4034 -0.839232 2.94498 77.0544
2696211 15.1415 15.8028 24.6091 21.3742 -0.83636 2.93245 76.9276
2696221 15.0446 15.7476 24.6781 21.384 -0.842862 2.9803 76.8541
2696254 15.115 15.7936 24.6682 21.3645 -0.852975 2.94849 76.9413
2696255 15.115 15.7936 24.6682 21.3645 -0.852975 2.94849 76.9413
2696262 15.0622 15.7476 24.6584 21.345 -0.855322 2.967 76.8131
2696278 15.0181 15.766 24.7174 21.4034 -0.834194 2.99137 76.905
2696282 15.0181 15.766 24.7174 21.4034 -0.834194 2.99137 76.905
2696292 14.9212 15.7291 24.6977 21.384 -0.816442 3.01659 76.7321
2696303 14.9565 15.6831 24.6781 21.4034 -0.830279 3.0191 76.7211
2696323 14.9301 15.6739 24.7962 21.5009 -0.829467 3.06103 76.901
2696332 14.9301 15.6739 24.7962 21.5009 -0.829467 3.06103 76.901
2696347 14.8948 15.6371 24.7666 21.5301 -0.811651 3.07793 76.8286
