9322317 11.1337 16.8895 26.2826 22.5238 0.649825 4.05765 76.8295
9322327 11.1337 16.8895 26.2826 22.5238 0.649825 4.05765 76.8295
9322337 11.1249 16.954 26.3121 22.4946 0.654069 4.0439 76.8855
9322347 11.0544 16.8895 26.253 22.4946 0.676936 4.06897 76.6915
9322367 11.0984 16.8434 26.3121 22.553 0.646394 4.08619 76.807
9322377 11.0984 16.8434 26.3121 22.553 0.646394 4.08619 76.807
9322387 11.0192 16.8803 26.3023 22.5433 0.684771 4.09396 76.745
9322397 11.0456 16.8803 26.253 22.5335 0.689316 4.079 76.7124
9322407 11.0456 16.8803 26.253 22.5335 0.689316 4.079 76.7124
9322417 11.072 16.9447 26.3515 22.5335 0.667989 4.07043 76.9018
9322427 10.9927 16.9447 26.3121 22.553 0.713813 4.08729 76.8026
9322437 10.9927 16.8711 26.3121 22.553 0.690493 4.10561 76.7289
9322447 11.028 16.9079 26.4302 22.5628 0.654 4.10582 76.9289
9322457 11.028 16.9079 26.4302 22.5628 0.654 4.10582 76.9289
9322468 11.0544 16.8434 26.2432 22.5433 0.681075 4.08596 76.6843
9322477 11.0984 16.8527 26.2826 22.4653 0.631356 4.06722 76.699
9322487 11.0984 16.8527 26.2826 22.4653 0.631356 4.06722 76.699
9322497 11.0544 16.8527 26.3416 22.5043 0.638708 4.09213 76.753
9322517 11.072 16.8895 26.2727 22.4848 0.661361 4.06601 76.7191
9322528 11.1073 16.8895 26.3416 22.5043 0.632754 4.06984 76.8427
9322548 11.1249 16.8711 26.2924 22.4653 0.625089 4.05748 76.7537
9322558 11.1513 16.8342 26.3219 22.4946 0.604004 4.06844 76.802
9322572 11.1513 16.8342 26.3219 22.4946 0.604004 4.06844 76.802
9322579 11.1689 16.8895 26.2924 22.4848 0.622424 4.04477 76.8356
9322589 11.1249 16.779 26.3219 22.4946 0.595254 4.08874 76.7204
9322600 11.1249 16.779 26.3219 22.4946 0.595254 4.08874 76.7204
9322611 11.1513 16.8987 26.3121 22.4556 0.615379 4.04549 76.8177
9322630 11.1161 16.8803 26.3219 22.4069 0.602522 4.05326 76.7252
9322640 11.1161 16.8711 26.3318 22.4653 0.614887 4.06528 76.7843
9322652 11.1161 16.8711 26.3318 22.4653 0.614887 4.06528 76.7843
9322662 11.1425 16.825 26.3318 22.3777 0.563532 4.05766 76.677
9322674 11.1249 16.8342 26.2924 22.514 0.628859 4.07357 76.7656
9322682 11.1249 16.8342 26.2924 22.514 0.628859 4.07357 76.7656
9322692 11.2041 16.8066 26.3613 22.3971 0.533506 4.05391 76.7692
9322703 11.1689 16.8711 26.4204 22.4751 0.570884 4.06616 76.9354
9322713 11.1689 16.8711 26.4204 22.4751 0.570884 4.06616 76.9354
9322723 11.1689 16.8619 26.3121 22.4946 0.610188 4.05581 76.8374
9322733 11.1689 16.8619 26.3121 22.4946 0.610188 4.05581 76.8374
9322743 11.1337 16.825 26.2924 22.4653 0.607517 4.06673 76.7165
9322753 11.1777 16.8527 26.2629 22.4556 0.608364 4.04334 76.7488
9322773 11.2306 16.825 26.3023 22.4264 0.559542 4.03853 76.7842
9322784 11.1865 16.8527 26.3023 22.4166 0.579903 4.04121 76.7581
9322793 11.1865 16.8527 26.3023 22.4166 0.579903 4.04121 76.7581
9322803 11.1777 16.8158 26.2432 22.3582 0.57219 4.03575 76.5949
9322813 11.1777 16.8158 26.2432 22.3582 0.57219 4.03575 76.5949
9322823 11.1777 16.8158 26.2826 22.3874 0.568366 4.04555 76.6635
9322839 11.1513 16.8434 26.4105 22.4556 0.565049 4.07322 76.8609
9322844 11.1513 16.8434 26.4105 22.4556 0.565049 4.07322 76.8609
9322854 11.1425 16.825 26.3219 22.4264 0.582331 4.0632 76.7158
9322865 11.1601 16.8527 26.3712 22.3971 0.559554 4.05482 76.7811
9322875 11.1601 16.8527 26.3712 22.3971 0.559554 4.05482 76.7811
9322887 11.213 16.9171 26.381 22.3874 0.556108 4.02576 76.8985
9322895 11.213 16.8803 26.3219 22.3484 0.551632 4.02088 76.7636
9322915 11.1777 16.8895 26.4302 22.3484 0.530273 4.04279 76.8459
9322925 11.1777 16.8895 26.4302 22.3484 0.530273 4.04279 76.8459
9322936 11.2041 16.8895 26.3219 22.3095 0.545081 4.0152 76.725
9322946 11.213 16.9263 26.3121 22.3679 0.57576 4.01085 76.8193
9322967 11.2218 16.954 26.3613 22.3971 0.57452 4.01305 76.9342
9322977 11.2306 16.8803 26.3023 22.3971 0.567824 4.02066 76.8102
9322998 11.1953 16.9263 26.3121 22.3971 0.590917 4.01939 76.8309
9323007 11.1953 16.9263 26.3121 22.3971 0.590917 4.01939 76.8309
9323018 11.1513 16.9263 26.3515 22.3874 0.589377 4.03453 76.8165
9323028 11.1337 16.8342 26.3515 22.3971 0.569049 4.06315 76.7165
9323038 11.1337 16.8342 26.3515 22.3971 0.569049 4.06315 76.7165
9323048 11.1513 16.8803 26.3613 22.4751 0.599322 4.05985 76.868
9323058 11.1073 16.8619 26.2924 22.4458 0.621855 4.06137 76.7074
9323068 11.1073 16.8619 26.2924 22.4458 0.621855 4.06137 76.7074
9323079 11.1337 16.8895 26.2924 22.5043 0.64036 4.05628 76.8199
9323088 11.1337 16.8895 26.2924 22.5043 0.64036 4.05628 76.8199
9323098 11.0984 16.7974 26.3318 22.5725 0.631398 4.1032 76.8001
9323108 11.072 16.8619 26.3318 22.553 0.654483 4.09098 76.8187
9323118 11.072 16.8619 26.3318 22.553 0.654483 4.09098 76.8187
9323128 11.0808 16.8342 26.3613 22.6017 0.648364 4.10676 76.8781
9323139 11.0104 16.779 26.3121 22.5628 0.658479 4.12556 76.6642
9323148 11.0104 16.779 26.3121 22.5628 0.658479 4.12556 76.6642
9323161 11.072 16.8158 26.3121 22.592 0.658816 4.10517 76.7919
9323168 11.072 16.8158 26.3121 22.592 0.658816 4.10517 76.7919
9323178 11.0544 16.825 26.3121 22.6017 0.670707 4.10864 76.7933
9323188 11.0192 16.7882 26.3613 22.6504 0.669798 4.14045 76.8191
9323208 11.0192 16.825 26.3219 22.6602 0.697705 4.12708 76.8263
9323228 10.9751 16.7882 26.2924 22.6407 0.704509 4.14031 76.6964
9323238 11.0104 16.825 26.4204 22.6797 0.67392 4.14594 76.9354
9323248 11.0104 16.825 26.4204 22.6797 0.67392 4.14594 76.9354
9323258 11.0192 16.7882 26.3515 22.6991 0.688505 4.14594 76.858
9323268 11.0016 16.7606 26.2924 22.6602 0.693074 4.14337 76.7147
9323278 11.0016 16.7606 26.2924 22.6602 0.693074 4.14337 76.7147
9323288 10.9751 16.8066 26.3613 22.7479 0.721154 4.16059 76.8909
9323298 10.9751 16.8066 26.3613 22.7479 0.721154 4.16059 76.8909
9323309 10.9751 16.8158 26.2924 22.6699 0.722504 4.13755 76.7533
9323319 10.9135 16.8434 26.4499 22.7284 0.717625 4.17651 76.9352
9323329 10.9135 16.8434 26.4499 22.7284 0.717625 4.17651 76.9352
9323339 10.9399 16.7698 26.3416 22.6991 0.712496 4.16892 76.7504
9323350 10.9135 16.7237 26.3318 22.8453 0.756288 4.20623 76.8143
9323369 10.9399 16.7329 26.3613 22.8648 0.74659 4.2042 76.8989
9323379 10.9399 16.7329 26.3613 22.8648 0.74659 4.2042 76.8989
9323390 10.8694 16.7237 26.3909 22.855 0.754327 4.2269 76.839
9323400 10.887 16.6961 26.4007 22.8745 0.742555 4.23351 76.8583
9323412 10.887 16.6961 26.4007 22.8745 0.742555 4.23351 76.8583
9323421 10.8694 16.6961 26.4499 22.8648 0.728899 4.24345 76.8802
9323431 10.9047 16.6316 26.4499 22.933 0.71829 4.2603 76.9192
9323440 10.9047 16.6316 26.4499 22.933 0.71829 4.2603 76.9192
9323450 10.887 16.5672 26.4499 23.0011 0.725362 4.29038 76.9053
9323479 10.7373 16.4935 26.5483 23.1181 0.756171 4.37641 76.8972
9323481 10.7373 16.4935 26.5483 23.1181 0.756171 4.37641 76.8972
9323482 10.7549 16.4751 26.4991 23.0986 0.754803 4.36712 76.8277
9323492 10.7549 16.4751 26.4991 23.0986 0.754803 4.36712 76.8277
9323501 10.7021 16.3922 26.5582 23.157 0.745007 4.41761 76.8095
9323513 10.6668 16.3001 26.5483 23.2155 0.749499 4.45653 76.7308
9323522 10.6668 16.3001 26.5483 23.2155 0.749499 4.45653 76.7308
9323532 10.6492 16.2264 26.6566 23.3519 0.738919 4.51319 76.8841
9323542 10.6492 16.1436 26.6468 23.4103 0.734502 4.54086 76.8499
9323553 10.6492 16.1436 26.6468 23.4103 0.734502 4.54086 76.8499
9323563 10.6404 16.1251 26.7157 23.5077 0.739318 4.57037 76.989
9323583 10.5964 16.0883 26.6074 23.5077 0.778729 4.57628 76.7998
9323594 10.6492 16.1067 26.6369 23.4785 0.747699 4.55817 76.8714
9323613 10.6316 16.0791 26.6862 23.3519 0.688347 4.55916 76.7487
9323623 10.6668 16.0515 26.6468 23.4688 0.71798 4.56776 76.8339
9323643 10.5876 15.987 26.6763 23.498 0.723502 4.6124 76.7489
9323664 10.6228 15.987 26.6862 23.4006 0.677544 4.59153 76.6965
9323674 10.6845 16.0238 26.6665 23.4298 0.684434 4.56769 76.8046
9323684 10.6845 16.0238 26.6665 23.4298 0.684434 4.56769 76.8046
9323694 10.614 16.0699 26.7058 23.4785 0.724795 4.58586 76.8682
9323704 10.6756 16.0146 26.696 23.5272 0.705403 4.5895 76.9135
9323715 10.6756 16.0146 26.696 23.5272 0.705403 4.5895 76.9135
9323726 10.7285 16.0238 26.6566 23.5077 0.697652 4.56572 76.9167
9323744 10.6668 16.0238 26.6665 23.3811 0.674894 4.56556 76.7382
9323755 10.7637 15.9778 26.6271 23.4493 0.662687 4.55653 76.8179
9323776 10.6756 16.0883 26.5877 23.3908 0.721815 4.5375 76.7425
9323786 10.7197 16.1067 26.5779 23.3713 0.710022 4.51761 76.7756
9323807 10.8254 16.1436 26.5483 23.4493 0.720799 4.48806 76.9666
9323819 10.843 16.1343 26.5287 23.4298 0.712436 4.48058 76.9358
9323827 10.843 16.1343 26.5287 23.4298 0.712436 4.48058 76.9358
9323839 10.799 16.1528 26.4991 23.4298 0.742862 4.48303 76.8807
9323848 10.799 16.1528 26.4991 23.4298 0.742862 4.48303 76.8807
9323862 10.7902 16.1804 26.509 23.3421 0.723553 4.4676 76.8216
9323868 10.8166 16.2264 26.4991 23.4395 0.763255 4.46125 76.9817
9323888 10.8606 16.1896 26.509 23.3421 0.702891 4.44743 76.9013
9323898 10.887 16.1528 26.4401 23.3226 0.699285 4.43792 76.8025
9323909 10.887 16.1528 26.4401 23.3226 0.699285 4.43792 76.8025
9323919 10.8518 16.3001 26.381 23.3421 0.783548 4.40414 76.875
9323929 10.8518 16.3001 26.381 23.3421 0.783548 4.40414 76.875
9323939 10.8254 16.208 26.3515 23.3324 0.770211 4.42869 76.7173
9323949 10.8166 16.2817 26.2924 23.3811 0.831616 4.41085 76.7718
9323971 10.8078 16.3185 26.253 23.3519 0.850233 4.39429 76.7312
9323979 10.843 16.3462 26.2629 23.3032 0.828418 4.37303 76.7552
9324000 10.9047 16.4198 26.2038 23.3129 0.853786 4.3321 76.8412
9324015 10.843 16.3922 26.2334 23.235 0.83138 4.34786 76.7035
9324022 10.843 16.3922 26.2334 23.235 0.83138 4.34786 76.7035
9324036 10.9135 16.5303 26.1841 23.1765 0.84931 4.28038 76.8045
9324042 10.9135 16.5303 26.1841 23.1765 0.84931 4.28038 76.8045
9324052 10.9047 16.4935 26.1152 23.2057 0.873101 4.28631 76.7191
9324063 10.9839 16.5211 26.0857 23.2155 0.868085 4.25671 76.8062
9324083 11.0544 16.5764 26.0168 23.0693 0.838968 4.19504 76.7169
9324093 11.1161 16.6501 25.9676 23.1083 0.870201 4.15979 76.842
9324104 11.1161 16.6501 25.9676 23.1083 0.870201 4.15979 76.842
9324121 11.1073 16.7145 25.9085 23.0499 0.894958 4.12931 76.7801
9324123 11.1777 16.7514 25.7805 23.0109 0.9137 4.0789 76.7205
9324143 11.2306 16.7882 25.7707 23.0304 0.916854 4.058 76.8198
9324165 11.2306 16.7882 25.7707 23.0304 0.916854 4.058 76.8198
9324167 11.1953 16.779 25.623 22.9817 0.960532 4.041 76.579
9324174 11.3803 16.7974 25.6526 22.933 0.878501 3.98781 76.7632
9324185 11.3803 16.7974 25.6526 22.933 0.878501 3.98781 76.7632
9324194 11.4244 16.8342 25.5049 22.9037 0.91587 3.94237 76.6672
9324206 11.4948 16.8895 25.4262 22.7771 0.896221 3.88162 76.5876
9324214 11.4948 16.8895 25.4262 22.7771 0.896221 3.88162 76.5876
9324224 11.5565 16.8619 25.4065 22.855 0.897864 3.88169 76.6798
9324234 11.5565 16.8619 25.4065 22.855 0.897864 3.88169 76.6798
9324245 11.5829 16.8803 25.4262 22.855 0.888088 3.87351 76.7444
9324254 11.5653 16.8711 25.4262 22.7868 0.869682 3.87021 76.6494
9324264 11.5653 16.8711 25.4262 22.7868 0.869682 3.87021 76.6494
9324274 11.5565 16.8342 25.377 22.816 0.88689 3.87856 76.5837
9324284 11.5565 16.8342 25.3573 22.816 0.893548 3.8757 76.564
9324294 11.6093 16.9079 25.3573 22.7966 0.892735 3.84172 76.6711
9324305 11.7062 16.9447 25.3179 22.7868 0.881842 3.80175 76.7557
9324325 11.6358 16.9632 25.2982 22.7089 0.89356 3.80026 76.606
9324334 11.6269 16.9908 25.3277 22.6991 0.892189 3.79854 76.6446
9324347 11.6269 16.9908 25.3277 22.6991 0.892189 3.79854 76.6446
9324355 11.6886 16.9724 25.308 22.7576 0.890601 3.7936 76.7266
9324366 11.6886 16.9724 25.249 22.7576 0.910547 3.78497 76.6675
9324375 11.7503 16.9632 25.249 22.7089 0.871509 3.76499 76.6713
9324386 11.6886 16.9816 25.2884 22.6699 0.872564 3.77564 76.6285
9324405 11.6798 16.9171 25.2293 22.6699 0.875187 3.78496 76.4961
9324416 11.6974 16.9171 25.3179 22.7089 0.851598 3.79931 76.6413
9324436 11.7591 17.0486 25.2785 22.7284 0.891566 3.74913 76.8146
9324447 11.6886 16.9908 25.2293 22.6407 0.886217 3.76044 76.5494
9324467 11.7855 17.0584 25.2293 22.6407 0.874761 3.72022 76.7138
9324477 11.7855 17.0584 25.2293 22.6407 0.874761 3.72022 76.7138
9324488 11.7415 17.0875 25.2195 22.6309 0.899059 3.72097 76.6794
9324497 11.7855 17.0389 25.2293 22.7576 0.905368 3.74213 76.8113
9324508 11.7855 17.0389 25.2293 22.7576 0.905368 3.74213 76.8113
9324518 11.8031 17.1362 25.1899 22.6212 0.900427 3.68829 76.7504
9324529 11.7767 17.1167 25.1702 22.6602 0.922126 3.70231 76.7238
9324549 11.8119 17.1264 25.1801 22.5335 0.870153 3.67413 76.6519
9324561 11.8119 17.1264 25.1801 22.5335 0.870153 3.67413 76.6519
9324569 11.7767 17.0875 25.1899 22.6407 0.900194 3.70946 76.6948
9324579 11.8207 17.1751 25.249 22.6115 0.883728 3.68181 76.8562
9324599 11.7943 17.1362 25.1506 22.6212 0.916699 3.68463 76.7022
9324610 11.7943 17.1362 25.0816 22.5725 0.924698 3.66725 76.5846
9324619 11.7943 17.1362 25.0816 22.5725 0.924698 3.66725 76.5846
9324633 11.9 17.0778 25.1112 22.4751 0.829923 3.64566 76.564
9324641 11.8383 17.107 25.1309 22.5433 0.874794 3.66659 76.6194
9324651 11.8383 17.107 25.1309 22.5433 0.874794 3.66659 76.6194
9324661 11.856 17.1751 25.1013 22.514 0.891042 3.63703 76.6464
9324672 11.856 17.1751 25.1013 22.514 0.891042 3.63703 76.6464
9324680 11.8648 17.1459 25.0029 22.5335 0.918305 3.63027 76.5471
9324690 11.856 17.1653 25.0915 22.514 0.89131 3.63794 76.6268
9324701 11.856 17.1653 25.0915 22.514 0.89131 3.63794 76.6268
9324711 11.8912 17.2042 25.1013 22.5628 0.903621 3.6286 76.7595
9324720 11.9264 17.2042 25.0423 22.4946 0.89024 3.60117 76.6675
9324731 11.9264 17.1459 25.0423 22.4946 0.871876 3.61534 76.6091
9324740 11.9 17.1556 25.1013 22.4556 0.851643 3.62238 76.6125
9324759 11.9 17.1556 25.1013 22.4556 0.851643 3.62238 76.6125
9324762 11.8912 17.1751 25.0718 22.5335 0.895244 3.62698 76.6716
9324774 11.9088 17.2431 25.0521 22.4946 0.905094 3.59747 76.6986
9324782 11.9088 17.2431 25.0521 22.4946 0.905094 3.59747 76.6986
9324792 11.9088 17.2918 25.0127 22.3971 0.903058 3.5653 76.6104
9324802 11.9617 17.3015 25.0324 22.4166 0.88774 3.556 76.7122
9324822 11.944 17.3112 24.9635 22.3679 0.904715 3.54034 76.5867
9324843 11.9705 17.2334 24.9635 22.3387 0.862056 3.54841 76.5061
9324853 11.9793 17.3598 24.9832 22.4264 0.919792 3.53174 76.7487
9324863 11.9793 17.3598 24.9832 22.4264 0.919792 3.53174 76.7487
9324873 11.9352 17.3015 25.0226 22.3387 0.875464 3.54929 76.598
9324884 11.944 17.3307 25.0521 22.3484 0.87477 3.54596 76.6752
9324903 11.9793 17.3015 25.062 22.3971 0.865716 3.55324 76.7399
9324926 11.9617 17.2723 25.062 22.3387 0.844061 3.55583 76.6346
9324934 11.9 17.3307 25.0127 22.3679 0.909078 3.55365 76.6113
9324947 11.9 17.3307 25.0127 22.3679 0.909078 3.55365 76.6113
9324954 11.9793 17.282 25.062 22.3387 0.841191 3.54922 76.6619
9324968 11.9 17.282 25.0226 22.3192 0.875103 3.55963 76.5238
9324974 11.9 17.282 25.0226 22.3192 0.875103 3.55963 76.5238
9324990 11.9793 17.282 25.1112 22.4264 0.852209 3.56963 76.7988
9324994 11.9793 17.282 25.1112 22.4264 0.852209 3.56963 76.7988
9325004 11.8383 17.2334 25.1112 22.3874 0.872168 3.60978 76.5703
9325014 11.8207 17.3112 25.1112 22.5238 0.945425 3.61543 76.7669
9325026 11.8207 17.3112 25.1112 22.5238 0.945425 3.61543 76.7669
9325035 11.8295 17.2042 25.1309 22.4751 0.886914 3.63496 76.6397
9325045 11.7943 17.2334 25.2293 22.4751 0.874758 3.65101 76.7321
9325055 11.7943 17.2334 25.2293 22.4751 0.874758 3.65101 76.7321
9325065 11.7855 17.1848 25.2588 22.5238 0.867799 3.67654 76.7529
9325075 11.7855 17.1848 25.2588 22.5238 0.867799 3.67654 76.7529
9325085 11.7679 17.1751 25.2391 22.592 0.898746 3.69035 76.774
9325097 11.7238 17.2237 25.2884 22.514 0.887796 3.685 76.7499
9325107 11.7238 17.2237 25.2884 22.514 0.887796 3.685 76.7499
9325126 11.6798 17.1751 25.2982 22.514 0.88405 3.70904 76.6671
9325137 11.6798 17.1751 25.2982 22.514 0.88405 3.70904 76.6671
9325146 11.6886 17.1264 25.3474 22.592 0.873688 3.73745 76.7544
9325157 11.6886 17.1264 25.3474 22.592 0.873688 3.73745 76.7544
9325166 11.6181 17.1556 25.377 22.6115 0.902781 3.75472 76.7622
9325178 11.6622 17.2431 25.3474 22.6407 0.934482 3.72258 76.8934
9325185 11.6622 17.2431 25.3474 22.6407 0.934482 3.72258 76.8934
9325196 11.6534 17.2042 25.2982 22.553 0.914389 3.7141 76.7088
9325206 11.6181 17.1167 25.3277 22.553 0.888804 3.74844 76.6156
9325216 11.6181 17.1167 25.3277 22.553 0.888804 3.74844 76.6156
9325226 11.6181 17.1945 25.308 22.4946 0.901544 3.71792 76.6152
9325235 11.6181 17.1945 25.308 22.4946 0.901544 3.71792 76.6152
9325247 11.5829 17.1459 25.3573 22.553 0.899908 3.75425 76.6391
9325257 11.5653 17.1653 25.3966 22.5043 0.88335 3.75243 76.6316
9325267 11.5653 17.1653 25.3966 22.5043 0.88335 3.75243 76.6316
9325280 11.6005 17.107 25.3868 22.514 0.859469 3.75808 76.6083
9325287 11.5741 17.1362 25.3966 22.5335 0.880393 3.76171 76.6404
9325297 11.5741 17.1362 25.3966 22.5335 0.880393 3.76171 76.6404
9325307 11.5301 17.0973 25.4262 22.592 0.891444 3.79491 76.6455
9325317 11.5301 17.0973 25.4262 22.592 0.891444 3.79491 76.6455
9325327 11.5124 17.0875 25.4852 22.553 0.862125 3.80455 76.6382
9325337 11.5477 17.107 25.4951 22.5433 0.84998 3.79116 76.693
9325357 11.5565 17.1556 25.5345 22.5628 0.855181 3.7857 76.8093
9325366 11.5653 17.107 25.5443 22.5335 0.824404 3.79261 76.7501
9325391 11.5917 17.0778 25.5837 22.514 0.786942 3.79619 76.7672
9325399 11.5917 17.0778 25.5837 22.514 0.786942 3.79619 76.7672
9325408 11.5477 17.1556 25.5345 22.4458 0.82134 3.77076 76.6836
9325418 11.5741 17.107 25.5246 22.4361 0.79734 3.77333 76.6418
9325428 11.5741 17.107 25.5246 22.4361 0.79734 3.77333 76.6418
9325438 11.5389 17.1167 25.5246 22.4361 0.812277 3.77958 76.6163
9325448 11.5477 17.0584 25.6034 22.4264 0.761288 3.80182 76.6357
9325458 11.5477 17.0584 25.6034 22.4264 0.761288 3.80182 76.6357
9325468 11.5565 17.1167 25.5345 22.4361 0.80303 3.7767 76.6437
9325478 11.5565 17.1167 25.5345 22.4361 0.80303 3.7767 76.6437
9325490 11.5741 17.0875 25.5837 22.4166 0.765172 3.78389 76.6619
9325498 11.5917 17.0584 25.6526 22.4946 0.751534 3.80816 76.7972
9325518 11.5741 17.0973 25.6034 22.3971 0.755474 3.78154 76.6718
9325538 11.6005 17.0875 25.6821 22.5043 0.750965 3.80459 76.8745
9325548 11.5829 17.1264 25.6526 22.5238 0.785172 3.79792 76.8857
9325559 11.5829 17.1264 25.6526 22.5238 0.785172 3.79792 76.8857
9325569 11.6181 17.0681 25.6132 22.4946 0.758946 3.79357 76.794
9325579 11.5917 17.1167 25.5443 22.3874 0.77247 3.76238 76.6401
9325589 11.5917 17.1167 25.5443 22.3874 0.77247 3.76238 76.6401
9325599 11.6534 17.1653 25.5837 22.2997 0.726184 3.72832 76.7021
9325609 11.6534 17.0681 25.5246 22.3192 0.721377 3.74629 76.5653
9325619 11.6534 17.0681 25.5246 22.3192 0.721377 3.74629 76.5653
9325631 11.6181 17.1848 25.5246 22.2997 0.764006 3.72349 76.6272
9325649 11.5653 17.1264 25.4951 22.29 0.770181 3.74493 76.4768
9325660 11.6005 17.1167 25.6034 22.3192 0.728089 3.75888 76.6398
9325669 11.6005 17.1167 25.6034 22.3192 0.728089 3.75888 76.6398
9325679 11.671 17.1459 25.5345 22.251 0.715202 3.71436 76.6023
9325689 11.6534 17.1653 25.5345 22.3095 0.745788 3.72252 76.6626
9325699 11.6534 17.1653 25.5345 22.3095 0.745788 3.72252 76.6626
9325709 11.6974 17.1945 25.5738 22.3582 0.742424 3.71761 76.8239
9325719 11.6974 17.1945 25.5738 22.3582 0.742424 3.71761 76.8239
9325731 11.6886 17.1848 25.5148 22.251 0.728223 3.69766 76.6392
9325741 11.7415 17.282 25.4951 22.2802 0.757086 3.66252 76.7988
9325750 11.7415 17.282 25.4951 22.2802 0.757086 3.66252 76.7988
9325761 11.7591 17.2626 25.436 22.1731 0.730965 3.63838 76.6307
9325770 11.7591 17.2626 25.436 22.1731 0.730965 3.63838 76.6307
9325780 11.7503 17.2723 25.3573 22.1828 0.76656 3.62791 76.5626
9325791 11.7503 17.3793 25.3966 22.1926 0.790206 3.60922 76.7187
9325800 11.7503 17.3793 25.3966 22.1926 0.790206 3.60922 76.7187
9325811 11.8031 17.4182 25.3966 22.1049 0.757048 3.57395 76.7228
9325822 11.8471 17.4182 25.3277 22.1341 0.774631 3.55738 76.7272
9325832 11.8471 17.4182 25.3277 22.1341 0.774631 3.55738 76.7272
9325841 11.8648 17.4085 25.308 22.1244 0.769174 3.55107 76.7056
9325850 11.8648 17.4085 25.308 22.1244 0.769174 3.55107 76.7056
9325862 11.8471 17.3987 25.2588 22.0854 0.776258 3.54451 76.5901
9325871 11.9352 17.4571 25.2588 22.0951 0.768167 3.51059 76.7463
9325882 11.9352 17.4571 25.2588 22.0951 0.768167 3.51059 76.7463
9325891 11.9705 17.4765 25.1604 21.988 0.761682 3.46653 76.5954
9325904 11.944 17.4765 25.1309 21.9782 0.777432 3.46699 76.5297
9325911 11.944 17.4765 25.1309 21.9782 0.777432 3.46699 76.5297
9325924 11.9969 17.5446 25.121 21.9587 0.778326 3.43343 76.6213
9325931 11.9969 17.5446 25.121 21.9587 0.778326 3.43343 76.6213
9325940 11.9793 17.5154 25.1407 21.8808 0.74372 3.4359 76.5162
9325952 12.0585 17.5543 25.121 21.8808 0.736016 3.40449 76.6147
9325965 12.0585 17.5543 25.121 21.8808 0.736016 3.40449 76.6147
9325972 12.1114 17.5641 25.0127 21.8808 0.757727 3.37305 76.569
9325982 12.1378 17.603 25.0029 21.91 0.773698 3.36033 76.6537
9325992 12.1378 17.603 25.0029 21.91 0.773698 3.36033 76.6537
9326002 12.1202 17.6127 25.0324 21.8321 0.748119 3.35487 76.5974
9326026 12.0674 17.6613 25.0226 21.8516 0.790754 3.35734 76.6028
9326033 12.1378 17.6224 25.0423 21.8516 0.748134 3.35277 76.6541
9326046 12.1378 17.6224 25.0423 21.8516 0.748134 3.35277 76.6541
9326053 12.1554 17.7002 25.0423 21.7736 0.742176 3.31809 76.6716
9326062 12.2083 17.6711 24.9635 21.8418 0.763214 3.31083 76.6847
9326073 12.2083 17.6711 24.9635 21.8418 0.763214 3.31083 76.6847
9326085 12.1995 17.71 24.9635 21.8321 0.775388 3.30216 76.705
9326107 12.2083 17.7197 24.9241 21.7444 0.761017 3.27833 76.5965
9326113 12.1819 17.7586 24.9635 21.7736 0.778201 3.28584 76.6776
9326134 12.2083 17.71 24.8651 21.7542 0.780904 3.2731 76.5375
9326146 12.1731 17.7878 24.8848 21.7444 0.807658 3.26447 76.59
9326156 12.1731 17.7878 24.8848 21.7444 0.807658 3.26447 76.59
9326164 12.1731 17.7391 24.8848 21.7347 0.789207 3.27458 76.5316
9326177 12.1731 17.7489 24.8651 21.7736 0.811237 3.27521 76.5606
9326196 12.2435 17.7489 24.8257 21.7542 0.794601 3.24938 76.5722
9326206 12.2435 17.7489 24.8257 21.7542 0.794601 3.24938 76.5722
9326216 12.1731 17.7586 24.9241 21.7444 0.785178 3.27746 76.6002
9326227 12.1907 17.7294 24.9045 21.8321 0.804353 3.29061 76.6566
9326252 12.1642 17.778 24.8946 21.7834 0.816542 3.27636 76.6203
9326255 12.1378 17.7878 24.9734 21.686 0.771213 3.27749 76.5849
9326266 12.1378 17.7878 24.9734 21.686 0.771213 3.27749 76.5849
9326275 12.129 17.7878 24.9832 21.8126 0.810865 3.30045 76.7126
9326286 12.129 17.7878 24.9832 21.8126 0.810865 3.30045 76.7126
9326295 12.1114 17.7294 25.0324 21.7834 0.772589 3.32163 76.6566
9326305 12.129 17.7878 24.9635 21.8126 0.81749 3.29744 76.6929
9326325 12.129 17.7489 25.0029 21.7834 0.78274 3.30828 76.6641
9326335 12.1202 17.7391 25.0324 21.7931 0.775781 3.31869 76.6849
9326345 12.1202 17.7391 25.0324 21.7931 0.775781 3.31869 76.6849
9326357 12.129 17.7391 25.0324 21.7639 0.763583 3.31213 76.6645
9326367 12.129 17.7391 25.0324 21.7639 0.763583 3.31213 76.6645
9326377 12.0674 17.6808 25.0521 21.7054 0.740713 3.33493 76.5057
9326387 12.085 17.6711 25.0324 21.7152 0.741413 3.33153 76.5036
9326397 12.085 17.6711 25.0324 21.7152 0.741413 3.33153 76.5036
9326407 12.129 17.71 24.9734 21.7054 0.755712 3.30116 76.5178
9326417 12.1026 17.71 25.0816 21.7639 0.746697 3.33292 76.6581
9326427 12.1026 17.6516 25.0816 21.7639 0.728223 3.34688 76.5997
9326437 12.1642 17.7489 25.1013 21.8223 0.750169 3.32079 76.8368
9326457 12.1114 17.7391 25.0915 21.8516 0.777349 3.33866 76.7936
9326468 12.0674 17.7586 25.062 21.7444 0.774372 3.32375 76.6323
9326477 12.0674 17.7586 25.062 21.7444 0.774372 3.32375 76.6323
9326487 12.0762 17.7294 25.0423 21.7444 0.768805 3.32562 76.5923
9326497 12.0762 17.7878 24.9635 21.7931 0.829148 3.30709 76.6206
9326507 12.0762 17.7878 24.9635 21.7931 0.829148 3.30709 76.6206
9326517 12.0938 17.778 24.9635 21.7249 0.798604 3.29478 76.5603
9326527 12.0938 17.778 24.9635 21.7249 0.798604 3.29478 76.5603
9326537 12.0585 17.8169 24.9438 21.6275 0.798613 3.27597 76.4468
9326547 12.0497 17.8267 24.8651 21.7444 0.86821 3.2816 76.4859
9326557 12.0497 17.8267 24.8651 21.7444 0.86821 3.2816 76.4859
9326568 12.0585 17.8364 24.8651 21.6372 0.834456 3.26073 76.3973
9326588 12.0585 17.9045 24.8848 21.7152 0.873899 3.25946 76.563
9326598 12.0585 17.8753 24.8651 21.7736 0.889775 3.27237 76.5726
9326611 12.0585 17.8753 24.8651 21.7736 0.889775 3.27237 76.5726
9326619 12.1114 17.9142 24.9635 21.8029 0.860164 3.27003 76.792
9326634 12.1378 17.9142 24.8848 21.7834 0.871667 3.24872 76.7202
9326639 12.1378 17.9142 24.8848 21.7834 0.871667 3.24872 76.7202
9326649 12.1202 17.9725 24.8257 21.7054 0.89139 3.21801 76.6239
9326659 12.1819 17.9045 24.7666 21.6957 0.866005 3.20894 76.5487
9326680 12.1819 17.9045 24.7666 21.6957 0.866005 3.20894 76.5487
9326683 12.2876 18.0114 24.7076 21.647 0.86861 3.14184 76.6536
9326689 12.2876 18.0114 24.7076 21.647 0.86861 3.14184 76.6536
9326703 12.2259 18.0406 24.6485 21.6372 0.91553 3.13889 76.5523
9326709 12.3052 18.0698 24.6387 21.6275 0.898159 3.11019 76.6412
9326729 12.2964 18.1573 24.5796 21.686 0.966933 3.09151 76.7193
9326741 12.3228 18.167 24.5107 21.608 0.95993 3.06014 76.6086
9326761 12.4021 18.1962 24.491 21.5203 0.921384 3.01784 76.6097
9326770 12.4021 18.1962 24.491 21.5203 0.921384 3.01784 76.6097
9326783 12.358 18.1865 24.4713 21.5593 0.952151 3.03351 76.5752
9326794 12.3933 18.167 24.4517 21.5496 0.937712 3.0252 76.5615
9326815 12.3845 18.2254 24.3729 21.4619 0.958189 2.98744 76.4446
9326822 12.4285 18.2157 24.3532 21.4229 0.934595 2.97015 76.4203
9326832 12.4285 18.2157 24.3532 21.4229 0.934595 2.97015 76.4203
9326842 12.5606 18.3421 24.3237 21.3547 0.918153 2.89412 76.5811
9326852 12.5606 18.3421 24.3237 21.3547 0.918153 2.89412 76.5811
9326862 12.4373 18.2935 24.2843 21.3742 0.964165 2.93125 76.3893
9326872 12.5254 18.3518 24.304 21.3645 0.942874 2.89851 76.5457
9326892 12.5254 18.3713 24.2843 21.345 0.949538 2.88777 76.526
9326902 12.6135 18.3713 24.3138 21.3547 0.912777 2.87342 76.6533
9326922 12.6047 18.4102 24.2449 21.306 0.935996 2.84777 76.5658
9326943 12.5782 18.3616 24.2351 21.267 0.920722 2.85753 76.4419
9326953 12.6135 18.4394 24.2646 21.2865 0.929388 2.83895 76.604
9326963 12.6135 18.4394 24.2646 21.2865 0.929388 2.83895 76.604
9326973 12.6575 18.4296 24.176 21.2183 0.919971 2.80601 76.4815
9326983 12.6223 18.4685 24.3335 21.2183 0.890842 2.83022 76.6427
9326993 12.6223 18.4685 24.3335 21.2183 0.890842 2.83022 76.6427
9327003 12.728 18.5074 24.2252 21.1014 0.867155 2.76075 76.5621
9327013 12.728 18.5074 24.2252 21.1014 0.867155 2.76075 76.5621
9327023 12.6135 18.5269 24.2942 21.1209 0.894836 2.79694 76.5554
9327037 12.7632 18.4977 24.2252 21.1404 0.86447 2.76106 76.6266
9327043 12.7632 18.4977 24.2252 21.1404 0.86447 2.76106 76.6266
9327053 12.772 18.5172 24.1662 21.0819 0.869152 2.73571 76.5373
9327064 12.772 18.5658 24.1957 21.0527 0.865296 2.7245 76.5862
9327074 12.772 18.5658 24.1957 21.0527 0.865296 2.7245 76.5862
9327084 12.7632 18.5366 24.1662 21.0332 0.862899 2.72544 76.4993
9327094 12.7632 18.5366 24.1662 21.0332 0.862899 2.72544 76.4993
9327103 12.7896 18.4588 24.1957 21.0722 0.831741 2.74833 76.5164
9327114 12.772 18.5366 24.2252 21.0625 0.849193 2.73755 76.5963
9327124 12.772 18.5366 24.2252 21.0625 0.849193 2.73755 76.5963
9327136 12.7984 18.4977 24.2154 21.0722 0.834402 2.74042 76.5838
9327144 12.8073 18.5172 24.1859 21.0332 0.835234 2.7229 76.5435
9327156 12.8073 18.5172 24.1859 21.0332 0.835234 2.7229 76.5435
9327164 12.7984 18.5366 24.2252 20.9943 0.818759 2.7205 76.5546
9327178 12.7984 18.5366 24.2252 20.9943 0.818759 2.7205 76.5546
9327184 12.7192 18.4394 24.2056 20.9553 0.809076 2.75205 76.3194
9327202 12.7984 18.5074 24.2252 20.9358 0.791049 2.71788 76.4669
9327204 12.7984 18.5074 24.2252 20.9358 0.791049 2.71788 76.4669
9327214 12.7896 18.4588 24.2449 20.9845 0.787407 2.74217 76.4779
9327224 12.7984 18.488 24.2449 20.9845 0.793669 2.73336 76.5159
9327234 12.7984 18.488 24.2449 20.9845 0.793669 2.73336 76.5159
9327249 12.7896 18.4685 24.3138 20.9845 0.767273 2.75095 76.5565
9327266 12.772 18.4491 24.3532 20.9943 0.756878 2.7674 76.5686
9327276 12.7632 18.4005 24.3532 20.9943 0.744435 2.78074 76.5112
9327286 12.7632 18.4005 24.3532 20.9943 0.744435 2.78074 76.5112
9327296 12.8073 18.4005 24.2351 20.8871 0.735366 2.73441 76.3299
9327308 12.7632 18.4783 24.2548 20.9845 0.799155 2.74536 76.4808
9327320 12.7632 18.4783 24.2548 20.9845 0.799155 2.74536 76.4808
9327333 12.7984 18.4199 24.3926 21.0332 0.737864 2.78054 76.6442
9327337 12.7984 18.4199 24.3926 21.0332 0.737864 2.78054 76.6442
9327348 12.8689 18.488 24.432 21.0819 0.737944 2.76249 76.8708
9327357 12.8161 18.4783 24.4517 21.0332 0.730598 2.77235 76.7792
9327367 12.8161 18.4783 24.4517 21.0332 0.730598 2.77235 76.7792
9327377 12.772 18.4783 24.3532 20.9456 0.750694 2.75284 76.549
9327387 12.7808 18.381 24.304 20.9456 0.733447 2.7655 76.4114
9327400 12.7808 18.381 24.304 20.9456 0.733447 2.7655 76.4114
9327408 12.7632 18.381 24.3138 20.9456 0.736061 2.77117 76.4036
9327428 12.7368 18.3616 24.3434 20.8871 0.710252 2.77722 76.3288
9327438 12.7808 18.3713 24.3729 20.8676 0.682384 2.76632 76.3926
9327449 12.7808 18.3713 24.3729 20.8676 0.682384 2.76632 76.3926
9327459 12.7456 18.381 24.3631 20.8871 0.706846 2.77379 76.3768
9327469 12.7456 18.3713 24.4517 20.9553 0.695646 2.8011 76.5238
9327490 12.7896 18.4394 24.4615 20.9261 0.689897 2.77197 76.6166
9327499 12.7984 18.4394 24.4713 20.8968 0.674367 2.76683 76.606
9327513 12.7984 18.4394 24.4713 20.8968 0.674367 2.76683 76.606
9327520 12.7456 18.4296 24.4615 20.9748 0.717035 2.79221 76.6115
9327529 12.7456 18.4296 24.4615 20.9748 0.717035 2.79221 76.6115
9327541 12.772 18.4491 24.4024 20.9358 0.721812 2.76592 76.5593
9327550 12.7808 18.488 24.4221 20.9553 0.730741 2.76111 76.6462
9327559 12.7808 18.488 24.4221 20.9553 0.730741 2.76111 76.6462
9327570 12.8513 18.5366 24.3434 20.9261 0.739664 2.71629 76.6573
9327579 12.7896 18.488 24.3335 20.8871 0.735942 2.73399 76.4983
9327589 12.7896 18.488 24.3335 20.8871 0.735942 2.73399 76.4983
9327599 12.8161 18.5269 24.3631 20.8774 0.726378 2.72203 76.5834
9327621 12.8601 18.488 24.3237 20.8189 0.693911 2.70513 76.4907
9327630 12.7984 18.4977 24.3532 20.8968 0.732532 2.73441 76.5462
9327641 12.7984 18.4977 24.3532 20.8968 0.732532 2.73441 76.5462
9327650 12.8689 18.6533 24.3532 20.9163 0.764248 2.68531 76.7918
9327661 12.8161 18.6047 24.2942 20.8676 0.771096 2.69141 76.5825
9327671 12.8161 18.6047 24.2942 20.8676 0.771096 2.69141 76.5825
9327681 12.8337 18.5658 24.2548 20.9163 0.781527 2.69783 76.5706
9327691 12.8337 18.5658 24.2548 20.9163 0.781527 2.69783 76.5706
9327701 12.8513 18.5658 24.2351 20.8968 0.776055 2.68746 76.549
9327711 12.8425 18.5172 24.2843 20.9066 0.750142 2.71022 76.5506
9327722 12.8425 18.5172 24.2843 20.9066 0.750142 2.71022 76.5506
9327731 12.8601 18.5852 24.3138 20.9066 0.755841 2.69516 76.6658
9327745 12.8601 18.5852 24.3138 20.9066 0.755841 2.69516 76.6658
9327751 12.8513 18.5172 24.2745 20.7994 0.716496 2.68937 76.4424
9327760 12.8161 18.5463 24.3138 20.9066 0.758338 2.71432 76.5828
9327772 12.8161 18.5463 24.3138 20.9066 0.758338 2.71432 76.5828
9327781 12.8601 18.5561 24.2252 20.8579 0.760984 2.67982 76.4993
9327792 12.7984 18.5074 24.2449 20.8774 0.76589 2.71165 76.4282
9327800 12.7984 18.5074 24.2449 20.8774 0.76589 2.71165 76.4282
9327815 12.8073 18.5852 24.2449 20.8579 0.781399 2.68846 76.4953
9327830 12.7808 18.4977 24.2745 20.8871 0.761881 2.72429 76.4401
9327841 12.8073 18.5755 24.2745 20.8579 0.768369 2.69546 76.5151
9327860 12.8337 18.6047 24.2449 20.8676 0.781736 2.67943 76.5509
9327872 12.7544 18.5561 24.2252 20.8968 0.808969 2.71055 76.4326
9327894 12.7808 18.5658 24.2843 20.9456 0.798619 2.71949 76.5765
9327902 12.7808 18.5658 24.2843 20.9456 0.798619 2.71949 76.5765
9327913 12.7368 18.6047 24.2548 20.9261 0.829566 2.71281 76.5223
9327922 12.7456 18.6436 24.2056 20.965 0.867778 2.70013 76.5598
9327943 12.7896 18.6241 24.2154 20.9553 0.840381 2.69446 76.5845
9327957 12.6839 18.595 24.1662 20.965 0.886625 2.71934 76.4101
9327962 12.6839 18.595 24.1662 20.965 0.886625 2.71934 76.4101
9327973 12.7632 18.6728 24.117 21.0625 0.931621 2.69073 76.6154
9327983 12.7632 18.6728 24.117 21.0625 0.931621 2.69073 76.6154
9327993 12.7016 18.6144 24.1268 21.004 0.912419 2.71068 76.4468
9328006 12.7544 18.6047 24.1268 21.0138 0.894526 2.70226 76.4997
9328013 12.7544 18.6047 24.1268 21.0138 0.894526 2.70226 76.4997
9328025 12.7632 18.5463 24.0776 20.9358 0.865188 2.69326 76.323
9328033 12.7456 18.5755 24.2449 21.043 0.857592 2.73469 76.609
9328043 12.7456 18.5755 24.2449 21.043 0.857592 2.73469 76.609
9328053 12.7456 18.5852 24.2252 21.0625 0.873438 2.73241 76.6185
9328063 12.7456 18.5852 24.2252 21.0625 0.873438 2.73241 76.6185
9328073 12.7456 18.5658 24.1957 21.004 0.858858 2.72281 76.5111
9328084 12.7368 18.5755 24.176 21.0722 0.89305 2.73037 76.5605
9328104 12.728 18.6144 24.1957 21.1404 0.923049 2.73748 76.6785
9328113 12.7104 18.5269 24.1367 21.1404 0.921485 2.75239 76.5143
9328126 12.7104 18.5269 24.1367 21.1404 0.921485 2.75239 76.5143
9328135 12.7368 18.5852 24.1957 21.2086 0.932318 2.75309 76.7263
9328150 12.7368 18.5852 24.1465 21.2086 0.948963 2.74522 76.6771
9328154 12.6663 18.488 24.1465 21.1112 0.911617 2.76855 76.412
9328165 12.7016 18.5658 24.1367 21.0819 0.918314 2.73604 76.4859
9328174 12.7016 18.5658 24.1367 21.0819 0.918314 2.73604 76.4859
9328186 12.6927 18.6144 24.1367 21.1501 0.958022 2.73774 76.594
9328196 12.6663 18.6047 24.1563 21.1112 0.945017 2.74303 76.5385
9328205 12.6663 18.6047 24.1563 21.1112 0.945017 2.74303 76.5385
9328217 12.6487 18.6241 24.1563 21.1307 0.963217 2.74573 76.5598
9328225 12.6487 18.6241 24.1563 21.1307 0.963217 2.74573 76.5598
9328238 12.6399 18.5755 24.0973 21.1599 0.980163 2.75427 76.4726
9328245 12.6663 18.6728 24.1859 21.1989 0.983864 2.74601 76.7238
9328259 12.6663 18.6728 24.1859 21.1989 0.983864 2.74601 76.7238
9328266 12.6575 18.6339 24.1859 21.1696 0.965503 2.75239 76.6469
9328281 12.6575 18.595 24.2252 21.2183 0.955245 2.77546 76.6961
9328286 12.6575 18.595 24.2252 21.2183 0.955245 2.77546 76.6961
9328295 12.6663 18.6241 24.2449 21.1794 0.942537 2.76358 76.7148
9328307 12.6575 18.6241 24.1563 21.1794 0.975516 2.75148 76.6174
9328317 12.6575 18.6241 24.1563 21.1794 0.975516 2.75148 76.6174
9328327 12.6399 18.5852 24.1662 21.1696 0.962889 2.7646 76.5609
9328370 12.587 18.5755 24.1957 21.1404 0.958565 2.77918 76.4987
9328373 12.6399 18.4783 24.2843 21.1501 0.883117 2.80518 76.5526
9328377 12.6135 18.5463 24.2646 21.1404 0.91708 2.79081 76.5648
9328387 12.587 18.4199 24.3729 21.1794 0.861859 2.84981 76.5592
9328407 12.5959 18.4588 24.3532 21.2183 0.890058 2.84176 76.6262
9328417 12.5959 18.4588 24.3532 21.2183 0.890058 2.84176 76.6262
9328428 12.5078 18.381 24.3631 21.2476 0.901231 2.88666 76.4994
9328437 12.5518 18.4102 24.432 21.3158 0.893685 2.89124 76.7097
9328448 12.5518 18.4102 24.432 21.3158 0.893685 2.89124 76.7097
9328457 12.5254 18.4296 24.5009 21.2963 0.879341 2.90066 76.7522
9328469 12.499 18.4588 24.491 21.1989 0.870112 2.88309 76.6477
9328489 12.5078 18.4199 24.4615 21.2086 0.867921 2.88698 76.5978
9328510 12.4813 18.4296 24.4418 21.1307 0.861999 2.87542 76.4834
9328518 12.5254 18.4102 24.4713 21.1501 0.837153 2.87745 76.5571
9328531 12.5254 18.4102 24.4713 21.1501 0.837153 2.87745 76.5571
9328538 12.5254 18.4005 24.491 21.1112 0.815135 2.87666 76.528
9328550 12.5342 18.3032 24.5304 21.1404 0.77737 2.9082 76.5082
9328558 12.5342 18.3032 24.5304 21.1404 0.77737 2.9082 76.5082
9328568 12.5342 18.3518 24.5895 21.1209 0.766709 2.90308 76.5964
9328583 12.5342 18.3518 24.5895 21.1209 0.766709 2.90308 76.5964
9328595 12.5606 18.3324 24.6682 21.2281 0.759101 2.93074 76.7893
9328601 12.543 18.2935 24.6485 21.1209 0.725421 2.92398 76.6059
9328609 12.543 18.2935 24.6485 21.1209 0.725421 2.92398 76.6059
9328619 12.5254 18.2157 24.7076 21.0625 0.668257 2.94643 76.5111
9328629 12.5254 18.2157 24.7174 21.0625 0.664955 2.94798 76.521
9328640 12.5254 18.2059 24.7174 21.0917 0.671154 2.95486 76.5405
9328649 12.5254 18.2254 24.7765 21.0917 0.657544 2.95959 76.619
9328661 12.5254 18.2254 24.7765 21.0917 0.657544 2.95959 76.619
9328669 12.4725 18.167 24.7962 21.0332 0.631487 2.9796 76.469
9328679 12.499 18.1865 24.8651 21.0819 0.621277 2.98729 76.6325
9328691 12.499 18.1865 24.8651 21.0819 0.621277 2.98729 76.6325
9328700 12.5254 18.1281 24.8651 21.0235 0.57523 2.98562 76.5421
9328710 12.4109 18.1476 24.9734 21.0625 0.595936 3.03104 76.5943
9328731 12.4637 18.1281 24.9635 21.0527 0.572267 3.02012 76.6081
9328744 12.4637 18.1281 24.9635 21.0527 0.572267 3.02012 76.6081
9328751 12.4461 18.1184 24.9734 21.1112 0.590393 3.03722 76.6491
9328768 12.4285 18.1281 25.0029 21.1112 0.589511 3.04368 76.6707
9328770 12.4285 18.1281 25.0029 21.1112 0.589511 3.04368 76.6707
9328781 12.4725 18.167 25.062 21.1307 0.573719 3.03643 76.8322
9328791 12.4461 18.1087 25.0423 21.043 0.542566 3.03962 76.6401
9328801 12.4461 18.1087 25.0423 21.043 0.542566 3.03962 76.6401
9328811 12.4373 18.0698 24.9832 21.1404 0.583869 3.05684 76.6307
9328821 12.4373 18.0698 24.9832 21.1404 0.583869 3.05684 76.6307
9328830 12.3933 18.099 25.0423 21.0235 0.550869 3.05132 76.558
9328840 12.3756 18.1281 24.9832 21.0819 0.604433 3.0485 76.569
9328862 12.4725 18.1087 25.0423 21.0917 0.549299 3.041 76.7152
9328873 12.4109 18.0503 24.9931 21.0138 0.542763 3.04943 76.468
9328882 12.4109 18.0503 24.9931 21.0138 0.542763 3.04943 76.468
9328892 12.4373 18.0698 24.9931 21.0722 0.558829 3.04774 76.5724
9328902 12.4373 18.0698 24.9931 21.0722 0.558829 3.04774 76.5724
9328914 12.4373 18.0698 25.1112 21.0332 0.507018 3.06008 76.6515
9328922 12.4197 18.0017 24.9734 21.0722 0.54954 3.06489 76.467
9328934 12.4197 18.0017 24.9734 21.0722 0.54954 3.06489 76.467
9328942 12.4109 18.0892 25.0423 21.1307 0.576064 3.06616 76.6731
9328962 12.4197 18.0795 25.0915 21.0917 0.541204 3.06797 76.6824
9328984 12.4109 18.0406 25.0816 21.0527 0.522557 3.07163 76.5859
9328985 12.4109 18.0406 25.0816 21.0527 0.522557 3.07163 76.5859
9328992 12.4021 18.0114 25.0718 21.0722 0.525677 3.08209 76.5575
9329002 12.4021 18.0017 25.0816 21.0917 0.525513 3.08895 76.5771
9329012 12.4021 18.0017 25.0816 21.0917 0.525513 3.08895 76.5771
9329022 12.4021 18.0601 25.0816 21.2183 0.584495 3.09485 76.7621
9329032 12.4021 18.0601 25.0816 21.2183 0.584495 3.09485 76.7621
9329042 12.3404 18.0017 25.0816 21.2086 0.583386 3.12168 76.6324
9329052 12.314 17.9434 25.121 21.1989 0.557351 3.14634 76.5772
9329062 12.314 17.9434 25.121 21.1989 0.557351 3.14634 76.5772
9329072 12.3404 17.9531 25.0915 21.1989 0.561488 3.1332 76.5838
9329083 12.2523 17.8558 25.1998 21.2865 0.551695 3.20744 76.5945
9329092 12.2523 17.8558 25.1998 21.2865 0.551695 3.20744 76.5945
9329103 12.2523 17.8461 25.1801 21.2865 0.555161 3.20672 76.5651
9329113 12.2523 17.8461 25.1801 21.2865 0.555161 3.20672 76.5651
9329123 12.2347 17.7489 25.1702 21.3645 0.558159 3.24454 76.5183
9329134 12.2171 17.7878 25.2982 21.4229 0.552413 3.26805 76.726
9329144 12.2171 17.7878 25.2982 21.4229 0.552413 3.26805 76.726
9329154 12.2347 17.778 25.2293 21.4034 0.560194 3.25263 76.6455
9329164 12.1731 17.7586 25.3179 21.5106 0.579152 3.30188 76.7601
9329185 12.1995 17.7002 25.2982 21.4716 0.545904 3.30055 76.6696
9329206 12.1642 17.6711 25.2293 21.4521 0.565124 3.30244 76.5167
9329216 12.1114 17.6808 25.2687 21.4424 0.569621 3.31729 76.5033
9329228 12.1114 17.6808 25.2687 21.4424 0.569621 3.31729 76.5033
9329238 12.1114 17.5252 25.249 21.4814 0.5389 3.35757 76.3669
9329250 12.0762 17.5933 25.308 21.5788 0.58383 3.37349 76.5563
9329254 12.0762 17.5933 25.308 21.5788 0.58383 3.37349 76.5563
9329266 11.9793 17.5933 25.3966 21.5885 0.589707 3.41167 76.5577
9329275 11.9705 17.5641 25.4065 21.686 0.611103 3.43702 76.627
9329287 11.9705 17.5641 25.4065 21.686 0.611103 3.43702 76.627
9329296 12.0233 17.5057 25.5049 21.686 0.542051 3.45318 76.7199
9329306 12.0233 17.5057 25.5049 21.686 0.542051 3.45318 76.7199
9329316 11.9528 17.4085 25.5738 21.7639 0.536412 3.51564 76.699
9329325 11.9528 17.4571 25.623 21.7931 0.544843 3.51565 76.8261
9329336 11.9528 17.4571 25.623 21.7931 0.544843 3.51565 76.8261
9329345 11.8736 17.4765 25.6427 21.7152 0.546041 3.52136 76.708
9329355 11.8736 17.4765 25.6427 21.7152 0.546041 3.52136 76.708
9329365 11.856 17.4376 25.6427 21.7834 0.561243 3.54521 76.7197
9329379 11.8824 17.4765 25.6624 21.7834 0.558275 3.53238 76.8047
9329386 11.8824 17.4765 25.6624 21.7834 0.558275 3.53238 76.8047
9329399 11.8383 17.4376 25.5443 21.8029 0.606173 3.53767 76.6231
9329406 11.8383 17.4571 25.6427 21.8418 0.591901 3.55349 76.78
9329416 11.8383 17.4571 25.6427 21.8418 0.591901 3.55349 76.78
9329425 11.8295 17.4376 25.6821 21.8126 0.566235 3.56183 76.7619
9329436 11.8295 17.4376 25.6821 21.8126 0.566235 3.56183 76.7619
9329446 11.7679 17.3696 25.6427 21.8418 0.587556 3.59175 76.622
9329456 11.7503 17.3793 25.7215 21.8711 0.579563 3.60971 76.7221
9329466 11.7503 17.3793 25.7215 21.8711 0.579563 3.60971 76.7221
9329475 11.7855 17.4279 25.7018 21.8711 0.589848 3.58647 76.7863
9329486 11.6974 17.3987 25.6526 21.8808 0.629506 3.60903 76.6295
9329497 11.6974 17.3987 25.6526 21.8808 0.629506 3.60903 76.6295
9329507 11.7062 17.389 25.692 21.9003 0.616509 3.618 76.6875
9329527 11.6886 17.3404 25.6427 21.9295 0.632682 3.63113 76.6012
9329537 11.6446 17.3598 25.7313 21.988 0.642538 3.65889 76.7237
9329548 11.6446 17.3598 25.7313 21.988 0.642538 3.65889 76.7237
9329558 11.715 17.2918 25.7215 21.9977 0.603759 3.65829 76.726
9329572 11.6446 17.3209 25.7412 22.0269 0.639272 3.67556 76.7336
9329578 11.6446 17.3209 25.7412 22.0269 0.639272 3.67556 76.7336
9329588 11.5917 17.2918 25.751 22.0659 0.656757 3.70274 76.7004
9329608 11.6005 17.2626 25.8002 22.0854 0.634283 3.71782 76.7487
9329619 11.5653 17.1751 25.8101 22.1731 0.642815 3.76211 76.7235
9329628 11.5653 17.1751 25.8101 22.1731 0.642815 3.76211 76.7235
9329645 11.4684 17.1362 25.7805 22.1731 0.672781 3.79105 76.5582
9329648 11.486 17.0584 25.8593 22.0854 0.587806 3.80453 76.489
9329668 11.4508 17.0486 25.938 22.1049 0.576374 3.82994 76.5423
9329678 11.4508 17.0486 25.938 22.1049 0.576374 3.82994 76.5423
9329694 11.442 17.0195 25.9971 22.2218 0.587553 3.8649 76.6803
9329701 11.4508 16.9816 26.0955 22.3387 0.576958 3.90323 76.8666
9329720 11.4067 16.9632 26.194 22.3874 0.568488 3.93979 76.9513
9329729 11.4155 16.9908 26.1841 22.4653 0.602305 3.94061 77.0558
9329740 11.4155 16.9908 26.1841 22.4653 0.602305 3.94061 77.0558
9329749 11.3979 16.9355 26.2137 22.4361 0.57157 3.95858 76.9832
9329765 11.3451 16.9171 26.1448 22.4653 0.615504 3.97046 76.8723
9329781 11.3275 16.8434 26.1743 22.4361 0.578853 3.99306 76.7813
9329800 11.2746 16.825 26.1152 22.4361 0.610328 4.00224 76.651
9329812 11.1865 16.7698 26.1644 22.4556 0.611931 4.04767 76.5763
9329822 11.1865 16.7698 26.1644 22.4556 0.611931 4.04767 76.5763
9329831 11.1601 16.7974 26.1841 22.5822 0.663221 4.06826 76.7239
9329842 11.1513 16.7882 26.1644 22.5433 0.657466 4.06438 76.6472
9329852 11.1513 16.7882 26.1644 22.5433 0.657466 4.06438 76.6472
9329864 11.1161 16.8342 26.3023 22.6991 0.687137 4.10344 76.9517
9329879 11.1161 16.8342 26.3023 22.6991 0.687137 4.10344 76.9517
9329887 10.9927 16.7237 26.4007 22.7284 0.669739 4.17967 76.8455
9329892 10.9135 16.7145 26.5188 22.8063 0.678506 4.22929 76.9531
9329903 10.9135 16.7145 26.5188 22.8063 0.678506 4.22929 76.9531
9329916 10.8606 16.7421 26.5188 22.894 0.732544 4.24785 77.0156
9329923 10.7637 16.6961 26.6468 22.894 0.707644 4.30145 77.0006
9329935 10.7637 16.6961 26.6468 22.894 0.707644 4.30145 77.0006
9329943 10.6933 16.6224 26.7944 22.9622 0.680169 4.36751 77.0723
9329960 10.5171 16.5672 26.8633 22.9914 0.707749 4.43932 76.939
9329964 10.5171 16.5672 26.8633 22.9914 0.707749 4.43932 76.939
9329975 10.4731 16.6132 26.9421 23.0304 0.722969 4.45495 77.0587
9329994 10.4114 16.5027 27.0504 22.9817 0.657144 4.50664 76.9462
9330004 10.3585 16.5395 27.1193 22.9817 0.663444 4.52009 76.999
9330014 10.3585 16.5395 27.1193 22.9817 0.663444 4.52009 76.999
9330024 10.2881 16.5764 27.1094 23.0206 0.714171 4.53258 76.9945
9330034 10.2881 16.5764 27.1094 23.0206 0.714171 4.53258 76.9945
9330045 10.1912 16.4935 27.2276 22.9914 0.671667 4.59034 76.9037
9330054 10.2 16.4659 27.2669 22.9427 0.631419 4.59387 76.8755
9330074 10.1912 16.4567 27.2669 22.9232 0.625262 4.59583 76.838
9330085 10.1824 16.4567 27.2276 22.933 0.644428 4.59406 76.7996
9330097 10.1824 16.4567 27.2276 22.933 0.644428 4.59406 76.7996
9330107 10.1912 16.429 27.2079 22.9135 0.633112 4.59356 76.7416
9330125 10.2 16.4014 27.2276 22.9622 0.630286 4.60763 76.7912
9330137 10.1912 16.383 27.2472 22.9817 0.626999 4.61988 76.8031
9330146 10.1912 16.383 27.2472 22.9817 0.626999 4.61988 76.8031
9330162 10.2528 16.429 27.2276 23.0304 0.643033 4.59633 76.9398
9330165 10.2705 16.3922 27.198 23.0693 0.647679 4.6025 76.93
9330175 10.2705 16.3922 27.198 23.0693 0.647679 4.6025 76.93
9330186 10.2969 16.4475 27.1291 23.0206 0.663921 4.56577 76.8941
9330211 10.244 16.3922 27.1882 23.0109 0.64126 4.6 76.8353
9330215 10.2617 16.4475 27.1685 23.0791 0.681025 4.588 76.9567
9330228 10.2617 16.4475 27.1685 23.0791 0.681025 4.588 76.9567
9330235 10.2969 16.4843 27.1488 23.1181 0.69977 4.57228 77.048
9330246 10.3233 16.429 27.1783 23.0888 0.654447 4.57965 77.0195
9330261 10.3233 16.429 27.1783 23.0888 0.654447 4.57965 77.0195
9330266 10.2617 16.4014 27.1094 23.0986 0.692353 4.59437 76.8711
9330277 10.2617 16.4014 27.1094 23.0986 0.692353 4.59437 76.8711
9330287 10.2088 16.3646 27.1587 23.1668 0.703478 4.63311 76.8988
9330297 10.2088 16.3554 27.1488 23.235 0.725394 4.64332 76.9479
9330308 10.2088 16.3554 27.1488 23.235 0.725394 4.64332 76.9479
9330317 10.156 16.3093 27.139 23.2837 0.747213 4.67382 76.8879
9330331 10.1824 16.2725 27.2177 23.3421 0.718853 4.69488 77.0147
9330338 10.1824 16.2725 27.2177 23.3421 0.718853 4.69488 77.0147
9330347 10.1648 16.2725 27.2571 23.3421 0.71159 4.70465 77.0365
9330358 10.1648 16.2725 27.2571 23.3421 0.71159 4.70465 77.0365
9330367 10.1119 16.1804 27.3162 23.3616 0.686607 4.75226 76.9701
9330379 10.1383 16.0975 27.3654 23.459 0.665978 4.78623 77.0602
9330387 10.1383 16.0975 27.3654 23.459 0.665978 4.78623 77.0602
9330402 10.0326 16.0791 27.3851 23.5564 0.71958 4.83363 77.0532
9330407 10.0238 15.9778 27.4047 23.6441 0.711656 4.87614 77.0505
9330417 10.0238 15.9778 27.4047 23.6441 0.711656 4.87614 77.0505
9330428 10.015 15.8765 27.4835 23.6928 0.671747 4.92128 77.0679
9330438 10.015 15.8765 27.4835 23.6928 0.671747 4.92128 77.0679
9330450 9.97979 15.8489 27.4933 23.7903 0.702217 4.95154 77.1123
9330458 9.94456 15.8581 27.6115 23.8 0.68059 4.9749 77.2141
9330471 9.94456 15.8581 27.6115 23.8 0.68059 4.9749 77.2141
9330478 9.90052 15.7476 27.5622 23.7708 0.667554 5.00479 76.9811
9330488 9.90052 15.7291 27.6016 23.7708 0.648609 5.01468 77.0021
9330503 9.90052 15.7291 27.6016 23.7708 0.648609 5.01468 77.0021
9330516 9.87409 15.6923 27.6115 23.6928 0.617787 5.02231 76.8707
9330520 9.87409 15.6923 27.6115 23.6928 0.617787 5.02231 76.8707
9330528 9.87409 15.7936 27.6213 23.7026 0.649676 4.9985 76.9916
9330539 9.83005 15.7107 27.6213 23.7026 0.638115 5.03153 76.8647
9330549 9.83005 15.7107 27.6213 23.7026 0.638115 5.03153 76.8647
9330560 9.84767 15.7291 27.6508 23.7318 0.637493 5.02976 76.9595
9330570 9.84767 15.6463 27.6115 23.8097 0.64905 5.05634 76.9151
9330589 9.81244 15.7107 27.641 23.9266 0.708237 5.06762 77.0908
9330603 9.78601 15.6923 27.641 23.8974 0.702032 5.07554 77.0167
9330611 9.78601 15.6923 27.641 23.8974 0.702032 5.07554 77.0167
9330621 9.80363 15.6647 27.6902 24.0436 0.717077 5.10325 77.2021
9330633 9.80363 15.6647 27.6902 24.0436 0.717077 5.10325 77.2021
9330640 9.83005 15.6831 27.5721 23.9948 0.738129 5.07014 77.0801
9330652 9.75959 15.6094 27.6312 24.0436 0.734076 5.12158 77.0437
9330660 9.75959 15.6094 27.6312 24.0436 0.734076 5.12158 77.0437
9330670 9.7772 15.5265 27.6607 24.1312 0.719851 5.15363 77.0957
9330680 9.74197 15.4897 27.6312 24.2774 0.775841 5.18734 77.1402
9330701 9.70674 15.416 27.7001 24.3748 0.77205 5.23696 77.1976
9330712 9.70674 15.416 27.7001 24.3748 0.77205 5.23696 77.1976
9330722 9.69793 15.3239 27.6508 24.4235 0.77782 5.26338 77.0962
9330732 9.6715 15.2779 27.6115 24.4917 0.806794 5.28609 77.0526
9330742 9.6715 15.2779 27.6115 24.4917 0.806794 5.28609 77.0526
9330754 9.69793 15.3055 27.6016 24.3553 0.767046 5.25338 76.9604
9330762 9.66269 15.195 27.6016 24.4625 0.77779 5.30533 76.9218
9330782 9.62746 15.1766 27.6705 24.5014 0.772983 5.33307 76.976
9330792 9.62746 15.1766 27.6705 24.5014 0.772983 5.33307 76.976
9330802 9.62746 15.0845 27.6902 24.6573 0.786448 5.37939 77.0595
9330814 9.66269 15.0293 27.6508 24.6378 0.764328 5.37734 76.9806
9330827 9.66269 15.0293 27.6508 24.6378 0.764328 5.37734 76.9806
9330832 9.60984 15.0108 27.6902 24.7158 0.787565 5.41085 77.0266
9330842 9.65389 15.02 27.6804 24.745 0.788194 5.39916 77.0993
9330852 9.65389 15.02 27.6804 24.745 0.788194 5.39916 77.0993
9330862 9.69793 15.0016 27.6705 24.745 0.770977 5.39116 77.1151
9330873 9.69793 15.0016 27.6705 24.745 0.770977 5.39116 77.1151
9330883 9.64508 15.0569 27.6213 24.7742 0.831646 5.38803 77.0975
9330893 9.66269 15.1213 27.4933 24.6963 0.864446 5.34058 76.9737
9330903 9.66269 15.1213 27.4933 24.6963 0.864446 5.34058 76.9737
9330917 9.69793 15.1858 27.4244 24.667 0.88681 5.30192 76.9752
9330923 9.71554 15.1766 27.3851 24.6476 0.885138 5.29228 76.9248
9330944 9.72435 15.3055 27.3752 24.5794 0.904509 5.24613 76.9845
9330953 9.72435 15.3055 27.3752 24.5794 0.904509 5.24613 76.9845
9330966 9.7772 15.3055 27.2669 24.5989 0.929272 5.22097 76.9485
9330974 9.83005 15.37 27.3162 24.6768 0.93939 5.20635 77.193
9330994 9.8829 15.4068 27.2768 24.5599 0.909883 5.16301 77.1264
9331004 9.89171 15.3976 27.2374 24.5794 0.923359 5.16057 77.1061
9331018 9.89171 15.3976 27.2374 24.5794 0.923359 5.16057 77.1061
9331026 9.93575 15.5173 27.1587 24.443 0.929829 5.09026 77.0547
9331039 9.93575 15.4805 27.0799 24.3261 0.908238 5.07465 76.8222
9331047 9.93575 15.4805 27.0799 24.3261 0.908238 5.07465 76.8222
9331062 9.9886 15.4621 26.9815 24.2871 0.905612 5.04787 76.7193
9331077 9.9886 15.5818 26.9815 24.1702 0.906494 5.00142 76.7221
9331087 10.0238 15.6002 26.9519 24.1799 0.913408 4.98486 76.7559
9331097 10.0238 15.6002 26.9519 24.1799 0.913408 4.98486 76.7559
9331111 10.1119 15.6186 26.9716 24.1507 0.873685 4.95592 76.8529
9331118 10.1472 15.6186 26.9519 24.1215 0.859272 4.94038 76.8392
9331127 10.1472 15.6278 26.9519 24.1215 0.862169 4.93799 76.8484
9331137 10.2352 15.7291 26.9815 24.1117 0.851372 4.89157 77.0576
9331163 10.2793 15.7936 26.883 24.0923 0.883722 4.84809 77.0482
9331167 10.3057 15.7936 26.9323 23.9559 0.815564 4.82978 76.9874
9331187 10.3497 15.8949 26.8732 23.9559 0.852379 4.78459 77.0737
9331197 10.3497 15.8949 26.8732 23.9559 0.852379 4.78459 77.0737
9331207 10.3145 15.8212 26.7944 23.8877 0.846148 4.7931 76.8179
9331217 10.3321 15.8949 26.7649 23.839 0.858 4.75919 76.8309
9331237 10.4114 15.9225 26.7846 23.839 0.833419 4.73436 76.9575
9331247 10.4026 15.8765 26.8141 23.8779 0.82424 4.75756 76.9711
9331257 10.4026 15.8765 26.8141 23.8779 0.82424 4.75756 76.9711
9331269 10.3762 15.8581 26.8732 23.8292 0.792187 4.77045 76.9367
9331287 10.3585 15.8673 26.883 23.8682 0.809947 4.7791 76.9771
9331297 10.3233 15.8212 26.8929 23.8585 0.80092 4.80002 76.8959
9331307 10.3233 15.8212 26.8929 23.8585 0.80092 4.80002 76.8959
9331318 10.3674 15.8212 26.9126 23.8097 0.764212 4.78483 76.9109
9331327 10.3233 15.8581 26.8437 23.8877 0.838214 4.78788 76.9127
9331347 10.3497 15.8857 26.9224 23.7708 0.774848 4.76892 76.9286
9331358 10.3497 15.8857 26.9224 23.7708 0.774848 4.76892 76.9286
9331367 10.3585 15.8857 26.8732 23.7513 0.78226 4.75751 76.8687
9331380 10.3762 15.9502 26.8043 23.7513 0.819764 4.72723 76.8819
9331391 10.3762 15.9502 26.8043 23.7513 0.819764 4.72723 76.8819
9331402 10.4378 16.0146 26.7748 23.6246 0.789404 4.67398 76.8518
9331408 10.4114 16.033 26.8043 23.6149 0.791097 4.67869 76.8636
9331418 10.4114 16.033 26.8043 23.6149 0.791097 4.67869 76.8636
9331428 10.4642 16.0515 26.7157 23.5564 0.790483 4.64066 76.7878
9331438 10.4642 16.0515 26.7157 23.5564 0.790483 4.64066 76.7878
9331448 10.5083 16.0238 26.7452 23.5857 0.766298 4.64439 76.863
9331459 10.5611 16.0146 26.7354 23.5662 0.742838 4.62928 76.8773
9331469 10.5611 16.0146 26.7354 23.5662 0.742838 4.62928 76.8773
9331479 10.6052 16.0515 26.7944 23.6052 0.732255 4.62187 77.0562
9331491 10.5876 15.9594 26.7649 23.6052 0.718972 4.64588 76.917
9331499 10.5876 15.9594 26.7649 23.6052 0.718972 4.64588 76.917
9331514 10.6404 15.987 26.9126 23.537 0.63929 4.63604 77.0769
9331520 10.6404 15.987 26.9126 23.537 0.63929 4.63604 77.0769
9331529 10.658 16.0054 26.8732 23.4395 0.621533 4.60843 76.9762
9331539 10.6756 15.987 26.7748 23.4006 0.630277 4.59005 76.838
9331549 10.6756 15.987 26.7748 23.4006 0.630277 4.59005 76.838
9331560 10.7197 16.0607 26.7452 23.3713 0.639525 4.55211 76.8969
9331569 10.7813 16.0423 26.5385 23.2739 0.651234 4.49961 76.636
9331589 10.8518 16.1436 26.4696 23.2057 0.661224 4.43715 76.6707
9331603 10.8518 16.1436 26.4696 23.2057 0.661224 4.43715 76.6707
9331611 10.8782 16.1528 26.3909 23.196 0.678581 4.41591 76.6178
9331619 10.9663 16.2725 26.381 23.1862 0.68725 4.36068 76.8061
9331640 11.0368 16.2817 26.2826 23.1473 0.687188 4.32154 76.7483
9331650 11.0368 16.3001 26.3023 23.2252 0.711083 4.33047 76.8644
9331660 11.0368 16.3001 26.3023 23.2252 0.711083 4.33047 76.8644
9331670 11.1425 16.383 26.2924 23.2057 0.699079 4.27908 77.0236
9331691 11.1073 16.3738 26.2038 23.196 0.734481 4.27651 76.8808
9331701 11.1777 16.4382 26.1644 23.157 0.732121 4.23178 76.9374
9331712 11.1777 16.4382 26.1644 23.157 0.732121 4.23178 76.9374
9331721 11.1425 16.429 26.0955 23.0206 0.72099 4.2141 76.6877
9331733 11.1777 16.4659 26.0266 22.9817 0.731611 4.18086 76.6519
9331742 11.1777 16.4659 26.0266 22.9817 0.731611 4.18086 76.6519
9331752 11.2922 16.5027 25.9873 22.933 0.702655 4.13059 76.7151
9331762 11.2922 16.5027 25.9873 22.933 0.702655 4.13059 76.7151
9331772 11.3275 16.4843 25.8888 22.9232 0.714928 4.11105 76.6238
9331782 11.3891 16.5119 25.8987 22.9135 0.69662 4.08882 76.7132
9331799 11.3891 16.5119 25.8987 22.9135 0.69662 4.08882 76.7132
9331803 11.442 16.5303 25.9282 22.894 0.668716 4.07253 76.7945
9331814 11.4508 16.5303 25.879 22.894 0.682232 4.06334 76.7541
9331823 11.4508 16.5303 25.879 22.894 0.682232 4.06334 76.7541
9331839 11.4155 16.5948 25.8199 22.8648 0.72498 4.04348 76.695
9331843 11.486 16.6224 25.7805 22.7966 0.701708 4.00375 76.6855
9331858 11.486 16.6224 25.7805 22.7966 0.701708 4.00375 76.6855
9331864 11.5036 16.6961 25.7904 22.7966 0.715831 3.98257 76.7867
9331879 11.5036 16.6961 25.7904 22.7966 0.715831 3.98257 76.7867
9331884 11.4772 16.7974 25.751 22.7771 0.763732 3.95562 76.8027
9331894 11.5036 16.7606 25.7805 22.7284 0.717947 3.95543 76.7731
9331923 11.5389 16.7882 25.8002 22.6504 0.683641 3.93153 76.7777
9331925 11.5389 16.7882 25.6723 22.6504 0.726518 3.91305 76.6497
9331934 11.4948 16.7237 25.6723 22.7089 0.739408 3.94831 76.5997
9331946 11.4948 16.7237 25.7116 22.7284 0.73235 3.95679 76.6586
9331954 11.4948 16.7237 25.7116 22.7284 0.73235 3.95679 76.6586
9331969 11.5124 16.7053 25.7412 22.7479 0.716871 3.96405 76.7068
9331974 11.486 16.6593 25.8396 22.6797 0.65653 3.98633 76.6645
9331984 11.486 16.6593 25.8396 22.6797 0.65653 3.98633 76.6645
9331994 11.4948 16.6685 25.8593 22.7673 0.677723 3.99727 76.7899
9332014 11.442 16.604 25.8101 22.816 0.706908 4.02627 76.6721
9332025 11.4508 16.604 25.8888 22.933 0.71457 4.05201 76.8766
9332036 11.4508 16.604 25.8888 22.933 0.71457 4.05201 76.8766
9332044 11.4332 16.5488 25.9282 23.0109 0.714457 4.08676 76.921
9332058 11.3715 16.4659 26.0562 23.0304 0.672278 4.14354 76.9239
9332065 11.3715 16.4659 26.0562 23.0304 0.672278 4.14354 76.9239
9332076 11.4155 16.4567 26.0759 23.0499 0.654277 4.1404 76.9979
9332085 11.3275 16.4475 26.0168 23.1278 0.725108 4.16728 76.9195
9332097 11.3275 16.4475 26.0168 23.1278 0.725108 4.16728 76.9195
9332106 11.2922 16.3738 26.1152 23.1083 0.674552 4.20555 76.8895
9332117 11.2922 16.3738 26.1152 23.1083 0.674552 4.20555 76.8895
9332127 11.1777 16.3277 25.9774 23.1278 0.750676 4.22913 76.6107
9332139 11.1953 16.3277 26.0266 23.1668 0.740561 4.23709 76.7165
9332146 11.1953 16.3277 26.0266 23.1668 0.740561 4.23709 76.7165
9332156 11.1073 16.3277 26.0857 23.1765 0.753382 4.26884 76.6972
9332166 11.1073 16.3277 26.0857 23.1765 0.753382 4.26884 76.6972
9332176 11.0632 16.2633 26.1546 23.1862 0.727722 4.30712 76.6673
9332186 11.1073 16.3185 26.194 23.2057 0.723404 4.29036 76.8255
9332201 11.1073 16.3185 26.194 23.2057 0.723404 4.29036 76.8255
9332207 11.0544 16.2541 26.194 23.2252 0.726888 4.32257 76.7277
9332217 11.0368 16.2541 26.1841 23.2155 0.733015 4.32428 76.6905
9332237 11.0368 16.2449 26.253 23.3324 0.743946 4.3524 76.8671
9332252 11.0368 16.2449 26.253 23.3324 0.743946 4.3524 76.8671
9332257 11.0192 16.2817 26.253 23.3129 0.755325 4.34487 76.8668
9332268 11.0456 16.3093 26.1743 23.3324 0.787717 4.32305 76.8616
9332277 11.0456 16.3093 26.1743 23.3324 0.787717 4.32305 76.8616
9332290 11.0984 16.3001 26.1546 23.2934 0.761411 4.30393 76.8466
9332297 11.0808 16.2725 26.1054 23.2057 0.747409 4.29622 76.6644
9332307 11.0808 16.2725 26.1054 23.2057 0.747409 4.29622 76.6644
9332317 11.1337 16.4014 26.1152 23.157 0.751728 4.24513 76.8073
9332327 11.1337 16.4014 26.1152 23.157 0.751728 4.24513 76.8073
9332337 11.1513 16.3554 26.0463 23.1375 0.748226 4.23987 76.6905
9332348 11.1601 16.4567 26.0069 23.1278 0.787413 4.20539 76.7515
9332358 11.1601 16.4567 26.0069 23.1278 0.787413 4.20539 76.7515
9332368 11.1601 16.4014 26.0857 23.1765 0.758916 4.23711 76.8237
9332378 11.2218 16.3462 26.0463 23.157 0.727841 4.22725 76.7713
9332388 11.2218 16.3462 26.0463 23.157 0.727841 4.22725 76.7713
9332398 11.1777 16.4475 26.1152 23.2155 0.769916 4.23078 76.9559
9332418 11.1161 16.3554 26.0759 23.196 0.768614 4.26104 76.7433
9332429 11.1689 16.4475 26.0955 23.1668 0.764117 4.2234 76.8787
9332439 11.1689 16.4475 26.0955 23.1668 0.764117 4.2234 76.8787
9332449 11.1073 16.3646 26.0759 23.1765 0.768325 4.25821 76.7242
9332458 11.0984 16.3554 26.0759 23.2934 0.80525 4.27908 76.8231
9332469 11.0984 16.3554 26.0759 23.2934 0.80525 4.27908 76.8231
9332480 11.0632 16.3738 26.0168 23.2739 0.836629 4.27233 76.7277
9332488 11.0632 16.3738 26.0168 23.2739 0.836629 4.27233 76.7277
9332500 11.0632 16.3001 26.0463 23.2739 0.803468 4.29497 76.6836
9332509 11.0632 16.3369 26.1349 23.2837 0.788376 4.29943 76.8187
9332529 11.0456 16.3646 26.1152 23.3129 0.818813 4.29824 76.8383
9332540 11.0456 16.3093 26.1054 23.2739 0.792432 4.30533 76.7342
9332549 11.0456 16.3093 26.1054 23.2739 0.792432 4.30533 76.7342
9332565 11.0544 16.3185 26.1349 23.2739 0.782454 4.30491 76.7818
9332571 11.0544 16.3185 26.1349 23.2739 0.782454 4.30491 76.7818
9332579 11.072 16.3922 26.1644 23.235 0.777575 4.28067 76.8636
9332592 11.0544 16.3093 26.1251 23.2544 0.776708 4.30314 76.7432
9332601 11.0544 16.3093 26.1251 23.2544 0.776708 4.30314 76.7432
9332617 11.0632 16.3554 26.1054 23.2642 0.797957 4.28796 76.7881
9332621 11.0808 16.3369 26.0955 23.3324 0.811028 4.2963 76.8457
9332631 11.0808 16.3369 26.0955 23.3324 0.811028 4.2963 76.8457
9332642 11.072 16.4014 26.0562 23.2837 0.832179 4.27005 76.8133
9332654 11.072 16.4014 26.0562 23.2837 0.832179 4.27005 76.8133
9332666 11.0016 16.3277 26.0463 23.3908 0.869745 4.31983 76.7664
9332671 11.028 16.3646 26.0955 23.3908 0.855854 4.31077 76.8789
9332682 11.028 16.3646 26.0955 23.3908 0.855854 4.31077 76.8789
9332692 11.0368 16.3277 26.1152 23.3421 0.819379 4.31378 76.8219
9332702 10.9751 16.383 26.0955 23.3811 0.876364 4.31807 76.8347
9332717 10.9751 16.383 26.0955 23.3811 0.876364 4.31807 76.8347
9332722 11.0192 16.383 26.0857 23.3616 0.858733 4.30292 76.8495
9332732 11.0192 16.383 26.0857 23.3616 0.858733 4.30292 76.8495
9332743 11.0192 16.3646 26.1054 23.3032 0.827938 4.30215 76.7923
9332752 10.9663 16.4935 26.0857 23.3129 0.895923 4.28166 76.8584
9332767 10.9663 16.4935 26.0857 23.3129 0.895923 4.28166 76.8584
9332772 10.9927 16.4198 26.066 23.3129 0.870529 4.29078 76.7915
9332782 11.0192 16.4475 25.9971 23.2837 0.884345 4.2635 76.7474
9332793 11.0192 16.4475 25.9971 23.2837 0.884345 4.2635 76.7474
9332802 11.0192 16.4567 26.1152 23.2447 0.83521 4.27225 76.8358
9332822 10.9663 16.4382 26.1251 23.2544 0.846952 4.29287 76.7841
9332832 11.0456 16.4475 26.1349 23.2544 0.819883 4.27204 76.8824
9332843 11.0456 16.4475 26.1349 23.2544 0.819883 4.27204 76.8824
9332852 11.0368 16.5027 26.0463 23.235 0.863877 4.24529 76.8208
9332867 11.0104 16.4475 26.0463 23.1375 0.824717 4.25213 76.6417
9332883 11.028 16.4751 26.0955 23.1765 0.823203 4.25313 76.7751
9332894 11.028 16.4382 26.0955 23.235 0.83001 4.27055 76.7967
9332903 11.028 16.4382 26.0955 23.235 0.83001 4.27055 76.7967
9332917 11.0544 16.5027 26.0759 23.235 0.848013 4.24501 76.8679
9332924 11.0544 16.5027 26.0759 23.235 0.848013 4.24501 76.8679
9332941 11.072 16.4751 26.1152 23.1473 0.792581 4.24076 76.8096
9332944 11.0368 16.4567 26.1349 23.157 0.795069 4.25833 76.7854
9332956 11.0368 16.4567 26.1349 23.157 0.795069 4.25833 76.7854
9332967 11.0984 16.5395 26.0955 23.0888 0.792214 4.20705 76.8224
9332976 11.0808 16.5119 26.0759 23.0499 0.783738 4.21013 76.7185
9332986 11.0808 16.5119 26.0759 23.0499 0.783738 4.21013 76.7185
9332996 11.1337 16.5488 26.0168 23.0401 0.794375 4.178 76.7393
9333015 11.1073 16.5395 26.0955 23.0791 0.786185 4.20348 76.8214
9333027 11.0808 16.5119 26.0759 23.0986 0.799105 4.21697 76.7672
9333037 11.0808 16.5119 26.0759 23.0986 0.799105 4.21697 76.7672
9333046 11.0368 16.5303 26.1054 23.0499 0.794429 4.2207 76.7224
9333057 11.0456 16.5119 26.1152 23.0888 0.794643 4.22996 76.7616
9333084 11.1073 16.6408 26.0562 23.0791 0.831294 4.17265 76.8833
9333087 11.1073 16.6408 26.0562 23.0791 0.831294 4.17265 76.8833
9333098 11.0544 16.6501 25.9873 23.0206 0.856778 4.16558 76.7123
9333108 11.1601 16.6316 25.9774 23.0206 0.818712 4.14241 76.7898
9333127 11.0808 16.6408 26.0562 22.9427 0.797224 4.16001 76.7205
9333137 11.1337 16.6132 26.1152 22.9719 0.760153 4.16617 76.834
9333148 11.1337 16.6132 26.1152 22.9719 0.760153 4.16617 76.834
9333158 11.1425 16.6961 26.0759 22.9817 0.799593 4.13914 76.8961
9333168 11.1601 16.6316 26.066 22.9135 0.755164 4.13978 76.7712
9333179 11.1601 16.6316 26.066 22.9135 0.755164 4.13978 76.7712
9333188 11.1425 16.6316 26.0365 22.9037 0.767913 4.13862 76.7143
9333208 11.1601 16.6132 26.0266 22.8745 0.750244 4.13328 76.6745
9333219 11.1601 16.5948 25.9676 22.855 0.7581 4.12674 76.5775
9333240 11.1337 16.7053 26.0463 22.8258 0.766218 4.11279 76.7111
9333248 11.1689 16.7053 26.0562 22.7771 0.735685 4.0985 76.7075
9333262 11.1689 16.6685 26.0562 22.7771 0.72403 4.10767 76.6706
9333268 11.1777 16.604 26.066 22.8258 0.712785 4.12986 76.6735
9333278 11.1777 16.604 26.066 22.8258 0.712785 4.12986 76.6735
9333289 11.1689 16.6132 26.066 22.8258 0.718656 4.12976 76.6739
9333299 11.1689 16.604 26.0955 22.9232 0.736657 4.15003 76.7917
9333310 11.1689 16.604 26.0955 22.9232 0.736657 4.15003 76.7917
9333319 11.2218 16.7145 26.1546 22.816 0.700262 4.10256 76.9069
9333335 11.2218 16.7145 26.1546 22.816 0.700262 4.10256 76.9069
9333339 11.1865 16.6501 26.0562 22.8063 0.721544 4.11202 76.6991
9333349 11.2218 16.6501 26.1546 22.7966 0.673708 4.11583 76.823
9333371 11.1865 16.6408 26.0857 22.7381 0.687113 4.10883 76.6512
9333379 11.2658 16.6869 26.0955 22.6212 0.634789 4.06239 76.6694
9333389 11.2658 16.6869 26.0955 22.6212 0.634789 4.06239 76.6694
9333402 11.3187 16.7237 26.1152 22.6602 0.634623 4.04848 76.8178
9333409 11.3187 16.7237 26.1152 22.6602 0.634623 4.04848 76.8178
9333424 11.2394 16.6869 26.1152 22.6407 0.643229 4.07454 76.6822
9333430 11.2394 16.7145 26.1251 22.6504 0.651801 4.07046 76.7294
9333439 11.2394 16.7145 26.1251 22.6504 0.651801 4.07046 76.7294
9333450 11.301 16.7145 26.1644 22.5822 0.59641 4.05104 76.7622
9333459 11.3098 16.7329 26.1546 22.6212 0.614986 4.04844 76.8186
9333469 11.3098 16.7329 26.1546 22.6212 0.614986 4.04844 76.8186
9333480 11.3715 16.7329 26.1743 22.5238 0.556925 4.02206 76.8025
9333492 11.3715 16.7329 26.1743 22.5238 0.556925 4.02206 76.8025
9333501 11.3715 16.6961 26.1546 22.4946 0.542435 4.0242 76.7168
9333516 11.3979 16.7514 26.194 22.5433 0.553647 4.01656 76.8865
9333520 11.3979 16.7514 26.194 22.5433 0.553647 4.01656 76.8865
9333531 11.3627 16.7053 26.1448 22.4458 0.536045 4.01571 76.6586
9333541 11.4332 16.6961 26.2334 22.4556 0.48334 4.01461 76.8182
9333562 11.4332 16.7329 26.194 22.4069 0.492617 3.99288 76.767
9333585 11.3891 16.6777 26.3023 22.3484 0.434947 4.02461 76.7175
9333594 11.4155 16.6593 26.2235 22.4653 0.483805 4.02808 76.7636
9333602 11.4155 16.6593 26.2235 22.4653 0.483805 4.02808 76.7636
9333612 11.4772 16.6869 26.194 22.3484 0.444594 3.98499 76.7065
9333622 11.4332 16.7053 26.253 22.3679 0.451744 4.0026 76.7594
9333634 11.4332 16.7053 26.253 22.3679 0.451744 4.0026 76.7594
9333643 11.4596 16.7606 26.2334 22.3095 0.448486 3.97119 76.763
9333654 11.4772 16.7145 26.2432 22.3289 0.430885 3.98242 76.7639
9333663 11.4772 16.7145 26.2432 22.3289 0.430885 3.98242 76.7639
9333675 11.5301 16.7421 26.2432 22.3095 0.415996 3.95974 76.8249
9333683 11.5301 16.7421 26.2432 22.3095 0.415996 3.95974 76.8249
9333693 11.4332 16.6869 26.1743 22.3679 0.471988 3.99587 76.6622
9333703 11.4596 16.7514 26.2038 22.4166 0.489569 3.9846 76.8314
9333721 11.4596 16.7514 26.2038 22.4166 0.489569 3.9846 76.8314
9333725 11.5124 16.7514 26.0857 22.3777 0.498801 3.94897 76.7271
9333733 11.442 16.6961 26.1054 22.3192 0.479326 3.97449 76.5627
9333754 11.486 16.7698 26.1152 22.4361 0.522295 3.96361 76.8071
9333774 11.4948 16.7514 26.0365 22.4458 0.54279 3.95605 76.7285
9333789 11.442 16.7698 26.0463 22.4751 0.572291 3.97018 76.7331
9333804 11.4332 16.8066 26.0168 22.4751 0.596797 3.95901 76.7316
9333817 11.4948 16.779 25.879 22.514 0.625834 3.93636 76.6668
9333835 11.4596 16.8434 25.9676 22.4751 0.616109 3.9363 76.7457
9333845 11.4596 16.8434 25.9676 22.4751 0.616109 3.9363 76.7457
9333856 11.4508 16.8434 25.9085 22.4556 0.632593 3.92714 76.6583
9333867 11.4244 16.825 25.8987 22.5335 0.663632 3.94804 76.6816
9333877 11.4244 16.825 25.8987 22.5335 0.663632 3.94804 76.6816
9333894 11.3891 16.8342 25.9774 22.5433 0.655091 3.96721 76.744
9333897 11.3979 16.8527 25.9085 22.5822 0.693387 3.95618 76.7413
9333909 11.3979 16.8527 25.9085 22.5822 0.693387 3.95618 76.7413
9333917 11.3891 16.8711 25.9184 22.6309 0.714281 3.96223 76.8095
9333927 11.4067 16.8527 25.879 22.6309 0.715742 3.95676 76.7693
9333947 11.3979 16.8158 25.938 22.592 0.674918 3.97093 76.7438
9333957 11.3979 16.8158 25.938 22.592 0.674918 3.97093 76.7438
9333969 11.3363 16.8158 25.8691 22.6212 0.727934 3.98048 76.6424
9333978 11.3187 16.7882 25.9085 22.592 0.702608 3.99315 76.6073
9333989 11.3187 16.7882 25.9085 22.592 0.702608 3.99315 76.6073
9333998 11.3979 16.8434 25.8888 22.6699 0.724807 3.96823 76.8001
9334008 11.3363 16.8987 25.8494 22.6309 0.763839 3.95855 76.7154
9334028 11.3451 16.8803 25.8593 22.6991 0.77329 3.97214 76.7838
9334038 11.3451 16.8803 25.8593 22.6991 0.77329 3.97214 76.7838
9334049 11.3451 16.8434 25.8494 22.6699 0.755733 3.97564 76.7079
9334058 11.3891 16.8803 25.8593 22.6407 0.740057 3.95286 76.7694
9334068 11.3891 16.8803 25.8593 22.6407 0.740057 3.95286 76.7694
9334079 11.3979 16.9355 25.8987 22.6017 0.72906 3.93712 76.8338
9334102 11.3627 16.8803 25.8199 22.6115 0.752902 3.94951 76.6744
9334115 11.3627 16.9355 25.8494 22.553 0.741976 3.93169 76.7007
9334119 11.3627 16.9355 25.8494 22.553 0.741976 3.93169 76.7007
9334129 11.3275 16.8527 25.8593 22.6797 0.764331 3.98053 76.7191
9334141 11.3803 16.8711 25.8691 22.6894 0.752187 3.96573 76.8099
9334166 11.4067 16.8619 25.8888 22.7381 0.749204 3.9713 76.8955
9334169 11.301 16.8711 25.8593 22.7186 0.791323 3.9881 76.75
9334179 11.301 16.8711 25.8593 22.7186 0.791323 3.9881 76.75
9334191 11.3451 16.8434 25.938 22.7771 0.759849 4.0037 76.9036
9334216 11.3098 16.7698 25.8888 22.6894 0.737205 4.01106 76.6578
9334221 11.2658 16.8158 25.9085 22.7576 0.781485 4.02315 76.7477
9334242 11.2834 16.7882 25.8888 22.6797 0.748828 4.01165 76.6401
9334252 11.2482 16.779 25.8888 22.7186 0.77008 4.02826 76.6346
9334266 11.2482 16.779 25.8888 22.7186 0.77008 4.02826 76.6346
9334272 11.301 16.7974 25.8888 22.7673 0.773528 4.01756 76.7546
9334282 11.301 16.7974 25.8888 22.7673 0.773528 4.01756 76.7546
9334316 11.2658 16.825 25.8888 22.7479 0.787932 4.01665 76.7275
9334318 11.2394 16.7606 26.0069 22.7479 0.736794 4.05607 76.7547
9334322 11.2746 16.8527 25.9577 22.7673 0.776699 4.02027 76.8523
9334341 11.257 16.8711 25.9577 22.7576 0.785345 4.01868 76.8434
9334343 11.257 16.8711 25.9577 22.7576 0.785345 4.01868 76.8434
9334366 11.2834 16.8895 25.9282 22.7576 0.792187 4.00336 76.8587
9334368 11.2834 16.8895 25.9282 22.7576 0.792187 4.00336 76.8587
9334373 11.3451 16.8895 25.9282 22.7479 0.768447 3.98674 76.9106
9334390 11.3275 16.8803 25.8987 22.6699 0.756764 3.97795 76.7763
9334403 11.301 16.8619 25.8396 22.6212 0.764263 3.97356 76.6237
9334416 11.3627 16.8342 25.8691 22.6309 0.727975 3.97079 76.697
9334423 11.3627 16.8342 25.8691 22.6309 0.727975 3.97079 76.697
9334441 11.3715 16.8895 25.879 22.6602 0.748426 3.96057 76.8001
9334444 11.3715 16.8895 25.879 22.6602 0.748426 3.96057 76.8001
9334453 11.3451 16.8895 25.879 22.6504 0.754213 3.9657 76.764
9334465 11.2746 16.8803 25.9282 22.6797 0.767666 3.99666 76.7627
9334473 11.2746 16.8803 25.9282 22.6797 0.767666 3.99666 76.7627
9334483 11.2658 16.8895 25.8987 22.6699 0.780374 3.99092 76.7239
9334495 11.2658 16.9079 25.938 22.7186 0.788322 3.99899 76.8304
9334503 11.2658 16.9079 25.938 22.7186 0.788322 3.99899 76.8304
9334517 11.301 16.8434 25.9184 22.7284 0.765851 4.0048 76.7912
9334523 11.301 16.8434 25.9184 22.7284 0.765851 4.0048 76.7912
9334533 11.2394 16.7882 25.9184 22.7381 0.772181 4.03517 76.684
9334545 11.2306 16.7882 26.0266 22.7576 0.744951 4.0556 76.803
9334553 11.2306 16.7882 26.0266 22.7576 0.744951 4.0556 76.803
9334563 11.1601 16.7514 26.0266 22.7868 0.766191 4.08642 76.7249
9334574 11.1953 16.7237 25.938 22.816 0.784627 4.07607 76.6731
9334583 11.1953 16.7237 25.938 22.816 0.784627 4.07607 76.6731
9334595 11.1601 16.7606 26.0955 22.8842 0.776708 4.10774 76.9004
9334603 11.1601 16.7606 26.0955 22.8842 0.776708 4.10774 76.9004
9334617 11.2041 16.7329 26.066 22.894 0.766209 4.10085 76.8971
9334623 11.1689 16.7145 26.0955 22.8648 0.753093 4.11423 76.8437
9334633 11.1689 16.7145 26.0955 22.8648 0.753093 4.11423 76.8437
9334643 11.1513 16.7237 26.0266 22.9135 0.800383 4.11346 76.8151
9334664 11.1337 16.6501 26.0266 22.8453 0.761527 4.12654 76.6556
9334673 11.1777 16.6408 26.0562 22.9622 0.770828 4.13859 76.8369
9334683 11.1777 16.6408 26.0562 22.9622 0.770828 4.13859 76.8369
9334694 11.0984 16.604 26.0562 23.0011 0.798121 4.17306 76.7598
9334709 11.0368 16.5488 26.1054 23.0304 0.794092 4.21334 76.7213
9334724 11.072 16.5303 26.1448 23.0401 0.766295 4.21604 76.7872
9334734 11.028 16.4659 26.1349 23.0986 0.78249 4.25004 76.7273
9334744 11.028 16.4659 26.1349 23.0986 0.78249 4.25004 76.7273
9334755 11.0104 16.4751 26.2038 23.1862 0.795814 4.27404 76.8755
9334765 11.0104 16.4751 26.2038 23.1862 0.795814 4.27404 76.8755
9334778 11.0016 16.4106 26.253 23.1765 0.758871 4.29793 76.8417
9334785 10.9927 16.5119 26.253 23.1375 0.781474 4.2693 76.8952
9334805 10.9663 16.4567 26.3121 23.2155 0.777677 4.30886 76.9506
9334815 10.9223 16.3369 26.3219 23.1765 0.739089 4.34599 76.7577
9334827 10.9223 16.3369 26.3219 23.1765 0.739089 4.34599 76.7577
9334837 10.9575 16.3369 26.3909 23.1278 0.688806 4.33992 76.8131
9334848 10.9575 16.3369 26.3909 23.1278 0.688806 4.33992 76.8131
9334857 10.9311 16.3277 26.4302 23.1668 0.693893 4.35975 76.8558
9334867 10.9487 16.3185 26.5385 23.2057 0.661281 4.37799 77.0115
9334877 10.9487 16.3185 26.5385 23.2057 0.661281 4.37799 77.0115
9334889 10.887 16.2449 26.5188 23.2155 0.668192 4.41073 76.8662
9334897 10.8694 16.2725 26.6074 23.235 0.659421 4.42307 76.9843
9334919 10.8606 16.3001 26.6074 23.1668 0.649524 4.40894 76.9349
9334928 10.8606 16.3001 26.6074 23.1668 0.649524 4.40894 76.9349
9334938 10.8254 16.2633 26.5877 23.1862 0.662351 4.42711 76.8626
9334949 10.8166 16.1896 26.6074 23.2252 0.64773 4.45604 76.8388
9334958 10.8166 16.1896 26.6074 23.2252 0.64773 4.45604 76.8388
9334968 10.7461 16.2356 26.5976 23.2252 0.689146 4.46087 76.8045
9334983 10.7373 16.2264 26.6173 23.2544 0.69184 4.47215 76.8354
9334992 10.7373 16.2264 26.6173 23.2544 0.69184 4.47215 76.8354
9335003 10.6933 16.2172 26.6566 23.2837 0.699732 4.49504 76.8508
9335010 10.6492 16.1436 26.6665 23.4006 0.72484 4.54222 76.8598
9335029 10.658 16.0975 26.6862 23.4395 0.713065 4.55966 76.8812
9335039 10.658 16.0975 26.6862 23.4395 0.713065 4.55966 76.8812
9335050 10.614 16.0423 26.7058 23.4493 0.706831 4.58895 76.8114
9335059 10.6228 16.0791 26.7551 23.5662 0.73595 4.59979 77.0231
9335071 10.6228 16.0791 26.7551 23.5662 0.73595 4.59979 77.0231
9335079 10.5435 16.0699 26.7944 23.5272 0.734106 4.62239 76.9351
9335095 10.4995 16.0699 26.9421 23.5564 0.708711 4.65742 77.0679
9335099 10.4995 15.987 26.9421 23.5564 0.682557 4.67858 76.985
9335127 10.4995 15.9594 26.883 23.6928 0.736579 4.696 77.0347
9335136 10.4642 15.9686 26.9027 23.6246 0.723186 4.69617 76.9602
9335139 10.4642 15.9502 26.9323 23.5759 0.692123 4.69832 76.9226
9335162 10.4466 15.941 26.9815 23.537 0.666338 4.70656 76.906
9335171 10.4466 15.941 26.9815 23.537 0.666338 4.70656 76.906
9335186 10.3938 15.8397 27.139 23.5077 0.590086 4.76325 76.8801
9335191 10.3938 15.8581 27.1193 23.5564 0.617936 4.76238 76.9276
9335213 10.3938 15.8212 27.1783 23.4883 0.564945 4.77063 76.8816
9335221 10.385 15.766 27.1783 23.4688 0.544101 4.78453 76.7981
9335238 10.385 15.766 27.1783 23.4688 0.544101 4.78453 76.7981
9335241 10.3674 15.7384 27.2669 23.4785 0.514814 4.80924 76.8512
9335251 10.3674 15.7384 27.2669 23.4785 0.514814 4.80924 76.8512
9335265 10.3145 15.6923 27.2472 23.498 0.530455 4.83474 76.7521
9335271 10.3674 15.7844 27.2669 23.4785 0.529477 4.79738 76.8972
9335292 10.3585 15.766 27.2965 23.4688 0.513634 4.80702 76.8898
9335302 10.3938 15.7844 27.2669 23.498 0.526908 4.79317 76.9431
9335322 10.3585 15.7568 27.2177 23.5077 0.549266 4.80412 76.8408
9335343 10.3409 15.8673 27.1291 23.5272 0.625917 4.77102 76.8646
9335352 10.3145 15.8857 27.0996 23.6246 0.681266 4.7821 76.9244
9335367 10.3145 15.8857 27.0996 23.6246 0.681266 4.7821 76.9244
9335373 10.3497 15.8857 27.0307 23.6052 0.68635 4.76129 76.8713
9335383 10.3145 15.9317 26.9913 23.6636 0.74431 4.76105 76.9012
9335395 10.3145 15.9317 26.9913 23.6636 0.74431 4.76105 76.9012
9335403 10.3497 15.9686 26.9126 23.6831 0.776634 4.73464 76.914
9335417 10.3497 15.9686 26.9126 23.6831 0.776634 4.73464 76.914
9335423 10.2969 16.0146 26.8141 23.7123 0.851116 4.72714 76.838
9335441 10.3762 16.0515 26.7551 23.7221 0.858951 4.69077 76.9048
9335444 10.3762 16.0515 26.7551 23.7221 0.858951 4.69077 76.9048
9335453 10.4114 16.0423 26.7452 23.6928 0.838345 4.67887 76.8917
9335466 10.3585 16.0699 26.5976 23.6831 0.911516 4.66416 76.7091
9335473 10.3585 16.0699 26.5976 23.6831 0.911516 4.66416 76.7091
9335491 10.429 16.208 26.5483 23.7318 0.962874 4.61076 76.9172
9335503 10.4202 16.1988 26.4794 23.6441 0.958818 4.59417 76.7426
9335517 10.4642 16.2817 26.4105 23.6246 0.987074 4.5498 76.7811
9335532 10.4642 16.2817 26.4105 23.6246 0.987074 4.5498 76.7811
9335534 10.4995 16.3369 26.4007 23.6344 0.998795 4.52677 76.8715
9335545 10.5171 16.3185 26.3023 23.6149 1.01432 4.51089 76.7528
9335554 10.5171 16.3185 26.3023 23.6149 1.01432 4.51089 76.7528
9335571 10.5699 16.4475 26.2235 23.5759 1.05118 4.44864 76.8168
9335584 10.5964 16.4659 26.1743 23.5759 1.06465 4.43052 76.8125
9335596 10.658 16.5856 26.0955 23.537 1.09558 4.3685 76.8761
9335623 10.6404 16.5856 26.0168 23.5467 1.13137 4.36339 76.7895
9335638 10.7021 16.5948 25.9873 23.5662 1.12935 4.34414 76.8503
9335639 10.7021 16.5948 25.9873 23.5662 1.12935 4.34414 76.8503
9335649 10.6845 16.7237 25.879 23.5662 1.21221 4.30111 76.8533
9335654 10.799 16.7237 25.8691 23.5662 1.17656 4.27102 76.958
9335666 10.799 16.7145 25.8691 23.537 1.16465 4.26925 76.9196
9335678 10.7902 16.7329 25.9282 23.498 1.1412 4.26965 76.9493
9335700 10.7725 16.7514 25.8101 23.459 1.18102 4.2475 76.793
9335706 10.7813 16.7698 25.8298 23.4493 1.174 4.24207 76.8302
9335716 10.7813 16.7698 25.8298 23.4493 1.174 4.24207 76.8302
9335739 10.799 16.7606 25.7609 23.4201 1.17956 4.2262 76.7404
9335743 10.8166 16.8066 25.8494 23.4006 1.15162 4.21997 76.8732
9335749 10.8166 16.8066 25.8494 23.4006 1.15162 4.21997 76.8732
9335758 10.8606 16.825 25.879 23.3032 1.10208 4.19483 76.8678
9335778 10.8078 16.7974 25.8101 23.3032 1.1349 4.20526 76.7184
9335789 10.887 16.8066 25.8199 23.2544 1.09228 4.17766 76.768
9335798 10.887 16.8066 25.8199 23.2544 1.09228 4.17766 76.768
9335808 10.9135 16.8342 25.8494 23.2155 1.06974 4.16283 76.8126
9335818 10.9223 16.8434 25.8199 23.196 1.07358 4.15142 76.7816
9335828 10.9223 16.8434 25.8199 23.196 1.07358 4.15142 76.7816
9335843 10.9663 16.8619 25.879 23.1181 1.02005 4.13318 76.8252
9335865 10.9399 16.8619 25.751 23.1083 1.0694 4.12026 76.6611
9335869 10.9135 16.8342 25.879 23.1083 1.02629 4.15187 76.735
9335879 10.9135 16.8342 25.879 23.1083 1.02629 4.15187 76.735
9335890 10.9399 16.8158 25.8494 23.1181 1.02463 4.14707 76.7232
9335899 10.9399 16.8066 25.8298 23.1862 1.04973 4.15623 76.7625
9335919 11.0104 16.8158 25.7805 23.1083 1.02106 4.11836 76.715
9335935 11.0016 16.8066 25.938 23.1473 0.980023 4.15064 76.8935
9335941 11.0016 16.8066 25.938 23.1473 0.980023 4.15064 76.8935
9335951 11.0632 16.7882 25.879 23.1083 0.961205 4.12602 76.8387
9335961 11.0632 16.7882 25.879 23.1083 0.961205 4.12602 76.8387
9335971 11.0456 16.7698 25.7805 23.0888 0.988612 4.11829 76.6847
9335981 11.072 16.825 25.8593 23.1862 1.00074 4.12291 76.9426
9335993 11.072 16.825 25.8593 23.1862 1.00074 4.12291 76.9426
9336003 11.0808 16.8619 25.8987 23.1083 0.971633 4.10612 76.9497
9336011 11.0544 16.8619 25.9184 23.0888 0.967824 4.11271 76.9234
9336021 11.0544 16.7606 25.9184 23.0888 0.936133 4.13791 76.8221
9336031 11.0896 16.8066 25.9479 23.0791 0.925651 4.12048 76.9232
9336042 11.0896 16.8066 25.9479 23.0791 0.925651 4.12048 76.9232
9336052 11.0456 16.8066 25.9184 23.0401 0.938272 4.12175 76.8107
9336062 11.0456 16.7974 25.9774 23.0304 0.912407 4.13102 76.8508
9336082 11.1249 16.7514 25.9184 22.933 0.860536 4.10056 76.7275
9336093 11.1425 16.7882 25.9676 22.9037 0.840425 4.08986 76.802
9336102 11.1425 16.7882 25.9676 22.9037 0.840425 4.08986 76.802
9336117 11.1601 16.8158 26.066 22.9037 0.810128 4.09259 76.9457
9336122 11.1601 16.8158 26.066 22.9037 0.810128 4.09259 76.9457
9336141 11.1865 16.7698 26.0266 22.855 0.784644 4.08496 76.838
9336143 11.1337 16.7974 26.0365 22.8258 0.79858 4.08848 76.7934
9336153 11.1337 16.7974 26.0365 22.8258 0.79858 4.08848 76.7934
9336163 11.2041 16.7974 25.9479 22.7089 0.767773 4.04168 76.6583
9336173 11.213 16.8158 26.0365 22.6991 0.737819 4.04618 76.7644
9336187 11.213 16.8158 26.0365 22.6991 0.737819 4.04618 76.7644
9336193 11.1777 16.8066 25.9577 22.6407 0.754687 4.03761 76.5827
9336203 11.1777 16.8066 25.9577 22.6407 0.754687 4.03761 76.5827
9336214 11.2218 16.779 25.9873 22.6309 0.718135 4.03636 76.6189
9336223 11.213 16.8158 26.0463 22.6115 0.706774 4.03507 76.6866
9336243 11.2746 16.7514 25.9971 22.5725 0.669792 4.02314 76.5956
9336258 11.257 16.8895 26.0266 22.6115 0.721931 4.00307 76.7846
9336263 11.257 16.8895 26.0266 22.6115 0.721931 4.00307 76.7846
9336282 11.301 16.7698 26.066 22.6602 0.671542 4.03441 76.797
9336284 11.301 16.7698 26.066 22.6602 0.671542 4.03441 76.797
9336294 11.2218 16.7698 26.0562 22.6212 0.689018 4.04711 76.6689
9336305 11.3187 16.7974 26.066 22.6602 0.674406 4.0232 76.8422
9336314 11.3187 16.7974 26.066 22.6602 0.674406 4.0232 76.8422
9336329 11.3187 16.825 26.066 22.5725 0.65538 4.00382 76.7822
9336334 11.301 16.8066 25.9774 22.592 0.691253 4.00284 76.677
9336344 11.301 16.8066 25.9774 22.592 0.691253 4.00284 76.677
9336354 11.3275 16.8527 25.8987 22.6894 0.754195 3.98758 76.7682
9336366 11.3275 16.8527 25.8987 22.6894 0.754195 3.98758 76.7682
9336376 11.257 16.8987 25.8494 22.7089 0.815085 3.98936 76.714
9336385 11.3715 16.9447 25.7904 22.6504 0.79253 3.93278 76.7571
9336401 11.3715 16.9447 25.7904 22.6504 0.79253 3.93278 76.7571
9336406 11.2834 16.954 25.7412 22.6504 0.841653 3.94516 76.629
9336415 11.3098 16.9724 25.7412 22.6797 0.847757 3.93829 76.703
9336435 11.3539 16.9816 25.7215 22.7673 0.870019 3.93496 76.8243
9336446 11.3539 16.9816 25.7215 22.7673 0.870019 3.93496 76.8243
9336455 11.2658 17 25.751 22.6699 0.864911 3.94236 76.6867
9336468 11.301 17.0389 25.7313 22.6991 0.881094 3.92544 76.7704
9336476 11.301 17.0389 25.7313 22.6991 0.881094 3.92544 76.7704
9336486 11.3539 17.0778 25.6526 22.6797 0.895929 3.88865 76.7639
9336496 11.3451 17.0389 25.6723 22.6699 0.876975 3.90184 76.7262
9336506 11.3451 17.0389 25.6723 22.6699 0.876975 3.90184 76.7262
9336516 11.3627 17.0486 25.6329 22.6602 0.884309 3.88799 76.7044
9336526 11.3627 17.0486 25.6329 22.6602 0.884309 3.88799 76.7044
9336537 11.3451 17.0389 25.6427 22.6115 0.86855 3.8891 76.6382
9336560 11.3715 17.0973 25.6329 22.6991 0.908846 3.87951 76.8008
9336567 11.3715 17.107 25.5738 22.592 0.898182 3.85299 76.6443
9336577 11.3715 17.1264 25.5837 22.5433 0.885653 3.84255 76.6249
9336587 11.3715 17.1264 25.5837 22.5433 0.885653 3.84255 76.6249
9336597 11.4155 17.1653 25.6526 22.5433 0.859788 3.83221 76.7767
9336607 11.4155 17.1653 25.6526 22.5433 0.859788 3.83221 76.7767
9336617 11.3803 17.0973 25.6526 22.514 0.84103 3.85334 76.6442
9336628 11.4155 17.1751 25.6821 22.4653 0.828382 3.82278 76.738
9336637 11.4155 17.1751 25.6821 22.4653 0.828382 3.82278 76.738
9336649 11.4155 17.214 25.6132 22.3971 0.842363 3.79323 76.6398
9336657 11.4155 17.214 25.6132 22.3971 0.842363 3.79323 76.6398
9336667 11.4684 17.1459 25.6132 22.4458 0.818449 3.80408 76.6733
9336677 11.5212 17.2431 25.5246 22.4458 0.861123 3.75437 76.7348
9336687 11.5212 17.2431 25.5246 22.4458 0.861123 3.75437 76.7348
9336697 11.4948 17.214 25.4754 22.4946 0.892785 3.7679 76.6787
9336707 11.4948 17.2237 25.436 22.4556 0.896892 3.75403 76.6101
9336727 11.5741 17.2431 25.4754 22.514 0.881335 3.74425 76.8067
9336743 11.5741 17.2431 25.4754 22.514 0.881335 3.74425 76.8067
9336747 11.5124 17.2918 25.4852 22.4946 0.907955 3.74602 76.784
9336757 11.5565 17.2237 25.5049 22.5335 0.877333 3.76047 76.8186
9336768 11.5565 17.2237 25.5049 22.5335 0.877333 3.76047 76.8186
9336778 11.5829 17.2334 25.4852 22.4848 0.86281 3.74163 76.7864
9336790 11.5124 17.1653 25.5049 22.4653 0.85237 3.77554 76.648
9336798 11.5124 17.1653 25.5049 22.4653 0.85237 3.77554 76.648
9336812 11.6181 17.1653 25.5443 22.4653 0.803533 3.75545 76.7931
9336818 11.5477 17.1653 25.5935 22.4361 0.801462 3.7756 76.7426
9336828 11.5477 17.1653 25.5935 22.4361 0.801462 3.7756 76.7426
9336839 11.5565 17.1653 25.564 22.4751 0.820711 3.77482 76.7609
9336860 11.5741 17.107 25.6624 22.4264 0.747961 3.79206 76.7699
9336869 11.5389 17.0292 25.6723 22.3777 0.716448 3.8141 76.618
9336880 11.5389 17.0292 25.6723 22.3777 0.716448 3.8141 76.618
9336889 11.6093 17.1362 25.6624 22.3679 0.726894 3.76776 76.7758
9336903 11.6181 17.107 25.6821 22.2997 0.686526 3.76564 76.7069
9336919 11.6622 17.1362 25.692 22.3387 0.690076 3.75489 76.829
9336949 11.6005 17.0486 25.6821 22.2997 0.673917 3.78424 76.631
9336951 11.6622 17.107 25.6034 22.2607 0.685796 3.7376 76.6333
9336970 11.6269 17.0778 25.6723 22.3192 0.683799 3.77203 76.6962
9336993 11.6093 17.0486 25.7018 22.2607 0.651994 3.77926 76.6205
9336999 11.671 17.1167 25.6723 22.2315 0.653586 3.7389 76.6915
9337009 11.671 17.1167 25.6723 22.2315 0.653586 3.7389 76.6915
9337019 11.6446 17.0973 25.6329 22.212 0.663248 3.74147 76.5867
9337029 11.6974 17.107 25.6132 22.2315 0.661418 3.72614 76.6491
9337049 11.7326 17.1556 25.6132 22.2315 0.665057 3.70567 76.733
9337060 11.7326 17.1556 25.6132 22.2315 0.665057 3.70567 76.733
9337069 11.7238 17.1167 25.6329 22.2705 0.661445 3.72593 76.7439
9337081 11.7415 17.1751 25.6723 22.3095 0.673229 3.71892 76.8982
9337089 11.7415 17.1751 25.6723 22.3095 0.673229 3.71892 76.8982
9337103 11.7415 17.1653 25.6034 22.2802 0.683925 3.70687 76.7904
9337109 11.7943 17.1556 25.6034 22.1438 0.619903 3.67627 76.6971
9337119 11.7943 17.1556 25.6034 22.1438 0.619903 3.67627 76.6971
9337129 11.7767 17.1653 25.5837 22.0951 0.619969 3.66809 76.6208
9337146 11.7767 17.1653 25.5837 22.0951 0.619969 3.66809 76.6208
9337151 11.8383 17.1362 25.5246 22.0756 0.603607 3.64854 76.5748
9337176 11.7503 17.1556 25.5443 21.9685 0.598523 3.6523 76.4186
9337177 11.7503 17.1556 25.5443 21.9685 0.598523 3.6523 76.4186
9337181 11.8736 17.1362 25.5345 21.9782 0.557467 3.62697 76.5224
9337198 11.8648 17.1751 25.5738 21.949 0.550351 3.62115 76.5627
9337200 11.8648 17.1751 25.5738 21.949 0.550351 3.62115 76.5627
9337212 11.9176 17.1459 25.623 21.9198 0.497669 3.61837 76.6063
9337225 11.9176 17.1459 25.623 21.9198 0.497669 3.61837 76.6063
9337232 11.9264 17.1362 25.5935 21.9003 0.495225 3.6113 76.5564
9337250 11.9617 17.2334 25.6526 21.8321 0.47316 3.57779 76.6797
9337253 11.9617 17.2334 25.6526 21.8321 0.47316 3.57779 76.6797
9337262 11.9969 17.2431 25.5935 21.8808 0.499755 3.56536 76.7143
9337277 12.0321 17.3112 25.6526 21.8905 0.493279 3.55065 76.8865
9337282 12.0321 17.3112 25.6526 21.8905 0.493279 3.55065 76.8865
9337292 12.0145 17.3015 25.6526 21.8223 0.474259 3.54709 76.7909
9337304 12.0145 17.3015 25.6526 21.8223 0.474259 3.54709 76.7909
9337312 12.0409 17.282 25.623 21.7834 0.456616 3.53517 76.7294
9337328 12.0585 17.2918 25.564 21.7054 0.44854 3.50806 76.6197
9337332 12.0585 17.2918 25.564 21.7054 0.44854 3.50806 76.6197
9337342 12.085 17.2918 25.4852 21.7347 0.47529 3.49424 76.5966
9337355 12.0585 17.3404 25.4951 21.6957 0.483897 3.48451 76.5897
9337365 12.0585 17.3404 25.4951 21.6957 0.483897 3.48451 76.5897
9337380 12.0674 17.3793 25.5246 21.7444 0.499162 3.48476 76.7157
9337382 12.0674 17.3793 25.5246 21.7444 0.499162 3.48476 76.7157
9337392 12.085 17.3015 25.4951 21.686 0.459528 3.48606 76.5675
9337405 12.1026 17.3112 25.5541 21.6665 0.43093 3.48541 76.6344
9337426 12.1202 17.3793 25.5345 21.7736 0.487673 3.4779 76.8076
9337432 12.1378 17.3209 25.5148 21.6275 0.422922 3.46278 76.601
9337442 12.1378 17.3209 25.5148 21.6275 0.422922 3.46278 76.601
9337454 12.1731 17.3598 25.5049 21.7054 0.451931 3.45518 76.7433
9337473 12.1026 17.3987 25.4951 21.6178 0.462982 3.44809 76.6142
9337483 12.1642 17.3696 25.5049 21.6567 0.442377 3.44763 76.6955
9337496 12.1642 17.3696 25.5049 21.6567 0.442377 3.44763 76.6955
9337504 12.1642 17.4085 25.436 21.5983 0.458995 3.41906 76.607
9337514 12.1554 17.4085 25.4852 21.608 0.448689 3.43008 76.6572
9337541 12.1819 17.3987 25.4754 21.5788 0.430706 3.42017 76.6348
9337558 12.1819 17.3987 25.4754 21.5788 0.430706 3.42017 76.6348
9337562 12.1466 17.3987 25.4754 21.5009 0.41739 3.41685 76.5216
9337570 12.1907 17.4085 25.4655 21.5203 0.415415 3.40538 76.585
9337574 12.1907 17.4085 25.4655 21.5203 0.415415 3.40538 76.585
9337586 12.1819 17.4376 25.4262 21.4716 0.425145 3.38713 76.5173
9337596 12.2171 17.4765 25.4459 21.4814 0.422522 3.3738 76.6209
9337606 12.2171 17.4765 25.4459 21.4814 0.422522 3.3738 76.6209
9337618 12.2788 17.5543 25.4163 21.5009 0.443035 3.3389 76.7503
9337626 12.2788 17.5543 25.4163 21.5009 0.443035 3.3389 76.7503
9337635 12.2611 17.5543 25.377 21.4424 0.443226 3.32823 76.6348
9337645 12.3052 17.5933 25.2982 21.4521 0.470331 3.29788 76.6488
9337656 12.3052 17.5933 25.2982 21.4521 0.470331 3.29788 76.6488
9337667 12.2964 17.6322 25.3573 21.4424 0.46297 3.29823 76.7282
9337675 12.2876 17.6322 25.2293 21.3645 0.483495 3.26885 76.5135
9337690 12.2876 17.6322 25.2293 21.3645 0.483495 3.26885 76.5135
9337695 12.3404 17.6322 25.2982 21.3255 0.430515 3.26083 76.5963
9337705 12.3404 17.6322 25.2982 21.3255 0.430515 3.26083 76.5963
9337717 12.2876 17.6322 25.2195 21.345 0.480527 3.26435 76.4842
9337727 12.3052 17.6127 25.2293 21.267 0.440121 3.25433 76.4142
9337747 12.3228 17.6419 25.1801 21.3547 0.48815 3.24907 76.4995
9337762 12.358 17.6516 25.1998 21.3547 0.472981 3.24137 76.5641
9337769 12.358 17.6516 25.1998 21.3547 0.472981 3.24137 76.5641
9337778 12.358 17.71 25.1309 21.2768 0.489649 3.20488 76.4756
9337788 12.3404 17.6711 25.1899 21.384 0.497705 3.24391 76.5853
9337809 12.3668 17.7002 25.1702 21.384 0.504789 3.22765 76.6213
9337818 12.3668 17.7002 25.1702 21.384 0.504789 3.22765 76.6213
9337830 12.3228 17.7197 25.1899 21.4132 0.528449 3.24101 76.6456
9337838 12.314 17.7489 25.1702 21.4424 0.556576 3.23763 76.6755
9337859 12.3492 17.7586 25.1604 21.384 0.532573 3.21645 76.6521
9337875 12.3492 17.7391 25.1899 21.3937 0.519642 3.22711 76.672
9337889 12.3228 17.7002 25.0915 21.3937 0.548843 3.22753 76.5082
9337899 12.3228 17.7002 25.0915 21.3937 0.548843 3.22753 76.5082
9337909 12.3316 17.7489 25.0915 21.4132 0.567651 3.21685 76.5851
9337919 12.3668 17.7489 25.0226 21.4911 0.603735 3.20987 76.6294
9337943 12.3316 17.8461 25.0127 21.4424 0.634247 3.18612 76.6329
9337949 12.3845 17.8364 25.0226 21.384 0.591594 3.16839 76.6274
9337971 12.3228 17.7878 24.9832 21.5009 0.647113 3.20653 76.5946
9337994 12.3228 17.7878 24.9832 21.5009 0.647113 3.20653 76.5946
9337995 12.3316 17.778 24.9931 21.4911 0.634676 3.20676 76.5938
9338000 12.3228 17.8364 25.0324 21.4619 0.633714 3.19655 76.6535
9338010 12.3228 17.8364 25.0324 21.4619 0.633714 3.19655 76.6535
9338020 12.3228 17.7586 25.0127 21.4814 0.621745 3.21501 76.5755
9338032 12.314 17.8461 24.8946 21.5009 0.698304 3.1811 76.5556
9338042 12.314 17.8461 24.8946 21.5009 0.698304 3.1811 76.5556
9338052 12.3492 17.885 24.9635 21.5398 0.688094 3.18015 76.7376
9338072 12.3052 17.8558 24.9635 21.5398 0.693595 3.19751 76.6644
9338083 12.3316 17.9045 24.9931 21.6275 0.717995 3.19774 76.8566
9338092 12.3316 17.9045 24.9931 21.6275 0.717995 3.19774 76.8566
9338102 12.3052 17.8656 24.9045 21.5691 0.725749 3.1906 76.6443
9338112 12.2611 17.9142 24.8848 21.4911 0.73787 3.17446 76.5512
9338122 12.2611 17.9142 24.8848 21.4911 0.73787 3.17446 76.5512
9338132 12.3492 17.9142 24.8552 21.4716 0.712022 3.14599 76.5903
9338142 12.3492 17.9142 24.8552 21.4716 0.712022 3.14599 76.5903
9338158 12.3228 17.8169 24.8946 21.4229 0.661296 3.17389 76.4573
9338163 12.3492 17.8558 24.934 21.4716 0.667089 3.17199 76.6107
9338172 12.3492 17.8558 24.934 21.4716 0.667089 3.17199 76.6107
9338193 12.314 17.8169 24.934 21.4327 0.654143 3.18358 76.4976
9338199 12.2876 17.8656 24.8848 21.4814 0.710475 3.17822 76.5193
9338212 12.2876 17.8656 24.8848 21.4814 0.710475 3.17822 76.5193
9338219 12.3316 17.8656 24.8946 21.5106 0.701654 3.1738 76.6024
9338239 12.3316 17.8656 24.8946 21.5106 0.701654 3.1738 76.6024
9338241 12.2876 17.7683 24.934 21.5203 0.675431 3.21495 76.5102
9338243 12.3052 17.7975 24.9635 21.4911 0.659603 3.20387 76.5573
9338253 12.3052 17.7975 24.9635 21.4911 0.659603 3.20387 76.5573
9338265 12.3052 17.7683 25.0324 21.5983 0.661302 3.23787 76.7042
9338273 12.3052 17.7683 24.9931 21.5983 0.67448 3.23183 76.6648
9338292 12.3052 17.7683 24.9931 21.5983 0.67448 3.23183 76.6648
9338296 12.2788 17.8656 25.0423 21.6372 0.709993 3.22853 76.8238
9338304 12.2523 17.7489 25.0127 21.6372 0.691783 3.25803 76.6512
9338319 12.2523 17.7489 25.0127 21.6372 0.691783 3.25803 76.6512
9338325 12.2259 17.7391 24.9537 21.6665 0.726649 3.26208 76.5852
9338334 12.2259 17.7391 24.9537 21.6665 0.726649 3.26208 76.5852
9338346 12.1466 17.7002 24.9931 21.7054 0.740081 3.30228 76.5454
9338356 12.1819 17.7002 25.0521 21.7736 0.730008 3.31328 76.7078
9338365 12.1819 17.7002 25.0521 21.7736 0.730008 3.31328 76.7078
9338376 12.1731 17.7197 25.0521 21.7834 0.742194 3.31223 76.7282
9338392 12.1642 17.6127 25.062 21.7736 0.704888 3.33992 76.6125
9338396 12.1642 17.6127 25.062 21.7736 0.704888 3.33992 76.6125
9338410 12.1466 17.6808 25.0915 21.8223 0.737873 3.33975 76.7412
9338425 12.0674 17.6127 25.0029 21.8516 0.782007 3.36601 76.5345
9338435 12.129 17.6224 25.0226 21.9685 0.794637 3.36964 76.7425
9338445 12.129 17.6224 25.0226 21.9685 0.794637 3.36964 76.7425
9338457 12.1114 17.6127 24.9832 21.8321 0.767639 3.34949 76.5394
9338467 12.0585 17.5738 25.0324 21.8029 0.747272 3.37455 76.4676
9338477 12.0585 17.5738 25.0324 21.8029 0.747272 3.37455 76.4676
9338487 12.1202 17.5738 25.0423 21.9003 0.754082 3.37604 76.6366
9338507 12.0409 17.5835 25.0521 21.91 0.783592 3.3957 76.5866
9338518 12.0938 17.6127 25.0915 21.8711 0.749484 3.37608 76.669
9338527 12.0938 17.6127 25.0915 21.8711 0.749484 3.37608 76.669
9338540 12.1026 17.6613 25.0521 21.8613 0.772044 3.35487 76.6774
9338548 12.0321 17.6322 25.062 21.8711 0.786299 3.38173 76.5973
9338562 12.0321 17.6322 25.062 21.8711 0.786299 3.38173 76.5973
9338568 12.1114 17.6516 25.0718 21.8613 0.759399 3.35808 76.6961
9338578 12.1114 17.6516 25.0718 21.8613 0.759399 3.35808 76.6961
9338588 12.1202 17.603 25.0915 21.8516 0.73137 3.36912 76.6662
9338598 12.1114 17.6419 25.1013 21.7931 0.724831 3.35454 76.6477
9338608 12.1114 17.6419 25.1013 21.7931 0.724831 3.35454 76.6477
9338618 12.129 17.6224 25.062 21.7639 0.716707 3.34454 76.5773
9338630 12.1026 17.6224 25.1899 21.7834 0.688833 3.37327 76.6983
9338651 12.1114 17.6127 25.1407 21.7834 0.699291 3.36603 76.6482
9338658 12.1114 17.6127 25.1407 21.7834 0.699291 3.36603 76.6482
9338672 12.0938 17.5738 25.1506 21.7542 0.68028 3.37664 76.5723
9338678 12.1731 17.5641 25.1801 21.7931 0.653127 3.37036 76.7103
9338688 12.1731 17.5641 25.1801 21.7931 0.653127 3.37036 76.7103
9338698 12.1819 17.6127 25.1899 21.7444 0.646862 3.35072 76.7289
9338709 12.1114 17.6322 25.1407 21.8223 0.717798 3.36728 76.7066
9338719 12.1114 17.6322 25.1407 21.8223 0.717798 3.36728 76.7066
9338729 12.1466 17.603 25.2391 21.8321 0.666904 3.38221 76.8208
9338749 12.0762 17.5057 25.1998 21.8808 0.68827 3.42384 76.6625
9338759 12.0497 17.5252 25.2195 21.949 0.718293 3.43877 76.7434
9338770 12.0497 17.5252 25.2195 21.949 0.718293 3.43877 76.7434
9338781 12.0762 17.5252 25.1801 21.949 0.722635 3.42649 76.7304
9338791 12.0409 17.5446 25.1112 21.949 0.763747 3.41988 76.6457
9338803 12.0409 17.5446 25.1112 21.949 0.763747 3.41988 76.6457
9338822 12.0938 17.5446 25.1309 21.91 0.727054 3.40427 76.6793
9338830 12.0057 17.5154 25.0423 21.9393 0.786486 3.42348 76.5027
9338845 12.0585 17.603 25.1506 21.949 0.763041 3.40759 76.7611
9338850 12.0585 17.603 25.1506 21.949 0.763041 3.40759 76.7611
9338861 12.0497 17.4863 25.0816 21.9003 0.736812 3.41997 76.5179
9338871 12.085 17.5252 25.121 21.9587 0.742573 3.41693 76.6899
9338881 12.085 17.5252 25.121 21.9587 0.742573 3.41693 76.6899
9338890 12.1026 17.5252 25.0816 21.949 0.746799 3.40528 76.6584
9338914 12.0585 17.5446 25.1506 21.9198 0.735357 3.41718 76.6735
9338922 12.0674 17.5154 25.1309 21.9977 0.754431 3.43087 76.7114
9338942 12.0585 17.603 25.1112 21.988 0.788558 3.40753 76.7607
9338955 12.0938 17.6419 25.0521 21.949 0.796548 3.37494 76.7368
9338962 12.0938 17.6419 25.0521 21.949 0.796548 3.37494 76.7368
9338978 12.0674 17.6127 25.0521 22.0075 0.814661 3.39711 76.7396
9338983 12.0321 17.5446 24.9734 21.9977 0.828514 3.40852 76.5478
9338993 12.0321 17.5446 24.9734 21.9977 0.828514 3.40852 76.5478
9339005 12.0585 17.6613 24.9931 21.988 0.846693 3.37567 76.7009
9339023 12.0233 17.6224 24.9537 21.8711 0.822702 3.36973 76.4705
9339034 12.0321 17.5738 25.0324 21.91 0.790113 3.39717 76.5484
9339044 12.0321 17.5738 25.0324 21.91 0.790113 3.39717 76.5484
9339054 12.0321 17.6127 25.0324 21.9295 0.808564 3.39078 76.6068
9339064 12.0321 17.5252 25.1604 21.9782 0.75326 3.43851 76.6959
9339084 12.0321 17.5641 25.1801 22.0951 0.795808 3.44972 76.8714
9339094 12.0321 17.5641 25.1801 22.0951 0.795808 3.44972 76.8714
9339105 11.9528 17.5349 25.1801 22.1049 0.816321 3.47725 76.7727
9339118 11.9705 17.5057 25.1702 22.0951 0.801438 3.47709 76.7416
9339126 11.9705 17.5057 25.1702 22.0951 0.801438 3.47709 76.7416
9339136 11.9793 17.4474 25.1998 22.0659 0.760907 3.48908 76.6923
9339146 11.9528 17.4279 25.2096 22.0659 0.760329 3.50162 76.6563
9339166 11.9176 17.4571 25.1899 22.0367 0.778782 3.49574 76.6013
9339176 11.9176 17.4571 25.1899 22.0367 0.778782 3.49574 76.6013
9339186 11.9352 17.4085 25.1112 22.0172 0.777817 3.48846 76.4721
9339196 11.9528 17.3501 25.2293 22.0854 0.735259 3.52629 76.6177
9339223 11.8912 17.3307 25.249 22.1828 0.774032 3.56342 76.6536
9339226 11.944 17.3209 25.2588 22.2218 0.762209 3.56026 76.7456
9339236 11.944 17.3209 25.2588 22.2218 0.762209 3.56026 76.7456
9339251 11.9088 17.3307 25.3376 22.2705 0.766051 3.5854 76.8475
9339257 11.9088 17.3307 25.3376 22.2705 0.766051 3.5854 76.8475
9339267 11.9 17.389 25.308 22.1633 0.763509 3.55308 76.7604
9339279 11.9 17.3015 25.3179 22.251 0.760251 3.58877 76.7704
9339302 11.8736 17.2723 25.3376 22.1731 0.728646 3.59358 76.6565
9339307 11.9176 17.2529 25.2588 22.1926 0.740314 3.57879 76.6219
9339318 11.9176 17.2529 25.2588 22.1926 0.740314 3.57879 76.6219
9339327 11.944 17.282 25.2982 22.251 0.74594 3.57989 76.7753
9339337 11.944 17.282 25.2982 22.251 0.74594 3.57989 76.7753
9339349 11.8648 17.3112 25.2982 22.1633 0.754055 3.57897 76.6375
9339357 11.9352 17.3015 25.3573 22.1828 0.713691 3.57595 76.7768
9339372 11.9352 17.3015 25.3573 22.1828 0.713691 3.57595 76.7768
9339377 11.9264 17.214 25.249 22.2218 0.737599 3.58898 76.6111
9339387 11.9088 17.2918 25.2982 22.1731 0.736195 3.57446 76.6718
9339397 11.9088 17.2918 25.2982 22.1731 0.736195 3.57446 76.6718
9339407 11.9176 17.2918 25.308 22.1536 0.723767 3.57089 76.671
9339426 11.9176 17.2918 25.308 22.1536 0.723767 3.57089 76.671
9339428 11.8736 17.2918 25.3376 22.2023 0.744051 3.59321 76.7052
9339440 11.9 17.2918 25.308 22.1731 0.735849 3.57806 76.6729
9339448 11.9 17.2918 25.308 22.1731 0.735849 3.57806 76.6729
9339464 11.9176 17.3015 25.308 22.1731 0.733012 3.57144 76.7002
9339472 11.944 17.2529 25.2982 22.1341 0.699702 3.56954 76.6292
9339485 11.944 17.2529 25.2982 22.1341 0.699702 3.56954 76.6292
9339488 11.9352 17.2918 25.308 22.1633 0.720942 3.56808 76.6984
9339509 11.9352 17.2723 25.1899 22.1146 0.739023 3.54787 76.5121
9339518 12.0145 17.2918 25.2588 22.1731 0.71395 3.54301 76.7382
9339535 12.0145 17.2918 25.2588 22.1731 0.71395 3.54301 76.7382
9339539 11.9881 17.2431 25.2391 22.1049 0.692385 3.54804 76.5752
9339549 11.9881 17.2626 25.2588 22.1438 0.704312 3.5521 76.6533
9339560 11.9881 17.2626 25.2588 22.1438 0.704312 3.5521 76.6533
9339569 11.9969 17.3307 25.2982 22.1926 0.725126 3.54665 76.8183
9339582 11.9969 17.3307 25.2982 22.1926 0.725126 3.54665 76.8183
9339589 11.9793 17.2431 25.2884 22.1633 0.697374 3.56625 76.6741
9339604 11.9176 17.1945 25.3376 22.2607 0.717002 3.6148 76.7104
9339628 11.9352 17.2431 25.3474 22.1244 0.679985 3.57992 76.6501
9339631 11.9 17.1848 25.3376 22.2315 0.710568 3.6171 76.6539
9339650 11.8824 17.1945 25.3868 22.251 0.70923 3.62921 76.7147
9339659 11.8824 17.1945 25.3868 22.251 0.70923 3.62921 76.7147
9339672 11.8912 17.1167 25.4065 22.29 0.687379 3.65466 76.7044
9339681 11.9264 17.1556 25.4655 22.2413 0.65273 3.63818 76.7888
9339696 11.9264 17.1556 25.4655 22.2413 0.65273 3.63818 76.7888
9339701 11.9352 17.0973 25.4163 22.3095 0.669357 3.65302 76.7583
9339712 11.8736 17.1653 25.4262 22.2413 0.686657 3.64283 76.7063
9339722 11.8736 17.1653 25.4262 22.2413 0.686657 3.64283 76.7063
9339733 11.8824 17.1751 25.3573 22.2315 0.706795 3.62666 76.6462
9339742 11.8912 17.0973 25.3966 22.212 0.659767 3.6464 76.5971
9339752 11.8912 17.0973 25.3966 22.212 0.659767 3.6464 76.5971
9339765 11.8912 17.1459 25.3868 22.212 0.678509 3.6331 76.6359
9339772 11.8912 17.1459 25.3868 22.212 0.678509 3.6331 76.6359
9339782 11.9176 17.1167 25.377 22.1731 0.651312 3.62653 76.5843
9339792 11.9 17.1751 25.3376 22.0951 0.664183 3.59917 76.5078
9339803 11.9 17.1751 25.3376 22.0951 0.664183 3.59917 76.5078
9339814 11.9617 17.1751 25.3573 22.1244 0.646219 3.59149 76.6183
9339827 11.9793 17.1848 25.3277 22.1244 0.653297 3.58045 76.6161
9339837 11.9793 17.1848 25.3277 22.1244 0.653297 3.58045 76.6161
9339843 11.9793 17.1751 25.3868 22.0756 0.614953 3.58435 76.6168
9339853 11.9793 17.1751 25.3868 22.0756 0.614953 3.58435 76.6168
9339864 11.9793 17.2042 25.3179 22.1244 0.662774 3.57427 76.6258
9339874 11.9881 17.2237 25.3179 22.0659 0.647432 3.5587 76.5956
9339884 11.9881 17.2237 25.3179 22.0659 0.647432 3.5587 76.5956
9339894 12.0145 17.3112 25.3671 22.0659 0.649923 3.53848 76.7587
9339908 11.9881 17.2334 25.377 22.0951 0.640047 3.56952 76.6936
9339914 11.9881 17.2334 25.377 22.0951 0.640047 3.56952 76.6936
9339924 11.9793 17.2918 25.3966 22.1049 0.65802 3.56191 76.7726
9339936 11.9793 17.2918 25.3966 22.1049 0.65802 3.56191 76.7726
9339944 11.9264 17.3015 25.3376 22.1244 0.704733 3.56645 76.6898
9339954 11.9617 17.1848 25.3277 22.0659 0.64061 3.57601 76.5401
9339964 11.9617 17.1848 25.3277 22.0659 0.64061 3.57601 76.5401
9339978 11.9881 17.2334 25.2884 22.1049 0.672793 3.55775 76.6147
9339984 11.9264 17.2431 25.2391 22.0756 0.703809 3.55862 76.4843
9339994 11.9264 17.2431 25.2391 22.0756 0.703809 3.55862 76.4843
9340005 11.9 17.2918 25.308 22.2218 0.751251 3.58531 76.7216
9340027 11.9088 17.2529 25.2785 22.1828 0.733572 3.58241 76.623
9340034 11.9705 17.2334 25.2884 22.2218 0.715762 3.57945 76.714
9340047 11.9705 17.2334 25.2884 22.2218 0.715762 3.57945 76.714
9340054 11.9088 17.2723 25.2785 22.2218 0.752059 3.5835 76.6814
9340064 11.9 17.2529 25.2785 22.212 0.745785 3.5889 76.6434
9340084 11.856 17.282 25.2293 22.2023 0.783297 3.58372 76.5696
9340096 11.856 17.282 25.2293 22.2023 0.783297 3.58372 76.5696
9340115 11.8471 17.282 25.2293 22.2413 0.798583 3.59166 76.5997
9340134 11.8912 17.3015 25.249 22.2997 0.801727 3.5879 76.7414
9340136 11.8295 17.2042 25.2884 22.2705 0.769272 3.62798 76.5926
9340152 11.8031 17.2723 25.2588 22.3387 0.831145 3.62359 76.6729
9340156 11.8031 17.2723 25.2588 22.3387 0.831145 3.62359 76.6729
9340167 11.8295 17.2529 25.2982 22.3095 0.793642 3.6234 76.6901
9340180 11.8295 17.2529 25.2982 22.3095 0.793642 3.6234 76.6901
9340187 11.8119 17.214 25.2982 22.2607 0.771883 3.62991 76.5848
9340197 11.8383 17.1653 25.2588 22.3095 0.776267 3.6367 76.572
9340217 11.8912 17.2626 25.2785 22.2705 0.770301 3.59737 76.7028
9340231 11.8119 17.2431 25.2687 22.3289 0.81259 3.62855 76.6527
9340237 11.8119 17.2431 25.2687 22.3289 0.81259 3.62855 76.6527
9340254 11.8119 17.2626 25.2982 22.3484 0.814927 3.6311 76.7211
9340257 11.8119 17.2626 25.2982 22.3484 0.814927 3.6311 76.7211
9340267 11.8031 17.2529 25.2884 22.3971 0.833488 3.64135 76.7415
9340277 11.8383 17.2042 25.249 22.3484 0.804192 3.63156 76.64
9340288 11.8383 17.2042 25.249 22.3484 0.804192 3.63156 76.64
9340302 11.8031 17.1945 25.2687 22.3484 0.806355 3.64541 76.6147
9340308 11.8824 17.1945 25.2687 22.3777 0.788906 3.63047 76.7232
9340318 11.8824 17.1945 25.2687 22.3777 0.788906 3.63047 76.7232
9340328 11.8648 17.2431 25.2687 22.3289 0.794804 3.61572 76.7055
9340338 11.8648 17.2431 25.2687 22.3289 0.794804 3.61572 76.7055
9340349 11.8736 17.214 25.2884 22.3484 0.782165 3.62647 76.7243
9340359 11.9088 17.1264 25.308 22.3679 0.742227 3.64498 76.7112
9340378 11.8031 17.2626 25.2982 22.3192 0.808674 3.6289 76.6831
9340394 11.8648 17.1945 25.3277 22.2802 0.744203 3.62906 76.6672
9340398 11.8648 17.1945 25.3277 22.2802 0.744203 3.62906 76.6672
9340408 11.7591 17.1459 25.2884 22.3777 0.808436 3.67523 76.571
9340429 11.7679 17.1362 25.3376 22.4458 0.807351 3.69279 76.6875
9340443 11.8031 17.1167 25.3868 22.4361 0.769746 3.69476 76.7427
9340451 11.8031 17.1167 25.3868 22.4361 0.769746 3.69476 76.7427
9340459 11.7767 17.0778 25.3966 22.4264 0.75995 3.71071 76.6775
9340470 11.8119 17.0681 25.4262 22.4848 0.753602 3.71743 76.791
9340480 11.8119 17.0681 25.4262 22.4848 0.753602 3.71743 76.791
9340491 11.7943 17.0973 25.4163 22.4166 0.750491 3.70313 76.7245
9340513 11.7415 17.0097 25.4163 22.4556 0.752884 3.74314 76.6231
9340521 11.7062 17.0389 25.4951 22.4458 0.744417 3.75475 76.686
9340536 11.7062 17.0389 25.4951 22.4458 0.744417 3.75475 76.686
9340542 11.7238 17.0875 25.4262 22.4458 0.777015 3.72845 76.6834
9340552 11.7415 17.0681 25.5049 22.4946 0.753903 3.7476 76.809
9340562 11.7415 17.0681 25.5049 22.4946 0.753903 3.7476 76.809
9340572 11.715 17.0097 25.4951 22.5043 0.750715 3.7683 76.7241
9340584 11.7062 16.9908 25.436 22.4556 0.752118 3.75929 76.5886
9340592 11.7062 16.9908 25.436 22.4556 0.752118 3.75929 76.5886
9340606 11.6974 17.0389 25.5541 22.5238 0.752184 3.77696 76.8142
9340612 11.6974 17.0389 25.5541 22.5238 0.752184 3.77696 76.8142
9340622 11.6886 17.0389 25.5837 22.5725 0.760606 3.79053 76.8837
9340632 11.6974 17.0584 25.5541 22.5335 0.761393 3.77363 76.8434
9340656 11.715 17.0097 25.5345 22.4361 0.715935 3.76408 76.6953
9340662 11.715 17.0097 25.5345 22.4361 0.715935 3.76408 76.6953
9340673 11.671 16.9724 25.5049 22.4556 0.734967 3.78254 76.6039
9340682 11.715 16.9724 25.5049 22.4166 0.707832 3.76604 76.6089
9340703 11.671 16.9171 25.4754 22.3971 0.708824 3.78321 76.4606
9340712 11.6534 16.954 25.5049 22.4361 0.728878 3.78853 76.5483
9340728 11.6534 16.954 25.5049 22.4361 0.728878 3.78853 76.5483
9340732 11.6974 17.0097 25.4655 22.3971 0.732633 3.75257 76.5698
9340742 11.6974 17.0097 25.4655 22.3971 0.732633 3.75257 76.5698
9340759 11.715 16.9908 25.4852 22.4069 0.717187 3.75721 76.5979
9340763 11.7238 16.9632 25.5148 22.4458 0.707918 3.77186 76.6476
9340783 11.7238 16.9908 25.5541 22.4069 0.691122 3.76516 76.6756
9340793 11.7679 16.9816 25.5541 22.4264 0.679633 3.75949 76.73
9340803 11.7679 16.9816 25.5541 22.4264 0.679633 3.75949 76.73
9340813 11.7415 17.0097 25.5246 22.4069 0.701118 3.75189 76.6827
9340824 11.7415 17.0097 25.5246 22.4069 0.701118 3.75189 76.6827
9340833 11.7767 16.9724 25.4557 22.4556 0.716007 3.74944 76.6603
9340846 11.7767 16.9816 25.4262 22.4751 0.735 3.74571 76.6595
9340853 11.7767 16.9816 25.4262 22.4751 0.735 3.74571 76.6595
9340869 11.7679 17.0292 25.436 22.3874 0.721961 3.72479 76.6205
9340873 11.8207 17 25.4852 22.4653 0.703186 3.73769 76.7713
9340893 11.8031 16.9908 25.4852 22.4653 0.706169 3.74424 76.7445
9340904 11.8031 16.9908 25.4852 22.4653 0.706169 3.74424 76.7445
9340917 11.7855 16.9816 25.4754 22.4361 0.703195 3.74506 76.6786
9340924 11.8031 16.9355 25.4459 22.5043 0.71421 3.75769 76.6888
9340934 11.8031 16.9355 25.4459 22.5043 0.71421 3.75769 76.6888
9340944 11.7767 17.0195 25.4459 22.4848 0.743458 3.74078 76.7268
9340956 11.7326 16.9632 25.3868 22.4751 0.757203 3.75522 76.5577
9340966 11.7326 16.9632 25.3868 22.4751 0.757203 3.75522 76.5577
9340978 11.7503 17.0097 25.4754 22.4556 0.730094 3.74966 76.691
9340988 11.7238 17 25.5443 22.4556 0.712773 3.7686 76.7237
9340995 11.7238 17 25.5443 22.4556 0.712773 3.7686 76.7237
9341012 11.7238 17 25.5443 22.5043 0.728181 3.77572 76.7724
9341026 11.6886 16.9079 25.4163 22.5238 0.760019 3.79105 76.5366
9341036 11.7062 17.0584 25.4951 22.553 0.784397 3.76569 76.8127
9341046 11.7062 17.0584 25.4951 22.553 0.784397 3.76569 76.8127
9341062 11.7415 16.9724 25.4459 22.6212 0.783485 3.78087 76.7809
9341067 11.6622 17 25.377 22.5433 0.817466 3.77202 76.5824
9341085 11.6622 17 25.377 22.5433 0.817466 3.77202 76.5824
9341088 11.7062 17 25.4262 22.6017 0.804505 3.777 76.7341
9341098 11.7062 17 25.4262 22.6017 0.804505 3.777 76.7341
9341111 11.6446 16.9263 25.4262 22.6212 0.808161 3.81303 76.6183
9341118 11.6446 16.9355 25.4163 22.6602 0.826681 3.81501 76.6566
9341136 11.6446 16.9355 25.4163 22.6602 0.826681 3.81501 76.6566
9341138 11.6446 16.9816 25.4262 22.6602 0.837877 3.80516 76.7125
9341148 11.6886 16.954 25.4655 22.5822 0.776514 3.7955 76.6903
9341168 11.6622 17.0097 25.436 22.6212 0.825217 3.78969 76.7291
9341181 11.6622 17.0097 25.436 22.6212 0.825217 3.78969 76.7291
9341191 11.6269 16.954 25.377 22.6699 0.854775 3.81049 76.6278
9341199 11.671 17.0097 25.3868 22.6894 0.860295 3.79031 76.7569
9341215 11.671 17.0097 25.3868 22.6894 0.860295 3.79031 76.7569
9341220 11.6269 17.0097 25.377 22.6991 0.881526 3.80108 76.7128
9341229 11.671 17 25.3474 22.6699 0.864378 3.78409 76.6883
9341249 11.6269 16.9632 25.377 22.7576 0.885263 3.82102 76.7247
9341268 11.6269 16.9632 25.377 22.7576 0.885263 3.82102 76.7247
9341270 11.5653 16.9724 25.3868 22.8258 0.927058 3.84525 76.7502
9341282 11.5653 16.9447 25.3671 22.8453 0.931156 3.85201 76.7224
9341294 11.5653 16.9447 25.3671 22.8453 0.931156 3.85201 76.7224
9341301 11.5565 16.9447 25.377 22.7771 0.909397 3.84569 76.6553
9341311 11.5301 16.8803 25.3966 22.7771 0.891393 3.87092 76.5841
9341322 11.5301 16.8803 25.3966 22.7771 0.891393 3.87092 76.5841
9341331 11.5036 16.9171 25.4163 22.8355 0.923631 3.8797 76.6726
9341346 11.5036 16.9171 25.4163 22.8355 0.923631 3.8797 76.6726
9341351 11.5301 16.8619 25.3868 22.933 0.937915 3.89663 76.7117
9341361 11.5036 16.8619 25.4852 22.9524 0.919703 3.92018 76.8032
9341371 11.5036 16.8619 25.4852 22.9524 0.919703 3.92018 76.8032
9341380 11.4948 16.825 25.3573 22.9037 0.939095 3.9059 76.5808
9341401 11.4155 16.8803 25.4459 22.9232 0.959396 3.92747 76.6649
9341403 11.4155 16.8803 25.4459 22.9232 0.959396 3.92747 76.6649
9341411 11.4332 16.8711 25.3671 22.9719 0.992495 3.92105 76.6433
9341424 11.4332 16.8711 25.3671 22.9719 0.992495 3.92105 76.6433
9341431 11.3979 16.9171 25.3966 22.9914 1.01494 3.92546 76.7031
9341441 11.4772 16.8527 25.377 22.9524 0.962356 3.91333 76.6592
9341451 11.4772 16.8527 25.377 22.9524 0.962356 3.91333 76.6592
9341477 11.4772 16.9263 25.3573 22.8453 0.95852 3.87678 76.6061
9341479 11.4596 16.9079 25.308 22.9719 1.0151 3.8969 76.6475
9341482 11.4596 16.9079 25.308 22.9719 1.0151 3.8969 76.6475
9341492 11.5124 16.9171 25.3376 22.9622 0.987002 3.88448 76.7293
9341503 11.5036 16.8987 25.3474 22.9232 0.96868 3.88696 76.673
9341513 11.5036 16.8987 25.3474 22.9232 0.96868 3.88696 76.673
9341529 11.5389 16.9724 25.3573 22.9524 0.985628 3.86583 76.8209
9341533 11.5389 16.9724 25.3573 22.9524 0.985628 3.86583 76.8209
9341543 11.5036 16.9816 25.377 22.816 0.95107 3.85529 76.6782
9341555 11.5036 16.8987 25.3573 22.9232 0.965345 3.88838 76.6828
9341563 11.5036 16.8987 25.3573 22.9232 0.965345 3.88838 76.6828
9341582 11.6005 16.9079 25.4262 22.894 0.903049 3.86804 76.8286
9341584 11.6005 16.9079 25.4262 22.894 0.903049 3.86804 76.8286
9341596 11.4596 16.8527 25.3179 22.9037 0.973064 3.90207 76.5339
9341609 11.5389 16.8803 25.3966 22.8745 0.919047 3.88289 76.6903
9341613 11.5389 16.8803 25.3966 22.8745 0.919047 3.88289 76.6903
9341624 11.5124 16.8527 25.377 22.9427 0.947371 3.90323 76.6847
9341635 11.5477 16.8342 25.4655 22.9232 0.893646 3.90908 76.7707
9341644 11.5477 16.8342 25.4655 22.9232 0.893646 3.90908 76.7707
9341663 11.5653 16.8711 25.4655 22.9037 0.893149 3.89286 76.8056
9341667 11.5477 16.8434 25.4065 22.8258 0.885853 3.88416 76.6234
9341676 11.5477 16.8434 25.4065 22.8258 0.885853 3.88416 76.6234
9341689 11.5389 16.8342 25.4655 22.8842 0.884372 3.90562 76.7229
9341697 11.5389 16.8342 25.4655 22.8842 0.884372 3.90562 76.7229
9341704 11.5301 16.8895 25.4557 22.8842 0.908023 3.89276 76.7595
9341716 11.5741 16.8803 25.5246 22.9427 0.885406 3.90259 76.9217
9341725 11.5741 16.8803 25.5246 22.9427 0.885406 3.90259 76.9217
9341743 11.5653 16.8619 25.4262 22.9524 0.918826 3.89648 76.8058
9341746 11.4596 16.8158 25.4459 22.894 0.915077 3.92828 76.6152
9341769 11.4948 16.825 25.4951 22.8745 0.883311 3.92161 76.6894
9341786 11.486 16.7974 25.4852 22.8355 0.868648 3.92355 76.6042
9341796 11.4948 16.779 25.4655 22.8648 0.875723 3.9273 76.6041
9341807 11.4948 16.779 25.4655 22.8648 0.875723 3.9273 76.6041
9341822 11.5036 16.7421 25.5246 22.8745 0.844288 3.94417 76.6449
9341827 11.4596 16.6869 25.6034 22.9719 0.84587 3.99407 76.7218
9341837 11.4596 16.6869 25.6034 22.9719 0.84587 3.99407 76.7218
9341849 11.4948 16.7606 25.6034 23.0011 0.866359 3.97134 76.8599
9341858 11.4332 16.7237 25.6329 22.9817 0.859481 3.99712 76.7714
9341878 11.4508 16.6685 25.6821 23.0109 0.8288 4.01767 76.8122
9341888 11.4508 16.6685 25.6821 23.0109 0.8288 4.01767 76.8122
9341901 11.4772 16.6961 25.692 23.0499 0.83755 4.01127 76.9151
9341908 11.5036 16.7606 25.6427 23.0401 0.862384 3.9804 76.947
9341918 11.5036 16.7606 25.6427 23.0401 0.862384 3.9804 76.947
9341928 11.5124 16.7145 25.6723 22.9524 0.807482 3.98126 76.8517
9341938 11.4155 16.6593 25.6624 22.9427 0.822899 4.0161 76.6799
9341959 11.4772 16.6408 25.6723 23.0011 0.811458 4.01516 76.7915
9341969 11.4772 16.6408 25.6723 23.0011 0.811458 4.01516 76.7915
9341979 11.442 16.6501 25.564 22.9427 0.84427 3.99771 76.5987
9341989 11.4948 16.7237 25.5837 22.9719 0.852227 3.97342 76.7741
9342009 11.442 16.7053 25.5935 23.0011 0.870115 3.99665 76.7419
9342019 11.4508 16.7145 25.5738 23.0109 0.879738 3.99077 76.75
9342029 11.4508 16.7145 25.5738 23.0109 0.879738 3.99077 76.75
9342048 11.4508 16.7514 25.6034 23.1278 0.91801 4.00263 76.9333
9342050 11.4508 16.7514 25.6034 23.1278 0.91801 4.00263 76.9333
9342060 11.3715 16.6224 25.6132 23.1765 0.916284 4.06254 76.7836
9342072 11.3891 16.6224 25.6034 23.1862 0.916716 4.05815 76.8012
9342082 11.3891 16.6224 25.6034 23.1862 0.916716 4.05815 76.8012
9342094 11.3627 16.6316 25.5443 23.1862 0.948483 4.05401 76.7249
9342102 11.3451 16.6501 25.5443 23.2252 0.972417 4.05936 76.7646
9342115 11.3451 16.6501 25.5443 23.2252 0.972417 4.05936 76.7646
9342123 11.3539 16.6316 25.564 23.2155 0.95396 4.06317 76.765
9342138 11.3363 16.6316 25.6034 23.1765 0.934395 4.0676 76.7478
9342143 11.3363 16.6316 25.6034 23.1765 0.934395 4.0676 76.7478
9342153 11.3539 16.7053 25.5049 23.1765 0.984812 4.0309 76.7406
9342163 11.3539 16.7053 25.5049 23.1765 0.984812 4.0309 76.7406
9342173 11.2658 16.6132 25.5148 23.2252 0.997749 4.08403 76.619
9342184 11.257 16.6593 25.5246 23.2837 1.03009 4.08449 76.7245
9342193 11.257 16.6593 25.5246 23.2837 1.03009 4.08449 76.7245
9342204 11.2746 16.7237 25.5541 23.2642 1.02815 4.06552 76.8167
9342214 11.2922 16.6777 25.5148 23.3032 1.03332 4.07252 76.7878
9342234 11.2746 16.6869 25.564 23.2837 1.0194 4.07884 76.8092
9342244 11.2746 16.6869 25.564 23.2837 1.0194 4.07884 76.8092
9342254 11.301 16.6593 25.4459 23.3032 1.04796 4.06509 76.7093
9342266 11.2746 16.6777 25.5345 23.3226 1.03869 4.08247 76.8094
9342276 11.2746 16.6777 25.5345 23.3226 1.03869 4.08247 76.8094
9342285 11.2394 16.6777 25.5049 23.2739 1.04546 4.0801 76.6959
9342296 11.257 16.6961 25.5049 23.2252 1.03002 4.0642 76.6832
9342316 11.2746 16.6869 25.5541 23.196 0.995329 4.06496 76.7116
9342326 11.2746 16.6869 25.5541 23.196 0.995329 4.06496 76.7116
9342337 11.2482 16.6685 25.5738 23.196 0.991845 4.07891 76.6865
9342346 11.2658 16.7329 25.6526 23.2252 0.988525 4.07388 76.8765
9342360 11.2658 16.7329 25.6526 23.2252 0.988525 4.07388 76.8765
9342366 11.2041 16.6869 25.5837 23.1765 1.00311 4.08392 76.6512
9342376 11.1777 16.7606 25.564 23.1862 1.04484 4.07074 76.6885
9342386 11.1777 16.7606 25.564 23.1862 1.04484 4.07074 76.6885
9342396 11.2658 16.7329 25.5935 23.2155 1.00546 4.06409 76.8077
9342410 11.2658 16.7329 25.5935 23.2155 1.00546 4.06409 76.8077
9342416 11.2218 16.7237 25.6329 23.2057 1.00112 4.08154 76.7841
9342426 11.2041 16.7329 25.5837 23.2252 1.03274 4.07939 76.746
9342437 11.2041 16.7329 25.5837 23.2252 1.03274 4.07939 76.746
9342447 11.2218 16.7421 25.5443 23.2642 1.05515 4.07267 76.7724
9342462 11.1953 16.7606 25.5443 23.2837 1.07594 4.07743 76.7839
9342477 11.2218 16.8527 25.5345 23.2252 1.08079 4.0383 76.8341
9342496 11.2218 16.8527 25.5345 23.2252 1.08079 4.0383 76.8341
9342498 11.1513 16.7974 25.5443 23.2447 1.09024 4.07367 76.7377
9342514 11.1953 16.7974 25.4951 23.2837 1.10414 4.06128 76.7715
9342517 11.1953 16.7974 25.4951 23.2837 1.10414 4.06128 76.7715
9342528 11.1601 16.7606 25.5148 23.2934 1.10099 4.08337 76.7288
9342539 11.1337 16.7698 25.5443 23.3226 1.1119 4.09601 76.7704
9342548 11.1337 16.7698 25.5443 23.3226 1.1119 4.09601 76.7704
9342559 11.1601 16.7606 25.4754 23.3713 1.13864 4.08886 76.7674
9342568 11.1337 16.7514 25.4852 23.4103 1.15353 4.10465 76.7806
9342579 11.1337 16.7514 25.4852 23.4103 1.15353 4.10465 76.7806
9342588 11.0896 16.7237 25.5837 23.459 1.14156 4.14333 76.8561
9342598 11.0896 16.7237 25.5837 23.459 1.14156 4.14333 76.8561
9342608 11.1425 16.6777 25.6132 23.3519 1.06591 4.13066 76.7852
9342620 11.1425 16.6593 25.5935 23.4103 1.08507 4.14073 76.8056
9342628 11.1425 16.6593 25.5935 23.4103 1.08507 4.14073 76.8056
9342642 11.1513 16.6408 25.7116 23.3226 1.00894 4.14743 76.8264
9342649 11.1513 16.6408 25.7116 23.3226 1.00894 4.14743 76.8264
9342660 11.1777 16.6408 25.623 23.2739 1.01479 4.12141 76.7155
9342669 11.1777 16.6593 25.6723 23.3129 1.01604 4.12931 76.8221
9342680 11.1777 16.6593 25.6723 23.3129 1.01604 4.12931 76.8221
9342699 11.1777 16.6869 25.7412 23.2837 0.992227 4.12805 76.8895
9342701 11.1865 16.6685 25.692 23.2934 1.00318 4.12486 76.8404
9342709 11.1865 16.6685 25.692 23.2934 1.00318 4.12486 76.8404
9342719 11.1953 16.7237 25.7609 23.2837 0.991115 4.1173 76.9636
9342739 11.2218 16.7145 25.692 23.235 0.98739 4.09636 76.8632
9342751 11.2218 16.6408 25.6723 23.2155 0.96491 4.10913 76.7503
9342759 11.2218 16.6408 25.6723 23.2155 0.96491 4.10913 76.7503
9342773 11.2306 16.6777 25.6132 23.235 0.999546 4.09215 76.7564
9342779 11.1513 16.6869 25.5935 23.2252 1.03295 4.10541 76.6569
9342793 11.1513 16.6869 25.5935 23.2252 1.03295 4.10541 76.6569
9342799 11.1337 16.7053 25.564 23.196 1.04559 4.09686 76.599
9342809 11.1337 16.7053 25.564 23.196 1.04559 4.09686 76.599
9342819 11.1073 16.6408 25.6034 23.2447 1.03626 4.13206 76.5962
9342829 11.1689 16.7237 25.6132 23.2837 1.05004 4.10295 76.7895
9342849 11.2041 16.7237 25.5738 23.2642 1.04536 4.08583 76.7659
9342861 11.1513 16.7237 25.5935 23.3129 1.07181 4.10868 76.7814
9342869 11.1513 16.7237 25.5935 23.3129 1.07181 4.10868 76.7814
9342880 11.0984 16.7974 25.5246 23.3226 1.13918 4.09511 76.7431
9342904 11.1777 16.7421 25.4951 23.2544 1.0838 4.07522 76.6694
9342909 11.2218 16.7606 25.5443 23.2837 1.06697 4.07087 76.8103
9342919 11.2218 16.7606 25.5443 23.2837 1.06697 4.07087 76.8103
9342932 11.1777 16.7698 25.5443 23.2252 1.06657 4.0712 76.717
9342939 11.2041 16.779 25.5148 23.2447 1.07658 4.06091 76.7426
9342963 11.1777 16.8158 25.5345 23.1862 1.07213 4.0528 76.7142
9342991 11.1689 16.779 25.4754 23.2642 1.10802 4.06683 76.6875
9342994 11.213 16.8342 25.5049 23.3129 1.11535 4.05333 76.865
9343001 11.213 16.8342 25.5049 23.3129 1.11535 4.05333 76.865
9343015 11.1865 16.8342 25.4754 23.2642 1.11923 4.04873 76.7603
9343031 11.1865 16.7329 25.5049 23.3226 1.09585 4.08643 76.747
9343041 11.2394 16.8619 25.5049 23.3226 1.11798 4.04133 76.9288
9343053 11.2394 16.8619 25.5049 23.3226 1.11798 4.04133 76.9288
9343062 11.1777 16.7974 25.4852 23.2739 1.11045 4.06286 76.7343
9343072 11.1953 16.8527 25.4557 23.2642 1.12866 4.03917 76.7679
9343082 11.1953 16.8527 25.4557 23.2642 1.12866 4.03917 76.7679
9343092 11.1777 16.8158 25.436 23.196 1.10866 4.04013 76.6255
9343108 11.1777 16.7974 25.4655 23.196 1.09286 4.04893 76.6367
9343112 11.1777 16.7974 25.4655 23.196 1.09286 4.04893 76.6367
9343122 11.1513 16.8158 25.5049 23.2739 1.11847 4.06765 76.746
9343132 11.1513 16.8158 25.5049 23.2739 1.11847 4.06765 76.746
9343143 11.1513 16.7974 25.4655 23.2057 1.10489 4.05689 76.62
9343153 11.1953 16.7882 25.5738 23.157 1.03502 4.05673 76.7144
9343164 11.1953 16.7882 25.5738 23.157 1.03502 4.05673 76.7144
9343173 11.1865 16.779 25.6034 23.2057 1.04032 4.07236 76.7746
9343183 11.1689 16.7606 25.5738 23.2155 1.05362 4.0785 76.7188
9343194 11.1689 16.7606 25.5738 23.2155 1.05362 4.0785 76.7188
9343206 11.213 16.8066 25.5837 23.2155 1.04969 4.05752 76.8187
9343216 11.2218 16.8066 25.6034 23.2155 1.04004 4.05814 76.8472
9343224 11.2218 16.7974 25.6034 23.196 1.03109 4.05765 76.8185
9343238 11.1513 16.7882 25.6329 23.2155 1.04817 4.08441 76.7878
9343256 11.2394 16.7882 25.5837 23.2155 1.035 4.05554 76.8267
9343265 11.1689 16.7329 25.5837 23.157 1.02338 4.07845 76.6425
9343286 11.2218 16.8527 25.5246 23.196 1.07503 4.03272 76.795
9343295 11.2041 16.779 25.5246 23.1862 1.055 4.05398 76.694
9343329 11.2041 16.779 25.5246 23.1862 1.055 4.05398 76.694
9343338 11.1953 16.8066 25.5148 23.0791 1.03647 4.03258 76.5958
9343349 11.2482 16.8711 25.5246 23.0986 1.04142 4.00768 76.7424
