12138131 10.8959 13.2611 30.791 29.4894 0.314933 6.4172 84.4373
12138136 10.8694 13.1874 30.8599 29.4407 0.266373 6.44467 84.3574
12138158 10.9135 13.169 30.8303 29.4504 0.259483 6.43614 84.3633
12138169 10.9135 13.169 30.8303 29.4504 0.259483 6.43614 84.3633
12138178 10.8342 13.0677 30.9878 29.5576 0.237805 6.50882 84.4473
12138194 10.8606 13.0125 31.106 29.5868 0.187039 6.53095 84.5659
12138213 10.8606 12.8927 31.165 29.6745 0.160059 6.57611 84.5929
12138218 10.8166 12.8375 31.3324 29.694 0.11293 6.62 84.6804
12138238 10.8606 12.6625 31.3521 29.7719 0.0654936 6.6631 84.6471
12138259 10.7461 12.5704 31.3619 29.8304 0.0866145 6.7228 84.5088
12138269 10.7373 12.4599 31.4308 29.8401 0.039041 6.76119 84.4681
12138289 10.7813 12.3586 31.421 29.8693 0.00759363 6.77784 84.4303
12138299 10.7197 12.3218 31.4603 29.9473 0.0263542 6.81466 84.4491
12138319 10.7725 12.2665 31.5292 29.9278 -0.0317961 6.82007 84.4961
12138339 10.7109 12.1836 31.5883 29.9278 -0.0556067 6.86316 84.4106
12138349 10.6845 12.1376 31.6474 29.9375 -0.0760272 6.88856 84.407
12138370 10.658 12.1468 31.6178 29.996 -0.0394076 6.89581 84.4187
12138380 10.6756 12.11 31.6671 30.0252 -0.0614122 6.90832 84.4779
12138390 10.6756 12.11 31.6671 30.0252 -0.0614122 6.90832 84.4779
12138400 10.7021 12.0823 31.7458 30.0447 -0.0948384 6.91803 84.5749
12138410 10.7021 12.0823 31.7458 30.0447 -0.0948384 6.91803 84.5749
12138420 10.6845 12.0547 31.795 30.0934 -0.0978857 6.93909 84.6276
12138430 10.6668 12.0455 31.8442 30.1032 -0.10702 6.95166 84.6597
12138450 10.6756 11.9995 31.7852 30.0739 -0.114582 6.95292 84.5342
12138460 10.7197 11.9902 31.8246 30.0057 -0.162131 6.94113 84.5402
12138470 10.7197 11.9902 31.8246 30.0057 -0.162131 6.94113 84.5402
12138481 10.7197 12.0179 31.8344 29.996 -0.159699 6.93398 84.5679
12138490 10.7197 12.0179 31.8344 29.996 -0.159699 6.93398 84.5679
12138500 10.6492 11.981 31.8344 30.0057 -0.147046 6.96277 84.4704
12138510 10.7109 11.9718 31.8442 29.9668 -0.182417 6.94637 84.4937
12138530 10.7109 12.0179 31.8049 29.9278 -0.168739 6.92693 84.4614
12138540 10.7461 12.0455 31.7852 29.8206 -0.197031 6.89847 84.3974
12138550 10.7461 12.0455 31.7852 29.8206 -0.197031 6.89847 84.3974
12138560 10.7813 12.1008 31.8935 29.8011 -0.22846 6.88354 84.5767
12138581 10.7902 12.1284 31.795 29.7817 -0.199753 6.86278 84.4952
12138591 10.8254 12.1744 31.8738 29.5966 -0.274703 6.8315 84.4702
12138601 10.8254 12.1744 31.8738 29.5966 -0.274703 6.8315 84.4702
12138611 10.8254 12.331 31.7163 29.3725 -0.248733 6.75393 84.2451
12138622 10.8694 12.3862 31.6671 29.2848 -0.256932 6.71487 84.2075
12138634 10.8694 12.3862 31.6671 29.2848 -0.256932 6.71487 84.2075
12138642 10.9135 12.5336 31.6572 29.1289 -0.269534 6.64923 84.2332
12138653 10.9135 12.5336 31.6572 29.1289 -0.269534 6.64923 84.2332
12138663 10.8782 12.5981 31.6671 29.09 -0.254433 6.63884 84.2333
12138677 10.9135 12.6717 31.6474 29.0218 -0.257358 6.60214 84.2543
12138690 10.9135 12.6717 31.6474 29.0218 -0.257358 6.60214 84.2543
12138693 10.9839 12.727 31.7556 29.0218 -0.293185 6.58076 84.4883
12138703 10.9751 12.8099 31.6474 29.0218 -0.234111 6.55104 84.4541
12138713 10.9751 12.8099 31.6474 29.0218 -0.234111 6.55104 84.4541
12138723 10.9663 12.8099 31.7655 29.0023 -0.271946 6.56314 84.544
12138749 11.0192 12.7546 31.6178 29.0413 -0.249057 6.5529 84.4329
12138753 11.028 12.8006 31.6375 29.0413 -0.243643 6.54087 84.5074
12138763 11.028 12.8006 31.6375 29.0413 -0.243643 6.54087 84.5074
12138773 10.9751 12.8651 31.5785 28.9925 -0.206111 6.52711 84.4113
12138783 11.0368 12.8559 31.5489 28.9244 -0.238679 6.50391 84.366
12138793 11.0368 12.8559 31.5489 28.9244 -0.238679 6.50391 84.366
12138803 11.028 12.9019 31.5292 28.9438 -0.210723 6.49441 84.403
12138816 11.028 12.9019 31.5292 28.9438 -0.210723 6.49441 84.403
12138823 11.0456 12.8099 31.5292 28.8951 -0.258024 6.50848 84.2798
12138832 11.0456 12.8927 31.5686 28.8756 -0.250593 6.48936 84.3826
12138851 11.0456 12.8927 31.5686 28.8756 -0.250593 6.48936 84.3826
12138858 11.0984 12.8835 31.5981 28.9341 -0.260006 6.48712 84.5142
12138863 11.072 12.8191 31.5588 28.9244 -0.262927 6.50531 84.3742
12138884 11.0632 12.7822 31.6178 28.9438 -0.282846 6.52485 84.4071
12138904 11.028 12.7362 31.6375 28.9731 -0.283335 6.55049 84.3748
12138914 11.0632 12.6809 31.6277 29.0413 -0.286894 6.56145 84.4131
12138934 11.0016 12.5981 31.7556 29.0023 -0.342844 6.60729 84.3575
12138944 11.0016 12.5152 31.7753 29.1095 -0.341305 6.64112 84.4015
12138955 11.0016 12.5152 31.7753 29.1095 -0.341305 6.64112 84.4015
12138965 10.9663 12.4507 31.8049 29.1582 -0.344367 6.67445 84.3801
12138985 10.9047 12.3402 31.8738 29.2556 -0.35042 6.73508 84.3742
12138995 10.9311 12.3126 31.8344 29.3822 -0.316918 6.74394 84.4603
12139015 10.9223 12.2481 31.923 29.353 -0.368327 6.7686 84.4464
12139025 10.843 12.2665 31.8639 29.4699 -0.287321 6.78993 84.4434
12139046 10.8782 12.1836 31.8935 29.4212 -0.345728 6.80037 84.3765
12139056 10.8694 12.1836 31.8541 29.4504 -0.322863 6.80166 84.3576
12139066 10.8694 12.1836 31.8541 29.4504 -0.322863 6.80166 84.3576
12139077 10.8694 12.1468 31.9328 29.4797 -0.348164 6.82166 84.4287
12139086 10.8694 12.1468 31.9328 29.4797 -0.348164 6.82166 84.4287
12139096 10.8254 12.0639 31.982 29.5089 -0.365795 6.86208 84.3802
12139106 10.843 12.0455 32.0017 29.6258 -0.347108 6.87545 84.516
12139116 10.843 12.0455 32.0017 29.6258 -0.347108 6.87545 84.516
12139127 10.8782 12.11 32.1297 29.6355 -0.372387 6.86291 84.7534
12139136 10.8782 12.11 32.1297 29.6355 -0.372387 6.86291 84.7534
12139147 10.8166 12.0363 32.0608 29.6842 -0.341865 6.89594 84.5979
12139156 10.8166 11.981 32.2183 29.7427 -0.38673 6.93087 84.7586
12139167 10.8166 11.981 32.2183 29.7427 -0.38673 6.93087 84.7586
12139177 10.7725 11.9902 32.11 29.7135 -0.348413 6.92678 84.5863
12139187 10.8078 11.9626 32.1592 29.7232 -0.378363 6.93043 84.6528
12139196 10.8078 11.9626 32.1592 29.7232 -0.378363 6.93043 84.6528
12139206 10.7549 11.935 32.1395 29.6842 -0.377229 6.94571 84.5137
12139216 10.7549 11.935 32.1395 29.6842 -0.377229 6.94571 84.5137
12139227 10.7549 11.8705 32.1297 29.6842 -0.393732 6.96153 84.4394
12139236 10.7021 11.8613 32.1199 29.6453 -0.389944 6.97304 84.3285
12139249 10.7021 11.8613 32.1199 29.6453 -0.389944 6.97304 84.3285
12139257 10.7373 11.8705 32.1888 29.7037 -0.399944 6.97358 84.5003
12139269 10.7461 11.8613 32.2085 29.6063 -0.440331 6.96629 84.4222
12139278 10.7461 11.8613 32.2085 29.6063 -0.440331 6.96629 84.4222
12139289 10.7461 11.8613 32.2577 29.694 -0.428244 6.9793 84.5591
12139311 10.7109 11.8521 32.2183 29.6648 -0.418112 6.98435 84.4461
12139318 10.7902 11.8245 32.2577 29.6648 -0.460918 6.97465 84.5371
12139332 10.7902 11.8245 32.2577 29.6648 -0.460918 6.97465 84.5371
12139338 10.7373 11.7692 32.2577 29.6745 -0.459282 7.00371 84.4387
12139348 10.7197 11.8245 32.297 29.7622 -0.422581 7.00593 84.6034
12139368 10.6845 11.8889 32.3167 29.7232 -0.410405 6.99651 84.6133
12139378 10.6845 11.8889 32.3167 29.7232 -0.410405 6.99651 84.6133
12139389 10.7285 11.7508 32.3463 29.6648 -0.49094 7.01827 84.4903
12139399 10.6933 11.7508 32.3069 29.6842 -0.463405 7.02557 84.4352
12139409 10.6933 11.7508 32.3069 29.6842 -0.463405 7.02557 84.4352
12139420 10.6933 11.8153 32.2478 29.5966 -0.453232 6.99487 84.3529
12139429 10.6933 11.7324 32.2577 29.616 -0.475238 7.01928 84.2994
12139449 10.7197 11.76 32.3266 29.5673 -0.509316 7.00708 84.3736
12139459 10.7197 11.76 32.3266 29.5673 -0.509316 7.00708 84.3736
12139474 10.6845 11.6863 32.3463 29.5771 -0.524145 7.03831 84.2941
12139486 10.7197 11.6863 32.366 29.616 -0.528286 7.03464 84.388
12139491 10.7197 11.6863 32.366 29.616 -0.528286 7.03464 84.388
12139500 10.7109 11.7416 32.4447 29.6355 -0.525963 7.03179 84.5327
12139510 10.6668 11.7508 32.5235 29.655 -0.527348 7.05011 84.5961
12139530 10.7197 11.76 32.5038 29.694 -0.522411 7.03576 84.6775
12139540 10.6933 11.76 32.4742 29.8109 -0.471035 7.05085 84.7384
12139550 10.6933 11.76 32.4742 29.8109 -0.471035 7.05085 84.7384
12139560 10.7197 11.6863 32.5136 29.7524 -0.529841 7.06136 84.6721
12139570 10.7197 11.6863 32.5136 29.7524 -0.529841 7.06136 84.6721
12139580 10.6756 11.714 32.4742 29.7232 -0.506192 7.0592 84.5871
12139590 10.7285 11.6587 32.4152 29.694 -0.529891 7.05153 84.4964
12139601 10.7285 11.6587 32.4152 29.694 -0.529891 7.05153 84.4964
12139611 10.7725 11.76 32.4152 29.6355 -0.529701 7.00815 84.5833
12139621 10.7725 11.7876 32.366 29.5673 -0.527705 6.98985 84.4935
12139632 10.7725 11.7876 32.366 29.5673 -0.527705 6.98985 84.4935
12139642 10.7109 11.7232 32.4152 29.5966 -0.534752 7.03013 84.4458
12139652 10.7109 11.7232 32.4152 29.5966 -0.534752 7.03013 84.4458
12139662 10.6933 11.7232 32.3364 29.6258 -0.497968 7.03005 84.3787
12139675 10.7725 11.7508 32.3758 29.5089 -0.559376 6.99483 84.408
12139692 10.7725 11.714 32.4349 29.6258 -0.552247 7.02107 84.5472
12139701 10.7725 11.714 32.4349 29.6258 -0.552247 7.02107 84.5472
12139713 10.7021 11.7324 32.4447 29.5673 -0.54681 7.03006 84.4465
12139723 10.7109 11.76 32.4644 29.5673 -0.546704 7.02241 84.5026
12139732 10.7109 11.76 32.4644 29.5673 -0.546704 7.02241 84.5026
12139742 10.7021 11.6956 32.4841 29.5381 -0.578207 7.04063 84.4198
12139751 10.7461 11.7416 32.4939 29.5479 -0.576892 7.01898 84.5295
12139773 10.7461 11.7508 32.5136 29.5479 -0.579792 7.01844 84.5584
12139786 10.7461 11.7508 32.5235 29.5479 -0.582637 7.01937 84.5682
12139793 10.6756 11.714 32.5235 29.5284 -0.579326 7.04551 84.4414
12139807 10.7109 11.7232 32.5333 29.5966 -0.568926 7.04126 84.5639
12139823 10.7109 11.7508 32.4644 29.5868 -0.543597 7.02665 84.5129
12139833 10.7725 11.7969 32.4644 29.5381 -0.562233 6.99401 84.5719
12139854 10.7902 11.7784 32.4053 29.5479 -0.552873 6.98955 84.5218
12139864 10.7813 11.7232 32.3955 29.4212 -0.602588 6.99329 84.3212
12139884 10.7549 11.7324 32.4644 29.4797 -0.594348 7.00985 84.4314
12139904 10.7373 11.76 32.3758 29.4115 -0.575912 6.99237 84.2846
12139914 10.7197 11.7876 32.4349 29.392 -0.585446 6.99352 84.3342
12139934 10.7902 11.8705 32.3955 29.3238 -0.589988 6.94334 84.38
12139944 10.799 11.8429 32.4349 29.3238 -0.612301 6.95199 84.4005
12139966 10.8254 11.981 32.3955 29.314 -0.569652 6.90457 84.516
12139986 10.8078 11.981 32.3561 29.314 -0.553167 6.90537 84.459
12139995 10.8606 12.0639 32.366 29.2848 -0.555079 6.86836 84.5753
12140006 10.8606 12.0639 32.366 29.2848 -0.555079 6.86836 84.5753
12140015 10.8959 12.1652 32.3069 29.1971 -0.544076 6.81894 84.5651
12140026 10.8694 12.2113 32.2478 29.1971 -0.505427 6.80816 84.5257
12140037 10.8694 12.2113 32.2478 29.1971 -0.505427 6.80816 84.5257
12140046 10.9135 12.2665 32.1691 29.1971 -0.4787 6.77491 84.5462
12140056 10.9135 12.2665 32.1691 29.1971 -0.4787 6.77491 84.5462
12140067 10.9311 12.2849 32.1691 29.0997 -0.507639 6.75614 84.4848
12140077 10.9223 12.3218 32.0903 29.1484 -0.456427 6.74599 84.4828
12140096 10.9311 12.3954 32.0214 29.0802 -0.437306 6.71134 84.4282
12140115 10.9487 12.4139 31.9919 29.1192 -0.416559 6.70301 84.4737
12140144 10.9487 12.4047 31.8738 29.1679 -0.370255 6.69855 84.395
12140149 10.9487 12.4047 31.8738 29.1679 -0.370255 6.69855 84.395
12140159 11.0104 12.4231 31.8639 29.1971 -0.371052 6.67989 84.4945
12140169 11.0104 12.4231 31.8639 29.1971 -0.371052 6.67989 84.4945
12140188 10.9751 12.4231 31.8738 29.1874 -0.366575 6.68895 84.4594
12140191 10.9575 12.4231 31.8738 29.1971 -0.35851 6.69443 84.4515
12140210 10.9751 12.3678 31.7852 29.2166 -0.348528 6.69731 84.3447
12140219 10.8782 12.4139 31.7064 29.2361 -0.277407 6.70456 84.2346
12140229 10.8782 12.4139 31.7064 29.2361 -0.277407 6.70456 84.2346
12140239 10.8782 12.3678 31.8246 29.3238 -0.299542 6.73663 84.3944
12140260 10.9839 12.3218 31.7753 29.3238 -0.329873 6.71645 84.4048
12140270 10.9047 12.3126 31.8344 29.3628 -0.315036 6.74883 84.4144
12140280 10.9047 12.3126 31.8344 29.3628 -0.315036 6.74883 84.4144
12140291 10.9663 12.3126 31.7852 29.4309 -0.298236 6.73482 84.495
12140300 10.9575 12.3126 31.8049 29.4699 -0.289756 6.74282 84.5449
12140310 10.9575 12.3126 31.8049 29.4699 -0.289756 6.74282 84.5449
12140320 10.9663 12.2297 31.8246 29.4894 -0.317059 6.7657 84.51
12140347 10.9399 12.1376 31.7852 29.5576 -0.304985 6.79907 84.4203
12140350 10.9047 12.2205 31.7753 29.6355 -0.24368 6.79339 84.536
12140360 10.9047 12.2205 31.7753 29.6355 -0.24368 6.79339 84.536
12140370 10.8694 12.2021 31.7753 29.616 -0.244679 6.80534 84.4629
12140380 10.8782 12.1284 31.8246 29.6453 -0.274967 6.82969 84.4764
12140400 10.9399 12.1192 31.8147 29.6842 -0.281224 6.81896 84.558
12140410 10.9399 12.1192 31.8147 29.6842 -0.281224 6.81896 84.558
12140420 10.9223 12.0455 31.8541 29.7037 -0.303793 6.84823 84.5256
12140430 10.9135 12.0363 31.9525 29.7135 -0.329792 6.8633 84.6158
12140451 10.887 11.9534 31.8639 29.7719 -0.303528 6.88869 84.4763
12140461 10.9047 11.981 31.7852 29.7135 -0.294881 6.86376 84.3843
12140472 10.9047 11.981 31.7852 29.7135 -0.294881 6.86376 84.3843
12140481 10.9135 11.9534 31.8344 29.7817 -0.299701 6.87994 84.4829
12140492 10.9135 11.9534 31.8344 29.7817 -0.299701 6.87994 84.4829
12140501 10.8254 11.9534 31.7753 29.7232 -0.274126 6.89149 84.2773
12140512 10.9047 11.9534 31.8836 29.7914 -0.308594 6.88788 84.5331
12140521 10.9047 11.9534 31.8836 29.7914 -0.308594 6.88788 84.5331
12140533 10.8782 11.9995 31.8147 29.7817 -0.269854 6.87525 84.4741
12140541 10.8254 11.935 31.8541 29.7622 -0.291047 6.90758 84.3766
12140555 10.8254 11.935 31.8541 29.7622 -0.291047 6.90758 84.3766
12140563 10.9047 11.9534 31.8836 29.7817 -0.311512 6.88695 84.5234
12140576 10.9047 11.9534 31.8836 29.7817 -0.311512 6.88695 84.5234
12140583 10.8342 11.9902 31.9131 29.7524 -0.297272 6.89569 84.49
12140597 10.8342 11.935 31.923 29.8791 -0.27879 6.92308 84.5713
12140603 10.8342 11.935 31.923 29.8791 -0.27879 6.92308 84.5713
12140613 10.843 12.0271 31.8147 29.8401 -0.233813 6.88283 84.5249
12140623 10.8342 11.9626 31.9328 29.7622 -0.30838 6.90567 84.4918
12140633 10.8342 11.9626 31.9328 29.7622 -0.30838 6.90567 84.4918
12140643 10.8342 12.0179 31.9131 29.8011 -0.274433 6.89321 84.5664
12140653 10.8342 12.0179 31.9131 29.8011 -0.274433 6.89321 84.5664
12140663 10.8342 11.9995 31.8836 29.7914 -0.274217 6.89421 84.5087
12140673 10.799 11.9626 31.795 29.8401 -0.234385 6.90908 84.3967
12140683 10.799 11.9626 31.795 29.8401 -0.234385 6.90908 84.3967
12140693 10.8606 12.0179 31.8246 29.8011 -0.256245 6.87786 84.5042
12140703 10.8166 12.0455 31.7556 29.7427 -0.232345 6.86985 84.3604
12140713 10.8166 12.0455 31.7556 29.7427 -0.232345 6.86985 84.3604
12140723 10.8782 12.1284 31.8049 29.7524 -0.23718 6.83814 84.5639
12140749 10.843 12.1376 31.7064 29.6648 -0.221418 6.82687 84.3518
12140758 10.8518 12.1192 31.7261 29.694 -0.226556 6.83409 84.3911
12140775 10.8518 12.1192 31.7261 29.694 -0.226556 6.83409 84.3911
12140776 10.9047 12.2021 31.6671 29.616 -0.223251 6.78572 84.3898
12140783 10.8694 12.2021 31.6375 29.5284 -0.230458 6.7834 84.2374
12140793 10.8694 12.2573 31.6375 29.5284 -0.21392 6.76912 84.2926
12140803 10.9399 12.377 31.6671 29.4212 -0.239533 6.7125 84.4052
12140828 10.9575 12.4507 31.608 29.2946 -0.243218 6.67074 84.3108
12140834 10.9311 12.5796 31.608 29.2653 -0.205642 6.64153 84.384
12140844 10.9311 12.5796 31.608 29.2653 -0.205642 6.64153 84.384
12140854 10.9927 12.7086 31.6375 29.2946 -0.185257 6.5986 84.6334
12140865 10.9663 12.6625 31.6375 29.2264 -0.211549 6.61034 84.4927
12140875 10.9663 12.6625 31.6375 29.2264 -0.211549 6.61034 84.4927
12140885 11.0632 12.7178 31.5981 29.2653 -0.200327 6.57146 84.6445
12140895 11.0632 12.7178 31.5981 29.2653 -0.200327 6.57146 84.6445
12140905 10.9311 12.7086 31.608 29.2946 -0.15849 6.61141 84.5422
12140916 10.9575 12.6349 31.6671 29.2946 -0.205526 6.62935 84.554
12140925 10.9575 12.6349 31.6671 29.2946 -0.205526 6.62935 84.554
12140935 10.9751 12.6994 31.4899 29.3238 -0.130747 6.59368 84.4881
12140945 10.9927 12.6533 31.5292 29.3238 -0.161217 6.60486 84.4991
12140955 10.9927 12.6533 31.5292 29.3238 -0.161217 6.60486 84.4991
12140968 10.9223 12.6717 31.5981 29.3822 -0.137889 6.6308 84.5744
12140975 10.9223 12.6717 31.5981 29.3822 -0.137889 6.6308 84.5744
12140985 10.8782 12.6441 31.4406 29.392 -0.0838161 6.63452 84.355
12140996 10.8782 12.5796 31.4702 29.4504 -0.0943244 6.65977 84.3785
12141015 10.8606 12.5612 31.5292 29.4797 -0.103337 6.67773 84.4307
12141025 10.8254 12.4875 31.5292 29.5771 -0.0858858 6.7153 84.4193
12141035 10.8254 12.4875 31.5292 29.5771 -0.0858858 6.7153 84.4193
12141045 10.9047 12.5152 31.5883 29.5868 -0.115545 6.6946 84.595
12141056 10.9047 12.5152 31.5883 29.5868 -0.115545 6.6946 84.595
12141068 10.8606 12.4599 31.608 29.6355 -0.110321 6.72679 84.5641
12141075 10.8078 12.4507 31.608 29.6648 -0.0888109 6.7456 84.5312
12141085 10.8078 12.4507 31.608 29.6648 -0.0888109 6.7456 84.5312
12141095 10.8518 12.4323 31.5785 29.6063 -0.115927 6.73041 84.4689
12141117 10.8078 12.3862 31.5489 29.5576 -0.122438 6.74595 84.3005
12141126 10.7725 12.4139 31.4702 29.5284 -0.0892326 6.73733 84.185
12141146 10.7813 12.4967 31.4702 29.6063 -0.0440031 6.72134 84.3546
12141156 10.7902 12.4875 31.4308 29.6745 -0.0174537 6.72427 84.383
12141166 10.7902 12.4875 31.4308 29.6745 -0.0174537 6.72427 84.383
12141178 10.7725 12.4507 31.4505 29.6355 -0.0405639 6.73641 84.3093
12141186 10.799 12.4507 31.3816 29.6355 -0.0279814 6.72284 84.2668
12141197 10.799 12.5428 31.3816 29.7622 0.0368178 6.71157 84.4855
12141206 10.843 12.5612 31.4111 29.8206 0.0377238 6.70416 84.636
12141228 10.8078 12.5612 31.3521 29.7719 0.0512779 6.70263 84.493
12141238 10.8694 12.6441 31.3521 29.7914 0.0632018 6.66748 84.657
12141258 10.9223 12.7362 31.2536 29.8206 0.112388 6.62362 84.7327
12141268 10.9223 12.7822 31.1552 29.8109 0.152254 6.60115 84.6706
12141288 10.8254 12.8006 31.0764 29.8206 0.212798 6.61435 84.5231
12141309 10.8342 12.7914 31.0371 29.733 0.193474 6.60183 84.3956
12141318 10.8606 12.8099 30.978 29.7719 0.220078 6.58835 84.4204
12141328 10.8606 12.8099 30.978 29.7719 0.220078 6.58835 84.4204
12141338 10.8694 12.8375 31.0371 29.7719 0.207922 6.58493 84.5159
12141348 10.8606 12.8006 30.9485 29.7622 0.223342 6.5868 84.3719
12141369 10.8518 12.8099 30.8992 29.8888 0.280529 6.59441 84.4497
12141390 10.7813 12.7362 30.8697 29.8791 0.286061 6.62743 84.2663
12141410 10.7902 12.7454 30.85 30.0057 0.329104 6.63342 84.3913
12141411 10.7902 12.7454 30.85 30.0057 0.329104 6.63342 84.3913
12141419 10.7637 12.7546 30.8303 30.0837 0.368401 6.6436 84.4323
12141429 10.7549 12.6901 30.8402 30.1129 0.357807 6.66626 84.3981
12141439 10.7549 12.6901 30.8402 30.1129 0.357807 6.66626 84.3981
12141449 10.7373 12.6533 30.85 30.2201 0.380659 6.69178 84.4607
12141470 10.7197 12.7086 30.9189 30.259 0.39269 6.69272 84.6062
12141480 10.6404 12.6349 30.9583 30.3467 0.408745 6.74443 84.5803
12141491 10.6404 12.6349 30.9583 30.3467 0.408745 6.74443 84.5803
12141500 10.6756 12.5888 30.9682 30.2785 0.361949 6.74151 84.5112
12141515 10.6845 12.5612 30.9485 30.3857 0.388381 6.75489 84.5798
12141535 10.658 12.506 30.978 30.3467 0.359997 6.775 84.4887
12141551 10.6052 12.3862 31.0567 30.3564 0.320113 6.82814 84.4046
12141561 10.6228 12.3586 31.1847 30.4539 0.296906 6.85249 84.62
12141583 10.6404 12.3402 31.165 30.4246 0.283608 6.84798 84.5703
12141596 10.6316 12.2205 31.3028 30.3662 0.192916 6.88886 84.5211
12141603 10.6316 12.2205 31.3028 30.3662 0.192916 6.88886 84.5211
12141616 10.5435 12.2205 31.3324 30.4344 0.230384 6.92105 84.5307
12141633 10.5611 12.1744 31.3619 30.4636 0.211388 6.93403 84.5611
12141643 10.5523 12.2113 31.3816 30.4539 0.216082 6.92771 84.5991
12141663 10.5171 12.1284 31.4308 30.4539 0.187609 6.96305 84.5302
12141673 10.5788 12.0455 31.4505 30.4539 0.139043 6.97044 84.5286
12141683 10.5788 12.0455 31.4505 30.4539 0.139043 6.97044 84.5286
12141697 10.5964 12.0271 31.4899 30.4928 0.128147 6.97808 84.6062
12141703 10.5964 12.0271 31.4899 30.4928 0.128147 6.97808 84.6062
12141713 10.4995 11.9442 31.5489 30.4539 0.103512 7.02678 84.4465
12141723 10.5611 11.9534 31.5292 30.4734 0.099504 7.00829 84.5171
12141733 10.5611 11.9534 31.5292 30.4734 0.099504 7.00829 84.5171
12141743 10.5523 11.9626 31.5391 30.4149 0.0846773 7.00359 84.4689
12141753 10.5347 11.935 31.5686 30.3467 0.0528455 7.01172 84.385
12141763 10.5347 11.935 31.5686 30.3467 0.0528455 7.01172 84.385
12141773 10.5699 11.9166 31.608 30.3272 0.0195026 7.00922 84.4217
12141783 10.5699 11.9166 31.608 30.3272 0.0195026 7.00922 84.4217
12141793 10.5788 11.8889 31.6178 30.3175 0.00291467 7.01413 84.403
12141804 10.5523 11.9534 31.6474 30.2688 0.00666082 7.0024 84.4219
12141824 10.6052 11.9995 31.6572 30.2298 -0.00980347 6.97389 84.4916
12141834 10.6052 12.0271 31.6867 30.1811 -0.0247777 6.96488 84.5001
12141854 10.6933 12.1192 31.6769 30.1713 -0.0235155 6.91628 84.6607
12141864 10.6933 12.1192 31.6769 30.1713 -0.0235155 6.91628 84.6607
12141874 10.7109 12.1192 31.6474 30.1032 -0.0401765 6.90238 84.5806
12141884 10.6845 12.1744 31.6867 30.0934 -0.030528 6.89775 84.639
12141894 10.6845 12.1744 31.6867 30.0934 -0.030528 6.89775 84.639
12141905 10.6756 12.2205 31.5883 30.0252 -0.00540018 6.87213 84.5096
12141915 10.6668 12.1928 31.6474 29.957 -0.0486419 6.88068 84.4641
12141925 10.6668 12.1928 31.6474 29.957 -0.0486419 6.88068 84.4641
12141935 10.7197 12.2021 31.6671 29.957 -0.067319 6.86651 84.5458
12141955 10.6668 12.2297 31.6572 29.9765 -0.0348568 6.87396 84.5302
12141965 10.7285 12.2573 31.7261 29.957 -0.0709474 6.85564 84.6689
12141986 10.7725 12.1744 31.7556 29.8693 -0.143196 6.86008 84.572
12141996 10.7461 12.1744 31.7852 29.8693 -0.144108 6.86975 84.5751
12142006 10.7461 12.1744 31.7852 29.8693 -0.144108 6.86975 84.5751
12142016 10.7902 12.2481 31.8246 29.8693 -0.146714 6.84315 84.7321
12142026 10.7109 12.1744 31.8738 29.7719 -0.188777 6.87802 84.531
12142036 10.7109 12.1744 31.8738 29.7719 -0.188777 6.87802 84.531
12142051 10.658 12.11 31.8639 29.655 -0.224525 6.89625 84.2869
12142056 10.658 12.11 31.8639 29.655 -0.224525 6.89625 84.2869
12142068 10.7373 12.1376 31.8541 29.6258 -0.245392 6.86475 84.3548
12142080 10.7021 11.9902 31.9525 29.5284 -0.337391 6.91228 84.1732
12142098 10.7109 11.981 32.051 29.5381 -0.368616 6.92276 84.281
12142108 10.7373 11.9626 32.1494 29.5576 -0.404729 6.93197 84.4069
12142118 10.7373 11.9626 32.1494 29.5576 -0.404729 6.93197 84.4069
12142128 10.7197 11.9995 32.238 29.5479 -0.417243 6.93451 84.505
12142138 10.7197 11.9995 32.238 29.5479 -0.417243 6.93451 84.505
12142149 10.6756 11.8797 32.3463 29.5186 -0.480793 6.98461 84.4203
12142159 10.7373 11.9074 32.4742 29.4699 -0.54211 6.96891 84.5888
12142179 10.7902 11.8429 32.5924 29.4504 -0.616817 6.98128 84.6758
12142189 10.799 11.7692 32.7006 29.3335 -0.708267 6.99732 84.6024
12142199 10.799 11.7692 32.7006 29.3335 -0.708267 6.99732 84.6024
12142209 10.799 11.7876 32.7499 29.314 -0.722715 6.99534 84.6505
12142230 10.7813 11.7416 32.7695 29.3238 -0.734349 7.01467 84.6163
12142239 10.8166 11.7048 32.868 29.4212 -0.754209 7.03353 84.8105
12142251 10.8166 11.7048 32.868 29.4212 -0.754209 7.03353 84.8105
12142259 10.8342 11.7508 32.9172 29.4407 -0.753418 7.02346 84.9429
12142272 10.7813 11.6956 32.868 29.3822 -0.758769 7.04142 84.7271
12142279 10.7813 11.6956 32.868 29.3822 -0.758769 7.04142 84.7271
12142289 10.7637 11.6863 32.8188 29.392 -0.73947 7.0447 84.6608
12142299 10.7637 11.6863 32.8188 29.392 -0.73947 7.0447 84.6608
12142309 10.7021 11.6495 32.7499 29.353 -0.725068 7.06024 84.4545
12142320 10.7197 11.6311 32.7794 29.3433 -0.747193 7.06232 84.4734
12142330 10.7197 11.6311 32.7794 29.3433 -0.747193 7.06232 84.4734
12142340 10.6668 11.6679 32.8286 29.3725 -0.726031 7.07386 84.5359
12142350 10.6404 11.5943 32.8089 29.2946 -0.759006 7.09088 84.3382
12142370 10.6933 11.5022 32.8089 29.2848 -0.805324 7.10025 84.2892
12142380 10.6933 11.5022 32.8089 29.2848 -0.805324 7.10025 84.2892
12142390 10.5964 11.5206 32.8877 29.392 -0.761722 7.13821 84.3966
12142400 10.6668 11.5022 33.0156 29.353 -0.836104 7.13285 84.5376
12142410 10.6668 11.5022 33.0156 29.353 -0.836104 7.13285 84.5376
12142420 10.6668 11.4561 33.0353 29.3822 -0.846875 7.14946 84.5405
12142431 10.6492 11.4837 33.1042 29.4115 -0.844148 7.15594 84.6487
12142441 10.6492 11.4837 33.1042 29.4115 -0.844148 7.15594 84.6487
12142451 10.6404 11.5022 33.1731 29.4894 -0.831902 7.16701 84.8051
12142461 10.6404 11.5022 33.1731 29.4894 -0.831902 7.16701 84.8051
12142471 10.6492 11.4285 33.1436 29.4797 -0.851429 7.18036 84.701
12142482 10.6052 11.4561 33.1534 29.5576 -0.809492 7.19275 84.7723
12142502 10.5876 11.3824 33.0747 29.6063 -0.789568 7.21391 84.651
12142511 10.5347 11.4009 33.1239 29.7037 -0.753286 7.2364 84.7632
12142525 10.5347 11.4009 33.1239 29.7037 -0.753286 7.2364 84.7632
12142533 10.5611 11.3548 33.0944 29.8499 -0.722024 7.25221 84.8602
12142553 10.5259 11.3364 33.0353 29.7914 -0.718342 7.25556 84.689
12142565 10.5435 11.3732 33.0058 29.7622 -0.712614 7.23587 84.6847
12142573 10.5435 11.3732 33.0058 29.7622 -0.712614 7.23587 84.6847
12142583 10.5259 11.3272 32.927 29.7135 -0.713748 7.24092 84.4936
12142593 10.4202 11.2996 32.9172 29.6745 -0.700775 7.2716 84.3115
12142613 10.4378 11.2719 32.9763 29.6258 -0.746144 7.27519 84.3118
12142633 10.4554 11.1706 33.0255 29.5089 -0.83216 7.29113 84.1604
12142643 10.5171 11.1614 33.1633 29.5673 -0.874199 7.2952 84.4091
12142653 10.5171 11.1614 33.1633 29.5673 -0.874199 7.2952 84.4091
12142664 10.4466 11.1614 33.2027 29.5771 -0.862326 7.3183 84.3878
12142675 10.4554 11.0601 33.3405 29.7037 -0.896424 7.36674 84.5598
12142693 10.4554 11.0601 33.3405 29.7037 -0.896424 7.36674 84.5598
12142696 10.5083 11.0325 33.498 29.8206 -0.928925 7.38477 84.8594
12142704 10.4114 10.8944 33.5866 29.9181 -0.939021 7.46351 84.8104
12142725 10.4466 10.8299 33.6063 30.0544 -0.932613 7.48509 84.9372
12142735 10.4466 10.8299 33.6063 30.0544 -0.932613 7.48509 84.9372
12142746 10.3409 10.7562 33.5669 30.0642 -0.910972 7.53006 84.7282
12142755 10.3762 10.7102 33.6161 30.1129 -0.934142 7.54156 84.8153
12142766 10.3762 10.7102 33.6161 30.1129 -0.934142 7.54156 84.8153
12142776 10.3674 10.6549 33.6259 30.0934 -0.957309 7.55775 84.7416
12142786 10.3409 10.5905 33.5866 30.1032 -0.955401 7.57937 84.6211
12142807 10.3585 10.572 33.6358 30.1908 -0.95315 7.59157 84.7572
12142826 10.2617 10.4155 33.6653 30.2883 -0.952145 7.67034 84.6307
12142837 10.2793 10.3234 33.7441 30.3564 -0.986825 7.70299 84.7032
12142849 10.2793 10.3234 33.7441 30.3564 -0.986825 7.70299 84.7032
12142857 10.2705 10.2313 33.7638 30.5415 -0.961405 7.74762 84.8071
12142867 10.2176 10.1576 33.7736 30.639 -0.941943 7.79074 84.7878
12142888 10.2264 10.2129 33.8031 30.6585 -0.92997 7.7777 84.9009
12142908 10.2617 10.0748 33.7834 30.6195 -0.988577 7.80036 84.7393
12142918 10.2176 10.084 33.8228 30.5318 -1.01135 7.80564 84.6562
12142938 10.2 10.0103 33.7834 30.4636 -1.03885 7.82113 84.4573
12142948 10.2528 10.0655 33.7539 30.3564 -1.06148 7.78028 84.4287
12142961 10.2528 10.0655 33.7539 30.3564 -1.06148 7.78028 84.4287
12142968 10.2617 10.1392 33.7933 30.2493 -1.08547 7.75223 84.4434
12142981 10.2617 10.1392 33.7933 30.2493 -1.08547 7.75223 84.4434
12142988 10.2617 10.1576 33.8228 30.0837 -1.13938 7.73557 84.3258
12142998 10.3497 10.2405 33.7933 29.9375 -1.17556 7.67434 84.3211
12143018 10.4114 10.3234 33.8523 29.7037 -1.25655 7.62027 84.2909
12143028 10.4114 10.3694 33.9212 29.5868 -1.29803 7.60371 84.2889
12143038 10.4114 10.3694 33.9212 29.5868 -1.29803 7.60371 84.2889
12143049 10.5435 10.5076 34 29.5186 -1.33538 7.5324 84.5697
12143069 10.5083 10.5628 34 29.4699 -1.32348 7.52276 84.541
12143078 10.5964 10.5352 34 29.4797 -1.35369 7.50753 84.6112
12143089 10.5964 10.5352 34 29.4797 -1.35369 7.50753 84.6112
12143099 10.6492 10.6089 34 29.4309 -1.36068 7.46959 84.6891
12143109 10.6052 10.5628 34 29.4797 -1.34755 7.49784 84.6477
12143119 10.6052 10.5628 34 29.4797 -1.34755 7.49784 84.6477
12143129 10.658 10.5997 34 29.5089 -1.34176 7.47662 84.7666
12143149 10.6052 10.5905 34 29.4504 -1.34805 7.48791 84.6461
12143159 10.658 10.572 34 29.4407 -1.37158 7.47789 84.6708
12143182 10.6492 10.526 34 29.5576 -1.34707 7.50283 84.7328
12143192 10.5699 10.4615 34 29.6258 -1.32376 7.54707 84.6573
12143211 10.5788 10.3971 34 29.6745 -1.33112 7.56618 84.6503
12143231 10.5347 10.305 33.9902 29.6063 -1.366 7.5957 84.4362
12143240 10.5699 10.351 33.9803 29.5868 -1.36481 7.57139 84.4881
12143261 10.5611 10.3234 33.9803 29.5868 -1.37097 7.58113 84.4517
12143273 10.5523 10.2958 33.9016 29.5966 -1.35204 7.58481 84.3462
12143292 10.5788 10.305 33.9114 29.6063 -1.35628 7.577 84.4015
12143301 10.5259 10.3326 33.9508 29.6063 -1.34388 7.58721 84.4156
12143319 10.5259 10.3326 33.9508 29.6063 -1.34388 7.58721 84.4156
12143331 10.6052 10.3418 33.9606 29.6648 -1.34773 7.56956 84.5724
12143343 10.6052 10.3787 33.9902 29.6258 -1.35665 7.5589 84.5998
12143357 10.5523 10.4247 34 29.6453 -1.32423 7.5633 84.6223
12143363 10.5523 10.4247 34 29.6453 -1.32423 7.5633 84.6223
12143379 10.5876 10.4431 34 29.655 -1.32532 7.54986 84.6857
12143383 10.5876 10.4892 33.9508 29.6453 -1.30027 7.53241 84.6728
12143393 10.5876 10.4892 33.9508 29.6453 -1.30027 7.53241 84.6728
12143403 10.5699 10.5168 33.9705 29.6745 -1.2832 7.53406 84.7317
12143425 10.5876 10.5352 33.872 29.733 -1.23673 7.52095 84.7278
12143434 10.5259 10.5813 33.8425 29.7622 -1.18784 7.52507 84.7118
12143454 10.5788 10.5536 33.7834 29.7914 -1.1856 7.51573 84.7072
12143470 10.4907 10.5628 33.7244 29.8011 -1.1383 7.53236 84.579
12143474 10.4907 10.5628 33.7244 29.8011 -1.1383 7.53236 84.579
12143484 10.5435 10.572 33.6456 29.9278 -1.08908 7.52008 84.689
12143495 10.5435 10.572 33.6456 29.9278 -1.08908 7.52008 84.689
12143504 10.5435 10.6365 33.5373 29.9375 -1.03562 7.49422 84.6549
12143515 10.4995 10.6826 33.4586 29.9181 -0.992647 7.48497 84.5587
12143525 10.4995 10.6826 33.4586 29.9181 -0.992647 7.48497 84.5587
12143535 10.4819 10.7286 33.2913 29.8791 -0.937842 7.45902 84.3808
12143545 10.4378 10.7654 33.3011 29.8499 -0.925747 7.45921 84.3542
12143555 10.4378 10.7654 33.3011 29.8499 -0.925747 7.45921 84.3542
12143565 10.5259 10.8391 33.2224 29.7524 -0.935714 7.40038 84.3398
12143575 10.5259 10.8391 33.2224 29.7524 -0.935714 7.40038 84.3398
12143585 10.4995 10.9772 33.1534 29.694 -0.883998 7.35923 84.3242
12143595 10.5435 10.9957 33.183 29.655 -0.911331 7.34182 84.3772
12143605 10.5435 10.9957 33.183 29.655 -0.911331 7.34182 84.3772
12143615 10.5699 11.143 33.183 29.6258 -0.882649 7.29324 84.5217
12143625 10.5435 11.1891 33.183 29.7037 -0.837196 7.29517 84.6193
12143636 10.5435 11.1891 33.183 29.7037 -0.837196 7.29517 84.6193
12143646 10.5435 11.1706 33.2716 29.9765 -0.785039 7.33277 84.9622
12143657 10.5435 11.1706 33.2716 29.9765 -0.785039 7.33277 84.9622
12143665 10.4819 11.1246 33.183 29.9375 -0.767972 7.34962 84.727
12143675 10.4995 11.1983 33.2027 30.0642 -0.717857 7.33878 84.9646
12143686 10.4995 11.1983 33.2027 30.0642 -0.717857 7.33878 84.9646
12143698 10.5259 11.2259 33.0747 30.0447 -0.686337 7.31124 84.8712
12143707 10.4554 11.2443 32.9566 30.035 -0.629564 7.31335 84.6913
12143719 10.4554 11.2443 32.9566 30.035 -0.629564 7.31335 84.6913
12143726 10.5171 11.2075 32.9467 30.0447 -0.652668 7.3068 84.716
12143740 10.5171 11.2075 32.9467 30.0447 -0.652668 7.3068 84.716
12143746 10.4819 11.2351 32.8975 30.035 -0.622955 7.30344 84.6494
12143756 10.4907 11.1891 32.8286 30.0642 -0.610733 7.30965 84.5725
12143776 10.5083 11.2075 32.8089 30.1032 -0.592765 7.30191 84.6278
12143788 10.4466 11.1798 32.8188 30.259 -0.539088 7.34047 84.7043
12143796 10.4466 11.1798 32.8188 30.259 -0.539088 7.34047 84.7043
12143806 10.4995 11.1062 32.868 30.2785 -0.584877 7.35217 84.7522
12143817 10.4995 11.1062 32.868 30.2785 -0.584877 7.35217 84.7522
12143826 10.4466 11.097 32.7991 30.2883 -0.549586 7.36322 84.6309
12143836 10.4466 11.0601 32.8581 30.2395 -0.592491 7.37389 84.6044
12143846 10.4466 11.0601 32.8581 30.2395 -0.592491 7.37389 84.6044
12143857 10.4731 11.1246 32.7695 30.2785 -0.543292 7.34539 84.6457
12143866 10.3938 11.0509 32.7695 30.2298 -0.557353 7.38145 84.444
12143878 10.3938 11.0509 32.7695 30.2298 -0.557353 7.38145 84.444
12143886 10.4026 11.1062 32.74 30.1129 -0.570025 7.35123 84.3617
12143897 10.4026 11.1062 32.74 30.1129 -0.570025 7.35123 84.3617
12143907 10.4642 11.1062 32.7006 30.0544 -0.594205 7.32602 84.3255
12143916 10.4819 11.2259 32.6613 29.996 -0.569327 7.28077 84.365
12143926 10.4819 11.2259 32.6613 29.996 -0.569327 7.28077 84.365
12143936 10.5259 11.3088 32.6317 29.9083 -0.574981 7.23653 84.3747
12143946 10.5259 11.3088 32.6317 29.9083 -0.574981 7.23653 84.3747
12143964 10.5347 11.318 32.612 29.8888 -0.574946 7.22818 84.3536
12143973 10.5611 11.4561 32.5825 29.8596 -0.541069 7.17946 84.4594
12143978 10.5611 11.4561 32.5825 29.8596 -0.541069 7.17946 84.4594
12143990 10.5259 11.4377 32.6317 29.8986 -0.538905 7.20171 84.4939
12143998 10.5788 11.539 32.5431 30.0057 -0.465699 7.16299 84.6666
12144021 10.6052 11.5943 32.5333 30.0155 -0.450967 7.14162 84.7482
12144029 10.5611 11.5666 32.5727 29.9862 -0.4667 7.1613 84.6867
12144039 10.5611 11.5666 32.5727 29.9862 -0.4667 7.1613 84.6867
12144050 10.5435 11.5943 32.5136 30.2201 -0.366087 7.17483 84.8714
12144069 10.5171 11.4837 32.5136 30.2201 -0.391486 7.21067 84.7345
12144081 10.4907 11.5758 32.4644 30.3662 -0.298314 7.20238 84.8971
12144093 10.4907 11.5758 32.4644 30.3662 -0.298314 7.20238 84.8971
12144105 10.4995 11.5758 32.3463 30.3759 -0.263561 7.19011 84.7975
12144110 10.4819 11.5022 32.2872 30.4246 -0.248614 7.21307 84.6959
12144120 10.4819 11.5022 32.2872 30.4246 -0.248614 7.21307 84.6959
12144130 10.4995 11.493 32.2085 30.4149 -0.236383 7.20272 84.6158
12144154 10.4554 11.4469 32.1592 30.3759 -0.234443 7.21826 84.4375
12144160 10.4554 11.493 32.1592 30.3564 -0.226508 7.20436 84.4641
12144171 10.4554 11.493 32.1592 30.3564 -0.226508 7.20436 84.4641
12144181 10.4731 11.4653 32.1002 30.3077 -0.237168 7.19703 84.3463
12144194 10.4114 11.493 32.0214 30.3272 -0.181788 7.20051 84.253
12144204 10.4114 11.493 32.0214 30.3272 -0.181788 7.20051 84.253
12144212 10.4466 11.5114 32.11 30.259 -0.233094 7.18827 84.327
12144226 10.4642 11.5574 32.11 30.3175 -0.207037 7.17695 84.4492
12144232 10.4642 11.5574 32.11 30.3175 -0.207037 7.17695 84.4492
12144242 10.4642 11.5943 32.1691 30.2201 -0.242463 7.16372 84.4476
12144263 10.4731 11.5943 32.238 30.2785 -0.247763 7.17321 84.5838
12144273 10.4819 11.5758 32.2478 30.2785 -0.25872 7.17664 84.584
12144283 10.4819 11.5758 32.2478 30.2785 -0.25872 7.17664 84.584
12144296 10.5347 11.6495 32.297 30.2493 -0.275275 7.14537 84.7306
12144304 10.5611 11.585 32.238 30.2298 -0.290811 7.14804 84.614
12144324 10.4554 11.6587 32.3463 30.2298 -0.269566 7.16645 84.6902
12144344 10.4642 11.6311 32.2872 30.2785 -0.248592 7.17042 84.6611
12144354 10.4378 11.6311 32.297 30.2298 -0.25828 7.17375 84.5958
12144374 10.4819 11.6403 32.2675 30.1032 -0.297637 7.14531 84.4928
12144390 10.5523 11.6219 32.2478 30.1519 -0.303407 7.13438 84.5739
12144394 10.5523 11.6219 32.2478 30.1519 -0.303407 7.13438 84.5739
12144404 10.5083 11.6403 32.2577 30.1129 -0.299567 7.13838 84.5192
12144415 10.5083 11.6403 32.2577 30.1129 -0.299567 7.13838 84.5192
12144424 10.4907 11.5943 32.238 30.1226 -0.299531 7.15414 84.4455
12144439 10.4642 11.6679 32.2085 30.1421 -0.255276 7.14082 84.4828
12144444 10.4642 11.6679 32.2085 30.1421 -0.255276 7.14082 84.4828
12144454 10.4995 11.6311 32.2478 30.0837 -0.305627 7.13946 84.4621
12144464 10.5083 11.6311 32.2577 30.1421 -0.293575 7.14351 84.5392
12144475 10.5083 11.6311 32.2577 30.1421 -0.293575 7.14351 84.5392
12144484 10.4819 11.5943 32.1986 30.2395 -0.250453 7.16365 84.5143
12144495 10.4819 11.5943 32.1986 30.2395 -0.250453 7.16365 84.5143
12144508 10.4642 11.5298 32.297 30.2785 -0.281717 7.19789 84.5696
12144514 10.5083 11.5206 32.3069 30.3857 -0.26821 7.19954 84.7214
12144535 10.4731 11.4285 32.366 30.6585 -0.221387 7.2633 84.926
12144545 10.3938 11.2811 32.3167 30.8046 -0.184202 7.33164 84.7962
12144557 10.3938 11.2811 32.3167 30.8046 -0.184202 7.33164 84.7962
12144565 10.3145 11.2904 32.3167 30.7948 -0.161141 7.34923 84.7164
12144581 10.3145 11.2904 32.3167 30.7948 -0.161141 7.34923 84.7164
12144585 10.3762 11.1983 32.238 30.7266 -0.203823 7.34398 84.5391
12144595 10.3409 11.1891 32.2281 30.7656 -0.181726 7.35836 84.5238
12144612 10.3409 11.1891 32.2281 30.7656 -0.181726 7.35836 84.5238
12144616 10.3409 11.2259 32.2774 30.7559 -0.188097 7.35219 84.6001
12144627 10.4202 11.1798 32.297 30.8143 -0.213394 7.35048 84.7114
12144650 10.3938 11.1062 32.2774 30.8241 -0.218938 7.37603 84.6014
12144657 10.3938 11.1062 32.2774 30.8241 -0.218938 7.37603 84.6014
12144666 10.2793 11.0878 32.2478 30.8436 -0.176357 7.41034 84.4584
12144676 10.3321 11.1706 32.2478 30.8046 -0.178798 7.37086 84.5552
12144698 10.3497 11.1522 32.3266 30.8241 -0.206733 7.37993 84.6526
12144708 10.3762 11.1154 32.2577 30.7851 -0.21688 7.37296 84.5343
12144722 10.3762 11.1154 32.2577 30.7851 -0.21688 7.37296 84.5343
12144729 10.4202 11.1246 32.3069 30.7266 -0.258888 7.35804 84.5783
12144738 10.4202 11.1246 32.3069 30.7266 -0.258888 7.35804 84.5783
12144749 10.3409 11.0601 32.2577 30.6292 -0.269686 7.38287 84.288
12144759 10.3938 11.1062 32.3069 30.6779 -0.271222 7.36551 84.4848
12144779 10.4026 11.1154 32.3069 30.6779 -0.271046 7.36073 84.5028
12144792 10.3762 11.1522 32.3069 30.6974 -0.246476 7.35974 84.5327
12144799 10.3762 11.1522 32.3069 30.6974 -0.246476 7.35974 84.5327
12144815 10.4114 11.097 32.3364 30.7461 -0.267382 7.3721 84.5909
12144819 10.4378 11.0693 32.3266 30.8338 -0.254305 7.37943 84.6675
12144841 10.4466 11.1246 32.3561 30.8143 -0.254843 7.36341 84.7417
12144850 10.4466 11.1246 32.3561 30.8143 -0.254843 7.36341 84.7417
12144861 10.4466 11.0601 32.2675 30.6682 -0.291863 7.35926 84.4425
12144870 10.4642 11.097 32.3856 30.6877 -0.31466 7.3573 84.6345
12144884 10.4642 11.097 32.3856 30.6877 -0.31466 7.3573 84.6345
12144890 10.4995 11.1246 32.425 30.6195 -0.348541 7.3381 84.6686
12144900 10.4995 11.0693 32.4152 30.4734 -0.406112 7.33856 84.4573
12144910 10.4995 11.0693 32.4152 30.4734 -0.406112 7.33856 84.4573
12144920 10.5083 11.143 32.4152 30.4831 -0.383605 7.31765 84.5496
12144930 10.5083 11.143 32.4152 30.4831 -0.383605 7.31765 84.5496
12144940 10.5347 11.1246 32.3266 30.4344 -0.385666 7.30304 84.4203
12144950 10.4995 11.1798 32.4447 30.4246 -0.396132 7.30763 84.5487
12144970 10.5259 11.2351 32.4152 30.337 -0.404967 7.2754 84.5131
12144981 10.4731 11.1891 32.297 30.4441 -0.336754 7.3005 84.4033
12144994 10.4731 11.1891 32.297 30.4441 -0.336754 7.3005 84.4033
12145001 10.5876 11.2535 32.3463 30.3564 -0.39147 7.24979 84.5438
12145016 10.5876 11.2535 32.3463 30.3564 -0.39147 7.24979 84.5438
12145021 10.5788 11.2535 32.2675 30.298 -0.383529 7.23951 84.3978
12145031 10.6052 11.3548 32.1592 30.2688 -0.337972 7.1932 84.388
12145059 10.5964 11.4469 32.1297 30.2201 -0.313744 7.16406 84.3931
12145061 10.6316 11.4745 32.0411 30.1616 -0.307372 7.13387 84.3089
12145082 10.658 11.5943 32.1494 29.996 -0.360547 7.0902 84.3977
12145092 10.658 11.5943 32.1494 29.996 -0.360547 7.0902 84.3977
12145109 10.6845 11.6219 32.0903 29.9668 -0.351498 7.06777 84.3634
12145125 10.6845 11.6863 32.1297 30.0837 -0.30861 7.06561 84.5842
12145131 10.7285 11.7876 32.0903 30.0447 -0.291337 7.02038 84.6512
12145141 10.6756 11.7692 32.0706 29.9765 -0.296049 7.03065 84.492
12145154 10.6756 11.7692 32.0706 29.9765 -0.296049 7.03065 84.492
12145162 10.7197 11.8061 32.051 29.957 -0.297976 7.00588 84.5337
12145172 10.7197 11.8061 32.051 29.957 -0.297976 7.00588 84.5337
12145181 10.6933 11.7876 32.0214 29.9375 -0.29296 7.01293 84.4399
12145196 10.7285 11.7784 32.0411 29.8888 -0.326383 7.0034 84.4369
12145201 10.7285 11.7784 32.0411 29.8888 -0.326383 7.0034 84.4369
12145211 10.7637 11.8521 32.0017 29.8791 -0.30601 6.97039 84.4967
12145231 10.7637 11.8521 32.0017 29.8791 -0.30601 6.97039 84.4967
12145232 10.7637 11.8613 32.0017 29.8401 -0.314926 6.96429 84.4669
12145244 10.7285 11.8429 32.0116 29.8109 -0.321789 6.97641 84.3939
12145255 10.7285 11.8429 32.0116 29.8109 -0.321789 6.97641 84.3939
12145265 10.7461 11.8613 31.9722 29.8499 -0.298221 6.96699 84.4295
12145274 10.7902 11.935 31.8836 29.8888 -0.251472 6.93167 84.4976
12145284 10.7902 11.935 31.8836 29.8888 -0.251472 6.93167 84.4976
12145294 10.7109 11.9442 31.8836 29.9668 -0.202216 6.95729 84.5055
12145304 10.7725 11.9626 31.8935 29.996 -0.208977 6.94023 84.6246
12145314 10.7725 11.9626 31.8935 29.996 -0.208977 6.94023 84.6246
12145324 10.7725 11.9534 31.923 30.0057 -0.217466 6.94636 84.6547
12145344 10.7197 11.9166 31.7655 30.0934 -0.140597 6.963 84.4952
12145354 10.7549 11.9534 31.8049 30.1226 -0.142887 6.95081 84.6358
12145364 10.7549 11.9534 31.8049 30.1226 -0.142887 6.95081 84.6358
12145375 10.7813 11.9534 31.6966 30.0934 -0.127509 6.93085 84.5247
12145386 10.6845 11.9626 31.6671 30.1032 -0.0846207 6.95174 84.4173
12145395 10.6845 11.9626 31.6671 30.1032 -0.0846207 6.95174 84.4173
12145406 10.7725 12.0547 31.6474 30.1908 -0.051485 6.91149 84.6655
12145415 10.7725 12.0547 31.6474 30.1908 -0.051485 6.91149 84.6655
12145428 10.7197 12.0639 31.608 30.2201 -0.0129119 6.92182 84.6117
12145435 10.7549 12.0915 31.6178 30.1616 -0.0353321 6.9009 84.6259
12145445 10.7549 12.0915 31.6178 30.1616 -0.0353321 6.9009 84.6259
12145455 10.7461 12.1928 31.6178 30.0642 -0.0315875 6.86763 84.621
12145465 10.799 12.156 31.5686 30.0252 -0.0551 6.85501 84.5488
12145478 10.799 12.156 31.5686 30.0252 -0.0551 6.85501 84.5488
12145485 10.8166 12.1928 31.5686 29.9473 -0.0724852 6.83342 84.5253
12145505 10.799 12.2665 31.4308 29.8401 -0.0365019 6.79518 84.3364
12145517 10.7637 12.2941 31.4013 29.7427 -0.0380516 6.78478 84.2018
12145539 10.8518 12.3402 31.3028 29.7719 -0.0126213 6.74336 84.2668
12145546 10.8166 12.3586 31.3028 29.8011 0.0119686 6.75056 84.2792
12145566 10.843 12.4691 31.3127 29.8304 0.0425696 6.71911 84.4552
12145587 10.8518 12.506 31.2831 29.8499 0.0653476 6.70639 84.4908
12145596 10.8606 12.5428 31.2536 29.8693 0.0881076 6.69369 84.5264
12145606 10.8606 12.5428 31.2536 29.8693 0.0881076 6.69369 84.5264
12145616 10.887 12.6441 31.2142 29.8011 0.101703 6.65035 84.5465
12145629 10.8782 12.6901 31.2438 29.7622 0.0976384 6.63988 84.5743
12145651 10.843 12.7178 31.2044 29.7622 0.127926 6.63793 84.5274
12145656 10.843 12.7178 31.2044 29.7622 0.127926 6.63793 84.5274
12145666 10.8606 12.7822 31.1749 29.7524 0.147563 6.61305 84.5702
12145676 10.9223 12.7914 31.0764 29.7427 0.158349 6.5842 84.5328
12145688 10.9223 12.7914 31.0764 29.7427 0.158349 6.5842 84.5328
12145699 10.9487 12.8006 30.9485 29.7232 0.185582 6.56039 84.421
12145708 10.9751 12.8375 31.0567 29.655 0.136241 6.54826 84.5244
12145718 10.9751 12.8375 31.0567 29.655 0.136241 6.54826 84.5244
12145728 10.8782 12.8283 31.0371 29.6842 0.176844 6.57629 84.4278
12145748 10.8166 12.7638 31.0174 29.7037 0.187892 6.60855 84.3015
12145761 10.9223 12.7546 31.0075 29.7719 0.176635 6.58966 84.4563
12145783 10.887 12.7822 30.9878 29.7232 0.186819 6.58479 84.3803
12145788 10.8782 12.7086 31.106 29.7135 0.129676 6.61668 84.4062
12145809 10.8959 12.727 31.0666 29.7037 0.138715 6.60258 84.3931
12145819 10.8959 12.727 31.0666 29.7037 0.138715 6.60258 84.3931
12145829 10.8694 12.6441 31.0863 29.8401 0.156474 6.64607 84.4399
12145839 10.887 12.5888 31.2831 29.8499 0.0793368 6.67609 84.6089
12145859 10.8782 12.6257 31.1946 29.8304 0.11335 6.65826 84.5288
12145870 10.8078 12.552 31.2635 29.9278 0.120804 6.71159 84.551
12145883 10.8078 12.552 31.2635 29.9278 0.120804 6.71159 84.551
12145893 10.843 12.5336 31.1749 29.9375 0.134113 6.69954 84.489
12145910 10.799 12.506 31.1847 29.9668 0.144762 6.72179 84.4564
12145920 10.8166 12.5152 31.2831 29.9083 0.0957578 6.71881 84.5232
12145938 10.8166 12.5152 31.2831 29.9083 0.0957578 6.71881 84.5232
12145941 10.7725 12.4691 31.2142 29.9278 0.121507 6.73715 84.3837
12145951 10.7902 12.5244 31.2142 29.957 0.141147 6.72126 84.4858
12145960 10.7902 12.5244 31.2142 29.957 0.141147 6.72126 84.4858
12145970 10.799 12.4967 31.1847 29.9181 0.127703 6.71938 84.3985
12145980 10.799 12.4967 31.1847 29.9181 0.127703 6.71938 84.3985
12145991 10.8254 12.4599 31.1552 29.8499 0.0976354 6.71247 84.2903
12146002 10.8254 12.5428 31.2044 29.8791 0.116068 6.69885 84.4517
12146022 10.8254 12.5981 31.1946 29.8888 0.138134 6.68466 84.5068
12146032 10.7813 12.5888 31.1552 29.8791 0.157395 6.6935 84.4044
12146051 10.9047 12.6349 31.1158 29.8596 0.140217 6.64424 84.515
12146072 10.8518 12.6717 31.0469 29.9862 0.22448 6.65405 84.5567
12146081 10.8166 12.7086 30.9288 29.9765 0.278249 6.641 84.4304
12146102 10.8606 12.727 30.8205 29.9862 0.305739 6.61522 84.3943
12146111 10.8606 12.7914 30.7417 30.035 0.362444 6.59573 84.4288
12146123 10.8606 12.7914 30.7417 30.035 0.362444 6.59573 84.4288
12146131 10.843 12.8743 30.663 30.0057 0.407073 6.56828 84.3861
12146143 10.843 12.8743 30.663 30.0057 0.407073 6.56828 84.3861
12146152 10.7813 12.8559 30.6925 30.0934 0.436917 6.60044 84.4232
12146161 10.7813 12.9112 30.7516 30.1421 0.449347 6.59703 84.5862
12146173 10.7813 12.9112 30.7516 30.1421 0.449347 6.59703 84.5862
12146181 10.8078 12.8835 30.6925 30.1129 0.442657 6.58856 84.4967
12146193 10.843 12.9204 30.7614 30.035 0.399387 6.56926 84.5598
12146201 10.843 12.9204 30.7614 30.035 0.399387 6.56926 84.5598
12146218 10.8782 12.994 30.8599 29.9473 0.355226 6.54259 84.6794
12146222 10.8782 12.994 30.8599 29.9473 0.355226 6.54259 84.6794
12146232 10.8166 12.9388 30.8008 29.8986 0.36113 6.56162 84.4547
12146243 10.9135 12.9756 30.8303 29.7622 0.294143 6.51682 84.4816
12146268 10.887 12.9388 30.9091 29.5966 0.219139 6.52422 84.3315
12146273 10.8782 13.0033 30.9485 29.6745 0.251776 6.52181 84.5045
12146283 10.8782 13.0033 30.9485 29.6745 0.251776 6.52181 84.5045
12146293 10.9135 12.994 30.9288 29.5673 0.213003 6.50243 84.4036
12146317 10.9575 12.994 30.9485 29.5186 0.179666 6.48829 84.4186
12146323 10.9575 13.0585 30.9682 29.4115 0.161237 6.46306 84.3956
12146333 10.9575 13.0585 30.9682 29.4115 0.161237 6.46306 84.3956
12146343 11.0456 13.0953 30.9386 29.2458 0.105828 6.41151 84.3254
12146353 11.0456 13.0953 30.9386 29.2458 0.105828 6.41151 84.3254
12146364 11.028 13.0585 30.9288 29.2069 0.0916094 6.42037 84.2221
12146373 10.9927 13.0585 30.9288 29.09 0.0674903 6.41742 84.07
12146383 10.9927 13.0585 30.9288 29.09 0.0674903 6.41742 84.07
12146393 11.0544 13.0769 31.0961 29.0023 -0.0211641 6.40518 84.2297
12146404 11.072 13.0585 31.1749 29.0218 -0.0493944 6.41539 84.3272
12146414 11.072 13.0585 31.1749 29.0218 -0.0493944 6.41539 84.3272
12146423 11.1425 13.1138 31.2142 28.9341 -0.0914872 6.37858 84.4046
12146434 11.1513 13.0401 31.2536 28.8367 -0.156663 6.3891 84.2817
12146444 11.1513 13.0401 31.2536 28.8367 -0.156663 6.3891 84.2817
12146454 11.2482 13.0769 31.3422 28.8562 -0.194418 6.36627 84.5235
12146464 11.2482 13.0769 31.3422 28.8562 -0.194418 6.36627 84.5235
12146474 11.2658 13.0033 31.421 28.749 -0.276683 6.37755 84.439
12146484 11.2746 13.1506 31.421 28.6516 -0.264324 6.3281 84.4977
12146510 11.4067 13.0953 31.4603 28.5444 -0.36308 6.30174 84.5068
12146519 11.4067 13.0953 31.4111 28.5444 -0.348723 6.29667 84.4576
12146528 11.4155 13.123 31.4111 28.3593 -0.398648 6.26836 84.3089
12146539 11.442 13.0861 31.4505 28.2619 -0.45834 6.26497 84.2405
12146554 11.4772 13.0953 31.5292 28.1937 -0.509341 6.25485 84.2955
12146567 11.5212 13.1138 31.5194 28.1352 -0.531395 6.23202 84.2896
12146574 11.5212 13.1138 31.5194 28.1352 -0.531395 6.23202 84.2896
12146588 11.5036 13.1046 31.4997 28.0476 -0.549942 6.2276 84.1555
12146610 11.5301 13.0861 31.5489 27.9501 -0.607117 6.22055 84.1153
12146618 11.5124 13.0953 31.5686 27.9209 -0.61381 6.22168 84.0973
12146625 11.5124 13.0953 31.5686 27.9209 -0.61381 6.22168 84.0973
12146636 11.5565 13.1138 31.6178 27.843 -0.658965 6.20293 84.1311
12146648 11.6358 13.1782 31.7064 27.765 -0.711544 6.16788 84.2854
12146665 11.6446 13.1598 31.7753 27.7553 -0.74251 6.17649 84.335
12146675 11.6269 13.1598 31.8147 27.7553 -0.748767 6.18503 84.3568
12146685 11.6269 13.1414 31.8147 27.7553 -0.754392 6.18965 84.3383
12146695 11.671 13.1046 31.9033 27.7456 -0.806691 6.19608 84.4244
12146717 11.6798 13.0861 31.9427 27.6189 -0.86491 6.18938 84.3275
12146728 11.7503 13.0677 32.0116 27.6384 -0.904407 6.18554 84.4679
12146736 11.7503 13.0677 32.0116 27.6384 -0.904407 6.18554 84.4679
12146748 11.7238 13.0953 32.051 27.4923 -0.944492 6.17409 84.3624
12146756 11.7503 13.1046 32.0805 27.4825 -0.960602 6.16722 84.4178
12146772 11.7503 13.1046 32.0805 27.4825 -0.960602 6.16722 84.4178
12146776 11.7943 13.1138 32.0706 27.3754 -1.00049 6.1416 84.3541
12146787 11.7943 13.1138 32.0706 27.3754 -1.00049 6.1416 84.3541
12146798 11.7062 13.0309 32.1002 27.3656 -1.01241 6.18661 84.2029
12146806 11.7855 13.0217 32.1199 27.3266 -1.05546 6.16697 84.2537
12146818 11.7855 13.0217 32.1199 27.3266 -1.05546 6.16697 84.2537
12146828 11.8648 13.0861 32.1494 27.2585 -1.08749 6.12686 84.3587
12146842 11.7943 13.0953 32.1494 27.2292 -1.07369 6.13914 84.2683
12146848 11.7943 13.0953 32.1494 27.2292 -1.07369 6.13914 84.2683
12146858 11.8824 13.0677 32.2085 27.161 -1.14508 6.12302 84.3196
12146878 11.8295 13.0953 32.2675 27.2 -1.1262 6.13965 84.3924
12146891 11.8824 13.0217 32.297 27.1513 -1.18742 6.14285 84.3524
12146898 11.8824 13.0217 32.297 27.1513 -1.18742 6.14285 84.3524
12146908 11.8736 13.0033 32.297 27.0928 -1.20882 6.14354 84.2667
12146918 11.8295 13.0217 32.3167 27.1026 -1.19319 6.15306 84.2705
12146938 11.8648 13.0125 32.3856 27.1221 -1.21938 6.1558 84.3849
12146962 11.8912 13.0309 32.3463 27.1221 -1.21001 6.14044 84.3904
12146969 11.8648 13.0309 32.4349 27.0344 -1.25478 6.14715 84.3649
12146989 11.9176 12.9848 32.4053 27.0344 -1.27568 6.14235 84.3422
12146999 11.8912 12.9756 32.4545 27.0149 -1.29102 6.15441 84.3363
12147009 11.8912 12.9756 32.4545 27.0149 -1.29102 6.15441 84.3363
12147019 11.9264 12.9848 32.4742 26.9954 -1.30966 6.14328 84.3809
12147039 11.8912 12.9112 32.3856 26.9759 -1.30392 6.15927 84.1639
12147050 11.8648 12.9019 32.5136 27.0052 -1.32622 6.18471 84.2855
12147060 11.8648 12.9019 32.5136 27.0052 -1.32622 6.18471 84.2855
12147070 11.8031 12.9572 32.5235 27.161 -1.24588 6.20361 84.4448
12147080 11.7943 12.8651 32.553 27.161 -1.28036 6.23204 84.3734
12147090 11.7943 12.8651 32.553 27.161 -1.28036 6.23204 84.3734
12147101 11.8207 12.8651 32.5727 27.2974 -1.2509 6.24159 84.5559
12147120 11.7238 12.727 32.5924 27.3656 -1.25093 6.30986 84.4088
12147135 11.7503 12.7178 32.5628 27.502 -1.21057 6.3165 84.5329
12147141 11.7503 12.7178 32.5628 27.502 -1.21057 6.3165 84.5329
12147151 11.5741 12.6533 32.5235 27.5507 -1.15464 6.37831 84.3016
12147171 11.6005 12.6349 32.5038 27.6481 -1.13206 6.38422 84.3873
12147172 11.6005 12.6349 32.5038 27.6481 -1.13206 6.38422 84.3873
12147184 11.5301 12.5888 32.5431 27.7456 -1.10736 6.4277 84.4076
12147192 11.5301 12.5888 32.5431 27.7456 -1.10736 6.4277 84.4076
12147202 11.486 12.5336 32.5136 27.7845 -1.09156 6.4539 84.3177
12147212 11.442 12.552 32.612 27.9209 -1.05916 6.48415 84.5269
12147222 11.442 12.552 32.612 27.9209 -1.05916 6.48415 84.5269
12147235 11.3979 12.4875 32.4644 27.8819 -1.03667 6.49295 84.2318
12147241 11.3627 12.4415 32.5333 27.9599 -1.0364 6.52849 84.2974
12147255 11.3627 12.4415 32.5333 27.9599 -1.0364 6.52849 84.2974
12147261 11.3627 12.4231 32.5333 27.9989 -1.03005 6.53711 84.3179
12147282 11.2922 12.377 32.5333 28.0865 -0.997151 6.57569 84.2891
12147291 11.2306 12.3678 32.4644 28.1742 -0.93573 6.59571 84.237
12147303 11.2306 12.3678 32.4644 28.1742 -0.93573 6.59571 84.237
12147311 11.2482 12.377 32.4841 28.1547 -0.949545 6.58886 84.264
12147322 11.1777 12.377 32.5136 28.2814 -0.89891 6.62247 84.3497
12147331 11.1777 12.377 32.5136 28.2814 -0.89891 6.62247 84.3497
12147344 11.1425 12.3126 32.6219 28.3301 -0.924604 6.66359 84.407
12147353 11.1425 12.3126 32.6219 28.3301 -0.924604 6.66359 84.407
12147366 11.1601 12.2481 32.5727 28.4762 -0.890525 6.68517 84.4571
12147373 11.1161 12.2021 32.6022 28.6126 -0.858717 6.7246 84.5329
12147388 11.1161 12.2021 32.6022 28.6126 -0.858717 6.7246 84.5329
12147393 11.0984 12.2113 32.6416 28.6418 -0.853178 6.73347 84.5931
12147403 11.0984 12.1928 32.6317 28.7393 -0.826246 6.74675 84.6623
12147413 11.0984 12.1928 32.6317 28.7393 -0.826246 6.74675 84.6623
12147423 11.0984 12.2665 32.612 28.7393 -0.798167 6.72592 84.7163
12147443 11.0368 12.1284 32.553 28.749 -0.802794 6.77248 84.4671
12147454 11.0456 12.11 32.5333 28.7782 -0.796375 6.77589 84.4671
12147473 11.0104 12.1284 32.5628 28.749 -0.798045 6.78025 84.4506
12147485 11.0368 11.9995 32.5235 28.7782 -0.824825 6.80573 84.3379
12147493 11.0368 11.9995 32.5235 28.7782 -0.824825 6.80573 84.3379
12147503 11.0192 12.0823 32.5628 28.8562 -0.781909 6.80027 84.5205
12147514 11.0192 12.0823 32.5628 28.8562 -0.781909 6.80027 84.5205
12147524 10.9311 11.981 32.5825 28.8951 -0.781323 6.85489 84.3898
12147535 11.0016 11.981 32.5825 28.8756 -0.807483 6.83477 84.4408
12147543 11.0016 11.981 32.5825 28.8756 -0.807483 6.83477 84.4408
12147560 11.0456 12.0271 32.5727 28.8172 -0.82107 6.80488 84.4625
12147564 11.0192 11.9718 32.5825 28.9438 -0.794514 6.83919 84.5173
12147574 11.0192 11.9718 32.5825 28.9438 -0.794514 6.83919 84.5173
12147584 10.9487 12.0271 32.6219 28.8659 -0.792532 6.8394 84.4636
12147609 10.9839 11.9995 32.5431 28.9341 -0.767672 6.83641 84.4606
12147614 10.9575 11.981 32.553 29.0023 -0.747736 6.85554 84.4938
12147624 10.9575 11.981 32.553 29.0023 -0.747736 6.85554 84.4938
12147634 10.9927 12.0179 32.5038 28.9146 -0.759226 6.82368 84.429
12147644 11.0016 12.0271 32.4545 28.9244 -0.741836 6.81519 84.4075
12147657 11.0016 12.0271 32.4545 28.9244 -0.741836 6.81519 84.4075
12147665 10.9839 12.0823 32.4742 28.9828 -0.707799 6.81305 84.5233
12147680 10.9839 12.0823 32.4742 28.9828 -0.707799 6.81305 84.5233
12147685 10.9663 12.0271 32.4447 28.9731 -0.714026 6.82807 84.4112
12147695 10.9311 12.0547 32.4152 28.9925 -0.681034 6.82906 84.3935
12147715 10.9751 12.1284 32.4152 29.0023 -0.668363 6.7996 84.521
12147726 10.9663 12.1192 32.3167 29.012 -0.637288 6.79564 84.4143
12147735 10.9663 12.1192 32.3167 29.012 -0.637288 6.79564 84.4143
12147751 11.0192 12.1468 32.3955 28.9731 -0.678653 6.77875 84.5345
12147758 11.0192 12.1468 32.3955 28.9731 -0.678653 6.77875 84.5345
12147765 11.0104 12.1744 32.1888 28.9438 -0.616971 6.75089 84.3174
12147775 10.9663 12.2297 32.2675 29.0023 -0.592506 6.7614 84.4658
12147785 10.9663 12.2297 32.2675 29.0023 -0.592506 6.7614 84.4658
12147799 11.0192 12.1928 32.2281 28.9633 -0.619388 6.74962 84.4035
12147806 11.028 12.2113 32.2183 29.0023 -0.601681 6.74546 84.4598
12147833 11.0104 12.2481 32.1789 29.012 -0.571097 6.73761 84.4494
12147848 11.0016 12.2573 32.11 28.9828 -0.554655 6.7279 84.3517
12147857 11.0896 12.2941 32.051 28.9341 -0.566663 6.68516 84.3688
12147871 11.0896 12.2941 32.051 28.9341 -0.566663 6.68516 84.3688
12147878 11.072 12.3402 32.0313 28.8562 -0.565523 6.66821 84.2996
12147888 11.1513 12.3586 32.0214 28.8756 -0.574143 6.64409 84.407
12147898 11.1513 12.3586 32.0214 28.8756 -0.574143 6.64409 84.407
12147908 11.1777 12.4323 32.0214 28.788 -0.58603 6.60974 84.4194
12147918 11.1777 12.4323 32.0214 28.788 -0.58603 6.60974 84.4194
12147928 11.1953 12.4691 31.9624 28.749 -0.574686 6.58605 84.3758
12147943 11.213 12.5152 31.8442 28.7685 -0.525707 6.55992 84.3408
12147958 11.2746 12.4967 31.8738 28.7782 -0.554767 6.5528 84.4234
12147969 11.2394 12.5612 31.7655 28.7198 -0.511321 6.52862 84.2859
12147979 11.2394 12.5612 31.7655 28.7198 -0.511321 6.52862 84.2859
12147992 11.301 12.6533 31.795 28.6613 -0.527608 6.4865 84.4107
12147999 11.301 12.6533 31.795 28.6613 -0.527608 6.4865 84.4107
12148009 11.3539 12.6441 31.6867 28.5931 -0.534959 6.45755 84.2778
12148019 11.3363 12.7362 31.6867 28.5834 -0.504917 6.43761 84.3426
12148029 11.3363 12.7362 31.6867 28.5834 -0.504917 6.43761 84.3426
12148039 11.4067 12.7362 31.6375 28.6029 -0.505197 6.4167 84.3833
12148049 11.442 12.6994 31.608 28.5834 -0.523886 6.41211 84.3327
12148060 11.442 12.6994 31.608 28.5834 -0.523886 6.41211 84.3327
12148072 11.4508 12.7546 31.5588 28.5054 -0.519018 6.38288 84.2696
12148080 11.4508 12.8651 31.6671 28.5347 -0.508191 6.36894 84.5176
12148093 11.4508 12.8651 31.6671 28.5347 -0.508191 6.36894 84.5176
12148102 11.5212 12.8283 31.6178 28.4665 -0.546084 6.34843 84.4338
12148115 11.5212 12.8283 31.6178 28.4665 -0.546084 6.34843 84.4338
12148121 11.5301 12.8191 31.5981 28.5249 -0.528045 6.3525 84.4722
12148131 11.5917 12.8651 31.5489 28.3496 -0.570787 6.30221 84.3553
12148152 11.5917 12.8927 31.5489 28.2716 -0.586043 6.28719 84.305
12148161 11.6446 12.8927 31.4997 28.1547 -0.622627 6.25664 84.1917
12148183 11.6446 12.9204 31.4308 28.1742 -0.588331 6.24452 84.17
12148193 11.6446 12.9204 31.4308 28.1742 -0.588331 6.24452 84.17
12148203 11.6974 12.8927 31.4406 28.1255 -0.629728 6.23411 84.1563
12148213 11.7326 12.9019 31.5292 28.145 -0.656797 6.23416 84.3088
12148223 11.7326 12.9019 31.5292 28.145 -0.656797 6.23416 84.3088
12148233 11.6798 12.8743 31.5686 28.0573 -0.688043 6.24943 84.18
12148243 11.7503 12.8651 31.5785 28.145 -0.687292 6.24411 84.3388
12148253 11.7503 12.8651 31.5785 28.145 -0.687292 6.24411 84.3388
12148263 11.7679 12.9204 31.5883 28.1158 -0.687282 6.22376 84.3923
12148275 11.7679 12.9204 31.5883 28.1158 -0.687282 6.22376 84.3923
12148285 11.7326 12.8559 31.7064 28.1645 -0.715934 6.26615 84.4594
12148294 11.7767 12.8835 31.736 28.184 -0.722733 6.25319 84.5801
12148308 11.7767 12.8835 31.736 28.184 -0.722733 6.25319 84.5801
12148314 11.7415 12.7822 31.8049 28.0865 -0.79297 6.28461 84.4151
12148324 11.7062 12.7638 31.8147 28.1547 -0.770488 6.30619 84.4395
12148344 11.6622 12.6994 31.8935 28.1742 -0.794177 6.34368 84.4292
12148364 11.6181 12.6073 31.8935 28.2132 -0.797786 6.38214 84.332
12148377 11.5917 12.4967 31.982 28.2521 -0.837517 6.4299 84.3227
12148384 11.5917 12.4967 31.982 28.2521 -0.837517 6.4299 84.3227
12148398 11.5565 12.4231 32.0214 28.2911 -0.849341 6.46555 84.2921
12148404 11.5036 12.4139 32.1395 28.3885 -0.841008 6.50311 84.4456
12148430 11.4772 12.3862 32.1888 28.447 -0.838095 6.52769 84.4992
12148450 11.3891 12.3218 32.2183 28.4567 -0.838085 6.57055 84.3859
12148454 11.3891 12.3586 32.2478 28.5347 -0.811443 6.57187 84.5302
12148465 11.3891 12.3586 32.2478 28.5347 -0.811443 6.57187 84.5302
12148478 11.3451 12.3034 32.2675 28.5249 -0.824337 6.59823 84.4409
12148486 11.2746 12.2573 32.1888 28.5054 -0.801599 6.61831 84.2261
12148510 11.2746 12.2021 32.2577 28.5736 -0.817417 6.6461 84.308
12148515 11.2746 12.2021 32.2577 28.5736 -0.817417 6.6461 84.308
12148525 11.2922 12.1652 32.2774 28.6029 -0.83044 6.65588 84.3377
12148535 11.2658 12.2297 32.297 28.6808 -0.784969 6.65577 84.4733
12148545 11.2658 12.2297 32.297 28.6808 -0.784969 6.65577 84.4733
12148556 11.2394 12.2297 32.2478 28.6808 -0.763266 6.65769 84.3977
12148565 11.2218 12.2113 32.238 28.5834 -0.79079 6.65633 84.2544
12148585 11.1953 12.2573 32.2085 28.6905 -0.727884 6.65897 84.3516
12148599 11.1953 12.2573 32.2085 28.6905 -0.727884 6.65897 84.3516
12148605 11.1953 12.2113 32.1789 28.7295 -0.721544 6.67173 84.315
12148615 11.213 12.2297 32.1297 28.71 -0.712764 6.65568 84.2824
12148625 11.213 12.2297 32.1297 28.71 -0.712764 6.65568 84.2824
12148635 11.1953 12.2481 32.1199 28.7295 -0.693293 6.65643 84.2928
12148645 11.1601 12.1284 32.1789 28.7393 -0.733727 6.7031 84.2067
12148655 11.1601 12.1284 32.1789 28.7393 -0.733727 6.7031 84.2067
12148671 11.2306 12.2481 32.2085 28.8562 -0.690405 6.66864 84.5433
12148675 11.2306 12.2481 32.2085 28.8562 -0.690405 6.66864 84.5433
12148690 11.1601 12.1928 32.2085 28.8756 -0.681002 6.70283 84.4371
12148695 11.1601 12.2113 32.2478 28.9146 -0.674896 6.70579 84.5338
12148717 11.1953 12.2297 32.2577 28.9341 -0.67635 6.6949 84.6168
12148726 11.2041 12.2113 32.1888 28.9925 -0.646919 6.69634 84.5967
12148736 11.2041 12.2113 32.1888 28.9925 -0.646919 6.69634 84.5967
12148747 11.213 12.2113 32.2281 28.9633 -0.669646 6.69508 84.6157
12148756 11.213 12.2113 32.2281 28.9633 -0.669646 6.69508 84.6157
12148766 11.1425 12.1376 32.1986 28.9341 -0.672114 6.72634 84.4128
12148776 11.1425 12.2389 32.1395 29.0023 -0.603636 6.7012 84.5232
12148796 11.1513 12.2205 32.1199 28.9438 -0.6238 6.69599 84.4355
12148807 11.1425 12.1836 32.1494 29.0315 -0.614361 6.71922 84.507
12148816 11.1425 12.1836 32.1494 29.0315 -0.614361 6.71922 84.507
12148827 11.1601 12.156 32.1691 28.9925 -0.645323 6.71991 84.4777
12148848 11.0808 12.156 32.0805 29.0607 -0.576144 6.73831 84.3781
12148858 11.0896 12.1744 32.1592 29.0413 -0.601788 6.7371 84.4646
12148868 11.0896 12.1744 32.1592 29.0413 -0.601788 6.7371 84.4646
12148879 11.1073 12.1376 32.0608 29.0802 -0.577773 6.73623 84.3859
12148888 11.1073 12.1468 32.1395 29.0705 -0.600702 6.74061 84.4641
12148901 11.1073 12.1468 32.1395 29.0705 -0.600702 6.74061 84.4641
12148908 11.1249 12.1468 32.1494 29.1874 -0.573248 6.74846 84.6085
12148918 11.1249 12.1468 32.1494 29.1874 -0.573248 6.74846 84.6085
12148928 11.1073 12.1284 32.1592 29.09 -0.606066 6.74918 84.4848
12148938 11.1337 12.1836 32.1395 29.1874 -0.56182 6.73577 84.6443
12148948 11.1337 12.1836 32.1395 29.1874 -0.56182 6.73577 84.6443
12148958 11.1777 12.1284 32.1592 29.09 -0.626394 6.73106 84.5553
12148968 11.1777 12.1284 32.1888 29.09 -0.634904 6.73394 84.5848
12148978 11.1161 12.1284 32.1888 29.1582 -0.596477 6.75645 84.5914
12148988 11.1689 12.11 32.0903 29.0023 -0.636171 6.72272 84.3715
12149010 11.1249 12.1284 31.982 28.9438 -0.604273 6.71294 84.1791
12149018 11.1601 12.1836 32.0116 28.9925 -0.591446 6.69733 84.3479
12149028 11.1601 12.1836 32.0116 28.9925 -0.591446 6.69733 84.3479
12149038 11.1953 12.2113 31.9919 29.0315 -0.575756 6.68308 84.43
12149059 11.1601 12.2297 31.982 29.0413 -0.554182 6.68738 84.4131
12149070 11.2041 12.2297 31.9919 29.0218 -0.575677 6.67512 84.4475
12149081 11.2041 12.2297 31.9919 29.0218 -0.575677 6.67512 84.4475
12149093 11.1777 12.2757 31.923 28.9828 -0.545932 6.65944 84.3593
12149103 11.257 12.2941 31.8836 28.9925 -0.548968 6.63145 84.4273
12149123 11.3187 12.3218 31.8147 28.9438 -0.553249 6.5969 84.399
12149129 11.301 12.3586 31.795 28.9438 -0.531292 6.59002 84.3985
12149144 11.301 12.3586 31.795 28.9438 -0.531292 6.59002 84.3985
12149149 11.2922 12.4139 31.6867 28.9341 -0.483537 6.56636 84.3269
12149170 11.3539 12.4231 31.7163 28.9731 -0.49547 6.55511 84.4663
12149180 11.3187 12.4415 31.6769 28.8854 -0.494729 6.54668 84.3224
12149200 11.3451 12.5336 31.608 28.8951 -0.451624 6.51049 84.3818
12149213 11.3363 12.552 31.5489 28.9049 -0.423372 6.50308 84.3421
12149220 11.3363 12.552 31.5489 28.9049 -0.423372 6.50308 84.3421
12149231 11.3363 12.5704 31.5588 29.0315 -0.382589 6.51211 84.497
12149252 11.3363 12.552 31.5489 28.9146 -0.420438 6.50406 84.3518
12149261 11.3803 12.5981 31.5194 28.9438 -0.401999 6.48109 84.4416
12149275 11.3803 12.5981 31.5194 28.9438 -0.401999 6.48109 84.4416
12149281 11.3187 12.552 31.4997 28.9146 -0.400947 6.50359 84.285
12149291 11.3275 12.5796 31.4997 28.8756 -0.406934 6.49037 84.2824
12149301 11.3275 12.5796 31.4997 28.8756 -0.406934 6.49037 84.2824
12149314 11.2834 12.5612 31.5588 28.9731 -0.387524 6.52206 84.3765
12149332 11.3187 12.5244 31.5686 29.051 -0.388305 6.53128 84.4626
12149342 11.301 12.5152 31.6375 28.9925 -0.423595 6.53916 84.4463
12149351 11.301 12.5152 31.6375 28.9925 -0.423595 6.53916 84.4463
12149364 11.2482 12.4967 31.608 29.012 -0.399274 6.55635 84.365
12149371 11.257 12.4875 31.6375 29.0607 -0.398563 6.56428 84.4428
12149381 11.257 12.4875 31.6375 29.0607 -0.398563 6.56428 84.4428
12149392 11.2218 12.4783 31.6671 29.051 -0.402604 6.57761 84.4182
12149402 11.2218 12.4783 31.6671 29.051 -0.402604 6.57761 84.4182
12149412 11.1865 12.4599 31.7261 29.0315 -0.420955 6.59527 84.4041
12149423 11.1689 12.4415 31.7852 29.1192 -0.412177 6.61907 84.5148
12149433 11.1689 12.4415 31.7852 29.1192 -0.412177 6.61907 84.5148
12149443 11.1689 12.4047 31.7163 29.1289 -0.40026 6.62263 84.4188
12149454 11.1425 12.377 31.7852 29.1289 -0.420949 6.64331 84.4336
12149463 11.1425 12.377 31.7852 29.1289 -0.420949 6.64331 84.4336
12149475 11.1249 12.3402 31.795 29.1387 -0.426848 6.65921 84.3988
12149493 11.0192 12.4047 31.8344 29.1971 -0.370541 6.67945 84.4554
12149503 11.0544 12.3586 31.8049 29.1971 -0.386044 6.67932 84.415
12149523 11.072 12.3678 31.7852 29.1777 -0.388531 6.66857 84.4027
12149533 11.072 12.3678 31.7852 29.1777 -0.388531 6.66857 84.4027
12149543 11.0192 12.3402 31.8246 29.2556 -0.369476 6.70079 84.4395
12149553 11.072 12.331 31.7852 29.2946 -0.36447 6.68954 84.4827
12149565 11.072 12.331 31.7852 29.2946 -0.36447 6.68954 84.4827
12149573 11.0192 12.3218 31.7852 29.2264 -0.372307 6.69878 84.3525
12149589 10.9663 12.3586 31.7556 29.3238 -0.307915 6.70957 84.4044
12149604 11.0632 12.3494 31.795 29.3335 -0.347553 6.69188 84.5412
12149614 11.0016 12.331 31.736 29.2556 -0.341223 6.69898 84.3241
12149627 11.0016 12.331 31.736 29.2556 -0.341223 6.69898 84.3241
12149634 11.0368 12.4323 31.6966 29.3238 -0.289179 6.66674 84.4894
12149644 11.0368 12.4323 31.6966 29.3238 -0.289179 6.66674 84.4894
12149658 11.0192 12.3862 31.6671 29.3238 -0.289173 6.68017 84.3962
12149664 11.0544 12.3494 31.7458 29.2848 -0.345236 6.6845 84.4344
12149674 11.0544 12.3494 31.7458 29.2848 -0.345236 6.6845 84.4344
12149684 11.0808 12.4139 31.6769 29.2361 -0.328097 6.64956 84.4077
12149695 11.0368 12.4599 31.6867 29.2361 -0.304288 6.65003 84.4195
12149705 11.0368 12.4599 31.6867 29.2361 -0.304288 6.65003 84.4195
12149715 11.1161 12.4599 31.6572 29.2361 -0.318831 6.62679 84.4693
12149732 11.1161 12.4599 31.6572 29.2361 -0.318831 6.62679 84.4693
12149735 11.0896 12.4691 31.6375 29.2361 -0.302589 6.62924 84.4324
12149751 11.1161 12.4507 31.6178 29.2458 -0.307162 6.62621 84.4305
12149766 11.1249 12.5152 31.6375 29.2069 -0.307851 6.60554 84.4844
12149776 11.1337 12.506 31.608 29.1582 -0.319156 6.59786 84.4058
12149786 11.1337 12.506 31.608 29.1582 -0.319156 6.59786 84.4058
12149798 11.1425 12.552 31.6671 29.1679 -0.322263 6.59069 84.5294
12149806 11.1425 12.552 31.6671 29.1679 -0.322263 6.59069 84.5294
12149824 11.1601 12.4875 31.6277 29.1679 -0.335234 6.59874 84.4432
12149826 11.1337 12.506 31.4997 29.0705 -0.313783 6.57831 84.2098
12149847 11.1425 12.5612 31.4899 29.1095 -0.285187 6.56482 84.303
12149857 11.1161 12.5244 31.5292 29.0315 -0.323452 6.57716 84.2012
12149869 11.1161 12.5244 31.5292 29.0315 -0.323452 6.57716 84.2012
12149877 11.1777 12.5428 31.4997 29.0607 -0.318547 6.55663 84.281
12149893 11.1777 12.5428 31.4997 29.0607 -0.318547 6.55663 84.281
12149898 11.1073 12.552 31.5588 29.0997 -0.300741 6.58211 84.3177
12149908 11.1601 12.5612 31.5292 29.0802 -0.310653 6.56133 84.3308
12149920 11.1601 12.5612 31.5292 29.0802 -0.310653 6.56133 84.3308
12149928 11.1689 12.5336 31.4997 29.0705 -0.315806 6.56221 84.2727
12149944 11.2658 12.6717 31.48 29.0218 -0.311564 6.49536 84.4393
12149949 11.2658 12.6717 31.48 29.0218 -0.311564 6.49536 84.4393
12149959 11.2041 12.6349 31.5096 28.9731 -0.327837 6.51854 84.3217
12149969 11.2658 12.727 31.4308 29.0218 -0.280611 6.47634 84.4454
12149979 11.2658 12.727 31.4308 29.0218 -0.280611 6.47634 84.4454
12149990 11.2834 12.7362 31.421 28.9731 -0.29472 6.4636 84.4136
12149999 11.2834 12.7362 31.421 28.9731 -0.29472 6.4636 84.4136
12150011 11.3187 12.7178 31.4013 28.8659 -0.336953 6.44648 84.3036
12150019 11.3187 12.7086 31.3324 28.8951 -0.310764 6.44479 84.2547
12150034 11.3187 12.7086 31.3324 28.8951 -0.310764 6.44479 84.2547
12150041 11.3891 12.8099 31.3422 28.9633 -0.283462 6.4091 84.5045
12150049 11.3451 12.8099 31.3324 28.9633 -0.26769 6.41927 84.4506
12150059 11.3451 12.8006 31.3324 28.8367 -0.308402 6.40872 84.3148
12150069 11.4155 12.6994 31.3717 28.8269 -0.373903 6.41957 84.3136
12150090 11.3539 12.8283 31.3619 28.8269 -0.31426 6.40149 84.371
12150107 11.3715 12.8375 31.2831 28.8562 -0.284833 6.38964 84.3483
12150123 11.442 12.7638 31.3619 28.8269 -0.359361 6.3955 84.3946
12150131 11.4067 12.7822 31.3521 28.8269 -0.340657 6.39876 84.368
12150146 11.4067 12.7822 31.3521 28.8269 -0.340657 6.39876 84.368
12150151 11.4596 12.8375 31.2142 28.7782 -0.313835 6.35228 84.2895
12150171 11.4244 12.8283 31.293 28.8367 -0.311792 6.37759 84.3823
12150181 11.4684 12.8006 31.3127 28.7782 -0.356272 6.36947 84.3599
12150191 11.4684 12.8006 31.3127 28.7782 -0.356272 6.36947 84.3599
12150204 11.4508 12.7914 31.2831 28.8659 -0.318927 6.38221 84.3913
12150214 11.4596 12.7914 31.2733 28.8269 -0.330319 6.37499 84.3513
12150223 11.4596 12.7914 31.2733 28.8269 -0.330319 6.37499 84.3513
12150237 11.4596 12.8559 31.2635 28.8074 -0.313941 6.35566 84.3864
12150243 11.4596 12.8559 31.2635 28.8074 -0.313941 6.35566 84.3864
12150253 11.4684 12.8006 31.2536 28.749 -0.347795 6.36043 84.2717
12150264 11.4596 12.8835 31.2831 28.7977 -0.314336 6.34969 84.424
12150274 11.4596 12.8835 31.2831 28.7977 -0.314336 6.34969 84.424
12150286 11.4508 12.8006 31.3324 28.7198 -0.374459 6.36996 84.3036
12150294 11.442 12.8099 31.2044 28.7198 -0.33167 6.35674 84.176
12150314 11.442 12.8835 31.2733 28.749 -0.320917 6.34814 84.3478
12150324 11.4596 12.8375 31.2831 28.7295 -0.348635 6.35435 84.3097
12150334 11.4596 12.8375 31.2831 28.7295 -0.348635 6.35435 84.3097
12150347 11.4596 12.8375 31.3816 28.7587 -0.3686 6.36743 84.4374
12150355 11.4596 12.8375 31.3816 28.7587 -0.3686 6.36743 84.4374
12150372 11.4155 12.8006 31.2733 28.6613 -0.36449 6.36686 84.1508
12150375 11.4684 12.8467 31.2635 28.6808 -0.357337 6.34277 84.2594
12150385 11.4684 12.8467 31.2635 28.6808 -0.357337 6.34277 84.2594
12150395 11.4596 12.9296 31.3422 28.6418 -0.364569 6.32811 84.3732
12150405 11.4772 12.8927 31.3028 28.7003 -0.351715 6.33493 84.3731
12150416 11.4772 12.8927 31.3028 28.7003 -0.351715 6.33493 84.3731
12150425 11.5036 12.8743 31.3127 28.6905 -0.370771 6.33292 84.3812
12150447 11.5036 12.8099 31.3225 28.71 -0.387172 6.35224 84.346
12150461 11.4596 12.9112 31.3521 28.6711 -0.36419 6.33678 84.3939
12150466 11.4596 12.9112 31.3521 28.6711 -0.36419 6.33678 84.3939
12150478 11.4772 12.8559 31.3028 28.6418 -0.38038 6.33825 84.2778
12150488 11.5124 12.8191 31.3028 28.6808 -0.390024 6.34266 84.3151
12150498 11.5124 12.8191 31.3028 28.6808 -0.390024 6.34266 84.3151
12150510 11.4948 12.9204 31.2536 28.6613 -0.345887 6.31443 84.3301
12150518 11.5301 12.8375 31.2142 28.6711 -0.36668 6.32342 84.2528
12150530 11.5301 12.8375 31.2142 28.6711 -0.36668 6.32342 84.2528
12150539 11.5389 12.8375 31.2339 28.6711 -0.37501 6.32322 84.2813
12150548 11.5389 12.8375 31.2339 28.6711 -0.37501 6.32322 84.2813
12150559 11.4684 12.8375 31.2438 28.6516 -0.36315 6.34007 84.2012
12150569 11.4332 12.8651 31.293 28.6516 -0.35892 6.34706 84.2428
12150589 11.5124 12.8559 31.3127 28.6418 -0.393543 6.33034 84.3229
12150599 11.486 12.8099 31.2536 28.6711 -0.373636 6.34563 84.2206
12150609 11.486 12.8099 31.2536 28.6711 -0.373636 6.34563 84.2206
12150621 11.5036 12.8467 31.3717 28.6613 -0.405101 6.34297 84.3834
12150642 11.5477 12.8467 31.3521 28.6905 -0.403404 6.33281 84.437
12150649 11.5389 12.9112 31.3619 28.7003 -0.381398 6.32077 84.5122
12150659 11.5389 12.9112 31.3619 28.7003 -0.381398 6.32077 84.5122
12150670 11.5477 12.948 31.3717 28.749 -0.361167 6.31528 84.6164
12150681 11.5477 12.948 31.421 28.749 -0.375488 6.32033 84.6656
12150692 11.5301 12.8835 31.421 28.6029 -0.433639 6.32603 84.4374
12150699 11.5124 12.9664 31.3521 28.6711 -0.363013 6.30949 84.502
12150718 11.5124 12.9664 31.3521 28.6711 -0.363013 6.30949 84.502
12150720 11.5565 12.9112 31.2733 28.5347 -0.410545 6.29013 84.2756
12150729 11.5917 12.9572 31.1946 28.4372 -0.413342 6.25135 84.1807
12150750 11.5917 12.9572 31.1355 28.3398 -0.425522 6.23506 84.0242
12150760 11.5829 13.0033 31.0863 28.3009 -0.406401 6.21644 83.9733
12150770 11.5829 13.0033 31.0863 28.3009 -0.406401 6.21644 83.9733
12150780 11.6798 13.1046 31.106 28.3691 -0.389318 6.1757 84.2594
12150795 11.6798 13.1046 31.106 28.3691 -0.389318 6.1757 84.2594
12150800 11.6622 13.1046 31.0371 28.2716 -0.393414 6.16267 84.0754
12150812 11.7062 13.123 31.0863 28.3788 -0.382806 6.16339 84.2943
12150820 11.7062 13.123 31.0863 28.3788 -0.382806 6.16339 84.2943
12150830 11.7415 13.1506 31.0174 28.2716 -0.396939 6.12911 84.181
12150840 11.7943 13.2427 31.0272 28.3301 -0.369912 6.09999 84.3943
12150862 11.8824 13.2795 31.0174 28.2814 -0.396296 6.06262 84.4607
12150881 11.8824 13.2427 30.978 28.2327 -0.410569 6.06248 84.3357
12150893 11.9 13.2611 30.9189 28.1742 -0.410549 6.04101 84.2543
12150901 11.9 13.2611 30.9189 28.1742 -0.410549 6.04101 84.2543
12150912 11.9 13.2887 30.8894 28.1547 -0.399472 6.02889 84.2329
12150927 11.9264 13.3072 30.8303 28.0963 -0.402012 6.00516 84.1602
12150931 11.9264 13.3072 30.8303 28.0963 -0.402012 6.00516 84.1602
12150941 11.9264 13.3256 30.85 28.145 -0.387521 6.00787 84.247
12150951 11.9264 13.3256 30.85 28.145 -0.387521 6.00787 84.247
12150961 11.9088 13.2887 30.8402 28.0963 -0.405301 6.01521 84.134
12150971 11.9528 13.3164 30.8894 28.145 -0.409506 6.00778 84.3036
12150999 11.9617 13.39 30.8402 28.1645 -0.369665 5.98407 84.3564
12151008 11.9352 13.39 30.8107 28.1158 -0.367974 5.98228 84.2517
12151016 11.9352 13.2795 30.8107 28.1158 -0.40129 6.00984 84.1412
12151023 11.9617 13.344 30.8599 28.0865 -0.412753 5.98931 84.2521
12151035 11.9617 13.344 30.8599 28.0865 -0.412753 5.98931 84.2521
12151041 12.0145 13.39 30.8008 28.0768 -0.399995 5.95732 84.2821
12151051 11.9969 13.4361 30.7024 28.0768 -0.352204 5.93968 84.2121
12151073 12.0233 13.3808 30.6827 28.0281 -0.385514 5.93949 84.1149
12151093 12.0497 13.3808 30.7319 28.067 -0.395873 5.94241 84.2295
12151104 12.0409 13.4361 30.6728 28.0573 -0.362317 5.92345 84.2072
12151113 12.0409 13.4361 30.6728 28.0573 -0.362317 5.92345 84.2072
12151125 12.0321 13.4545 30.6335 28.106 -0.328007 5.92207 84.2261
12151133 12.0497 13.4361 30.6138 28.067 -0.344671 5.91594 84.1666
12151147 12.0497 13.4361 30.6138 28.067 -0.344671 5.91594 84.1666
12151153 12.0674 13.4545 30.5843 28.0378 -0.344437 5.90064 84.1439
12151164 12.0057 13.4545 30.5843 28.0573 -0.32049 5.91807 84.1018
12151173 12.0057 13.4729 30.5843 28.0573 -0.314945 5.91349 84.1202
12151183 12.129 13.5558 30.6532 28.0963 -0.334609 5.87403 84.4342
12151193 12.129 13.5558 30.6532 28.0963 -0.334609 5.87403 84.4342
12151203 12.0585 13.519 30.6236 28.067 -0.3252 5.89425 84.2682
12151215 12.129 13.5282 30.5843 28.0963 -0.322756 5.87341 84.3377
12151223 12.129 13.5282 30.5843 28.0963 -0.322756 5.87341 84.3377
12151240 12.0762 13.5374 30.6039 28.0768 -0.316137 5.88424 84.2943
12151244 12.0762 13.5374 30.6039 28.0768 -0.316137 5.88424 84.2943
12151254 12.0762 13.4729 30.5449 28.067 -0.321133 5.89278 84.161
12151266 12.1114 13.5282 30.5646 28.0378 -0.329402 5.86931 84.242
12151274 12.1114 13.5282 30.5646 28.0378 -0.329402 5.86931 84.242
12151291 12.085 13.565 30.4563 27.9794 -0.296389 5.84862 84.0856
12151294 12.1642 13.6203 30.4169 27.8722 -0.323729 5.79931 84.0736
12151304 12.1642 13.6203 30.4169 27.8722 -0.323729 5.79931 84.0736
12151315 12.2171 13.6018 30.3677 27.9209 -0.315675 5.79074 84.1075
12151324 12.2171 13.6018 30.3677 27.9209 -0.315675 5.79074 84.1075
12151339 12.1819 13.5926 30.3185 27.8527 -0.314187 5.78887 83.9457
12151344 12.2435 13.74 30.2889 27.8332 -0.285132 5.73184 84.1057
12151354 12.2435 13.74 30.2889 27.8332 -0.285132 5.73184 84.1057
12151364 12.2523 13.786 30.2594 27.7943 -0.276916 5.71076 84.092
12151375 12.2964 13.7952 30.2988 27.7456 -0.313291 5.69663 84.1359
12151395 12.358 13.8505 30.1905 27.7553 -0.280066 5.65698 84.1543
12151415 12.3492 13.8781 30.22 27.6287 -0.315931 5.64156 84.076
12151429 12.4109 13.9426 30.1118 27.5897 -0.294563 5.5942 84.0549
12151435 12.4109 13.9426 30.1118 27.5897 -0.294563 5.5942 84.0549
12151445 12.4637 13.961 30.1314 27.5312 -0.327918 5.57241 84.0874
12151455 12.4902 13.9978 30.1511 27.502 -0.339144 5.55587 84.1411
12151476 12.5782 14.0439 30.1216 27.5507 -0.327791 5.52531 84.2944
12151485 12.5782 14.0439 30.1216 27.5507 -0.327791 5.52531 84.2944
12151497 12.4725 13.9794 30.1118 27.6092 -0.295734 5.57228 84.1729
12151505 12.5166 13.961 30.1118 27.5897 -0.320047 5.56383 84.179
12151518 12.5166 13.961 30.1118 27.5897 -0.320047 5.56383 84.179
12151526 12.5342 14.007 30.0625 27.4923 -0.326242 5.53181 84.096
12151538 12.5782 14.0439 30.1314 27.5215 -0.339457 5.52313 84.275
12151546 12.5782 14.0439 30.1314 27.5215 -0.339457 5.52313 84.275
12151556 12.6135 14.0163 30.0921 27.5312 -0.343625 5.51795 84.253
12151566 12.6135 14.0163 30.0921 27.5312 -0.343625 5.51795 84.253
12151577 12.5254 14.0531 30.1314 27.5702 -0.306578 5.53924 84.2801
12151586 12.5606 14.0255 30.0724 27.5994 -0.299117 5.53403 84.2579
12151606 12.543 14.007 30.1905 27.5215 -0.357507 5.54733 84.262
12151619 12.543 14.0163 30.161 27.4436 -0.369571 5.53301 84.1638
12151626 12.543 14.0163 30.161 27.4436 -0.369571 5.53301 84.1638
12151636 12.5606 14.0347 30.161 27.4338 -0.372109 5.52312 84.1901
12151655 12.5606 14.0347 30.161 27.4338 -0.372109 5.52312 84.1901
12151664 12.4725 13.9886 30.1807 27.4241 -0.368908 5.55699 84.0659
12151668 12.5078 14.0347 30.1118 27.3851 -0.356905 5.52499 84.0393
12151679 12.5078 14.0347 30.1118 27.3851 -0.356905 5.52499 84.0393
12151688 12.5166 13.9518 30.1314 27.4143 -0.381458 5.5486 84.0141
12151700 12.5254 13.961 30.1708 27.4825 -0.372204 5.55628 84.1397
12151708 12.5254 13.961 30.1708 27.4825 -0.372204 5.55628 84.1397
12151721 12.543 13.9334 30.2791 27.4728 -0.420272 5.56978 84.2282
12151729 12.4549 13.8965 30.22 27.5312 -0.370735 5.60026 84.1027
12151746 12.4549 13.8965 30.22 27.5312 -0.370735 5.60026 84.1027
12151749 12.4813 13.8781 30.3086 27.541 -0.406986 5.60928 84.2091
12151759 12.4813 13.8781 30.3086 27.541 -0.406986 5.60928 84.2091
12151772 12.4109 13.915 30.2693 27.6092 -0.343217 5.62072 84.2043
12151779 12.4021 13.9518 30.3578 27.6189 -0.352547 5.62481 84.3306
12151789 12.4021 13.9518 30.3578 27.6189 -0.352547 5.62481 84.3306
12151799 12.4549 13.9426 30.3185 27.7066 -0.332916 5.61951 84.4226
12151809 12.3756 13.9426 30.2693 27.7066 -0.295314 5.63343 84.2941
12151823 12.3756 13.8413 30.2693 27.6189 -0.352152 5.64851 84.1051
12151829 12.4549 13.8965 30.2889 27.6287 -0.361542 5.61881 84.2691
12151851 12.3756 13.8689 30.2889 27.6676 -0.334927 5.64933 84.2011
12151860 12.3316 13.8229 30.3775 27.7066 -0.350103 5.68558 84.2386
12151874 12.3316 13.8229 30.3775 27.7066 -0.350103 5.68558 84.2386
12151880 12.2964 13.786 30.3972 27.7456 -0.34491 5.70976 84.2252
12151891 12.2083 13.7308 30.4268 27.7845 -0.332661 5.7526 84.1503
12151900 12.2083 13.7308 30.4268 27.7845 -0.332661 5.7526 84.1503
12151910 12.1202 13.7124 30.4563 27.843 -0.303441 5.78854 84.1318
12151925 12.1202 13.7124 30.4563 27.843 -0.303441 5.78854 84.1318
12151930 12.1378 13.6663 30.5153 27.9014 -0.322196 5.80841 84.2209
12151951 12.0674 13.6479 30.6335 27.9989 -0.312424 5.85383 84.3476
12151953 12.0674 13.6479 30.6335 27.9989 -0.312424 5.85383 84.3476
12151962 12.0321 13.6111 30.5941 27.9794 -0.30748 5.86528 84.2166
12151977 11.9617 13.6111 30.6728 28.0281 -0.295281 5.89654 84.2736
12151982 11.9617 13.6111 30.6728 28.0281 -0.295281 5.89654 84.2736
12151992 11.9617 13.6295 30.7221 28.0183 -0.307097 5.89624 84.3315
12152007 11.9617 13.6295 30.7221 28.0183 -0.307097 5.89624 84.3315
12152012 11.9176 13.5742 30.6827 28.0281 -0.296311 5.91768 84.2026
12152022 11.8912 13.6479 30.7713 28.0768 -0.277823 5.92075 84.3871
12152033 11.8912 13.6479 30.7713 28.0768 -0.277823 5.92075 84.3871
12152043 11.8383 13.5098 30.8008 28.067 -0.315367 5.97032 84.216
12152057 11.8119 13.565 30.8402 28.106 -0.290869 5.97154 84.3231
12152073 11.8031 13.4913 30.85 28.1937 -0.286973 6.00249 84.3382
12152083 11.8031 13.4913 30.85 28.1937 -0.286973 6.00249 84.3382
12152093 11.7767 13.4637 30.9091 28.106 -0.33115 6.01291 84.2555
12152107 11.7591 13.4729 30.8894 28.1158 -0.314528 6.01395 84.2371
12152113 11.7591 13.4729 30.8894 28.1158 -0.314528 6.01395 84.2371
12152123 11.7503 13.5098 30.85 28.1742 -0.271797 6.00899 84.2843
12152134 11.7238 13.4361 30.8992 28.1645 -0.303519 6.03817 84.2236
12152155 11.8383 13.3532 30.9386 28.2229 -0.355898 6.04068 84.3531
12152163 11.8383 13.3532 30.9386 28.2229 -0.355898 6.04068 84.3531
12152173 11.715 13.3624 30.9485 28.2034 -0.325792 6.06816 84.2293
12152183 11.7415 13.3808 30.9583 28.2327 -0.322095 6.0611 84.3132
12152204 11.7591 13.4269 30.978 28.2814 -0.304583 6.05245 84.4453
12152214 11.7062 13.2887 30.978 28.3203 -0.318867 6.10429 84.2933
12152225 11.7062 13.2887 30.978 28.3203 -0.318867 6.10429 84.2933
12152235 11.7062 13.3164 30.9878 28.2619 -0.331013 6.09224 84.2723
12152249 11.7062 13.3164 30.9878 28.2619 -0.331013 6.09224 84.2723
12152254 11.6798 13.3532 30.9288 28.3009 -0.283197 6.08751 84.2626
12152265 11.7062 13.2795 30.9977 28.3496 -0.31862 6.11176 84.333
12152274 11.7062 13.2795 30.9977 28.3496 -0.31862 6.11176 84.333
12152295 11.6446 13.3164 30.9682 28.2814 -0.301321 6.10766 84.2104
12152296 11.6886 13.3256 30.9682 28.3983 -0.276396 6.10666 84.3806
12152305 11.6886 13.3256 30.9682 28.3983 -0.276396 6.10666 84.3806
12152318 11.7062 13.2887 30.9583 28.3788 -0.295559 6.10838 84.3321
12152325 11.7062 13.2887 30.9583 28.3788 -0.295559 6.10838 84.3321
12152340 11.6798 13.2979 30.9288 28.3203 -0.293933 6.10341 84.2269
12152345 11.6622 13.2427 31.0075 28.3496 -0.319672 6.13306 84.262
12152355 11.6622 13.2427 31.0075 28.3496 -0.319672 6.13306 84.262
12152366 11.6622 13.3624 30.9288 28.3301 -0.266501 6.09271 84.2834
12152377 11.6798 13.3348 30.9485 28.3398 -0.282805 6.09832 84.3029
12152387 11.6798 13.3348 30.9485 28.3398 -0.282805 6.09832 84.3029
12152397 11.7326 13.3348 30.9091 28.3885 -0.272156 6.08609 84.3651
12152410 11.7326 13.3348 30.9091 28.3885 -0.272156 6.08609 84.3651
12152416 11.6886 13.3256 30.8992 28.2911 -0.288334 6.08807 84.2045
12152425 11.7062 13.3624 30.8992 28.3009 -0.279522 6.07547 84.2687
12152435 11.7062 13.3624 30.8992 28.3009 -0.279522 6.07547 84.2687
12152447 11.7415 13.3992 30.791 28.3106 -0.244109 6.047 84.2423
12152457 11.7415 13.3716 30.8107 28.2814 -0.266941 6.05289 84.2051
12152467 11.7415 13.3716 30.8107 28.2814 -0.266941 6.05289 84.2051
12152480 11.8471 13.4361 30.7319 28.2911 -0.252609 6.00308 84.3063
12152486 11.8471 13.4361 30.7319 28.2911 -0.252609 6.00308 84.3063
12152496 11.7767 13.3992 30.7516 28.2132 -0.272121 6.02363 84.1407
12152507 11.8119 13.5005 30.7221 28.2132 -0.243405 5.98642 84.2477
12152516 11.8119 13.5005 30.7221 28.2132 -0.243405 5.98642 84.2477
12152527 11.8031 13.4913 30.6827 28.2034 -0.234918 5.98565 84.1806
12152537 11.8648 13.5098 30.7024 28.1255 -0.27668 5.95945 84.2024
12152550 11.8648 13.5098 30.7024 28.1255 -0.27668 5.95945 84.2024
12152559 11.9176 13.5466 30.663 28.1937 -0.249147 5.94025 84.3209
12152572 11.9176 13.5466 30.663 28.1937 -0.249147 5.94025 84.3209
12152578 11.9088 13.6479 30.6236 28.0963 -0.233833 5.90257 84.2766
12152588 11.9705 13.6295 30.6138 28.0573 -0.266245 5.88657 84.271
12152608 11.9617 13.6571 30.5646 27.9891 -0.261372 5.86919 84.1724
12152618 12.0497 13.6939 30.4957 27.9404 -0.270571 5.82546 84.1797
12152641 12.0497 13.7216 30.4366 27.8722 -0.265393 5.80473 84.0801
12152658 12.0321 13.74 30.4071 27.7748 -0.275277 5.79063 83.9539
12152668 12.0409 13.6663 30.4957 27.843 -0.305578 5.82386 84.0459
12152689 12.0321 13.7216 30.4661 27.8332 -0.280611 5.80806 84.053
12152699 12.0497 13.7768 30.4957 27.9014 -0.257397 5.80072 84.2236
12152711 12.0497 13.7768 30.4957 27.9014 -0.257397 5.80072 84.2236
12152718 12.1114 13.6571 30.5252 27.9501 -0.305468 5.8236 84.2438
12152733 12.1114 13.6571 30.5252 27.9501 -0.305468 5.8236 84.2438
12152739 12.0762 13.6939 30.5153 27.9599 -0.278264 5.82319 84.2453
12152748 12.0585 13.7492 30.5547 28.0378 -0.244743 5.82666 84.4003
12152760 12.0585 13.7492 30.5547 28.0378 -0.244743 5.82666 84.4003
12152769 12.0762 13.7308 30.4957 28.067 -0.229348 5.82362 84.3696
12152780 12.0497 13.7124 30.5547 28.0281 -0.2561 5.83687 84.3449
12152801 12.0321 13.6847 30.4957 28.0086 -0.247699 5.83952 84.2211
12152809 12.0321 13.6847 30.4957 28.0086 -0.247699 5.83952 84.2211
12152825 11.9793 13.6939 30.5252 28.0573 -0.223492 5.85883 84.2557
12152829 12.0145 13.6663 30.5449 28.0476 -0.250825 5.85802 84.2733
12152840 12.0145 13.6663 30.5449 28.0476 -0.250825 5.85802 84.2733
12152850 11.9617 13.5926 30.5547 28.0963 -0.245669 5.89572 84.2053
12152859 11.9881 13.6479 30.5153 28.0573 -0.236981 5.86698 84.2086
12152880 11.9352 13.6387 30.5646 28.0573 -0.238673 5.8877 84.1958
12152894 11.9352 13.6387 30.5646 28.0573 -0.238673 5.8877 84.1958
12152900 11.944 13.6387 30.535 28.1255 -0.212152 5.8897 84.2433
12152917 11.9264 13.5742 30.6039 28.0963 -0.255303 5.91435 84.2009
12152924 11.9264 13.5742 30.6039 28.0963 -0.255303 5.91435 84.2009
12152933 11.9 13.565 30.535 28.145 -0.215413 5.92103 84.145
12152942 11.8383 13.565 30.6532 28.2424 -0.202876 5.95954 84.2989
12152964 11.8383 13.5098 30.7122 28.2132 -0.245519 5.97649 84.2735
12152972 11.8383 13.5098 30.7122 28.2132 -0.245519 5.97649 84.2735
12152987 11.8207 13.5098 30.7024 28.3203 -0.205389 5.99128 84.3532
12152991 11.7767 13.4821 30.6925 28.3885 -0.177422 6.01535 84.3399
12153001 11.7767 13.4821 30.6925 28.3885 -0.177422 6.01535 84.3399
12153012 11.7326 13.4545 30.7417 28.4275 -0.17556 6.0426 84.3564
12153022 11.7503 13.4177 30.7614 28.4275 -0.197531 6.04948 84.3569
12153030 11.7503 13.4177 30.7614 28.4275 -0.197531 6.04948 84.3569
12153042 11.715 13.3992 30.7319 28.4567 -0.175247 6.06285 84.3029
12153054 11.715 13.3992 30.7319 28.4567 -0.175247 6.06285 84.3029
12153061 11.6005 13.3532 30.7417 28.4762 -0.152324 6.10614 84.1717
12153071 11.671 13.3992 30.8303 28.486 -0.182532 6.08736 84.3865
12153081 11.671 13.3992 30.8303 28.486 -0.182532 6.08736 84.3865
12153091 11.5741 13.3164 30.85 28.4762 -0.187476 6.13343 84.2167
12153101 11.6269 13.2979 30.8205 28.5347 -0.18238 6.12783 84.2801
12153112 11.6269 13.2979 30.8205 28.5347 -0.18238 6.12783 84.2801
12153121 11.5565 13.3256 30.8894 28.5444 -0.170758 6.14684 84.3159
12153133 11.5565 13.3256 30.8894 28.5444 -0.170758 6.14684 84.3159
12153141 11.4772 13.3072 30.8599 28.5542 -0.141264 6.1693 84.1984
12153156 11.5477 13.2979 30.9386 28.6223 -0.167644 6.16931 84.4066
12153161 11.5477 13.2979 30.9386 28.6223 -0.167644 6.16931 84.4066
12153173 11.5301 13.2979 30.8894 28.5444 -0.171223 6.16041 84.2618
12153181 11.5036 13.3164 30.8796 28.5249 -0.160848 6.15934 84.2245
12153193 11.5036 13.3164 30.8796 28.5249 -0.160848 6.15934 84.2245
12153203 11.5829 13.344 30.8992 28.5444 -0.175934 6.13664 84.3705
12153211 11.5829 13.344 30.8992 28.5444 -0.175934 6.13664 84.3705
12153223 11.5212 13.2611 30.8894 28.5249 -0.185464 6.16984 84.1967
12153233 11.5741 13.3256 30.9091 28.4762 -0.20211 6.13733 84.285
12153241 11.5741 13.3256 30.9091 28.4762 -0.20211 6.13733 84.285
12153253 11.5477 13.2979 30.8992 28.4957 -0.193872 6.15191 84.2406
12153263 11.5741 13.3072 30.8599 28.5249 -0.178568 6.1419 84.2661
12153273 11.5741 13.3072 30.8599 28.5249 -0.178568 6.1419 84.2661
12153284 11.5829 13.3992 30.8697 28.447 -0.179832 6.10944 84.2989
12153293 11.5829 13.3992 30.8697 28.447 -0.179832 6.10944 84.2989
12153303 11.6093 13.39 30.7713 28.5249 -0.138097 6.10296 84.2956
12153313 11.671 13.3716 30.7614 28.4665 -0.176316 6.08493 84.2705
12153323 11.671 13.3716 30.7614 28.4665 -0.176316 6.08493 84.2705
12153335 11.671 13.4177 30.8008 28.4665 -0.174162 6.07758 84.3559
12153343 11.6358 13.4177 30.7713 28.3788 -0.181282 6.07398 84.2035
12153353 11.6358 13.4177 30.7713 28.3788 -0.181282 6.07398 84.2035
12153363 11.715 13.4269 30.6728 28.4178 -0.161231 6.04554 84.2325
12153383 11.715 13.5005 30.6925 28.3203 -0.17413 6.01887 84.2284
12153394 11.7238 13.5282 30.6532 28.4372 -0.121996 6.01804 84.3424
12153414 11.7591 13.519 30.6335 28.3398 -0.158381 5.99906 84.2513
12153427 11.8207 13.4729 30.6827 28.3301 -0.207697 5.99939 84.3064
12153434 11.8207 13.4729 30.6827 28.3301 -0.207697 5.99939 84.3064
12153444 11.8736 13.519 30.6335 28.3009 -0.203739 5.96639 84.3269
12153454 11.8736 13.519 30.6335 28.3009 -0.203739 5.96639 84.3269
12153464 11.8119 13.4913 30.6039 28.2327 -0.205567 5.97815 84.1399
12153474 11.856 13.5374 30.5547 28.2327 -0.190258 5.95042 84.1807
12153484 11.856 13.5374 30.5547 28.2327 -0.190258 5.95042 84.1807
12153495 11.944 13.6018 30.5449 28.2521 -0.1882 5.91356 84.3429
12153518 11.8912 13.6479 30.4661 28.2424 -0.138587 5.90571 84.2476
12153524 11.9352 13.6479 30.4858 28.1742 -0.177743 5.88954 84.2431
12153534 11.9352 13.6479 30.4858 28.1742 -0.177743 5.88954 84.2431
12153544 11.9793 13.6111 30.3972 28.106 -0.196041 5.87077 84.0936
12153554 12.0057 13.7124 30.4661 28.1937 -0.167634 5.85612 84.3779
12153571 12.0057 13.7124 30.4661 28.1937 -0.167634 5.85612 84.3779
12153575 12.0938 13.6571 30.3775 28.1742 -0.189795 5.83627 84.3026
12153586 12.0321 13.6755 30.3677 28.1547 -0.169052 5.84378 84.2301
12153597 12.0321 13.6755 30.3677 28.1547 -0.169052 5.84378 84.2301
12153607 12.0233 13.6479 30.3874 28.2132 -0.16305 5.86128 84.2718
12153615 12.0233 13.6479 30.3874 28.2132 -0.16305 5.86128 84.2718
12153625 12.0409 13.7031 30.3677 28.0573 -0.192523 5.82416 84.1691
12153635 12.0409 13.7584 30.3382 28.2034 -0.123683 5.8232 84.3409
12153645 12.0409 13.7584 30.3382 28.2034 -0.123683 5.8232 84.3409
12153657 12.1026 13.7676 30.3185 28.145 -0.150731 5.7972 84.3336
12153667 12.0762 13.7492 30.3086 28.0183 -0.183377 5.79335 84.1523
12153677 12.0762 13.7492 30.3086 28.0183 -0.183377 5.79335 84.1523
12153685 12.1026 13.7952 30.2791 28.067 -0.154136 5.77756 84.244
12153700 12.1026 13.7952 30.2791 28.067 -0.154136 5.77756 84.244
12153707 12.0497 13.74 30.1905 28.0086 -0.146352 5.78816 83.9888
12153716 12.0233 13.7031 30.2791 28.0768 -0.155349 5.82098 84.0823
12153726 12.0233 13.7031 30.2791 28.0768 -0.155349 5.82098 84.0823
12153736 12.0762 13.7031 30.2693 28.067 -0.170963 5.80576 84.1156
12153748 12.0233 13.6295 30.3775 28.1937 -0.171472 5.86266 84.224
12153758 12.0233 13.6295 30.3775 28.1937 -0.171472 5.86266 84.224
12153768 12.0674 13.6479 30.4366 28.2424 -0.181785 5.85889 84.3942
12153790 11.9793 13.5834 30.4957 28.2716 -0.183764 5.90619 84.33
12153798 11.9528 13.5466 30.535 28.3788 -0.166591 5.93764 84.4133
12153818 11.9528 13.5466 30.535 28.3788 -0.166591 5.93764 84.4133
12153820 11.8736 13.4821 30.5744 28.4275 -0.159545 5.98278 84.3576
12153828 11.856 13.39 30.7024 28.5249 -0.190407 6.03409 84.4733
12153846 11.856 13.39 30.7024 28.5249 -0.190407 6.03409 84.4733
12153848 11.7855 13.3532 30.7811 28.5347 -0.200921 6.07021 84.4545
12153858 11.7855 13.3532 30.7811 28.5347 -0.200921 6.07021 84.4545
12153873 11.6534 13.2519 30.8107 28.6613 -0.163198 6.14503 84.3772
12153878 11.6798 13.1322 30.8796 28.6808 -0.221153 6.17769 84.3723
12153900 11.6269 13.2059 30.9189 28.6905 -0.192288 6.1776 84.4423
12153909 11.6269 13.2059 30.9189 28.6905 -0.192288 6.1776 84.4423
12153926 11.6005 13.1322 30.8992 28.6808 -0.203641 6.19966 84.3127
12153929 11.5741 13.1138 30.9583 28.788 -0.186737 6.22824 84.4341
12153952 11.5653 13.0677 30.9485 28.71 -0.218293 6.23292 84.2915
12153958 11.5301 13.0401 30.9583 28.7003 -0.222012 6.24878 84.2287
12153969 11.5301 13.0401 30.9583 28.7003 -0.222012 6.24878 84.2287
12153979 11.5389 13.0953 30.9682 28.6029 -0.240129 6.22351 84.2052
12153989 11.486 13.0033 31.0272 28.6418 -0.25789 6.27029 84.1583
12154001 11.486 13.0033 31.0272 28.6418 -0.25789 6.27029 84.1583
12154009 11.4948 13.0217 30.9878 28.7198 -0.220014 6.26741 84.2241
12154021 11.4948 13.0217 30.9878 28.7198 -0.220014 6.26741 84.2241
12154029 11.4772 12.9848 30.9878 28.6808 -0.23755 6.27713 84.1307
12154042 11.5389 13.0769 30.9977 28.6613 -0.236815 6.23731 84.2748
12154058 11.5301 13.0677 31.0075 28.71 -0.225295 6.24794 84.3153
12154068 11.5301 13.0677 31.0075 28.71 -0.225295 6.24794 84.3153
12154078 11.5389 13.0309 30.9977 28.6516 -0.253531 6.24791 84.219
12154088 11.5389 13.0493 31.0961 28.7003 -0.262313 6.25854 84.3846
12154098 11.5389 13.0493 31.0961 28.7003 -0.262313 6.25854 84.3846
12154108 11.5741 13.0769 30.9682 28.6808 -0.232658 6.22739 84.3
12154119 11.5917 13.0493 31.0567 28.6516 -0.280851 6.23608 84.3493
12154129 11.5917 13.0493 31.0567 28.6516 -0.280851 6.23608 84.3493
12154139 11.6269 13.0953 30.9682 28.6516 -0.251409 6.20642 84.342
12154159 11.6534 13.1046 31.0174 28.6126 -0.282499 6.19853 84.3879
12154170 11.6446 13.1782 30.9682 28.486 -0.281374 6.16385 84.2769
12154191 11.6446 13.1782 30.9682 28.486 -0.281374 6.16385 84.2769
12154197 11.671 13.1598 30.9288 28.4762 -0.286023 6.15669 84.2358
12154199 11.6534 13.2059 30.8894 28.4762 -0.255477 6.14541 84.2248
12154219 11.7326 13.1966 30.9288 28.4957 -0.287206 6.13402 84.3538
12154233 11.7326 13.1966 30.9288 28.4957 -0.287206 6.13402 84.3538
12154240 11.6622 13.123 30.978 28.5054 -0.30016 6.17638 84.2686
12154250 11.7679 13.1966 30.9977 28.5152 -0.31184 6.13449 84.4774
12154263 11.7679 13.1966 30.9977 28.5152 -0.31184 6.13449 84.4774
12154271 11.7326 13.1782 30.8992 28.5347 -0.272393 6.13963 84.3448
12154285 11.6798 13.1506 30.8992 28.5444 -0.26225 6.16084 84.274
12154290 11.6798 13.1506 30.8992 28.5444 -0.26225 6.16084 84.274
12154302 11.6974 13.123 30.9091 28.5542 -0.275669 6.16541 84.2836
12154312 11.6622 13.1138 31.0174 28.6516 -0.270654 6.19807 84.4449
12154322 11.6622 13.1138 31.0174 28.6516 -0.270654 6.19807 84.4449
12154339 11.6269 13.1506 31.0272 28.6418 -0.255109 6.19768 84.4466
12154341 11.6269 13.1506 31.0272 28.6418 -0.255109 6.19768 84.4466
12154352 11.5653 13.0677 31.0075 28.6029 -0.267747 6.22792 84.2434
12154366 11.5741 13.0217 31.0272 28.7198 -0.254872 6.2515 84.3427
12154372 11.5741 13.0217 31.0272 28.7198 -0.254872 6.2515 84.3427
12154382 11.5653 13.0493 31.0272 28.6711 -0.258602 6.2417 84.3129
12154392 11.5653 13.0493 31.0272 28.6711 -0.258602 6.2417 84.3129
12154402 11.5124 12.9664 31.0764 28.7587 -0.256103 6.29011 84.314
12154417 11.5301 12.9572 31.0961 28.7977 -0.258133 6.29405 84.3811
12154421 11.5301 12.9572 31.0961 28.7977 -0.258133 6.29405 84.3811
12154431 11.4332 12.9112 31.106 28.788 -0.249292 6.33019 84.2383
12154443 11.3715 12.8559 31.1946 28.8659 -0.25041 6.3769 84.2879
12154451 11.3715 12.8559 31.1946 28.8659 -0.25041 6.3769 84.2879
12154466 11.3891 12.8651 31.2142 28.8951 -0.249846 6.37511 84.3636
12154473 11.3891 12.8651 31.2142 28.8951 -0.249846 6.37511 84.3636
12154483 11.3539 12.7178 31.3225 29.0218 -0.277455 6.44534 84.416
12154493 11.257 12.7086 31.3028 29.0315 -0.243106 6.47132 84.2999
12154513 11.213 12.6625 31.3816 29.0705 -0.255415 6.50617 84.3275
12154523 11.1689 12.5888 31.3914 29.1192 -0.252853 6.54211 84.2684
12154536 11.1689 12.5888 31.3914 29.1192 -0.252853 6.54211 84.2684
12154543 11.1425 12.5981 31.4308 29.2166 -0.224742 6.56022 84.388
12154560 11.1249 12.4783 31.4899 29.1777 -0.284427 6.59737 84.2707
12154564 11.1249 12.4783 31.4899 29.1777 -0.284427 6.59737 84.2707
12154573 11.1337 12.4323 31.5391 29.2458 -0.29479 6.6186 84.3509
12154594 11.1073 12.3862 31.608 29.3628 -0.285994 6.65558 84.4642
12154607 11.0632 12.3586 31.6867 29.4797 -0.269449 6.69323 84.5882
12154628 11.0544 12.3126 31.7261 29.4991 -0.286315 6.71308 84.5922
12154636 11.0456 12.3678 31.7655 29.5284 -0.270018 6.70788 84.7073
12154655 10.9751 12.2849 31.7458 29.5284 -0.268419 6.74533 84.5342
12154665 10.9751 12.2849 31.7458 29.5284 -0.268419 6.74533 84.5342
12154677 11.0016 12.3218 31.6277 29.5186 -0.233467 6.71655 84.4696
12154685 11.028 12.3494 31.6178 29.4115 -0.262108 6.69116 84.4067
12154705 11.028 12.3862 31.608 29.3433 -0.268613 6.674 84.3655
12154715 11.0192 12.3954 31.5391 29.3043 -0.254725 6.66324 84.258
12154737 11.0368 12.4415 31.5686 29.314 -0.251855 6.65077 84.3609
12154749 11.0368 12.4415 31.5686 29.314 -0.251855 6.65077 84.3609
12154757 11.0016 12.4967 31.4899 29.353 -0.190201 6.6417 84.3412
12154772 11.072 12.5336 31.4899 29.353 -0.199912 6.6142 84.4485
12154776 11.072 12.5336 31.4899 29.353 -0.199912 6.6142 84.4485
12154787 11.072 12.552 31.4899 29.2751 -0.217685 6.60174 84.389
12154797 11.0808 12.5796 31.4406 29.3628 -0.171404 6.59624 84.4639
12154818 11.0896 12.5981 31.48 29.2751 -0.206214 6.58447 84.4428
12154828 11.0896 12.5981 31.48 29.2751 -0.206214 6.58447 84.4428
12154841 11.0808 12.5612 31.4406 29.2946 -0.197241 6.59416 84.3772
12154848 11.1689 12.5612 31.421 29.3043 -0.21442 6.57065 84.4554
12154864 11.1689 12.5612 31.421 29.3043 -0.21442 6.57065 84.4554
12154868 11.1601 12.6165 31.4406 29.3043 -0.201125 6.56076 84.5215
12154878 11.1953 12.5612 31.3324 29.3725 -0.175819 6.56187 84.4614
12154890 11.1953 12.5612 31.3324 29.3725 -0.175819 6.56187 84.4614
12154898 11.2482 12.6073 31.2339 29.3043 -0.169019 6.51994 84.3937
12154912 11.2482 12.6073 31.2339 29.3043 -0.169019 6.51994 84.3937
12154918 11.2306 12.5612 31.2142 29.2069 -0.200897 6.52442 84.2129
12154928 11.2394 12.5336 31.2733 29.2166 -0.22622 6.53614 84.2629
12154948 11.2922 12.6441 31.293 29.1874 -0.223218 6.49351 84.4167
12154960 11.2834 12.6257 31.2241 29.1874 -0.205889 6.4935 84.3206
12154968 11.2834 12.6257 31.2241 29.1874 -0.205889 6.4935 84.3206
12154985 11.3275 12.5888 31.2635 29.2264 -0.22976 6.49956 84.4061
12154989 11.3275 12.5888 31.2635 29.2264 -0.22976 6.49956 84.4061
12154998 11.2482 12.5888 31.2438 29.2556 -0.191951 6.52073 84.3364
12155010 11.2482 12.5704 31.2142 29.353 -0.159684 6.53225 84.3859
12155034 11.2482 12.5704 31.2142 29.353 -0.159684 6.53225 84.3859
12155036 11.2922 12.5612 31.3028 29.314 -0.213036 6.52835 84.4703
12155039 11.1865 12.5612 31.3028 29.314 -0.181982 6.55532 84.3646
12155051 11.1865 12.5612 31.3028 29.314 -0.181982 6.55532 84.3646
12155060 11.2394 12.5981 31.2831 29.353 -0.169128 6.53436 84.4736
12155069 11.2394 12.5981 31.2831 29.353 -0.169128 6.53436 84.4736
12155085 11.1777 12.4967 31.3225 29.3822 -0.184068 6.58283 84.3792
12155089 11.2482 12.552 31.3225 29.4309 -0.173786 6.55559 84.5537
12155123 11.1777 12.5336 31.2831 29.4407 -0.144076 6.57532 84.4352
12155129 11.1777 12.5336 31.2831 29.4407 -0.144076 6.57532 84.4352
12155140 11.1425 12.5152 31.3816 29.4212 -0.173959 6.5969 84.4604
12155153 11.1425 12.5152 31.3816 29.4212 -0.173959 6.5969 84.4604
12155165 11.1249 12.4967 31.3127 29.3628 -0.171435 6.59343 84.2971
12155170 11.1777 12.5244 31.293 29.4115 -0.158425 6.57574 84.4066
12155192 11.1425 12.552 31.2438 29.4017 -0.128214 6.57179 84.34
12155200 11.1777 12.4691 31.2831 29.4407 -0.163284 6.5918 84.3707
12155223 11.1601 12.5336 31.3127 29.5284 -0.1215 6.5915 84.5347
12155244 11.0984 12.5244 31.3127 29.5089 -0.111867 6.60768 84.4444
12155252 11.0896 12.4875 31.2339 29.4504 -0.114407 6.60572 84.2615
12155270 11.0896 12.4875 31.2339 29.4504 -0.114407 6.60572 84.2615
12155272 11.1249 12.5152 31.2241 29.4699 -0.107868 6.59057 84.334
12155281 11.0896 12.4875 31.2635 29.5479 -0.0941187 6.61834 84.3885
12155301 11.0632 12.506 31.3225 29.5868 -0.0866964 6.63012 84.4785
12155324 11.0368 12.506 31.2635 29.6258 -0.049895 6.6349 84.432
12155333 11.072 12.4599 31.3324 29.6453 -0.0885084 6.64642 84.5096
12155347 11.072 12.4599 31.3324 29.6453 -0.0885084 6.64642 84.5096
12155353 10.9751 12.4967 31.3127 29.7135 -0.0229582 6.66659 84.498
12155373 11.0016 12.4967 31.2831 29.6453 -0.0422508 6.65017 84.4267
12155375 11.0016 12.4967 31.2831 29.6453 -0.0422508 6.65017 84.4267
12155383 10.9399 12.4139 31.3127 29.7427 -0.0284359 6.6998 84.4091
12155397 10.9399 12.4139 31.3324 29.7037 -0.0458196 6.6979 84.3899
12155403 10.9399 12.4139 31.3324 29.7037 -0.0458196 6.6979 84.3899
12155413 10.9663 12.4139 31.3521 29.7719 -0.0392258 6.69975 84.5042
12155423 10.9663 12.4139 31.3521 29.7719 -0.0392258 6.69975 84.5042
12155433 10.9223 12.4139 31.3324 29.7914 -0.0146136 6.71105 84.4599
12155451 10.9047 12.3954 31.3619 29.8011 -0.0207096 6.72416 84.4632
12155453 10.9047 12.3954 31.3619 29.8011 -0.0207096 6.72416 84.4632
12155464 10.9223 12.4415 31.293 29.7817 0.00233352 6.69912 84.4384
12155476 10.8606 12.377 31.3324 29.8011 -0.00438988 6.73735 84.3712
12155494 10.8606 12.377 31.3324 29.8011 -0.00438988 6.73735 84.3712
12155505 10.9047 12.4139 31.2831 29.8206 0.0138253 6.71361 84.4223
12155515 10.887 12.3954 31.2536 29.7524 0.00213981 6.71329 84.2886
12155527 10.9135 12.4967 31.2831 29.8304 0.0386 6.69101 84.5237
12155547 10.9487 12.4783 31.2536 29.8499 0.0372231 6.68571 84.5305
12155555 10.9487 12.5152 31.3028 29.7622 0.00763237 6.67248 84.5289
12155565 10.9487 12.5152 31.3028 29.7622 0.00763237 6.67248 84.5289
12155575 10.9399 12.5152 31.2536 29.7622 0.0248075 6.66988 84.4709
12155585 10.9399 12.5152 31.2536 29.7622 0.0248075 6.66988 84.4709
12155595 10.9223 12.5336 31.2438 29.694 0.0182241 6.66198 84.3936
12155605 10.9487 12.4967 31.1453 29.6258 0.0084579 6.64816 84.2166
12155616 10.9487 12.4967 31.1453 29.6258 0.0084579 6.64816 84.2166
12155625 11.0368 12.5336 31.106 29.655 0.0135899 6.61509 84.3314
12155638 10.9751 12.5244 31.1847 29.655 0.00579357 6.64108 84.3392
12155646 10.9751 12.5244 31.1847 29.655 0.00579357 6.64108 84.3392
12155659 10.9927 12.506 31.165 29.6453 -0.00194162 6.63836 84.309
12155667 10.9927 12.506 31.165 29.6453 -0.00194162 6.63836 84.309
12155677 10.9839 12.5612 31.1749 29.6453 0.0141293 6.62743 84.3653
12155688 10.9927 12.6533 31.1453 29.6648 0.0532746 6.60059 84.4561
12155696 10.9927 12.6533 31.1453 29.6648 0.0532746 6.60059 84.4561
12155708 11.0544 12.5612 31.0272 29.694 0.0514537 6.59953 84.3368
12155716 11.0544 12.6809 31.0075 29.6063 0.0667781 6.55819 84.3492
12155732 11.0544 12.6809 31.0075 29.6063 0.0667781 6.55819 84.3492
12155736 11.1601 12.7914 31.0863 29.6648 0.0619292 6.51683 84.7026
12155746 11.1601 12.7914 31.0863 29.6648 0.0619292 6.51683 84.7026
12155758 11.1513 12.7546 30.9386 29.5576 0.0658393 6.50285 84.4021
12155767 11.1689 12.7914 30.9189 29.5284 0.0687033 6.48406 84.4077
12155781 11.1689 12.7914 30.9189 29.5284 0.0687033 6.48406 84.4077
12155786 11.1865 12.7914 30.8303 29.4894 0.0782818 6.46668 84.2977
12155798 11.1777 12.7914 30.8205 29.5381 0.0982285 6.47286 84.3278
12155808 11.1777 12.7914 30.8205 29.5381 0.0982285 6.47286 84.3278
12155818 11.1689 12.8835 30.8107 29.4602 0.107959 6.44277 84.3233
12155832 11.1689 12.8835 30.8107 29.4602 0.107959 6.44277 84.3233
12155856 11.1689 12.8283 30.8107 29.5576 0.120401 6.4667 84.3654
12155857 11.1777 12.7914 30.8205 29.5673 0.106853 6.47581 84.357
12155859 11.1777 12.7914 30.8205 29.5673 0.106853 6.47581 84.357
12155868 11.1777 12.8559 30.8796 29.5479 0.102556 6.46342 84.461
12155880 11.1601 12.7546 30.85 29.5771 0.0953108 6.49365 84.3418
12155888 11.1601 12.7546 30.85 29.5771 0.0953108 6.49365 84.3418
12155905 11.1689 12.773 30.8796 29.616 0.100842 6.49362 84.4375
12155908 11.1689 12.773 30.8796 29.616 0.100842 6.49362 84.4375
12155918 11.0632 12.6994 30.8992 29.733 0.139183 6.55307 84.3948
12155929 11.0984 12.6809 30.8992 29.7719 0.134739 6.55267 84.4505
12155938 11.0984 12.6809 30.8992 29.7719 0.134739 6.55267 84.4505
12155952 11.1073 12.7086 30.9091 29.733 0.125852 6.54046 84.4579
12155959 10.9839 12.6349 30.9583 29.733 0.126195 6.59573 84.3101
12155969 10.9839 12.6349 30.9583 29.733 0.126195 6.59573 84.3101
12155979 11.0192 12.6533 30.9977 29.8206 0.135246 6.59466 84.4908
12155989 11.0192 12.6533 30.9977 29.8206 0.135246 6.59466 84.4908
12156000 10.9663 12.6625 30.9288 29.8791 0.191414 6.60478 84.4367
12156010 11.0544 12.5888 30.978 29.9181 0.140318 6.60985 84.5393
12156022 11.0544 12.5888 30.978 29.9181 0.140318 6.60985 84.5393
12156030 10.9399 12.6349 31.0469 29.8499 0.14737 6.62743 84.4715
12156040 10.9575 12.5981 30.9878 29.8401 0.146005 6.62554 84.3835
12156050 10.9575 12.5981 30.9878 29.8401 0.146005 6.62554 84.3835
12156060 10.9575 12.6441 31.0567 29.8986 0.156227 6.62637 84.5569
12156070 10.9575 12.6441 31.0567 29.8986 0.156227 6.62637 84.5569
12156080 10.9047 12.6073 31.0371 29.8888 0.164133 6.64642 84.4378
12156092 10.9135 12.5981 31.0075 29.8888 0.167602 6.6436 84.4079
12156100 10.9135 12.5981 31.0075 29.8888 0.167602 6.6436 84.4079
12156110 10.9223 12.552 31.0174 29.9278 0.159958 6.65798 84.4194
12156123 10.9047 12.5888 31.0371 29.8986 0.161579 6.65211 84.4291
12156143 10.8518 12.6809 31.0174 29.8596 0.198835 6.63624 84.4097
12156160 10.8254 12.5244 31.0764 29.8693 0.145885 6.69004 84.2955
12156171 10.8518 12.5981 31.0666 29.9083 0.174108 6.66719 84.4248
12156183 10.8518 12.5981 31.0666 29.9083 0.174108 6.66719 84.4248
12156191 10.8254 12.6441 31.0666 29.8693 0.184071 6.6583 84.4054
12156201 10.9135 12.5704 31.106 29.8011 0.104317 6.65175 84.391
12156213 10.9135 12.5704 31.106 29.8011 0.104317 6.65175 84.391
12156222 10.8959 12.6349 31.0961 29.8596 0.148693 6.64455 84.4865
12156233 10.8694 12.7086 31.0272 29.8596 0.198758 6.62563 84.4648
12156245 10.8694 12.7086 31.0272 29.8596 0.198758 6.62563 84.4648
12156253 10.8959 12.6994 31.0764 29.8011 0.156325 6.62031 84.4728
12156263 10.8959 12.6994 31.0764 29.8011 0.156325 6.62031 84.4728
12156275 10.843 12.6994 31.0075 29.8011 0.192636 6.62701 84.351
12156283 10.9135 12.7178 31.0075 29.8109 0.179887 6.60521 84.4497
12156297 10.9135 12.7178 31.0075 29.8109 0.179887 6.60521 84.4497
12156303 10.9135 12.7178 31.0469 29.7914 0.162426 6.60719 84.4695
12156319 10.9135 12.7178 31.0469 29.7914 0.162426 6.60719 84.4695
12156323 10.8606 12.6717 31.0075 29.7914 0.176382 6.62861 84.3313
12156333 10.887 12.6994 31.0666 29.8011 0.16188 6.62158 84.4541
12156353 10.843 12.7178 31.0075 29.7914 0.195187 6.62132 84.3597
12156364 10.887 12.6717 30.9682 29.7719 0.17451 6.61598 84.2988
12156373 10.887 12.6717 30.9682 29.7719 0.17451 6.61598 84.2988
12156387 10.887 12.7362 31.0174 29.7817 0.181654 6.60533 84.4223
12156403 10.8959 12.6901 31.0666 29.8304 0.165141 6.62458 84.483
12156412 10.8342 12.7638 31.106 29.8791 0.207707 6.63024 84.5831
12156434 10.8518 12.7362 31.1453 29.9181 0.194058 6.64054 84.6514
12156444 10.9135 12.7086 31.1355 29.8596 0.153396 6.62509 84.6171
12156455 10.9135 12.7086 31.1355 29.8596 0.153396 6.62509 84.6171
12156464 10.887 12.7546 31.0961 29.8304 0.177905 6.61328 84.5681
12156484 10.7813 12.6717 31.0666 29.733 0.1652 6.64902 84.2526
12156494 10.8342 12.6625 31.0371 29.8206 0.181344 6.64357 84.3544
12156514 10.8254 12.6349 31.0075 29.7914 0.17606 6.64711 84.2592
12156533 10.8254 12.6441 31.0272 29.8401 0.18723 6.65152 84.3368
12156535 10.8254 12.6441 31.0272 29.8401 0.18723 6.65152 84.3368
12156544 10.8078 12.6257 31.0272 29.8791 0.198534 6.66462 84.3397
12156560 10.8166 12.6257 31.0075 29.8986 0.207514 6.66234 84.3484
12156565 10.8166 12.5981 31.0075 29.8986 0.199389 6.66944 84.3207
12156575 10.7725 12.5244 31.1355 29.9278 0.161254 6.7152 84.3602
12156595 10.8078 12.5244 31.1257 30.0155 0.179473 6.71378 84.4733
12156615 10.799 12.5704 31.1355 30.0155 0.192687 6.70517 84.5204
12156625 10.8078 12.5428 31.1158 30.035 0.193539 6.70999 84.5013
12156643 10.7725 12.552 31.0961 30.0155 0.206906 6.71283 84.4361
12156646 10.7725 12.552 31.0961 30.0155 0.206906 6.71283 84.4361
12156656 10.8254 12.552 31.165 30.0057 0.167748 6.70506 84.5481
12156671 10.8254 12.552 31.165 30.0057 0.167748 6.70506 84.5481
12156677 10.7902 12.5981 31.1158 29.996 0.203574 6.69649 84.5
12156687 10.799 12.5796 31.106 29.996 0.198478 6.698 84.4805
12156707 10.8254 12.552 31.106 29.957 0.17103 6.69447 84.4404
12156723 10.8166 12.5612 31.0863 29.9473 0.179371 6.69147 84.4113
12156737 10.799 12.552 31.1552 29.9765 0.169969 6.70802 84.4827
12156748 10.799 12.552 31.1552 29.9765 0.169969 6.70802 84.4827
12156756 10.8078 12.4875 31.106 29.9473 0.154442 6.71462 84.3486
12156772 10.843 12.4967 31.0863 29.8791 0.132421 6.69454 84.3051
12156776 10.843 12.4967 31.0863 29.8791 0.132421 6.69454 84.3051
12156786 10.8518 12.5704 31.1552 29.9375 0.148186 6.68589 84.515
12156798 10.8166 12.5704 31.106 29.9473 0.176206 6.69105 84.4402
12156806 10.8166 12.5336 31.106 29.9473 0.165373 6.70051 84.4034
12156820 10.8342 12.5981 31.1158 29.9375 0.17328 6.67944 84.4856
12156828 10.8342 12.5981 31.1158 29.9375 0.17328 6.67944 84.4856
12156845 10.8342 12.5428 31.1552 29.8986 0.13383 6.69367 84.4307
12156848 10.8078 12.6073 31.1946 29.9083 0.151813 6.68873 84.5179
12156872 10.8078 12.6073 31.1946 29.9083 0.151813 6.68873 84.5179
12156874 10.8518 12.5796 31.106 29.8986 0.154087 6.67484 84.436
12156878 10.8254 12.6257 31.1946 29.9083 0.151989 6.67949 84.5539
12156891 10.8254 12.6257 31.1946 29.9083 0.151989 6.67949 84.5539
12156898 10.8078 12.6901 31.1749 29.9083 0.182018 6.66554 84.5811
12156908 10.8078 12.6901 31.1749 29.9083 0.182018 6.66554 84.5811
12156918 10.8342 12.6165 31.1158 29.8986 0.167239 6.67087 84.465
12156929 10.8518 12.6165 31.1158 29.8011 0.133318 6.65673 84.3852
12156949 10.8694 12.6257 31.1158 29.8304 0.139388 6.65274 84.4413
12156961 10.8342 12.5981 31.165 29.8693 0.138566 6.67757 84.4666
12156969 10.8342 12.5981 31.165 29.8693 0.138566 6.67757 84.4666
12156985 10.8606 12.6073 31.2142 29.8304 0.107309 6.66944 84.5125
12156989 10.8606 12.6073 31.2142 29.8304 0.107309 6.66944 84.5125
12157000 10.8254 12.5888 31.1946 29.8304 0.118211 6.68126 84.4392
12157010 10.8166 12.5428 31.2044 29.8304 0.104329 6.69633 84.3941
12157020 10.8166 12.5428 31.2044 29.8304 0.104329 6.69633 84.3941
12157030 10.8254 12.506 31.1355 29.8888 0.128591 6.70251 84.3557
12157041 10.8606 12.506 31.1847 29.9668 0.126421 6.70595 84.5181
12157060 10.8254 12.4691 31.2142 29.996 0.125873 6.73022 84.5047
12157071 10.8254 12.4691 31.2142 29.996 0.125873 6.73022 84.5047
12157080 10.7461 12.4323 31.2536 29.996 0.126895 6.76397 84.428
12157094 10.7549 12.4139 31.3225 30.0642 0.118443 6.77979 84.5555
12157100 10.7549 12.4139 31.3225 30.0642 0.118443 6.77979 84.5555
12157115 10.7285 12.377 31.293 30.035 0.115621 6.79039 84.4335
12157120 10.7285 12.3586 31.3619 30.0057 0.0810921 6.799 84.4547
12157141 10.7373 12.3034 31.3324 30.0739 0.091067 6.81474 84.447
12157153 10.7373 12.3034 31.3324 30.0739 0.091067 6.81474 84.447
12157161 10.7549 12.4047 31.3127 30.0544 0.115791 6.78026 84.5267
12157171 10.799 12.3218 31.2831 30.0837 0.0956744 6.79024 84.4876
12157183 10.799 12.3218 31.2831 30.0837 0.0956744 6.79024 84.4876
12157193 10.7373 12.3218 31.3225 30.0057 0.079301 6.80241 84.3873
12157203 10.7109 12.3678 31.3324 29.996 0.0949472 6.79735 84.4071
12157213 10.7109 12.3678 31.3324 29.996 0.0949472 6.79735 84.4071
12157225 10.7637 12.3678 31.3816 30.0252 0.0732541 6.79134 84.5384
12157233 10.7637 12.3678 31.3816 30.0252 0.0732541 6.79134 84.5384
12157249 10.7197 12.3678 31.3422 30.0447 0.103763 6.80077 84.4744
12157254 10.7902 12.3954 31.421 30.0642 0.0733793 6.78503 84.6707
12157263 10.7902 12.3954 31.421 30.0642 0.0733793 6.78503 84.6707
12157273 10.7197 12.3862 31.3422 30.0252 0.103453 6.79412 84.4734
12157284 10.7813 12.4323 31.4406 30.035 0.0723958 6.77689 84.6892
12157295 10.7813 12.4323 31.4406 30.035 0.0723958 6.77689 84.6892
12157304 10.7549 12.4323 31.4013 29.9375 0.0631839 6.77039 84.526
12157319 10.7461 12.4139 31.3324 29.8888 0.0664294 6.76594 84.3812
12157324 10.7461 12.4139 31.3324 29.8888 0.0664294 6.76594 84.3812
12157334 10.7549 12.4507 31.3619 29.9375 0.0802964 6.76181 84.5051
12157344 10.7549 12.4507 31.3619 29.9375 0.0802964 6.76181 84.5051
12157357 10.7637 12.3954 31.3324 29.8109 0.0326902 6.75854 84.3024
12157368 10.7461 12.4231 31.3816 29.8304 0.0372559 6.76267 84.3811
12157374 10.7461 12.4231 31.3816 29.8304 0.0372559 6.76267 84.3811
12157385 10.7197 12.4231 31.3127 29.7817 0.0511557 6.75799 84.2371
12157395 10.7725 12.3954 31.3225 29.7622 0.0185668 6.75054 84.2527
12157418 10.7725 12.3954 31.3225 29.7622 0.0185668 6.75054 84.2527
12157420 10.7637 12.4783 31.3521 29.7817 0.0427276 6.73623 84.3758
12157425 10.7637 12.4783 31.3521 29.7817 0.0427276 6.73623 84.3758
12157435 10.7813 12.4323 31.4013 29.8401 0.0265777 6.75408 84.455
12157445 10.7902 12.4323 31.4111 29.8401 0.0210494 6.75278 84.4737
12157455 10.7902 12.4323 31.4111 29.8401 0.0210494 6.75278 84.4737
12157469 10.7637 12.3954 31.4308 29.8109 0.00349581 6.76815 84.4009
12157475 10.7637 12.3862 31.4702 29.8401 -0.00223517 6.77721 84.4603
12157485 10.7637 12.3862 31.4702 29.8401 -0.00223517 6.77721 84.4603
12157496 10.8078 12.4691 31.4505 29.8304 0.0121921 6.74166 84.5578
12157505 10.8078 12.4691 31.4505 29.8304 0.0121921 6.74166 84.5578
12157517 10.7549 12.3494 31.4111 29.7427 -0.0219375 6.77373 84.2581
12157526 10.7637 12.377 31.3816 29.7914 0.00685453 6.7662 84.3138
12157546 10.7725 12.3494 31.4013 29.7719 -0.0155672 6.77108 84.2951
12157557 10.7285 12.3494 31.5194 29.8206 -0.0230566 6.7987 84.4179
12157569 10.7285 12.3494 31.5194 29.8206 -0.0230566 6.7987 84.4179
12157576 10.7549 12.3586 31.5391 29.8888 -0.0137717 6.79803 84.5414
12157596 10.799 12.3402 31.4603 29.9181 -0.000311434 6.78662 84.5175
12157607 10.7109 12.3402 31.4997 29.8888 0.00545681 6.81033 84.4396
12157618 10.7109 12.3402 31.4997 29.8888 0.00545681 6.81033 84.4396
12157628 10.7109 12.3678 31.5096 29.9181 0.0193596 6.80699 84.5063
12157639 10.7109 12.331 31.5194 29.9083 0.00267029 6.81651 84.4696
12157648 10.7109 12.331 31.5194 29.9083 0.00267029 6.81651 84.4696
12157665 10.7373 12.3954 31.48 29.9278 0.0313193 6.79113 84.5406
12157668 10.7373 12.3954 31.48 29.9278 0.0313193 6.79113 84.5406
12157679 10.6933 12.3586 31.4899 29.8304 0.0017345 6.8035 84.3721
12157689 10.6845 12.3494 31.4702 29.7914 -0.00409931 6.80246 84.2954
12157696 10.6845 12.3494 31.4702 29.7914 -0.00409931 6.80246 84.2954
12157714 10.7813 12.4415 31.48 29.8109 -0.00265837 6.75654 84.5138
12157716 10.7813 12.4415 31.48 29.8109 -0.00265837 6.75654 84.5138
12157727 10.7285 12.3954 31.4505 29.7427 -0.0121117 6.77251 84.3171
12157739 10.7197 12.4139 31.4505 29.8109 0.0161648 6.77668 84.3949
12157747 10.7197 12.4139 31.4505 29.8109 0.0161648 6.77668 84.3949
12157762 10.7813 12.4231 31.4603 29.7719 -0.0138223 6.75557 84.4367
12157768 10.8342 12.4231 31.4308 29.7719 -0.0207216 6.73907 84.46
12157788 10.8166 12.506 31.3816 29.7719 0.0235915 6.71746 84.476
12157812 10.7813 12.4323 31.4997 29.7232 -0.0371769 6.75228 84.4366
12157818 10.7461 12.4507 31.4505 29.7135 -0.00961423 6.75085 84.3608
12157828 10.7461 12.4507 31.4505 29.7135 -0.00961423 6.75085 84.3608
12157838 10.8254 12.4415 31.4505 29.694 -0.0415832 6.73089 84.4114
12157848 10.7813 12.4415 31.4997 29.7524 -0.025785 6.75276 84.475
12157862 10.7813 12.4415 31.4997 29.7524 -0.025785 6.75276 84.475
12157868 10.799 12.4599 31.4505 29.7427 -0.01387 6.73772 84.4521
12157888 10.7373 12.4139 31.4406 29.7524 -0.00345111 6.76547 84.3443
12157910 10.7549 12.3954 31.4997 29.8011 -0.017181 6.77619 84.4512
12157916 10.7549 12.3954 31.4997 29.8011 -0.017181 6.77619 84.4512
12157918 10.7373 12.3494 31.5194 29.7817 -0.0372216 6.79263 84.3878
12157928 10.799 12.377 31.5391 29.8401 -0.0357449 6.77721 84.5552
12157948 10.7461 12.3494 31.5981 29.8986 -0.0284567 6.80935 84.5922
12157968 10.6492 12.2573 31.6474 29.9181 -0.0358775 6.8648 84.472
12157978 10.6404 12.3034 31.6867 29.9375 -0.0255018 6.86084 84.5681
12157989 10.6404 12.3034 31.6867 29.9375 -0.0255018 6.86084 84.5681
12158001 10.6492 12.2665 31.6867 30.0155 -0.0159457 6.87557 84.618
12158009 10.7021 12.1284 31.6966 30.0447 -0.0666797 6.90139 84.5717
12158029 10.658 12.1468 31.7458 30.0837 -0.0512093 6.91646 84.6343
12158040 10.658 12.1468 31.7458 30.0837 -0.0512093 6.91646 84.6343
12158052 10.6052 12.0455 31.7753 30.0739 -0.0772417 6.95833 84.4999
12158063 10.5611 12.0547 31.7556 30.1032 -0.0470325 6.96829 84.4747
12158069 10.5611 12.0547 31.7556 30.1032 -0.0470325 6.96829 84.4747
12158079 10.5699 12.1008 31.8442 30.1032 -0.0621259 6.96246 84.6181
12158094 10.6052 12.0363 31.7753 30.1129 -0.0684142 6.96443 84.5297
12158100 10.6052 12.0363 31.7753 30.1129 -0.0684142 6.96443 84.5297
12158110 10.6316 12.0639 31.8147 30.1421 -0.0709593 6.95692 84.6524
12158120 10.6316 12.0639 31.8147 30.1421 -0.0709593 6.95692 84.6524
12158131 10.5788 12.1008 31.8147 30.035 -0.0762314 6.95088 84.5292
12158141 10.5611 12.1008 31.795 30.0544 -0.0594467 6.95544 84.5114
12158150 10.5611 12.1008 31.795 30.0544 -0.0594467 6.95544 84.5114
12158165 10.6052 12.0455 31.7556 29.957 -0.106177 6.94531 84.3633
12158170 10.5876 12.1744 31.7458 29.9083 -0.0742227 6.91079 84.4161
12158180 10.5876 12.1744 31.7458 29.9083 -0.0742227 6.91079 84.4161
12158190 10.6052 12.1744 31.7753 29.8693 -0.0997186 6.90531 84.4243
12158203 10.6052 12.1744 31.7753 29.8693 -0.0997186 6.90531 84.4243
12158213 10.5964 12.0915 31.7753 29.8596 -0.124688 6.92819 84.3229
12158220 10.614 12.1376 31.7852 29.9181 -0.101686 6.91819 84.4548
12158237 10.614 12.1376 31.7852 29.9181 -0.101686 6.91819 84.4548
12158241 10.6933 12.1468 31.8049 29.8888 -0.136778 6.89434 84.5338
12158252 10.6404 12.1284 31.7753 29.9181 -0.109312 6.91278 84.4622
12158272 10.6933 12.1836 31.8738 29.9083 -0.140293 6.89328 84.659
12158284 10.6933 12.1836 31.8738 29.9083 -0.140293 6.89328 84.659
12158293 10.6404 12.1192 31.8639 29.8693 -0.152624 6.91899 84.4929
12158308 10.6933 12.2113 31.795 29.8986 -0.111839 6.87765 84.5981
12158321 10.6404 12.156 31.736 29.9181 -0.0894919 6.90184 84.4504
12158333 10.6316 12.1284 31.795 29.9278 -0.109622 6.91789 84.4828
12158343 10.6316 12.1284 31.795 29.9278 -0.109622 6.91789 84.4828
12158357 10.6316 12.1284 31.8344 29.9278 -0.121216 6.92165 84.5222
12158363 10.5876 12.1284 31.7852 29.9278 -0.0937358 6.92838 84.4289
12158373 10.5876 12.1192 31.7852 30.035 -0.0646532 6.941 84.5269
12158383 10.5876 12.0547 31.795 30.035 -0.0866905 6.95868 84.4723
12158393 10.5876 12.0547 31.795 30.035 -0.0866905 6.95868 84.4723
12158407 10.5523 12.0363 31.8246 30.1226 -0.0644565 6.98377 84.5358
12158414 10.5523 12.0363 31.8738 30.1811 -0.0616431 6.99396 84.6435
12158431 10.5523 12.0363 31.8738 30.1811 -0.0616431 6.99396 84.6435
12158434 10.5523 11.9995 31.9624 30.2493 -0.0784397 7.01833 84.7634
12158444 10.5523 11.9995 31.9624 30.2493 -0.0784397 7.01833 84.7634
12158455 10.5347 11.8982 31.9033 30.2298 -0.0916615 7.04188 84.566
12158464 10.4995 11.9074 31.9131 30.3467 -0.046815 7.06057 84.6667
12158484 10.5171 11.8982 31.923 30.2785 -0.0778273 7.0529 84.6168
12158494 10.4026 11.8613 31.8738 30.2883 -0.0375435 7.08872 84.4259
12158505 10.4026 11.8613 31.8738 30.2883 -0.0375435 7.08872 84.4259
12158515 10.4114 11.8613 31.9427 30.3175 -0.0518367 7.0956 84.5329
12158528 10.4114 11.7692 32.0214 30.337 -0.0965908 7.12885 84.539
12158535 10.4114 11.7692 32.0214 30.337 -0.0965908 7.12885 84.539
12158545 10.4731 11.7232 32.0116 30.4344 -0.0966042 7.13292 84.6422
12158555 10.4731 11.7232 32.0116 30.4344 -0.0966042 7.13292 84.6422
12158565 10.4026 11.7324 31.9919 30.3759 -0.084658 7.14169 84.5028
12158576 10.429 11.7232 32.0214 30.4149 -0.0923157 7.14355 84.5885
12158585 10.429 11.7232 32.0214 30.4149 -0.0923157 7.14355 84.5885
12158600 10.3409 11.6863 32.1002 30.4539 -0.0889361 7.18718 84.5813
12158605 10.3409 11.6863 32.1199 30.4539 -0.0947326 7.189 84.601
12158624 10.3497 11.7324 32.1199 30.5026 -0.0692487 7.17912 84.7046
12158626 10.3409 11.6863 32.1297 30.5318 -0.0745311 7.1971 84.6888
12158648 10.3409 11.6127 32.0903 30.5026 -0.0934452 7.21011 84.5465
12158655 10.3497 11.7232 32.0903 30.5318 -0.0546321 7.18151 84.6951
12158671 10.3497 11.7232 32.0903 30.5318 -0.0546321 7.18151 84.6951
12158675 10.3409 11.6679 32.1888 30.5318 -0.0973582 7.20736 84.7294
12158685 10.2881 11.585 32.1199 30.5805 -0.0716478 7.24114 84.5735
12158707 10.2969 11.6127 32.11 30.6585 -0.0400871 7.23781 84.678
12158720 10.2969 11.6127 32.11 30.6585 -0.0400871 7.23781 84.678
12158728 10.2528 11.6035 32.0313 30.6 -0.0238642 7.23922 84.4876
12158738 10.1736 11.6771 32.0214 30.6487 0.0387043 7.24426 84.5209
12158758 10.2088 11.5943 31.9427 30.639 0.0242174 7.24869 84.3847
12158768 10.2528 11.6219 31.982 30.6779 0.0191987 7.23701 84.5347
12158788 10.2088 11.5114 31.982 30.7364 0.0168502 7.28309 84.4386
12158798 10.2088 11.5114 31.982 30.7364 0.0168502 7.28309 84.4386
12158808 10.1383 11.585 32.0411 30.8143 0.0650048 7.29474 84.5788
12158818 10.1295 11.5206 32.11 30.8825 0.0483096 7.32652 84.6427
12158834 10.1295 11.5206 32.11 30.8825 0.0483096 7.32652 84.6427
12158838 10.1383 11.5666 32.0805 30.8825 0.0680089 7.30938 84.668
12158848 10.1031 11.4745 32.1002 30.9799 0.0741839 7.35357 84.6578
12158869 10.1207 11.5574 32.1691 31.0189 0.0844061 7.33682 84.8661
12158882 10.1207 11.5574 32.1691 31.0189 0.0844061 7.33682 84.8661
12158889 10.0943 11.493 32.1691 31.0384 0.079006 7.36252 84.7947
12158899 10.0503 11.3548 32.2085 31.165 0.0770092 7.42553 84.7786
12158909 10.0503 11.3548 32.2085 31.165 0.0770092 7.42553 84.7786
12158919 10.015 11.3364 32.2577 31.2235 0.0846386 7.44933 84.8326
12158932 9.99741 11.2075 32.2183 31.3989 0.115129 7.50022 84.822
