4467891 9.61865 12.0271 24.3631 23.8487 0.677839 5.70433 69.8575
4467899 9.60984 12.0179 24.491 23.9754 0.674936 5.74342 70.0941
4467919 9.59223 12.0363 24.432 23.9559 0.702685 5.7328 70.0164
4467929 9.52176 11.9718 24.4713 24.0533 0.725535 5.79086 70.0182
4467938 9.52176 11.9718 24.4713 24.0533 0.725535 5.79086 70.0182
4467949 9.51295 12.0547 24.5501 24.0825 0.738671 5.78308 70.2003
4467959 9.51295 12.0547 24.5501 24.0825 0.738671 5.78308 70.2003
4467969 9.44249 12.0087 24.5796 24.0728 0.734392 5.82023 70.1035
4467978 9.45129 11.9718 24.5402 24.1897 0.773302 5.83869 70.1531
4467988 9.45129 11.9718 24.5402 24.1897 0.773302 5.83869 70.1531
4468001 9.43368 12.0087 24.6485 24.1897 0.752753 5.84711 70.2805
4468008 9.43368 12.0087 24.6485 24.1897 0.752753 5.84711 70.2805
4468020 9.40725 11.9534 24.6682 24.141 0.719297 5.86759 70.1699
4468028 9.40725 11.935 24.6387 24.1312 0.720379 5.86795 70.1122
4468050 9.38083 11.9258 24.7076 24.1215 0.698242 5.88626 70.1357
4468060 9.38964 11.9902 24.6288 24.2092 0.776494 5.86563 70.2179
4468069 9.38964 11.9902 24.6288 24.2092 0.776494 5.86563 70.2179
4468078 9.39845 11.9534 24.6485 24.1215 0.723004 5.86511 70.1219
4468089 9.39845 11.9534 24.6485 24.1215 0.723004 5.86511 70.1219
4468099 9.3456 11.9626 24.6091 24.1507 0.770175 5.87678 70.0681
4468110 9.40725 11.981 24.6387 24.1702 0.749785 5.85934 70.1972
4468130 9.31917 12.0455 24.5501 24.1702 0.837001 5.85481 70.085
4468138 9.3456 11.9902 24.5599 24.1117 0.78437 5.85705 70.0075
4468152 9.3456 11.9902 24.5599 24.1117 0.78437 5.85705 70.0075
4468159 9.44249 12.0731 24.5402 24.102 0.781241 5.79977 70.1579
4468173 9.44249 12.0731 24.5402 24.102 0.781241 5.79977 70.1579
4468180 9.38083 12.0363 24.5304 24.0923 0.791454 5.82645 70.0398
4468190 9.41606 12.1284 24.5009 24.0825 0.817785 5.7835 70.1278
4468200 9.41606 12.1284 24.5009 24.0825 0.817785 5.7835 70.1278
4468210 9.43368 12.1192 24.4713 24.0338 0.802183 5.77071 70.058
4468220 9.47772 12.1744 24.4615 24.0241 0.805303 5.73873 70.1377
4468240 9.52176 12.1928 24.4418 23.9948 0.792617 5.7138 70.1513
4468251 9.50414 12.1468 24.4418 23.9169 0.75624 5.7223 70.0097
4468262 9.50414 12.1468 24.4418 23.9169 0.75624 5.7223 70.0097
4468271 9.49534 12.2297 24.4418 23.9754 0.808325 5.70815 70.1422
4468291 9.50414 12.2205 24.4024 23.8682 0.779372 5.68882 69.9952
4468302 9.51295 12.2205 24.5009 23.8877 0.746676 5.70188 70.122
4468312 9.51295 12.2205 24.5009 23.8877 0.746676 5.70188 70.122
4468325 9.54819 12.2573 24.4123 23.9266 0.792471 5.67403 70.1444
4468335 9.46891 12.2113 24.5107 23.9754 0.786346 5.73051 70.1662
4468342 9.46891 12.2113 24.5107 23.9754 0.786346 5.73051 70.1662
4468353 9.51295 12.2665 24.5107 23.8974 0.762343 5.69089 70.1876
4468363 9.51295 12.2665 24.5107 23.8974 0.762343 5.69089 70.1876
4468374 9.51295 12.1836 24.4615 23.9461 0.768614 5.71528 70.1042
4468384 9.51295 12.1652 24.4517 23.8877 0.745633 5.71168 70.0175
4468395 9.51295 12.1652 24.4517 23.8877 0.745633 5.71168 70.0175
4468403 9.5658 12.1928 24.5304 23.8682 0.700158 5.69577 70.1572
4468418 9.51295 12.1744 24.4812 23.8097 0.710946 5.70252 69.9783
4468425 9.51295 12.1744 24.4812 23.8097 0.710946 5.70252 69.9783
4468435 9.52176 12.1928 24.5796 23.8097 0.677997 5.70754 70.104
4468443 9.52176 12.1928 24.5796 23.8097 0.677997 5.70754 70.104
4468457 9.4601 12.1468 24.5501 23.8097 0.695458 5.73549 69.9667
4468463 9.50414 12.1284 24.6091 23.8585 0.668168 5.74216 70.1001
4468474 9.50414 12.1284 24.6091 23.8585 0.668168 5.74216 70.1001
4468483 9.49534 12.1928 24.5993 23.7415 0.656781 5.70892 70.029
4468493 9.43368 12.1652 24.6584 23.8097 0.671828 5.75218 70.067
4468513 9.50414 12.1652 24.6781 23.8195 0.642222 5.73522 70.1669
4468523 9.50414 12.1652 24.6781 23.8195 0.642222 5.73522 70.1669
4468539 9.47772 12.0823 24.6977 23.8487 0.626045 5.77401 70.1065
4468547 9.50414 12.1284 24.6682 23.8974 0.660077 5.75509 70.1982
4468555 9.50414 12.1284 24.6682 23.8974 0.660077 5.75509 70.1982
4468566 9.4601 12.1284 24.7371 23.8974 0.65099 5.77717 70.223
4468575 9.41606 12.0639 24.8159 23.9072 0.619331 5.82092 70.203
4468585 9.41606 12.0639 24.8159 23.9072 0.619331 5.82092 70.203
4468595 9.41606 11.9902 24.8749 23.9266 0.578961 5.85303 70.2079
4468606 9.41606 11.9902 24.8749 23.9266 0.578961 5.85303 70.2079
4468615 9.36321 11.9442 24.8454 23.9364 0.596377 5.87987 70.0892
4468625 9.31036 11.9718 24.8946 23.9948 0.627637 5.90137 70.1717
4468636 9.31036 11.9718 24.8946 23.9948 0.627637 5.90137 70.1717
4468646 9.38964 11.8982 24.8454 24.0143 0.597829 5.89584 70.1475
4468656 9.32798 11.8889 24.8946 23.9559 0.578812 5.91578 70.0674
4468676 9.32798 11.8337 24.9241 24.0241 0.572544 5.94492 70.1099
4468687 9.32798 11.8337 24.9241 24.0241 0.572544 5.94492 70.1099
4468697 9.28394 11.7416 24.8946 24.0825 0.587684 5.9894 70.0027
4468708 9.32798 11.7048 24.9438 24.1897 0.578144 6.00733 70.1663
4468729 9.18705 11.6771 25.0226 24.1702 0.584418 6.06548 70.057
4468737 9.19586 11.6587 25.0324 24.2384 0.594947 6.07831 70.1254
4468749 9.19586 11.6587 25.0324 24.2384 0.594947 6.07831 70.1254
4468759 9.23109 11.6863 25.0816 24.1897 0.556821 6.05949 70.1888
4468770 9.16943 11.6771 25.0324 24.2676 0.621167 6.08443 70.1466
4468790 9.22228 11.7048 25.0718 24.2481 0.590354 6.0628 70.247
4468811 9.17824 11.6679 25.0718 24.2287 0.586823 6.0846 70.1466
4468818 9.18705 11.7324 25.0816 24.2676 0.615966 6.06881 70.2687
4468831 9.18705 11.7324 25.0816 24.2676 0.615966 6.06881 70.2687
4468840 9.17824 11.714 25.0324 24.2287 0.617206 6.06576 70.1533
4468852 9.11658 11.7876 25.0226 24.1799 0.652015 6.05469 70.1068
4468872 9.18705 11.7692 24.9734 24.2579 0.664896 6.04273 70.1875
4468880 9.18705 11.7692 24.9734 24.2579 0.664896 6.04273 70.1875
4468891 9.20466 11.7324 24.8651 24.1897 0.661626 6.02593 69.9918
4468900 9.19586 11.8153 24.8848 24.1799 0.683042 6.00497 70.0759
4468912 9.19586 11.8153 24.8848 24.1799 0.683042 6.00497 70.0759
4468920 9.21347 11.7969 24.9045 24.1994 0.669748 6.01024 70.1142
4468930 9.20466 11.8153 24.9045 24.1897 0.675982 6.00611 70.1141
4468941 9.20466 11.8153 24.9045 24.1897 0.675982 6.00611 70.1141
4468954 9.2487 11.8705 24.8946 24.1994 0.685993 5.97639 70.2133
4468971 9.19586 11.8245 24.9045 24.2092 0.689161 6.00849 70.134
4468981 9.21347 11.7876 24.8848 24.2676 0.697407 6.01921 70.1535
4468991 9.21347 11.7876 24.8848 24.2676 0.697407 6.01921 70.1535
4469001 9.23109 11.76 24.8651 24.2287 0.675076 6.0147 70.0848
4469011 9.23109 11.7969 24.8552 24.2676 0.704962 6.0074 70.1508
4469021 9.23109 11.7969 24.8552 24.2676 0.704962 6.0074 70.1508
4469031 9.31036 11.8613 24.806 24.3358 0.73981 5.96688 70.3135
4469047 9.31036 11.8613 24.806 24.3358 0.73981 5.96688 70.3135
4469051 9.2487 11.8337 24.7962 24.2579 0.72954 5.98226 70.1365
4469063 9.2487 11.8061 24.7962 24.2481 0.7166 5.98928 70.0991
4469071 9.2487 11.8061 24.7962 24.2481 0.7166 5.98928 70.0991
4469083 9.28394 11.8613 24.7863 24.2579 0.729784 5.96221 70.1895
4469092 9.30155 11.9074 24.6682 24.1897 0.75902 5.91913 70.0668
4469103 9.30155 11.9074 24.6682 24.1897 0.75902 5.91913 70.0668
4469112 9.37202 11.9626 24.6977 24.1994 0.744778 5.88676 70.2318
4469132 9.38964 11.9534 24.5599 24.1117 0.755411 5.8549 70.0147
4469143 9.41606 11.981 24.5895 24.1799 0.767982 5.85157 70.1665
4469152 9.41606 11.981 24.5895 24.1799 0.767982 5.85157 70.1665
4469163 9.44249 12.0455 24.491 24.1799 0.816694 5.81173 70.159
4469174 9.4601 12.0087 24.4221 24.1117 0.799322 5.79944 70.0026
4469184 9.4601 12.0087 24.4221 24.1117 0.799322 5.79944 70.0026
4469192 9.5658 12.0179 24.4418 24.1215 0.759748 5.76923 70.147
4469204 9.5658 12.0179 24.4418 24.1215 0.759748 5.76923 70.147
4469212 9.52176 12.0087 24.432 24.1994 0.803274 5.79395 70.1618
4469225 9.54819 11.9995 24.4221 24.1702 0.783914 5.78372 70.14
4469247 9.53057 11.9442 24.3827 24.141 0.775683 5.79633 69.9985
4469252 9.53938 11.9995 24.3631 24.1994 0.818974 5.78241 70.1013
4469264 9.53938 11.9995 24.3631 24.1994 0.818974 5.78241 70.1013
4469274 9.52176 12.0271 24.3532 24.2384 0.852042 5.78327 70.1405
4469293 9.48653 11.9902 24.3729 24.2384 0.845087 5.80723 70.0881
4469304 9.52176 11.9442 24.3631 24.2774 0.833285 5.81426 70.1064
4469315 9.52176 11.9442 24.3631 24.2774 0.833285 5.81426 70.1064
4469325 9.53057 11.9626 24.3827 24.2871 0.832492 5.81004 70.163
4469335 9.49534 11.9074 24.4615 24.3261 0.810874 5.85228 70.1903
4469346 9.49534 11.9074 24.4615 24.3261 0.810874 5.85228 70.1903
4469355 9.4601 11.8889 24.4418 24.443 0.864974 5.88087 70.2338
4469375 9.40725 11.8521 24.5009 24.365 0.823182 5.90512 70.1253
4469386 9.39845 11.8153 24.5009 24.4138 0.830519 5.92504 70.1283
4469395 9.39845 11.8153 24.5009 24.4138 0.830519 5.92504 70.1283
4469406 9.39845 11.8245 24.5107 24.4332 0.836778 5.92609 70.1669
4469417 9.3456 11.7324 24.5107 24.4138 0.817773 5.96689 70.0025
4469438 9.30155 11.7969 24.5206 24.4722 0.872779 5.96959 70.0912
4469446 9.30155 11.6956 24.5895 24.4625 0.809076 6.00754 70.049
4469459 9.30155 11.6956 24.5895 24.4625 0.809076 6.00754 70.049
4469467 9.29275 11.7324 24.5796 24.5209 0.848815 6.00537 70.1257
4469487 9.33679 11.6679 24.5895 24.5599 0.820181 6.01775 70.1541
4469497 9.25751 11.7048 24.6682 24.5307 0.823 6.0368 70.1611
4469507 9.25751 11.7048 24.6682 24.5307 0.823 6.0368 70.1611
4469517 9.28394 11.7232 24.6584 24.4819 0.806457 6.01587 70.1474
4469527 9.30155 11.714 24.6584 24.5891 0.833711 6.02706 70.263
4469540 9.30155 11.714 24.6584 24.5891 0.833711 6.02706 70.263
4469547 9.26632 11.7784 24.6485 24.5307 0.852364 6.00958 70.2239
4469557 9.26632 11.7784 24.6485 24.5307 0.852364 6.00958 70.2239
4469567 9.28394 11.76 24.6879 24.4917 0.811648 6.00987 70.2235
4469580 9.20466 11.7508 24.6485 24.5307 0.865579 6.03633 70.1347
4469589 9.20466 11.7508 24.6485 24.5307 0.865579 6.03633 70.1347
4469600 9.33679 11.7784 24.6682 24.5307 0.819215 5.99104 70.3141
4469608 9.2487 11.7969 24.6781 24.4819 0.837559 6.00688 70.2056
4469629 9.25751 11.7969 24.6879 24.4625 0.823987 6.00301 70.2047
4469639 9.25751 11.7969 24.6879 24.4625 0.823987 6.00301 70.2047
4469648 9.26632 11.714 24.6485 24.4332 0.796571 6.01641 70.0621
4469660 9.27513 11.76 24.6485 24.4235 0.805861 5.99872 70.1072
4469670 9.27513 11.76 24.6485 24.4235 0.805861 5.99872 70.1072
4469680 9.26632 11.6863 24.6387 24.4527 0.797379 6.02593 70.0441
4469698 9.27513 11.7232 24.7076 24.4625 0.784874 6.02231 70.1684
4469702 9.27513 11.7232 24.7076 24.4625 0.784874 6.02231 70.1684
4469710 9.31036 11.7324 24.7076 24.4138 0.758296 6.00277 70.1641
4469720 9.31036 11.7324 24.7076 24.4138 0.758296 6.00277 70.1641
4469730 9.2399 11.7048 24.6781 24.4138 0.785512 6.02839 70.0365
4469740 9.2399 11.7232 24.747 24.404 0.763166 6.03044 70.1141
4469750 9.2399 11.7232 24.747 24.404 0.763166 6.03044 70.1141
4469760 9.28394 11.7416 24.7765 24.4722 0.766063 6.02422 70.2742
4469770 9.26632 11.7324 24.7568 24.4138 0.756398 6.02226 70.1693
4469780 9.26632 11.7324 24.7568 24.4138 0.756398 6.02226 70.1693
4469790 9.22228 11.7876 24.7371 24.4527 0.812316 6.02137 70.1998
4469801 9.22228 11.7876 24.7371 24.4527 0.812316 6.02137 70.1998
4469811 9.23109 11.7416 24.7568 24.3845 0.762415 6.02632 70.114
4469821 9.28394 11.7692 24.8159 24.4235 0.744364 6.01476 70.2925
4469831 9.28394 11.7692 24.8159 24.4235 0.744364 6.01476 70.2925
4469841 9.27513 11.7324 24.8651 24.3943 0.706753 6.03097 70.2669
4469851 9.2487 11.7416 24.7863 24.4625 0.772017 6.03478 70.2391
4469861 9.2487 11.7416 24.7863 24.4625 0.772017 6.03478 70.2391
4469871 9.27513 11.6587 24.8454 24.5404 0.738981 6.06913 70.3196
4469881 9.27513 11.6587 24.8454 24.5404 0.738981 6.06913 70.3196
4469891 9.28394 11.6035 24.7666 24.4722 0.721943 6.06437 70.1263
4469902 9.2399 11.6403 24.7666 24.5891 0.791216 6.0814 70.236
4469911 9.2399 11.6403 24.7666 24.5891 0.791216 6.0814 70.236
4469921 9.23109 11.6127 24.7666 24.5696 0.778201 6.08988 70.18
4469931 9.17824 11.6587 24.8257 24.5014 0.768274 6.09076 70.1641
4469941 9.17824 11.6587 24.8257 24.5014 0.768274 6.09076 70.1641
4469951 9.2487 11.6771 24.7666 24.5307 0.780529 6.06028 70.2232
4469961 9.2487 11.6771 24.7666 24.5307 0.780529 6.06028 70.2232
4469974 9.23109 11.5758 24.7962 24.5404 0.744537 6.10099 70.1435
4469981 9.20466 11.6311 24.8257 24.5501 0.765851 6.0973 70.2116
4469995 9.20466 11.6311 24.8257 24.5501 0.765851 6.0973 70.2116
4470001 9.21347 11.5666 24.8454 24.5112 0.719643 6.1116 70.1367
4470012 9.10777 11.5758 24.9635 24.6378 0.762028 6.17153 70.285
4470022 9.10777 11.5758 24.9635 24.6378 0.762028 6.17153 70.285
4470032 9.18705 11.4745 24.8946 24.5891 0.70639 6.16338 70.1453
4470042 9.18705 11.4745 24.8946 24.5891 0.70639 6.16338 70.1453
4470052 9.14301 11.5574 24.9143 24.5696 0.73725 6.15169 70.1844
4470063 9.1342 11.5574 24.8651 24.5404 0.748441 6.14445 70.0971
4470072 9.1342 11.5574 24.8651 24.5404 0.748441 6.14445 70.0971
4470082 9.19586 11.5482 24.8651 24.5891 0.73947 6.13479 70.1983
4470105 9.14301 11.5022 24.9143 24.5891 0.724879 6.17081 70.1486
4470122 9.14301 11.5758 24.934 24.5696 0.7364 6.14862 70.2225
4470132 9.16062 11.5574 24.8749 24.6476 0.772145 6.15124 70.2405
4470143 9.17824 11.5206 24.9241 24.6281 0.728205 6.16078 70.251
4470154 9.17824 11.5206 24.9241 24.6281 0.728205 6.16078 70.251
4470163 9.14301 11.5206 24.9143 24.5599 0.721139 6.16157 70.1378
4470173 9.1342 11.5298 24.9143 24.5599 0.727558 6.16145 70.1382
4470183 9.1342 11.5298 24.9143 24.5599 0.727558 6.16145 70.1382
4470194 9.15181 11.5666 24.9143 24.5891 0.743935 6.14872 70.2219
4470206 9.15181 11.5666 24.9143 24.5891 0.743935 6.14872 70.2219
4470214 9.05492 11.493 24.8159 24.6183 0.800386 6.19151 69.9821
4470225 9.1342 11.4561 24.8848 24.6963 0.760078 6.19713 70.1714
4470247 9.19586 11.5022 24.8552 24.6573 0.750732 6.15602 70.2106
4470255 9.09896 11.4377 24.8848 24.706 0.77002 6.21457 70.1275
4470275 9.1342 11.5114 24.8946 24.745 0.792328 6.1878 70.2852
4470285 9.1342 11.5114 24.8946 24.745 0.792328 6.1878 70.2852
4470296 9.08135 11.4469 24.8651 24.7352 0.797009 6.21831 70.1286
4470306 9.16062 11.5114 24.8848 24.7352 0.782886 6.17738 70.292
4470316 9.16062 11.5114 24.8848 24.7352 0.782886 6.17738 70.292
4470329 9.08135 11.4653 24.8749 24.667 0.776196 6.20542 70.0887
4470341 9.10777 11.5482 24.8848 24.6963 0.801551 6.17731 70.237
4470346 9.10777 11.5482 24.8848 24.6963 0.801551 6.17731 70.237
4470356 9.09896 11.493 24.8257 24.6378 0.787273 6.18188 70.0555
4470366 9.09896 11.493 24.8257 24.6378 0.787273 6.18188 70.0555
4470377 9.09896 11.4745 24.8454 24.745 0.810659 6.20338 70.1639
4470390 9.10777 11.539 24.8651 24.7547 0.825739 6.18495 70.2666
4470411 9.11658 11.5758 24.8356 24.667 0.815853 6.15646 70.195
4470417 9.08135 11.585 24.8159 24.6573 0.835884 6.1606 70.1396
4470427 9.08135 11.585 24.8159 24.6573 0.835884 6.1606 70.1396
4470437 9.07254 11.585 24.7765 24.6281 0.84357 6.1546 70.0622
4470458 9.08135 11.5666 24.7962 24.6768 0.843504 6.16613 70.1209
4470467 9.08135 11.6035 24.806 24.6865 0.855914 6.15748 70.1774
4470479 9.08135 11.6035 24.806 24.6865 0.855914 6.15748 70.1774
4470489 9.11658 11.5574 24.806 24.6768 0.823727 6.15952 70.1568
4470500 9.06373 11.6495 24.8651 24.706 0.86318 6.15881 70.2843
4470509 9.06373 11.6495 24.8651 24.706 0.86318 6.15881 70.2843
4470521 9.1342 11.585 24.8356 24.6573 0.809193 6.14715 70.2121
4470529 9.12539 11.5758 24.7863 24.6183 0.813928 6.14145 70.1059
4470540 9.12539 11.5758 24.7863 24.6183 0.813928 6.14145 70.1059
4470550 9.1342 11.6127 24.7174 24.6573 0.862199 6.1239 70.1216
4470560 9.1342 11.6127 24.7174 24.6573 0.862199 6.1239 70.1216
4470570 9.16062 11.6219 24.7076 24.6378 0.852546 6.10946 70.1279
4470580 9.20466 11.6587 24.6879 24.5599 0.829414 6.07273 70.1112
4470590 9.20466 11.6587 24.6879 24.5599 0.829414 6.07273 70.1112
4470600 9.22228 11.6219 24.5698 24.5501 0.850427 6.0622 69.9641
4470611 9.2399 11.6495 24.6091 24.5989 0.855711 6.05984 70.0974
4470620 9.2399 11.6495 24.6091 24.5989 0.855711 6.05984 70.0974
4470633 9.33679 11.6956 24.6288 24.5696 0.818574 6.01576 70.2308
4470650 9.21347 11.6403 24.6091 24.5794 0.855571 6.06806 70.0423
4470660 9.31917 11.714 24.5599 24.6086 0.870159 6.01169 70.2017
4470681 9.31917 11.6403 24.6781 24.6183 0.804707 6.05008 70.2559
4470691 9.29275 11.6587 24.6584 24.5599 0.807858 6.04252 70.1697
4470711 9.31917 11.6219 24.619 24.6183 0.820076 6.04807 70.1784
4470731 9.26632 11.6311 24.7076 24.6281 0.81346 6.07369 70.2331
4470743 9.2487 11.6311 24.6584 24.5891 0.824621 6.06776 70.1273
4470752 9.2487 11.6311 24.6584 24.5891 0.824621 6.06776 70.1273
4470764 9.23109 11.585 24.7174 24.6378 0.810286 6.10059 70.1714
4470772 9.26632 11.6127 24.6781 24.667 0.831389 6.08041 70.2241
4470785 9.26632 11.6127 24.6781 24.667 0.831389 6.08041 70.2241
4470792 9.31036 11.6219 24.7273 24.5989 0.776812 6.06203 70.2584
4470802 9.31036 11.6219 24.7273 24.5989 0.776812 6.06203 70.2584
4470812 9.23109 11.6035 24.6584 24.5989 0.824943 6.0826 70.0918
4470822 9.25751 11.5666 24.8257 24.706 0.777984 6.12051 70.3559
4470832 9.25751 11.5666 24.8257 24.706 0.777984 6.12051 70.3559
4470842 9.19586 11.5482 24.7962 24.7158 0.808448 6.14208 70.256
4470854 9.16062 11.4837 24.7765 24.706 0.803065 6.16842 70.1269
4470862 9.16062 11.4837 24.7765 24.706 0.803065 6.16842 70.1269
4470875 9.18705 11.5114 24.8257 24.6963 0.781432 6.15709 70.2204
4470885 9.18705 11.5114 24.8257 24.6963 0.781432 6.15709 70.2204
4470894 9.15181 11.5022 24.8454 24.6768 0.777239 6.17052 70.1762
4470902 9.16062 11.4745 24.8848 24.6768 0.750011 6.18114 70.1967
4470914 9.16062 11.4745 24.8848 24.6768 0.750011 6.18114 70.1967
4470924 9.16062 11.4745 24.8749 24.6865 0.756988 6.18113 70.1966
4470934 9.14301 11.4745 24.8946 24.7255 0.769681 6.19381 70.2377
4470944 9.14301 11.4745 24.8946 24.7255 0.769681 6.19381 70.2377
4470953 9.11658 11.4561 24.8946 24.7158 0.769663 6.20613 70.1831
4470965 9.11658 11.4561 24.8946 24.7158 0.769663 6.20613 70.1831
4470979 9.06373 11.4285 24.8946 24.6573 0.759327 6.22315 70.0441
4470987 9.07254 11.5022 24.9045 24.6768 0.784665 6.20187 70.156
4470993 9.07254 11.5022 24.9045 24.6768 0.784665 6.20187 70.156
4471003 9.09016 11.4469 24.9045 24.6573 0.752369 6.21081 70.0988
4471013 9.01969 11.4377 24.9537 24.6281 0.746873 6.23744 70.0392
4471024 9.01969 11.4377 24.9537 24.6281 0.746873 6.23744 70.0392
4471036 9.04611 11.4285 24.934 24.706 0.768173 6.23951 70.1146
4471046 9.04611 11.4285 24.934 24.706 0.768173 6.23951 70.1146
4471053 9.09016 11.4837 24.9537 24.7158 0.767219 6.21316 70.2433
4471063 9.09016 11.4745 24.9734 24.6378 0.729895 6.20865 70.1759
4471075 9.09016 11.4745 24.9734 24.6378 0.729895 6.20865 70.1759
4471087 9.12539 11.5758 24.9438 24.6281 0.759429 6.16253 70.2731
4471095 9.09896 11.4745 24.9734 24.5794 0.706434 6.19866 70.1262
4471107 9.09896 11.4745 24.9734 24.5794 0.706434 6.19866 70.1262
4471116 9.15181 11.5298 24.9734 24.5307 0.689343 6.1599 70.1856
4471127 9.15181 11.5298 24.9734 24.5307 0.689343 6.1599 70.1856
4471135 9.1342 11.493 25.0127 24.5989 0.692239 6.18984 70.2387
4471147 9.17824 11.5298 24.9832 24.6183 0.706407 6.16421 70.3096
4471156 9.17824 11.5298 24.9832 24.6183 0.706407 6.16421 70.3096
4471167 9.14301 11.539 24.9832 24.5696 0.705642 6.16592 70.2348
4471176 9.16062 11.539 24.9635 24.4722 0.67265 6.14585 70.1354
4471188 9.16062 11.539 24.9635 24.4722 0.67265 6.14585 70.1354
4471196 9.17824 11.5206 25.0423 24.4819 0.634417 6.15725 70.223
4471209 9.17824 11.5206 25.0423 24.4819 0.634417 6.15725 70.223
4471216 9.16943 11.5022 25.0029 24.4917 0.649008 6.16173 70.1662
4471228 9.18705 11.5022 25.0521 24.5209 0.634739 6.16629 70.2622
4471237 9.18705 11.5022 25.0521 24.5209 0.634739 6.16629 70.2622
4471248 9.16062 11.4193 25.0718 24.4527 0.584695 6.19318 70.1044
4471257 9.18705 11.5114 25.0324 24.4527 0.621453 6.15245 70.1836
4471269 9.18705 11.5114 25.0324 24.4527 0.621453 6.15245 70.1836
4471277 9.10777 11.5114 25.0718 24.5014 0.652933 6.18744 70.1924
4471290 9.10777 11.5114 25.0718 24.5014 0.652933 6.18744 70.1924
4471297 9.04611 11.4193 25.1702 24.4527 0.590563 6.24017 70.0884
4471310 9.11658 11.4285 25.2096 24.5112 0.574061 6.22828 70.2659
4471317 9.11658 11.4285 25.2096 24.5112 0.574061 6.22828 70.2659
4471331 9.10777 11.4653 25.1998 24.4235 0.563166 6.20762 70.1964
4471338 9.09896 11.4469 25.2195 24.443 0.559574 6.22075 70.2083
4471348 9.09896 11.4469 25.2195 24.443 0.559574 6.22075 70.2083
4471357 9.07254 11.4469 25.2293 24.4138 0.555432 6.22632 70.1625
4471367 9.07254 11.4469 25.2293 24.4138 0.555432 6.22632 70.1625
4471377 9.09896 11.4561 25.2588 24.4625 0.555232 6.22532 70.2764
4471387 9.08135 11.4653 25.2687 24.443 0.554484 6.22666 70.2583
4471399 9.08135 11.4653 25.2687 24.443 0.554484 6.22666 70.2583
4471409 9.09016 11.4837 25.2293 24.3943 0.555065 6.20742 70.1975
4471420 9.09896 11.4377 25.2195 24.365 0.5292 6.21378 70.1212
4471429 9.09896 11.4377 25.2195 24.365 0.5292 6.21378 70.1212
4471440 9.11658 11.4469 25.2687 24.4819 0.548825 6.22644 70.3141
4471447 9.11658 11.4469 25.2687 24.4819 0.548825 6.22644 70.3141
4471459 9.0285 11.4377 25.1801 24.3748 0.572655 6.23141 70.0211
4471467 9.08135 11.493 25.2293 24.3845 0.558087 6.20608 70.1881
4471479 9.08135 11.493 25.2293 24.3845 0.558087 6.20608 70.1881
4471488 9.10777 11.5206 25.0816 24.4138 0.622088 6.17488 70.1237
4471500 9.08135 11.5574 25.2096 24.3553 0.577521 6.18047 70.2037
4471522 9.12539 11.539 25.2195 24.2968 0.531134 6.16663 70.1807
4471528 9.12539 11.539 25.2195 24.2968 0.531134 6.16663 70.1807
4471543 9.11658 11.5482 25.1506 24.2579 0.549054 6.15292 70.0732
4471550 9.16062 11.6403 25.121 24.2871 0.586027 6.11186 70.209
4471560 9.16062 11.6403 25.121 24.2871 0.586027 6.11186 70.209
4471570 9.1342 11.5943 25.0816 24.2384 0.577033 6.12253 70.0485
4471580 9.16943 11.6956 25.1112 24.2189 0.581902 6.08271 70.1951
4471590 9.16943 11.6956 25.1112 24.2189 0.581902 6.08271 70.1951
4471600 9.17824 11.7048 25.1407 24.2092 0.567752 6.07982 70.2329
4471627 9.17824 11.6495 25.1013 24.2189 0.56625 6.09265 70.148
4471636 9.23109 11.6495 25.062 24.2287 0.564733 6.07301 70.1712
4471650 9.26632 11.7048 25.0127 24.2092 0.582281 6.0371 70.193
4471661 9.25751 11.7232 25.0521 24.2189 0.580937 6.04049 70.2517
4471671 9.25751 11.7232 25.0521 24.2189 0.580937 6.04049 70.2517
4471682 9.30155 11.7048 24.9832 24.1702 0.56664 6.01779 70.1597
4471705 9.25751 11.6956 24.9537 24.2189 0.607222 6.0362 70.1257
4471716 9.29275 11.7876 24.9734 24.1312 0.588721 5.98936 70.185
4471726 9.29275 11.7876 24.9734 24.1312 0.588721 5.98936 70.185
4471731 9.30155 11.7969 24.934 24.1799 0.619996 5.98517 70.2123
4471741 9.28394 11.8153 24.9241 24.1507 0.626269 5.97991 70.1741
4471754 9.28394 11.8153 24.9241 24.1507 0.626269 5.97991 70.1741
4471761 9.31036 11.8061 24.8454 24.1117 0.628644 5.9596 70.0736
4471774 9.31036 11.8061 24.8454 24.1117 0.628644 5.9596 70.0736
4471781 9.26632 11.714 24.8257 24.1799 0.643665 6.00664 69.9859
4471796 9.26632 11.6495 24.8946 24.1702 0.592583 6.03359 69.9807
4471801 9.26632 11.6495 24.8946 24.1702 0.592583 6.03359 69.9807
4471812 9.27513 11.7232 24.8257 24.2189 0.657189 6.00624 70.0429
4471822 9.29275 11.714 24.8946 24.2481 0.632489 6.0163 70.1495
4471832 9.29275 11.714 24.8946 24.2481 0.632489 6.0163 70.1495
4471842 9.23109 11.7508 24.9734 24.2481 0.639036 6.03381 70.2034
4471855 9.23109 11.7508 24.9734 24.2481 0.639036 6.03381 70.2034
4471863 9.25751 11.6587 24.9832 24.3943 0.644535 6.07335 70.2937
4471872 9.2399 11.6311 24.9045 24.3553 0.656646 6.07197 70.1308
4471886 9.2399 11.6311 24.9045 24.3553 0.656646 6.07197 70.1308
4471892 9.20466 11.6956 24.934 24.3163 0.667578 6.06198 70.1505
4471902 9.19586 11.6679 24.934 24.3163 0.661212 6.07293 70.1141
4471912 9.19586 11.6679 24.934 24.3163 0.661212 6.07293 70.1141
4471922 9.22228 11.6587 24.8848 24.4138 0.700143 6.07389 70.1795
4471934 9.22228 11.6587 24.8848 24.4138 0.700143 6.07389 70.1795
4471945 9.20466 11.6771 24.8257 24.3845 0.724509 6.06241 70.092
4471953 9.16062 11.7232 24.8552 24.4625 0.772703 6.07549 70.2015
4471965 9.16062 11.7232 24.8552 24.4625 0.772703 6.07549 70.2015
4471973 9.17824 11.76 24.8257 24.3845 0.76288 6.04545 70.1485
4471985 9.19586 11.7508 24.8356 24.404 0.75635 6.04668 70.1862
4471996 9.19586 11.7508 24.8356 24.404 0.75635 6.04668 70.1862
4472005 9.25751 11.7876 24.806 24.3553 0.740466 6.00717 70.2065
4472015 9.18705 11.7876 24.7174 24.365 0.802279 6.01818 70.0572
4472025 9.18705 11.7784 24.7174 24.365 0.799099 6.02094 70.048
4472035 9.27513 11.7876 24.7568 24.365 0.755423 5.99684 70.1846
4472055 9.23109 11.8061 24.7076 24.3553 0.792688 5.99694 70.1
4472066 9.19586 11.8061 24.747 24.3456 0.787801 6.0113 70.0944
4472075 9.19586 11.8061 24.747 24.3456 0.787801 6.0113 70.0944
4472086 9.22228 11.8337 24.6485 24.3553 0.82722 5.98371 70.0598
4472096 9.25751 11.8521 24.6387 24.3748 0.830933 5.9689 70.1231
4472106 9.25751 11.8521 24.6387 24.3748 0.830933 5.9689 70.1231
4472115 9.20466 11.9166 24.7076 24.404 0.85727 5.97805 70.2328
4472125 9.20466 11.9166 24.7076 24.404 0.85727 5.97805 70.2328
4472135 9.2399 11.8613 24.6091 24.3553 0.844768 5.9651 70.0657
4472146 9.25751 11.9442 24.619 24.3456 0.859833 5.93508 70.1663
4472157 9.25751 11.9442 24.619 24.3456 0.859833 5.93508 70.1663
4472166 9.28394 11.9442 24.6682 24.2676 0.80514 5.92349 70.164
4472179 9.27513 11.9442 24.5895 24.2968 0.847456 5.9197 70.1056
4472186 9.27513 11.9074 24.5895 24.2968 0.834763 5.9307 70.0688
4472196 9.30155 11.9995 24.5895 24.2384 0.836614 5.88777 70.1289
4472220 9.3544 11.9166 24.5009 24.2092 0.811106 5.88139 69.981
4472227 9.39845 11.9995 24.5796 24.2092 0.794509 5.85386 70.1867
4472242 9.39845 11.9995 24.5796 24.2092 0.794509 5.85386 70.1867
4472252 9.46891 12.0547 24.5009 24.1312 0.789732 5.79607 70.1557
4472261 9.40725 12.0915 24.5009 24.1605 0.835192 5.80726 70.1601
4472267 9.40725 12.0915 24.5009 24.1605 0.835192 5.80726 70.1601
4472279 9.50414 12.0271 24.4517 24.0728 0.765133 5.77966 70.0557
4472287 9.50414 12.0271 24.4517 24.0728 0.765133 5.77966 70.0557
4472297 9.48653 12.0823 24.4418 24.0728 0.794336 5.76721 70.0835
4472307 9.48653 12.0915 24.3729 24.0338 0.809434 5.75024 69.9848
4472319 9.48653 12.0915 24.3729 24.0338 0.809434 5.75024 69.9848
4472328 9.57461 12.1836 24.4123 24.0046 0.78423 5.69831 70.1751
4472339 9.54819 12.1008 24.3335 23.9656 0.780815 5.71499 69.9481
4472349 9.54819 12.1008 24.3335 23.9656 0.780815 5.71499 69.9481
4472359 9.64508 12.1284 24.3138 23.9948 0.772062 5.67945 70.0821
4472379 9.59223 12.0915 24.2942 24.0241 0.796133 5.70722 70.002
4472390 9.63627 12.1192 24.304 24.0825 0.806022 5.69511 70.142
4472399 9.63627 12.1192 24.304 24.0825 0.806022 5.69511 70.142
4472409 9.61865 12.11 24.2942 24.1117 0.823027 5.7056 70.1345
4472418 9.64508 12.0639 24.3434 24.0533 0.759128 5.71017 70.1057
4472440 9.60984 12.0915 24.2942 24.0338 0.79301 5.7033 70.0294
4472450 9.60984 12.0915 24.2942 24.0338 0.79301 5.7033 70.0294
4472460 9.63627 12.1008 24.3138 23.9851 0.762376 5.68892 70.036
4472471 9.60104 12.0823 24.3335 24.0046 0.768468 5.70998 70.0215
4472480 9.60104 12.0823 24.3335 24.0046 0.768468 5.70998 70.0215
4472493 9.60984 12.1008 24.3138 24.0728 0.802407 5.70836 70.0972
4472500 9.59223 12.1008 24.2942 24.1117 0.829586 5.71612 70.0989
4472510 9.59223 12.1008 24.2942 24.1117 0.829586 5.71612 70.0989
4472521 9.66269 12.1284 24.2449 24.063 0.814486 5.67416 70.0991
4472534 9.66269 12.1284 24.2449 24.063 0.814486 5.67416 70.0991
4472541 9.66269 12.1008 24.2548 23.9656 0.767645 5.67065 69.9838
4472554 9.64508 12.1284 24.2843 24.0143 0.78966 5.67812 70.0721
4472561 9.64508 12.1284 24.2843 24.0143 0.78966 5.67812 70.0721
4472574 9.70674 12.1468 24.2351 23.9169 0.757754 5.63493 70.0055
4472581 9.65389 12.1008 24.1859 23.9266 0.782791 5.65886 69.8672
4472595 9.65389 12.1008 24.1859 23.9266 0.782791 5.65886 69.8672
4472601 9.72435 12.1652 24.2646 23.8682 0.729924 5.62175 70.0224
4472611 9.72435 12.1652 24.2646 23.8682 0.729924 5.62175 70.0224
4472621 9.6715 12.1652 24.2056 23.8974 0.781238 5.63334 69.9397
4472632 9.70674 12.2113 24.2942 23.9072 0.754979 5.62256 70.1193
4472642 9.70674 12.2113 24.2942 23.9072 0.754979 5.62256 70.1193
4472652 9.72435 12.1928 24.2449 23.8585 0.743359 5.60968 70.0206
4472662 9.69793 12.2205 24.2646 23.8487 0.752029 5.61066 70.0317
4472672 9.69793 12.2205 24.2646 23.8487 0.752029 5.61066 70.0317
4472682 9.74197 12.2757 24.3138 23.8974 0.753731 5.59461 70.229
4472691 9.74197 12.2757 24.3138 23.8974 0.753731 5.59461 70.229
4472702 9.73316 12.2481 24.2843 23.7415 0.70428 5.58042 70.0071
4472712 9.76839 12.2573 24.2942 23.7903 0.707823 5.57524 70.1101
4472723 9.76839 12.2573 24.2942 23.7903 0.707823 5.57524 70.1101
4472732 9.74197 12.3034 24.2548 23.6928 0.714165 5.55105 69.9929
4472743 9.75078 12.2757 24.2843 23.7415 0.707397 5.56713 70.0524
4472753 9.75078 12.2757 24.2843 23.7415 0.707397 5.56713 70.0524
4472765 9.81244 12.2941 24.2745 23.6734 0.671121 5.53311 70.0544
4472773 9.81244 12.2941 24.2745 23.6734 0.671121 5.53311 70.0544
4472786 9.76839 12.3218 24.2351 23.6246 0.6944 5.526 69.9499
4472793 9.86528 12.2941 24.3138 23.6344 0.623831 5.51768 70.1077
4472806 9.86528 12.2941 24.3138 23.6344 0.623831 5.51768 70.1077
4472813 9.79482 12.3402 24.3434 23.5564 0.627702 5.51828 70.0348
4472827 9.78601 12.2849 24.2843 23.5759 0.640112 5.53171 69.9312
4472835 9.78601 12.2849 24.2843 23.5759 0.640112 5.53171 69.9312
4472848 9.83886 12.3586 24.3631 23.5662 0.614202 5.50399 70.1267
4472855 9.83886 12.3586 24.3631 23.5662 0.614202 5.50399 70.1267
4472864 9.78601 12.3126 24.3335 23.537 0.618127 5.52499 69.9691
4472880 9.84767 12.3034 24.3532 23.5857 0.602138 5.51888 70.0899
4472889 9.84767 12.3034 24.3532 23.5857 0.602138 5.51888 70.0899
4472897 9.82124 12.3402 24.4024 23.5077 0.579497 5.51194 70.0716
4472905 9.83005 12.2573 24.3729 23.5564 0.575152 5.53625 70.0167
4472915 9.83005 12.2573 24.3729 23.5564 0.575152 5.53625 70.0167
4472925 9.87409 12.3034 24.4517 23.5662 0.549823 5.52182 70.1953
4472936 9.79482 12.2297 24.3335 23.5954 0.606388 5.55464 69.9534
4472950 9.79482 12.2297 24.3335 23.5954 0.606388 5.55464 69.9534
4472956 9.85648 12.3034 24.4221 23.6441 0.594115 5.5335 70.2261
4472976 9.78601 12.1928 24.4024 23.5857 0.568154 5.57604 69.967
4472986 9.82124 12.2205 24.3827 23.6246 0.585708 5.56017 70.0491
4472996 9.82124 12.2205 24.3827 23.6246 0.585708 5.56017 70.0491
4473012 9.82124 12.2205 24.491 23.5954 0.536028 5.57081 70.1282
4473016 9.75959 12.1284 24.432 23.6734 0.575122 5.61854 69.9933
4473037 9.81244 12.2205 24.4418 23.7026 0.5945 5.58118 70.1773
4473047 9.81244 12.2205 24.4418 23.7026 0.5945 5.58118 70.1773
4473057 9.74197 12.1468 24.3827 23.6928 0.612786 5.61432 69.9644
4473066 9.79482 12.1192 24.5402 23.7903 0.560319 5.64098 70.2445
4473077 9.79482 12.1192 24.5402 23.7903 0.560319 5.64098 70.2445
4473090 9.79482 12.0915 24.4713 23.7805 0.572407 5.63861 70.1382
4473097 9.75959 12.1284 24.4615 23.8 0.608453 5.63943 70.1495
4473117 9.72435 12.11 24.5107 23.839 0.610495 5.66697 70.184
4473129 9.72435 12.11 24.5107 23.839 0.610495 5.66697 70.184
4473137 9.64508 12.0547 24.5402 23.8682 0.619608 5.71445 70.1082
4473149 9.61865 12.0087 24.5895 23.9559 0.62575 5.75395 70.1727
4473157 9.61865 12.0087 24.5895 23.9559 0.62575 5.75395 70.1727
4473167 9.63627 12.0179 24.5698 23.8877 0.606 5.73442 70.1116
4473177 9.63627 12.0179 24.5698 23.8877 0.606 5.73442 70.1116
4473187 9.60104 11.9902 24.5796 23.9169 0.615832 5.75818 70.0878
4473198 9.55699 12.0087 24.5501 23.9559 0.662696 5.76702 70.0716
4473208 9.55699 12.0087 24.5501 23.9559 0.662696 5.76702 70.0716
4473222 9.53938 11.981 24.5993 23.9364 0.63476 5.78435 70.0561
4473229 9.48653 11.9534 24.6091 24.0436 0.678131 5.8236 70.0926
4473237 9.48653 11.9534 24.6091 24.0436 0.678131 5.8236 70.0926
4473250 9.51295 11.935 24.6879 24.0338 0.629884 5.83025 70.1697
4473259 9.51295 11.935 24.6879 24.0338 0.629884 5.83025 70.1697
4473270 9.39845 11.8889 24.6485 24.0923 0.690523 5.8805 70.0282
4473279 9.48653 11.9442 24.7076 24.0923 0.655824 5.84556 70.2306
4473293 9.48653 11.9442 24.7076 24.0923 0.655824 5.84556 70.2306
4473299 9.42487 11.9902 24.619 24.0533 0.713283 5.83354 70.0874
4473308 9.40725 11.935 24.6485 24.1117 0.710016 5.8667 70.1025
4473329 9.44249 11.981 24.6977 24.1215 0.6984 5.85022 70.2428
4473349 9.36321 11.9166 24.6977 24.141 0.711861 5.8955 70.1185
4473363 9.42487 11.9626 24.6977 24.2092 0.728786 5.87232 70.2944
4473380 9.42487 11.9074 24.6485 24.1312 0.700739 5.87222 70.112
4473390 9.38964 11.9534 24.5796 24.1215 0.751543 5.85875 70.0442
4473401 9.38964 11.9534 24.5796 24.1215 0.751543 5.85875 70.0442
4473412 9.41606 11.9534 24.5402 24.1117 0.752932 5.84446 70.0215
4473421 9.39845 11.9995 24.5698 24.0241 0.734127 5.82839 69.9917
4473435 9.39845 11.9995 24.5698 24.0241 0.734127 5.82839 69.9917
4473442 9.43368 12.0087 24.5895 24.0436 0.723889 5.82031 70.0754
4473451 9.43368 12.0087 24.5895 24.0436 0.723889 5.82031 70.0754
4473461 9.4601 12.0179 24.5206 23.9559 0.712284 5.78915 69.9544
4473473 9.4601 11.9534 24.5107 23.9851 0.70366 5.81088 69.9093
4473493 9.50414 12.0087 24.5599 24.0338 0.705501 5.79424 70.1066
4473503 9.53057 12.0547 24.491 24.0923 0.757241 5.77139 70.1686
4473532 9.48653 12.0455 24.491 24.0533 0.756761 5.78204 70.0764
4473541 9.51295 12.0087 24.5304 24.1312 0.74681 5.80053 70.1833
4473551 9.51295 12.0087 24.5304 24.1312 0.74681 5.80053 70.1833
4473554 9.57461 12.11 24.5501 24.0923 0.738528 5.74981 70.3269
4473575 9.53938 12.11 24.4418 24.0825 0.787798 5.74467 70.1737
4473585 9.52176 12.0639 24.4517 24.0923 0.778121 5.76609 70.1296
4473599 9.52176 12.0639 24.4517 24.0923 0.778121 5.76609 70.1296
4473606 9.50414 12.1284 24.432 24.0436 0.797278 5.7432 70.108
4473621 9.57461 12.0639 24.3926 24.0923 0.780407 5.74266 70.1234
4473626 9.57461 12.0639 24.3926 24.0923 0.780407 5.74266 70.1234
4473636 9.55699 12.11 24.3926 24.141 0.819567 5.74068 70.2005
4473647 9.57461 12.11 24.3237 24.1117 0.82837 5.72251 70.12
4473656 9.57461 12.11 24.3237 24.1117 0.82837 5.72251 70.12
4473669 9.57461 12.0915 24.3532 24.063 0.794336 5.72542 70.0824
4473676 9.57461 12.0915 24.3532 24.063 0.794336 5.72542 70.0824
4473686 9.53057 12.0547 24.3237 24.0533 0.805345 5.74417 69.9623
4473696 9.53938 12.0363 24.3729 24.1312 0.804529 5.76381 70.0798
4473706 9.53938 12.0363 24.3729 24.1312 0.804529 5.76381 70.0798
4473716 9.51295 12.1008 24.3926 24.063 0.805721 5.74615 70.0693
4473726 9.51295 12.1008 24.3926 24.063 0.805721 5.74615 70.0693
4473738 9.52176 12.0731 24.4221 24.141 0.808966 5.76589 70.158
4473746 9.4601 12.0455 24.3631 24.141 0.843927 5.78458 70.0096
4473762 9.4601 12.0455 24.3631 24.141 0.843927 5.78458 70.0096
4473767 9.51295 12.1376 24.3335 24.0728 0.843561 5.72872 70.0569
4473777 9.51295 12.1008 24.4221 24.0825 0.801575 5.75261 70.1184
4473789 9.51295 12.1008 24.4221 24.0825 0.801575 5.75261 70.1184
4473797 9.51295 12.0823 24.3729 24.0923 0.816706 5.75286 70.0605
4473808 9.51295 12.0823 24.3729 24.0923 0.816706 5.75286 70.0605
4473817 9.53938 12.1192 24.3827 24.063 0.805971 5.73158 70.1043
4473832 9.52176 12.1284 24.432 24.0143 0.780705 5.73413 70.0964
4473837 9.52176 12.1284 24.432 24.0143 0.780705 5.73413 70.0964
4473847 9.53938 12.11 24.3729 24.0241 0.792959 5.72784 70.0463
4473859 9.54819 12.1836 24.3335 24.0241 0.829652 5.69824 70.0894
4473867 9.54819 12.1836 24.3335 24.0241 0.829652 5.69824 70.0894
4473880 9.5658 12.1744 24.3335 24.0143 0.816625 5.69447 70.0881
4473887 9.5658 12.1744 24.3335 24.0143 0.816625 5.69447 70.0881
4473903 9.55699 12.11 24.304 24.0046 0.805125 5.71091 69.9755
4473907 9.60984 12.1008 24.3434 23.9948 0.764605 5.70194 70.0488
4473917 9.60984 12.1008 24.3434 23.9948 0.764605 5.70194 70.0488
4473927 9.64508 12.2113 24.2646 24.0046 0.822151 5.64977 70.1255
4473937 9.63627 12.2113 24.3138 23.9948 0.803918 5.65762 70.1562
4473950 9.63627 12.1744 24.3138 23.9948 0.79121 5.66847 70.1194
4473960 9.66269 12.2297 24.1563 23.9559 0.845131 5.61817 70.0046
4473967 9.66269 12.2297 24.1563 23.9559 0.845131 5.61817 70.0046
4473977 9.68031 12.1836 24.2056 23.8682 0.774246 5.62139 69.9377
4473987 9.72435 12.2297 24.176 23.8974 0.794947 5.59482 70.0275
4474007 9.79482 12.2021 24.1268 23.9072 0.780937 5.57692 70.0309
4474020 9.79482 12.2021 24.1268 23.9072 0.780937 5.57692 70.0309
4474028 9.80363 12.2389 24.1662 23.8195 0.745618 5.55701 70.0282
4474040 9.84767 12.2665 24.1859 23.8682 0.748619 5.54522 70.1683
4474047 9.84767 12.2665 24.1859 23.8682 0.748619 5.54522 70.1683
4474061 9.89171 12.3034 24.0874 23.8097 0.761127 5.50035 70.0922
4474067 9.83005 12.2573 24.0776 23.7221 0.741103 5.51868 69.887
4474077 9.83005 12.2573 24.0776 23.7221 0.741103 5.51868 69.887
4474087 9.86528 12.2941 24.0973 23.7805 0.753921 5.50815 70.0372
4474097 9.86528 12.2941 24.0973 23.7805 0.753921 5.50815 70.0372
4474108 9.81244 12.2481 24.1268 23.8682 0.776905 5.55298 70.0555
4474117 9.87409 12.2389 24.176 23.8877 0.739723 5.54687 70.1767
4474127 9.87409 12.2389 24.176 23.8877 0.739723 5.54687 70.1767
4474137 9.8829 12.2297 24.1859 23.839 0.712842 5.54175 70.1374
4474150 9.81244 12.2389 24.1367 23.8195 0.753239 5.55044 70.0075
4474171 9.81244 12.2389 24.1367 23.8195 0.753239 5.55044 70.0075
4474173 9.76839 12.1836 24.2449 23.8487 0.720611 5.59812 70.0457
4474177 9.76839 12.1836 24.2449 23.8487 0.720611 5.59812 70.0457
4474192 9.71554 12.1928 24.2646 23.9072 0.756222 5.62143 70.0802
4474197 9.71554 12.1376 24.304 23.9461 0.736123 5.64817 70.1033
4474209 9.71554 12.1376 24.304 23.9461 0.736123 5.64817 70.1033
4474219 9.70674 12.1836 24.3434 23.9266 0.734094 5.63986 70.1604
4474228 9.72435 12.0823 24.3434 23.9169 0.68917 5.66321 70.067
4474249 9.69793 12.1468 24.3631 23.8779 0.700486 5.64942 70.0857
4474258 9.69793 12.1468 24.3631 23.8779 0.700486 5.64942 70.0857
4474270 9.6715 12.0547 24.3631 23.8877 0.681594 5.6857 69.977
4474281 9.65389 12.0823 24.3926 23.9559 0.710478 5.69573 70.0847
4474290 9.65389 12.0823 24.3926 23.9559 0.710478 5.69573 70.0847
4474303 9.60984 12.0455 24.3434 23.9169 0.718439 5.70794 69.9156
4474310 9.58342 12.0455 24.3926 23.9364 0.71682 5.72488 69.9579
4474320 9.58342 12.0455 24.3926 23.9364 0.71682 5.72488 69.9579
4474330 9.58342 12.0639 24.491 23.9559 0.693834 5.73504 70.0942
4474340 9.58342 12.0639 24.491 23.9559 0.693834 5.73504 70.0942
4474350 9.59223 12.0271 24.4615 23.9656 0.692034 5.74072 70.0464
4474360 9.59223 12.0639 24.5698 23.9754 0.668535 5.7454 70.2013
4474370 9.59223 12.0639 24.5698 23.9754 0.668535 5.7454 70.2013
4474380 9.58342 12.0731 24.5402 24.0436 0.709361 5.75038 70.2403
4474390 9.53057 12.0915 24.4713 23.9948 0.74352 5.74505 70.0883
4474402 9.53057 12.0915 24.4713 23.9948 0.74352 5.74505 70.0883
4474411 9.57461 12.1376 24.5304 23.9754 0.714895 5.72365 70.218
4474420 9.57461 12.1376 24.5304 23.9754 0.714895 5.72365 70.218
4474432 9.61865 12.1192 24.491 23.9169 0.686571 5.70315 70.1458
4474440 9.60104 12.1192 24.4221 23.9072 0.714916 5.69792 70.0495
4474454 9.60104 12.1192 24.4221 23.9072 0.714916 5.69792 70.0495
4474460 9.6715 12.156 24.4024 23.8292 0.682032 5.65325 70.0592
4474472 9.60104 12.2113 24.4123 23.8292 0.723439 5.65905 70.0538
4474481 9.60104 12.2113 24.4123 23.8292 0.723439 5.65905 70.0538
4474491 9.6715 12.1468 24.4123 23.8487 0.68199 5.65988 70.0793
4474502 9.6715 12.1468 24.4123 23.8487 0.68199 5.65988 70.0793
4474511 9.65389 12.1836 24.3532 23.839 0.71952 5.64503 70.0297
4474521 9.63627 12.1376 24.3631 23.8292 0.703019 5.66383 69.9661
4474531 9.63627 12.1376 24.3631 23.8292 0.703019 5.66383 69.9661
4474543 9.74197 12.1652 24.4123 23.8292 0.655821 5.6311 70.1487
4474551 9.61865 12.1652 24.3631 23.8292 0.719082 5.66087 69.9762
4474566 9.61865 12.1376 24.3631 23.8779 0.726396 5.67553 69.9972
4474570 9.64508 12.11 24.4615 23.9169 0.684518 5.69415 70.1334
4474581 9.64508 12.11 24.4615 23.9169 0.684518 5.69415 70.1334
4474591 9.68912 12.1376 24.432 23.8779 0.675273 5.66392 70.1366
4474601 9.65389 12.2021 24.4615 23.8097 0.676066 5.65015 70.1272
4474613 9.65389 12.2021 24.4615 23.8097 0.676066 5.65015 70.1272
4474621 9.6715 12.156 24.4123 23.8487 0.685185 5.65716 70.0885
4474635 9.6715 12.156 24.4123 23.8487 0.685185 5.65716 70.0885
4474641 9.64508 12.1468 24.4812 23.8487 0.666431 5.67684 70.1218
4474651 9.64508 12.1192 24.4713 23.8779 0.670591 5.68756 70.1135
4474661 9.64508 12.1192 24.4713 23.8779 0.670591 5.68756 70.1135
4474672 9.60984 12.1008 24.4123 23.8974 0.705531 5.69815 70.0203
4474681 9.58342 12.0915 24.4713 23.8877 0.686976 5.71523 70.034
4474704 9.68912 12.1652 24.4615 23.8097 0.650385 5.65063 70.1256
4474711 9.68912 12.1652 24.4615 23.8097 0.650385 5.65063 70.1256
4474721 9.65389 12.1192 24.4517 23.8585 0.66781 5.67976 70.0832
4474732 9.61865 12.1284 24.5107 23.9169 0.682557 5.70304 70.1747
4474742 9.61865 12.1284 24.5107 23.9169 0.682557 5.70304 70.1747
4474752 9.60984 12.0455 24.4615 23.8682 0.658125 5.71715 69.985
4474762 9.60104 12.0731 24.491 23.9169 0.677055 5.72195 70.0821
4474782 9.62746 12.0363 24.5304 23.9266 0.643563 5.73153 70.1208
4474796 9.62746 12.0363 24.5304 23.9266 0.643563 5.73153 70.1208
4474802 9.60984 12.0547 24.5009 23.9948 0.690863 5.7364 70.1603
4474821 9.52176 11.9902 24.5402 23.9461 0.669438 5.78036 69.9984
4474822 9.52176 11.9902 24.5402 23.9461 0.669438 5.78036 69.9984
4474832 9.54819 12.0271 24.5206 24.0143 0.703418 5.76798 70.1102
4474842 9.53938 11.981 24.5206 23.9169 0.656828 5.77141 69.9579
4474852 9.53938 11.981 24.5206 23.9169 0.656828 5.77141 69.9579
4474865 9.53057 11.9626 24.5895 23.9851 0.65212 5.79754 70.0677
4474872 9.53057 11.9626 24.5895 23.9851 0.65212 5.79754 70.0677
4474889 9.47772 11.9166 24.5698 24.0728 0.693157 5.83584 70.0368
4474893 9.54819 11.935 24.6288 24.1507 0.679126 5.82735 70.2627
4474905 9.54819 11.935 24.6288 24.1507 0.679126 5.82735 70.2627
4474915 9.46891 11.9166 24.619 24.102 0.688481 5.84871 70.1065
4474924 9.44249 11.9166 24.7076 24.1799 0.692719 5.87825 70.2466
4474934 9.44249 11.9166 24.7076 24.1799 0.692719 5.87825 70.2466
4474944 9.40725 11.9166 24.6879 24.1994 0.719565 5.8887 70.2112
4474959 9.40725 11.9166 24.6879 24.1994 0.719565 5.8887 70.2112
4474965 9.28394 11.9718 24.7273 24.1799 0.762713 5.91155 70.163
4474975 9.30155 11.8797 24.7371 24.2092 0.730896 5.93882 70.1276
4474992 9.30155 11.8797 24.7371 24.2092 0.730896 5.93882 70.1276
4474996 9.21347 11.9166 24.8356 24.2287 0.746572 5.96933 70.1943
4475009 9.27513 11.8705 24.7765 24.2384 0.733072 5.95831 70.1605
4475017 9.27513 11.8705 24.7765 24.2384 0.733072 5.95831 70.1605
4475029 9.25751 11.8245 24.7863 24.2287 0.716612 5.97736 70.097
4475035 9.28394 11.8797 24.8159 24.1799 0.698367 5.95047 70.1595
4475045 9.28394 11.8797 24.8159 24.1799 0.698367 5.95047 70.1595
4475056 9.31036 11.8889 24.8552 24.2384 0.697705 5.95244 70.2929
4475066 9.31036 11.8889 24.8552 24.2384 0.697705 5.95244 70.2929
4475078 9.25751 11.8797 24.7371 24.2287 0.753805 5.95449 70.103
4475085 9.28394 11.8613 24.7371 24.1799 0.720862 5.94581 70.0623
4475107 9.28394 11.8613 24.7371 24.1799 0.720862 5.94581 70.0623
4475109 9.27513 11.9258 24.747 24.1897 0.74617 5.93171 70.1376
4475128 9.25751 11.9074 24.6879 24.1702 0.761235 5.93231 70.023
4475137 9.27513 11.9074 24.6781 24.1215 0.741503 5.91946 69.982
4475152 9.27513 11.9074 24.6781 24.1215 0.741503 5.91946 69.982
4475157 9.29275 11.8705 24.6682 24.1507 0.736004 5.92772 69.9822
4475167 9.28394 11.9074 24.7765 24.1605 0.715616 5.93462 70.1283
4475180 9.28394 11.9074 24.7765 24.1605 0.715616 5.93462 70.1283
4475189 9.36321 11.9074 24.7076 24.1897 0.721934 5.90585 70.1678
4475199 9.31036 11.8705 24.7273 24.2384 0.738201 5.94144 70.1466
4475208 9.31036 11.8705 24.7273 24.2384 0.738201 5.94144 70.1466
4475220 9.3456 11.8982 24.7371 24.2189 0.724488 5.92144 70.1998
4475230 9.30155 11.8982 24.747 24.2481 0.747129 5.93962 70.1948
4475240 9.30155 11.8982 24.747 24.2481 0.747129 5.93962 70.1948
4475250 9.38083 11.9074 24.7568 24.2092 0.704196 5.9095 70.2542
4475261 9.38083 11.9074 24.7568 24.2092 0.704196 5.9095 70.2542
4475270 9.3456 11.8797 24.747 24.1117 0.677374 5.91434 70.084
4475283 9.38083 11.935 24.6977 24.2481 0.748828 5.89867 70.2617
4475291 9.38083 11.935 24.6977 24.2481 0.748828 5.89867 70.2617
4475300 9.3456 11.9258 24.7863 24.2092 0.712651 5.91832 70.2669
4475310 9.3456 11.9258 24.7174 24.2092 0.737888 5.9094 70.198
4475321 9.3456 11.9074 24.7174 24.141 0.707915 5.90606 70.1114
4475330 9.36321 11.9166 24.7076 24.1994 0.728488 5.90436 70.1868
4475340 9.36321 11.9166 24.7076 24.1994 0.728488 5.90436 70.1868
4475350 9.33679 11.9074 24.6682 24.2189 0.75618 5.9124 70.1313
4475360 9.29275 11.8889 24.6682 24.1605 0.745767 5.92347 70.0104
4475371 9.29275 11.8889 24.6682 24.1605 0.745767 5.92347 70.0104
4475380 9.37202 11.935 24.6977 24.1702 0.725126 5.89119 70.175
4475391 9.27513 11.981 24.6485 24.1605 0.79135 5.89868 70.0652
4475401 9.27513 11.981 24.6485 24.1605 0.79135 5.89868 70.0652
4475411 9.3456 11.9718 24.6584 24.2092 0.775462 5.88804 70.185
4475424 9.3456 11.9718 24.6584 24.2092 0.775462 5.88804 70.185
4475435 9.36321 11.9718 24.6485 24.1215 0.74231 5.87011 70.1051
4475441 9.31036 11.9626 24.619 24.2092 0.799716 5.89616 70.1011
4475458 9.31036 11.9626 24.619 24.2092 0.799716 5.89616 70.1011
4475461 9.38964 11.981 24.619 24.1994 0.773567 5.86581 70.1891
4475471 9.38964 11.981 24.619 24.1994 0.773567 5.86581 70.1891
4475482 9.31036 11.981 24.5009 24.1994 0.846255 5.87403 69.9917
4475491 9.3544 11.9995 24.5698 24.1702 0.800881 5.86059 70.0938
4475506 9.3544 11.9995 24.5698 24.1702 0.800881 5.86059 70.0938
4475512 9.33679 11.9166 24.5009 24.1605 0.800756 5.8803 69.9147
4475524 9.3544 12.0087 24.5698 24.1897 0.810787 5.8604 70.1225
4475532 9.3544 12.0087 24.5698 24.1897 0.810787 5.8604 70.1225
4475541 9.3544 11.9995 24.5402 24.1994 0.821844 5.86056 70.0935
4475557 9.3544 11.9995 24.5402 24.1994 0.821844 5.86056 70.0935
4475562 9.37202 12.0087 24.5501 24.2481 0.831696 5.86021 70.1789
4475571 9.30155 12.0271 24.5698 24.1702 0.829884 5.8681 70.0686
4475582 9.30155 12.0271 24.5698 24.1702 0.829884 5.8681 70.0686
4475594 9.37202 11.9718 24.5599 24.1897 0.795209 5.86483 70.0935
4475605 9.36321 11.9718 24.5599 24.2287 0.811902 5.87253 70.1236
4475622 9.38083 12.0639 24.5304 24.1605 0.824529 5.82716 70.1356
4475634 9.38083 12.0639 24.5304 24.1605 0.824529 5.82716 70.1356
4475642 9.40725 12.0271 24.4812 24.1312 0.810131 5.81999 70.0468
4475654 9.41606 12.0547 24.4615 24.1215 0.820318 5.8053 70.0538
4475664 9.41606 12.0547 24.4615 24.1215 0.820318 5.8053 70.0538
4475674 9.43368 12.0455 24.491 24.1312 0.803134 5.80796 70.1014
4475683 9.43368 12.1008 24.4812 24.1507 0.832528 5.79283 70.1663
4475696 9.43368 12.1008 24.4812 24.1507 0.832528 5.79283 70.1663
4475703 9.45129 12.0731 24.4517 24.141 0.824034 5.79065 70.1171
4475714 9.43368 12.1192 24.5402 24.0825 0.793642 5.78618 70.1756
4475725 9.43368 12.1192 24.5402 24.0825 0.793642 5.78618 70.1756
4475736 9.42487 12.0731 24.5402 24.1507 0.804517 5.81137 70.189
4475745 9.42487 12.0731 24.5402 24.1507 0.804517 5.81137 70.189
4475758 9.48653 12.0731 24.4418 24.0533 0.784418 5.76737 70.0548
4475765 9.47772 12.0363 24.491 24.102 0.773659 5.79379 70.107
4475775 9.47772 12.0363 24.491 24.102 0.773659 5.79379 70.107
4475785 9.50414 12.1192 24.4615 24.0338 0.779873 5.74854 70.1186
4475795 9.42487 12.1652 24.4615 24.0728 0.838378 5.76351 70.1244
4475815 9.48653 12.1192 24.4418 24.0728 0.807047 5.7563 70.1203
4475835 9.4601 12.0915 24.4418 24.0046 0.783673 5.76332 69.998
4475847 9.47772 12.0823 24.4517 24.1117 0.807405 5.77624 70.1235
4475856 9.47772 12.0823 24.4517 24.1117 0.807405 5.77624 70.1235
4475867 9.49534 12.0823 24.4418 24.0338 0.777623 5.75946 70.0533
4475876 9.49534 12.0455 24.5107 24.0046 0.729427 5.77561 70.0561
4475887 9.49534 12.0455 24.5107 24.0046 0.729427 5.77561 70.0561
4475896 9.54819 12.0639 24.5206 24.0436 0.726292 5.76093 70.1762
4475910 9.54819 12.0639 24.5206 24.0436 0.726292 5.76093 70.1762
4475916 9.52176 12.0179 24.4713 24.0533 0.741488 5.7772 70.0643
4475926 9.53938 12.0823 24.4517 24.1117 0.784731 5.75799 70.1851
4475937 9.53938 12.0823 24.4517 24.1117 0.784731 5.75799 70.1851
4475951 9.53057 12.0915 24.4024 23.9559 0.755364 5.73079 69.9804
4475956 9.53057 12.0915 24.3237 23.9461 0.781 5.71905 69.8919
4475966 9.53057 12.0915 24.3237 23.9461 0.781 5.71905 69.8919
4475977 9.53057 12.1192 24.4024 23.9266 0.754809 5.71873 69.9788
4475986 9.53057 12.1192 24.4024 23.9266 0.754809 5.71873 69.9788
4475997 9.55699 12.0915 24.4024 23.8487 0.708455 5.70874 69.8997
4476006 9.55699 12.1744 24.432 23.8487 0.726366 5.68814 70.0121
4476017 9.55699 12.1744 24.432 23.8487 0.726366 5.68814 70.0121
4476026 9.55699 12.1836 24.4221 23.8974 0.750053 5.69059 70.0602
4476040 9.50414 12.1928 24.432 23.8779 0.762308 5.7022 70.0069
4476048 9.50414 12.1928 24.432 23.8779 0.762308 5.7022 70.0069
4476061 9.58342 12.1836 24.4615 23.8585 0.712392 5.68284 70.087
4476068 9.58342 12.1836 24.4615 23.8585 0.712392 5.68284 70.087
4476082 9.54819 12.1744 24.4713 23.9169 0.738764 5.70503 70.1109
4476091 9.58342 12.2389 24.4517 23.8585 0.735137 5.66524 70.1324
4476103 9.58342 12.2389 24.4517 23.8585 0.735137 5.66524 70.1324
4476110 9.58342 12.2389 24.4517 23.8292 0.725022 5.66134 70.1032
4476118 9.62746 12.2297 24.4517 23.8195 0.702307 5.64979 70.1283
4476129 9.62746 12.2297 24.4517 23.8195 0.702307 5.64979 70.1283
4476139 9.54819 12.2021 24.432 23.7513 0.705385 5.6696 69.9335
4476149 9.54819 12.2021 24.432 23.7513 0.705385 5.6696 69.9335
4476158 9.58342 12.2113 24.4123 23.7708 0.709635 5.65645 69.9777
4476168 9.61865 12.1836 24.5304 23.7123 0.623494 5.66216 70.045
4476179 9.61865 12.1836 24.5304 23.7123 0.623494 5.66216 70.045
4476189 9.60104 12.2389 24.4517 23.8 0.708431 5.65226 70.0916
4476199 9.58342 12.1284 24.4517 23.8487 0.693458 5.69656 70.0122
4476210 9.58342 12.1284 24.4517 23.8487 0.693458 5.69656 70.0122
4476219 9.66269 12.1376 24.4713 23.839 0.657007 5.67176 70.1106
4476240 9.57461 12.1284 24.4418 23.7513 0.66644 5.68489 69.8961
4476250 9.59223 12.1836 24.4615 23.7903 0.68551 5.67117 70.0276
4476260 9.59223 12.1836 24.4615 23.7903 0.68551 5.67117 70.0276
4476271 9.68912 12.1468 24.5107 23.6734 0.578523 5.64442 70.02
4476279 9.68031 12.1928 24.4812 23.7026 0.618759 5.6334 70.0569
4476290 9.68031 12.1928 24.4812 23.7026 0.618759 5.6334 70.0569
4476300 9.68031 12.2389 24.5304 23.8097 0.653979 5.64073 70.2593
4476320 9.68912 12.1928 24.5206 23.7805 0.628245 5.64647 70.183
4476330 9.6715 12.1744 24.5206 23.6928 0.597781 5.64539 70.0593
4476341 9.6715 12.1744 24.5206 23.6928 0.597781 5.64539 70.0593
4476351 9.68031 12.1928 24.5107 23.6831 0.601178 5.63475 70.067
4476361 9.72435 12.2021 24.5107 23.6831 0.58831 5.61908 70.1202
4476381 9.68031 12.2481 24.4615 23.6149 0.614673 5.60275 70.0048
4476401 9.68031 12.2297 24.4123 23.6441 0.636458 5.60549 69.9664
4476416 9.69793 12.1836 24.4123 23.6344 0.61056 5.61256 69.9282
4476421 9.69793 12.1836 24.4123 23.6344 0.61056 5.61256 69.9282
4476432 9.75959 12.2573 24.4517 23.6539 0.60606 5.58066 70.1224
4476442 9.72435 12.2389 24.3729 23.7026 0.658286 5.59238 70.0387
4476452 9.72435 12.2389 24.3729 23.7026 0.658286 5.59238 70.0387
4476462 9.68912 12.2573 24.3827 23.7123 0.677374 5.59996 70.0415
4476472 9.68912 12.2573 24.3827 23.7123 0.677374 5.59996 70.0415
4476486 9.71554 12.2573 24.4123 23.6539 0.636557 5.5883 70.039
4476492 9.69793 12.2205 24.4024 23.6734 0.64058 5.60562 69.9942
4476502 9.69793 12.2205 24.4024 23.6734 0.64058 5.60562 69.9942
4476512 9.66269 12.2481 24.3138 23.7123 0.709173 5.60119 69.937
4476522 9.69793 12.2481 24.3926 23.6928 0.660568 5.59878 70.0315
4476532 9.69793 12.2481 24.3926 23.6928 0.660568 5.59878 70.0315
4476542 9.72435 12.2113 24.4517 23.7123 0.623253 5.61238 70.0996
4476552 9.72435 12.2113 24.4517 23.7123 0.623253 5.61238 70.0996
4476562 9.68031 12.1468 24.4123 23.7123 0.631344 5.63907 69.9517
4476573 9.71554 12.1744 24.4123 23.8097 0.661924 5.63357 70.112
4476595 9.71554 12.2113 24.432 23.6831 0.623503 5.60841 70.0419
4476604 9.68031 12.1928 24.4418 23.7026 0.633165 5.62814 70.0175
4476619 9.68031 12.1928 24.4418 23.7026 0.633165 5.62814 70.0175
4476624 9.62746 12.2481 24.3926 23.7318 0.699955 5.62475 70
4476634 9.62746 12.2481 24.3926 23.7318 0.699955 5.62475 70
4476645 9.60984 12.1836 24.3827 23.761 0.697801 5.65156 69.9373
4476655 9.66269 12.2481 24.432 23.6831 0.655669 5.61313 70.0258
4476667 9.66269 12.2481 24.432 23.6831 0.655669 5.61313 70.0258
4476675 9.65389 12.2297 24.432 23.7903 0.689703 5.63548 70.1058
4476692 9.68031 12.2389 24.4713 23.761 0.658673 5.62635 70.1516
4476695 9.68031 12.2389 24.4713 23.761 0.658673 5.62635 70.1516
4476704 9.68912 12.2021 24.4615 23.8 0.659794 5.63848 70.1527
4476720 9.69793 12.2021 24.4221 23.7805 0.664213 5.62803 70.1026
4476728 9.69793 12.2113 24.4221 23.7805 0.667411 5.62532 70.1118
4476737 9.66269 12.2573 24.432 23.7513 0.682545 5.61955 70.1033
4476745 9.66269 12.2573 24.432 23.7513 0.682545 5.61955 70.1033
4476755 9.63627 12.2573 24.3434 23.7805 0.734881 5.61938 70.0175
4476765 9.63627 12.2205 24.3434 23.7903 0.72549 5.63153 69.9904
4476775 9.63627 12.2205 24.3434 23.7903 0.72549 5.63153 69.9904
4476787 9.71554 12.3218 24.4024 23.8 0.713202 5.58767 70.2397
4476796 9.64508 12.2113 24.304 23.7513 0.720009 5.62115 69.9116
4476816 9.66269 12.2481 24.2843 23.8292 0.760567 5.61292 70.0243
4476836 9.64508 12.2665 24.2351 23.8487 0.798291 5.6087 69.9954
4476846 9.60984 12.2297 24.3335 23.8292 0.755525 5.6405 70.0023
4476856 9.60984 12.2297 24.3335 23.8292 0.755525 5.6405 70.0023
4476866 9.63627 12.2297 24.2843 23.8974 0.787508 5.63525 70.0477
4476876 9.65389 12.2297 24.2843 23.8974 0.781026 5.63007 70.0653
4476886 9.65389 12.1928 24.2843 23.9461 0.785127 5.64742 70.0772
4476897 9.62746 12.1652 24.3335 23.9754 0.777298 5.67381 70.1016
4476909 9.62746 12.1652 24.3335 23.9754 0.777298 5.67381 70.1016
4476917 9.66269 12.2113 24.3729 23.9656 0.762433 5.65381 70.2125
4476928 9.5658 12.2389 24.3532 23.9948 0.824887 5.67548 70.1528
4476937 9.5658 12.2389 24.3532 23.9948 0.824887 5.67548 70.1528
4476948 9.57461 12.2205 24.3335 23.9754 0.815824 5.6731 70.104
4476960 9.57461 12.2205 24.3335 23.9754 0.815824 5.6731 70.104
4476967 9.54819 12.2021 24.3631 23.9754 0.808325 5.69026 70.0887
4476977 9.55699 12.2573 24.4024 23.9559 0.802934 5.67401 70.1726
4476989 9.55699 12.2573 24.4024 23.9559 0.802934 5.67401 70.1726
4476997 9.58342 12.2205 24.3532 23.9559 0.79861 5.67053 70.113
4477011 9.55699 12.1836 24.4517 24.0046 0.776237 5.70872 70.1969
4477017 9.55699 12.1836 24.4517 24.0046 0.776237 5.70872 70.1969
4477027 9.51295 12.1836 24.4024 23.9461 0.790343 5.70745 70.0452
4477037 9.51295 12.1836 24.4024 23.9461 0.790343 5.70745 70.0452
4477047 9.48653 12.1836 24.432 23.9559 0.792566 5.72047 70.058
4477057 9.48653 12.1744 24.3729 24.063 0.848126 5.72957 70.0969
4477069 9.48653 12.1744 24.3729 24.063 0.848126 5.72957 70.0969
4477077 9.47772 12.2205 24.4123 24.0143 0.83594 5.71732 70.1248
4477088 9.42487 12.156 24.3926 24.0533 0.853908 5.75459 70.0268
4477101 9.42487 12.156 24.3926 24.0533 0.853908 5.75459 70.0268
4477109 9.47772 12.1744 24.491 24.0241 0.794443 5.74262 70.1672
4477118 9.47772 12.1744 24.491 24.0241 0.794443 5.74262 70.1672
4477130 9.45129 12.0731 24.491 23.9948 0.75905 5.7766 70.0103
4477138 9.43368 12.1376 24.5402 23.9754 0.762993 5.76663 70.0869
4477148 9.43368 12.1376 24.5402 23.9754 0.762993 5.76663 70.0869
4477158 9.44249 12.156 24.5402 23.9948 0.772858 5.76113 70.1336
4477168 9.46891 12.1744 24.5107 23.9656 0.770262 5.74011 70.1197
4477178 9.46891 12.1744 24.5107 23.9656 0.770262 5.74011 70.1197
4477188 9.46891 12.1468 24.5402 23.9169 0.733009 5.74575 70.0729
4477198 9.46891 12.1468 24.5402 23.9169 0.733009 5.74575 70.0729
4477210 9.4601 12.11 24.5402 23.8974 0.716722 5.75671 70.0077
4477218 9.47772 12.1008 24.5796 23.8682 0.682464 5.75555 70.0263
4477228 9.47772 12.1008 24.5796 23.8682 0.682464 5.75555 70.0263
4477240 9.50414 12.156 24.6682 23.9461 0.686517 5.75333 70.2745
4477250 9.45129 12.1192 24.6879 23.8487 0.652108 5.76963 70.1071
4477260 9.45129 12.1192 24.6879 23.8487 0.652108 5.76963 70.1071
4477270 9.49534 12.1192 24.7076 23.8292 0.622043 5.75662 70.1513
4477280 9.49534 12.1192 24.7076 23.8292 0.622043 5.75662 70.1513
4477290 9.38083 12.0271 24.8257 23.8292 0.588676 5.83341 70.0629
4477300 9.50414 12.1008 24.8454 23.9072 0.589269 5.7878 70.3575
4477311 9.50414 12.1008 24.8454 23.9072 0.589269 5.7878 70.3575
4477320 9.44249 12.0271 24.7962 23.8877 0.597298 5.81888 70.1534
4477330 9.40725 11.9442 24.8454 23.8877 0.563329 5.86041 70.0845
4477341 9.40725 11.9442 24.8454 23.8877 0.563329 5.86041 70.0845
4477351 9.49534 11.9534 24.9045 23.8974 0.516379 5.84047 70.2506
4477361 9.39845 11.9534 24.9143 23.8585 0.534451 5.86547 70.1246
4477378 9.39845 11.8982 24.9143 23.8585 0.515154 5.88192 70.0694
4477382 9.43368 11.9258 25.0324 23.8974 0.482684 5.88362 70.2893
4477392 9.43368 11.9258 25.0324 23.8974 0.482684 5.88362 70.2893
4477402 9.42487 11.8889 24.9734 23.8292 0.470626 5.88067 70.1164
4477413 9.38083 11.8337 25.062 23.8877 0.45557 5.92933 70.1642
4477422 9.38083 11.8337 25.062 23.8877 0.45557 5.92933 70.1642
4477432 9.3544 11.7969 25.0423 23.8682 0.452593 5.94316 70.0617
4477443 9.3456 11.7876 25.1702 23.9072 0.419801 5.97007 70.2106
4477452 9.3456 11.7876 25.1702 23.9072 0.419801 5.97007 70.2106
4477463 9.37202 11.8061 25.2293 23.8487 0.374863 5.95676 70.2561
4477472 9.37202 11.8061 25.2293 23.8487 0.374863 5.95676 70.2561
4477482 9.3544 11.7969 25.2096 23.8195 0.374863 5.95847 70.1804
4477492 9.33679 11.76 25.2096 23.9072 0.399062 5.98601 70.2136
4477518 9.38083 11.7784 25.2391 23.8877 0.372103 5.96866 70.2861
4477522 9.3456 11.7784 25.1899 23.8487 0.388965 5.96783 70.1627
4477532 9.3456 11.7508 25.1899 23.8487 0.37927 5.97609 70.135
4477542 9.33679 11.7692 25.1899 23.8585 0.392339 5.97447 70.1544
4477552 9.33679 11.7692 25.1899 23.8585 0.392339 5.97447 70.1544
4477562 9.30155 11.6679 25.1998 23.8487 0.362518 6.01538 70.018
4477572 9.25751 11.7048 25.1899 23.9559 0.432619 6.03002 70.1081
4477582 9.25751 11.7048 25.1899 23.9559 0.432619 6.03002 70.1081
4477592 9.29275 11.7232 25.2293 23.9364 0.405207 6.01648 70.1816
4477602 9.29275 11.7232 25.2293 23.9364 0.405207 6.01648 70.1816
4477613 9.2487 11.6403 25.1899 23.9851 0.423461 6.05575 70.064
4477623 9.2399 11.6311 25.2195 24.0143 0.422961 6.06866 70.1048
4477633 9.2399 11.6311 25.2195 24.0143 0.422961 6.06866 70.1048
4477643 9.16943 11.5758 25.2096 24.102 0.463483 6.11639 70.0569
4477653 9.18705 11.4745 25.2785 24.1312 0.406805 6.15405 70.0713
4477663 9.18705 11.4745 25.2785 24.1312 0.406805 6.15405 70.0713
4477673 9.16943 11.5574 25.2588 24.1994 0.473243 6.14049 70.1851
4477695 9.15181 11.493 25.3179 24.1994 0.435662 6.17268 70.1621
4477703 9.10777 11.5022 25.3376 24.2871 0.478369 6.19668 70.2346
4477716 9.10777 11.5022 25.3376 24.2871 0.478369 6.19668 70.2346
4477726 9.14301 11.5206 25.2982 24.2676 0.479499 6.1731 70.2294
4477735 9.09016 11.5114 25.3179 24.2481 0.481513 6.19186 70.1676
4477746 9.09016 11.5114 25.3179 24.2481 0.481513 6.19186 70.1676
4477756 9.05492 11.4745 25.2982 24.2871 0.502217 6.21606 70.1148
4477766 9.08135 11.5114 25.3671 24.3943 0.517806 6.21897 70.3541
4477786 9.07254 11.4561 25.3573 24.3943 0.505328 6.23708 70.2802
4477796 9.07254 11.4561 25.3573 24.3943 0.505328 6.23708 70.2802
4477807 9.03731 11.3548 25.3474 24.4917 0.520346 6.28929 70.2312
4477817 9.04611 11.3732 25.3671 24.5501 0.536764 6.29073 70.3366
4477827 9.04611 11.3732 25.3671 24.5501 0.536764 6.29073 70.3366
4477837 9.01088 11.364 25.377 24.5891 0.556329 6.31022 70.341
4477847 8.93161 11.2904 25.2785 24.6378 0.612378 6.35053 70.1383
4477857 8.93161 11.2904 25.2785 24.6378 0.612378 6.35053 70.1383
4477867 8.93161 11.3088 25.3277 24.6573 0.607595 6.35339 70.2254
4477887 8.88756 11.1891 25.3573 24.7645 0.608522 6.42004 70.1984
4477897 8.91399 11.1891 25.3573 24.8327 0.622562 6.42032 70.293
4477908 8.91399 11.1891 25.3573 24.8327 0.622562 6.42032 70.293
4477918 8.8171 11.1614 25.3376 24.9496 0.696045 6.47015 70.2657
4477928 8.78187 11.1338 25.3277 24.9691 0.709721 6.49054 70.2125
4477940 8.78187 11.1338 25.3277 24.9691 0.709721 6.49054 70.2125
4477948 8.82591 11.1614 25.2884 24.9106 0.697348 6.45674 70.1863
4477958 8.74663 11.1706 25.2588 24.9301 0.747174 6.47696 70.1062
4477968 8.74663 11.1706 25.2588 24.9301 0.747174 6.47696 70.1062
4477978 8.75544 11.2351 25.308 24.9691 0.761613 6.46526 70.2676
4477989 8.75544 11.2351 25.308 24.9691 0.761613 6.46526 70.2676
4478017 8.7114 11.2443 25.1899 24.9691 0.82438 6.46154 70.1147
4478018 8.72902 11.2535 25.1801 25.008 0.838116 6.45688 70.1706
4478020 8.72902 11.2535 25.1801 25.008 0.838116 6.45688 70.1706
4478030 8.72021 11.318 25.2588 25.0275 0.841263 6.45183 70.3245
4478042 8.68497 11.318 25.2195 24.9885 0.855312 6.45306 70.211
4478051 8.68497 11.364 25.2195 24.9885 0.87114 6.439 70.257
4478060 8.72021 11.364 25.1801 25.1054 0.912747 6.4377 70.3698
4478070 8.72021 11.364 25.1801 25.1054 0.912747 6.4377 70.3698
4478080 8.72021 11.4193 25.0915 24.9788 0.920948 6.39458 70.2098
4478090 8.70259 11.4101 25.1309 25.0275 0.926459 6.41353 70.271
4478100 8.70259 11.4101 25.1309 25.0275 0.926459 6.41353 70.271
4478110 8.69378 11.4009 25.121 25.0373 0.933528 6.41901 70.2529
4478131 8.70259 11.3824 25.0521 24.9496 0.919327 6.40278 70.0867
4478143 8.7114 11.3917 25.0915 24.9788 0.914723 6.40569 70.1733
4478153 8.7114 11.3917 25.0915 24.9788 0.914723 6.40569 70.1733
4478162 8.72902 11.4745 25.0816 24.9885 0.943601 6.37506 70.2737
4478171 8.77306 11.4469 25.1506 24.9301 0.872466 6.37135 70.3006
4478182 8.77306 11.4469 25.1506 24.9301 0.872466 6.37135 70.3006
4478192 8.72902 11.4009 25.0816 24.9593 0.908327 6.39391 70.1708
4478202 8.7114 11.4009 25.1801 25.0567 0.911924 6.42323 70.3491
4478212 8.7114 11.4009 25.1801 25.0567 0.911924 6.42323 70.3491
4478222 8.72021 11.4193 25.1998 25.008 0.891054 6.4114 70.3473
4478232 8.72021 11.4193 25.1998 25.008 0.891054 6.4114 70.3473
4478242 8.64974 11.3548 25.1899 25.047 0.911906 6.45609 70.2415
4478256 8.70259 11.2904 25.2293 25.086 0.869182 6.46915 70.3082
4478262 8.70259 11.2904 25.2293 25.086 0.869182 6.46915 70.3082
4478272 8.73782 11.318 25.3277 24.9885 0.796109 6.4501 70.3721
4478282 8.66736 11.3088 25.3376 25.0275 0.828588 6.48033 70.3412
4478293 8.66736 11.3088 25.3376 25.0275 0.828588 6.48033 70.3412
4478303 8.70259 11.2535 25.3868 25.0762 0.795361 6.49828 70.4191
4478313 8.70259 11.2535 25.3868 25.0762 0.795361 6.49828 70.4191
4478323 8.65855 11.1798 25.3573 25.0957 0.803703 6.53307 70.2914
4478333 8.67617 11.1706 25.4065 25.0665 0.765952 6.53291 70.3198
4478346 8.67617 11.1706 25.4065 25.0665 0.765952 6.53291 70.3198
4478353 8.64974 11.1614 25.3376 25.0178 0.780955 6.52965 70.1665
4478363 8.64093 11.1522 25.308 24.9106 0.754815 6.51865 70.0118
4478373 8.64093 11.1522 25.308 24.9106 0.754815 6.51865 70.0118
4478383 8.64974 11.097 25.3868 24.9593 0.720379 6.54833 70.0928
4478396 8.64974 11.097 25.3868 24.9593 0.720379 6.54833 70.0928
4478405 8.58808 11.0693 25.436 24.9398 0.708616 6.57939 70.0333
4478415 8.6057 11.1062 25.4459 24.9691 0.721431 6.56733 70.1268
4478425 8.6057 11.1062 25.4459 24.9691 0.721431 6.56733 70.1268
4478435 8.64093 11.0878 25.564 25.0275 0.679159 6.58334 70.3202
4478445 8.65855 11.1154 25.5049 25.086 0.724041 6.5694 70.3648
4478456 8.65855 11.1154 25.5049 25.086 0.724041 6.5694 70.3648
4478471 8.67617 11.1062 25.564 25.0373 0.676036 6.56806 70.3836
4478475 8.67617 11.1062 25.564 25.0373 0.676036 6.56806 70.3836
4478485 8.63212 11.0785 25.5837 24.9691 0.651765 6.58424 70.2634
4478495 8.65855 11.0785 25.5837 25.0275 0.66236 6.58312 70.3483
4478516 8.7114 11.0601 25.5541 24.9203 0.610331 6.55616 70.246
4478526 8.7114 11.0878 25.564 24.9496 0.626466 6.55238 70.3127
4478536 8.7114 11.0878 25.564 24.9496 0.626466 6.55238 70.3127
4478546 8.67617 11.1706 25.5246 24.8911 0.662154 6.52601 70.2625
4478556 8.67617 11.1706 25.5246 24.8911 0.662154 6.52601 70.2625
4478567 8.67617 11.097 25.5246 24.8327 0.6163 6.54156 70.1304
4478576 8.63212 11.1338 25.6034 24.8911 0.636712 6.56028 70.2604
4478586 8.63212 11.1338 25.6034 24.8911 0.636712 6.56028 70.2604
4478596 8.64974 11.0785 25.5443 24.9301 0.646201 6.56943 70.2027
4478606 8.64974 11.0878 25.5837 24.9398 0.638393 6.57249 70.261
4478616 8.64974 11.0878 25.5837 24.9398 0.638393 6.57249 70.261
4478626 8.7114 11.0601 25.5541 24.9301 0.613713 6.55733 70.2558
4478641 8.7114 11.0601 25.5541 24.9301 0.613713 6.55733 70.2558
4478651 8.58808 11.0417 25.6034 24.9496 0.641125 6.60913 70.1827
4478660 8.64093 11.1522 25.6329 24.9593 0.652733 6.56366 70.3854
4478666 8.64093 11.1522 25.6329 24.9593 0.652733 6.56366 70.3854
4478676 8.7114 11.1062 25.5443 24.9788 0.65015 6.54789 70.3407
4478686 8.69378 11.0693 25.5345 24.8521 0.603443 6.54817 70.1497
4478697 8.69378 11.0693 25.5345 24.8521 0.603443 6.54817 70.1497
4478707 8.73782 11.1338 25.5345 24.7742 0.582689 6.50547 70.1803
4478717 8.73782 11.1338 25.5345 24.7742 0.582689 6.50547 70.1803
4478728 8.72902 11.0785 25.5049 24.8327 0.597787 6.52861 70.1451
4478737 8.68497 11.1706 25.4951 24.784 0.632548 6.50679 70.1346
4478748 8.68497 11.1706 25.4951 24.784 0.632548 6.50679 70.1346
4478757 8.69378 11.143 25.4655 24.6865 0.596598 6.49716 69.9889
4478769 8.73782 11.1983 25.3868 24.6281 0.608185 6.44997 69.951
4478780 8.73782 11.1983 25.3868 24.6281 0.608185 6.44997 69.951
4478788 8.79948 11.3088 25.4557 24.6573 0.609109 6.40933 70.2213
4478797 8.79948 11.3088 25.4557 24.6573 0.609109 6.40933 70.2213
4478808 8.79067 11.318 25.3671 24.4917 0.590235 6.378 69.9675
4478818 8.85233 11.4377 25.3376 24.4722 0.613409 6.31665 70.0998
4478828 8.85233 11.4377 25.3376 24.4722 0.613409 6.31665 70.0998
4478838 8.90518 11.5298 25.3868 24.4527 0.601405 6.27636 70.2745
4478848 8.87876 11.585 25.3966 24.3845 0.602952 6.26038 70.245
4478858 8.87876 11.585 25.3966 24.3845 0.602952 6.26038 70.245
4478872 9.0285 11.6956 25.2982 24.3553 0.612465 6.16591 70.3776
4478888 8.96684 11.6587 25.3277 24.3163 0.597867 6.19439 70.2696
4478898 9.05492 11.7324 25.2588 24.2189 0.582632 6.12476 70.2651
4478908 9.05492 11.7324 25.2588 24.2189 0.582632 6.12476 70.2651
4478918 9.05492 11.76 25.1998 24.0923 0.569701 6.09292 70.107
4478928 9.03731 11.7232 25.2195 24.1117 0.562897 6.11429 70.0917
4478950 9.09016 11.8613 25.2195 24.0825 0.581548 6.05319 70.2535
4478960 9.09016 11.8613 25.2195 24.0825 0.581548 6.05319 70.2535
4478970 9.03731 11.7508 25.1604 24.0046 0.556695 6.08483 69.9531
4478979 9.06373 11.7324 25.249 24.0923 0.538921 6.10483 70.1374
4478991 9.06373 11.7324 25.249 24.0923 0.538921 6.10483 70.1374
4479001 9.08135 11.7784 25.2096 24.0436 0.545919 6.0745 70.1129
4479010 9.0285 11.7508 25.2195 24.1312 0.582522 6.11109 70.13
4479020 9.0285 11.7508 25.2195 24.1312 0.582522 6.11109 70.13
4479030 9.05492 11.7784 25.2588 24.1994 0.591862 6.10846 70.2916
4479041 9.05492 11.7784 25.2588 24.1994 0.591862 6.10846 70.2916
4479051 9.01969 11.714 25.2884 24.1799 0.564754 6.13971 70.202
4479063 9.06373 11.7324 25.2982 24.2676 0.582018 6.13322 70.362
4479071 9.06373 11.7324 25.2982 24.2676 0.582018 6.13322 70.362
4479081 9.03731 11.7416 25.2785 24.2774 0.605369 6.13714 70.3348
4479092 9.03731 11.7324 25.2588 24.2968 0.616103 6.13988 70.3254
4479101 9.03731 11.7324 25.2588 24.2968 0.616103 6.13988 70.3254
4479112 9.08135 11.714 25.2195 24.2579 0.594488 6.1223 70.2727
4479131 9.01088 11.6035 25.2687 24.3261 0.587529 6.19159 70.2091
4479142 8.95803 11.6771 25.2982 24.3553 0.631753 6.19268 70.2887
4479164 8.97565 11.5943 25.2293 24.4138 0.641999 6.21106 70.213
4479172 9.0285 11.5482 25.2195 24.4625 0.627226 6.21387 70.2586
4479193 8.98446 11.585 25.2391 24.4332 0.638753 6.21486 70.2419
4479205 8.94041 11.585 25.2588 24.443 0.651026 6.23184 70.2273
4479213 8.94041 11.585 25.2588 24.443 0.651026 6.23184 70.2273
4479225 8.95803 11.6035 25.2588 24.4917 0.667843 6.22703 70.312
4479235 8.95803 11.6035 25.2588 24.4917 0.667843 6.22703 70.312
4479245 8.93161 11.4745 25.249 24.4819 0.633007 6.2716 70.1371
4479255 8.88756 11.5943 25.1899 24.5014 0.719008 6.24374 70.1732
4479264 8.88756 11.5943 25.1899 24.5014 0.719008 6.24374 70.1732
4479285 8.94922 11.6403 25.1309 24.4332 0.710392 6.19524 70.1536
4479303 8.97565 11.6219 25.1309 24.3456 0.663918 6.1818 70.074
4479304 8.96684 11.7048 25.121 24.2384 0.662315 6.14466 70.031
4479315 8.96684 11.7048 25.121 24.2384 0.662315 6.14466 70.031
4479325 9.00207 11.7232 25.0521 24.2774 0.694588 6.12469 70.0547
4479336 9.07254 11.7876 25.0423 24.1897 0.664312 6.07167 70.0921
4479346 9.07254 11.7876 25.0423 24.1897 0.664312 6.07167 70.0921
4479357 9.01969 11.7416 25.0029 24.0728 0.641423 6.08153 69.837
4479366 9.07254 11.8245 25.0029 24.1117 0.664458 6.04562 70.0117
4479376 9.07254 11.8245 25.0029 24.1117 0.664458 6.04562 70.0117
4479386 9.15181 11.8613 25.0324 24.0728 0.623897 6.00957 70.1183
4479396 9.15181 11.8613 25.0324 24.0728 0.623897 6.00957 70.1183
4479406 9.09896 11.8245 24.9438 24.0436 0.652704 6.02137 69.9108
4479416 9.11658 11.8613 24.9734 24.2092 0.705722 6.03003 70.1604
4479426 9.11658 11.8613 24.9734 24.2092 0.705722 6.03003 70.1604
4479436 9.11658 11.8797 24.9931 24.1507 0.684637 6.01955 70.1401
4479446 9.11658 11.8613 25.0324 24.2481 0.697586 6.04254 70.2585
4479456 9.11658 11.8613 25.0324 24.2481 0.697586 6.04254 70.2585
4479466 9.09896 11.8797 25.0521 24.3456 0.73683 6.05721 70.3764
4479476 9.09896 11.8797 25.0521 24.3456 0.73683 6.05721 70.3764
4479487 9.07254 11.8245 24.9734 24.3066 0.742823 6.06672 70.177
4479498 9.16062 11.8429 24.9635 24.2968 0.717157 6.0323 70.2639
4479517 9.1342 11.8705 24.8749 24.1605 0.721681 6.00313 70.0401
4479527 9.14301 11.9442 24.8749 24.1605 0.743958 5.97843 70.1226
4479547 9.2487 11.9534 24.8848 24.1507 0.701421 5.94412 70.2376
4479557 9.2487 11.9534 24.8848 24.1507 0.701421 5.94412 70.2376
4479567 9.2399 11.9258 24.806 24.0825 0.700313 5.93601 70.0542
4479577 9.23109 12.0087 24.806 24.0436 0.718766 5.90885 70.0893
4479588 9.23109 12.0087 24.806 24.0436 0.718766 5.90885 70.0893
4479598 9.26632 12.0087 24.7863 24.0046 0.699553 5.89072 70.0659
4479608 9.27513 12.0823 24.7666 23.9948 0.725698 5.86233 70.119
4479618 9.27513 12.0823 24.7666 23.9948 0.725698 5.86233 70.119
4479628 9.31036 12.11 24.7273 24.0338 0.750253 5.84359 70.1814
4479638 9.28394 12.11 24.7273 24.0338 0.75995 5.85144 70.155
4479648 9.28394 12.0271 24.7273 24.0338 0.73128 5.8761 70.0721
4479658 9.29275 12.0639 24.7371 24.0046 0.727066 5.85998 70.0984
4479668 9.29275 12.0639 24.7371 24.0046 0.727066 5.85998 70.0984
4479678 9.3544 12.0271 24.7765 24.0533 0.69415 5.86408 70.2113
4479688 9.3456 12.0271 24.7666 23.9266 0.657055 5.8489 70.066
4479698 9.3456 12.0271 24.7666 23.9266 0.657055 5.8489 70.066
4479708 9.38964 12.1192 24.7863 23.9072 0.658941 5.8085 70.2023
4479718 9.38964 12.1192 24.7863 23.9072 0.658941 5.8085 70.2023
4479728 9.38964 12.0639 24.7568 23.8487 0.630251 5.81337 70.0591
4479738 9.4601 12.1652 24.6879 23.7805 0.641191 5.7444 70.0937
4479748 9.4601 12.1652 24.6879 23.7805 0.641191 5.7444 70.0937
4479758 9.4601 12.1928 24.6879 23.6831 0.616911 5.72334 70.0239
4479768 9.44249 12.1652 24.7076 23.6734 0.603133 5.73805 69.9886
4479791 9.53057 12.2205 24.7273 23.6928 0.589797 5.70086 70.1712
4479800 9.53057 12.2205 24.7273 23.6928 0.589797 5.70086 70.1712
4479810 9.52176 12.2113 24.6485 23.6052 0.588018 5.68408 69.9867
4479821 9.54819 12.2297 24.7371 23.6052 0.552458 5.68262 70.1201
4479830 9.54819 12.2297 24.7371 23.6052 0.552458 5.68262 70.1201
4479840 9.51295 12.2205 24.6977 23.6052 0.576463 5.69051 70.0363
4479850 9.51295 12.2389 24.7273 23.5759 0.561914 5.6851 70.0551
4479871 9.52176 12.2573 24.7765 23.5662 0.543788 5.68232 70.1217
4479881 9.52176 12.2573 24.7765 23.5662 0.543788 5.68232 70.1217
4479893 9.51295 12.1928 24.7371 23.5662 0.538847 5.69872 70.0091
4479900 9.50414 12.2389 24.7568 23.5564 0.547558 5.68904 70.0563
4479911 9.50414 12.2389 24.7568 23.5564 0.547558 5.68904 70.0563
4479921 9.53057 12.2389 24.6977 23.5662 0.562862 5.67468 70.0334
4479941 9.50414 12.3034 24.7273 23.5954 0.59438 5.67128 70.1302
4479951 9.53938 12.2389 24.7174 23.6831 0.593191 5.69023 70.1788
4479961 9.53938 12.2389 24.7174 23.6831 0.593191 5.69023 70.1788
4479971 9.53938 12.1836 24.7371 23.5857 0.532803 5.69623 70.0458
4479981 9.55699 12.2757 24.747 23.6441 0.575268 5.67294 70.2238
4479991 9.55699 12.2757 24.747 23.6441 0.575268 5.67294 70.2238
4480001 9.5658 12.2757 24.6288 23.6344 0.611755 5.65333 70.1048
4480011 9.54819 12.2757 24.6879 23.498 0.549078 5.6482 70.0098
4480031 9.53057 12.2849 24.6485 23.5175 0.579914 5.64802 69.9815
4480041 9.53057 12.2849 24.6485 23.5175 0.579914 5.64802 69.9815
4480051 9.54819 12.3034 24.5796 23.5175 0.6051 5.62818 69.9486
4480061 9.55699 12.2205 24.6485 23.5077 0.544336 5.65795 69.9337
4480082 9.52176 12.331 24.6879 23.5077 0.581405 5.641 70.0484
4480091 9.53057 12.2941 24.6879 23.5272 0.572142 5.65187 70.0398
4480108 9.53057 12.2941 24.6879 23.5272 0.572142 5.65187 70.0398
4480122 9.51295 12.3126 24.7273 23.5467 0.577408 5.65948 70.0995
4480132 9.57461 12.3218 24.7863 23.498 0.519666 5.64 70.1807
4480141 9.58342 12.3034 24.7174 23.4785 0.528312 5.63102 70.0827
4480152 9.58342 12.3034 24.7174 23.4785 0.528312 5.63102 70.0827
4480162 9.58342 12.331 24.6584 23.4883 0.562882 5.61629 70.061
4480172 9.55699 12.331 24.6977 23.4298 0.537756 5.62151 70.0155
4480182 9.55699 12.3586 24.6977 23.4298 0.547403 5.61338 70.0432
4480192 9.53938 12.3586 24.6977 23.4688 0.567427 5.62379 70.0645
4480203 9.53938 12.3586 24.6977 23.4688 0.567427 5.62379 70.0645
4480212 9.55699 12.3034 24.6485 23.4298 0.546065 5.62306 69.9387
4480222 9.57461 12.377 24.6977 23.3519 0.520185 5.59232 70.0012
4480232 9.57461 12.377 24.6977 23.3519 0.520185 5.59232 70.0012
4480243 9.62746 12.4323 24.6879 23.3616 0.527224 5.56055 70.1093
4480252 9.62746 12.4323 24.6879 23.3616 0.527224 5.56055 70.1093
4480262 9.5658 12.3402 24.6288 23.3421 0.532249 5.59518 69.877
4480272 9.63627 12.3954 24.6977 23.3324 0.49735 5.56617 70.0618
4480282 9.63627 12.3954 24.6977 23.3324 0.49735 5.56617 70.0618
4480292 9.59223 12.377 24.6879 23.3811 0.527564 5.58974 70.0382
4480303 9.60984 12.377 24.7273 23.4006 0.513616 5.59247 70.1147
4480312 9.60984 12.377 24.7273 23.4006 0.513616 5.59247 70.1147
4480322 9.64508 12.331 24.7174 23.4103 0.4917 5.59564 70.1038
4480345 9.68031 12.3586 24.7174 23.459 0.505552 5.58372 70.2154
4480355 9.5658 12.331 24.6977 23.4103 0.527734 5.61631 70.0048
4480366 9.5658 12.331 24.6977 23.4103 0.527734 5.61631 70.0048
4480374 9.60104 12.3218 24.6781 23.498 0.549465 5.61776 70.0989
4480387 9.60984 12.2941 24.7371 23.4493 0.498095 5.62468 70.0904
4480395 9.60984 12.2941 24.7371 23.4493 0.498095 5.62468 70.0904
4480405 9.60104 12.2941 24.7076 23.4201 0.501832 5.61941 70.0228
4480416 9.58342 12.2389 24.747 23.537 0.515458 5.66175 70.1062
4480425 9.58342 12.2389 24.747 23.537 0.515458 5.66175 70.1062
4480438 9.49534 12.2849 24.7863 23.5175 0.542474 5.6768 70.0841
4480446 9.49534 12.2849 24.7863 23.5175 0.542474 5.6768 70.0841
4480463 9.49534 12.2297 24.806 23.498 0.509191 5.69314 70.029
4480466 9.52176 12.1468 24.8651 23.5759 0.476357 5.72799 70.1096
4480476 9.52176 12.1468 24.8651 23.5759 0.476357 5.72799 70.1096
4480486 9.4601 12.1652 24.7962 23.6246 0.547349 5.73811 70.0461
4480496 9.45129 12.156 24.8356 23.6831 0.553384 5.75636 70.126
4480516 9.48653 12.1192 24.8552 23.7805 0.554487 5.77224 70.2415
4480526 9.48653 12.1192 24.8552 23.7805 0.554487 5.77224 70.2415
4480536 9.3544 11.9534 24.9143 23.7805 0.523272 5.86842 70.0026
4480546 9.3544 11.9718 24.9931 23.8682 0.531638 5.8846 70.1875
4480565 9.3544 11.9718 24.9931 23.8682 0.531638 5.8846 70.1875
4480566 9.36321 11.8982 24.9734 23.9364 0.533685 5.9102 70.1711
4480585 9.33679 11.8613 25.0324 24.0046 0.532743 5.94551 70.2351
4480586 9.33679 11.8613 25.0324 24.0046 0.532743 5.94551 70.2351
4480597 9.33679 11.8889 25.0816 24.0533 0.541431 5.94989 70.3607
4480607 9.33679 11.8889 25.0816 24.0533 0.541431 5.94989 70.3607
4480617 9.23109 11.7324 25.0521 24.063 0.539479 6.02573 70.0786
4480627 9.2399 11.714 25.1112 24.141 0.535521 6.04612 70.206
4480637 9.2399 11.714 25.1112 24.141 0.535521 6.04612 70.206
4480649 9.22228 11.7324 25.0718 24.2092 0.586414 6.04956 70.2356
4480658 9.17824 11.7508 25.0718 24.2092 0.608867 6.05724 70.21
4480672 9.17824 11.7508 25.0718 24.2092 0.608867 6.05724 70.21
4480679 9.16062 11.6679 25.0816 24.2189 0.586268 6.08991 70.1291
4480689 9.16062 11.6679 25.0816 24.2189 0.586268 6.08991 70.1291
4480699 9.10777 11.6035 25.0324 24.2481 0.611287 6.12271 69.9918
4480709 9.08135 11.6035 25.0521 24.3358 0.644267 6.14428 70.0727
4480728 9.08135 11.6035 25.0521 24.3358 0.644267 6.14428 70.0727
4480730 9.06373 11.6127 25.0718 24.365 0.656861 6.153 70.1133
4480741 9.08135 11.5943 25.1112 24.3456 0.622857 6.15575 70.1323
4480749 9.08135 11.5943 25.1112 24.3456 0.622857 6.15575 70.1323
4480762 9.06373 11.5666 25.1407 24.365 0.615674 6.17558 70.1361
4480770 9.06373 11.5666 25.1407 24.365 0.615674 6.17558 70.1361
4480783 9.06373 11.6035 25.0915 24.4138 0.663367 6.1644 70.1724
4480790 9.0285 11.6495 25.1309 24.3358 0.650787 6.15628 70.1447
4480800 9.0285 11.6495 25.1309 24.3358 0.650787 6.15628 70.1447
4480810 9.01088 11.5758 25.1112 24.3748 0.652382 6.18627 70.0727
4480820 9.01088 11.6495 25.1309 24.404 0.680879 6.17018 70.1953
4480830 9.01088 11.6495 25.1309 24.404 0.680879 6.17018 70.1953
4480840 9.01088 11.6679 25.062 24.3456 0.692236 6.14857 70.0863
4480851 9.01088 11.6679 25.062 24.3456 0.692236 6.14857 70.0863
4480860 9.04611 11.6771 25.0816 24.3456 0.675312 6.13765 70.1505
4480874 8.95803 11.6771 25.0324 24.3261 0.71891 6.15556 69.9937
4480881 8.95803 11.6771 25.0324 24.3261 0.71891 6.15556 69.9937
4480891 9.0285 11.6771 25.0127 24.3066 0.693503 6.12932 70.025
4480901 9.0285 11.7048 24.9734 24.3553 0.734425 6.12217 70.0619
4480921 9.10777 11.6956 24.9143 24.3358 0.717056 6.09109 70.0535
4480931 9.10777 11.6956 24.9143 24.3358 0.717056 6.09109 70.0535
4480942 9.05492 11.6956 24.8749 24.3261 0.747582 6.10077 69.9515
4480951 9.06373 11.7692 24.9438 24.3456 0.751266 6.08717 70.1224
4480964 9.06373 11.7692 24.9438 24.3456 0.751266 6.08717 70.1224
4480972 9.12539 11.7876 24.934 24.404 0.758806 6.0693 70.251
4480981 9.16943 11.8061 24.9734 24.5307 0.778216 6.07166 70.4795
4480991 9.16943 11.8061 24.9734 24.5307 0.778216 6.07166 70.4795
4481001 9.1342 11.7784 24.9537 24.5696 0.802219 6.09291 70.4359
4481012 9.1342 11.7784 24.9143 24.5696 0.816649 6.08793 70.3966
4481022 9.04611 11.76 24.9143 24.5696 0.842667 6.11988 70.2901
4481033 9.1342 11.6956 25.0324 24.5891 0.751597 6.13015 70.4513
4481042 9.1342 11.6956 25.0324 24.5891 0.751597 6.13015 70.4513
4481052 9.0285 11.5666 25.0127 24.5891 0.753063 6.19829 70.197
4481062 9.06373 11.5943 24.9241 24.6086 0.788912 6.17063 70.1907
4481082 9.0285 11.5943 24.934 24.5989 0.794885 6.18128 70.1556
4481094 9.0285 11.5943 24.934 24.5989 0.794885 6.18128 70.1556
4481102 9.01969 11.5666 24.9537 24.5989 0.781351 6.19476 70.1388
4481116 8.91399 11.5114 25.062 24.7255 0.805026 6.27281 70.2128
4481124 8.91399 11.5114 25.062 24.7255 0.805026 6.27281 70.2128
4481140 8.97565 11.4561 25.1407 24.7547 0.744554 6.28427 70.3272
4481142 8.88756 11.4101 25.2195 24.8132 0.752252 6.34186 70.3303
4481152 8.88756 11.4101 25.2195 24.8132 0.752252 6.34186 70.3303
4481165 8.91399 11.364 25.2884 24.9496 0.7485 6.37301 70.5159
4481172 8.91399 11.364 25.2884 24.9496 0.7485 6.37301 70.5159
4481191 8.77306 11.318 25.3573 24.9009 0.7422 6.43229 70.3492
4481195 8.83471 11.2535 25.308 25.008 0.75236 6.4402 70.4043
4481219 8.73782 11.1798 25.377 24.9496 0.717014 6.49353 70.2442
4481222 8.75544 11.1798 25.308 24.9983 0.752631 6.48569 70.2416
4481232 8.75544 11.1798 25.308 24.9983 0.752631 6.48569 70.2416
4481244 8.64974 11.0785 25.3966 25.0275 0.734001 6.56339 70.1524
4481254 8.64974 11.0785 25.3966 25.0275 0.734001 6.56339 70.1524
4481269 8.59689 10.9312 25.4557 25.1249 0.714436 6.6438 70.1087
4481274 8.56166 10.9036 25.5148 25.1834 0.716376 6.67718 70.1634
4481295 8.56166 10.9036 25.5148 25.1834 0.716376 6.67718 70.1634
4481297 8.55285 10.7839 25.5837 25.3977 0.727069 6.75033 70.3181
4481304 8.50881 10.701 25.5935 25.5146 0.751325 6.80445 70.3179
4481320 8.50881 10.701 25.5935 25.5146 0.751325 6.80445 70.3179
4481324 8.56166 10.6826 25.5345 25.5926 0.774109 6.79599 70.3712
4481334 8.56166 10.6826 25.5345 25.5926 0.774109 6.79599 70.3712
4481345 8.57047 10.572 25.564 25.5341 0.701764 6.82417 70.2406
4481355 8.57927 10.572 25.5738 25.5731 0.708416 6.82711 70.2982
4481375 8.6057 10.572 25.5837 25.6413 0.718701 6.82798 70.4027
4481385 8.56166 10.5628 25.564 25.6802 0.752261 6.84673 70.3687
4481396 8.56166 10.5628 25.564 25.6802 0.752261 6.84673 70.3687
4481406 8.64093 10.5628 25.5246 25.651 0.727594 6.81418 70.3794
4481417 8.64093 10.5628 25.5246 25.651 0.727594 6.81418 70.3794
4481426 8.59689 10.5352 25.4754 25.6218 0.742108 6.82729 70.2293
4481436 8.59689 10.5076 25.5049 25.6607 0.735202 6.84384 70.2701
4481446 8.59689 10.5076 25.5049 25.6607 0.735202 6.84384 70.2701
4481460 8.62332 10.5628 25.4951 25.5536 0.711194 6.80485 70.2348
4481467 8.58808 10.5444 25.5049 25.6315 0.741059 6.83174 70.2689
4481487 8.57927 10.4892 25.623 25.7192 0.712264 6.87548 70.4107
4481499 8.56166 10.5076 25.5246 25.7289 0.764427 6.86498 70.3228
4481507 8.56166 10.5076 25.5246 25.7289 0.764427 6.86498 70.3228
4481517 8.59689 10.526 25.6132 25.7582 0.735548 6.86194 70.4943
4481528 8.59689 10.526 25.6132 25.7582 0.735548 6.86194 70.4943
4481539 8.51762 10.3971 25.6624 25.7387 0.695333 6.93011 70.3158
4481550 8.6057 10.4707 25.6624 25.6997 0.675178 6.87529 70.4386
4481573 8.54404 10.4523 25.6723 25.7289 0.697806 6.90468 70.3976
4481578 8.53523 10.4339 25.6329 25.7192 0.705686 6.9075 70.3212
4481588 8.53523 10.4339 25.6329 25.7192 0.705686 6.9075 70.3212
4481600 8.54404 10.4339 25.6624 25.7679 0.708497 6.91376 70.4083
4481609 8.54404 10.4339 25.6624 25.7679 0.708497 6.91376 70.4083
4481618 8.49119 10.3418 25.692 25.7777 0.688568 6.96345 70.3026
4481629 8.49119 10.3234 25.7018 25.8166 0.692078 6.97478 70.333
4481650 8.51762 10.3418 25.751 25.8946 0.697732 6.97528 70.505
4481663 8.44715 10.2405 25.7904 25.9238 0.684202 7.03671 70.4018
4481670 8.44715 10.2405 25.7904 25.9238 0.684202 7.03671 70.4018
4481680 8.45596 10.2221 25.8396 25.992 0.680232 7.05298 70.5096
4481692 8.45596 10.2221 25.8396 25.992 0.680232 7.05298 70.5096
4481700 8.42073 10.2221 25.8002 26.0212 0.717509 7.06286 70.4643
4481710 8.37668 10.1761 25.8298 26.0991 0.73379 7.10316 70.4816
4481720 8.37668 10.1761 25.8298 26.0991 0.73379 7.10316 70.4816
4481733 8.35907 10.0932 25.7116 26.0797 0.748155 7.11931 70.2435
4481741 8.33264 10.084 25.7609 26.1284 0.753435 7.1415 70.3058
4481750 8.33264 10.084 25.7609 26.1284 0.753435 7.1415 70.3058
4481760 8.32383 10.13 25.751 26.1089 0.769421 7.1265 70.3137
4481770 8.32383 10.13 25.751 26.1089 0.769421 7.1265 70.3137
4481780 8.25337 10.1024 25.7412 26.0699 0.775924 7.15195 70.1668
4481790 8.33264 10.084 25.7805 26.0407 0.715947 7.13389 70.2378
4481802 8.33264 10.084 25.7805 26.0407 0.715947 7.13389 70.2378
4481811 8.30622 10.1116 25.7609 26.0797 0.755844 7.13568 70.2583
4481821 8.27979 10.1024 25.8396 26.0797 0.733501 7.15571 70.3014
4481831 8.27979 10.1024 25.8396 26.0797 0.733501 7.15571 70.3014
4481843 8.34145 10.1208 25.8593 26.1576 0.736973 7.1414 70.4791
4481858 8.34145 10.1208 25.8593 26.1576 0.736973 7.1414 70.4791
4481863 8.31503 10.0748 25.8691 26.1284 0.717092 7.16203 70.3873
4481872 8.30622 10.1024 25.9282 26.1186 0.704908 7.1616 70.4554
4481884 8.30622 10.1024 25.9282 26.1186 0.704908 7.1616 70.4554
4481892 8.33264 10.1668 25.8888 26.1868 0.755295 7.13626 70.5751
4481909 8.35026 10.0932 25.8691 26.0991 0.700492 7.14189 70.4117
4481912 8.35026 10.0932 25.8691 26.0991 0.700492 7.14189 70.4117
4481922 8.30622 10.1392 25.7904 26.1479 0.778046 7.13791 70.3837
4481932 8.30622 10.1392 25.7904 26.1479 0.778046 7.13791 70.3837
4481947 8.33264 10.084 25.8101 26.0309 0.70177 7.13611 70.2576
4481953 8.40311 10.1668 25.8002 25.9725 0.688058 7.08022 70.3427
4481962 8.40311 10.1668 25.8002 25.9725 0.688058 7.08022 70.3427
4481976 8.42953 10.2313 25.6723 25.8069 0.690189 7.01846 70.14
4481982 8.45596 10.2681 25.7018 25.7582 0.665593 6.99643 70.1841
4482003 8.49119 10.2774 25.7116 25.6997 0.632033 6.97696 70.1799
4482013 8.49119 10.2774 25.7116 25.6997 0.632033 6.97696 70.1799
4482023 8.46477 10.2405 25.7412 25.7095 0.621486 7.00126 70.1559
4482032 8.52642 10.3326 25.8101 25.6705 0.592339 6.95658 70.3396
4482052 8.52642 10.3234 25.7805 25.7971 0.643772 6.97054 70.4275
4482062 8.50881 10.2866 25.8199 25.7484 0.606227 6.98648 70.3637
4482073 8.50881 10.2866 25.8199 25.7484 0.606227 6.98648 70.3637
4482084 8.5 10.305 25.8298 25.7679 0.618985 6.98681 70.4027
4482093 8.5 10.305 25.8298 25.7679 0.618985 6.98681 70.4027
4482104 8.47358 10.2958 25.7805 25.8556 0.673681 7.00232 70.4055
4482116 8.49119 10.2681 25.8888 25.8361 0.611567 7.01552 70.4843
4482125 8.49119 10.2681 25.8888 25.8361 0.611567 7.01552 70.4843
4482135 8.49119 10.2774 25.8396 25.7679 0.609037 6.99932 70.3761
4482147 8.44715 10.3234 25.8396 25.7874 0.647762 7.00091 70.3976
4482158 8.44715 10.3234 25.8396 25.7874 0.647762 7.00091 70.3976
4482165 8.47358 10.2681 25.8691 25.7777 0.604889 7.01217 70.3885
4482175 8.49119 10.2681 25.8593 25.7777 0.602061 7.00554 70.3963
4482186 8.49119 10.2313 25.8593 25.7777 0.589284 7.01706 70.3595
4482196 8.51762 10.2221 25.938 25.7971 0.554657 7.02281 70.4749
4482216 8.44715 10.1945 25.9184 25.7387 0.557497 7.04467 70.2987
4482227 8.47358 10.2037 25.9282 25.7971 0.567818 7.04123 70.4026
4482236 8.47358 10.2037 25.9282 25.7971 0.567818 7.04123 70.4026
4482246 8.45596 10.1484 25.9676 25.7289 0.517005 7.06082 70.3009
4482257 8.40311 10.1484 25.9971 25.8848 0.579634 7.09827 70.4335
4482277 8.43834 10.1853 26.0463 25.7971 0.531361 7.07136 70.4671
4482288 8.43834 10.1853 26.0463 25.7971 0.531361 7.07136 70.4671
4482298 8.34145 10.084 26.0857 25.8848 0.547487 7.14781 70.3959
4482312 8.35026 10.1024 26.1054 25.8751 0.540158 7.14035 70.4331
4482321 8.35026 10.1024 26.1054 25.8751 0.540158 7.14035 70.4331
4482330 8.29741 10.0379 26.1054 25.9238 0.553867 7.18271 70.3645
4482338 8.30622 10.0563 26.1349 26.0894 0.603727 7.19576 70.5869
4482351 8.30622 10.0563 26.1349 26.0894 0.603727 7.19576 70.5869
4482359 8.27979 10.0471 26.1251 26.0407 0.596851 7.2005 70.4927
4482379 8.26218 10.0379 26.1054 26.0115 0.597095 7.20354 70.4169
4482390 8.31503 9.99187 26.0955 26.0115 0.565502 7.2003 70.4139
4482400 8.31503 9.99187 26.0955 26.0115 0.565502 7.2003 70.4139
4482410 8.24456 10.0195 26.0069 25.9433 0.6093 7.19643 70.2143
4482420 8.27098 10.0655 26.0266 26.0115 0.632113 7.18332 70.3746
4482429 8.27098 10.0655 26.0266 26.0115 0.632113 7.18332 70.3746
4482441 8.19171 10.0563 26.0168 25.9725 0.64792 7.20583 70.2373
4482450 8.25337 10.1024 26.0069 25.9725 0.64497 7.17074 70.3352
4482460 8.25337 10.1024 26.0069 25.9725 0.64497 7.17074 70.3352
4482480 8.26218 10.1024 25.9676 26.0407 0.679711 7.17117 70.3728
4482481 8.26218 10.1024 25.9676 26.0407 0.679711 7.17117 70.3728
4482492 8.24456 10.0287 25.9282 26.0699 0.685152 7.19884 70.2714
4482501 8.27979 10.1024 25.9282 26.1186 0.714555 7.16991 70.429
4482512 8.27979 10.1024 25.9282 26.1186 0.714555 7.16991 70.429
4482524 8.27098 10.084 25.9676 26.1479 0.707126 7.1861 70.4704
4482531 8.14767 10.0748 25.9676 26.1381 0.745657 7.22682 70.3281
4482544 8.14767 10.0748 25.9676 26.1381 0.745657 7.22682 70.3281
4482551 8.20052 10.0563 25.9577 26.1284 0.720206 7.21378 70.3429
4482561 8.20052 10.0563 25.9577 26.1284 0.720206 7.21378 70.3429
4482571 8.21813 10.0287 25.9282 26.1868 0.735199 7.22014 70.3619
4482581 8.22694 10.0287 25.9774 26.1576 0.703907 7.21957 70.3907
4482596 8.22694 10.0287 25.9774 26.1576 0.703907 7.21957 70.3907
4482601 8.2886 10.0563 25.9085 26.1479 0.712726 7.1827 70.4013
4482611 8.17409 10.0563 25.8298 26.0991 0.766692 7.2047 70.1593
4482624 8.17409 10.1024 25.8298 26.0991 0.782582 7.19014 70.2054
4482631 8.23575 10.0379 25.8593 26.1771 0.753787 7.20296 70.31
4482641 8.23575 10.0379 25.8593 26.1771 0.753787 7.20296 70.31
4482653 8.25337 10.1116 25.8593 26.0602 0.732419 7.16115 70.2844
4482662 8.29741 10.2221 25.8691 26.0894 0.760859 7.1169 70.478
4482672 8.29741 10.2221 25.8691 26.0894 0.760859 7.1169 70.478
4482682 8.32383 10.2129 25.8888 25.9725 0.700563 7.10061 70.398
4482695 8.32383 10.2129 25.8494 25.9725 0.714943 7.09618 70.3587
4482702 8.22694 10.1761 25.8494 26.0699 0.771296 7.14915 70.3224
4482718 8.29741 10.2037 25.8593 26.1381 0.774872 7.12703 70.4985
4482722 8.29741 10.2037 25.8593 26.1381 0.774872 7.12703 70.4985
4482732 8.31503 10.2221 25.9085 26.0602 0.72999 7.11251 70.5058
4482742 8.29741 10.2405 25.9282 26.0017 0.715443 7.10792 70.4678
4482753 8.29741 10.2405 25.9282 26.0017 0.715443 7.10792 70.4678
4482763 8.29741 10.1853 25.9085 26.1284 0.747207 7.13721 70.5196
4482772 8.29741 10.1853 25.9085 26.1284 0.747207 7.13721 70.5196
4482786 8.23575 10.1392 25.8691 26.0602 0.744799 7.15909 70.3043
4482794 8.27098 10.1208 25.879 25.953 0.684896 7.14292 70.2238
4482809 8.27098 10.1208 25.879 25.953 0.684896 7.14292 70.2238
4482814 8.23575 10.1208 25.8298 25.992 0.729308 7.15289 70.1783
4482824 8.21813 10.1668 25.9085 25.953 0.709364 7.14837 70.2465
4482833 8.21813 10.1668 25.9085 25.953 0.709364 7.14837 70.2465
4482844 8.24456 10.1208 25.9479 26.0115 0.689593 7.16547 70.3247
4482857 8.24456 10.1208 25.9479 26.0115 0.689593 7.16547 70.3247
4482866 8.27979 10.1024 25.938 26.0115 0.673953 7.15908 70.3317
4482880 8.25337 10.0748 25.9774 26.0504 0.673148 7.18483 70.356
4482884 8.25337 10.0748 25.9774 26.0504 0.673148 7.18483 70.356
4482893 8.21813 10.0932 26.0069 26.0602 0.684962 7.19449 70.3784
4482904 8.21813 10.084 26.0266 26.0212 0.661123 7.19526 70.3499
4482913 8.21813 10.084 26.0266 26.0212 0.661123 7.19526 70.3499
4482927 8.25337 10.0655 25.938 26.0602 0.687709 7.18444 70.3171
4482933 8.25337 10.0655 25.938 26.0602 0.687709 7.18444 70.3171
4482943 8.24456 10.0287 25.9184 26.0017 0.665134 7.19017 70.1933
4482956 8.35026 10.084 26.0069 26.0212 0.620177 7.15146 70.4624
4482966 8.35026 10.084 26.0069 26.0212 0.620177 7.15146 70.4624
4482975 8.27098 10.1024 26.0168 26.0407 0.658551 7.17387 70.4308
4482986 8.24456 10.1116 26.066 26.0504 0.656798 7.18583 70.4726
4482995 8.24456 10.1116 26.066 26.0504 0.656798 7.18583 70.4726
4483005 8.24456 10.1392 26.0168 26.0212 0.674176 7.16843 70.4218
4483015 8.24456 10.1392 26.0168 26.0212 0.674176 7.16843 70.4218
4483025 8.21813 10.0471 26.0365 26.0602 0.658271 7.21229 70.3619
4483035 8.24456 10.13 26.0365 25.9822 0.650349 7.16918 70.3933
4483045 8.24456 10.13 26.0365 25.9822 0.650349 7.16918 70.3933
4483055 8.23575 10.0655 26.066 26.0115 0.630605 7.1988 70.3788
4483065 8.24456 10.0748 26.0365 26.0017 0.637969 7.18876 70.3575
4483075 8.24456 10.0748 26.0365 26.0017 0.637969 7.18876 70.3575
4483085 8.23575 10.084 26.0069 25.992 0.651762 7.18427 70.3186
4483095 8.23575 10.084 26.0069 25.992 0.651762 7.18427 70.3186
4483112 8.27979 10.0563 25.9873 26.0115 0.640061 7.17907 70.3349
4483121 8.20933 10.0195 26.0365 25.992 0.628287 7.21625 70.2573
4483139 8.20933 10.0195 26.0365 25.992 0.628287 7.21625 70.2573
4483140 8.27979 10.1116 26.0069 26.0115 0.652012 7.16385 70.4098
4483145 8.2886 10.0195 26.0857 26.0017 0.58488 7.19775 70.3955
4483156 8.2886 10.0195 26.0857 26.0017 0.58488 7.19775 70.3955
4483166 8.2886 10.0655 26.1152 26.0504 0.606975 7.19192 70.5198
4483179 8.2886 10.0655 26.1152 26.0504 0.606975 7.19192 70.5198
4483187 8.26218 10.0932 26.0955 25.9433 0.596189 7.17747 70.3942
4483200 8.26218 10.0563 26.1054 26.0212 0.60685 7.19881 70.4451
4483207 8.26218 10.0563 26.1054 26.0212 0.60685 7.19881 70.4451
4483221 8.30622 9.98267 26.1546 26.0212 0.547454 7.2136 70.4647
4483226 8.31503 10.0195 26.1054 26.0017 0.568134 7.19161 70.4416
4483237 8.31503 10.0195 26.1054 26.0017 0.568134 7.19161 70.4416
4483248 8.25337 10.0195 26.1841 26.0309 0.572065 7.22298 70.4879
4483257 8.25337 10.0195 26.1841 26.0309 0.572065 7.22298 70.4879
4483267 8.27098 9.97346 26.2334 25.9822 0.514957 7.232 70.46
4483279 8.26218 9.97346 26.1743 26.0017 0.546327 7.23042 70.4116
4483297 8.2886 9.99187 26.1644 25.914 0.516233 7.20548 70.359
4483315 8.26218 9.9182 26.1841 25.914 0.493014 7.23929 70.2785
4483318 8.26218 9.9182 26.1841 25.914 0.493014 7.23929 70.2785
4483327 8.27098 9.95504 26.2334 25.914 0.484824 7.2303 70.3734
4483343 8.27098 9.95504 26.2334 25.914 0.484824 7.2303 70.3734
4483348 8.25337 9.97346 26.2038 25.8264 0.477755 7.21708 70.257
4483357 8.26218 9.96425 26.2727 25.953 0.490525 7.23881 70.4522
4483369 8.26218 9.96425 26.2727 25.953 0.490525 7.23881 70.4522
4483379 8.22694 9.94583 26.2038 25.9627 0.525245 7.24924 70.3393
4483395 8.21813 9.89978 26.2826 25.953 0.480461 7.27419 70.3535
4483399 8.21813 9.89978 26.2826 25.953 0.480461 7.27419 70.3535
4483409 8.20052 9.97346 26.253 25.9627 0.526583 7.25428 70.3898
4483421 8.16529 9.96425 26.3219 25.9238 0.497618 7.27163 70.3753
4483430 8.16529 9.96425 26.3219 25.9238 0.497618 7.27163 70.3753
4483447 8.21813 9.95504 26.3318 26.0797 0.525883 7.27601 70.5846
4483450 8.21813 9.95504 26.3318 26.0797 0.525883 7.27601 70.5846
4483460 8.17409 9.94583 26.2826 25.992 0.526014 7.27784 70.3945
4483470 8.14767 9.92741 26.2432 26.0504 0.563806 7.29413 70.3687
4483490 8.15648 9.9182 26.2432 26.0115 0.543866 7.28998 70.3293
4483501 8.12124 9.89978 26.2334 26.0894 0.580928 7.31445 70.3438
4483521 8.16529 9.88136 26.2629 26.0407 0.530872 7.30422 70.3502
4483533 8.16529 9.88136 26.2629 26.0407 0.530872 7.30422 70.3502
4483541 8.15648 9.96425 26.3121 26.0797 0.558528 7.29042 70.5125
4483551 8.15648 9.96425 26.2727 26.1673 0.60316 7.2957 70.5608
4483561 8.15648 9.96425 26.2727 26.1673 0.60316 7.2957 70.5608
4483571 8.1829 9.98267 26.2826 26.1186 0.57953 7.27729 70.5668
4483589 8.1829 9.98267 26.2826 26.1186 0.57953 7.27729 70.5668
4483593 8.10363 9.92741 26.194 26.1186 0.621387 7.31016 70.3436
4483601 8.13886 9.98267 26.253 26.1576 0.619704 7.29223 70.5322
4483614 8.13886 9.98267 26.253 26.1576 0.619704 7.29223 70.5322
4483621 8.13886 9.93662 26.2137 26.1771 0.624827 7.30462 70.4662
4483631 8.0772 9.86295 26.1743 26.1284 0.619218 7.33794 70.2428
4483643 8.0772 9.86295 26.1743 26.1284 0.619218 7.33794 70.2428
4483652 8.08601 9.94583 26.1448 26.0991 0.645384 7.30239 70.2757
4483664 8.0772 9.89978 26.1841 26.1089 0.62165 7.32518 70.27
4483672 8.0772 9.89978 26.1841 26.1089 0.62165 7.32518 70.27
4483687 8.05959 9.9182 26.1644 26.1381 0.651777 7.32597 70.2803
4483695 8.05959 9.9182 26.1644 26.1381 0.651777 7.32597 70.2803
4483703 8.10363 9.9182 26.1743 26.2453 0.669193 7.32476 70.4414
4483713 8.06839 9.98267 26.1743 26.2258 0.697565 7.31337 70.4511
4483722 8.06839 9.98267 26.1743 26.2258 0.697565 7.31337 70.4511
4483734 8.09482 9.97346 26.0955 26.255 0.723568 7.30251 70.4188
4483744 8.13886 9.9182 26.0266 26.2745 0.720316 7.30066 70.3582
4483756 8.13886 9.9182 26.0266 26.2745 0.720316 7.30066 70.3582
4483763 8.1829 9.98267 26.0266 26.2842 0.729808 7.26739 70.4764
4483781 8.1829 9.98267 26.0266 26.2842 0.729808 7.26739 70.4764
4483785 8.04197 9.99187 26.0266 26.2453 0.771111 7.30482 70.3058
4483794 8.12124 10.0379 25.938 26.2648 0.797087 7.25754 70.362
4483814 8.12124 10.0748 25.9479 26.2355 0.796098 7.24376 70.3794
4483824 8.14767 10.0655 25.9282 26.1868 0.773692 7.23077 70.3282
4483835 8.14767 10.0655 25.9282 26.1868 0.773692 7.23077 70.3282
4483845 8.17409 10.1208 25.9577 26.2355 0.788963 7.21363 70.4882
4483855 8.17409 10.1208 25.9577 26.2355 0.788963 7.21363 70.4882
4483865 8.20933 10.1208 25.9085 26.1381 0.760576 7.18629 70.3767
4483878 8.14767 10.1484 25.8691 26.1479 0.810474 7.19373 70.3131
4483885 8.14767 10.1484 25.8691 26.1479 0.810474 7.19373 70.3131
4483900 8.17409 10.1024 25.9282 26.1381 0.75992 7.20539 70.3428
4483905 8.14767 10.1761 25.9184 26.0991 0.785163 7.18507 70.3412
4483915 8.14767 10.1761 25.9184 26.0991 0.785163 7.18507 70.3412
4483926 8.16529 10.2037 26.0069 26.0797 0.74909 7.17849 70.4556
4483948 8.13886 10.1208 25.9282 26.1381 0.779176 7.2107 70.326
4483956 8.1829 10.1761 25.9577 26.1868 0.787991 7.18806 70.5035
4483971 8.1829 10.1761 25.9577 26.1868 0.787991 7.18806 70.5035
4483977 8.13886 10.1208 25.8888 26.1284 0.790259 7.20526 70.2769
4483994 8.13886 10.1392 25.9282 26.2355 0.819007 7.21567 70.4418
4483997 8.13886 10.1392 25.9282 26.2355 0.819007 7.21567 70.4418
4484007 8.14767 10.1208 25.938 26.2063 0.795805 7.21656 70.4128
4484018 8.13005 10.0932 25.9971 26.1868 0.764424 7.23521 70.4072
4484027 8.13005 10.0932 25.9971 26.1868 0.764424 7.23521 70.4072
4484040 8.09482 10.0195 26.0365 26.1966 0.740883 7.27505 70.3474
4484058 8.13886 10.1116 25.9774 26.1771 0.771391 7.22337 70.4049
4484068 8.10363 10.0932 25.9873 26.2258 0.791109 7.24677 70.4099
4484078 8.10363 10.0932 25.9873 26.2258 0.791109 7.24677 70.4099
4484089 8.13005 10.0287 25.9971 26.1673 0.735492 7.25344 70.3232
4484103 8.10363 10.0011 26.1054 26.1673 0.696036 7.28245 70.3774
4484110 8.10363 10.0011 26.1054 26.1673 0.696036 7.28245 70.3774
4484120 8.15648 10.0287 26.1743 26.216 0.677991 7.2699 70.5755
4484130 8.15648 10.0287 26.1743 26.216 0.677991 7.2699 70.5755
4484140 8.0772 10.0379 26.1152 26.1771 0.718164 7.2813 70.4074
4484150 8.09482 9.98267 26.194 26.1966 0.670668 7.30396 70.468
4484160 8.09482 9.98267 26.194 26.1966 0.670668 7.30396 70.468
4484170 8.13005 9.97346 26.1841 26.2453 0.675055 7.29998 70.5329
4484180 8.0772 9.94583 26.2038 26.2258 0.670874 7.32547 70.4526
4484190 8.0772 9.94583 26.2038 26.2258 0.670874 7.32547 70.4526
4484200 8.0772 9.97346 26.1448 26.2258 0.701949 7.31028 70.4212
4484211 8.0772 9.97346 26.1448 26.2258 0.701949 7.31028 70.4212
4484220 8.08601 9.9182 26.1448 26.216 0.676286 7.32393 70.365
4484230 8.12124 9.93662 26.1152 26.2453 0.690666 7.3069 70.4184
4484250 8.10363 10.0011 26.194 26.2258 0.683901 7.29854 70.5245
4484260 8.04197 9.92741 26.1054 26.216 0.709945 7.3307 70.2908
4484271 8.04197 9.92741 26.1054 26.216 0.709945 7.3307 70.2908
4484283 8.12124 9.94583 26.1152 26.294 0.710642 7.30929 70.4763
4484291 8.12124 9.94583 26.1152 26.294 0.710642 7.30929 70.4763
4484301 8.03316 9.92741 26.1546 26.3524 0.742215 7.35369 70.4676
4484311 8.05959 9.92741 26.2235 26.3719 0.714144 7.3549 70.5824
4484321 8.05959 9.92741 26.2235 26.3719 0.714144 7.3549 70.5824
4484338 8.05078 9.87216 26.1743 26.3037 0.692752 7.36249 70.4009
4484341 8.03316 9.90899 26.1644 26.3135 0.718847 7.35637 70.4201
4484352 8.03316 9.90899 26.1644 26.3135 0.718847 7.35637 70.4201
4484366 8.06839 9.83532 26.1743 26.3622 0.693783 7.37493 70.4402
4484373 8.06839 9.83532 26.1743 26.3622 0.693783 7.37493 70.4402
4484382 7.98912 9.78927 26.1743 26.3817 0.713566 7.41691 70.3343
4484393 8.04197 9.80769 26.1841 26.4011 0.703746 7.39738 70.4349
4484404 8.04197 9.80769 26.1841 26.4011 0.703746 7.39738 70.4349
4484420 8.05078 9.8169 26.1448 26.3719 0.707999 7.38424 70.3844
4484430 8.01554 9.82611 26.2235 26.3914 0.702015 7.40313 70.4566
4484434 8.01554 9.82611 26.2235 26.3914 0.702015 7.40313 70.4566
4484447 8.05959 9.87216 26.2334 26.4206 0.708306 7.37874 70.5857
4484454 8.04197 9.78927 26.2038 26.3622 0.676751 7.40116 70.3972
4484463 8.04197 9.78927 26.2038 26.3622 0.676751 7.40116 70.3972
4484474 8.01554 9.79848 26.2334 26.3232 0.665331 7.40562 70.3706
4484483 8.01554 9.79848 26.2334 26.3232 0.665331 7.40562 70.3706
4484498 7.95389 9.68797 26.2038 26.3232 0.660363 7.4574 70.1689
4484504 8.02435 9.7156 26.2727 26.3719 0.635949 7.43871 70.3846
4484515 8.02435 9.7156 26.2727 26.3719 0.635949 7.43871 70.3846
4484524 8.02435 9.73402 26.2432 26.3232 0.63622 7.42442 70.3248
4484533 8.00674 9.74323 26.3318 26.4499 0.657347 7.45021 70.5316
4484545 8.00674 9.74323 26.3318 26.4499 0.657347 7.45021 70.5316
4484554 8.00674 9.76165 26.3613 26.4304 0.646245 7.44542 70.5601
4484569 8.00674 9.76165 26.3613 26.4304 0.646245 7.44542 70.5601
4484574 7.98912 9.74323 26.3318 26.4304 0.657034 7.45373 70.4945
4484584 8.00674 9.72481 26.3023 26.5473 0.695333 7.46333 70.5811
4484605 8.06839 9.75244 26.3318 26.4888 0.651559 7.43185 70.6414
4484615 8.06839 9.75244 26.3318 26.4888 0.651559 7.43185 70.6414
4484625 7.96269 9.66956 26.3023 26.4693 0.665426 7.48667 70.4039
4484636 7.96269 9.70639 26.253 26.4888 0.702834 7.47173 70.4109
4484659 7.92746 9.63272 26.2826 26.4986 0.682834 7.51073 70.3413
4484665 7.91865 9.66956 26.2826 26.5668 0.722301 7.50902 70.4375
4484675 7.91865 9.66956 26.2826 26.5668 0.722301 7.50902 70.4375
4484685 8.02435 9.6143 26.2924 26.635 0.684637 7.50121 70.566
4484707 7.88342 9.60509 26.2137 26.6544 0.768387 7.54291 70.3566
4484715 7.90104 9.68797 26.2137 26.6252 0.780404 7.50765 70.4279
4484729 7.90104 9.68797 26.2137 26.6252 0.780404 7.50765 70.4279
4484736 7.84819 9.60509 26.194 26.7616 0.825369 7.56346 70.4089
4484746 7.89223 9.64193 26.1644 26.7519 0.829345 7.53341 70.4505
4484766 7.91865 9.62351 26.1743 26.7129 0.796348 7.52776 70.4294
4484786 7.88342 9.62351 26.1644 26.7324 0.819567 7.54006 70.4038
4484801 7.85699 9.62351 26.1644 26.859 0.872681 7.56191 70.504
4484824 7.87461 9.58667 26.1644 26.7519 0.816837 7.55674 70.3776
4484829 7.83938 9.65114 26.1644 26.8493 0.885263 7.55768 70.5042
4484838 7.83938 9.65114 26.1644 26.8493 0.885263 7.55768 70.5042
4484848 7.78653 9.56826 26.2038 26.8688 0.868511 7.60737 70.4274
4484857 7.80414 9.57747 26.194 26.9272 0.888816 7.60386 70.5028
4484870 7.80414 9.57747 26.194 26.9272 0.888816 7.60386 70.5028
4484877 7.83938 9.54984 26.1644 26.9564 0.887269 7.60139 70.5101
4484887 7.83938 9.54984 26.1644 26.9564 0.887269 7.60139 70.5101
4484897 7.84819 9.58667 25.9971 26.8395 0.918198 7.55679 70.2715
4484907 7.85699 9.62351 26.1054 26.8493 0.891036 7.55464 70.4352
4484918 7.85699 9.62351 26.1054 26.8493 0.891036 7.55464 70.4352
4484927 7.89223 9.68797 26.0759 26.8103 0.897664 7.51549 70.4664
4484942 7.8658 9.66956 26.0266 26.7908 0.912523 7.52253 70.3528
4484947 7.8658 9.66956 26.0266 26.7908 0.912523 7.52253 70.3528
4484962 7.93627 9.73402 26.1152 26.7324 0.856131 7.48264 70.5179
4484978 7.9715 9.72481 26.0266 26.7713 0.885895 7.46905 70.4943
4484988 7.95389 9.7156 25.9479 26.7519 0.91151 7.4671 70.3692
4485004 7.95389 9.7156 25.9479 26.7519 0.91151 7.4671 70.3692
4485010 8.02435 9.73402 25.8888 26.7421 0.910282 7.43136 70.3893
4485020 8.02435 9.78927 25.9676 26.6739 0.876898 7.41491 70.4551
4485030 8.02435 9.78927 25.9676 26.6739 0.876898 7.41491 70.4551
4485039 8.05959 9.87216 25.938 26.6544 0.89649 7.37209 70.5242
4485060 8.03316 9.87216 25.8987 26.6544 0.920671 7.37622 70.4584
4485061 8.03316 9.86295 25.8987 26.5862 0.894189 7.37176 70.381
4485071 8.10363 9.88136 25.8396 26.5668 0.889632 7.335 70.3914
4485086 8.10363 9.88136 25.8396 26.5668 0.889632 7.335 70.3914
4485092 8.12124 9.96425 25.8691 26.4109 0.847274 7.28934 70.3655
4485103 8.14767 10.0103 25.7609 26.3622 0.876465 7.24913 70.281
4485122 8.25337 10.1208 25.7707 26.3037 0.851852 7.1755 70.4486
4485132 8.27098 10.0932 25.7609 26.255 0.822803 7.17214 70.38
4485142 8.27098 10.0932 25.7609 26.255 0.822803 7.17214 70.38
4485156 8.36788 10.13 25.6624 26.2453 0.832671 7.118 70.4056
4485162 8.36788 10.13 25.6624 26.2453 0.832671 7.118 70.4056
4485177 8.37668 10.0471 25.6329 26.1868 0.791666 7.13145 70.2435
4485182 8.42953 10.1024 25.6132 26.2063 0.805223 7.09742 70.3514
4485203 8.44715 10.1945 25.5738 26.1576 0.828117 7.05308 70.373
4485212 8.47358 10.1576 25.6034 26.1186 0.781533 7.05528 70.3532
4485224 8.47358 10.1576 25.6034 26.1186 0.781533 7.05528 70.3532
4485232 8.48238 10.1024 25.5345 26.1089 0.781178 7.06097 70.2281
4485247 8.48238 10.1024 25.5345 26.1089 0.781178 7.06097 70.2281
4485254 8.44715 10.1208 25.6132 26.1186 0.774923 7.07624 70.2998
4485264 8.44715 10.0932 25.5738 26.216 0.813392 7.09145 70.3302
4485274 8.44715 10.0932 25.5738 26.216 0.813392 7.09145 70.3302
4485284 8.46477 10.0655 25.7018 26.1673 0.733784 7.1035 70.3994
4485294 8.42073 10.0103 25.6821 26.1771 0.741401 7.1336 70.2902
4485317 8.43834 10.1116 25.7018 26.2842 0.799486 7.11044 70.536
4485324 8.43834 10.1116 25.7018 26.2842 0.799486 7.11044 70.536
4485338 8.3943 9.99187 25.6723 26.2745 0.781927 7.15751 70.3329
4485344 8.36788 10.0011 25.7313 26.3135 0.786546 7.17385 70.4138
4485359 8.36788 10.0011 25.7313 26.3135 0.786546 7.17385 70.4138
4485363 8.37668 10.0103 25.8101 26.3135 0.757688 7.17692 70.5105
4485374 8.29741 9.89978 25.8888 26.3914 0.746679 7.25403 70.4774
4485394 8.33264 9.98267 25.8987 26.3524 0.745326 7.21359 70.5664
4485405 8.33264 9.98267 25.8987 26.3524 0.745326 7.21359 70.5664
4485415 8.33264 9.86295 25.9184 26.3135 0.683475 7.24922 70.4274
4485437 8.26218 9.89978 25.9971 26.333 0.699884 7.27063 70.492
4485439 8.26218 9.89978 25.9971 26.333 0.699884 7.27063 70.492
4485445 8.27979 9.89978 25.9774 26.333 0.700641 7.26291 70.4899
4485455 8.24456 9.90899 25.938 26.3135 0.724328 7.26467 70.4051
4485466 8.24456 9.90899 25.938 26.3135 0.724328 7.26467 70.4051
4485475 8.25337 9.87216 25.938 26.255 0.68821 7.26711 70.3186
4485485 8.25337 9.87216 25.938 26.255 0.68821 7.26711 70.3186
4485499 8.21813 9.88136 26.0069 26.3135 0.699288 7.28933 70.4199
4485505 8.1829 9.9182 25.9873 26.255 0.711885 7.28025 70.3434
4485515 8.1829 9.9182 25.9873 26.255 0.711885 7.28025 70.3434
4485525 8.24456 9.95504 25.9873 26.3037 0.718871 7.25445 70.4906
4485535 8.24456 9.95504 25.9873 26.3037 0.718871 7.25445 70.4906
4485545 8.20933 9.90899 25.9774 26.294 0.716093 7.278 70.3897
4485555 8.21813 9.89057 26.0069 26.3135 0.702465 7.28641 70.4291
4485569 8.21813 9.89057 26.0069 26.3135 0.702465 7.28641 70.4291
4485576 8.22694 9.90899 25.9774 26.255 0.696212 7.26814 70.3684
4485586 8.27098 9.89057 25.9774 26.2745 0.680506 7.26218 70.4135
4485596 8.27098 9.89057 25.9774 26.2745 0.680506 7.26218 70.4135
4485606 8.29741 9.93662 25.9873 26.2745 0.683177 7.24037 70.4958
4485629 8.22694 9.89057 25.9676 26.2453 0.690076 7.27182 70.3304
4485641 8.27098 9.93662 25.9971 26.2842 0.692579 7.25087 70.489
4485646 8.27098 9.93662 25.9971 26.2842 0.692579 7.25087 70.489
4485656 8.26218 9.89978 25.9085 26.2453 0.701964 7.25125 70.3158
4485666 8.25337 9.92741 25.9184 26.216 0.701031 7.24316 70.3152
4485693 8.26218 10.0103 25.879 26.2648 0.757599 7.21523 70.4162
4485701 8.2886 9.93662 25.9085 26.3135 0.728554 7.23877 70.4472
4485707 8.2886 9.93662 25.9085 26.3135 0.728554 7.23877 70.4472
4485717 8.25337 9.99187 25.8494 26.1868 0.738418 7.21193 70.2815
4485737 8.26218 9.98267 25.879 26.255 0.744727 7.22287 70.3788
4485749 8.2886 9.98267 25.8691 26.2355 0.731948 7.21129 70.3759
4485757 8.2886 9.98267 25.8691 26.2355 0.731948 7.21129 70.3759
4485770 8.27979 9.97346 25.938 26.2453 0.710174 7.22566 70.4366
4485791 8.2886 9.98267 25.9085 26.1479 0.687283 7.20594 70.3276
4485797 8.29741 10.0655 25.938 26.1868 0.715342 7.18463 70.4878
4485807 8.29741 10.0655 25.938 26.1868 0.715342 7.18463 70.4878
4485817 8.25337 9.99187 25.9873 26.2745 0.718278 7.23684 70.507
4485827 8.27098 9.95504 25.9479 26.2745 0.713524 7.23856 70.4484
4485847 8.2886 9.98267 25.9577 26.2842 0.716382 7.22645 70.5132
4485857 8.2886 9.98267 25.9577 26.2842 0.716382 7.22645 70.5132
4485871 8.23575 9.89057 25.9577 26.3427 0.724083 7.27865 70.4267
4485880 8.23575 9.89978 26.0168 26.3037 0.692263 7.27794 70.4561
4485887 8.23575 9.89978 26.0168 26.3037 0.692263 7.27794 70.4561
4485901 8.24456 9.86295 25.9774 26.4011 0.724298 7.29316 70.4861
4485907 8.1829 9.85374 25.9774 26.3817 0.736931 7.31346 70.3957
4485929 8.14767 9.80769 26.0365 26.3622 0.705618 7.34357 70.354
4485941 8.14767 9.80769 26.0365 26.3622 0.705618 7.34357 70.354
4485954 8.13886 9.77086 26.0365 26.4304 0.719661 7.36548 70.3766
4485959 8.15648 9.72481 26.066 26.4206 0.683179 7.37666 70.3679
4485969 8.15648 9.72481 26.066 26.4206 0.683179 7.37666 70.3679
4485981 8.05078 9.69718 26.066 26.5375 0.752625 7.43174 70.3515
4485989 8.08601 9.72481 26.0168 26.6057 0.790724 7.41375 70.4333
4485998 8.08601 9.72481 26.0168 26.6057 0.790724 7.41375 70.4333
4486009 8.08601 9.67877 26.1644 26.596 0.71758 7.44322 70.5252
4486019 8.08601 9.67877 26.1644 26.596 0.71758 7.44322 70.5252
4486028 7.98031 9.6143 26.1448 26.6739 0.768021 7.50371 70.4133
4486049 7.96269 9.58667 26.1054 26.7226 0.796145 7.51917 70.3774
4486050 7.96269 9.58667 26.1054 26.7226 0.796145 7.51917 70.3774
4486058 8.02435 9.60509 26.1841 26.8103 0.781223 7.51127 70.6239
4486068 7.9715 9.59588 26.1054 26.7519 0.806129 7.51652 70.4246
4486081 7.9715 9.59588 26.1054 26.7519 0.806129 7.51652 70.4246
4486088 7.94508 9.62351 26.1152 26.7421 0.818351 7.51614 70.4259
4486098 7.94508 9.62351 26.1152 26.7421 0.818351 7.51614 70.4259
4486110 7.94508 9.59588 26.1349 26.7616 0.808337 7.52914 70.4375
4486120 7.98912 9.62351 26.1152 26.8201 0.828946 7.51035 70.5479
4486131 7.98912 9.62351 26.1152 26.8201 0.828946 7.51035 70.5479
4486141 7.94508 9.62351 26.1054 26.7908 0.838673 7.52027 70.4648
4486152 7.98031 9.62351 26.0955 26.7616 0.819343 7.50486 70.461
4486173 7.99793 9.6143 26.066 26.7519 0.817201 7.498 70.4301
4486180 7.99793 9.6143 26.066 26.7519 0.817201 7.498 70.4301
4486190 7.99793 9.64193 25.9873 26.7811 0.865608 7.48389 70.4082
4486200 7.9715 9.70639 26.0562 26.7226 0.852072 7.47287 70.4567
4486211 7.9715 9.70639 26.0562 26.7226 0.852072 7.47287 70.4567
4486220 8.00674 9.73402 26.0266 26.7519 0.869447 7.4528 70.5193
4486230 8.00674 9.73402 26.0266 26.7519 0.869447 7.4528 70.5193
4486240 7.98031 9.72481 25.9971 26.6837 0.863475 7.45369 70.3859
4486250 8.01554 9.73402 26.066 26.7032 0.835106 7.449 70.5187
4486270 7.98912 9.73402 26.0168 26.7032 0.862846 7.45214 70.4431
4486282 8.05078 9.75244 26.0069 26.6739 0.84013 7.42245 70.4841
4486291 8.05078 9.75244 26.0069 26.6739 0.84013 7.42245 70.4841
4486305 8.03316 9.72481 26.0365 26.6934 0.832975 7.44212 70.4879
4486311 7.98912 9.73402 25.9676 26.6739 0.87091 7.44373 70.3646
4486321 7.98912 9.73402 25.9676 26.6739 0.87091 7.44373 70.3646
4486338 8.03316 9.73402 25.9971 26.596 0.817132 7.42448 70.3603
4486341 8.03316 9.73402 25.9971 26.596 0.817132 7.42448 70.3603
4486352 8.00674 9.82611 25.9577 26.6155 0.87958 7.40143 70.4061
4486362 8.09482 9.8169 25.9479 26.557 0.827652 7.36897 70.4166
4486372 8.09482 9.8169 25.9479 26.557 0.827652 7.36897 70.4166
4486384 8.13886 9.79848 25.9282 26.557 0.812396 7.3587 70.4226
4486392 8.12124 9.86295 25.8593 26.4986 0.846216 7.32997 70.342
4486412 8.16529 9.85374 25.8199 26.5862 0.871414 7.32419 70.4252
4486422 8.16529 9.85374 25.8199 26.5862 0.871414 7.32419 70.4252
4486434 8.20933 9.90899 25.751 26.5278 0.879458 7.27881 70.3971
4486443 8.27098 9.94583 25.8002 26.5473 0.858045 7.25523 70.5643
4486460 8.27098 9.94583 25.8002 26.5473 0.858045 7.25523 70.5643
4486464 8.27098 9.87216 25.751 26.4206 0.807363 7.25918 70.3148
4486473 8.31503 9.9182 25.7215 26.4401 0.824568 7.22959 70.3948
4486484 8.31503 9.9182 25.7215 26.4401 0.824568 7.22959 70.3948
4486494 8.35907 9.92741 25.7609 26.3817 0.777078 7.21068 70.429
4486505 8.35907 9.92741 25.7609 26.3817 0.777078 7.21068 70.429
4486515 8.29741 9.84453 25.7116 26.4304 0.805965 7.2563 70.284
4486526 8.30622 9.85374 25.7116 26.4011 0.795838 7.24737 70.2727
4486535 8.30622 9.85374 25.7116 26.4011 0.795838 7.24737 70.2727
4486552 8.33264 9.90899 25.6723 26.3914 0.816259 7.21611 70.3053
4486555 8.27979 9.89057 25.7707 26.4986 0.830019 7.2613 70.4396
4486579 8.35026 9.86295 25.8298 26.4401 0.75303 7.24784 70.4831
4486585 8.35026 9.86295 25.8298 26.4401 0.75303 7.24784 70.4831
4486595 8.26218 9.88136 25.7707 26.4888 0.829974 7.26871 70.4031
4486606 8.27979 9.86295 25.879 26.5083 0.784233 7.28297 70.53
4486615 8.27979 9.86295 25.879 26.5083 0.784233 7.28297 70.53
4486631 8.22694 9.80769 25.8298 26.4791 0.792569 7.30861 70.3435
4486635 8.2886 9.76165 25.879 26.4888 0.739473 7.3101 70.4181
4486645 8.2886 9.76165 25.879 26.4888 0.739473 7.3101 70.4181
4486664 8.20052 9.76165 25.9085 26.557 0.784364 7.34868 70.4277
4486666 8.20052 9.76165 25.9085 26.557 0.784364 7.34868 70.4277
4486683 8.15648 9.72481 25.8987 26.5473 0.788084 7.37225 70.3272
4486686 8.15648 9.74323 25.9577 26.4206 0.729123 7.35905 70.2781
4486706 8.12124 9.79848 25.9577 26.4693 0.777876 7.35798 70.3468
4486717 8.1829 9.82611 25.879 26.4109 0.773525 7.31467 70.2989
4486736 8.13886 9.74323 25.9085 26.4986 0.780499 7.36778 70.2892
4486746 8.13886 9.74323 25.9085 26.4986 0.780499 7.36778 70.2892
4486756 8.13886 9.77086 25.938 26.4888 0.775835 7.36114 70.3366
4486767 8.12124 9.77086 25.9479 26.5083 0.78539 7.36992 70.3483
4486776 8.12124 9.77086 25.9479 26.5083 0.78539 7.36992 70.3483
4486794 8.14767 9.80769 25.9479 26.4986 0.785029 7.34877 70.4018
4486796 8.19171 9.75244 25.9971 26.5278 0.741962 7.36084 70.469
4486806 8.19171 9.75244 25.9971 26.5278 0.741962 7.36084 70.469
4486821 8.15648 9.82611 26.0069 26.4596 0.753126 7.34231 70.4491
4486827 8.15648 9.82611 26.0069 26.4596 0.753126 7.34231 70.4491
4486847 8.1829 9.80769 25.9873 26.4791 0.75103 7.33975 70.4569
4486849 8.17409 9.86295 26.0266 26.3817 0.725341 7.31871 70.4453
4486860 8.17409 9.86295 26.0266 26.3817 0.725341 7.31871 70.4453
4486874 8.14767 9.84453 26.0168 26.333 0.715441 7.32654 70.3419
4486877 8.24456 9.83532 25.9971 26.255 0.65712 7.28806 70.332
4486887 8.24456 9.83532 25.9971 26.255 0.65712 7.28806 70.332
4486901 8.24456 9.84453 25.9971 26.3037 0.67715 7.29048 70.3899
4486907 8.24456 9.84453 25.9971 26.3037 0.67715 7.29048 70.3899
4486917 8.24456 9.86295 26.0069 26.3622 0.700092 7.29212 70.4766
4486928 8.31503 9.90899 25.9971 26.2648 0.660279 7.24355 70.4859
4486939 8.31503 9.90899 25.9971 26.2648 0.660279 7.24355 70.4859
4486952 8.32383 9.89978 25.9479 26.2453 0.665089 7.2361 70.4168
4486960 8.2886 9.93662 25.9085 26.1771 0.681469 7.22372 70.3108
4486969 8.2886 9.93662 25.9085 26.1771 0.681469 7.22372 70.3108
4486987 8.38549 9.96425 25.8298 26.1284 0.667548 7.17026 70.3079
4486989 8.38549 9.96425 25.8298 26.1284 0.667548 7.17026 70.3079
4487002 8.38549 9.95504 25.8199 26.1186 0.664583 7.17099 70.2791
4487010 8.42073 10.0195 25.7904 26.0991 0.678065 7.1341 70.3298
4487026 8.42073 10.0195 25.7904 26.0991 0.678065 7.1341 70.3298
4487030 8.42073 10.0748 25.7805 26.0309 0.677183 7.10797 70.307
4487040 8.46477 10.1024 25.8101 26.0504 0.66663 7.09097 70.4277
4487050 8.46477 10.1024 25.8101 26.0504 0.66663 7.09097 70.4277
4487066 8.45596 10.1116 25.7609 26.0212 0.680876 7.08202 70.3496
4487073 8.45596 10.1116 25.7609 26.0212 0.680876 7.08202 70.3496
4487080 8.48238 10.1576 25.692 25.9627 0.692105 7.04491 70.2947
4487096 8.50881 10.1668 25.7412 25.9822 0.674406 7.04152 70.3991
4487100 8.50881 10.1668 25.7412 25.9822 0.674406 7.04152 70.3991
4487111 8.54404 10.1576 25.6821 26.0309 0.69674 7.0322 70.4147
4487121 8.42953 10.13 25.7707 26.0017 0.686562 7.08345 70.332
4487134 8.42953 10.13 25.7707 26.0017 0.686562 7.08345 70.332
4487141 8.50881 10.1761 25.7707 25.992 0.670189 7.04308 70.4475
4487151 8.48238 10.1853 25.6821 26.0602 0.738868 7.04616 70.4099
4487166 8.48238 10.1853 25.6821 26.0602 0.738868 7.04616 70.4099
4487172 8.48238 10.1024 25.7018 26.0309 0.692981 7.07106 70.3175
4487182 8.48238 10.1024 25.7018 26.0309 0.692981 7.07106 70.3175
4487194 8.43834 10.084 25.7116 26.0309 0.699115 7.09179 70.2649
4487204 8.42953 10.0655 25.7215 26.0699 0.705841 7.10584 70.2865
4487214 8.42953 10.0655 25.7215 26.0699 0.705841 7.10584 70.2865
4487224 8.41192 10.0655 25.7707 26.0602 0.690925 7.11581 70.3083
4487237 8.42953 10.084 25.7707 26.0115 0.674009 7.09902 70.2957
4487244 8.42953 10.084 25.7707 26.0115 0.674009 7.09902 70.2957
4487258 8.45596 10.0471 25.751 26.0504 0.672281 7.10445 70.3045
4487264 8.44715 10.0379 25.7707 26.0991 0.681978 7.11779 70.3549
4487280 8.44715 10.0379 25.7707 26.0991 0.681978 7.11779 70.3549
4487285 8.43834 10.0379 25.8396 26.1381 0.673518 7.13262 70.454
4487295 8.43834 10.0379 25.8396 26.1381 0.673518 7.13262 70.454
4487305 8.3943 10.0287 25.8101 26.1576 0.703901 7.14824 70.3907
4487315 8.36788 9.99187 25.8396 26.1966 0.703505 7.17579 70.3959
4487325 8.36788 9.99187 25.8396 26.1966 0.703505 7.17579 70.3959
4487337 8.35907 10.0379 25.8396 26.2258 0.732672 7.16732 70.4624
4487347 8.37668 9.97346 25.8199 26.1673 0.691023 7.17338 70.3374
4487355 8.37668 9.97346 25.8199 26.1673 0.691023 7.17338 70.3374
4487368 8.29741 9.96425 25.8002 26.2648 0.757664 7.20993 70.3266
4487376 8.29741 9.96425 25.8002 26.2648 0.757664 7.20993 70.3266
4487390 8.32383 9.99187 25.8101 26.2258 0.74048 7.18964 70.3516
4487396 8.37668 10.0103 25.8494 26.216 0.709772 7.17048 70.4525
4487417 8.37668 10.0103 25.8494 26.216 0.709772 7.17048 70.4525
4487419 8.32383 10.0103 25.8298 26.1284 0.706002 7.17519 70.2923
4487426 8.34145 10.0471 25.7805 26.1381 0.733653 7.15362 70.3072
4487446 8.34145 10.0471 25.7805 26.1381 0.733653 7.15362 70.3072
4487448 8.37668 10.084 25.8298 26.1673 0.725561 7.13969 70.4577
4487456 8.37668 10.084 25.8298 26.1673 0.725561 7.13969 70.4577
4487472 8.35907 9.98267 25.8298 26.1771 0.700411 7.17821 70.3486
4487485 8.3943 10.0103 25.7805 26.0699 0.678018 7.14095 70.2551
4487487 8.3943 10.0103 25.7805 26.0699 0.678018 7.14095 70.2551
4487496 8.42953 10.0471 25.7116 26.0309 0.68959 7.10616 70.2192
4487507 8.38549 10.084 25.7412 26.0407 0.711018 7.11284 70.2513
4487518 8.38549 10.084 25.7412 26.0407 0.711018 7.11284 70.2513
4487527 8.41192 10.0932 25.7313 26.0309 0.704762 7.09942 70.2674
4487544 8.41192 10.0932 25.7313 26.0309 0.704762 7.09942 70.2674
4487548 8.40311 10.0748 25.7313 26.0212 0.698248 7.10689 70.2304
4487559 8.43834 10.1761 25.8101 26.0212 0.691611 7.07287 70.4457
4487568 8.43834 10.1761 25.8101 26.0212 0.691611 7.07287 70.4457
4487577 8.41192 10.1576 25.7609 26.0212 0.712872 7.08139 70.3516
4487594 8.46477 10.2037 25.7313 25.9822 0.706798 7.04266 70.382
4487602 8.46477 10.2037 25.7313 25.9822 0.706798 7.04266 70.382
4487617 8.52642 10.2497 25.7313 26.0115 0.710249 7.01229 70.5189
4487619 8.52642 10.2497 25.7313 26.0115 0.710249 7.01229 70.5189
4487627 8.46477 10.1761 25.7215 26.0115 0.710943 7.0535 70.3738
4487643 8.48238 10.2589 25.8002 25.992 0.697646 7.02876 70.5335
4487649 8.48238 10.2589 25.8002 25.992 0.697646 7.02876 70.5335
4487666 8.47358 10.2313 25.7018 25.9238 0.703725 7.02129 70.3305
4487669 8.49119 10.1945 25.6821 25.8848 0.678262 7.02065 70.2526
4487691 8.44715 10.2129 25.7018 25.914 0.703648 7.03423 70.2759
4487700 8.44715 10.2129 25.7018 25.914 0.703648 7.03423 70.2759
4487714 8.42073 10.2313 25.7116 25.953 0.729537 7.04227 70.3167
4487720 8.44715 10.2129 25.692 25.992 0.734168 7.04194 70.344
4487740 8.43834 10.1761 25.7313 25.914 0.683331 7.0519 70.2598
4487750 8.37668 10.2313 25.7313 25.8751 0.711527 7.0495 70.2144
4487763 8.37668 10.2313 25.7313 25.8751 0.711527 7.0495 70.2144
4487770 8.40311 10.1668 25.7412 25.9433 0.699541 7.07027 70.2544
4487784 8.40311 10.1668 25.7412 25.9433 0.699541 7.07027 70.2544
4487790 8.37668 10.1853 25.7609 25.9822 0.721839 7.0794 70.305
4487800 8.37668 10.1761 25.7904 26.0212 0.721312 7.08999 70.3643
4487810 8.37668 10.1761 25.7904 26.0212 0.721312 7.08999 70.3643
4487820 8.44715 10.2589 25.8101 26.0017 0.710258 7.04198 70.5179
4487831 8.45596 10.2589 25.7609 26.0115 0.728354 7.03477 70.4872
4487856 8.42073 10.2497 25.8101 25.9822 0.710005 7.05092 70.4628
4487871 8.3943 10.305 25.7412 25.9433 0.750452 7.02971 70.3837
4487882 8.42953 10.2497 25.6526 25.9627 0.757658 7.02815 70.2946
4487890 8.42953 10.2497 25.6526 25.9627 0.757658 7.02815 70.2946
4487900 8.46477 10.2681 25.6034 25.9335 0.759056 7.00243 70.2698
4487911 8.42073 10.3234 25.6034 25.9725 0.80767 7.00336 70.32
4487921 8.42073 10.3234 25.6034 25.9725 0.80767 7.00336 70.32
4487932 8.44715 10.3694 25.6329 25.9822 0.806332 6.98518 70.4317
4487941 8.44715 10.3694 25.6329 25.9822 0.806332 6.98518 70.4317
4487955 8.42073 10.3418 25.5541 25.953 0.825378 6.98977 70.2697
4487961 8.49119 10.3326 25.4951 25.9822 0.828072 6.96721 70.3011
4487972 8.49119 10.3326 25.4951 25.9822 0.828072 6.96721 70.3011
4487982 8.43834 10.3602 25.5738 25.9822 0.828055 6.98408 70.3546
4487991 8.51762 10.351 25.5541 26.0504 0.826451 6.96774 70.4732
4488003 8.51762 10.351 25.5541 26.0504 0.826451 6.96774 70.4732
4488011 8.42073 10.3602 25.6034 25.9627 0.816983 6.99073 70.3471
4488032 8.47358 10.3787 25.6132 25.914 0.783581 6.96404 70.3795
4488045 8.5 10.4063 25.5837 25.9725 0.814301 6.95049 70.4624
4488051 8.5 10.4063 25.5837 25.9725 0.814301 6.95049 70.4624
4488062 8.5 10.3602 25.5935 25.8361 0.747913 6.95037 70.2899
4488073 8.49119 10.3602 25.6624 25.9335 0.759485 6.97212 70.4474
