8648767 10.8078 12.4139 19.7464 16.4099 -0.728567 3.26753 59.3779
8648776 10.8254 12.4231 19.7858 16.4194 -0.743729 3.26894 59.4536
8648796 10.843 12.3954 19.6972 16.4479 -0.714336 3.26015 59.3835
8648816 10.887 12.4047 19.7169 16.3527 -0.777651 3.22885 59.3613
8648830 10.8959 12.4139 19.7661 16.4289 -0.764294 3.24812 59.5047
8648836 10.8959 12.4139 19.7661 16.4289 -0.764294 3.24812 59.5047
8648846 10.8342 12.4507 19.7365 16.3813 -0.731756 3.24049 59.4027
8648856 10.9311 12.4139 19.7464 16.4003 -0.782996 3.22778 59.4917
8648867 10.9311 12.4139 19.7464 16.4003 -0.782996 3.22778 59.4917
8648877 10.9487 12.4139 19.7661 16.4194 -0.789922 3.23005 59.548
8648888 10.9487 12.4139 19.7661 16.4194 -0.789922 3.23005 59.548
8648896 10.8518 12.4139 19.7759 16.4003 -0.762731 3.25794 59.4419
8648916 10.8782 12.3954 19.7858 16.3718 -0.797881 3.25179 59.4312
8648919 10.8782 12.3954 19.7858 16.3718 -0.797881 3.25179 59.4312
8648926 10.9311 12.4231 19.7858 16.3718 -0.807399 3.22711 59.5117
8648936 10.9487 12.3678 19.7562 16.3623 -0.830674 3.23091 59.435
8648946 10.9487 12.3678 19.7562 16.3623 -0.830674 3.23091 59.435
8648956 10.8694 12.4231 19.8054 16.3813 -0.786199 3.25178 59.4792
8648978 10.8518 12.3678 19.7661 16.4479 -0.758044 3.27955 59.4336
8648987 10.8606 12.3954 19.9137 16.4099 -0.82622 3.28993 59.5796
8648999 10.8606 12.3954 19.9137 16.4099 -0.82622 3.28993 59.5796
8649008 10.8518 12.4231 19.8743 16.4194 -0.790565 3.27828 59.5686
8649018 10.8166 12.3494 19.8743 16.486 -0.779286 3.32484 59.5263
8649027 10.8166 12.3494 19.8743 16.486 -0.779286 3.32484 59.5263
8649039 10.887 12.3586 19.9137 16.4384 -0.840528 3.29873 59.5978
8649048 10.887 12.3586 19.9137 16.4384 -0.840528 3.29873 59.5978
8649059 10.8078 12.3862 19.8743 16.4099 -0.792736 3.30126 59.4782
8649068 10.8078 12.331 19.8842 16.486 -0.787686 3.33516 59.5089
8649081 10.8078 12.331 19.8842 16.486 -0.787686 3.33516 59.5089
8649087 10.8166 12.3402 19.9236 16.3623 -0.857 3.31304 59.4426
8649098 10.7813 12.3126 19.8645 16.3908 -0.818236 3.32643 59.3492
8649120 10.7725 12.2941 19.894 16.3718 -0.84298 3.3369 59.3325
8649129 10.7725 12.2941 19.894 16.3718 -0.84298 3.3369 59.3325
8649140 10.7461 12.3494 19.8547 16.3813 -0.787978 3.32213 59.3315
8649147 10.8078 12.2849 19.9826 16.4955 -0.843507 3.37047 59.5709
8649158 10.8078 12.2849 19.9826 16.4955 -0.843507 3.37047 59.5709
8649168 10.8254 12.2665 19.9925 16.4765 -0.870895 3.36892 59.5609
8649188 10.7461 12.3034 19.9039 16.486 -0.782576 3.36656 59.4394
8649198 10.8078 12.3126 19.9433 16.3908 -0.861011 3.33375 59.4544
8649219 10.799 12.2849 19.8547 16.4289 -0.816861 3.33507 59.3675
8649229 10.8694 12.3034 19.8448 16.4955 -0.804599 3.31882 59.5131
8649239 10.8694 12.3034 19.8448 16.4955 -0.804599 3.31882 59.5131
8649249 10.8518 12.2849 19.8547 16.3908 -0.854935 3.31127 59.3822
8649259 10.8518 12.2849 19.8547 16.3908 -0.854935 3.31127 59.3822
8649269 10.8166 12.3402 19.7858 16.4289 -0.77194 3.29903 59.3714
8649280 10.843 12.3402 19.894 16.467 -0.810273 3.31967 59.5442
8649290 10.843 12.3402 19.894 16.467 -0.810273 3.31967 59.5442
8649301 10.8606 12.4139 19.8547 16.4289 -0.786008 3.2764 59.558
8649309 10.8166 12.3494 19.7464 16.4194 -0.755998 3.28655 59.3317
8649323 10.8166 12.3494 19.7464 16.4194 -0.755998 3.28655 59.3317
8649329 10.887 12.4139 19.835 16.4289 -0.788747 3.26442 59.5648
8649339 10.887 12.4139 19.835 16.4289 -0.788747 3.26442 59.5648
8649349 10.9311 12.3862 19.7464 16.3718 -0.807366 3.2306 59.4355
8649359 10.8959 12.3494 19.6972 16.4003 -0.776538 3.24865 59.3428
8649379 10.8959 12.4323 19.7562 16.3813 -0.772923 3.23112 59.4657
8649389 10.8959 12.4231 19.7562 16.3718 -0.781043 3.23206 59.4469
8649400 10.8959 12.4231 19.7562 16.3718 -0.781043 3.23206 59.4469
8649411 10.8694 12.4783 19.7267 16.4003 -0.721928 3.22303 59.4748
8649420 10.8694 12.4783 19.7267 16.4003 -0.721928 3.22303 59.4748
8649431 10.9223 12.4691 19.7267 16.3813 -0.7557 3.2059 59.4994
8649440 10.9135 12.506 19.6873 16.3623 -0.728351 3.18573 59.469
8649451 10.9135 12.506 19.6873 16.3623 -0.728351 3.18573 59.469
8649460 10.8694 12.4875 19.6972 16.3908 -0.709999 3.21247 59.4449
8649472 10.8342 12.4599 19.6283 16.3432 -0.699949 3.20862 59.2656
8649480 10.8342 12.4599 19.6283 16.3432 -0.699949 3.20862 59.2656
8649493 10.9311 12.4783 19.6873 16.3908 -0.735137 3.19446 59.4876
8649501 10.9311 12.4783 19.6873 16.3908 -0.735137 3.19446 59.4876
8649514 10.9047 12.5152 19.6873 16.3718 -0.716653 3.1875 59.4789
8649520 10.8959 12.5152 19.6775 16.3908 -0.700808 3.19202 59.4793
8649530 10.8959 12.5152 19.6775 16.3908 -0.700808 3.19202 59.4793
8649540 10.9751 12.5888 19.6381 16.3147 -0.718167 3.12235 59.5167
8649557 10.9575 12.4875 19.6184 16.2956 -0.755046 3.15091 59.3591
8649571 10.9751 12.552 19.6479 16.2385 -0.771099 3.12033 59.4136
8649581 10.9751 12.552 19.6479 16.2385 -0.771099 3.12033 59.4136
8649591 10.9311 12.552 19.5495 16.2195 -0.721116 3.11024 59.2521
8649603 10.9751 12.5336 19.5692 16.3052 -0.718045 3.12352 59.3831
8649611 10.9751 12.5336 19.5692 16.3052 -0.718045 3.12352 59.3831
8649621 10.9575 12.5428 19.5987 16.2576 -0.739551 3.12248 59.3566
8649631 10.9839 12.5336 19.5397 16.2766 -0.721942 3.10921 59.3338
8649642 10.9839 12.5336 19.5397 16.2766 -0.721942 3.10921 59.3338
8649651 11.0456 12.5796 19.6184 16.1909 -0.796443 3.07501 59.4346
8649671 10.9927 12.552 19.5298 16.248 -0.725912 3.0932 59.3226
8649685 11.0456 12.6165 19.5495 16.229 -0.735873 3.05762 59.4406
8649691 11.0456 12.6165 19.5495 16.229 -0.735873 3.05762 59.4406
8649701 11.0456 12.6533 19.5101 16.2004 -0.716206 3.03277 59.4095
8649713 11.0632 12.6257 19.5495 16.21 -0.74732 3.04565 59.4484
8649722 11.0632 12.6257 19.5495 16.21 -0.74732 3.04565 59.4484
8649732 11.0456 12.6717 19.5101 16.1814 -0.716475 3.02334 59.4089
8649742 11.0456 12.6717 19.5101 16.1814 -0.716475 3.02334 59.4089
8649752 11.028 12.5981 19.5003 16.1909 -0.733046 3.05101 59.3172
8649763 11.0544 12.6441 19.52 16.2861 -0.690775 3.0521 59.5046
8649773 11.0544 12.6441 19.52 16.2861 -0.690775 3.0521 59.5046
8649783 11.0016 12.6901 19.5003 16.229 -0.665885 3.03872 59.421
8649795 11.0456 12.6073 19.4412 16.2766 -0.674984 3.04821 59.3707
8649803 11.0456 12.6073 19.4412 16.2766 -0.674984 3.04821 59.3707
8649816 11.0456 12.6625 19.4904 16.2671 -0.675368 3.03942 59.4656
8649823 11.0456 12.6625 19.4904 16.2671 -0.675368 3.03942 59.4656
8649833 11.0544 12.6257 19.5692 16.2671 -0.727046 3.06375 59.5163
8649842 11.0808 12.6533 19.579 16.229 -0.746344 3.04169 59.5422
8649852 11.0808 12.6533 19.579 16.229 -0.746344 3.04169 59.5422
8649862 11.028 12.727 19.579 16.229 -0.692977 3.03538 59.563
8649874 11.028 12.727 19.5397 16.229 -0.676899 3.02746 59.5236
8649882 10.9927 12.6257 19.5397 16.2195 -0.710389 3.067 59.3776
8649893 11.0104 12.6625 19.579 16.2766 -0.693068 3.06981 59.5285
8649902 11.0104 12.6625 19.579 16.2766 -0.693068 3.06981 59.5285
8649914 11.0632 12.6901 19.5101 16.1529 -0.728063 3.00665 59.4163
8649923 11.0544 12.6809 19.5003 16.1053 -0.74506 3.00052 59.3409
8649944 11.0456 12.6533 19.4412 16.1624 -0.704503 3.01118 59.3025
8649954 11.0456 12.6533 19.4412 16.1624 -0.704503 3.01118 59.3025
8649964 11.0368 12.6625 19.4412 16.1719 -0.692777 3.01298 59.3124
8649974 11.0544 12.6994 19.4806 16.1529 -0.708401 3.00057 59.3872
8649984 11.0544 12.6994 19.4806 16.1529 -0.708401 3.00057 59.3872
8649994 11.0456 12.6717 19.4904 16.1719 -0.712544 3.01745 59.3797
8650004 11.0984 12.6994 19.5003 16.1814 -0.722088 2.99698 59.4795
8650015 11.0984 12.6994 19.5003 16.1814 -0.722088 2.99698 59.4795
8650024 11.1073 12.7546 19.5101 16.1909 -0.701718 2.98152 59.5629
8650044 11.0984 12.7086 19.4609 16.1433 -0.718494 2.97854 59.4113
8650054 11.1601 12.7178 19.4412 16.1433 -0.73165 2.95313 59.4624
8650064 11.1601 12.7178 19.4412 16.1433 -0.73165 2.95313 59.4624
8650074 11.1161 12.7638 19.3822 16.0862 -0.694285 2.92894 59.3483
8650084 11.1337 12.773 19.3526 16.0101 -0.718419 2.89931 59.2694
8650094 11.1337 12.773 19.3526 16.0101 -0.718419 2.89931 59.2694
8650106 11.2218 12.8467 19.3625 15.991 -0.73479 2.84871 59.422
8650125 11.1953 12.7914 19.3625 16.0101 -0.739689 2.87717 59.3593
8650135 11.213 12.8467 19.3526 16.0291 -0.710689 2.85713 59.4414
8650146 11.213 12.8467 19.3526 16.0291 -0.710689 2.85713 59.4414
8650156 11.1953 12.7914 19.2936 15.9054 -0.756979 2.84161 59.1857
8650166 11.213 12.8191 19.3625 16.0101 -0.734912 2.86355 59.4046
8650197 11.2746 12.8835 19.2837 15.8768 -0.757767 2.78219 59.3187
8650199 11.2218 12.9112 19.3329 15.8863 -0.740162 2.80184 59.3522
8650217 11.2746 12.9664 19.2542 15.8863 -0.70563 2.75326 59.3816
8650226 11.2746 12.9664 19.2542 15.8863 -0.70563 2.75326 59.3816
8650238 11.257 12.9019 19.264 15.8863 -0.730386 2.77986 59.3093
8650246 11.3098 12.9664 19.2739 15.8387 -0.748695 2.73697 59.3889
8650258 11.3098 12.9664 19.2739 15.8387 -0.748695 2.73697 59.3889
8650268 11.2922 12.9572 19.2739 15.8197 -0.753753 2.74105 59.343
8650280 11.2746 13.0125 19.264 15.9054 -0.681515 2.74546 59.4565
8650301 11.257 12.948 19.3133 15.9054 -0.722307 2.78012 59.4236
8650308 11.257 12.948 19.3133 15.9054 -0.722307 2.78012 59.4236
8650322 11.2746 12.9204 19.2936 15.8387 -0.762329 2.76534 59.3273
8650329 11.2658 12.9664 19.2936 15.8863 -0.718127 2.76401 59.4121
8650342 11.2658 12.9664 19.2936 15.8863 -0.718127 2.76401 59.4121
8650349 11.2922 12.9756 19.2542 15.8863 -0.70885 2.74524 59.4084
8650363 11.2658 12.9388 19.2542 15.8673 -0.722243 2.76023 59.3261
8650369 11.2658 12.9388 19.2542 15.8673 -0.722243 2.76023 59.3261
8650379 11.2658 12.9296 19.3034 16.0101 -0.684589 2.80247 59.5089
8650399 11.2746 12.9112 19.3133 15.9244 -0.73721 2.78978 59.4234
8650409 11.2658 12.9112 19.3428 15.9339 -0.741546 2.80044 59.4537
8650419 11.2658 12.9112 19.3428 15.9339 -0.741546 2.80044 59.4537
8650429 11.2306 12.9112 19.2837 15.972 -0.686535 2.80669 59.3975
8650440 11.2218 12.9112 19.2739 15.953 -0.687131 2.8034 59.3598
8650450 11.2218 12.9112 19.2739 15.953 -0.687131 2.8034 59.3598
8650460 11.2218 12.8927 19.2444 15.9149 -0.699501 2.79502 59.2738
8650470 11.2218 12.8927 19.2444 15.9149 -0.699501 2.79502 59.2738
8650480 11.2482 12.7914 19.2837 15.953 -0.753888 2.83344 59.2763
8650490 11.213 12.8467 19.3625 16.0386 -0.710595 2.86108 59.4608
8650500 11.213 12.8467 19.3625 16.0386 -0.710595 2.86108 59.4608
8650511 11.2218 12.8375 19.3329 16.0101 -0.718468 2.84933 59.4023
8650520 11.1601 12.8467 19.3625 16.0291 -0.693102 2.87503 59.3984
8650540 11.1337 12.8283 19.392 16.1433 -0.653002 2.91779 59.4973
8650551 11.1337 12.8283 19.392 16.1433 -0.653002 2.91779 59.4973
8650560 11.0984 12.7914 19.3822 16.1529 -0.646326 2.93946 59.4249
8650572 11.0632 12.7638 19.4019 16.1814 -0.639555 2.96823 59.4103
8650581 11.0632 12.7638 19.4019 16.1814 -0.639555 2.96823 59.4103
8650594 11.028 12.7454 19.4708 16.1148 -0.690107 2.98493 59.3589
8650601 11.0104 12.727 19.4904 16.2004 -0.661883 3.01714 59.4282
8650614 11.0104 12.727 19.4904 16.2004 -0.661883 3.01714 59.4282
8650621 10.9223 12.7362 19.5495 16.229 -0.633694 3.05871 59.437
8650635 10.9223 12.7362 19.5495 16.229 -0.633694 3.05871 59.437
8650641 10.9135 12.6994 19.5397 16.2576 -0.62962 3.07635 59.41
8650657 10.8959 12.7454 19.6381 16.2766 -0.634682 3.09124 59.5559
8650662 10.8959 12.7454 19.6381 16.2766 -0.634682 3.09124 59.5559
8650671 10.887 12.727 19.6873 16.2004 -0.691971 3.09412 59.5018
8650682 10.887 12.6809 19.6184 16.2576 -0.659011 3.10578 59.444
8650691 10.887 12.6809 19.6184 16.2576 -0.659011 3.10578 59.444
8650701 10.887 12.7362 19.5987 16.248 -0.631221 3.08312 59.47
8650721 10.887 12.6625 19.5889 16.229 -0.667205 3.09976 59.3674
8650731 10.9135 12.7086 19.5397 16.1529 -0.670883 3.05249 59.3146
8650741 10.9135 12.7086 19.5397 16.1529 -0.670883 3.05249 59.3146
8650751 10.9135 12.6809 19.6381 16.1338 -0.731401 3.07687 59.3663
8650763 10.8782 12.6809 19.6381 16.1148 -0.725244 3.08379 59.3121
8650773 10.8782 12.6809 19.6381 16.1148 -0.725244 3.08379 59.3121
8650783 10.9487 12.6165 19.6578 16.1624 -0.769404 3.09546 59.3853
8650793 10.9487 12.6165 19.6578 16.1624 -0.769404 3.09546 59.3853
8650803 10.887 12.6257 19.6972 16.2004 -0.739805 3.12695 59.4103
8650818 10.9487 12.6349 19.7365 16.21 -0.772883 3.11512 59.5301
8650839 10.9399 12.6717 19.6873 16.1529 -0.758024 3.08533 59.4518
8650846 10.9487 12.6441 19.6676 16.1814 -0.753184 3.09283 59.4418
8650852 10.9487 12.6441 19.6676 16.1814 -0.753184 3.09283 59.4418
8650867 10.9311 12.6257 19.7464 16.1909 -0.781953 3.12146 59.4941
8650873 10.9311 12.6257 19.7464 16.1909 -0.781953 3.12146 59.4941
8650882 10.9575 12.6809 19.6972 16.1814 -0.752866 3.08486 59.517
8650892 10.9927 12.6165 19.6972 16.1053 -0.828195 3.07849 59.4116
8650903 10.9927 12.6165 19.6972 16.1053 -0.828195 3.07849 59.4116
8650912 10.9839 12.7638 19.6086 16.0196 -0.761715 3.00132 59.3759
8650926 11.028 12.7638 19.5397 15.9244 -0.792927 2.95472 59.2559
8650944 11.1161 12.7638 19.5003 15.9434 -0.804523 2.92393 59.3236
8650954 11.1161 12.7638 19.5003 15.9434 -0.804523 2.92393 59.3236
8650964 11.0984 12.8006 19.4708 15.9339 -0.7734 2.91017 59.3038
8650977 11.1425 12.8927 19.5101 15.9434 -0.763352 2.87912 59.4888
8650984 11.1425 12.8927 19.5101 15.9434 -0.763352 2.87912 59.4888
8650999 11.1865 12.8743 19.4806 15.8673 -0.81028 2.84985 59.4088
8651004 11.2041 12.9112 19.4806 15.8387 -0.813854 2.82765 59.4347
8651014 11.2041 12.9112 19.4806 15.8387 -0.813854 2.82765 59.4347
8651024 11.2218 12.9204 19.3822 15.8578 -0.768657 2.80333 59.3821
8651044 11.1865 12.9388 19.4117 15.7816 -0.791405 2.79879 59.3186
8651054 11.2041 12.9388 19.4412 15.8102 -0.798221 2.80544 59.3943
8651076 11.2922 12.994 19.3723 15.7816 -0.794442 2.74251 59.4402
8651086 11.257 13.0033 19.392 15.7245 -0.808915 2.74256 59.3768
8651098 11.257 13.0033 19.392 15.7245 -0.808915 2.74256 59.3768
8651105 11.2658 12.9756 19.392 15.7436 -0.816238 2.75211 59.377
8651115 11.2658 12.9756 19.392 15.7436 -0.816238 2.75211 59.377
8651125 11.2041 12.994 19.3625 15.7531 -0.766899 2.76092 59.3137
8651135 11.2482 13.0493 19.3822 15.8387 -0.731836 2.75295 59.5184
8651156 11.2834 13.0309 19.3428 15.8292 -0.742233 2.73787 59.4863
8651166 11.1953 13.0217 19.3625 15.7721 -0.743042 2.75922 59.3516
8651176 11.1953 13.0217 19.3625 15.7721 -0.743042 2.75922 59.3516
8651187 11.2482 13.0677 19.4117 15.8578 -0.727691 2.75745 59.5854
8651196 11.2482 13.0677 19.4117 15.8578 -0.727691 2.75745 59.5854
8651209 11.2041 12.948 19.3231 15.7721 -0.762539 2.77052 59.2474
8651216 11.1953 13.0033 19.392 15.8387 -0.734212 2.78453 59.4293
8651233 11.1953 13.0033 19.392 15.8387 -0.734212 2.78453 59.4293
8651236 11.2041 13.0677 19.3428 15.8007 -0.706276 2.74465 59.4153
8651246 11.2218 13.0769 19.3723 15.8102 -0.71744 2.74469 59.4812
8651266 11.2394 13.0861 19.3625 15.8578 -0.696078 2.74446 59.5458
8651276 11.2394 13.0861 19.3625 15.8578 -0.696078 2.74446 59.5458
8651288 11.1865 13.0493 19.3034 15.8387 -0.67445 2.75515 59.378
8651297 11.1777 13.0677 19.3822 15.8863 -0.674562 2.77828 59.5139
8651308 11.1777 13.0677 19.3822 15.8863 -0.674562 2.77828 59.5139
8651320 11.1953 13.0861 19.2739 15.8483 -0.645931 2.73738 59.4036
8651328 11.1865 13.1046 19.3133 15.8673 -0.642297 2.74656 59.4716
8651342 11.1865 13.1046 19.3133 15.8673 -0.642297 2.74656 59.4716
8651348 11.2041 13.1322 19.2936 15.8959 -0.617249 2.73489 59.5258
8651368 11.1777 13.0309 19.2148 15.8292 -0.64657 2.74303 59.2526
8651378 11.213 13.0217 19.2837 15.8578 -0.680928 2.75537 59.3761
8651390 11.213 13.0217 19.2837 15.8578 -0.680928 2.75537 59.3761
8651399 11.1953 13.0585 19.2345 15.7912 -0.666413 2.72569 59.2795
8651409 11.1513 13.0769 19.3723 15.8959 -0.651652 2.78335 59.4964
8651419 11.1513 13.0769 19.3723 15.8959 -0.651652 2.78335 59.4964
8651431 11.2394 13.169 19.1951 15.8007 -0.616468 2.6734 59.4042
8651439 11.2394 13.169 19.1951 15.8007 -0.616468 2.6734 59.4042
8651453 11.2306 13.1138 19.2247 15.8007 -0.648819 2.6986 59.3697
8651459 11.213 13.1138 19.2148 15.7912 -0.641663 2.69984 59.3327
8651480 11.213 13.123 19.2345 15.7721 -0.653993 2.69723 59.3426
8651489 11.1777 13.1138 19.2247 15.7626 -0.64358 2.70648 59.2787
8651499 11.1777 13.1138 19.2247 15.7626 -0.64358 2.70648 59.2787
8651509 11.2394 13.1506 19.2345 15.8578 -0.615942 2.69887 59.4823
8651530 11.1865 13.1046 19.264 15.8483 -0.630333 2.73248 59.4034
8651540 11.2922 13.123 19.2247 15.8102 -0.665992 2.67948 59.4501
8651550 11.2922 13.123 19.2247 15.8102 -0.665992 2.67948 59.4501
8651561 11.2658 13.1598 19.264 15.8007 -0.659506 2.68256 59.4903
8651570 11.2482 13.1414 19.205 15.8102 -0.63193 2.68302 59.4047
8651580 11.2482 13.1414 19.205 15.8102 -0.63193 2.68302 59.4047
8651590 11.2306 13.1138 19.205 15.715 -0.677803 2.67673 59.2643
8651601 11.2306 13.1138 19.205 15.715 -0.677803 2.67673 59.2643
8651610 11.213 13.123 19.2345 15.7912 -0.645764 2.70118 59.3616
8651620 11.213 13.1874 19.2936 15.7626 -0.654468 2.6883 59.4566
8651630 11.213 13.1874 19.2936 15.7626 -0.654468 2.6883 59.4566
8651640 11.2041 13.0861 19.3133 15.8102 -0.682116 2.73502 59.4137
8651650 11.1425 13.0493 19.3625 15.8387 -0.680602 2.78049 59.393
8651661 11.1425 13.0493 19.3625 15.8387 -0.680602 2.78049 59.393
8651670 11.1953 13.0401 19.392 15.8197 -0.726509 2.76959 59.4471
8651680 11.1953 13.0401 19.392 15.8197 -0.726509 2.76959 59.4471
8651690 11.1249 13.0769 19.3526 15.8578 -0.649191 2.77939 59.4122
8651703 11.1337 13.0033 19.4609 15.9625 -0.683701 2.84245 59.5603
8651711 11.1337 13.0033 19.4609 15.9625 -0.683701 2.84245 59.5603
8651721 11.1161 13.0217 19.4117 15.8863 -0.681303 2.81656 59.4358
8651731 11.1161 13.0769 19.3625 15.8768 -0.641403 2.78796 59.4323
8651741 11.1161 13.0769 19.3625 15.8768 -0.641403 2.78796 59.4323
8651751 11.0984 12.9756 19.4412 15.9339 -0.685509 2.85145 59.4492
8651761 11.0984 12.9756 19.4412 15.9339 -0.685509 2.85145 59.4492
8651771 11.0896 12.9572 19.392 15.8578 -0.702678 2.83396 59.2966
8651782 11.1161 12.9664 19.4117 15.9149 -0.692846 2.83899 59.4091
8651791 11.1161 12.9664 19.4117 15.9149 -0.692846 2.83899 59.4091
8651801 11.0896 12.9756 19.5397 15.9625 -0.709781 2.87999 59.5674
8651814 11.0632 12.9019 19.5495 15.9339 -0.747217 2.90628 59.4486
8651821 11.0632 12.9019 19.5495 15.9339 -0.747217 2.90628 59.4486
8651831 11.0456 12.9388 19.5594 15.9625 -0.715755 2.9083 59.5062
8651851 11.028 12.8835 19.5101 15.9434 -0.720598 2.91638 59.3651
8651863 11.0632 12.8927 19.4806 15.9625 -0.710694 2.90084 59.399
8651872 11.0632 12.8927 19.4806 15.9625 -0.710694 2.90084 59.399
8651883 11.0456 12.8743 19.5003 15.972 -0.715394 2.91765 59.3922
8651893 10.9487 12.8191 19.5987 16.0482 -0.706984 2.99904 59.4147
8651912 10.9927 12.8651 19.579 16.0482 -0.69703 2.9678 59.4851
8651923 10.9927 12.8651 19.579 16.0482 -0.69703 2.9678 59.4851
8651932 10.9311 12.8375 19.6086 16.0291 -0.704072 2.99694 59.4063
8651942 10.9311 12.7914 19.6381 16.1148 -0.699016 3.03411 59.4754
8651953 10.9311 12.7914 19.6381 16.1148 -0.699016 3.03411 59.4754
8651963 10.9311 12.7362 19.6381 16.1053 -0.727032 3.04897 59.4106
8651972 10.9311 12.7362 19.6381 16.1053 -0.727032 3.04897 59.4106
8651982 10.9047 12.7362 19.7169 16.1243 -0.740153 3.07663 59.482
8651992 10.9223 12.7362 19.707 16.2004 -0.71041 3.08456 59.5659
8652003 10.9223 12.7362 19.707 16.2004 -0.71041 3.08456 59.5659
8652014 10.8959 12.7178 19.6873 16.1529 -0.720118 3.08472 59.4538
8652024 10.8959 12.7178 19.6283 16.1624 -0.691859 3.07478 59.4043
8652044 10.9223 12.8006 19.5987 16.1719 -0.650685 3.03756 59.4935
8652054 10.9399 12.7914 19.5692 16.1433 -0.662102 3.02332 59.4439
8652065 10.9399 12.7914 19.5692 16.1433 -0.662102 3.02332 59.4439
8652074 10.9751 12.773 19.5594 16.1148 -0.692785 3.01048 59.4223
8652094 10.9399 12.8283 19.5594 16.0577 -0.679167 2.99288 59.3852
8652107 10.9751 12.8559 19.5298 16.1148 -0.644913 2.97943 59.4756
8652116 10.9751 12.8559 19.5298 16.1148 -0.644913 2.97943 59.4756
8652127 10.9223 12.8375 19.4806 16.0767 -0.627428 2.98334 59.3171
8652134 10.9223 12.8375 19.4806 16.0767 -0.627428 2.98334 59.3171
8652146 10.9575 12.8283 19.4708 16.1053 -0.6295 2.97925 59.3618
8652154 10.9399 12.9296 19.5101 16.0672 -0.611161 2.9542 59.4468
8652166 10.9399 12.9296 19.5101 16.0672 -0.611161 2.9542 59.4468
8652174 10.9311 12.8099 19.5101 16.0386 -0.671589 2.98732 59.2897
8652184 11.0016 12.8559 19.5101 16.0957 -0.655884 2.96361 59.4633
8652204 10.9575 12.9388 19.5298 16.0672 -0.622487 2.95009 59.4933
8652214 10.9575 12.9388 19.5298 16.0672 -0.622487 2.95009 59.4933
8652224 10.9575 12.8927 19.4511 16.0672 -0.610027 2.94803 59.3685
8652234 10.9399 12.9388 19.52 16.0482 -0.619434 2.94956 59.4468
8652255 10.9487 12.9204 19.3822 16.0957 -0.553842 2.93415 59.347
8652267 10.9399 12.8835 19.4215 16.0767 -0.590509 2.95208 59.3217
8652275 10.9399 12.8835 19.4215 16.0767 -0.590509 2.95208 59.3217
8652286 11.072 12.9019 19.3526 16.0101 -0.637306 2.87901 59.3367
8652306 10.9751 12.8927 19.4117 16.0862 -0.592875 2.93858 59.3658
8652315 10.9663 12.9204 19.5003 16.0101 -0.646566 2.93542 59.3971
8652326 10.9663 12.9204 19.5003 16.0101 -0.646566 2.93542 59.3971
8652335 10.9839 12.9112 19.4117 15.991 -0.629634 2.91098 59.2978
8652347 10.9575 12.8651 19.4904 16.0482 -0.646335 2.96051 59.3612
8652367 10.9839 12.9572 19.4708 16.0767 -0.597082 2.92652 59.4886
8652375 10.9839 12.9572 19.4708 16.0767 -0.597082 2.92652 59.4886
8652388 11.0192 12.9204 19.4904 16.0957 -0.627251 2.93486 59.5257
8652395 10.9751 12.9204 19.5495 16.0862 -0.637497 2.95817 59.5312
8652405 10.9751 12.9204 19.5495 16.0862 -0.637497 2.95817 59.5312
8652415 10.9839 12.8835 19.5692 16.0767 -0.669134 2.96869 59.5134
8652429 11.0104 12.8743 19.5003 16.0957 -0.647514 2.9534 59.4807
8652436 11.0104 12.8743 19.5003 16.0957 -0.647514 2.9534 59.4807
8652448 11.0016 12.8927 19.4806 16.0482 -0.648427 2.93686 59.423
8652456 11.0016 12.8927 19.4806 16.0482 -0.648427 2.93686 59.423
8652468 10.9575 12.8191 19.52 16.1053 -0.653666 2.99199 59.4018
8652476 10.9399 12.8099 19.5594 16.1243 -0.658336 3.01192 59.4334
8652489 10.9399 12.8099 19.5594 16.1243 -0.658336 3.01192 59.4334
8652496 10.9311 12.8467 19.5101 16.0862 -0.635083 2.98579 59.3741
8652508 10.887 12.7638 19.5495 16.0862 -0.669 3.03227 59.2866
8652531 10.8959 12.8191 19.579 16.1243 -0.644383 3.02645 59.4183
8652546 10.8959 12.7914 19.6086 16.1053 -0.676638 3.03695 59.4011
8652556 10.9311 12.773 19.5397 16.1243 -0.662573 3.02179 59.3681
8652566 10.9311 12.773 19.5397 16.1243 -0.662573 3.02179 59.3681
8652576 10.9751 12.8191 19.5298 16.1529 -0.644378 2.99826 59.4769
8652586 10.8782 12.8099 19.6184 16.1909 -0.62854 3.05591 59.4974
8652599 10.8782 12.8099 19.6184 16.1909 -0.62854 3.05591 59.4974
8652608 10.8959 12.8835 19.6184 16.1624 -0.616334 3.02251 59.5602
8652618 10.8959 12.8835 19.6184 16.1624 -0.616334 3.02251 59.5602
8652628 10.8782 12.7914 19.5397 16.1814 -0.60828 3.04376 59.3908
8652638 10.9135 12.8006 19.5003 16.1148 -0.631362 3.00888 59.3292
8652648 10.9135 12.8006 19.5003 16.1148 -0.631362 3.00888 59.3292
8652658 10.9663 12.8651 19.5101 16.1433 -0.616965 2.9811 59.4849
8652671 10.9223 12.8467 19.4904 16.1243 -0.606954 2.99218 59.3837
8652678 10.9223 12.8467 19.4904 16.1243 -0.606954 2.99218 59.3837
8652688 10.9751 12.8927 19.5003 16.1719 -0.59237 2.97387 59.5401
8652707 10.9399 12.8927 19.5101 16.0672 -0.627044 2.96533 59.41
8652719 10.9135 12.8835 19.4609 16.1433 -0.567126 2.98156 59.4013
8652728 10.9135 12.8835 19.4609 16.1433 -0.567126 2.98156 59.4013
8652739 10.9135 12.9388 19.4511 16.1148 -0.551589 2.95708 59.4181
8652756 10.9047 12.9019 19.5003 16.0767 -0.60046 2.97314 59.3836
8652763 10.9047 12.9019 19.5003 16.0767 -0.60046 2.97314 59.3836
8652769 10.9135 12.9296 19.4708 16.0386 -0.596444 2.94841 59.3524
8652779 10.9135 12.9296 19.4708 16.0386 -0.596444 2.94841 59.3524
8652789 10.8959 12.9112 19.4215 16.0482 -0.572772 2.95125 59.2767
8652799 10.9311 12.9756 19.4412 16.0862 -0.551228 2.93284 59.4342
8652810 10.9311 12.9756 19.4412 16.0862 -0.551228 2.93284 59.4342
8652819 10.9399 12.994 19.4117 16.0672 -0.542966 2.91476 59.4128
8652834 10.9663 13.0125 19.4904 16.0672 -0.578265 2.91725 59.5364
8652839 10.9663 13.0125 19.4904 16.0672 -0.578265 2.91725 59.5364
8652849 11.0192 13.0585 19.4511 16.0196 -0.584458 2.86985 59.5483
8652860 11.0192 13.0585 19.4511 16.0196 -0.584458 2.86985 59.5483
8652869 11.0544 13.0861 19.2345 15.9244 -0.538947 2.78714 59.2995
8652883 11.0632 13.1322 19.2739 15.8292 -0.579987 2.75919 59.2985
8652899 11.1249 13.1414 19.2345 15.8673 -0.56878 2.73772 59.3681
8652909 11.1777 13.1414 19.264 15.7816 -0.639579 2.71034 59.3648
8652919 11.1777 13.1414 19.264 15.7816 -0.639579 2.71034 59.3648
8652930 11.2041 13.2703 19.2148 15.7721 -0.578754 2.65192 59.4614
8652956 11.2218 13.1966 19.1361 15.6579 -0.634706 2.6284 59.2124
8652960 11.257 13.3164 19.1459 15.5913 -0.630279 2.57049 59.3105
8652970 11.257 13.3164 19.1459 15.5913 -0.630279 2.57049 59.3105
8652980 11.3098 13.3256 19.1361 15.5056 -0.681017 2.53207 59.2771
8652991 11.3098 13.3256 19.0278 15.5056 -0.636514 2.50926 59.1688
8653000 11.3451 13.2979 19.0278 15.5913 -0.625893 2.52507 59.2621
8653010 11.3451 13.3992 19.1656 15.5722 -0.646923 2.52013 59.4822
8653020 11.3451 13.3992 19.1656 15.5722 -0.646923 2.52013 59.4822
8653030 11.3275 13.3256 19.0869 15.5437 -0.651562 2.52452 59.2836
8653040 11.3363 13.3992 19.0967 15.5342 -0.63149 2.50024 59.3664
8653050 11.3363 13.3992 19.0967 15.5342 -0.63149 2.50024 59.3664
8653061 11.3451 13.4177 19.077 15.5817 -0.598554 2.49809 59.4215
8653070 11.3451 13.4177 19.077 15.5817 -0.598554 2.49809 59.4215
8653080 11.3187 13.4361 19.0278 15.5532 -0.571822 2.48407 59.3357
8653090 11.301 13.4453 19.1558 15.5246 -0.625508 2.50748 59.4267
8653100 11.301 13.4453 19.1558 15.5246 -0.625508 2.50748 59.4267
8653110 11.2834 13.4453 18.9983 15.5151 -0.557576 2.47747 59.2421
8653120 11.2834 13.4085 19.0967 15.6198 -0.56888 2.53112 59.4084
8653130 11.2834 13.4085 19.0967 15.6198 -0.56888 2.53112 59.4084
8653140 11.2746 13.39 19.1361 15.6484 -0.57708 2.5534 59.4491
8653150 11.2746 13.39 19.1361 15.6484 -0.57708 2.5534 59.4491
8653163 11.1601 13.3348 19.1853 15.734 -0.537151 2.63181 59.4142
8653173 11.1689 13.3348 19.2148 15.7721 -0.536571 2.64325 59.4906
8653181 11.1689 13.3348 19.2148 15.7721 -0.536571 2.64325 59.4906
8653191 11.072 13.2795 19.2148 15.7816 -0.516315 2.69046 59.348
8653201 11.0192 13.2519 19.3625 15.9339 -0.501877 2.77635 59.5675
8653211 11.0192 13.2519 19.3625 15.9339 -0.501877 2.77635 59.5675
8653221 11.028 13.2151 19.3625 15.953 -0.513121 2.78862 59.5585
8653231 11.028 13.2151 19.3625 15.953 -0.513121 2.78862 59.5585
8653241 10.9487 13.1782 19.3822 15.972 -0.496225 2.8313 59.4811
8653251 10.9487 13.0861 19.4609 16.0577 -0.531378 2.89247 59.5534
8653271 10.9487 13.0861 19.4412 16.0862 -0.51105 2.89427 59.5623
8653281 10.8166 13.0217 19.4904 16.0957 -0.500475 2.96543 59.4244
8653291 10.8166 13.0217 19.4904 16.0957 -0.500475 2.96543 59.4244
8653301 10.7902 12.948 19.5003 16.1909 -0.484407 3.01696 59.4294
8653321 10.7813 12.8467 19.4904 16.248 -0.495672 3.05992 59.3665
8653331 10.7549 12.8006 19.5692 16.2766 -0.524765 3.10352 59.4014
8653345 10.7549 12.8006 19.5692 16.2766 -0.524765 3.10352 59.4014
8653353 10.7285 12.7178 19.6381 16.3908 -0.528796 3.17342 59.4752
8653362 10.6845 12.6809 19.707 16.4384 -0.534406 3.22127 59.5108
8653386 10.6404 12.6901 19.835 16.4194 -0.573079 3.25346 59.5849
8653395 10.6404 12.6901 19.835 16.4194 -0.573079 3.25346 59.5849
8653405 10.5788 12.5981 19.8153 16.486 -0.550619 3.30991 59.4781
8653413 10.5699 12.6073 19.9137 16.5526 -0.554873 3.34214 59.6436
8653425 10.5699 12.6073 19.9137 16.5526 -0.554873 3.34214 59.6436
8653433 10.5699 12.5888 19.9137 16.5431 -0.566846 3.34595 59.6156
8653448 10.4907 12.5152 19.9629 16.5907 -0.565714 3.412 59.5595
8653454 10.4907 12.5152 19.9629 16.5907 -0.565714 3.412 59.5595
8653464 10.5523 12.5152 20.0023 16.6288 -0.590758 3.40802 59.6986
8653474 10.5523 12.5152 20.0023 16.6288 -0.590758 3.40802 59.6986
8653485 10.5171 12.3862 20.022 16.6002 -0.652088 3.45706 59.5256
8653495 10.4995 12.4323 20.0122 16.6097 -0.616927 3.44818 59.5537
8653504 10.4995 12.4323 20.0122 16.6097 -0.616927 3.44818 59.5537
8653519 10.4642 12.377 20.0318 16.486 -0.68779 3.45606 59.3591
8653525 10.4907 12.4047 20.0318 16.6097 -0.63327 3.46329 59.5369
8653535 10.4907 12.4047 20.0318 16.6097 -0.63327 3.46329 59.5369
8653545 10.5171 12.4415 20.0122 16.5717 -0.636558 3.43249 59.5424
8653555 10.5171 12.4415 20.0122 16.5717 -0.636558 3.43249 59.5424
8653567 10.4995 12.3402 20.0909 16.5241 -0.725812 3.47542 59.4547
8653575 10.4819 12.3402 20.15 16.5622 -0.726259 3.49969 59.5342
8653586 10.4819 12.3402 20.15 16.5622 -0.726259 3.49969 59.5342
8653595 10.4642 12.377 20.1303 16.5526 -0.699241 3.48807 59.5242
8653609 10.4642 12.3402 20.0909 16.5526 -0.69907 3.4919 59.448
8653615 10.4642 12.3402 20.0909 16.5526 -0.69907 3.4919 59.448
8653625 10.4554 12.3678 20.1008 16.5146 -0.704011 3.48058 59.4386
8653635 10.4554 12.3678 20.1008 16.5146 -0.704011 3.48058 59.4386
8653645 10.4026 12.3586 20.15 16.4955 -0.714746 3.50574 59.4067
8653655 10.4202 12.3126 20.2386 16.5431 -0.757416 3.54088 59.5145
8653665 10.4202 12.3126 20.2386 16.5431 -0.757416 3.54088 59.5145
8653677 10.4731 12.3126 20.2386 16.5907 -0.758345 3.53359 59.6149
8653685 10.385 12.3034 20.1992 16.6764 -0.673407 3.57278 59.5639
8653698 10.385 12.3034 20.1992 16.6764 -0.673407 3.57278 59.5639
8653705 10.4554 12.3034 20.2386 16.5717 -0.763391 3.53827 59.569
8653715 10.4554 12.3034 20.2386 16.5717 -0.763391 3.53827 59.569
8653725 10.3674 12.3678 20.209 16.5717 -0.68759 3.53994 59.5159
8653735 10.4026 12.3494 20.15 16.5336 -0.702257 3.51597 59.4356
8653745 10.4026 12.3494 20.15 16.5336 -0.702257 3.51597 59.4356
8653755 10.4026 12.3586 20.2386 16.5812 -0.713883 3.53935 59.581
8653765 10.4026 12.2941 20.2189 16.5717 -0.737824 3.55382 59.4873
8653775 10.4026 12.2941 20.2189 16.5717 -0.737824 3.55382 59.4873
8653785 10.4202 12.3126 20.2484 16.6478 -0.71619 3.56289 59.629
8653795 10.4202 12.3126 20.2484 16.6478 -0.71619 3.56289 59.629
8653806 10.385 12.2389 20.1893 16.6669 -0.701319 3.58918 59.4801
8653815 10.4114 12.2757 20.2386 16.6097 -0.740941 3.56792 59.5354
8653836 10.3938 12.2757 20.2779 16.6097 -0.749803 3.58097 59.5572
8653846 10.385 12.2297 20.2386 16.5717 -0.766593 3.58324 59.4249
8653856 10.385 12.2297 20.2386 16.5717 -0.766593 3.58324 59.4249
8653866 10.4026 12.2757 20.2681 16.5431 -0.778224 3.56354 59.4895
8653876 10.4026 12.2757 20.2681 16.5431 -0.778224 3.56354 59.4895
8653886 10.385 12.1836 20.2681 16.6669 -0.757338 3.62155 59.5036
8653896 10.3938 12.2941 20.2976 16.6193 -0.745745 3.58082 59.6048
8653907 10.3938 12.2941 20.2976 16.6193 -0.745745 3.58082 59.6048
8653916 10.4378 12.3218 20.209 16.5146 -0.76094 3.52133 59.4832
8653927 10.4378 12.3218 20.209 16.5146 -0.76094 3.52133 59.4832
8653936 10.4378 12.2389 20.2189 16.5526 -0.784369 3.5564 59.4482
8653947 10.4907 12.331 20.1598 16.5241 -0.754312 3.49435 59.5056
8653969 10.4995 12.3678 20.1106 16.467 -0.746612 3.45957 59.4449
8653976 10.4995 12.4231 20.0614 16.505 -0.686154 3.44027 59.489
8653990 10.4995 12.4231 20.0614 16.505 -0.686154 3.44027 59.489
8653997 10.5083 12.4415 20.0614 16.4384 -0.710584 3.41887 59.4496
8654015 10.5788 12.4415 20.0909 16.4384 -0.751373 3.40281 59.5496
8654025 10.5788 12.4323 20.0909 16.4289 -0.759475 3.4038 59.5308
8654036 10.6228 12.4599 20.022 16.3813 -0.757989 3.35892 59.486
8654037 10.6228 12.4599 20.022 16.3813 -0.757989 3.35892 59.486
8654051 10.5964 12.4415 20.0515 16.3337 -0.787871 3.36924 59.4231
8654059 10.6052 12.4507 20.0023 16.3908 -0.742643 3.36522 59.449
8654072 10.6052 12.4507 20.0023 16.3908 -0.742643 3.36522 59.449
8654079 10.6316 12.4783 20.0122 16.3718 -0.753713 3.34673 59.4939
8654089 10.6845 12.4967 19.9334 16.3432 -0.747542 3.30371 59.4578
8654099 10.6845 12.4967 19.9334 16.3432 -0.747542 3.30371 59.4578
8654113 10.7109 12.552 19.9137 16.3052 -0.742853 3.26722 59.4818
8654129 10.7461 12.5612 19.8645 16.2766 -0.745523 3.23821 59.4484
8654139 10.7637 12.5796 19.8743 16.248 -0.761113 3.22346 59.4658
8654149 10.7637 12.5796 19.8743 16.248 -0.761113 3.22346 59.4658
8654160 10.7813 12.5888 19.8251 16.229 -0.752485 3.2017 59.4243
8654169 10.7373 12.552 19.7858 16.2195 -0.738505 3.21681 59.2945
8654179 10.7373 12.552 19.7858 16.2195 -0.738505 3.21681 59.2945
8654189 10.7549 12.5981 19.7365 16.1814 -0.722107 3.17988 59.2709
8654200 10.7549 12.5981 19.7365 16.1814 -0.722107 3.17988 59.2709
8654209 10.7725 12.5981 19.7464 16.1433 -0.749886 3.16885 59.2603
8654221 10.8254 12.6533 19.7464 16.1814 -0.731003 3.14337 59.4065
8654230 10.8254 12.6533 19.7464 16.1814 -0.731003 3.14337 59.4065
8654243 10.9663 12.6994 19.6873 16.1719 -0.748593 3.07272 59.5249
8654250 10.9047 12.6901 19.6479 16.1529 -0.719588 3.08255 59.3956
8654260 10.9047 12.6901 19.6479 16.1529 -0.719588 3.08255 59.3956
8654270 10.9135 12.7362 19.6972 16.1624 -0.719248 3.07765 59.5092
8654280 10.9135 12.7362 19.6972 16.1624 -0.719248 3.07765 59.5092
8654290 10.8959 12.7086 19.6184 16.0862 -0.724797 3.0603 59.3091
8654300 11.028 12.7546 19.6381 16.1053 -0.758582 3.01401 59.5259
8654310 11.028 12.7546 19.6381 16.1053 -0.758582 3.01401 59.5259
8654320 10.9751 12.8006 19.6184 16.0577 -0.729677 3.00251 59.4519
8654340 10.9839 12.7362 19.6086 16.1053 -0.736555 3.02698 59.434
8654350 10.9575 12.7086 19.707 16.1624 -0.75316 3.07463 59.5355
8654360 10.9575 12.7086 19.707 16.1624 -0.75316 3.07463 59.5355
8654370 10.9663 12.7362 19.5495 16.1148 -0.701092 3.02234 59.3668
8654380 10.9839 12.7546 19.6086 16.0957 -0.732704 3.01948 59.4429
8654392 10.9839 12.7546 19.6086 16.0957 -0.732704 3.01948 59.4429
8654401 11.0016 12.7454 19.579 16.1053 -0.727704 3.0129 59.4313
8654413 10.9927 12.7454 19.5889 16.1433 -0.711656 3.02522 59.4704
8654421 10.9927 12.7454 19.5889 16.1433 -0.711656 3.02522 59.4704
8654435 10.9927 12.7546 19.5889 16.1148 -0.720024 3.01668 59.451
8654441 10.9927 12.7546 19.5889 16.1148 -0.720024 3.01668 59.451
8654451 10.9399 12.727 19.6381 16.0957 -0.738743 3.04718 59.4007
8654461 11.0632 12.7638 19.5889 16.1529 -0.72833 3.00024 59.5688
8654471 11.0632 12.7638 19.5889 16.1529 -0.72833 3.00024 59.5688
8654481 10.9575 12.7638 19.5987 16.1243 -0.701548 3.02847 59.4444
8654491 10.9575 12.7638 19.5987 16.1243 -0.701548 3.02847 59.4444
8654502 10.9399 12.7178 19.6676 16.0862 -0.758916 3.054 59.4115
8654511 10.9839 12.7454 19.6578 16.1624 -0.727949 3.04557 59.5495
8654521 10.9839 12.7454 19.6578 16.1624 -0.727949 3.04557 59.5495
8654532 10.8782 12.7086 19.707 16.2195 -0.696148 3.11015 59.5133
8654542 10.9223 12.6533 19.6578 16.21 -0.722031 3.10182 59.4433
8654563 10.8959 12.6533 19.6184 16.229 -0.68689 3.1058 59.3966
8654573 10.887 12.6349 19.6479 16.2385 -0.699221 3.12192 59.4084
8654594 10.9223 12.7086 19.6873 16.2861 -0.677353 3.10614 59.6043
8654613 10.9135 12.6901 19.6184 16.248 -0.669958 3.09303 59.4701
8654625 10.8254 12.6625 19.707 16.2576 -0.677988 3.14789 59.4525
8654646 10.843 12.6257 19.7365 16.3337 -0.680295 3.17479 59.5389
8654661 10.8694 12.6165 19.7267 16.3052 -0.703365 3.1619 59.5177
8654680 10.7637 12.6441 19.6775 16.3908 -0.591117 3.19299 59.4761
8654687 10.7637 12.6441 19.6775 16.3908 -0.591117 3.19299 59.4761
8654694 10.7725 12.5612 19.7365 16.3813 -0.658755 3.2255 59.4516
8654704 10.7109 12.5612 19.7661 16.467 -0.608674 3.26718 59.5051
8654728 10.6668 12.552 19.7759 16.5336 -0.569962 3.29859 59.5284
8654734 10.6492 12.5152 19.7858 16.5622 -0.570327 3.32289 59.5123
8654744 10.6492 12.5152 19.7858 16.5622 -0.570327 3.32289 59.5123
8654754 10.614 12.4599 19.8743 16.6288 -0.587325 3.38114 59.577
8654764 10.614 12.4599 19.8743 16.6288 -0.587325 3.38114 59.577
8654774 10.5876 12.4231 19.8547 16.5907 -0.60063 3.38941 59.456
8654784 10.5435 12.3586 19.8645 16.7144 -0.56109 3.44903 59.4811
8654805 10.5523 12.3586 19.9236 16.7049 -0.593033 3.45592 59.5394
8654815 10.5523 12.3586 19.9925 16.7049 -0.621247 3.46926 59.6083
8654828 10.5171 12.3126 19.9925 16.7144 -0.622541 3.49632 59.5366
8654844 10.5171 12.2481 20.0122 16.7525 -0.641958 3.52751 59.5299
8654855 10.4907 12.2389 20.022 16.724 -0.65145 3.535 59.4755
8654865 10.5347 12.2113 20.0318 16.7049 -0.693633 3.52811 59.4828
8654875 10.5347 12.2113 20.0318 16.7049 -0.693633 3.52811 59.4828
8654886 10.5523 12.2205 20.0712 16.6669 -0.729375 3.52001 59.5109
8654895 10.5523 12.2205 20.0712 16.6669 -0.729375 3.52001 59.5109
8654905 10.4995 12.1468 20.0614 16.7811 -0.686257 3.57954 59.4887
8654915 10.5347 12.1376 20.1204 16.7716 -0.732821 3.58093 59.5643
8654935 10.5523 12.1192 20.0909 16.762 -0.740042 3.57368 59.5245
8654948 10.4819 12.1008 20.0515 16.7525 -0.707278 3.59208 59.3867
8654956 10.4819 12.1008 20.0515 16.7525 -0.707278 3.59208 59.3867
8654969 10.5083 12.1468 20.0515 16.7335 -0.706398 3.56576 59.4401
8654976 10.5083 12.1468 20.0515 16.7335 -0.706398 3.56576 59.4401
8654986 10.4819 12.1008 20.0811 16.8477 -0.678216 3.61598 59.5114
8654997 10.5259 12.1744 20.15 16.8572 -0.688449 3.59424 59.7075
8655016 10.5523 12.1192 20.0712 16.7335 -0.74437 3.56441 59.4762
8655027 10.5611 12.1192 20.1401 16.8096 -0.743106 3.58949 59.6301
8655036 10.5611 12.1192 20.1401 16.8096 -0.743106 3.58949 59.6301
8655046 10.5347 12.0915 20.1204 16.7335 -0.769216 3.588 59.4802
8655073 10.5523 12.11 20.0909 16.6859 -0.777008 3.56192 59.4391
8655081 10.5259 12.0915 20.1303 16.724 -0.773761 3.59081 59.4717
8655088 10.5259 12.0915 20.1303 16.724 -0.773761 3.59081 59.4717
8655097 10.5788 12.1008 20.0811 16.6669 -0.796019 3.55099 59.4274
8655117 10.5259 12.1008 20.1204 16.7144 -0.769883 3.58422 59.4615
8655131 10.5788 12.0547 20.1303 16.724 -0.811243 3.58581 59.4877
8655137 10.5788 12.0547 20.1303 16.724 -0.811243 3.58581 59.4877
8655148 10.5788 12.0179 20.1303 16.724 -0.827238 3.59733 59.4509
8655157 10.6052 12.0915 20.1598 16.6669 -0.842775 3.56077 59.5234
8655167 10.6052 12.0915 20.1598 16.6669 -0.842775 3.56077 59.5234
8655179 10.614 12.0455 20.1008 16.724 -0.81756 3.57201 59.4842
8655188 10.6052 12.0915 20.1204 16.743 -0.793765 3.56783 59.5602
8655198 10.6052 12.0915 20.1204 16.743 -0.793765 3.56783 59.5602
8655208 10.6933 12.1468 20.1303 16.6478 -0.850801 3.50682 59.6182
8655229 10.6228 12.1008 20.0909 16.6002 -0.846897 3.52629 59.4147
8655242 10.7021 12.1376 20.1401 16.5812 -0.89128 3.49599 59.561
8655258 10.7109 12.11 20.0712 16.6193 -0.862387 3.49588 59.5113
8655267 10.658 12.11 20.0614 16.5336 -0.874217 3.49384 59.363
8655279 10.658 12.11 20.0614 16.5336 -0.874217 3.49384 59.363
8655290 10.6845 12.156 20.1401 16.5146 -0.905122 3.48286 59.4952
8655301 10.6845 12.156 20.1401 16.5146 -0.905122 3.48286 59.4952
8655313 10.7021 12.11 20.1303 16.5336 -0.920032 3.49348 59.4759
8655324 10.6933 12.11 20.1204 16.6383 -0.866927 3.51453 59.562
8655333 10.6933 12.11 20.1204 16.6383 -0.866927 3.51453 59.562
8655339 10.6756 12.0915 20.1992 16.6002 -0.916228 3.53358 59.5666
8655350 10.6404 12.0823 20.1697 16.6288 -0.8816 3.54723 59.5212
8655360 10.6404 12.0823 20.1697 16.6288 -0.8816 3.54723 59.5212
8655370 10.614 12.0915 20.1992 16.5907 -0.895417 3.55095 59.4954
8655381 10.658 12.11 20.15 16.5812 -0.889443 3.52017 59.4992
8655390 10.658 12.11 20.15 16.5812 -0.889443 3.52017 59.4992
8655400 10.6668 12.1008 20.15 16.5336 -0.917752 3.51111 59.4512
8655410 10.6668 12.1008 20.15 16.5336 -0.917752 3.51111 59.4512
8655420 10.5699 12.1284 20.1303 16.505 -0.87084 3.52338 59.3337
8655430 10.6845 12.1008 20.022 16.5431 -0.86882 3.48269 59.3503
8655450 10.7021 12.2021 20.0909 16.5431 -0.859873 3.4591 59.5382
8655464 10.6933 12.2021 20.0515 16.5336 -0.844458 3.45234 59.4805
8655470 10.6933 12.2021 20.0515 16.5336 -0.844458 3.45234 59.4805
8655486 10.6933 12.2389 20.0712 16.5146 -0.844717 3.44105 59.5179
8655491 10.6933 12.2389 20.0712 16.5146 -0.844717 3.44105 59.5179
8655501 10.7109 12.2573 19.9531 16.4765 -0.812395 3.39947 59.3978
8655511 10.7461 12.3034 19.9925 16.5812 -0.777401 3.40242 59.6231
8655521 10.7461 12.3034 19.9925 16.5812 -0.777401 3.40242 59.6231
8655531 10.799 12.3862 19.9137 16.5146 -0.759847 3.33224 59.6135
8655542 10.799 12.3862 19.9137 16.5146 -0.759847 3.33224 59.6135
8655551 10.7021 12.3402 19.8743 16.4194 -0.765494 3.34994 59.336
8655561 10.7637 12.3862 19.8842 16.4955 -0.741714 3.33357 59.5297
8655581 10.7725 12.3862 19.8251 16.486 -0.725335 3.3174 59.4699
8655594 10.7549 12.4047 19.7562 16.4574 -0.694354 3.29797 59.3733
8655601 10.7549 12.4047 19.7562 16.4574 -0.694354 3.29797 59.3733
8655617 10.7197 12.3954 19.8054 16.505 -0.683478 3.33072 59.4256
8655633 10.6933 12.3954 19.8054 16.467 -0.689127 3.3314 59.3611
8655642 10.7549 12.506 19.8448 16.4479 -0.690913 3.28239 59.5536
8655662 10.7549 12.506 19.7562 16.4479 -0.654697 3.26493 59.465
8655673 10.8166 12.552 19.7169 16.486 -0.627576 3.23165 59.5714
8655684 10.8166 12.552 19.7169 16.486 -0.627576 3.23165 59.5714
8655695 10.799 12.5612 19.6381 16.3623 -0.637454 3.19409 59.3605
8655704 10.799 12.6349 19.6184 16.4099 -0.577104 3.17709 59.4621
8655714 10.799 12.6349 19.6184 16.4099 -0.577104 3.17709 59.4621
8655726 10.8342 12.6165 19.6578 16.4003 -0.619733 3.17788 59.5088
8655734 10.8342 12.6165 19.6578 16.4003 -0.619733 3.17788 59.5088
8655749 10.8166 12.5981 19.6184 16.3337 -0.633031 3.16781 59.3667
8655754 10.887 12.6625 19.6086 16.3623 -0.617789 3.13034 59.5204
8655764 10.887 12.6625 19.6086 16.3623 -0.617789 3.13034 59.5204
8655774 10.843 12.6717 19.5495 16.3718 -0.567421 3.13107 59.436
8655784 10.8782 12.6441 19.5298 16.2671 -0.630862 3.10386 59.3192
8655796 10.8782 12.6441 19.5298 16.2671 -0.630862 3.10386 59.3192
8655804 10.8694 12.6994 19.5298 16.3147 -0.582878 3.09924 59.4133
8655818 10.8694 12.6994 19.5298 16.3147 -0.582878 3.09924 59.4133
8655824 10.8254 12.6809 19.5889 16.248 -0.625724 3.11676 59.3432
8655834 10.9223 12.7362 19.6479 16.2576 -0.661677 3.08417 59.564
8655844 10.9223 12.7362 19.6479 16.2576 -0.661677 3.08417 59.564
8655854 11.0104 12.7086 19.6283 16.2385 -0.709708 3.05808 59.5857
8655864 10.9487 12.727 19.5692 16.1814 -0.677103 3.04787 59.4263
8655874 10.9487 12.727 19.5692 16.1814 -0.677103 3.04787 59.4263
8655884 10.9927 12.7086 19.5003 16.1243 -0.699602 3.01469 59.3259
8655896 10.9927 12.7086 19.5003 16.1243 -0.699602 3.01469 59.3259
8655904 10.9839 12.727 19.4806 16.0957 -0.692314 3.00202 59.2873
8655914 11.028 12.7546 19.4609 16.0957 -0.690329 2.9763 59.3392
8655923 11.028 12.7546 19.4609 16.0957 -0.690329 2.9763 59.3392
8655940 11.0368 12.7178 19.5003 16.1338 -0.709519 3.00046 59.3887
8655948 11.0456 12.7178 19.5495 16.1148 -0.741468 3.00389 59.4277
8655956 11.0456 12.7178 19.5495 16.1148 -0.741468 3.00389 59.4277
8655967 11.0632 12.7454 19.5987 16.1338 -0.748527 3.00396 59.5412
8655976 11.0632 12.7454 19.5987 16.1338 -0.748527 3.00396 59.5412
8655987 11.028 12.7178 19.5987 16.1719 -0.72965 3.03065 59.5164
8655996 11.0808 12.773 19.5397 16.1529 -0.711469 2.98221 59.5464
8656016 11.0544 12.7454 19.52 16.1433 -0.708696 2.99266 59.4631
8656026 10.9839 12.7178 19.4806 16.1433 -0.675692 3.01444 59.3256
8656036 10.9839 12.7178 19.4806 16.1433 -0.675692 3.01444 59.3256
8656047 10.9927 12.6441 19.4511 16.1433 -0.699118 3.02819 59.2313
8656057 10.9927 12.6441 19.4511 16.1433 -0.699118 3.02819 59.2313
8656067 10.9751 12.6994 19.5003 16.0957 -0.708753 3.01707 59.2705
8656077 10.9839 12.6625 19.5692 16.1053 -0.752413 3.04142 59.3209
8656088 10.9839 12.6625 19.5692 16.1053 -0.752413 3.04142 59.3209
8656097 10.9399 12.6625 19.5594 16.1148 -0.726236 3.05476 59.2765
8656111 10.9839 12.6349 19.5594 16.2004 -0.719096 3.067 59.3786
8656117 10.9839 12.6349 19.5594 16.2004 -0.719096 3.067 59.3786
8656128 10.9487 12.6809 19.5495 16.1624 -0.697196 3.05408 59.3415
8656138 10.9487 12.6809 19.5495 16.1624 -0.697196 3.05408 59.3415
8656147 10.9927 12.6809 19.5298 16.2671 -0.661905 3.05779 59.4706
8656158 11.0192 12.7362 19.5495 16.2004 -0.685671 3.02358 59.5053
8656179 11.072 12.8099 19.4117 16.1624 -0.635551 2.9498 59.456
8656192 11.0544 12.8283 19.4117 16.0767 -0.657354 2.93216 59.3711
8656199 11.0544 12.8283 19.4117 16.0767 -0.657354 2.93216 59.3711
8656209 11.0544 12.8559 19.3723 16.1148 -0.612839 2.92356 59.3974
8656230 11.0456 12.8467 19.3428 16.1529 -0.584647 2.93073 59.3879
8656240 11.0896 12.8283 19.3231 16.1053 -0.623123 2.90931 59.3463
8656250 11.0896 12.8283 19.3231 16.1053 -0.623123 2.90931 59.3463
8656263 11.1073 12.8743 19.3133 16.0767 -0.618765 2.88229 59.3715
8656270 11.1073 12.9664 19.2739 16.1053 -0.550631 2.85238 59.4528
8656280 11.1073 12.9664 19.2739 16.1053 -0.550631 2.85238 59.4528
8656291 11.1513 13.0401 19.2542 15.991 -0.57808 2.78966 59.4366
8656300 11.1513 13.0401 19.2542 15.991 -0.57808 2.78966 59.4366
8656312 11.1513 13.0217 19.2542 15.8578 -0.643519 2.76774 59.2849
8656321 11.1249 13.0953 19.1951 15.9149 -0.551899 2.75319 59.3302
8656335 11.1249 13.0953 19.1951 15.9149 -0.551899 2.75319 59.3302
8656340 11.0896 13.1506 19.0967 15.8197 -0.513904 2.70709 59.1566
8656350 11.1249 13.2335 19.0573 15.7912 -0.488779 2.65767 59.2068
8656362 11.1249 13.2335 19.0573 15.7912 -0.488779 2.65767 59.2068
8656370 11.1425 13.2795 19.0475 15.715 -0.504962 2.62074 59.1845
8656385 11.1425 13.2795 19.0475 15.715 -0.504962 2.62074 59.1845
8656390 11.1601 13.2795 19.0475 15.7531 -0.495854 2.62346 59.2402
8656400 11.1865 13.3164 19.1459 15.7531 -0.531551 2.6252 59.4019
8656411 11.1865 13.3164 19.1459 15.7531 -0.531551 2.6252 59.4019
8656420 11.2394 13.4177 19.1065 15.7245 -0.505872 2.56539 59.4881
8656433 11.1865 13.3992 19.1754 15.734 -0.5163 2.60283 59.4953
8656440 11.1865 13.3992 19.1754 15.734 -0.5163 2.60283 59.4953
8656450 11.2041 13.4269 19.1361 15.7816 -0.475122 2.59116 59.5487
8656472 11.1865 13.3808 19.1361 15.6389 -0.548902 2.58018 59.3423
8656483 11.1865 13.3624 19.1361 15.6674 -0.544536 2.59161 59.3524
8656492 11.1865 13.3624 19.1361 15.6674 -0.544536 2.59161 59.3524
8656507 11.1249 13.4085 19.1459 15.715 -0.482929 2.60823 59.3942
8656511 11.1161 13.3624 19.1853 15.6484 -0.543976 2.61882 59.3121
8656521 11.1161 13.3624 19.1853 15.6484 -0.543976 2.61882 59.3121
8656533 11.1337 13.3256 19.2936 15.7055 -0.587049 2.65896 59.4583
8656541 11.1337 13.3256 19.2936 15.7055 -0.587049 2.65896 59.4583
8656555 11.0632 13.3072 19.264 15.7436 -0.537466 2.68717 59.378
8656561 11.072 13.3256 19.3034 15.8102 -0.520776 2.70101 59.5112
8656571 11.072 13.3256 19.3034 15.8102 -0.520776 2.70101 59.5112
8656589 11.0808 13.2519 19.3133 15.7816 -0.57236 2.71646 59.4276
8656598 11.0808 13.2519 19.3428 15.7626 -0.592685 2.71863 59.4381
8656605 11.0808 13.2519 19.3428 15.7626 -0.592685 2.71863 59.4381
8656613 11.0544 13.2795 19.3133 15.7436 -0.565989 2.70822 59.3907
8656628 11.0544 13.2795 19.3133 15.7436 -0.565989 2.70822 59.3907
8656634 10.9927 13.2059 19.3428 15.7626 -0.576305 2.7587 59.304
8656643 11.028 13.123 19.4511 15.7912 -0.658716 2.80115 59.3932
8656654 11.028 13.123 19.4511 15.7912 -0.658716 2.80115 59.3932
8656663 11.0104 13.123 19.4215 15.8292 -0.622939 2.80819 59.3841
8656677 10.9575 13.0861 19.4412 15.8197 -0.629334 2.83721 59.3046
8656683 10.9575 13.0861 19.4412 15.8197 -0.629334 2.83721 59.3046
8656693 10.9839 13.0585 19.5298 15.8387 -0.680222 2.8596 59.411
8656703 10.9839 13.0585 19.5298 15.8387 -0.680222 2.8596 59.411
8656713 10.9311 13.0585 19.5101 15.8578 -0.642267 2.87537 59.3575
8656725 11.0544 13.0585 19.5889 15.8292 -0.737242 2.84857 59.531
8656735 11.0544 13.0585 19.5889 15.8292 -0.737242 2.84857 59.531
8656748 11.028 13.0217 19.5298 15.8578 -0.705932 2.86133 59.4372
8656753 10.9927 13.0769 19.52 15.8102 -0.684179 2.84357 59.3998
8656764 10.9927 13.0769 19.52 15.8102 -0.684179 2.84357 59.3998
8656774 11.0456 13.0125 19.5397 15.8197 -0.737618 2.85303 59.4174
8656784 11.0456 13.0125 19.5397 15.8197 -0.737618 2.85303 59.4174
8656797 10.9927 13.0217 19.5987 15.8292 -0.732046 2.88015 59.4424
8656804 11.0016 13.0217 19.6479 15.8483 -0.747472 2.89141 59.5194
8656825 11.072 12.9756 19.6479 15.8007 -0.816719 2.87438 59.4963
8656835 11.072 12.9756 19.6086 15.7531 -0.821371 2.85663 59.4093
8656846 11.072 12.9756 19.6086 15.7531 -0.821371 2.85663 59.4093
8656855 11.028 13.0401 19.6283 15.6865 -0.812399 2.84088 59.3828
8656869 11.028 13.0401 19.6283 15.6865 -0.812399 2.84088 59.3828
8656875 11.072 12.9112 19.579 15.6769 -0.870611 2.85439 59.2392
8656885 11.0808 12.9756 19.6578 15.696 -0.869811 2.85236 59.4102
8656895 11.0808 12.9756 19.6578 15.696 -0.869811 2.85236 59.4102
8656905 11.0368 12.9664 19.6676 15.6674 -0.872366 2.86456 59.3382
8656918 11.1425 12.9388 19.8645 15.7531 -0.969501 2.89863 59.6989
8656925 11.1425 12.9388 19.8645 15.7531 -0.969501 2.89863 59.6989
8656935 11.1249 12.9388 19.8645 15.7626 -0.958267 2.90584 59.6908
8656946 11.1249 12.9388 19.8645 15.7626 -0.958267 2.90584 59.6908
8656955 11.0984 12.9756 19.7858 15.6674 -0.941235 2.86737 59.5272
8656966 11.1249 12.9112 19.7464 15.6769 -0.959967 2.87271 59.4593
8656976 11.1249 12.9112 19.7464 15.6769 -0.959967 2.87271 59.4593
8656990 11.0632 12.9204 19.7464 15.5342 -0.993466 2.85931 59.2641
8656997 11.0808 12.8835 19.7365 15.5817 -0.991896 2.87283 59.2826
8657006 11.0808 12.8835 19.7365 15.5817 -0.991896 2.87283 59.2826
8657016 11.1249 12.948 19.6873 15.5056 -0.994924 2.81445 59.2658
8657039 11.0632 12.9296 19.6775 15.5627 -0.948966 2.84826 59.233
8657046 11.072 12.9296 19.7562 15.6103 -0.963636 2.87147 59.3681
8657066 11.072 12.9572 19.7759 15.6484 -0.942901 2.87495 59.4535
8657076 11.1073 12.9756 19.7661 15.696 -0.924398 2.86653 59.5449
8657088 11.1073 12.9756 19.7661 15.696 -0.924398 2.86653 59.5449
8657096 11.1161 12.994 19.7759 15.6769 -0.932209 2.85649 59.563
8657112 11.1161 12.994 19.7759 15.6769 -0.932209 2.85649 59.563
8657118 11.1249 12.994 19.6775 15.7055 -0.883509 2.83959 59.5019
8657128 11.0896 12.9756 19.6479 15.7436 -0.848684 2.85743 59.4568
8657148 11.0896 12.994 19.579 15.6389 -0.858231 2.81634 59.3016
8657159 11.1425 12.994 19.5889 15.6198 -0.89203 2.79858 59.3452
8657168 11.1425 12.994 19.5889 15.6198 -0.89203 2.79858 59.3452
8657182 11.1425 12.994 19.6381 15.7912 -0.837474 2.84376 59.5658
8657187 11.1425 12.994 19.6381 15.7912 -0.837474 2.84376 59.5658
8657198 11.0544 12.948 19.5889 15.6865 -0.847216 2.85257 59.2777
8657220 11.0368 12.9848 19.707 15.8387 -0.805901 2.90196 59.5674
8657229 11.0632 12.9572 19.6381 15.8197 -0.808868 2.88443 59.4782
8657249 11.0368 12.9664 19.6479 15.8959 -0.765137 2.9071 59.547
8657257 11.0368 12.9664 19.6479 15.8959 -0.765137 2.9071 59.547
8657261 11.0544 13.0125 19.6283 15.8197 -0.777325 2.86847 59.5148
8657271 10.9311 12.9296 19.6184 15.8768 -0.734176 2.9402 59.3559
8657293 10.9839 12.994 19.6283 15.9149 -0.715402 2.91455 59.5211
8657315 10.9047 12.9388 19.6184 15.9054 -0.707003 2.95121 59.3672
8657321 10.8782 12.9019 19.6184 16.0196 -0.662722 2.99348 59.4182
8657331 10.8782 12.9019 19.6184 16.0196 -0.662722 2.99348 59.4182
8657343 10.887 12.9019 19.6086 16.0577 -0.645863 2.99652 59.4552
8657351 10.8254 12.9019 19.7169 16.0577 -0.664945 3.03701 59.5019
8657372 10.9223 12.9112 19.5987 16.0291 -0.664605 2.97532 59.4613
8657382 10.799 12.8467 19.6775 16.0291 -0.674206 3.04814 59.3522
8657393 10.799 12.8467 19.6775 16.0291 -0.674206 3.04814 59.3522
8657403 10.8959 12.9572 19.5987 16.0767 -0.613433 2.979 59.5285
8657413 10.8959 12.9572 19.5987 16.0767 -0.613433 2.979 59.5285
8657426 10.8959 12.948 19.5495 16.0006 -0.630032 2.95642 59.3939
8657433 10.8518 12.948 19.5397 15.991 -0.612012 2.96582 59.3305
8657445 10.8518 12.948 19.5397 15.991 -0.612012 2.96582 59.3305
8657454 10.8782 12.994 19.4708 16.0482 -0.550084 2.94151 59.3912
8657466 10.8606 12.9664 19.5594 16.0006 -0.611664 2.9635 59.3869
8657474 10.8606 12.9664 19.5594 16.0006 -0.611664 2.9635 59.3869
8657484 10.8959 12.9756 19.5101 16.0577 -0.577351 2.95166 59.4393
8657504 10.843 12.9112 19.5101 16.0482 -0.587493 2.98524 59.3125
8657514 10.8782 12.9664 19.5101 16.0577 -0.574075 2.95977 59.4125
8657525 10.8782 12.9664 19.5101 16.0577 -0.574075 2.95977 59.4125
8657535 10.9047 13.0125 19.6184 16.0672 -0.605437 2.96173 59.6027
8657545 10.8959 12.948 19.4904 16.0672 -0.577055 2.95795 59.4015
8657565 10.887 13.0401 19.4511 15.991 -0.550365 2.90933 59.3692
8657577 10.887 13.0401 19.4511 15.991 -0.550365 2.90933 59.3692
8657585 10.9047 13.0125 19.4904 15.991 -0.585708 2.92036 59.3986
8657595 10.9399 13.0493 19.4904 16.0006 -0.580229 2.90058 59.4802
8657615 10.9839 13.0769 19.3625 16.0006 -0.533848 2.85294 59.4239
8657625 10.9575 13.0217 19.4215 15.9339 -0.599755 2.87596 59.3346
8657636 10.9575 13.0217 19.4215 15.9339 -0.599755 2.87596 59.3346
8657646 10.9927 13.0309 19.4215 16.0101 -0.577465 2.87813 59.4552
8657673 10.9487 13.0677 19.3822 15.9625 -0.547777 2.86254 59.3611
8657676 11.0104 13.1138 19.3526 15.9339 -0.553481 2.81829 59.4107
8657688 11.0104 13.1138 19.3526 15.9339 -0.553481 2.81829 59.4107
8657696 11.0192 13.1322 19.2936 15.8387 -0.565848 2.77841 59.2837
8657710 11.0368 13.1322 19.264 15.9434 -0.515863 2.78861 59.3765
8657716 11.0368 13.1322 19.264 15.9434 -0.515863 2.78861 59.3765
8657726 11.0808 13.2243 19.3428 15.8959 -0.547285 2.75433 59.5437
8657736 11.0808 13.2243 19.3428 15.8959 -0.547285 2.75433 59.5437
8657746 11.0456 13.1782 19.205 15.8578 -0.51216 2.74234 59.2866
8657756 11.0632 13.1874 19.2148 15.8387 -0.527728 2.73242 59.3042
8657768 11.0632 13.1874 19.2148 15.8387 -0.527728 2.73242 59.3042
8657776 11.1161 13.1874 19.1853 15.8768 -0.520968 2.7184 59.3656
8657786 11.1161 13.2427 19.1558 15.8673 -0.489138 2.69383 59.3818
8657796 11.1161 13.2427 19.1558 15.8673 -0.489138 2.69383 59.3818
8657806 11.1425 13.2427 19.1754 15.8768 -0.504072 2.69201 59.4374
8657817 11.1425 13.2427 19.1754 15.8768 -0.504072 2.69201 59.4374
8657826 11.1689 13.2427 19.1754 15.8483 -0.527215 2.67823 59.4353
8657840 11.1601 13.2059 19.0869 15.7816 -0.531563 2.65957 59.2344
8657846 11.1601 13.2059 19.0869 15.7816 -0.531563 2.65957 59.2344
8657875 11.213 13.3164 19.1065 15.8102 -0.501694 2.62105 59.446
8657883 11.2306 13.3072 19.1065 15.8387 -0.500654 2.62451 59.483
8657888 11.213 13.344 19.077 15.8483 -0.461361 2.61465 59.4822
8657908 11.1777 13.3348 19.0573 15.7626 -0.479361 2.60585 59.3324
8657918 11.213 13.3348 19.0376 15.734 -0.498053 2.58531 59.3194
8657939 11.213 13.2887 19.018 15.7436 -0.505631 2.59685 59.2632
8657949 11.2482 13.2887 19.018 15.696 -0.540683 2.57642 59.2508
8657959 11.2482 13.2887 19.018 15.696 -0.540683 2.57642 59.2508
8657971 11.2834 13.344 19.0376 15.715 -0.53135 2.55774 59.3801
8657979 11.2834 13.344 19.0376 15.715 -0.53135 2.55774 59.3801
8657989 11.2658 13.3164 18.9786 15.7721 -0.487041 2.57071 59.3329
8657999 11.2922 13.3624 18.9687 15.6865 -0.510921 2.52923 59.3098
8658009 11.2922 13.3624 18.9687 15.6865 -0.510921 2.52923 59.3098
8658019 11.3363 13.3716 19.0081 15.6674 -0.54954 2.51778 59.3834
8658029 11.3979 13.3716 18.9983 15.6769 -0.566766 2.49954 59.4447
8658040 11.3979 13.3716 18.9983 15.6769 -0.566766 2.49954 59.4447
8658049 11.3451 13.4453 18.9392 15.6293 -0.509463 2.47095 59.3589
8658069 11.3715 13.4453 18.949 15.6008 -0.536698 2.45922 59.3666
8658084 11.4155 13.4177 18.9786 15.5342 -0.607583 2.44655 59.3459
8658089 11.4155 13.4177 18.9786 15.5342 -0.607583 2.44655 59.3459
8658099 11.3715 13.4269 18.8998 15.5342 -0.553037 2.44012 59.2324
8658110 11.4244 13.4177 18.9983 15.5532 -0.611079 2.45215 59.3935
8658120 11.4244 13.4177 18.9983 15.5532 -0.611079 2.45215 59.3935
8658130 11.4067 13.3992 19.0475 15.5246 -0.644319 2.46711 59.3781
8658140 11.4067 13.3992 19.0475 15.5246 -0.644319 2.46711 59.3781
8658150 11.3979 13.3072 19.077 15.5056 -0.7009 2.49905 59.2877
8658160 11.4948 13.3624 19.0869 15.5151 -0.716522 2.45835 59.4592
8658180 11.4772 13.3348 19.0967 15.477 -0.741795 2.46568 59.3857
8658193 11.442 13.3256 19.1065 15.4866 -0.731285 2.48285 59.3606
8658200 11.442 13.3256 19.1065 15.4866 -0.731285 2.48285 59.3606
8658210 11.4684 13.3072 19.0475 15.4675 -0.734179 2.464 59.2906
8658220 11.4684 13.3072 19.0475 15.4675 -0.734179 2.464 59.2906
8658230 11.4332 13.3624 19.0672 15.5056 -0.687373 2.47031 59.3683
8658240 11.4948 13.2979 19.0573 15.4009 -0.781971 2.44691 59.251
8658251 11.4948 13.2979 19.0573 15.4009 -0.781971 2.44691 59.251
8658261 11.5477 13.3532 19.0081 15.3628 -0.775981 2.3966 59.2718
8658271 11.6446 13.3532 18.9884 15.2867 -0.84065 2.34779 59.2729
8658283 11.6446 13.3532 18.9884 15.2867 -0.84065 2.34779 59.2729
8658292 11.5389 13.3348 19.018 15.4104 -0.763725 2.4168 59.302
8658305 11.5389 13.3348 19.018 15.4104 -0.763725 2.4168 59.302
8658311 11.5829 13.3164 19.0672 15.4199 -0.805648 2.42173 59.3864
8658321 11.6181 13.344 19.0278 15.4295 -0.787829 2.39698 59.4194
8658331 11.6181 13.344 19.0278 15.4295 -0.787829 2.39698 59.4194
8658341 11.6093 13.39 19.0376 15.4009 -0.780661 2.38211 59.4379
8658353 11.5477 13.344 19.0278 15.3819 -0.779754 2.40753 59.3013
8658372 11.5565 13.3164 19.0376 15.4961 -0.749782 2.43935 59.4066
8658396 11.5212 13.3348 19.1262 15.4866 -0.767687 2.46098 59.4688
8658401 11.5477 13.2887 19.1065 15.4485 -0.806931 2.45455 59.3914
8658412 11.5477 13.2887 19.1065 15.4485 -0.806931 2.45455 59.3914
8658421 11.5565 13.2427 19.077 15.439 -0.822653 2.45725 59.3151
8658431 11.5565 13.2427 19.077 15.439 -0.822653 2.45725 59.3151
8658443 11.5565 13.1782 19.0573 15.439 -0.84272 2.47208 59.231
8658451 11.5389 13.2427 19.1164 15.458 -0.823234 2.47478 59.3559
8658473 11.5477 13.3164 19.1262 15.458 -0.798817 2.4526 59.4483
8658483 11.5301 13.1874 19.2247 15.4866 -0.875302 2.52245 59.4287
8658497 11.5301 13.1874 19.2247 15.4866 -0.875302 2.52245 59.4287
8658506 11.5212 13.2243 19.205 15.5151 -0.835288 2.51606 59.4656
8658517 11.5124 13.1322 19.1853 15.5532 -0.847194 2.54968 59.3831
8658539 11.4772 13.1138 19.2247 15.5627 -0.852753 2.57579 59.3783
8658543 11.4772 13.1138 19.2247 15.5627 -0.852753 2.57579 59.3783
8658554 11.486 13.0585 19.2936 15.5532 -0.912546 2.60196 59.3913
8658564 11.4332 13.0769 19.3133 15.5817 -0.878607 2.62223 59.4051
8658574 11.4332 13.0769 19.3133 15.5817 -0.878607 2.62223 59.4051
8658587 11.4508 12.994 19.3526 15.6008 -0.929567 2.65377 59.3982
8658594 11.3979 12.994 19.3822 15.5817 -0.928427 2.67167 59.3559
8658604 11.3979 12.994 19.3822 15.5817 -0.928427 2.67167 59.3559
8658614 11.3627 12.9664 19.4314 15.6198 -0.929534 2.7085 59.3803
8658624 11.3627 12.9664 19.4314 15.6198 -0.929534 2.7085 59.3803
8658635 11.3098 12.8927 19.4806 15.6579 -0.943618 2.76433 59.3411
8658644 11.3803 12.8835 19.5594 15.6579 -1.00798 2.76224 59.4811
8658659 11.3803 12.8835 19.5594 15.6579 -1.00798 2.76224 59.4811
8658664 11.3451 12.8467 19.5594 15.6579 -1.00988 2.78379 59.409
8658674 11.301 12.8467 19.5594 15.7055 -0.971261 2.80676 59.4126
8658685 11.301 12.7638 19.5594 15.7055 -1.00754 2.83163 59.3297
8658694 11.3098 12.7546 19.707 15.7816 -1.04134 2.87748 59.5531
8658710 11.3098 12.7546 19.707 15.7816 -1.04134 2.87748 59.5531
8658714 11.301 12.7454 19.6086 15.7816 -1.00215 2.86282 59.4366
8658724 11.3187 12.727 19.5889 15.7816 -1.00937 2.85904 59.4161
8658734 11.3187 12.727 19.5889 15.7816 -1.00937 2.85904 59.4161
8658744 11.301 12.6625 19.6775 15.8197 -1.04955 2.90956 59.4607
8658758 11.301 12.6625 19.6775 15.8197 -1.04955 2.90956 59.4607
8658764 11.2306 12.6165 19.6086 15.8673 -0.992607 2.94039 59.3229
8658774 11.2482 12.6533 19.6873 15.8673 -1.01541 2.93993 59.4561
8658784 11.2482 12.6533 19.6873 15.8673 -1.01541 2.93993 59.4561
8658795 11.257 12.6165 19.7169 15.8959 -1.03449 2.96016 59.4862
8658805 11.2306 12.5888 19.7464 15.9339 -1.03117 2.99016 59.4997
8658826 11.1953 12.5612 19.7267 15.9244 -1.02529 3.00329 59.4077
8658835 11.1953 12.5612 19.7267 15.9244 -1.02529 3.00329 59.4077
8658845 11.2306 12.5336 19.6775 15.9149 -1.03593 2.98911 59.3565
8658858 11.2218 12.5704 19.7365 15.953 -1.02339 3.00025 59.4817
8658866 11.2218 12.5704 19.7365 15.953 -1.02339 3.00025 59.4817
8658879 11.2482 12.5336 19.7365 15.8959 -1.0752 2.99187 59.4142
8658886 11.2218 12.5796 19.6578 15.9434 -0.991738 2.97962 59.4026
8658896 11.2218 12.5796 19.6578 15.9434 -0.991738 2.97962 59.4026
8658906 11.1513 12.5981 19.7464 15.9434 -0.991003 3.01329 59.4392
8658918 11.1513 12.5981 19.707 15.9434 -0.975089 3.00534 59.3998
8658926 11.2041 12.552 19.707 15.8578 -1.05417 2.98595 59.3209
8658936 11.257 12.6533 19.707 15.8959 -1.01441 2.94705 59.5132
8658946 11.257 12.6533 19.707 15.8959 -1.01441 2.94705 59.5132
8658956 11.2306 12.6349 19.707 15.8483 -1.03265 2.95094 59.4207
8658966 11.2658 12.727 19.6283 15.8578 -0.970641 2.89849 59.4788
8658988 11.2834 12.773 19.6283 15.8197 -0.974275 2.8716 59.5044
8658997 11.3275 12.6994 19.5594 15.7626 -1.02145 2.85477 59.3488
8659018 11.3363 12.8375 19.52 15.7245 -0.96529 2.79479 59.4183
8659037 11.3098 12.8191 19.4806 15.6674 -0.971696 2.78838 59.2769
8659048 11.3627 12.8099 19.5003 15.6865 -0.99676 2.78327 59.3593
8659059 11.3627 12.8099 19.5003 15.6865 -0.99676 2.78327 59.3593
8659069 11.3187 12.8559 19.52 15.6769 -0.970918 2.78476 59.3715
8659079 11.3187 12.8375 19.5298 15.6198 -1.00798 2.78055 59.3058
8659099 11.3451 12.9112 19.5298 15.7436 -0.932384 2.77605 59.5296
8659110 11.3451 12.9112 19.5298 15.7436 -0.932384 2.77605 59.5296
8659120 11.3363 12.9019 19.5692 15.7055 -0.965348 2.7817 59.5129
8659131 11.3275 12.8375 19.5495 15.6769 -0.994484 2.79371 59.3914
8659140 11.3275 12.8375 19.5495 15.6769 -0.994484 2.79371 59.3914
8659156 11.3715 12.9112 19.5003 15.7245 -0.939423 2.75818 59.5075
8659160 11.3098 12.8835 19.4412 15.6865 -0.919192 2.76486 59.3211
8659173 11.3098 12.8835 19.4412 15.6865 -0.919192 2.76486 59.3211
8659180 11.3363 12.8743 19.4609 15.715 -0.929444 2.76965 59.3865
8659190 11.3363 12.8743 19.4609 15.715 -0.929444 2.76965 59.3865
8659200 11.3187 12.8191 19.392 15.6865 -0.930972 2.77139 59.2162
8659210 11.3363 12.948 19.3723 15.734 -0.853062 2.73329 59.3906
8659222 11.3363 12.948 19.3723 15.734 -0.853062 2.73329 59.3906
8659231 11.3979 12.9296 19.3231 15.696 -0.882733 2.70232 59.3466
8659241 11.4155 12.994 19.3034 15.7055 -0.849666 2.67576 59.4185
8659261 11.4772 13.0493 19.2739 15.6769 -0.851108 2.62898 59.4773
8659271 11.4772 13.0493 19.2739 15.6769 -0.851108 2.62898 59.4773
8659287 11.4684 13.0217 19.2345 15.6579 -0.851825 2.62763 59.3825
8659291 11.5036 13.1322 19.1951 15.5913 -0.831054 2.56233 59.4222
8659301 11.5036 13.1322 19.1951 15.5913 -0.831054 2.56233 59.4222
8659311 11.486 13.1414 19.1065 15.5342 -0.80862 2.53424 59.2681
8659323 11.5301 13.1598 19.077 15.5722 -0.789964 2.51758 59.3391
8659333 11.5301 13.1598 19.077 15.5722 -0.789964 2.51758 59.3391
8659345 11.5653 13.1138 19.0672 15.6389 -0.791377 2.5327 59.3851
8659368 11.5565 13.169 19.018 15.6103 -0.756106 2.50265 59.3537
8659373 11.5301 13.1598 19.1164 15.6484 -0.772966 2.54183 59.4546
8659383 11.5301 13.1598 19.1164 15.6484 -0.772966 2.54183 59.4546
8659394 11.5389 13.1874 19.0573 15.5627 -0.777657 2.50068 59.3463
8659403 11.5036 13.2335 19.0081 15.6103 -0.702526 2.49715 59.3555
8659424 11.5653 13.1966 18.9589 15.6198 -0.719452 2.48147 59.3406
8659435 11.5124 13.2243 18.949 15.6198 -0.681804 2.48682 59.3056
8659444 11.5124 13.2243 18.949 15.6198 -0.681804 2.48682 59.3056
8659454 11.5741 13.2151 18.9097 15.6198 -0.694925 2.46306 59.3186
8659465 11.5741 13.2151 18.9097 15.6198 -0.694925 2.46306 59.3186
8659475 11.5917 13.169 18.9294 15.6579 -0.713654 2.48362 59.348
8659490 11.5829 13.2519 18.949 15.696 -0.665808 2.474 59.4798
8659495 11.5829 13.2519 18.949 15.696 -0.665808 2.474 59.4798
8659505 11.5829 13.2795 18.8408 15.6008 -0.650615 2.42289 59.304
8659516 11.5477 13.2703 18.89 15.6579 -0.635651 2.45846 59.3659
8659525 11.5477 13.2703 18.89 15.6579 -0.635651 2.45846 59.3659
8659536 11.5477 13.2059 18.8801 15.6579 -0.659479 2.47536 59.2916
8659545 11.5477 13.2059 18.8801 15.6579 -0.659479 2.47536 59.2916
8659560 11.5301 13.1322 18.9589 15.6674 -0.712341 2.52091 59.2885
8659565 11.4772 13.1782 19.0278 15.6674 -0.698964 2.53741 59.3506
8659575 11.4772 13.1782 19.0278 15.6674 -0.698964 2.53741 59.3506
8659585 11.4508 13.1414 19.0475 15.6769 -0.708039 2.56225 59.3166
8659595 11.4155 13.169 19.0278 15.6674 -0.677681 2.55837 59.2798
8659615 11.4596 13.1322 19.0573 15.7245 -0.699052 2.5744 59.3736
8659625 11.4596 13.1322 19.0573 15.7245 -0.699052 2.5744 59.3736
8659635 11.3627 13.0677 19.1754 15.7531 -0.72329 2.65287 59.3589
8659646 11.3627 13.0493 19.3231 15.8387 -0.754422 2.70669 59.5738
8659656 11.3627 13.0493 19.3231 15.8387 -0.754422 2.70669 59.5738
8659667 11.3539 13.0125 19.205 15.7436 -0.759862 2.67611 59.3149
8659681 11.3539 13.0125 19.1754 15.7626 -0.739521 2.67393 59.3044
8659686 11.3539 13.0125 19.1754 15.7626 -0.739521 2.67393 59.3044
8659696 11.3627 13.0217 19.2542 15.7436 -0.779556 2.68096 59.3821
8659707 11.3627 13.0217 19.2542 15.7436 -0.779556 2.68096 59.3821
8659716 11.2922 12.8835 19.3034 15.715 -0.843456 2.74757 59.1942
8659727 11.2922 12.9204 19.2739 15.7531 -0.798734 2.7383 59.2396
8659751 11.3803 12.9388 19.3625 15.7436 -0.866823 2.72282 59.4251
8659758 11.3539 12.9664 19.3822 15.7816 -0.835519 2.73439 59.4841
8659774 11.3539 12.9664 19.3822 15.7816 -0.835519 2.73439 59.4841
8659777 11.3715 12.9848 19.4412 15.8102 -0.846244 2.74169 59.6077
8659798 11.3715 12.948 19.4117 15.7531 -0.875072 2.73483 59.4843
8659808 11.3451 12.9296 19.4019 15.6865 -0.897403 2.73242 59.363
8659822 11.3451 12.9296 19.4019 15.6865 -0.897403 2.73242 59.363
8659828 11.3539 12.9664 19.3625 15.6579 -0.881374 2.70474 59.3407
8659838 11.3187 12.8375 19.3526 15.715 -0.894402 2.76363 59.2238
8659848 11.3187 12.8375 19.3526 15.715 -0.894402 2.76363 59.2238
8659858 11.3187 12.9204 19.2739 15.696 -0.83442 2.71855 59.2089
8659872 11.3187 12.9204 19.2739 15.696 -0.83442 2.71855 59.2089
8659878 11.3363 12.8559 19.3231 15.715 -0.881498 2.74672 59.2303
8659888 11.301 12.8099 19.3428 15.7721 -0.870335 2.78696 59.2258
8659898 11.301 12.8099 19.3428 15.7721 -0.870335 2.78696 59.2258
8659908 11.2922 12.8835 19.3822 15.7721 -0.850642 2.77562 59.33
8659919 11.2922 12.8835 19.3822 15.7721 -0.850642 2.77562 59.33
8659928 11.2482 12.8467 19.3625 15.8292 -0.815843 2.80759 59.2866
8659942 11.2834 12.8099 19.4708 15.9244 -0.848864 2.84977 59.4884
8659948 11.2834 12.8099 19.4708 15.9244 -0.848864 2.84977 59.4884
8659957 11.3187 12.8559 19.4609 15.9054 -0.847438 2.81951 59.5408
8659968 11.2834 12.8927 19.4511 15.9434 -0.796659 2.8248 59.5707
8659978 11.2834 12.8927 19.4511 15.9434 -0.796659 2.8248 59.5707
8659988 11.2658 12.8006 19.4708 15.8673 -0.870562 2.84615 59.4045
8659998 11.2658 12.8006 19.4708 15.8673 -0.870562 2.84615 59.4045
8660010 11.2041 12.8099 19.4314 15.8387 -0.837882 2.84801 59.2841
8660018 11.2218 12.8283 19.4904 15.8673 -0.848638 2.85511 59.4078
8660031 11.2218 12.8283 19.4904 15.8673 -0.848638 2.85511 59.4078
8660038 11.301 12.8375 19.4511 15.8673 -0.860842 2.82049 59.4569
8660048 11.2746 12.7914 19.4511 15.8197 -0.890902 2.83249 59.3368
8660057 11.2746 12.7914 19.4511 15.8197 -0.890902 2.83249 59.3368
8660068 11.301 12.7914 19.5003 15.8673 -0.900851 2.84438 59.4601
8660087 11.301 12.8099 19.3723 15.8387 -0.853288 2.80676 59.322
8660098 11.3539 12.773 19.4117 15.8292 -0.910987 2.80809 59.3678
8660122 11.3539 12.8006 19.4215 15.7626 -0.932011 2.78813 59.3387
8660129 11.3098 12.8006 19.4609 15.8292 -0.901036 2.82311 59.4006
8660139 11.3098 12.8006 19.4609 15.8292 -0.901036 2.82311 59.4006
8660150 11.3539 12.7822 19.5101 15.7912 -0.963464 2.81771 59.4374
8660173 11.3539 12.8375 19.4904 15.7816 -0.935537 2.79517 59.4635
8660178 11.3539 12.7546 19.4215 15.8007 -0.935498 2.80977 59.3307
8660190 11.3539 12.7546 19.4215 15.8007 -0.935498 2.80977 59.3307
8660199 11.3627 12.773 19.4609 15.7912 -0.951137 2.80774 59.3878
8660209 11.3715 12.7454 19.4806 15.8673 -0.941484 2.83302 59.4648
8660219 11.3715 12.7454 19.4806 15.8673 -0.941484 2.83302 59.4648
8660229 11.3627 12.8006 19.4806 15.7912 -0.947039 2.8035 59.4351
8660239 11.3627 12.8006 19.4806 15.7912 -0.947039 2.8035 59.4351
8660249 11.3627 12.7546 19.4511 15.8102 -0.946876 2.81515 59.3786
8660259 11.3275 12.8559 19.4314 15.7531 -0.905313 2.77956 59.3678
8660269 11.3275 12.8559 19.4314 15.7531 -0.905313 2.77956 59.3678
8660280 11.3715 12.8375 19.4019 15.7626 -0.915085 2.76777 59.3734
8660293 11.3627 12.8467 19.4609 15.7721 -0.927283 2.78176 59.4424
8660302 11.3627 12.8467 19.4609 15.7721 -0.927283 2.78176 59.4424
8660310 11.3715 12.8283 19.4019 15.7912 -0.906643 2.77641 59.3928
8660323 11.3715 12.8283 19.4019 15.7912 -0.906643 2.77641 59.3928
8660330 11.3891 12.8467 19.3625 15.7436 -0.910547 2.7477 59.3419
8660340 11.3803 12.9019 19.3526 15.7436 -0.878868 2.73178 59.3785
8660350 11.3803 12.9019 19.3526 15.7436 -0.878868 2.73178 59.3785
8660360 11.3891 12.8467 19.2739 15.7531 -0.870372 2.73135 59.2628
8660370 11.3891 12.8467 19.2739 15.7531 -0.870372 2.73135 59.2628
8660381 11.3187 12.9112 19.3526 15.8292 -0.812508 2.76513 59.4117
8660391 11.4067 12.9204 19.3526 15.8387 -0.840183 2.73804 59.5185
8660418 11.4067 12.8743 19.3625 15.7721 -0.893191 2.74007 59.4157
8660435 11.3451 12.9204 19.264 15.7816 -0.803861 2.72636 59.3111
8660436 11.3451 12.9204 19.264 15.7816 -0.803861 2.72636 59.3111
8660441 11.3539 12.9204 19.2837 15.7721 -0.819622 2.72583 59.3301
8660452 11.3715 12.9296 19.3034 15.8673 -0.789468 2.74154 59.4718
8660472 11.3098 12.9019 19.3329 15.9149 -0.767727 2.78408 59.4596
8660493 11.2834 12.8559 19.4117 15.9149 -0.809002 2.82194 59.4659
8660503 11.2306 12.8927 19.4117 15.9339 -0.763252 2.83063 59.4689
8660521 11.2658 12.8835 19.3625 15.8959 -0.778052 2.80494 59.4077
8660531 11.1953 12.8651 19.4412 15.9244 -0.777031 2.85359 59.4261
8660553 11.1777 12.9204 19.4708 15.9815 -0.73324 2.85998 59.5504
8660563 11.1777 12.9204 19.4708 15.9815 -0.73324 2.85998 59.5504
8660573 11.1865 12.8559 19.4314 15.9625 -0.756912 2.86477 59.4363
8660588 11.1865 12.8283 19.4215 15.9625 -0.764874 2.87107 59.3988
8660593 11.1865 12.8283 19.4215 15.9625 -0.764874 2.87107 59.3988
8660603 11.1865 12.8283 19.4019 15.9625 -0.756837 2.86705 59.3791
8660613 11.1953 12.8743 19.3625 15.9625 -0.724395 2.84251 59.3946
8660623 11.1953 12.8743 19.3625 15.9625 -0.724395 2.84251 59.3946
8660638 11.1777 12.8559 19.4215 16.0006 -0.732812 2.87318 59.4557
8660643 11.1777 12.8559 19.4215 16.0006 -0.732812 2.87318 59.4557
8660653 11.1513 12.8743 19.4412 16.0006 -0.722092 2.8796 59.4674
8660664 11.1425 12.8835 19.5495 16.0291 -0.74631 2.90731 59.6046
8660673 11.1425 12.8835 19.5495 16.0291 -0.74631 2.90731 59.6046
8660689 11.2218 12.8927 19.4412 15.9815 -0.751095 2.84904 59.5373
8660693 11.2218 12.8927 19.4412 15.9815 -0.751095 2.84904 59.5373
8660703 11.1425 12.8559 19.4511 15.972 -0.74285 2.88398 59.4215
8660714 11.1513 12.9019 19.4806 15.991 -0.730328 2.87738 59.5249
8660739 11.1513 12.8743 19.3625 15.9244 -0.722884 2.84795 59.3125
8660743 11.1337 12.8559 19.3822 15.953 -0.719336 2.86867 59.3247
8660753 11.1337 12.8559 19.3822 15.953 -0.719336 2.86867 59.3247
8660763 11.1953 12.8375 19.3034 15.9149 -0.736852 2.83172 59.2511
8660785 11.1337 12.8375 19.3329 15.9339 -0.715423 2.86025 59.238
8660794 11.1337 12.8835 19.3723 15.8959 -0.728095 2.84665 59.2854
8660814 11.1249 12.8835 19.3625 15.8959 -0.720456 2.84728 59.2667
8660825 11.1689 12.8743 19.4117 15.9625 -0.733708 2.86051 59.4174
8660834 11.1689 12.8743 19.4117 15.9625 -0.733708 2.86051 59.4174
8660848 11.1953 12.8927 19.3329 15.991 -0.691989 2.83678 59.4121
8660854 11.1953 12.8927 19.3329 15.991 -0.691989 2.83678 59.4121
8660869 11.1249 12.8743 19.3526 15.9815 -0.683282 2.86558 59.3334
8660875 11.1953 12.8927 19.4117 15.9244 -0.753009 2.83926 59.4242
8660885 11.1953 12.8927 19.4117 15.9244 -0.753009 2.83926 59.4242
8660895 11.2306 12.9019 19.4511 15.9244 -0.779422 2.83398 59.508
8660906 11.257 12.9664 19.3822 15.9339 -0.730109 2.79462 59.5395
8660915 11.257 12.9664 19.3822 15.9339 -0.730109 2.79462 59.5395
8660926 11.2482 12.9019 19.3428 15.8768 -0.763102 2.79675 59.3697
8660938 11.2658 12.8651 19.3133 15.8863 -0.770095 2.7984 59.3305
8660945 11.2658 12.8651 19.3133 15.8863 -0.770095 2.7984 59.3305
8660955 11.2658 12.948 19.3625 15.8578 -0.766607 2.77782 59.4341
8660965 11.2658 12.948 19.3625 15.8578 -0.766607 2.77782 59.4341
8660975 11.2482 12.948 19.3133 15.8387 -0.747579 2.76904 59.3482
8660986 11.2834 12.8743 19.3526 15.8387 -0.81003 2.78866 59.3491
8661010 11.2922 12.9848 19.3723 15.8102 -0.786051 2.75114 59.4596
8661016 11.2746 12.9848 19.3034 15.8102 -0.750764 2.7422 59.373
8661026 11.2746 12.9296 19.3034 15.7531 -0.79959 2.74692 59.2607
8661036 11.301 13.0401 19.4117 15.7816 -0.794083 2.73427 59.5345
8661065 11.2922 12.9848 19.2936 15.715 -0.795287 2.71521 59.2856
8661066 11.2922 12.9848 19.3723 15.7245 -0.823256 2.73347 59.3739
8661079 11.2922 12.9848 19.3723 15.7245 -0.823256 2.73347 59.3739
8661086 11.3539 13.0217 19.4117 15.8007 -0.815283 2.72794 59.5879
8661101 11.301 13.0033 19.3329 15.715 -0.806932 2.71523 59.3522
8661106 11.301 13.0033 19.3329 15.715 -0.806932 2.71523 59.3522
8661116 11.3098 13.0125 19.3329 15.7245 -0.802381 2.71182 59.3798
8661128 11.3098 13.0125 19.3329 15.7245 -0.802381 2.71182 59.3798
8661138 11.3979 12.9572 19.3428 15.715 -0.870393 2.70211 59.4129
8661148 11.3803 13.0401 19.2345 15.7245 -0.778979 2.66219 59.3794
8661157 11.3803 13.0401 19.2345 15.7245 -0.778979 2.66219 59.3794
8661169 11.4244 13.0861 19.2542 15.7245 -0.784971 2.63953 59.4892
8661179 11.4508 13.0769 19.205 15.6484 -0.812742 2.60832 59.3811
8661199 11.4332 13.123 19.264 15.6674 -0.801352 2.61617 59.4876
8661214 11.4332 13.123 19.264 15.6674 -0.801352 2.61617 59.4876
8661220 11.4508 13.0769 19.2739 15.6579 -0.836639 2.62466 59.4595
8661237 11.4684 13.0309 19.2444 15.6579 -0.85182 2.62695 59.4015
8661240 11.4684 13.0309 19.2444 15.6579 -0.85182 2.62695 59.4015
8661250 11.4596 13.0861 19.205 15.6865 -0.795791 2.61092 59.4371
8661260 11.4332 13.0401 19.1951 15.5913 -0.842457 2.6105 59.2597
8661270 11.4332 13.0401 19.1951 15.5913 -0.842457 2.6105 59.2597
8661281 11.486 13.123 19.2345 15.6008 -0.839765 2.58048 59.4443
8661290 11.486 13.123 19.2247 15.6008 -0.835763 2.57842 59.4344
8661304 11.4155 13.0677 19.2247 15.6484 -0.81041 2.62561 59.3563
8661310 11.4772 13.0585 19.205 15.6198 -0.843933 2.59999 59.3605
8661327 11.4772 13.0585 19.205 15.6198 -0.843933 2.59999 59.3605
8661330 11.486 13.0861 19.205 15.6579 -0.818947 2.59714 59.435
8661340 11.4596 13.1138 19.1951 15.5532 -0.83771 2.57283 59.3217
8661350 11.4596 13.1138 19.1951 15.5532 -0.83771 2.57283 59.3217
8661360 11.5124 13.0769 19.205 15.5532 -0.87927 2.57015 59.3475
8661373 11.5124 13.0769 19.205 15.5532 -0.87927 2.57015 59.3475
8661380 11.4596 13.0769 19.1361 15.6293 -0.796518 2.58733 59.3019
8661390 11.4948 13.0769 19.2345 15.5817 -0.871666 2.58752 59.388
8661410 11.5124 13.0769 19.2148 15.5817 -0.870825 2.57819 59.3859
8661420 11.4772 13.1046 19.1853 15.6293 -0.811751 2.58422 59.3964
8661433 11.4772 13.1046 19.1853 15.6293 -0.811751 2.58422 59.3964
8661443 11.4508 13.0585 19.2444 15.6293 -0.84506 2.61803 59.383
8661451 11.4508 13.0585 19.2444 15.6293 -0.84506 2.61803 59.383
8661466 11.4332 13.0217 19.2148 15.6484 -0.833619 2.63201 59.318
8661472 11.4332 13.0401 19.2247 15.6769 -0.817186 2.63454 59.3748
8661481 11.4332 13.0401 19.2247 15.6769 -0.817186 2.63454 59.3748
8661491 11.4244 13.0861 19.2444 15.6769 -0.801609 2.62758 59.4318
8661501 11.4332 13.0769 19.2542 15.6579 -0.82147 2.62579 59.4222
8661511 11.4332 13.0769 19.2542 15.6579 -0.82147 2.62579 59.4222
8661534 11.4332 13.0677 19.2345 15.6674 -0.81332 2.6264 59.4028
8661535 11.4332 13.0677 19.2345 15.6674 -0.81332 2.6264 59.4028
8661541 11.3715 12.9664 19.2542 15.7245 -0.815441 2.69085 59.3166
8661556 11.3539 13.0585 19.3034 15.7055 -0.796562 2.67493 59.4213
8661561 11.3539 13.0585 19.3034 15.7055 -0.796562 2.67493 59.4213
8661571 11.4067 13.0493 19.3428 15.7626 -0.81329 2.68194 59.5614
8661581 11.3803 12.994 19.3231 15.7721 -0.81439 2.70412 59.4696
8661591 11.3803 12.994 19.3231 15.7721 -0.81439 2.70412 59.4696
8661602 11.3539 13.0033 19.3428 15.7436 -0.820051 2.70741 59.4435
8661611 11.3539 13.0033 19.3428 15.7436 -0.820051 2.70741 59.4435
8661624 11.3627 12.994 19.3034 15.7436 -0.811611 2.69939 59.4037
8661631 11.3363 12.9296 19.3723 15.734 -0.861081 2.73879 59.3722
8661647 11.3363 12.9296 19.3723 15.734 -0.861081 2.73879 59.3722
8661653 11.3275 12.9848 19.3329 15.7436 -0.81329 2.71875 59.3888
8661663 11.3187 12.8835 19.2837 15.7531 -0.829594 2.74345 59.239
8661683 11.3363 12.9204 19.3428 15.7912 -0.82822 2.74723 59.3906
8661711 11.3098 12.8743 19.3526 15.8292 -0.824937 2.77878 59.366
8661724 11.2922 12.9112 19.392 15.7912 -0.834332 2.7733 59.3866
8661726 11.2922 12.9112 19.392 15.7912 -0.834332 2.7733 59.3866
8661734 11.301 12.8743 19.4117 15.8863 -0.820564 2.80529 59.4734
8661749 11.2482 12.8467 19.3723 15.8197 -0.824003 2.80766 59.2869
8661755 11.2482 12.8467 19.3723 15.8197 -0.824003 2.80766 59.2869
8661764 11.2834 12.8835 19.3428 15.8768 -0.785473 2.79171 59.3866
8661775 11.2834 12.8835 19.3428 15.8768 -0.785473 2.79171 59.3866
8661784 11.2746 12.8467 19.4117 15.8483 -0.838374 2.81368 59.3813
8661799 11.2834 12.8743 19.4117 15.8673 -0.821669 2.80666 59.4367
8661804 11.2834 12.8743 19.4117 15.8673 -0.821669 2.80666 59.4367
8661814 11.257 12.8651 19.3723 15.8578 -0.80301 2.80731 59.3522
8661824 11.2834 12.8651 19.3822 15.8292 -0.830209 2.79554 59.3599
8661834 11.2834 12.8651 19.3822 15.8292 -0.830209 2.79554 59.3599
8661845 11.2218 12.8835 19.3723 15.8578 -0.780633 2.81235 59.3354
8661856 11.2218 12.8835 19.3723 15.8578 -0.780633 2.81235 59.3354
8661866 11.1777 12.8191 19.4215 15.8863 -0.798357 2.86093 59.3047
8661875 11.2482 12.8467 19.4806 15.8863 -0.83909 2.84352 59.4618
8661888 11.2482 12.8467 19.4806 15.8863 -0.83909 2.84352 59.4618
8661895 11.1953 12.8651 19.4314 15.8197 -0.818518 2.83013 59.3115
8661909 11.213 12.8651 19.4609 15.8673 -0.817025 2.84065 59.4063
8661925 11.1865 12.9019 19.4215 15.8578 -0.778341 2.8275 59.3678
8661935 11.1865 12.9019 19.4215 15.8578 -0.778341 2.8275 59.3678
8661945 11.2394 12.9112 19.4609 15.8863 -0.799523 2.82281 59.4978
8661956 11.1953 12.9388 19.4708 15.8959 -0.769508 2.83169 59.5007
8661966 11.1953 12.9388 19.4708 15.8959 -0.769508 2.83169 59.5007
8661978 11.2306 12.9756 19.4314 15.8959 -0.751877 2.80205 59.5334
8661986 11.2041 12.9296 19.4511 15.8578 -0.78557 2.81998 59.4426
8662001 11.2041 12.9296 19.4511 15.8578 -0.78557 2.81998 59.4426
8662006 11.2041 12.8743 19.4117 15.8768 -0.785244 2.83239 59.367
8662027 11.1777 12.9112 19.4314 15.8197 -0.791302 2.82159 59.34
8662036 11.1777 12.9296 19.4019 15.8578 -0.754718 2.81781 59.3669
8662047 11.1777 12.9296 19.4019 15.8578 -0.754718 2.81781 59.3669
8662056 11.2041 12.9019 19.4511 15.8578 -0.797562 2.82827 59.4149
8662068 11.1865 12.8835 19.4314 15.9054 -0.769696 2.8448 59.4068
8662076 11.1865 12.8835 19.4314 15.9054 -0.769696 2.8448 59.4068
8662088 11.2658 12.948 19.4511 15.8768 -0.794426 2.79991 59.5417
8662110 11.2041 12.8006 19.4806 15.8102 -0.874393 2.85502 59.2956
8662118 11.2218 12.8743 19.4314 15.8959 -0.792183 2.83504 59.4233
8662128 11.2218 12.8743 19.4314 15.8959 -0.792183 2.83504 59.4233
8662138 11.2218 12.8835 19.4215 15.8768 -0.792439 2.82636 59.4037
8662148 11.213 12.8927 19.4019 15.8863 -0.772691 2.82416 59.3939
8662168 11.2658 12.9204 19.4215 15.8483 -0.806779 2.79626 59.456
8662187 11.2482 12.8467 19.4314 15.8292 -0.84392 2.82174 59.3555
8662200 11.2922 12.8927 19.3723 15.8673 -0.801228 2.79043 59.4246
8662208 11.2922 12.8927 19.3723 15.8673 -0.801228 2.79043 59.4246
8662218 11.2746 12.9019 19.3428 15.8673 -0.778016 2.78687 59.3867
8662228 11.2218 12.9388 19.4117 15.8197 -0.789234 2.79605 59.392
8662238 11.2218 12.9388 19.4117 15.8197 -0.789234 2.79605 59.392
8662248 11.2658 12.8927 19.4019 15.8768 -0.798361 2.80635 59.4372
8662276 11.2041 12.9112 19.4117 15.8102 -0.798188 2.80766 59.3372
8662280 11.301 12.8651 19.4708 15.8578 -0.860958 2.8143 59.4947
8662289 11.301 12.8651 19.4708 15.8578 -0.860958 2.8143 59.4947
8662301 11.213 12.8835 19.4806 15.8197 -0.837721 2.8294 59.3968
8662309 11.2482 12.8467 19.4904 15.8673 -0.851364 2.84164 59.4526
8662327 11.2482 12.8467 19.4904 15.8673 -0.851364 2.84164 59.4526
8662330 11.2041 12.8559 19.4904 15.8673 -0.829461 2.8521 59.4178
8662368 11.2041 12.8559 19.4904 15.8673 -0.829461 2.8521 59.4178
8662369 11.257 12.8283 19.4708 15.8387 -0.867386 2.83465 59.3948
8662370 11.2394 12.8467 19.4215 15.8578 -0.823896 2.82822 59.3654
8662382 11.2041 12.9296 19.4412 15.8197 -0.798088 2.81015 59.3947
8662392 11.1953 12.8927 19.4609 15.8292 -0.81439 2.82984 59.3782
8662403 11.1953 12.8927 19.4609 15.8292 -0.81439 2.82984 59.3782
8662411 11.2306 12.9112 19.4708 15.8387 -0.820598 2.81772 59.4512
8662427 11.213 12.8743 19.4511 15.8483 -0.817287 2.83197 59.3866
8662431 11.213 12.8743 19.4511 15.8483 -0.817287 2.83197 59.3866
8662442 11.257 12.9388 19.3723 15.8007 -0.795813 2.77348 59.3688
8662451 11.257 12.9388 19.3723 15.8007 -0.795813 2.77348 59.3688
8662461 11.257 12.9204 19.4117 15.8007 -0.819862 2.7871 59.3897
8662475 11.2658 12.9572 19.4511 15.8483 -0.80281 2.7913 59.5223
8662481 11.2658 12.9572 19.4511 15.8483 -0.80281 2.7913 59.5223
8662492 11.2746 12.994 19.392 15.8007 -0.787029 2.75575 59.4613
8662501 11.2746 12.994 19.392 15.8007 -0.787029 2.75575 59.4613
8662511 11.2658 12.9664 19.4511 15.7436 -0.844273 2.76704 59.4268
8662521 11.2834 12.9296 19.4215 15.7912 -0.834753 2.7765 59.4257
8662531 11.2834 12.9296 19.4215 15.7912 -0.834753 2.7765 59.4257
8662541 11.3187 12.9756 19.3723 15.7436 -0.829737 2.73226 59.4102
8662551 11.257 12.9756 19.3231 15.7912 -0.763865 2.75035 59.3469
8662561 11.257 12.9756 19.3231 15.7912 -0.763865 2.75035 59.3469
8662574 11.2834 12.994 19.3329 15.7721 -0.778936 2.73505 59.3825
8662584 11.2834 12.994 19.3329 15.7721 -0.778936 2.73505 59.3825
8662591 11.2394 12.9204 19.2936 15.7626 -0.781034 2.76018 59.2159
8662603 11.2306 12.9756 19.392 15.8007 -0.77707 2.77442 59.3989
8662623 11.257 12.9112 19.3625 15.8673 -0.774863 2.79344 59.3979
8662633 11.2306 12.9388 19.4117 15.8007 -0.801092 2.7895 59.3817
8662644 11.2306 12.9388 19.4117 15.8007 -0.801092 2.7895 59.3817
8662654 11.2658 12.9664 19.3723 15.8197 -0.779146 2.7665 59.4242
8662667 11.2482 12.9756 19.4215 15.8387 -0.779769 2.78305 59.4841
8662674 11.2482 12.9756 19.4215 15.8387 -0.779769 2.78305 59.4841
8662694 11.2306 12.9664 19.4511 15.8959 -0.76388 2.80884 59.5439
8662696 11.2306 12.9664 19.4511 15.8959 -0.76388 2.80884 59.5439
8662704 11.2394 12.9848 19.4314 15.8578 -0.767957 2.78886 59.5134
8662719 11.2306 12.948 19.3822 15.8578 -0.760265 2.79241 59.4185
8662724 11.2306 12.948 19.3822 15.8578 -0.760265 2.79241 59.4185
8662735 11.213 13.0033 19.3723 15.8483 -0.729245 2.77717 59.4368
8662745 11.1865 12.9388 19.3428 15.9054 -0.709558 2.81005 59.3735
8662755 11.1865 12.9388 19.3428 15.9054 -0.709558 2.81005 59.3735
8662770 11.257 12.9664 19.4314 15.8768 -0.77486 2.793 59.5316
8662775 11.257 12.9664 19.4314 15.8768 -0.77486 2.793 59.5316
8662793 11.1513 12.9019 19.4708 15.9339 -0.751023 2.86373 59.4579
8662796 11.2041 12.9388 19.4708 15.9625 -0.744273 2.84266 59.5762
8662806 11.2041 12.9388 19.4708 15.9625 -0.744273 2.84266 59.5762
8662816 11.1601 12.8835 19.4806 15.8673 -0.795516 2.85502 59.3915
8662826 11.1777 12.8835 19.4511 15.8673 -0.790659 2.84368 59.3796
8662838 11.1777 12.8835 19.4511 15.8673 -0.790659 2.84368 59.3796
8662846 11.1865 12.9019 19.4609 15.8387 -0.802663 2.83167 59.3881
8662856 11.1865 12.9019 19.4609 15.8387 -0.802663 2.83167 59.3881
8662868 11.2041 12.8651 19.4412 15.8768 -0.801282 2.84121 59.3873
8662878 11.1513 12.9112 19.4806 15.8768 -0.775801 2.85131 59.4199
8662887 11.1513 12.9112 19.4806 15.8768 -0.775801 2.85131 59.4199
8662899 11.1953 12.8743 19.5003 15.8483 -0.830148 2.84733 59.4182
8662908 11.213 12.8835 19.5101 15.8863 -0.820777 2.84907 59.493
8662917 11.213 12.8835 19.5101 15.8863 -0.820777 2.84907 59.493
8662930 11.1865 12.8651 19.4314 15.8768 -0.790086 2.84449 59.3598
8662937 11.2658 12.9756 19.4117 15.8102 -0.795317 2.76989 59.4633
8662947 11.2658 12.9756 19.4117 15.8102 -0.795317 2.76989 59.4633
8662968 11.2482 12.9572 19.4708 15.8102 -0.820166 2.7928 59.4863
8662969 11.2482 12.9572 19.4708 15.8102 -0.820166 2.7928 59.4863
8662984 11.2218 12.948 19.4019 15.7721 -0.801897 2.78148 59.3437
8662992 11.2306 12.9664 19.3526 15.7436 -0.789817 2.75728 59.2932
8663001 11.2306 12.9664 19.3526 15.7436 -0.789817 2.75728 59.2932
8663009 11.2482 12.9112 19.2936 15.7436 -0.796939 2.75636 59.1965
8663019 11.3098 12.9388 19.3231 15.7721 -0.809707 2.74163 59.3438
8663029 11.3098 12.9388 19.3231 15.7721 -0.809707 2.74163 59.3438
8663039 11.3627 13.0493 19.3723 15.8007 -0.790907 2.70899 59.585
8663049 11.3627 13.0493 19.3723 15.8007 -0.790907 2.70899 59.585
8663059 11.2482 12.9664 19.3822 15.7436 -0.809051 2.7581 59.3403
8663071 11.2834 13.0217 19.3526 15.7912 -0.766724 2.73479 59.4489
8663080 11.2834 13.0217 19.3526 15.7912 -0.766724 2.73479 59.4489
8663096 11.301 12.994 19.3428 15.7721 -0.790133 2.73182 59.41
8663101 11.3451 12.948 19.392 15.7531 -0.856355 2.73865 59.4382
8663110 11.3451 12.948 19.392 15.7531 -0.856355 2.73865 59.4382
8663120 11.3715 12.948 19.3822 15.7531 -0.86309 2.72873 59.4547
8663141 11.3363 12.9112 19.2936 15.7626 -0.824605 2.73392 59.3036
8663150 11.3187 12.9756 19.4019 15.8102 -0.812809 2.75209 59.5063
8663163 11.3187 12.9756 19.4019 15.8102 -0.812809 2.75209 59.5063
8663170 11.3627 12.9388 19.3526 15.7055 -0.872248 2.71817 59.3596
8663180 11.3275 12.9664 19.3428 15.7912 -0.804625 2.73611 59.4278
8663191 11.3275 12.9664 19.3428 15.7912 -0.804625 2.73611 59.4278
8663201 11.3363 12.9112 19.3625 15.7531 -0.856809 2.74619 59.363
8663221 11.2482 12.8927 19.3329 15.8197 -0.787894 2.78573 59.2936
8663231 11.3275 12.9296 19.4314 15.7436 -0.877351 2.75556 59.432
8663241 11.3275 12.9296 19.4314 15.7436 -0.877351 2.75556 59.432
8663251 11.3098 12.9756 19.4215 15.7245 -0.854445 2.74112 59.4315
8663263 11.301 12.9296 19.3625 15.7816 -0.822027 2.75711 59.3747
8663271 11.301 12.9296 19.3625 15.7816 -0.822027 2.75711 59.3747
8663281 11.3451 12.8651 19.4314 15.7245 -0.920907 2.76565 59.3661
8663291 11.3451 12.8651 19.4314 15.7245 -0.920907 2.76565 59.3661
8663301 11.301 12.9296 19.4412 15.7626 -0.862332 2.76941 59.4344
8663313 11.3627 12.8835 19.4609 15.8102 -0.894651 2.77857 59.5173
8663322 11.3627 12.8835 19.4609 15.8102 -0.894651 2.77857 59.5173
8663331 11.301 12.8743 19.4117 15.7436 -0.882702 2.77595 59.3306
8663341 11.3275 12.8375 19.4511 15.7816 -0.90888 2.795 59.3977
8663351 11.3275 12.8375 19.4511 15.7816 -0.90888 2.795 59.3977
8663364 11.3275 12.8191 19.5101 15.8387 -0.915945 2.82434 59.4954
8663371 11.3275 12.8191 19.5101 15.8387 -0.915945 2.82434 59.4954
8663381 11.2658 12.7914 19.4609 15.8673 -0.870574 2.8469 59.3855
8663391 11.257 12.7546 19.52 15.8863 -0.898732 2.87659 59.4179
8663401 11.257 12.7546 19.52 15.8863 -0.898732 2.87659 59.4179
8663412 11.2834 12.7546 19.5495 15.953 -0.892399 2.88823 59.5405
8663423 11.2306 12.773 19.4609 15.8959 -0.851834 2.86888 59.3604
8663442 11.3187 12.7638 19.5101 15.9625 -0.882581 2.86881 59.5551
8663464 11.2394 12.6994 19.52 15.8673 -0.924008 2.89465 59.326
8663474 11.257 12.727 19.5101 15.8768 -0.910938 2.88095 59.3709
8663484 11.257 12.727 19.5101 15.8768 -0.910938 2.88095 59.3709
8663496 11.1953 12.7638 19.4511 15.8578 -0.854091 2.87247 59.268
8663504 11.213 12.7362 19.4511 15.9434 -0.835975 2.89299 59.3437
8663524 11.213 12.7546 19.4609 15.9434 -0.831966 2.88945 59.3719
8663549 11.1513 12.6901 19.52 15.8483 -0.900556 2.92017 59.2097
8663554 11.2041 12.773 19.4609 15.8578 -0.857672 2.86905 59.2959
8663564 11.2041 12.773 19.4609 15.8578 -0.857672 2.86905 59.2959
8663575 11.2482 12.773 19.5003 15.9434 -0.854287 2.88133 59.465
8663585 11.2394 12.7822 19.4806 15.8959 -0.859411 2.86748 59.3981
8663601 11.2394 12.7822 19.4806 15.8959 -0.859411 2.86748 59.3981
8663605 11.2922 12.8099 19.4511 15.9149 -0.848585 2.84116 59.4681
8663628 11.2922 12.8099 19.4511 15.9149 -0.848585 2.84116 59.4681
8663630 11.2041 12.8099 19.4019 15.8673 -0.813401 2.84781 59.2832
8663638 11.2658 12.8651 19.3428 15.9339 -0.761496 2.81424 59.4076
8663645 11.2658 12.8651 19.3428 15.9339 -0.761496 2.81424 59.4076
8663658 11.2482 12.8467 19.3723 15.9244 -0.778478 2.82915 59.3916
8663665 11.2834 12.8559 19.3034 15.8768 -0.781409 2.79189 59.3196
8663681 11.2834 12.8559 19.3034 15.8768 -0.781409 2.79189 59.3196
8663685 11.301 12.8559 19.392 15.8483 -0.837108 2.79895 59.3972
8663695 11.301 12.8559 19.392 15.8483 -0.837108 2.79895 59.3972
8663708 11.2746 12.9388 19.3526 15.8483 -0.774306 2.77395 59.4143
8663715 11.257 12.8927 19.4019 15.8102 -0.823727 2.79531 59.3618
8663735 11.2746 12.8651 19.3428 15.8197 -0.814717 2.78812 59.3022
8663746 11.2746 12.948 19.3231 15.7436 -0.803752 2.74351 59.2893
8663766 11.2746 13.0033 19.3329 15.7721 -0.771347 2.73493 59.3829
8663786 11.2746 12.948 19.1853 15.8292 -0.710145 2.73272 59.2371
8663800 11.3451 12.994 19.2444 15.7912 -0.759684 2.70226 59.3746
8663806 11.3451 12.994 19.2444 15.7912 -0.759684 2.70226 59.3746
8663816 11.3803 12.994 19.2345 15.8387 -0.749415 2.69958 59.4476
8663826 11.3275 13.0125 19.205 15.7626 -0.74079 2.68794 59.3075
8663838 11.3275 13.0125 19.205 15.7626 -0.74079 2.68794 59.3075
8663848 11.3539 13.0769 19.1754 15.7436 -0.719821 2.65078 59.3498
8663858 11.3539 13.0769 19.1754 15.7436 -0.719821 2.65078 59.3498
8663869 11.3891 13.0309 19.1853 15.7626 -0.749958 2.66 59.3679
8663878 11.3891 13.0585 19.205 15.7721 -0.741896 2.65785 59.4247
8663898 11.3539 13.0769 19.0672 15.7626 -0.667194 2.63218 59.2606
8663907 11.3803 13.1138 19.1164 15.696 -0.711127 2.60974 59.3064
8663918 11.3803 13.1138 19.1164 15.696 -0.711127 2.60974 59.3064
8663929 11.4244 13.1046 19.1065 15.6674 -0.741503 2.59137 59.3029
8663939 11.4244 13.1046 19.1065 15.6674 -0.741503 2.59137 59.3029
8663949 11.3539 13.0769 19.1656 15.715 -0.728172 2.64278 59.3114
8663960 11.4067 13.123 19.077 15.7436 -0.681217 2.60088 59.3503
8663969 11.4067 13.123 19.077 15.7436 -0.681217 2.60088 59.3503
8663991 11.3451 13.1598 19.1459 15.696 -0.688842 2.6127 59.3468
8663992 11.3891 13.1322 19.1065 15.7055 -0.698593 2.60159 59.3333
8663999 11.3891 13.1322 19.1065 15.7055 -0.698593 2.60159 59.3333
8664009 11.442 13.123 19.1558 15.7436 -0.727832 2.60687 59.4643
8664019 11.442 13.123 19.1558 15.7436 -0.727832 2.60687 59.4643
8664030 11.3715 13.0677 19.1754 15.696 -0.751665 2.63836 59.3106
8664040 11.3539 13.0769 19.2345 15.6579 -0.781137 2.64524 59.3232
8664052 11.3539 13.0769 19.2345 15.6579 -0.781137 2.64524 59.3232
8664060 11.4155 13.0861 19.1754 15.7245 -0.749278 2.62576 59.4016
8664072 11.4244 13.0769 19.2148 15.6484 -0.805986 2.61821 59.3645
8664080 11.4244 13.0769 19.2148 15.6484 -0.805986 2.61821 59.3645
8664090 11.4332 13.1138 19.2739 15.7436 -0.776358 2.63678 59.5644
8664110 11.3803 13.1046 19.2542 15.6674 -0.783814 2.63526 59.4065
8664120 11.3715 13.0309 19.3231 15.7245 -0.815478 2.68593 59.45
8664131 11.3715 13.0309 19.3231 15.7245 -0.815478 2.68593 59.45
8664144 11.4067 13.0125 19.2542 15.7436 -0.801504 2.67059 59.417
8664151 11.3891 13.0493 19.2739 15.7816 -0.769858 2.67685 59.4939
8664161 11.3891 13.0493 19.2739 15.7816 -0.769858 2.67685 59.4939
8664172 11.4067 13.0125 19.3329 15.7531 -0.8294 2.68888 59.5052
8664196 11.3715 12.9664 19.3526 15.7626 -0.838949 2.71911 59.4531
8664204 11.3715 12.9664 19.3526 15.7626 -0.838949 2.71911 59.4531
8664206 11.3627 12.9572 19.2837 15.7912 -0.79892 2.71614 59.3948
8664231 11.3275 12.9204 19.4019 15.7721 -0.856936 2.75811 59.4218
8664234 11.3451 12.9112 19.3625 15.7626 -0.856243 2.74552 59.3813
8664242 11.3451 12.9112 19.3625 15.7626 -0.856243 2.74552 59.3813
8664260 11.2922 12.9388 19.4412 15.7721 -0.850607 2.77125 59.4444
8664282 11.301 12.9019 19.4314 15.7912 -0.857928 2.78152 59.4255
8664284 11.301 12.9019 19.4314 15.7912 -0.857928 2.78152 59.4255
8664286 11.3187 12.8467 19.4609 15.8578 -0.87212 2.81252 59.484
8664295 11.301 12.8375 19.5101 15.8863 -0.876522 2.83647 59.535
8664308 11.301 12.8375 19.5101 15.8863 -0.876522 2.83647 59.535
8664315 11.3363 12.8559 19.4806 15.9149 -0.858431 2.82021 59.5877
8664325 11.3363 12.8559 19.4806 15.9149 -0.858431 2.82021 59.5877
8664335 11.2746 12.8283 19.52 15.8768 -0.877942 2.84722 59.4997
8664345 11.2922 12.8467 19.5298 15.8483 -0.893477 2.83259 59.517
8664365 11.257 12.8283 19.4412 15.8292 -0.859529 2.82665 59.3557
8664375 11.257 12.8283 19.4412 15.8292 -0.859529 2.82665 59.3557
8664385 11.2041 12.8006 19.4806 15.8387 -0.861938 2.86086 59.3241
8664404 11.1865 12.8375 19.4904 15.8387 -0.842726 2.85709 59.3532
8664418 11.1513 12.773 19.52 15.8102 -0.88097 2.88734 59.2545
8664425 11.1865 12.7822 19.4904 15.7721 -0.895905 2.86009 59.2313
8664439 11.1865 12.7822 19.4904 15.7721 -0.895905 2.86009 59.2313
8664446 11.1953 12.7546 19.5298 15.8578 -0.890148 2.89134 59.3375
8664460 11.2218 12.727 19.579 15.8673 -0.928749 2.90367 59.3951
8664469 11.2218 12.727 19.579 15.8673 -0.928749 2.90367 59.3951
8664476 11.2658 12.7822 19.5692 15.8483 -0.926797 2.8679 59.4655
8664491 11.2658 12.7822 19.5692 15.8483 -0.926797 2.8679 59.4655
8664497 11.2746 12.7914 19.5397 15.8102 -0.930999 2.84868 59.4159
8664507 11.3098 12.7914 19.52 15.8292 -0.928988 2.83797 59.4505
8664518 11.3098 12.7914 19.52 15.8292 -0.928988 2.83797 59.4505
8664528 11.301 12.7914 19.5298 15.7626 -0.958501 2.82899 59.3849
8664537 11.3098 12.8375 19.5003 15.7816 -0.921689 2.81038 59.4293
8664558 11.301 12.8651 19.5101 15.7816 -0.910065 2.80676 59.4579
8664572 11.301 12.8651 19.5101 15.7816 -0.910065 2.80676 59.4579
8664579 11.3451 12.8191 19.4904 15.7055 -0.973284 2.78768 59.3601
8664589 11.4155 12.8467 19.4609 15.715 -0.973599 2.75421 59.4382
8664609 11.3803 12.8651 19.5003 15.7245 -0.963072 2.7693 59.4702
8664620 11.3891 12.9112 19.4708 15.6674 -0.959523 2.73507 59.4384
8664639 11.4067 12.8835 19.4412 15.7055 -0.950141 2.73982 59.437
8664649 11.4067 12.8835 19.4412 15.7055 -0.950141 2.73982 59.437
8664661 11.4155 12.9112 19.392 15.6484 -0.946659 2.70697 59.3671
8664670 11.4508 12.9388 19.3329 15.5817 -0.954059 2.66215 59.3043
8664684 11.4508 12.9388 19.3329 15.5817 -0.954059 2.66215 59.3043
8664690 11.3891 12.9204 19.2444 15.6198 -0.884382 2.67552 59.1737
8664700 11.4948 12.9848 19.2936 15.5722 -0.939976 2.62518 59.3455
8664721 11.486 13.0309 19.3428 15.6198 -0.915486 2.63428 59.4795
8664731 11.486 13.0217 19.3231 15.5817 -0.928128 2.62499 59.4125
8664741 11.486 13.0217 19.3231 15.5817 -0.928128 2.62499 59.4125
8664751 11.4772 12.9848 19.3723 15.6389 -0.935647 2.66065 59.4732
8664761 11.4772 12.9848 19.3723 15.6389 -0.935647 2.66065 59.4732
8664771 11.486 13.0125 19.3428 15.6103 -0.927664 2.63777 59.4516
8664783 11.5389 12.9664 19.3625 15.5913 -0.985411 2.63588 59.459
8664796 11.5389 12.9664 19.3625 15.5913 -0.985411 2.63588 59.459
8664802 11.4772 12.9572 19.3231 15.6008 -0.944398 2.65072 59.3583
8664811 11.4948 12.9756 19.2837 15.5532 -0.948338 2.62189 59.3074
8664832 11.5212 13.0309 19.3034 15.5913 -0.926256 2.6097 59.4468
8664852 11.486 12.9756 19.2739 15.6198 -0.91165 2.63634 59.3553
8664865 11.486 12.9204 19.3133 15.6865 -0.922655 2.67481 59.4061
8664873 11.486 12.9204 19.3133 15.6865 -0.922655 2.67481 59.4061
8664888 11.4948 12.9756 19.2444 15.6293 -0.899085 2.62956 59.3441
8664892 11.4508 13.0033 19.2739 15.6103 -0.88944 2.63662 59.3382
8664913 11.4508 13.0033 19.2739 15.6103 -0.88944 2.63662 59.3382
8664914 11.486 12.9756 19.2936 15.6579 -0.903027 2.64837 59.4131
8664923 11.486 12.9756 19.2936 15.6579 -0.903027 2.64837 59.4131
8664936 11.442 12.9848 19.2345 15.6484 -0.861271 2.64445 59.3097
8664943 11.4596 12.9848 19.3133 15.6293 -0.908732 2.65163 59.387
8664953 11.4596 12.9848 19.3133 15.6293 -0.908732 2.65163 59.387
8664963 11.4684 13.0125 19.1853 15.6484 -0.83995 2.61812 59.3145
8664972 11.4684 13.0585 19.1853 15.6389 -0.824046 2.60246 59.351
8665005 11.4596 13.0033 19.2542 15.6769 -0.855981 2.64378 59.394
8665007 11.4596 13.0033 19.2542 15.6769 -0.855981 2.64378 59.394
8665014 11.486 12.9756 19.2837 15.7245 -0.870016 2.66016 59.4699
8665029 11.3891 13.0125 19.2148 15.7055 -0.794813 2.65974 59.3219
8665034 11.3891 13.0125 19.2148 15.7055 -0.794813 2.65974 59.3219
8665050 11.4508 13.0309 19.2247 15.6484 -0.840789 2.62609 59.3547
8665055 11.442 12.9756 19.2542 15.6484 -0.873297 2.65128 59.3202
8665065 11.442 12.9756 19.2542 15.6484 -0.873297 2.65128 59.3202
8665075 11.4508 13.0125 19.2345 15.7626 -0.80315 2.65737 59.4603
8665085 11.4508 13.0125 19.2345 15.7626 -0.80315 2.65737 59.4603
8665097 11.4332 13.0217 19.264 15.734 -0.8164 2.66007 59.4529
8665107 11.4155 13.0309 19.205 15.6769 -0.805986 2.63841 59.3283
8665126 11.3979 12.9664 19.2542 15.734 -0.822067 2.68495 59.3526
8665135 11.442 12.9572 19.2542 15.6769 -0.868879 2.66271 59.3303
8665148 11.442 12.9572 19.2542 15.6769 -0.868879 2.66271 59.3303
8665155 11.3715 12.9848 19.2247 15.7912 -0.766429 2.69305 59.3722
8665165 11.3715 12.9848 19.2247 15.7912 -0.766429 2.69305 59.3722
8665175 11.3715 12.9112 19.2345 15.7816 -0.806601 2.7151 59.2988
8665185 11.3803 13.0125 19.264 15.7816 -0.778227 2.68839 59.4384
8665206 11.3803 13.0125 19.264 15.7816 -0.778227 2.68839 59.4384
8665207 11.3803 13.0033 19.1754 15.7721 -0.750193 2.67078 59.3311
8665221 11.3187 13.0309 19.2247 15.8483 -0.700146 2.7069 59.4225
8665226 11.3187 13.0309 19.2247 15.8483 -0.700146 2.7069 59.4225
8665237 11.3539 12.9848 19.1853 15.8007 -0.739016 2.69211 59.3247
8665256 11.3275 12.9756 19.1951 15.8387 -0.719716 2.71268 59.337
8665266 11.3363 13.0585 19.2444 15.8292 -0.711676 2.69357 59.4684
8665277 11.3363 13.0585 19.2444 15.8292 -0.711676 2.69357 59.4684
8665286 11.3363 12.9572 19.2148 15.8673 -0.726977 2.72552 59.3756
8665296 11.2922 12.9848 19.1558 15.8483 -0.681035 2.71426 59.2811
8665308 11.2922 12.9848 19.1558 15.8483 -0.681035 2.71426 59.2811
8665318 11.3363 12.9756 19.205 15.8768 -0.710852 2.71996 59.3937
8665338 11.257 12.9296 19.205 15.8578 -0.706597 2.75349 59.2493
8665348 11.2746 12.994 19.1951 15.8863 -0.66949 2.7328 59.3501
8665358 11.2746 12.994 19.1951 15.8863 -0.66949 2.7328 59.3501
8665368 11.257 12.9296 19.1656 15.9149 -0.665687 2.75716 59.2671
8665382 11.2746 12.948 19.2444 15.9625 -0.676635 2.77242 59.4294
8665389 11.2746 12.948 19.2444 15.9625 -0.676635 2.77242 59.4294
8665405 11.2658 13.0033 19.1853 15.9339 -0.637296 2.74048 59.3883
8665413 11.2306 13.0033 19.1951 15.972 -0.61045 2.7609 59.401
8665430 11.2394 12.9388 19.2247 15.9054 -0.682825 2.76991 59.3082
8665439 11.2394 12.9388 19.2247 15.9054 -0.682825 2.76991 59.3082
8665449 11.2394 13.0125 19.205 15.953 -0.622344 2.75361 59.4098
8665459 11.301 13.0033 19.1754 15.991 -0.623077 2.73972 59.4708
8665480 11.2834 13.0401 19.1262 15.9149 -0.612602 2.70808 59.3646
8665495 11.2306 13.0125 19.1754 15.8768 -0.639486 2.73443 59.2953
8665500 11.2306 13.0125 19.1754 15.8768 -0.639486 2.73443 59.2953
8665520 11.2658 13.0125 19.2542 15.9339 -0.661555 2.75194 59.4664
8665522 11.2658 13.0125 19.2542 15.9339 -0.661555 2.75194 59.4664
8665530 11.2306 13.0493 19.2936 15.8863 -0.667892 2.74977 59.4598
8665544 11.2658 13.0033 19.2936 15.9434 -0.677529 2.76475 59.5061
8665556 11.2658 13.0033 19.2936 15.9434 -0.677529 2.76475 59.5061
8665560 11.2482 13.0125 19.3231 15.9054 -0.694856 2.7655 59.4891
8665570 11.1953 13.0033 19.3133 15.8959 -0.677305 2.78008 59.4077
8665580 11.1953 13.0033 19.3133 15.8959 -0.677305 2.78008 59.4077
8665591 11.2041 12.9572 19.4019 15.8959 -0.737035 2.80942 59.4591
8665613 11.1425 12.948 19.3822 15.8863 -0.711903 2.82468 59.359
8665621 11.1161 12.9204 19.4117 15.972 -0.688061 2.8645 59.4201
8665641 11.1777 12.8651 19.3329 15.9625 -0.709099 2.84452 59.3383
8665651 11.0632 12.9019 19.4314 15.953 -0.690688 2.88609 59.3495
8665672 11.1425 12.8191 19.4708 16.0862 -0.717404 2.92231 59.5185
8665681 11.1425 12.8191 19.4708 16.0862 -0.717404 2.92231 59.5185
8665691 11.1073 12.8651 19.4609 16.0672 -0.687332 2.91319 59.5005
8665704 11.1073 12.7362 19.4904 16.1053 -0.738674 2.96579 59.4391
8665711 11.1073 12.7362 19.4904 16.1053 -0.738674 2.96579 59.4391
8665726 11.1249 12.8006 19.5003 16.0672 -0.738458 2.93529 59.493
8665731 11.0456 12.8191 19.4904 16.1624 -0.653003 2.97093 59.5175
8665741 11.0456 12.8191 19.4904 16.1624 -0.653003 2.97093 59.5175
8665755 11.0368 12.7546 19.5101 16.1243 -0.701723 2.98937 59.4258
8665761 11.0368 12.7546 19.5101 16.1243 -0.701723 2.98937 59.4258
8665771 11.0368 12.7822 19.4806 16.0577 -0.706521 2.96154 59.3573
8665781 11.1073 12.6994 19.4708 16.0386 -0.775519 2.95943 59.316
8665791 11.1073 12.6994 19.4708 16.0386 -0.775519 2.95943 59.316
8665805 11.1161 12.7914 19.4511 16.0386 -0.731121 2.92493 59.3972
8665811 11.1161 12.7914 19.4511 16.0386 -0.731121 2.92493 59.3972
8665829 11.0896 12.7638 19.4708 15.953 -0.777541 2.92784 59.2772
8665834 11.1161 12.7822 19.4019 16.0672 -0.702615 2.92351 59.3673
8665842 11.1161 12.7822 19.4019 16.0672 -0.702615 2.92351 59.3673
8665853 11.1425 12.8283 19.4215 16.0196 -0.722142 2.89598 59.4119
8665863 11.1777 12.8006 19.4117 15.9815 -0.760989 2.88392 59.3716
8665876 11.1777 12.8006 19.4117 15.9815 -0.760989 2.88392 59.3716
8665884 11.1953 12.8467 19.392 16.0196 -0.723697 2.86851 59.4536
8665898 11.1777 12.8467 19.4511 15.9434 -0.773594 2.87032 59.4189
8665902 11.1777 12.7454 19.4511 15.9434 -0.817609 2.90084 59.3176
8665913 11.2041 12.7822 19.4511 15.953 -0.808218 2.88371 59.3904
8665925 11.2041 12.7822 19.4511 15.953 -0.808218 2.88371 59.3904
8665933 11.1689 12.7822 19.4511 15.9625 -0.789721 2.89627 59.3647
8665944 11.2482 12.8006 19.4019 15.8863 -0.827077 2.84123 59.337
8665954 11.2482 12.8006 19.4019 15.8863 -0.827077 2.84123 59.337
8665967 11.2394 12.7822 19.4117 15.8292 -0.860415 2.83973 59.2625
8665974 11.2394 12.7822 19.4215 15.8292 -0.864424 2.84175 59.2724
8665984 11.2482 12.8006 19.4215 15.8768 -0.839238 2.84332 59.3472
8665994 11.2658 12.8006 19.4708 15.8578 -0.874706 2.8442 59.395
8666014 11.2482 12.8006 19.4609 15.8387 -0.871843 2.84358 59.3485
8666028 11.2834 12.8375 19.4708 15.9244 -0.836867 2.84148 59.5161
8666037 11.2834 12.8375 19.4708 15.9244 -0.836867 2.84148 59.5161
8666044 11.3363 12.8006 19.52 15.8197 -0.939821 2.82534 59.4766
8666054 11.3363 12.8006 19.52 15.8197 -0.939821 2.82534 59.4766
8666064 11.2834 12.8283 19.5003 15.8387 -0.890101 2.83277 59.4507
8666074 11.2746 12.8283 19.52 15.8387 -0.894512 2.83944 59.4616
8666084 11.2746 12.8283 19.52 15.8387 -0.894512 2.83944 59.4616
8666095 11.301 12.8375 19.52 15.8292 -0.905356 2.82681 59.4877
8666107 11.3187 12.8006 19.5101 15.8483 -0.916256 2.83445 59.4777
8666115 11.3187 12.8006 19.5101 15.8483 -0.916256 2.83445 59.4777
8666129 11.3098 12.8375 19.4904 15.8007 -0.909401 2.81227 59.4384
8666145 11.301 12.7362 19.4806 15.8483 -0.925271 2.85305 59.3661
8666155 11.2746 12.773 19.5298 15.8007 -0.939208 2.85026 59.3781
8666165 11.2746 12.773 19.5298 15.8007 -0.939208 2.85026 59.3781
8666180 11.2041 12.773 19.5397 15.8102 -0.910461 2.87542 59.327
8666189 11.2482 12.7454 19.52 15.7816 -0.944903 2.86061 59.2952
8666198 11.2482 12.7454 19.52 15.7816 -0.944903 2.86061 59.2952
8666205 11.2482 12.7638 19.52 15.8483 -0.907744 2.86869 59.3802
8666225 11.1953 12.727 19.5594 15.8673 -0.910047 2.90763 59.349
8666236 11.1689 12.727 19.5692 15.9434 -0.870112 2.9331 59.4085
8666247 11.1689 12.727 19.5692 15.9434 -0.870112 2.9331 59.4085
8666255 11.1777 12.7362 19.5397 15.9149 -0.870121 2.91585 59.3685
8666265 11.1953 12.6901 19.5594 15.9625 -0.884597 2.93811 59.4073
8666275 11.1953 12.6901 19.5594 15.9625 -0.884597 2.93811 59.4073
8666286 11.1953 12.6901 19.6578 16.0767 -0.874822 2.98114 59.62
8666295 11.1953 12.6901 19.6578 16.0767 -0.874822 2.98114 59.62
8666305 11.1249 12.6441 19.5889 16.0767 -0.838296 3.00245 59.4346
8666315 11.1601 12.6533 19.6479 16.0482 -0.88498 2.99516 59.5095
8666326 11.1601 12.6533 19.6479 16.0482 -0.88498 2.99516 59.5095
8666335 11.1073 12.6533 19.579 16.0482 -0.835541 2.99724 59.3878
8666350 11.0984 12.6165 19.5692 16.0482 -0.843985 3.0091 59.3323
8666356 11.0984 12.6165 19.5692 16.0482 -0.843985 3.0091 59.3323
8666365 11.1337 12.5796 19.5889 16.1053 -0.857496 3.02508 59.4075
8666379 11.1337 12.5796 19.5889 16.1053 -0.857496 3.02508 59.4075
8666385 11.0632 12.5704 19.7464 16.1338 -0.884397 3.08665 59.5138
8666404 11.0808 12.5612 19.6873 16.1243 -0.875738 3.07035 59.4537
8666407 11.0808 12.5612 19.6873 16.1243 -0.875738 3.07035 59.4537
8666415 11.1161 12.506 19.7464 16.1529 -0.925563 3.09399 59.5213
8666431 11.1161 12.506 19.7464 16.1529 -0.925563 3.09399 59.5213
8666438 11.0544 12.5152 19.6972 16.1243 -0.889064 3.09438 59.391
8666446 11.0632 12.4875 19.7661 16.1529 -0.920168 3.11962 59.4697
8666458 11.0632 12.4875 19.7661 16.1529 -0.920168 3.11962 59.4697
8666466 11.072 12.5152 19.7464 16.0957 -0.928621 3.09315 59.4293
8666478 11.0632 12.5152 19.6775 16.0577 -0.913726 3.07437 59.3135
8666501 11.1337 12.5612 19.579 15.953 -0.928016 2.99791 59.2269
8666506 11.1425 12.6073 19.5397 15.972 -0.887123 2.97713 59.2614
8666516 11.1425 12.6073 19.5397 15.972 -0.887123 2.97713 59.2614
8666527 11.2041 12.6625 19.6086 15.972 -0.916021 2.95571 59.4472
8666536 11.2041 12.6625 19.6086 15.972 -0.916021 2.95571 59.4472
8666547 11.1953 12.6625 19.5594 15.9149 -0.917411 2.93679 59.3321
8666559 11.257 12.7178 19.5397 15.9054 -0.914475 2.89557 59.4198
8666578 11.2394 12.6994 19.5298 15.8768 -0.923841 2.8986 59.3454
8666588 11.2394 12.6994 19.5298 15.8768 -0.923841 2.8986 59.3454
8666599 11.2922 12.727 19.5692 15.9339 -0.92424 2.89402 59.5223
8666608 11.3539 12.7454 19.4708 15.8863 -0.922066 2.84019 59.4564
8666624 11.3539 12.7454 19.4708 15.8863 -0.922066 2.84019 59.4564
8666628 11.2658 12.7546 19.4511 15.8292 -0.899249 2.84817 59.3007
8666638 11.3715 12.7638 19.4117 15.8578 -0.909691 2.81143 59.4048
8666652 11.3715 12.7638 19.4117 15.8578 -0.909691 2.81143 59.4048
8666658 11.3803 12.7822 19.4511 15.8292 -0.933638 2.80549 59.4428
8666677 11.3803 12.7822 19.4511 15.8292 -0.933638 2.80549 59.4428
8666679 11.3098 12.7638 19.4412 15.8387 -0.904961 2.83209 59.3536
8666688 11.4155 12.8191 19.3625 15.8292 -0.895953 2.76572 59.4263
8666708 11.3891 12.8375 19.3526 15.7721 -0.898105 2.75431 59.3514
8666718 11.4244 12.8559 19.3526 15.7436 -0.91683 2.73238 59.3765
8666730 11.4244 12.8559 19.3526 15.7436 -0.91683 2.73238 59.3765
8666738 11.442 12.9296 19.3133 15.7531 -0.871739 2.69898 59.4379
8666754 11.442 12.9296 19.3133 15.7531 -0.871739 2.69898 59.4379
8666759 11.4244 12.9204 19.2444 15.715 -0.857162 2.6848 59.3041
8666771 11.4155 12.9112 19.2444 15.7245 -0.853443 2.69215 59.2956
8666780 11.4155 12.9112 19.2444 15.7245 -0.853443 2.69215 59.2956
8666789 11.4508 12.9296 19.2444 15.6865 -0.876355 2.66825 59.3112
8666802 11.4508 13.0217 19.1951 15.7436 -0.791387 2.6425 59.4111
8666809 11.4508 13.0217 19.1951 15.7436 -0.791387 2.6425 59.4111
8666819 11.4508 13.0953 19.1164 15.6865 -0.752066 2.59231 59.349
8666836 11.442 13.0493 19.1164 15.7626 -0.735411 2.62448 59.3702
8666840 11.442 13.0493 19.1164 15.7626 -0.735411 2.62448 59.3702
8666860 11.4684 13.0125 19.1164 15.6865 -0.795275 2.61168 59.2837
8666871 11.5389 13.0677 19.0475 15.6579 -0.784299 2.55399 59.312
8666881 11.4772 13.0677 19.1262 15.7436 -0.754088 2.60665 59.4147
8666895 11.4772 13.0677 19.1262 15.7436 -0.754088 2.60665 59.4147
8666900 11.4684 13.1598 19.0672 15.6865 -0.711204 2.55771 59.3818
8666911 11.4772 13.1046 19.0376 15.6865 -0.726674 2.56526 59.3058
8666920 11.4772 13.1046 19.0376 15.6865 -0.726674 2.56526 59.3058
8666930 11.5036 13.0861 19.0475 15.6865 -0.749502 2.56496 59.3237
8666943 11.5036 13.0861 19.0475 15.6865 -0.749502 2.56496 59.3237
8666950 11.4244 13.1414 19.0475 15.6769 -0.697215 2.57007 59.2902
8666966 11.4772 13.1782 19.0278 15.715 -0.678372 2.54739 59.3982
8666970 11.4772 13.1782 19.0278 15.715 -0.678372 2.54739 59.3982
8666980 11.4948 13.1414 19.0869 15.7531 -0.709194 2.5734 59.4761
8667000 11.4508 13.1322 19.0672 15.7055 -0.707717 2.57508 59.3556
8667015 11.4332 13.1506 19.0967 15.715 -0.700501 2.58301 59.3955
8667020 11.4332 13.1506 19.0967 15.715 -0.700501 2.58301 59.3955
8667030 11.4244 13.169 19.0573 15.696 -0.681038 2.56795 59.3467
8667040 11.442 13.1138 19.1065 15.7055 -0.7282 2.59138 59.3678
8667055 11.442 13.1138 19.1065 15.7055 -0.7282 2.59138 59.3678
8667061 11.3979 13.0953 19.1262 15.7436 -0.709724 2.62196 59.3631
8667073 11.3979 13.0953 19.1262 15.7436 -0.709724 2.62196 59.3631
8667081 11.4067 13.0585 19.1262 15.6674 -0.762352 2.6144 59.2589
8667094 11.3187 13.0677 19.1361 15.7245 -0.701509 2.65184 59.247
8667101 11.3187 13.0677 19.1361 15.7245 -0.701509 2.65184 59.247
8667115 11.3715 13.0217 19.1361 15.7436 -0.734885 2.65378 59.2728
8667121 11.3539 12.994 19.1459 15.696 -0.764401 2.6594 59.1898
8667143 11.3539 13.0217 19.1558 15.7531 -0.731599 2.66511 59.2844
8667153 11.3539 13.0217 19.1558 15.7531 -0.731599 2.66511 59.2844
8667163 11.3187 13.0125 19.1853 15.734 -0.741531 2.68054 59.2504
8667173 11.3715 13.0125 19.3231 15.8007 -0.790432 2.70716 59.5077
8667187 11.3715 13.0125 19.3231 15.8007 -0.790432 2.70716 59.5077
8667194 11.3363 13.0309 19.264 15.715 -0.781189 2.6822 59.3462
8667203 11.3451 12.9848 19.2936 15.7436 -0.804426 2.70535 59.367
8667223 11.3451 13.0125 19.2936 15.8102 -0.763519 2.7109 59.4613
8667235 11.3451 13.0125 19.2345 15.8102 -0.739422 2.69868 59.4022
8667243 11.3363 12.9388 19.2345 15.7721 -0.784339 2.7154 59.2817
8667258 11.3275 12.9848 19.2444 15.7721 -0.764751 2.70632 59.3288
8667264 11.3275 12.9848 19.2444 15.7721 -0.764751 2.70632 59.3288
8667274 11.3363 13.0217 19.1164 15.7245 -0.720648 2.65621 59.1988
8667284 11.3539 13.0861 19.2148 15.7436 -0.731927 2.65622 59.3984
8667305 11.4067 13.1138 19.1656 15.7436 -0.72145 2.62209 59.4297
8667329 11.3275 13.0401 19.1558 15.8102 -0.688036 2.67936 59.3335
8667334 11.442 13.0861 19.1951 15.7531 -0.755718 2.62797 59.4763
8667345 11.442 13.0861 19.1951 15.7531 -0.755718 2.62797 59.4763
8667355 11.3627 13.0953 19.1459 15.715 -0.715734 2.63058 59.319
8667365 11.3891 13.123 19.1262 15.696 -0.71477 2.60645 59.3343
8667376 11.3891 13.123 19.1262 15.696 -0.71477 2.60645 59.3343
8667385 11.4244 13.169 19.0967 15.6674 -0.709525 2.57021 59.3575
8667401 11.3715 13.0861 19.077 15.696 -0.703357 2.61233 59.2306
8667405 11.3715 13.0861 19.077 15.696 -0.703357 2.61233 59.2306
8667415 11.4155 13.169 19.0967 15.6674 -0.705922 2.57282 59.3487
8667425 11.4155 13.169 19.0967 15.6674 -0.705922 2.57282 59.3487
8667435 11.3715 13.2335 19.0376 15.5817 -0.672831 2.53639 59.2244
8667448 11.4067 13.2703 19.0672 15.6769 -0.642304 2.54128 59.4212
8667470 11.4067 13.2703 19.0672 15.6769 -0.642304 2.54128 59.4212
8667472 11.3891 13.3072 18.9884 15.6484 -0.599164 2.51307 59.3331
8667476 11.3803 13.3256 19.1065 15.6579 -0.631993 2.53704 59.4703
8667486 11.3803 13.3256 19.1065 15.6579 -0.631993 2.53704 59.4703
8667496 11.4155 13.3072 19.0869 15.6103 -0.666842 2.51796 59.4199
8667508 11.4155 13.3072 19.0869 15.6103 -0.666842 2.51796 59.4199
8667518 11.3275 13.2703 19.0573 15.6198 -0.630388 2.55067 59.2749
8667528 11.3979 13.2611 19.0081 15.6484 -0.630759 2.52821 59.3155
8667541 11.3979 13.2611 19.0081 15.6484 -0.630759 2.52821 59.3155
8667548 11.3539 13.3072 18.9983 15.6198 -0.601046 2.51953 59.2791
8667558 11.3363 13.2887 19.0967 15.6674 -0.621672 2.56085 59.3891
8667568 11.3363 13.2887 19.0967 15.6674 -0.621672 2.56085 59.3891
8667578 11.3979 13.2887 19.0573 15.6769 -0.626713 2.53638 59.4209
8667588 11.3979 13.2887 19.0573 15.6769 -0.626713 2.53638 59.4209
8667597 11.3187 13.2611 19.0081 15.6579 -0.594033 2.55366 59.2458
8667611 11.3363 13.3164 19.1065 15.6484 -0.622006 2.55076 59.4075
8667618 11.3363 13.3164 19.1065 15.6484 -0.622006 2.55076 59.4075
8667628 11.3098 13.2979 19.0672 15.6293 -0.611143 2.55177 59.3043
8667638 11.3451 13.2887 19.0967 15.6389 -0.637613 2.55226 59.3694
8667648 11.3451 13.2887 19.0967 15.6389 -0.637613 2.55226 59.3694
8667659 11.3979 13.2703 19.0967 15.6674 -0.654903 2.54808 59.4324
8667684 11.3715 13.3072 19.018 15.6389 -0.60817 2.52248 59.3355
8667688 11.3891 13.3624 19.0278 15.6484 -0.591531 2.50505 59.4277
8667708 11.3891 13.3716 19.0081 15.5532 -0.620522 2.47814 59.322
8667718 11.3363 13.2979 19.1065 15.5817 -0.65874 2.54222 59.3225
8667730 11.3363 13.2979 19.1065 15.5817 -0.65874 2.54222 59.3225
8667738 11.4155 13.2703 19.077 15.6389 -0.666389 2.53276 59.4017
8667754 11.4155 13.2703 19.077 15.6389 -0.666389 2.53276 59.4017
8667758 11.4244 13.3164 18.9884 15.5627 -0.646673 2.4819 59.2918
8667768 11.3979 13.39 18.9884 15.6008 -0.587569 2.47601 59.3772
8667778 11.3979 13.39 18.9884 15.6008 -0.587569 2.47601 59.3772
8667789 11.4155 13.3808 19.0376 15.5817 -0.627197 2.4799 59.4158
8667801 11.4155 13.3808 19.0376 15.5817 -0.627197 2.4799 59.4158
8667808 11.4067 13.3716 19.0376 15.5151 -0.656334 2.47115 59.3311
8667824 11.4155 13.3624 18.9983 15.5342 -0.639538 2.46697 59.3104
8667829 11.4155 13.3624 18.9983 15.5342 -0.639538 2.46697 59.3104
8667839 11.4244 13.4269 18.9687 15.5151 -0.611401 2.43514 59.3351
8667849 11.4596 13.3992 19.0278 15.4866 -0.674367 2.43937 59.3732
8667872 11.4684 13.4637 19.018 15.4675 -0.654316 2.41175 59.4176
8667879 11.4508 13.4729 18.9786 15.439 -0.639297 2.39981 59.3412
8667897 11.4508 13.4729 18.9786 15.439 -0.639297 2.39981 59.3412
8667900 11.4948 13.5098 19.0081 15.439 -0.653559 2.3824 59.4516
8667921 11.4772 13.4545 18.9294 15.3628 -0.670862 2.37079 59.2239
8667931 11.4948 13.4913 19.0573 15.3914 -0.702213 2.38813 59.4349
8667944 11.4948 13.4913 19.0573 15.3914 -0.702213 2.38813 59.4349
8667950 11.4948 13.5098 19.0376 15.4009 -0.682084 2.38059 59.4431
8667960 11.4244 13.519 18.9786 15.3723 -0.637344 2.37989 59.2942
8667970 11.4244 13.519 18.9786 15.3723 -0.637344 2.37989 59.2942
8667980 11.5653 13.4821 18.9983 15.3438 -0.731458 2.34755 59.3895
8667994 11.5653 13.4821 18.9983 15.3438 -0.731458 2.34755 59.3895
8668001 11.5653 13.4545 18.9884 15.3343 -0.743541 2.35149 59.3425
8668010 11.5477 13.4637 19.0376 15.2962 -0.768979 2.35633 59.3452
8668023 11.5477 13.4637 19.0376 15.2962 -0.768979 2.35633 59.3452
8668030 11.5301 13.5005 19.0081 15.2676 -0.746116 2.33832 59.3063
8668041 11.5301 13.5005 19.0081 15.2676 -0.746116 2.33832 59.3063
8668050 11.5477 13.4453 18.9884 15.2486 -0.777563 2.34106 59.23
8668062 11.5565 13.519 18.9983 15.3152 -0.724272 2.33328 59.3889
8668085 11.5389 13.4177 19.018 15.2486 -0.798064 2.35804 59.2231
8668093 11.5741 13.4361 19.0278 15.2772 -0.796025 2.35053 59.3151
8668107 11.5741 13.4361 19.0278 15.2772 -0.796025 2.35053 59.3151
8668115 11.5565 13.4453 19.0967 15.2867 -0.808795 2.36969 59.3851
8668129 11.5653 13.3992 19.1164 15.2296 -0.865306 2.37262 59.3105
8668131 11.5653 13.3992 19.1164 15.2296 -0.865306 2.37262 59.3105
8668141 11.6269 13.3808 19.0475 15.3343 -0.824782 2.36758 59.3895
8668151 11.6269 13.3808 19.0475 15.3343 -0.824782 2.36758 59.3895
8668163 11.5829 13.3808 19.018 15.3057 -0.807218 2.36811 59.2874
8668172 11.5653 13.4361 19.1262 15.2772 -0.832544 2.37406 59.4048
8668196 11.671 13.4361 19.1065 15.2772 -0.867486 2.33901 59.4908
8668203 11.6181 13.3716 19.1853 15.2581 -0.914343 2.38596 59.4332
8668217 11.6181 13.3716 19.1853 15.2581 -0.914343 2.38596 59.4332
8668223 11.5917 13.3808 19.0376 15.2581 -0.839573 2.35958 59.2683
8668233 11.5917 13.3808 19.0376 15.2581 -0.839573 2.35958 59.2683
8668244 11.5565 13.3164 19.1065 15.2486 -0.885585 2.40148 59.228
8668253 11.5565 13.3716 19.1164 15.3247 -0.832294 2.40353 59.3692
8668274 11.5829 13.3624 19.1065 15.2867 -0.85963 2.38831 59.3385
8668284 11.5389 13.3348 19.1558 15.2962 -0.86963 2.4218 59.3256
8668294 11.5389 13.3348 19.1558 15.2962 -0.86963 2.4218 59.3256
8668305 11.5389 13.3348 19.2345 15.3343 -0.885026 2.44652 59.4424
8668327 11.5124 13.2887 19.1558 15.3247 -0.866507 2.44916 59.2817
8668334 11.5124 13.2243 19.2345 15.2867 -0.943334 2.47676 59.2579
8668350 11.5124 13.2243 19.2345 15.2867 -0.943334 2.47676 59.2579
8668354 11.5829 13.2795 19.2542 15.3533 -0.926632 2.45799 59.4699
8668364 11.6093 13.2059 19.2444 15.4199 -0.936416 2.48383 59.4795
8668374 11.6093 13.2059 19.2444 15.4199 -0.936416 2.48383 59.4795
8668385 11.4684 13.2427 19.2739 15.4199 -0.875205 2.52068 59.4049
8668395 11.4684 13.2427 19.2739 15.4199 -0.875205 2.52068 59.4049
8668405 11.5301 13.2427 19.2542 15.3247 -0.933763 2.47833 59.3517
8668417 11.4948 13.2519 19.2247 15.3914 -0.874376 2.49382 59.3628
8668425 11.4948 13.2519 19.2247 15.3914 -0.874376 2.49382 59.3628
8668444 11.5477 13.2611 19.1656 15.3819 -0.871986 2.46108 59.3562
8668447 11.5036 13.169 19.264 15.4009 -0.925955 2.52596 59.3376
8668471 11.5212 13.2151 19.2542 15.3819 -0.917314 2.5011 59.3724
8668475 11.5212 13.2151 19.2542 15.3819 -0.917314 2.5011 59.3724
8668485 11.4508 13.1966 19.2837 15.4009 -0.900428 2.53755 59.332
8668498 11.486 13.2151 19.2247 15.4675 -0.853671 2.5233 59.3933
8668522 11.4596 13.2611 19.2444 15.477 -0.826767 2.52364 59.4421
8668526 11.4155 13.1874 19.264 15.4675 -0.853057 2.56055 59.3345
8668538 11.4155 13.1874 19.264 15.4675 -0.853057 2.56055 59.3345
8668548 11.442 13.1874 19.2837 15.4295 -0.888409 2.54887 59.3426
8668570 11.4332 13.1322 19.1853 15.3533 -0.902213 2.53111 59.1039
8668578 11.442 13.169 19.2739 15.5151 -0.855103 2.57021 59.4
8668594 11.442 13.169 19.2739 15.5151 -0.855103 2.57021 59.4
8668598 11.4508 13.1598 19.3034 15.5246 -0.870544 2.57849 59.4386
8668608 11.3979 13.1506 19.264 15.5246 -0.837053 2.58863 59.3372
8668628 11.3979 13.1782 19.3329 15.5722 -0.83237 2.60477 59.4813
8668641 11.3979 13.1782 19.3329 15.5722 -0.83237 2.60477 59.4813
8668648 11.3627 13.1322 19.2247 15.5151 -0.818805 2.59432 59.2347
8668659 11.3979 13.1506 19.3034 15.5722 -0.832371 2.6068 59.4242
8668669 11.3979 13.1506 19.3034 15.5722 -0.832371 2.6068 59.4242
8668679 11.3539 13.169 19.264 15.5246 -0.811088 2.59623 59.3116
8668690 11.3539 13.0861 19.2936 15.5722 -0.838491 2.63696 59.3058
8668699 11.3539 13.0861 19.2936 15.5722 -0.838491 2.63696 59.3058
8668713 11.4508 13.1782 19.3133 15.6198 -0.825186 2.59496 59.5621
8668719 11.4508 13.1782 19.3133 15.6198 -0.825186 2.59496 59.5621
8668729 11.3451 13.0953 19.2936 15.6198 -0.810179 2.64675 59.3538
8668739 11.3803 13.1046 19.3428 15.6103 -0.844684 2.64181 59.438
8668761 11.3803 13.1046 19.3428 15.6103 -0.844684 2.64181 59.438
8668763 11.3187 13.0861 19.2837 15.6008 -0.807677 2.65134 59.2893
8668770 11.3363 13.1138 19.2444 15.6293 -0.774363 2.63562 59.3237
8668783 11.3363 13.1138 19.2444 15.6293 -0.774363 2.63562 59.3237
8668790 11.257 13.0493 19.3625 15.6579 -0.805826 2.70892 59.3267
8668800 11.2482 13.0953 19.3329 15.6674 -0.766034 2.69366 59.3439
8668822 11.3187 13.1322 19.3329 15.696 -0.766417 2.66765 59.4797
8668845 11.2394 13.123 19.3329 15.7531 -0.713339 2.7058 59.4484
8668850 11.2482 13.0493 19.3822 15.7436 -0.773056 2.73334 59.4232
8668860 11.2482 13.0493 19.3822 15.7436 -0.773056 2.73334 59.4232
8668871 11.2922 13.0677 19.2837 15.7055 -0.759384 2.68646 59.3492
8668881 11.257 13.0677 19.2542 15.715 -0.728776 2.69281 59.2939
8668896 11.257 13.0677 19.2542 15.715 -0.728776 2.69281 59.2939
8668901 11.2746 13.0769 19.3231 15.7436 -0.747763 2.70501 59.4182
8668911 11.2746 13.0769 19.3231 15.7436 -0.747763 2.70501 59.4182
8668922 11.2658 13.0401 19.2345 15.696 -0.744583 2.69039 59.2364
8668931 11.2394 13.0585 19.2247 15.6769 -0.729993 2.68678 59.1995
8668947 11.2394 13.0585 19.2247 15.6769 -0.729993 2.68678 59.1995
8668951 11.2658 13.0861 19.2936 15.7436 -0.728115 2.69878 59.3891
8668961 11.2658 13.0861 19.3034 15.7436 -0.732139 2.70082 59.3989
8668975 11.2834 13.0585 19.3034 15.715 -0.763693 2.69789 59.3603
8668981 11.3187 13.0585 19.2739 15.7245 -0.761893 2.68324 59.3756
8669002 11.3187 13.0585 19.2739 15.7245 -0.761893 2.68324 59.3756
8669003 11.3098 13.0953 19.2739 15.7245 -0.742322 2.67489 59.4036
8669011 11.3275 13.1414 19.2345 15.6769 -0.734107 2.63789 59.3803
8669029 11.3275 13.1414 19.2345 15.6769 -0.734107 2.63789 59.3803
8669033 11.3275 13.123 19.264 15.7055 -0.741772 2.65545 59.42
8669043 11.3363 13.1138 19.2444 15.7245 -0.733075 2.65543 59.4189
8669055 11.3363 13.1138 19.2444 15.7245 -0.733075 2.65543 59.4189
8669063 11.3803 13.1138 19.2247 15.734 -0.738895 2.64024 59.4528
8669080 11.3803 13.1138 19.2247 15.734 -0.738895 2.64024 59.4528
8669084 11.3803 13.123 19.0967 15.6769 -0.707319 2.59891 59.2769
8669093 11.3451 13.1414 19.1361 15.696 -0.692783 2.61611 59.3185
8669105 11.3451 13.1414 19.1361 15.696 -0.692783 2.61611 59.3185
8669114 11.3979 13.1874 19.0573 15.6674 -0.674593 2.56433 59.3101
8669131 11.4155 13.0861 19.1951 15.7816 -0.732583 2.64174 59.4785
8669144 11.3979 13.1506 19.2345 15.6865 -0.754754 2.61624 59.4695
8669155 11.3979 13.1506 19.2345 15.6865 -0.754754 2.61624 59.4695
