11385334 12.0145 15.7476 16.8232 17.5358 1.7891 1.59293 62.1211
11385342 12.0145 15.7476 16.8232 17.5358 1.7891 1.59293 62.1211
11385355 12.0762 15.7752 16.8128 17.4676 1.75184 1.55213 62.1318
11385362 12.0585 15.7384 16.7089 17.3799 1.75762 1.52505 61.8857
11385377 12.0585 15.7384 16.7089 17.3799 1.75762 1.52505 61.8857
11385382 12.085 15.812 16.6153 17.302 1.78509 1.4609 61.8143
11385403 12.085 15.766 16.5425 17.302 1.79936 1.45721 61.6955
11385416 12.0762 15.812 16.6465 17.2533 1.75709 1.45941 61.788
11385423 12.0762 15.812 16.6465 17.2533 1.75709 1.45941 61.788
11385433 12.1026 15.7936 16.6049 17.263 1.76039 1.45029 61.7641
11385443 12.1202 15.812 16.6361 17.2728 1.74985 1.44968 61.8411
11385453 12.1202 15.812 16.6361 17.2728 1.74985 1.44968 61.8411
11385463 12.1819 15.8304 16.7089 17.2923 1.70607 1.44859 62.0134
11385473 12.1819 15.8304 16.7089 17.2923 1.70607 1.44859 62.0134
11385486 12.2523 15.8857 16.6777 17.3507 1.73181 1.42127 62.1664
11385494 12.1907 15.9133 16.6569 17.341 1.774 1.42359 62.1019
11385504 12.1907 15.9133 16.6569 17.341 1.774 1.42359 62.1019
11385518 12.2435 15.9133 16.6049 17.1851 1.71519 1.36403 61.9468
11385524 12.1819 15.9317 16.5841 17.2533 1.78329 1.38588 61.951
11385551 12.2523 15.9502 16.4801 17.2728 1.81198 1.3438 61.9554
11385560 12.1466 15.9502 16.4593 17.302 1.87777 1.3736 61.8581
11385568 12.1466 15.9502 16.4593 17.302 1.87777 1.3736 61.8581
11385577 12.1554 15.941 16.5321 17.2728 1.82799 1.38329 61.9013
11385586 12.1554 15.941 16.5321 17.2728 1.82799 1.38329 61.9013
11385596 12.1642 15.9502 16.4697 17.2728 1.85467 1.36478 61.8569
11385606 12.129 15.9317 16.4801 17.3117 1.87314 1.38986 61.8526
11385626 12.1026 15.9317 16.4697 17.3799 1.91462 1.40957 61.884
11385637 12.1731 15.9594 16.4905 17.3117 1.85984 1.37318 61.9347
11385646 12.1731 15.9594 16.4905 17.3117 1.85984 1.37318 61.9347
11385656 12.1466 16.0238 16.5113 17.3117 1.88634 1.36771 61.9935
11385666 12.1466 16.0238 16.5113 17.3117 1.88634 1.36771 61.9935
11385676 12.1202 15.941 16.4801 17.3702 1.90224 1.40261 61.9115
11385697 12.1642 15.9778 16.5113 17.4189 1.90147 1.39874 62.0723
11385698 12.1642 15.9778 16.5113 17.4189 1.90147 1.39874 62.0723
11385707 12.1554 15.9686 16.4905 17.4481 1.92175 1.40535 62.0627
11385717 12.1202 15.9686 16.4489 17.3897 1.93337 1.39272 61.9274
11385762 12.0938 15.9778 16.5217 17.4287 1.93115 1.42179 62.0219
11385764 12.0938 15.9778 16.5217 17.4287 1.93115 1.42179 62.0219
11385766 12.0938 15.9133 16.4385 17.3994 1.93242 1.41422 61.8451
11385767 12.1114 15.9686 16.3761 17.4384 1.98702 1.38976 61.8945
11385777 12.1114 15.9686 16.3761 17.4384 1.98702 1.38976 61.8945
11385787 12.1554 15.9778 16.3554 17.3702 1.95494 1.35607 61.8588
11385797 12.085 15.9778 16.4489 17.3702 1.94487 1.39533 61.8819
11385807 12.085 15.9778 16.4489 17.3702 1.94487 1.39533 61.8819
11385817 12.1466 15.9317 16.4593 17.4287 1.91815 1.40631 61.9664
11385827 12.1466 15.9317 16.4593 17.4287 1.91815 1.40631 61.9664
11385840 12.0762 15.9594 16.4489 17.4189 1.95998 1.41324 61.9034
11385848 12.1026 15.987 16.4385 17.4384 1.97053 1.40092 61.9665
11385858 12.1026 15.987 16.4385 17.4384 1.97053 1.40092 61.9665
11385868 12.1114 15.9686 16.4281 17.4579 1.97161 1.40546 61.966
11385878 12.1114 15.9778 16.4073 17.4287 1.97323 1.39203 61.9252
11385888 12.1114 15.9778 16.4073 17.4287 1.97323 1.39203 61.9252
11385900 12.1642 15.9778 16.3657 17.4092 1.96108 1.36462 61.917
11385908 12.1642 15.9778 16.3657 17.4092 1.96108 1.36462 61.917
11385919 12.1466 15.9686 16.3554 17.3507 1.94808 1.35654 61.8213
11385929 12.1731 16.0146 16.4489 17.3994 1.93116 1.36872 62.036
11385939 12.1731 16.0146 16.4489 17.3994 1.93116 1.36872 62.036
11385949 12.1642 16.0699 16.3554 17.3702 1.98536 1.32944 61.9597
11385958 12.1642 16.0699 16.3554 17.3702 1.98536 1.32944 61.9597
11385969 12.1554 16.0515 16.3761 17.302 1.94792 1.32615 61.8851
11385978 12.1907 16.0607 16.2826 17.3702 2.00214 1.30882 61.9041
11385998 12.1731 16.0146 16.345 17.3215 1.94736 1.32863 61.8541
11386008 12.1995 16.0975 16.3554 17.3507 1.97304 1.30858 62.0031
11386018 12.1995 16.0975 16.3554 17.3507 1.97304 1.30858 62.0031
11386028 12.2699 16.0423 16.4177 17.3117 1.88032 1.30975 62.0417
11386041 12.2699 16.0423 16.4177 17.3117 1.88032 1.30975 62.0417
11386048 12.1819 16.0146 16.3865 17.3312 1.92906 1.33764 61.9143
11386059 12.2083 15.987 16.4177 17.3312 1.89372 1.34484 61.9443
11386069 12.2083 15.987 16.4177 17.3312 1.89372 1.34484 61.9443
11386080 12.1554 16.0146 16.4593 17.2728 1.88711 1.34778 61.9022
11386091 12.1466 15.9686 16.3969 17.2728 1.90086 1.34851 61.7849
11386099 12.1466 15.9686 16.3969 17.2728 1.90086 1.34851 61.7849
11386109 12.1731 16.0054 16.4697 17.2825 1.87514 1.35 61.9307
11386119 12.1731 16.0054 16.4697 17.2825 1.87514 1.35 61.9307
11386130 12.0938 15.9317 16.4801 17.3702 1.91029 1.41205 61.8759
11386139 12.1202 15.987 16.5529 17.4481 1.91683 1.42344 62.1082
11386151 12.1202 15.987 16.5529 17.4481 1.91683 1.42344 62.1082
11386159 12.1731 15.9502 16.5009 17.4384 1.89913 1.4057 62.0625
11386169 12.1819 15.9778 16.4905 17.3605 1.88107 1.3767 62.0106
11386179 12.1819 15.9778 16.4905 17.3605 1.88107 1.3767 62.0106
11386189 12.0762 15.9502 16.4385 17.3507 1.93567 1.39841 61.8156
11386199 12.0762 15.9502 16.4385 17.3507 1.93567 1.39841 61.8156
11386216 12.0938 15.8581 16.5321 17.2923 1.83098 1.42592 61.7762
11386221 12.0938 15.8397 16.4489 17.2825 1.8566 1.41037 61.6649
11386231 12.0938 15.8397 16.4489 17.2825 1.8566 1.41037 61.6649
11386241 12.1202 15.8949 16.5425 17.3994 1.86889 1.4349 61.957
11386253 12.0762 15.8765 16.5321 17.341 1.86378 1.4364 61.8257
11386271 12.0938 15.8857 16.5841 17.4287 1.86978 1.45984 61.9922
11386281 12.0938 15.8857 16.5841 17.4287 1.86978 1.45984 61.9922
11386292 12.129 15.8949 16.5529 17.4384 1.8751 1.44337 62.0152
11386308 12.1466 15.8949 16.5737 17.3799 1.83664 1.43046 61.9952
11386312 12.1466 15.8949 16.5737 17.3799 1.83664 1.43046 61.9952
11386322 12.129 15.9225 16.5633 17.3799 1.85909 1.42553 61.9948
11386332 12.129 15.987 16.4801 17.3897 1.92283 1.39236 61.9858
11386342 12.129 15.987 16.4801 17.3897 1.92283 1.39236 61.9858
11386352 12.1731 16.0054 16.5009 17.3507 1.88705 1.37187 62.0301
11386362 12.1731 16.0054 16.5009 17.3507 1.88705 1.37187 62.0301
11386372 12.1114 15.9686 16.4697 17.3702 1.92089 1.39534 61.9199
11386382 12.1378 16.0054 16.4385 17.3702 1.93669 1.37175 61.952
11386392 12.1378 16.0054 16.4385 17.3702 1.93669 1.37175 61.952
11386402 12.1202 15.8949 16.4593 17.3897 1.90137 1.41453 61.8641
11386412 12.129 15.9594 16.4281 17.4092 1.9424 1.39254 61.9257
11386422 12.129 15.9594 16.4281 17.4092 1.9424 1.39254 61.9257
11386432 12.1378 16.033 16.4489 17.3702 1.94245 1.36674 61.99
11386442 12.1378 16.033 16.4489 17.3702 1.94245 1.36674 61.99
11386452 12.1026 15.9962 16.3138 17.3994 2.01388 1.36245 61.812
11386462 12.1466 16.0146 16.3346 17.3702 1.98156 1.34407 61.866
11386474 12.1466 16.0146 16.3346 17.3702 1.98156 1.34407 61.866
11386482 12.1114 16.0699 16.3242 17.3312 2.00753 1.32788 61.8367
11386492 12.1378 16.0054 16.3554 17.3702 1.9729 1.35342 61.8688
11386502 12.1378 16.0054 16.3554 17.3702 1.9729 1.35342 61.8688
11386513 12.1554 16.0515 16.3346 17.3799 1.99503 1.33418 61.9214
11386522 12.1554 16.0515 16.3346 17.3799 1.99503 1.33418 61.9214
11386534 12.0938 16.0607 16.3034 17.3702 2.03537 1.33898 61.828
11386542 12.1731 16.0607 16.3761 17.4189 1.98714 1.34486 62.0288
11386552 12.1731 16.0607 16.3761 17.4189 1.98714 1.34486 62.0288
11386562 12.1731 16.1988 16.3346 17.3897 2.04557 1.29293 62.0961
11386572 12.1378 16.0054 16.3242 17.341 1.97563 1.34009 61.8084
11386583 12.1378 16.0054 16.3242 17.341 1.97563 1.34009 61.8084
11386593 12.1466 16.1067 16.3657 17.3312 1.98771 1.31806 61.9503
11386603 12.1466 16.1067 16.3657 17.3312 1.98771 1.31806 61.9503
11386613 12.1995 16.1067 16.2826 17.341 2.00455 1.28791 61.9297
11386623 12.1466 16.1436 16.2722 17.3507 2.04943 1.29198 61.9131
11386633 12.1466 16.1436 16.2722 17.3507 2.04943 1.29198 61.9131
11386643 12.1995 16.0883 16.293 17.3312 1.98955 1.29291 61.912
11386653 12.1731 16.0699 16.293 17.3702 2.00871 1.31334 61.9061
11386663 12.1731 16.0699 16.293 17.3702 2.00871 1.31334 61.9061
11386673 12.1731 16.1343 16.3657 17.3799 2.00453 1.31459 62.0531
11386693 12.1466 16.0699 16.3865 17.4189 1.99752 1.35168 62.022
11386718 12.129 16.0515 16.3657 17.3605 1.98571 1.34373 61.9067
11386720 12.129 16.0515 16.3657 17.3605 1.98571 1.34373 61.9067
11386723 12.1819 16.0423 16.4073 17.3215 1.92668 1.3328 61.9529
11386733 12.1554 16.0238 16.3969 17.3994 1.96484 1.35951 61.9756
11386754 12.1026 16.033 16.4385 17.4579 1.99486 1.39302 62.032
11386768 12.1026 16.033 16.4385 17.4579 1.99486 1.39302 62.032
11386774 12.1554 15.9594 16.4385 17.4189 1.93002 1.38997 61.9723
11386787 12.085 16.0607 16.3761 17.4774 2.04717 1.38095 61.9992
11386794 12.085 16.0607 16.3761 17.4774 2.04717 1.38095 61.9992
11386804 12.1554 15.9962 16.3969 17.4287 1.96543 1.37323 61.9772
11386814 12.1114 15.9133 16.4281 17.4676 1.95469 1.42224 61.9205
11386830 12.1114 15.9133 16.4281 17.4676 1.95469 1.42224 61.9205
11386838 12.1026 15.9225 16.4281 17.4384 1.95107 1.41572 61.8917
11386847 12.1026 15.9225 16.4281 17.4384 1.95107 1.41572 61.8917
11386854 12.0674 15.9041 16.4281 17.4481 1.96319 1.4321 61.8477
11386864 12.0145 15.9594 16.4905 17.5261 2.00854 1.46217 61.9905
11386884 12.0762 15.9317 16.5009 17.5066 1.95969 1.45115 62.0154
11386895 12.0674 15.7936 16.5113 17.5845 1.93661 1.50949 61.9568
11386916 12.0585 15.9225 16.5529 17.5553 1.95943 1.48024 62.0893
11386936 12.0233 15.7936 16.5633 17.6138 1.94404 1.53889 61.994
11386946 12.0057 15.7844 16.6257 17.5066 1.88123 1.53632 61.9224
11386955 12.0057 15.7844 16.6257 17.5066 1.88123 1.53632 61.9224
11386966 12.0321 15.8673 16.5633 17.5066 1.92775 1.4936 61.9693
11386977 12.0057 15.7936 16.6673 17.6332 1.9138 1.57034 62.0998
11386987 12.0057 15.7936 16.6673 17.6332 1.9138 1.57034 62.0998
11386998 11.9617 15.8212 16.7089 17.6527 1.93236 1.58792 62.1445
11387007 11.9617 15.8212 16.7089 17.6527 1.93236 1.58792 62.1445
11387017 12.0321 15.812 16.7609 17.6235 1.86512 1.5765 62.2285
11387027 12.0233 15.8581 16.7401 17.6722 1.91308 1.5726 62.2937
11387047 11.9617 15.7752 16.6569 17.5748 1.90881 1.57212 61.9685
11387057 11.9969 15.7107 16.6465 17.4871 1.84119 1.55866 61.8412
11387067 11.9969 15.7107 16.6465 17.4871 1.84119 1.55866 61.8412
11387077 11.9705 15.6831 16.6361 17.5553 1.87236 1.5857 61.845
11387087 11.9705 15.6831 16.6361 17.5553 1.87236 1.5857 61.845
11387098 11.8824 15.6371 16.5737 17.5358 1.91338 1.60397 61.629
11387108 11.8912 15.7015 16.7297 17.5748 1.88031 1.62651 61.8972
11387129 11.9088 15.6739 16.6569 17.6332 1.9158 1.6261 61.8728
11387139 11.9088 15.7291 16.7089 17.5943 1.89928 1.61408 61.9411
11387148 11.9088 15.7291 16.7089 17.5943 1.89928 1.61408 61.9411
11387158 11.9881 15.812 16.6777 17.6138 1.91654 1.56816 62.0915
11387168 11.9881 15.812 16.6777 17.6138 1.91654 1.56816 62.0915
11387178 11.9617 15.7107 16.8024 17.5553 1.81441 1.61664 62.0301
11387189 11.9881 15.7384 16.8232 17.6527 1.84067 1.62764 62.2024
11387201 11.9881 15.7384 16.8232 17.6527 1.84067 1.62764 62.2024
11387211 11.9705 15.7291 16.7713 17.5748 1.83825 1.60682 62.0456
11387219 11.9969 15.766 16.7297 17.5261 1.84038 1.57038 62.0186
11387230 11.9969 15.766 16.7297 17.5261 1.84038 1.57038 62.0186
11387239 12.0057 15.7015 16.7609 17.5358 1.80262 1.59412 62.0039
11387259 11.9793 15.7015 16.7609 17.4676 1.78851 1.58644 61.9093
11387272 12.0145 15.7568 16.8024 17.565 1.81242 1.5923 62.1388
11387280 12.0145 15.7568 16.8024 17.565 1.81242 1.5923 62.1388
11387289 11.9617 15.7476 16.7401 17.4481 1.8151 1.57009 61.8974
11387304 11.9969 15.7015 16.8544 17.5163 1.75873 1.61248 62.0692
11387311 11.9969 15.7015 16.8544 17.5163 1.75873 1.61248 62.0692
11387326 11.9705 15.6923 16.7817 17.565 1.81635 1.61683 62.0095
11387334 11.9705 15.6923 16.7817 17.565 1.81635 1.61683 62.0095
11387341 11.9617 15.6923 16.8024 17.5845 1.81845 1.62788 62.0409
11387351 11.9617 15.6463 16.8544 17.5456 1.76418 1.64303 62.0079
11387361 11.9617 15.6463 16.8544 17.5456 1.76418 1.64303 62.0079
11387371 11.9352 15.6739 16.8544 17.5163 1.77499 1.63641 61.9799
11387381 11.9088 15.6739 16.8024 17.5845 1.83443 1.647 61.9697
11387391 11.9088 15.6739 16.8024 17.5845 1.83443 1.647 61.9697
11387401 11.9617 15.6186 16.8544 17.5261 1.74651 1.64625 61.9608
11387411 11.9617 15.6186 16.8544 17.5261 1.74651 1.64625 61.9608
11387422 11.8824 15.6094 16.8648 17.5943 1.79839 1.68697 61.9509
11387431 11.8736 15.6555 16.8336 17.5845 1.82929 1.66814 61.9472
11387441 11.8736 15.6555 16.8336 17.5845 1.82929 1.66814 61.9472
11387451 11.9264 15.6555 16.8128 17.5943 1.81906 1.65156 61.989
11387461 11.9528 15.6463 16.8856 17.5553 1.75817 1.65421 62.04
11387470 11.9528 15.6463 16.8856 17.5553 1.75817 1.65421 62.04
11387488 11.9352 15.6555 16.8544 17.5943 1.79727 1.65814 62.0394
11387492 11.9352 15.6555 16.8544 17.5943 1.79727 1.65814 62.0394
11387503 11.8648 15.6371 16.8128 17.604 1.84252 1.67519 61.9187
11387514 11.9352 15.6463 16.9168 17.604 1.77056 1.6761 62.1023
11387532 11.9528 15.6094 16.896 17.643 1.77272 1.68517 62.1013
11387549 11.9176 15.6094 16.896 17.6138 1.77698 1.68837 62.0368
11387553 11.9176 15.6094 16.896 17.6138 1.77698 1.68837 62.0368
11387563 11.8824 15.6186 16.8752 17.604 1.80099 1.68882 61.9803
11387574 11.8824 15.6186 16.8752 17.604 1.80099 1.68882 61.9803
11387583 11.856 15.6094 16.8232 17.5943 1.82784 1.68515 61.8829
11387594 11.9088 15.6463 16.9064 17.643 1.801 1.68933 62.1045
11387603 11.9088 15.6463 16.9064 17.643 1.801 1.68933 62.1045
11387617 11.8912 15.6094 16.8232 17.5845 1.80893 1.67356 61.9084
11387623 11.9088 15.6278 16.8336 17.604 1.811 1.67029 61.9743
11387633 11.9088 15.6278 16.8336 17.604 1.811 1.67029 61.9743
11387643 11.9088 15.6463 16.8336 17.6235 1.82517 1.66952 62.0122
11387654 11.8912 15.6463 16.7609 17.6138 1.86069 1.6565 61.9121
11387665 11.8912 15.6463 16.7609 17.6138 1.86069 1.6565 61.9121
11387675 11.9 15.7476 16.7817 17.6138 1.88566 1.63141 62.043
11387686 11.9 15.7476 16.7817 17.6138 1.88566 1.63141 62.043
11387694 11.9617 15.6923 16.792 17.5456 1.80838 1.61723 61.9916
11387705 11.9 15.6923 16.792 17.643 1.87145 1.65477 62.0273
11387715 11.9 15.6923 16.792 17.643 1.87145 1.65477 62.0273
11387730 11.9528 15.7476 16.7713 17.6235 1.8709 1.61711 62.0952
11387749 11.9352 15.7291 16.7817 17.6235 1.86716 1.629 62.0695
11387755 11.9352 15.7291 16.7505 17.6235 1.88067 1.62228 62.0383
11387775 11.944 15.7936 16.6985 17.6235 1.92339 1.59145 62.0596
11387785 11.9705 15.7936 16.6673 17.6819 1.94717 1.59028 62.1133
11387795 11.9705 15.7936 16.6673 17.6819 1.94717 1.59028 62.1133
11387806 11.9793 15.812 16.6569 17.643 1.94023 1.57234 62.0912
11387816 11.9176 15.8304 16.6049 17.6138 1.98562 1.5663 61.9667
11387826 11.9176 15.8304 16.6049 17.6138 1.98562 1.5663 61.9667
11387837 11.9352 15.8489 16.6257 17.5748 1.96127 1.55274 61.9846
11387846 11.9352 15.8489 16.6257 17.5748 1.96127 1.55274 61.9846
11387858 11.8648 15.8581 16.6569 17.5845 1.9854 1.57798 61.9642
11387867 11.8824 15.8304 16.6465 17.6722 2.00454 1.59738 62.0315
11387877 11.8824 15.8304 16.6465 17.6722 2.00454 1.59738 62.0315
11387887 11.8912 15.7936 16.6673 17.7209 1.99606 1.61988 62.073
11387898 11.8912 15.812 16.6465 17.7794 2.03356 1.62306 62.1291
11387907 11.8912 15.812 16.6465 17.7794 2.03356 1.62306 62.1291
11387918 11.9088 15.812 16.5633 17.5943 1.9935 1.56033 61.8784
11387938 11.856 15.8489 16.6153 17.6138 2.01479 1.58013 61.9339
11387948 11.8736 15.8304 16.5737 17.6235 2.02204 1.57344 61.9012
11387958 11.8736 15.8304 16.5737 17.6235 2.02204 1.57344 61.9012
11387967 11.9705 15.8397 16.5529 17.5456 1.96331 1.52362 61.9086
11387977 11.9 15.7384 16.6465 17.5163 1.90457 1.58358 61.8012
11387987 11.9 15.7384 16.6465 17.5163 1.90457 1.58358 61.8012
11387998 11.9088 15.766 16.6985 17.5943 1.91752 1.60196 61.9675
11388007 11.9088 15.766 16.6985 17.5943 1.91752 1.60196 61.9675
11388017 11.944 15.7476 16.6049 17.565 1.92513 1.57085 61.8615
11388028 11.9176 15.7844 16.6465 17.6138 1.95041 1.58764 61.9622
11388038 11.9176 15.7844 16.6465 17.6138 1.95041 1.58764 61.9622
11388049 12.0321 15.7752 16.6985 17.5553 1.85297 1.55809 62.0611
11388061 11.9705 15.8581 16.5945 17.5358 1.94844 1.52563 61.9589
11388069 11.9705 15.8581 16.5945 17.5358 1.94844 1.52563 61.9589
11388080 12.0321 15.8212 16.6257 17.5456 1.89803 1.52792 62.0246
11388089 12.0321 15.8212 16.6257 17.5456 1.89803 1.52792 62.0246
11388099 12.0145 15.8212 16.5737 17.4189 1.88099 1.4937 61.8284
11388109 12.0233 15.8857 16.6569 17.4384 1.87241 1.49657 62.0043
11388119 12.0233 15.8857 16.6569 17.4384 1.87241 1.49657 62.0043
11388129 12.0762 15.8765 16.5633 17.4189 1.87937 1.4603 61.9349
11388139 12.0409 15.9041 16.6569 17.4579 1.87891 1.49123 62.0598
11388152 12.0409 15.9041 16.6569 17.4579 1.87891 1.49123 62.0598
11388161 12.1026 15.987 16.5945 17.4189 1.89557 1.4308 62.103
11388170 12.1026 15.987 16.5009 17.4189 1.93616 1.41033 62.0094
11388180 12.1026 15.9133 16.5009 17.341 1.87963 1.41275 61.8578
11388192 12.0938 15.9594 16.5217 17.3117 1.88071 1.40102 61.8866
11388200 12.0938 15.9594 16.5217 17.3117 1.88071 1.40102 61.8866
11388213 12.085 16.033 16.4073 17.263 1.94364 1.34791 61.7884
11388220 12.1026 16.0054 16.4593 17.263 1.903 1.36204 61.8304
11388230 12.1026 16.0054 16.4593 17.263 1.903 1.36204 61.8304
11388241 12.0938 15.9962 16.3969 17.2338 1.91965 1.34657 61.7207
11388261 12.1202 16.0146 16.4593 17.3117 1.91696 1.36568 61.9059
11388274 12.1731 15.9962 16.5217 17.2825 1.84916 1.36388 61.9735
11388283 12.1731 15.9962 16.5217 17.2825 1.84916 1.36388 61.9735
11388294 12.085 15.9317 16.5113 17.3215 1.88237 1.41054 61.8495
11388304 12.1466 15.9502 16.5217 17.302 1.85069 1.38732 61.9205
11388317 12.1466 15.9502 16.5217 17.302 1.85069 1.38732 61.9205
11388322 12.1378 15.9778 16.4593 17.3312 1.90283 1.37505 61.9062
11388332 12.1378 15.9686 16.5321 17.3702 1.88234 1.40204 62.0087
11388358 12.1378 15.9686 16.5321 17.3702 1.88234 1.40204 62.0087
11388359 12.1819 15.987 16.5737 17.302 1.82669 1.3797 62.0446
11388373 12.1378 15.941 16.5425 17.2825 1.83476 1.39238 61.9038
11388383 12.1466 15.941 16.5737 17.263 1.81014 1.39262 61.9243
11388404 12.1466 15.9778 16.5945 17.263 1.81492 1.38745 61.982
11388416 12.1466 15.9317 16.6569 17.3312 1.79625 1.42824 62.0665
11388424 12.1466 15.9317 16.6569 17.3312 1.79625 1.42824 62.0665
11388434 12.1114 15.941 16.6361 17.2533 1.79473 1.41351 61.9417
11388446 12.1114 15.941 16.6361 17.2533 1.79473 1.41351 61.9417
11388458 12.1202 15.9225 16.6465 17.341 1.81235 1.43754 62.0302
11388464 12.129 15.941 16.6985 17.302 1.77841 1.43317 62.0704
11388474 12.129 15.941 16.6985 17.302 1.77841 1.43317 62.0704
11388484 12.1554 15.9502 16.6257 17.2241 1.77269 1.39072 61.9554
11388494 12.1466 15.9594 16.6153 17.2728 1.80269 1.39902 61.9941
11388504 12.1466 15.9594 16.6153 17.2728 1.80269 1.39902 61.9941
11388514 12.2259 15.941 16.6673 17.1851 1.70627 1.3751 62.0192
11388526 12.2259 15.941 16.6673 17.1851 1.70627 1.3751 62.0192
11388534 12.1554 15.9317 16.6049 17.1754 1.75648 1.38031 61.8674
11388546 12.1642 15.9686 16.7089 17.2338 1.74355 1.4039 62.0755
11388567 12.1466 15.9502 16.6361 17.2046 1.7647 1.39105 61.9375
11388574 12.1202 15.9962 16.6049 17.2241 1.81417 1.38329 61.9454
11388594 12.1731 15.9962 16.7713 17.2436 1.72691 1.41006 62.1841
11388605 12.1731 15.9962 16.7713 17.2436 1.72691 1.41006 62.1841
11388616 12.1114 15.941 16.6465 17.2143 1.77563 1.40724 61.9132
11388626 12.0938 15.9502 16.6673 17.3117 1.81419 1.43538 62.023
11388636 12.0938 15.9502 16.6673 17.3117 1.81419 1.43538 62.023
11388646 12.129 15.9133 16.6361 17.3215 1.80231 1.43111 61.9999
11388656 12.1202 15.9778 16.6153 17.263 1.81736 1.399 61.9763
11388682 12.1554 15.9778 16.6153 17.263 1.80212 1.38968 62.0116
11388696 12.1026 15.9133 16.5737 17.2533 1.81522 1.40948 61.8429
11388706 12.1466 16.0054 16.5945 17.1656 1.78879 1.35871 61.9122
11388717 12.1466 16.0054 16.5945 17.1656 1.78879 1.35871 61.9122
11388727 12.1642 16.0423 16.6465 17.0974 1.74694 1.34077 61.9504
11388737 12.1819 15.9778 16.6569 17.1364 1.72527 1.36401 61.9529
11388753 12.1819 15.9778 16.6569 17.1364 1.72527 1.36401 61.9529
11388757 12.2083 15.9962 16.6881 17.1169 1.70004 1.35475 62.0095
11388767 12.2083 15.9962 16.6881 17.1169 1.70004 1.35475 62.0095
11388777 12.1731 15.987 16.7297 17.1948 1.7231 1.39273 62.0846
11388788 12.2083 16.0238 16.7193 17.1559 1.71162 1.36289 62.1073
11388797 12.2083 16.0238 16.7193 17.1559 1.71162 1.36289 62.1073
11388807 12.2171 16.0607 16.6257 17.1364 1.75463 1.326 62.0398
11388817 12.1995 16.1067 16.5841 17.0195 1.75361 1.28349 61.9098
11388827 12.1995 16.1067 16.5841 17.0195 1.75361 1.28349 61.9098
11388837 12.2083 16.1528 16.4697 16.9905 1.8057 1.23723 61.8213
11388847 12.2083 16.1528 16.4697 16.9905 1.8057 1.23723 61.8213
11388858 12.2171 16.1251 16.4177 16.9429 1.79619 1.21997 61.7029
11388868 12.2611 16.1528 16.4177 16.9714 1.79818 1.20753 61.8031
11388878 12.2611 16.1528 16.4177 16.9714 1.79818 1.20753 61.8031
11388889 12.2788 16.1251 16.5009 17.0195 1.76221 1.23938 61.9243
11388898 12.2876 16.2172 16.4905 17 1.79011 1.20632 61.9953
11388918 12.2435 16.2356 16.3657 16.9524 1.85234 1.17456 61.7973
11388928 12.2435 16.2356 16.3657 16.9524 1.85234 1.17456 61.7973
11388938 12.2523 16.1988 16.4801 17.0097 1.8066 1.22021 61.941
11388949 12.3052 16.2909 16.3969 17.0292 1.86143 1.16815 62.0222
11388959 12.3052 16.2909 16.3969 17.0292 1.86143 1.16815 62.0222
11388969 12.2964 16.2817 16.4697 17.0487 1.83758 1.19339 62.0965
11388979 12.2083 16.2541 16.5321 17.0779 1.84929 1.24396 62.0724
11388991 12.2083 16.2541 16.5321 17.0779 1.84929 1.24396 62.0724
11389001 12.358 16.3185 16.4489 17.0292 1.82641 1.15879 62.1547
11389011 12.2788 16.3093 16.3657 16.9429 1.86104 1.14398 61.8967
11389020 12.2788 16.3093 16.3657 16.9429 1.86104 1.14398 61.8967
11389030 12.2964 16.3277 16.3761 17.0292 1.88799 1.15621 62.0295
11389051 12.2699 16.3462 16.3346 16.9429 1.89217 1.12968 61.8935
11389061 12.2083 16.383 16.3346 16.9905 1.95047 1.14681 61.9163
11389071 12.2083 16.383 16.3346 16.9905 1.95047 1.14681 61.9163
11389081 12.2523 16.2909 16.2826 17.0195 1.93042 1.15421 61.8453
11389093 12.1819 16.3001 16.3242 17.1266 1.98632 1.20344 61.9328
11389102 12.1819 16.3001 16.3242 17.1266 1.98632 1.20344 61.9328
11389111 12.1907 16.2633 16.3034 17.1072 1.9706 1.2018 61.8645
11389121 12.1907 16.2633 16.3034 17.1072 1.9706 1.2018 61.8645
11389131 12.129 16.2541 16.293 17.1072 1.99862 1.21806 61.7832
11389141 12.1378 16.2633 16.2826 17.1656 2.02447 1.22405 61.8493
11389163 12.1642 16.3277 16.3138 17.2436 2.05211 1.22451 62.0493
11389172 12.1819 16.2909 16.2826 17.2241 2.03718 1.21828 61.9794
11389182 12.1819 16.2909 16.2826 17.2241 2.03718 1.21828 61.9794
11389192 12.129 16.3277 16.241 17.2923 2.11728 1.22838 61.99
11389205 12.129 16.3277 16.241 17.2923 2.11728 1.22838 61.99
11389213 12.129 16.2449 16.1786 17.263 2.10314 1.22973 61.8155
11389227 12.0938 16.3369 16.1786 17.2825 2.15985 1.21915 61.8918
11389233 12.0938 16.3369 16.1786 17.2825 2.15985 1.21915 61.8918
11389249 12.085 16.3554 16.1786 17.2143 2.14534 1.20144 61.8333
11389255 12.0938 16.3646 16.189 17.1851 2.12951 1.19251 61.8324
11389271 12.0938 16.3646 16.189 17.1851 2.12951 1.19251 61.8324
11389275 12.1114 16.3922 16.1058 17.2046 2.17571 1.16644 61.814
11389285 12.1114 16.3922 16.1058 17.2046 2.17571 1.16644 61.814
11389295 12.1026 16.383 16.1682 17.1948 2.14518 1.18292 61.8486
11389304 12.1114 16.3462 16.1994 17.2436 2.13202 1.20808 61.9005
11389315 12.1114 16.3462 16.1994 17.2436 2.13202 1.20808 61.9005
11389324 12.0938 16.3369 16.1994 17.3215 2.1651 1.23245 61.9516
11389336 12.085 16.3554 16.1994 17.2533 2.1506 1.21476 61.893
11389344 12.085 16.3554 16.1994 17.2533 2.1506 1.21476 61.893
11389357 12.0674 16.4014 16.2202 17.341 2.19848 1.23144 62.0299
11389364 12.0674 16.4014 16.2202 17.341 2.19848 1.23144 62.0299
11389382 12.0497 16.3185 16.2514 17.341 2.16201 1.26469 61.9606
11389384 12.0585 16.3093 16.2618 17.302 2.13582 1.25846 61.9316
11389405 12.0233 16.3185 16.293 17.2923 2.1374 1.27005 61.9271
11389421 12.0233 16.2633 16.345 17.3215 2.10502 1.30257 61.953
11389424 12.0233 16.2633 16.345 17.3215 2.10502 1.30257 61.953
11389435 12.0762 16.2633 16.4281 17.3312 2.04924 1.30919 62.0988
11389444 12.0762 16.2633 16.4281 17.3312 2.04924 1.30919 62.0988
11389454 12.0321 16.1988 16.3761 17.341 2.07089 1.32842 61.9481
11389464 12.0145 16.1988 16.4281 17.3605 2.06309 1.34881 62.0019
11389474 12.0145 16.1988 16.4281 17.3605 2.06309 1.34881 62.0019
11389484 12.0585 16.1804 16.4593 17.3702 2.02708 1.35107 62.0685
11389494 11.9617 16.1528 16.5113 17.3312 2.02197 1.3868 61.957
11389504 11.9617 16.1528 16.5113 17.3312 2.02197 1.3868 61.957
11389516 12.0233 16.1343 16.5841 17.3312 1.95663 1.39135 62.073
11389536 12.0057 16.0699 16.5841 17.2143 1.89677 1.38738 61.874
11389546 11.9969 15.987 16.6257 17.302 1.88431 1.44007 61.9116
11389556 11.9969 15.987 16.6257 17.302 1.88431 1.44007 61.9116
11389566 12.0321 15.987 16.6361 17.3215 1.87178 1.43726 61.9767
11389576 11.9617 15.8765 16.8024 17.3897 1.81446 1.5365 62.0303
11389596 11.9793 15.9317 16.8648 17.4189 1.81147 1.53696 62.1948
11389606 11.9793 15.9317 16.8648 17.4189 1.81147 1.53696 62.1948
11389616 11.9881 15.8489 16.9792 17.5066 1.76026 1.60026 62.3227
11389627 11.9705 15.8028 16.9792 17.4871 1.74337 1.61305 62.2396
11389637 11.9705 15.8028 16.9792 17.4871 1.74337 1.61305 62.2396
11389647 11.9088 15.7291 16.9584 17.4287 1.72938 1.63219 62.025
11389657 11.9264 15.7291 16.9688 17.3215 1.67703 1.60658 61.9459
11389677 11.9176 15.6186 17.0492 17.3605 1.61926 1.66438 61.9459
11389688 11.9176 15.6186 17.0492 17.3605 1.61926 1.66438 61.9459
11389697 11.8471 15.6186 17.0591 17.341 1.63798 1.68128 61.8658
11389707 11.8824 15.5818 17.0197 17.4287 1.65895 1.6921 61.9125
11389727 11.9352 15.591 17.0689 17.3799 1.60016 1.6755 61.9751
11389737 11.9176 15.6002 17.1181 17.3994 1.59744 1.69252 62.0354
11389750 11.9176 15.6002 17.1181 17.3994 1.59744 1.69252 62.0354
11389757 11.9617 15.545 17.128 17.3994 1.55348 1.69764 62.034
11389767 11.9617 15.545 17.128 17.3994 1.55348 1.69764 62.034
11389777 11.9352 15.5265 17.2067 17.4287 1.53519 1.73283 62.0971
11389787 11.9352 15.591 17.1969 17.4481 1.57108 1.71754 62.1712
11389807 11.9176 15.5726 17.1772 17.3994 1.56171 1.71261 62.0668
11389817 11.9088 15.4989 17.187 17.4189 1.54078 1.74112 62.0137
11389827 11.9088 15.4989 17.187 17.4189 1.54078 1.74112 62.0137
11389837 11.8736 15.5542 17.128 17.3799 1.58736 1.71472 61.9357
11389848 11.8736 15.5542 17.128 17.3799 1.58736 1.71472 61.9357
11389858 11.9 15.4529 17.1969 17.4384 1.53029 1.76221 61.9881
11389868 11.8912 15.5173 17.1673 17.4189 1.56372 1.73669 61.9948
11389879 11.8912 15.5173 17.1673 17.4189 1.56372 1.73669 61.9948
11389888 11.9352 15.5265 17.2264 17.4189 1.5231 1.73496 62.1071
11389898 11.9352 15.5265 17.1575 17.4189 1.55256 1.72022 62.0382
11389908 11.8471 15.5081 17.1575 17.4384 1.59072 1.75315 61.9512
11389918 11.9352 15.5173 17.1575 17.4871 1.57483 1.73729 62.0972
11389931 11.9352 15.5173 17.1575 17.4871 1.57483 1.73729 62.0972
11389938 11.8912 15.5358 17.1083 17.4384 1.60337 1.72325 61.9736
11389948 11.8912 15.5542 17.0886 17.4774 1.63347 1.72241 62.0113
11389960 11.8912 15.5542 17.0886 17.4774 1.63347 1.72241 62.0113
11389969 11.8736 15.5726 17.0787 17.4384 1.63753 1.71174 61.9633
11389983 11.8824 15.5542 17.0984 17.5066 1.64404 1.73315 62.0416
11389989 11.8824 15.5542 17.0984 17.5066 1.64404 1.73315 62.0416
11390001 11.9 15.6278 17.1477 17.4871 1.63575 1.71492 62.1626
11390011 11.9 15.6278 17.1477 17.4871 1.63575 1.71492 62.1626
11390022 11.8824 15.6555 17.0295 17.4481 1.68978 1.67857 62.0155
11390049 11.9088 15.6186 17.0689 17.4481 1.64763 1.68982 62.0445
11390051 11.9088 15.6186 17.0689 17.4481 1.64763 1.68982 62.0445
11390064 11.8736 15.7107 17.0197 17.4384 1.7149 1.66188 62.0424
11390071 11.8736 15.7107 17.0197 17.4384 1.7149 1.66188 62.0424
11390081 11.9088 15.6647 17.0492 17.4968 1.6917 1.68367 62.1196
11390091 11.9088 15.6647 17.0492 17.4968 1.6917 1.68367 62.1196
11390106 11.9176 15.6923 17 17.4384 1.6975 1.65076 62.0483
11390122 11.9176 15.6831 17.0492 17.4384 1.67288 1.66382 62.0883
11390134 11.8736 15.6831 17.0394 17.5066 1.72164 1.68816 62.1026
11390142 11.8471 15.6647 17.0394 17.5358 1.73707 1.70648 62.087
11390153 11.8471 15.6647 17.0394 17.5358 1.73707 1.70648 62.087
11390163 11.8736 15.6647 17.0492 17.5943 1.74334 1.71398 62.1817
11390175 11.7767 15.6831 16.9896 17.5845 1.81406 1.72027 62.0339
11390196 11.8207 15.6371 16.9688 17.6625 1.81594 1.73303 62.0891
11390213 11.8207 15.6831 16.8856 17.643 1.86182 1.69866 62.0324
11390223 11.7503 15.6923 16.9896 17.7307 1.8834 1.75612 62.1628
11390243 11.7767 15.7107 16.9064 17.7209 1.9112 1.72421 62.1147
11390255 11.7503 15.7291 16.948 17.7501 1.92232 1.74148 62.1776
11390279 11.7943 15.6831 16.9376 17.7307 1.88341 1.73565 62.1457
11390295 11.6622 15.6555 16.9792 17.7209 1.90873 1.78557 62.0178
11390306 11.7062 15.6923 17 17.7599 1.90882 1.77644 62.1584
11390316 11.7062 15.6923 17 17.7599 1.90882 1.77644 62.1584
11390328 11.7855 15.6463 16.9272 17.6819 1.85986 1.73533 62.0409
11390336 11.8295 15.6371 16.8648 17.6625 1.8571 1.7084 61.9939
11390356 11.8119 15.6739 16.8752 17.5845 1.84487 1.68873 61.9456
11390376 11.8471 15.6831 16.7713 17.5456 1.86357 1.64597 61.8471
11390386 11.9264 15.6923 16.896 17.565 1.78597 1.65328 62.0798
11390399 11.9264 15.6923 16.896 17.565 1.78597 1.65328 62.0798
11390406 11.944 15.7384 16.844 17.4871 1.78888 1.60822 62.0135
11390421 11.9793 15.6831 16.8544 17.5456 1.77037 1.62843 62.0624
11390427 11.9793 15.6831 16.8544 17.5456 1.77037 1.62843 62.0624
11390437 12.0057 15.7568 16.9272 17.5553 1.75884 1.61942 62.245
11390447 12.0057 15.7568 16.9272 17.5553 1.75884 1.61942 62.245
11390457 11.9617 15.7384 16.8648 17.4774 1.76865 1.60589 62.0422
11390467 11.9352 15.7384 16.8232 17.5358 1.81989 1.6166 62.0326
11390477 11.9352 15.7384 16.8232 17.5358 1.81989 1.6166 62.0326
11390488 11.9528 15.7476 16.7401 17.3897 1.79699 1.55975 61.8302
11390497 11.9528 15.7199 16.8024 17.3994 1.76327 1.58282 61.8747
11390510 11.9528 15.7199 16.8024 17.3994 1.76327 1.58282 61.8747
11390518 11.944 15.7844 16.8128 17.3702 1.77581 1.56383 61.9115
11390532 11.9528 15.6831 16.7817 17.4871 1.79134 1.60718 61.9047
11390538 11.9528 15.6831 16.7817 17.4871 1.79134 1.60718 61.9047
11390548 11.9528 15.7568 16.9376 17.4774 1.74797 1.61901 62.1246
11390558 11.9528 15.7568 16.9376 17.4774 1.74797 1.61901 62.1246
11390568 11.8648 15.7568 16.8336 17.4384 1.81633 1.61176 61.8936
11390578 11.9352 15.7752 16.844 17.4092 1.77729 1.58386 61.9636
11390598 11.944 15.7936 16.8648 17.3897 1.7641 1.57686 61.9922
11390608 11.944 15.7936 16.8648 17.3897 1.7641 1.57686 61.9922
11390618 11.9793 15.812 16.8648 17.4579 1.78132 1.57728 62.114
11390628 11.9528 15.8857 16.8648 17.4384 1.81296 1.56047 62.1418
11390638 11.9528 15.8857 16.8648 17.4384 1.81296 1.56047 62.1418
11390648 11.9969 15.8304 16.7713 17.3507 1.7809 1.52414 61.9493
11390660 11.9352 15.9133 16.8024 17.3117 1.81052 1.51679 61.9628
11390668 11.9352 15.9133 16.8024 17.3117 1.81052 1.51679 61.9628
11390688 12.0057 15.8857 16.7401 17.3605 1.81491 1.5024 61.9919
11390703 11.9793 15.8857 16.7297 17.3702 1.83449 1.5093 61.9648
11390708 12.0321 15.9594 16.7713 17.3605 1.81754 1.48259 62.1232
11390728 12.0233 15.8397 16.7089 17.2728 1.77067 1.48404 61.8446
11390738 12.0321 15.9041 16.7401 17.3507 1.80673 1.48835 62.027
11390749 12.0321 15.9041 16.7401 17.3507 1.80673 1.48835 62.027
11390762 12.0145 15.941 16.6569 17.2728 1.83499 1.44805 61.8851
11390779 11.9881 15.9317 16.6881 17.3312 1.85134 1.47713 61.9391
11390789 12.0497 15.8949 16.7505 17.3507 1.79119 1.48838 62.0458
11390801 12.0497 15.8949 16.7505 17.3507 1.79119 1.48838 62.0458
11390810 12.0233 15.9317 16.7817 17.3215 1.79197 1.48605 62.0582
11390820 12.0409 15.9133 16.7817 17.2728 1.75924 1.47564 62.0087
11390832 12.0409 15.9133 16.7817 17.2728 1.75924 1.47564 62.0087
11390841 12.0497 15.8857 16.8232 17.3312 1.74906 1.50243 62.0899
11390852 12.0497 15.8857 16.8648 17.3312 1.73115 1.51146 62.1315
11390863 12.0321 15.8212 16.8648 17.341 1.71822 1.53542 62.0592
11390873 12.0585 15.8949 16.8128 17.2728 1.73129 1.48266 62.0391
11390881 12.0585 15.8949 16.8128 17.2728 1.73129 1.48266 62.0391
11390894 12.0233 15.8673 16.8336 17.302 1.73811 1.51026 62.0262
11390901 12.0057 15.8673 16.7297 17.3312 1.80158 1.49868 61.9339
11390911 12.0057 15.8673 16.7297 17.3312 1.80158 1.49868 61.9339
11390921 11.9969 15.9133 16.8024 17.341 1.79481 1.50673 62.0536
11390931 11.9969 15.9133 16.7713 17.341 1.80828 1.49994 62.0224
11390941 12.0145 15.8673 16.7713 17.2825 1.76152 1.49478 61.9356
11390951 12.0409 15.8949 16.792 17.341 1.77339 1.49766 62.0689
11390962 12.0409 15.8949 16.792 17.341 1.77339 1.49766 62.0689
11390973 11.9705 15.9133 16.8024 17.302 1.79164 1.50528 61.9882
11390983 12.0321 15.9225 16.7609 17.263 1.77182 1.46887 61.9786
11390992 12.0321 15.9225 16.7609 17.263 1.77182 1.46887 61.9786
11391002 12.0233 15.8857 16.6777 17.2923 1.80876 1.46922 61.879
11391012 12.0409 15.9502 16.6673 17.2728 1.82248 1.44086 61.9312
11391022 12.0409 15.9502 16.6673 17.2728 1.82248 1.44086 61.9312
11391032 12.0057 15.9594 16.6673 17.2923 1.84848 1.45204 61.9246
11391042 12.0057 15.9594 16.6673 17.2923 1.84848 1.45204 61.9246
11391052 12.0321 15.941 16.7609 17.2923 1.78966 1.47036 62.0262
11391062 12.0762 15.941 16.6881 17.3215 1.81301 1.44916 62.0267
11391082 12.085 16.0054 16.6881 17.1948 1.78593 1.40202 61.9733
11391092 12.085 15.9778 16.6569 17.1851 1.78542 1.40035 61.9047
11391102 12.085 15.9778 16.6569 17.1851 1.78542 1.40035 61.9047
11391113 12.1114 16.0054 16.7089 17.263 1.79106 1.41453 62.0887
11391133 12.1114 15.9962 16.7089 17.2338 1.77668 1.41057 62.0503
11391144 12.0233 15.9962 16.7505 17.2241 1.79312 1.44086 61.994
11391153 12.0233 15.9962 16.7505 17.2241 1.79312 1.44086 61.994
11391168 12.1202 15.9962 16.6985 17.2143 1.77007 1.40169 62.0292
11391174 12.0762 15.941 16.7713 17.2241 1.74062 1.44605 62.0124
11391196 12.1114 16.033 16.6881 17.1656 1.77392 1.38131 61.9981
11391215 12.129 15.9594 16.7609 17.2143 1.72558 1.42277 62.0636
11391224 12.1026 15.9686 16.7505 17.2143 1.7449 1.42505 62.036
11391238 12.1026 15.9686 16.7505 17.2143 1.7449 1.42505 62.036
11391246 12.085 15.9686 16.7297 17.1948 1.75416 1.42089 61.9781
11391256 12.085 15.9502 16.7817 17.2338 1.73945 1.44567 62.0506
11391276 12.1026 15.8949 16.8024 17.263 1.71314 1.46657 62.063
11391286 12.1026 15.8949 16.8024 17.263 1.71314 1.46657 62.063
11391296 12.0145 15.8857 16.7609 17.263 1.76561 1.48335 61.9241
11391306 12.0674 15.8673 16.7817 17.3215 1.74884 1.49147 62.0378
11391329 12.0674 15.8673 16.7817 17.3215 1.74884 1.49147 62.0378
11391331 12.0585 15.8857 16.9272 17.341 1.7042 1.52476 62.2124
11391337 11.9881 15.8673 17.0098 17.3507 1.69573 1.56838 62.2159
11391351 11.9881 15.8673 17.0098 17.3507 1.69573 1.56838 62.2159
11391357 12.0497 15.8304 16.9168 17.3312 1.68809 1.53743 62.1282
11391367 11.9881 15.812 16.8648 17.2923 1.71545 1.53904 61.9572
11391377 11.9881 15.812 16.8648 17.2923 1.71545 1.53904 61.9572
11391387 11.9352 15.7568 16.8752 17.2338 1.69096 1.55751 61.801
11391400 11.9352 15.7568 16.8752 17.2338 1.69096 1.55751 61.801
11391407 11.9528 15.6739 16.8648 17.2825 1.67495 1.58334 61.7741
11391422 11.9528 15.7752 16.9272 17.3117 1.69722 1.57606 61.967
11391428 11.9528 15.7752 16.9272 17.3117 1.69722 1.57606 61.967
11391438 11.9881 15.7568 16.896 17.3312 1.69589 1.56903 61.9721
11391448 11.9881 15.7568 17 17.3507 1.65849 1.59573 62.0956
11391458 11.9881 15.7015 17 17.3507 1.6377 1.61051 62.0403
11391469 11.9969 15.8212 16.9688 17.3215 1.68134 1.56312 62.1084
11391478 11.9969 15.8212 16.9688 17.3215 1.68134 1.56312 62.1084
11391489 11.9528 15.8212 17 17.2728 1.66856 1.57108 62.0469
11391500 11.9705 15.7752 17.0492 17.3312 1.64453 1.60194 62.1261
11391512 11.9705 15.7752 17.0492 17.3312 1.64453 1.60194 62.1261
11391518 11.9528 15.8397 16.9688 17.3117 1.70353 1.56784 62.0731
11391538 11.9969 15.812 16.9168 17.3215 1.70024 1.55431 62.0472
11391548 11.9793 15.8489 16.8648 17.3215 1.74405 1.53791 62.0145
11391560 11.9793 15.8489 16.8648 17.3215 1.74405 1.53791 62.0145
11391568 11.9176 15.8304 16.8752 17.341 1.76657 1.56578 61.9643
11391578 11.9881 15.7936 16.8544 17.4189 1.76053 1.56917 62.055
11391588 11.9881 15.7936 16.8544 17.4189 1.76053 1.56917 62.055
11391602 12.0497 15.812 16.8336 17.3117 1.70964 1.52005 62.0072
11391608 12.0497 15.812 16.8336 17.3117 1.70964 1.52005 62.0072
11391625 11.944 15.8212 16.8336 17.3897 1.78792 1.56272 61.9886
11391630 11.9176 15.7752 16.8648 17.3507 1.75399 1.58042 61.9084
11391640 11.9176 15.7752 16.8648 17.3507 1.75399 1.58042 61.9084
11391651 11.9264 15.8028 16.8752 17.3702 1.76337 1.57714 61.9747
11391660 11.8912 15.8581 16.896 17.302 1.76475 1.56151 61.9473
11391672 11.8912 15.8581 16.896 17.302 1.76475 1.56151 61.9473
11391680 11.9969 15.8028 16.8648 17.3897 1.74475 1.56028 62.0542
11391700 11.8736 15.7844 16.8648 17.4384 1.80936 1.60873 61.9612
11391711 11.9264 15.812 16.948 17.3799 1.73908 1.59253 62.0664
11391729 11.9176 15.7936 16.9792 17.4189 1.73714 1.61495 62.1093
11391741 11.9088 15.7476 16.9792 17.4676 1.74193 1.64012 62.1032
11391750 11.9088 15.7476 16.9792 17.4676 1.74193 1.64012 62.1032
11391762 11.9088 15.7568 16.948 17.3897 1.7296 1.61414 62.0033
11391769 11.9088 15.7568 16.948 17.3897 1.7296 1.61414 62.0033
11391782 11.8295 15.7199 16.9376 17.5163 1.80196 1.67035 62.0034
11391789 11.8912 15.7107 16.9896 17.4287 1.71661 1.64858 62.0202
11391810 11.944 15.7936 16.9584 17.3215 1.69817 1.58235 62.0175
11391820 11.9793 15.7568 16.9792 17.4092 1.69316 1.60621 62.1244
11391831 11.9793 15.7568 16.9792 17.4092 1.69316 1.60621 62.1244
11391840 11.944 15.7844 17.0295 17.3799 1.68608 1.61279 62.1379
11391856 11.944 15.7844 17.0295 17.3799 1.68608 1.61279 62.1379
11391861 11.9352 15.7384 16.896 17.3799 1.73005 1.59865 61.9496
11391871 11.9 15.7015 16.9064 17.3799 1.72693 1.62023 61.8879
11391881 11.9 15.7015 16.9064 17.3799 1.72693 1.62023 61.8879
11391892 11.944 15.7107 16.9792 17.4676 1.71296 1.64055 62.1016
11391902 11.9264 15.7291 16.9168 17.4968 1.76527 1.6332 62.0692
11391913 11.9264 15.7291 16.9168 17.4968 1.76527 1.6332 62.0692
11391925 11.944 15.7199 16.9792 17.3994 1.69082 1.6234 62.0426
11391932 11.9264 15.6923 16.9688 17.4189 1.69982 1.63749 62.0065
11391942 11.9264 15.6923 16.9688 17.4189 1.69982 1.63749 62.0065
11391962 11.9176 15.7199 16.948 17.4481 1.73391 1.63426 62.0337
11391963 11.9176 15.7199 16.948 17.4481 1.73391 1.63426 62.0337
11391973 11.8824 15.7199 17.0098 17.4384 1.7188 1.65492 62.0506
11391985 11.9 15.7476 17.0492 17.4579 1.71195 1.65544 62.1547
11391996 11.9 15.7476 17.0492 17.4579 1.71195 1.65544 62.1547
11392003 11.9528 15.6094 17.0295 17.4092 1.62748 1.66362 62.001
11392016 11.9176 15.6463 17.0295 17.4481 1.67116 1.67157 62.0415
11392037 11.9264 15.6923 17.0492 17.4384 1.67256 1.65898 62.1063
11392055 11.8824 15.6002 17.0591 17.4774 1.66728 1.70605 62.019
11392065 11.8736 15.6647 17.1378 17.4968 1.66879 1.7121 62.1729
11392087 11.8295 15.6555 17.0591 17.5553 1.74002 1.72209 62.0994
11392096 11.8736 15.6094 17.1181 17.5261 1.66747 1.729 62.1272
11392107 11.8736 15.6094 17.1181 17.5261 1.66747 1.729 62.1272
11392117 11.8912 15.591 17.0984 17.4871 1.64678 1.71667 62.0677
11392129 11.8471 15.5818 17.1378 17.5163 1.65631 1.74569 62.0831
11392150 11.8119 15.5634 17.1477 17.4676 1.64196 1.75187 61.9906
11392157 11.8119 15.5634 17.1477 17.4676 1.64196 1.75187 61.9906
11392172 11.8295 15.5265 17.128 17.5066 1.64365 1.76119 61.9906
11392177 11.8471 15.5265 17.2166 17.5456 1.61275 1.78362 62.1358
11392187 11.8471 15.5265 17.2166 17.5456 1.61275 1.78362 62.1358
11392197 11.856 15.5818 17.1575 17.4871 1.63309 1.74128 62.0824
11392207 11.8295 15.5173 17.1575 17.5163 1.63116 1.77206 62.0207
11392228 11.8295 15.5634 17.1477 17.5456 1.66372 1.76375 62.0861
11392239 11.8295 15.5634 17.1477 17.5456 1.66372 1.76375 62.0861
11392248 11.8031 15.5542 17.0984 17.5943 1.71108 1.77327 62.05
11392260 11.7943 15.5358 17.1575 17.6138 1.68986 1.79735 62.1013
11392268 11.7943 15.5358 17.1575 17.6138 1.68986 1.79735 62.1013
11392282 11.8295 15.6094 17.0689 17.6138 1.74043 1.74908 62.1216
11392288 11.7503 15.6371 17.0886 17.5358 1.74726 1.75058 62.0117
11392298 11.7503 15.6371 17.0886 17.5358 1.74726 1.75058 62.0117
11392308 11.7767 15.5818 17.0492 17.5261 1.72845 1.74787 61.9338
11392328 11.7326 15.5358 16.9792 17.5456 1.76778 1.76145 61.7932
11392339 11.7767 15.545 17 17.4774 1.71752 1.73685 61.799
11392348 11.7767 15.545 17 17.4774 1.71752 1.73685 61.799
11392360 11.7855 15.5634 17.0787 17.5261 1.70499 1.75678 61.9537
11392372 11.8383 15.5634 17.0492 17.604 1.72421 1.75284 62.055
11392380 11.8383 15.5634 17.0492 17.604 1.72421 1.75284 62.055
11392394 11.8295 15.6371 17.1083 17.5845 1.7229 1.7438 62.1594
11392400 11.8295 15.6371 17.1083 17.5845 1.7229 1.7438 62.1594
11392410 11.8031 15.6371 17.0886 17.5748 1.73909 1.74464 62.1035
11392420 11.8031 15.6186 17.0492 17.5943 1.75645 1.74536 62.0652
11392431 11.8031 15.6186 17.0492 17.5943 1.75645 1.74536 62.0652
11392441 11.8295 15.6647 17.0098 17.565 1.76833 1.71116 62.0691
11392449 11.856 15.6094 17.0197 17.5066 1.71006 1.70851 61.9917
11392462 11.856 15.6094 17.0197 17.5066 1.71006 1.70851 61.9917
11392470 11.8295 15.7199 16.9896 17.4871 1.76857 1.67524 62.0262
11392483 11.8295 15.7199 16.9896 17.4871 1.76857 1.67524 62.0262
11392491 11.8383 15.6463 17 17.4871 1.73266 1.69493 61.9717
11392501 11.8912 15.6371 17.0098 17.5358 1.72046 1.69574 62.0739
11392511 11.8912 15.6371 17.0098 17.5358 1.72046 1.69574 62.0739
11392521 11.9088 15.6923 17.0197 17.5163 1.72206 1.6741 62.1371
11392531 11.8383 15.6739 16.9792 17.5553 1.77755 1.69766 62.0467
11392552 11.8295 15.6831 16.948 17.5553 1.79827 1.69086 62.0159
11392572 11.8295 15.6647 16.9792 17.5456 1.77425 1.70042 62.019
11392581 11.8383 15.6463 17.0295 17.5358 1.7382 1.7117 62.05
11392594 11.8383 15.6463 17.0295 17.5358 1.7382 1.7117 62.05
11392608 11.8383 15.6647 16.9168 17.4968 1.77915 1.67418 61.9167
11392617 11.8295 15.6831 16.9376 17.4968 1.78087 1.67607 61.9471
11392622 11.8295 15.6831 16.9376 17.4968 1.78087 1.67607 61.9471
11392633 11.8295 15.6647 17 17.565 1.77257 1.70905 62.0593
11392645 11.8119 15.591 17.0295 17.5358 1.72886 1.73373 61.9683
11392653 11.8119 15.591 17.0295 17.5358 1.72886 1.73373 61.9683
11392664 11.8207 15.6094 17.0492 17.5748 1.73811 1.73893 62.0542
11392673 11.8207 15.6094 17.0492 17.5748 1.73811 1.73893 62.0542
11392686 11.7591 15.6278 17.0492 17.5748 1.7716 1.7506 62.0109
11392693 11.8119 15.545 17.0886 17.5358 1.6861 1.7588 61.9813
11392708 11.8119 15.545 17.0886 17.5358 1.6861 1.7588 61.9813
11392713 11.8031 15.6094 17.2067 17.5358 1.66335 1.76896 62.1551
11392723 11.7855 15.6094 17.1772 17.4774 1.66162 1.75496 62.0495
11392733 11.7855 15.4897 17.1772 17.4774 1.61651 1.78735 61.9297
11392753 11.8471 15.6002 17.2264 17.4579 1.60327 1.74716 62.1317
11392763 11.8295 15.545 17.1477 17.4676 1.62744 1.75209 61.9898
11392775 11.8295 15.545 17.2166 17.4384 1.58685 1.76056 62.0294
11392783 11.8295 15.545 17.2166 17.4384 1.58685 1.76056 62.0294
11392797 11.8471 15.591 17.2658 17.3897 1.55723 1.74349 62.0936
11392803 11.8471 15.591 17.2658 17.3897 1.55723 1.74349 62.0936
11392813 11.9 15.5081 17.1477 17.3507 1.53909 1.71797 61.9065
11392824 11.9 15.5634 17.2756 17.3799 1.51632 1.73671 62.1189
11392833 11.9 15.5634 17.2756 17.3799 1.51632 1.73671 62.1189
11392848 11.9 15.5726 17.2264 17.3994 1.54819 1.72788 62.0984
11392855 11.8824 15.5358 17.2953 17.263 1.46067 1.72812 61.9765
11392865 11.8824 15.5358 17.2953 17.263 1.46067 1.72812 61.9765
11392875 11.9088 15.5542 17.3248 17.3117 1.46228 1.73277 62.0996
11392895 11.8912 15.5265 17.2559 17.3507 1.50349 1.73857 62.0244
11392905 11.9088 15.5358 17.2953 17.3312 1.47527 1.73559 62.0711
11392920 11.9088 15.5358 17.2953 17.3312 1.47527 1.73559 62.0711
11392925 11.9264 15.5634 17.1969 17.3507 1.52763 1.7065 62.0374
11392934 11.9528 15.591 17.2362 17.2825 1.48416 1.68577 62.0626
11392955 11.9617 15.6463 17.2166 17.2923 1.5134 1.66644 62.1167
11392964 11.9617 15.6463 17.2166 17.2923 1.5134 1.66644 62.1167
11392976 11.9352 15.6002 17.128 17.1754 1.50083 1.64166 61.8388
11392986 11.944 15.6831 17.1181 17.2338 1.55486 1.62752 61.9791
11392996 11.944 15.6831 17.1181 17.2338 1.55486 1.62752 61.9791
11393006 11.8912 15.6186 17.1477 17.2533 1.54783 1.66961 61.9108
11393016 11.8471 15.6371 17.187 17.3117 1.57891 1.69754 61.983
11393036 11.9176 15.6278 17.1969 17.3799 1.56679 1.69778 62.1223
11393046 11.9176 15.6278 17.1969 17.3799 1.56679 1.69778 62.1223
11393057 11.8824 15.6002 17.1575 17.4287 1.60668 1.7167 62.0688
11393066 11.8648 15.5726 17.1477 17.4481 1.61539 1.73095 62.0331
11393077 11.8648 15.5726 17.1477 17.4481 1.61539 1.73095 62.0331
11393087 11.8295 15.6186 17.1181 17.3702 1.63118 1.70501 61.9365
11393097 11.8648 15.6463 17.0689 17.4481 1.67695 1.69424 62.0281
11393107 11.8648 15.6463 17.0689 17.4481 1.67695 1.69424 62.0281
11393117 11.8736 15.6371 17.0984 17.3994 1.63867 1.69023 62.0085
11393138 11.7943 15.591 17.0689 17.3994 1.66814 1.71769 61.8536
11393147 11.8824 15.6278 17.2264 17.4092 1.58024 1.71983 62.1458
11393160 11.8824 15.6278 17.2264 17.4092 1.58024 1.71983 62.1458
11393168 11.8383 15.6555 17.1575 17.3702 1.62437 1.70116 62.0215
11393181 11.8471 15.6094 17.2067 17.3605 1.57844 1.71965 62.0238
11393187 11.8471 15.6094 17.2067 17.3605 1.57844 1.71965 62.0238
11393197 11.7679 15.7384 17.1575 17.341 1.67485 1.69154 62.0047
11393219 11.7943 15.6094 17.1969 17.3507 1.60165 1.72971 61.9513
11393229 11.8207 15.6463 17.187 17.3605 1.61211 1.71262 62.0145
11393252 11.7679 15.6002 17.1969 17.4189 1.63526 1.75393 61.9839
11393263 11.8031 15.6647 17.2362 17.5163 1.66411 1.75621 62.2204
11393273 11.8031 15.6647 17.2362 17.5163 1.66411 1.75621 62.2204
11393279 11.7503 15.6186 17.2362 17.4871 1.65852 1.77666 62.0922
11393288 11.7767 15.5358 17.2264 17.5163 1.63121 1.79605 62.0552
11393308 11.8031 15.5818 17.2362 17.565 1.65129 1.78892 62.1862
11393318 11.8031 15.5818 17.2362 17.565 1.65129 1.78892 62.1862
11393328 11.8119 15.6094 17.2067 17.5066 1.64859 1.76036 62.1347
11393342 11.7415 15.5726 17.1575 17.5845 1.71545 1.79547 62.0561
11393348 11.7415 15.5726 17.1575 17.5845 1.71545 1.79547 62.0561
11393364 11.7591 15.6463 17.1477 17.5358 1.72147 1.75832 62.0888
11393369 11.7415 15.6002 17.1673 17.565 1.71427 1.78594 62.0741
11393379 11.7415 15.6002 17.1673 17.565 1.71427 1.78594 62.0741
11393389 11.7062 15.6094 17.1083 17.5748 1.76202 1.78248 61.9987
11393399 11.7062 15.6094 17.1083 17.5748 1.76202 1.78248 61.9987
11393410 11.6974 15.591 17.1477 17.5261 1.72364 1.78786 61.9622
11393420 11.715 15.6094 17.1477 17.565 1.73758 1.78641 62.0371
11393432 11.715 15.6094 17.1477 17.565 1.73758 1.78641 62.0371
11393439 11.7326 15.6002 17.1378 17.6332 1.75633 1.79655 62.1039
11393454 11.6886 15.5726 17.2362 17.6235 1.71892 1.83478 62.1209
11393478 11.7062 15.5818 17.2461 17.6722 1.7288 1.83991 62.2063
11393481 11.7062 15.5818 17.2461 17.6722 1.7288 1.83991 62.2063
11393491 11.6886 15.4713 17.2166 17.6722 1.70767 1.86842 62.0487
11393501 11.6798 15.5818 17.2264 17.6527 1.74134 1.83878 62.1407
11393511 11.6798 15.5818 17.2264 17.6527 1.74134 1.83878 62.1407
11393525 11.7062 15.5726 17.2264 17.643 1.72288 1.83205 62.1482
11393531 11.7415 15.545 17.187 17.5456 1.67773 1.80094 62.019
11393541 11.7415 15.545 17.187 17.5456 1.67773 1.80094 62.019
11393551 11.7326 15.6094 17.2756 17.7307 1.73694 1.84389 62.3484
11393572 11.7326 15.591 17.2264 17.5845 1.69652 1.80752 62.1346
11393582 11.6269 15.5265 17.1772 17.6138 1.75002 1.84943 61.9444
11393602 11.7591 15.5081 17.2362 17.5553 1.63881 1.81869 62.0587
11393612 11.7062 15.5265 17.2953 17.5845 1.65407 1.84675 62.1126
11393622 11.7062 15.5265 17.2953 17.5845 1.65407 1.84675 62.1126
11393632 11.7062 15.5265 17.2756 17.643 1.68447 1.85495 62.1514
11393642 11.7062 15.5265 17.2756 17.643 1.68447 1.85495 62.1514
11393652 11.7238 15.4897 17.2461 17.5943 1.65745 1.8436 62.0539
11393666 11.7415 15.5265 17.3347 17.6527 1.6477 1.85994 62.2554
11393688 11.7415 15.5265 17.3347 17.6527 1.6477 1.85994 62.2554
11393691 11.8207 15.5265 17.3052 17.643 1.62277 1.8302 62.2954
11393692 11.6798 15.4437 17.2658 17.6332 1.66525 1.8805 62.0225
11393702 11.6798 15.4437 17.2658 17.6332 1.66525 1.8805 62.0225
11393712 11.6886 15.4529 17.3642 17.6527 1.63002 1.9005 62.1584
11393722 11.6886 15.4529 17.3642 17.6527 1.63002 1.9005 62.1584
11393735 11.6974 15.3516 17.3052 17.643 1.60975 1.91117 61.9971
11393742 11.7062 15.4068 17.315 17.643 1.62257 1.8958 62.071
11393759 11.7062 15.4068 17.315 17.643 1.62257 1.8958 62.071
11393763 11.715 15.3976 17.3741 17.7696 1.63765 1.93499 62.2563
11393773 11.715 15.3976 17.3741 17.7696 1.63765 1.93499 62.2563
11393784 11.6622 15.37 17.3741 17.7891 1.65723 1.961 62.1953
11393794 11.5565 15.2687 17.4036 17.8768 1.6848 2.04214 62.1055
11393813 11.5741 15.2319 17.3937 17.8865 1.67128 2.04739 62.0862
11393823 11.5829 15.2871 17.3445 17.9547 1.73495 2.03378 62.1693
11393833 11.5829 15.2871 17.3445 17.9547 1.73495 2.03378 62.1693
11393843 11.5653 15.3424 17.4036 17.9352 1.73051 2.03173 62.2465
11393854 11.5477 15.3424 17.4134 17.906 1.72292 2.03251 62.2095
11393863 11.5477 15.3424 17.4134 17.906 1.72292 2.03251 62.2095
11393877 11.5477 15.3055 17.3839 17.8865 1.71452 2.03238 62.1236
11393884 11.5477 15.3055 17.3839 17.8865 1.71452 2.03238 62.1236
11393894 11.5124 15.2503 17.3347 17.867 1.72284 2.04287 61.9644
11393905 11.5124 15.2871 17.3741 17.8963 1.73067 2.04708 62.0699
11393914 11.5124 15.2871 17.3741 17.8963 1.73067 2.04708 62.0699
11393925 11.4948 15.2503 17.3642 17.8963 1.72868 2.05999 62.0056
11393934 11.4948 15.2503 17.3642 17.8963 1.72868 2.05999 62.0056
11393948 11.4948 15.2595 17.2953 17.867 1.7509 2.03695 61.9167
11393954 11.5389 15.2963 17.3642 17.9255 1.73793 2.04134 62.1249
11393964 11.5389 15.2963 17.3642 17.9255 1.73793 2.04134 62.1249
11393976 11.5389 15.2503 17.315 17.9352 1.74553 2.04574 62.0394
11393984 11.5829 15.3239 17.4331 18.0229 1.73615 2.05632 62.3629
11393997 11.5829 15.3239 17.4331 18.0229 1.73615 2.05632 62.3629
11394004 11.6269 15.3608 17.3741 17.984 1.74179 2.01384 62.3457
11394026 11.5301 15.2963 17.3839 17.9937 1.75875 2.06206 62.204
11394035 11.5301 15.2595 17.4233 17.8865 1.68789 2.05806 62.0993
11394046 11.5301 15.2595 17.4233 17.8865 1.68789 2.05806 62.0993
11394055 11.4948 15.3516 17.3347 17.8378 1.75748 2.01377 62.0189
11394067 11.5124 15.2871 17.3248 17.7891 1.71164 2.01436 61.9135
11394074 11.5124 15.2871 17.3248 17.7891 1.71164 2.01436 61.9135
11394087 11.5741 15.2226 17.3544 17.8573 1.67376 2.0356 62.0084
11394094 11.5741 15.2226 17.3544 17.8573 1.67376 2.0356 62.0084
11394107 11.5389 15.1858 17.3642 17.8963 1.68549 2.06561 61.9852
11394115 11.5301 15.2963 17.3839 17.8963 1.72229 2.04177 62.1065
11394127 11.5301 15.2963 17.3839 17.8963 1.72229 2.04177 62.1065
11394135 11.5741 15.2779 17.3445 17.8865 1.70973 2.02448 62.0831
11394144 11.5917 15.3055 17.4036 17.8865 1.68714 2.02442 62.1874
11394154 11.5917 15.3055 17.4036 17.8865 1.68714 2.02442 62.1874
11394165 11.6269 15.2871 17.4036 17.8768 1.66147 2.01778 62.1944
11394184 11.5829 15.2779 17.2953 17.8281 1.70518 1.99952 61.9842
11394194 11.6358 15.3239 17.2559 17.7696 1.69471 1.95188 61.9853
11394221 11.6886 15.3332 17.3052 17.6722 1.6176 1.92477 61.9991
11394226 11.671 15.3792 17.2855 17.7014 1.66198 1.91903 62.0371
11394241 11.671 15.3792 17.2855 17.7014 1.66198 1.91903 62.0371
11394246 11.7855 15.3516 17.2953 17.6917 1.59458 1.89539 62.1241
11394256 11.7855 15.3516 17.2953 17.6917 1.59458 1.89539 62.1241
11394266 11.7326 15.3055 17.3052 17.6819 1.59196 1.92234 62.0253
11394276 11.8031 15.3239 17.3248 17.6819 1.56032 1.90228 62.1338
11394288 11.8031 15.3239 17.3248 17.6819 1.56032 1.90228 62.1338
11394296 11.7591 15.4068 17.315 17.6235 1.59258 1.87731 62.1044
11394306 11.7326 15.3792 17.315 17.5456 1.56405 1.87553 61.9724
11394318 11.7326 15.3792 17.315 17.5456 1.56405 1.87553 61.9724
11394327 11.7767 15.4068 17.3347 17.5456 1.54721 1.8602 62.0638
11394337 11.7767 15.4068 17.3347 17.5456 1.54721 1.8602 62.0638
11394347 11.7943 15.37 17.2855 17.5456 1.54681 1.855 61.9953
11394359 11.8383 15.3976 17.3347 17.5261 1.51001 1.84184 62.0967
11394382 11.8648 15.3976 17.3544 17.5261 1.49034 1.83884 62.1428
11394387 11.8295 15.3884 17.2658 17.6235 1.57654 1.85276 62.1072
11394408 11.7855 15.416 17.3839 17.4481 1.48902 1.84509 62.0336
11394417 11.7855 15.416 17.3839 17.4481 1.48902 1.84509 62.0336
11394431 11.8295 15.4345 17.3445 17.4774 1.50507 1.826 62.0859
11394438 11.8471 15.4437 17.3544 17.5066 1.5079 1.82702 62.1518
11394454 11.8471 15.4437 17.3544 17.5066 1.5079 1.82702 62.1518
11394458 11.8648 15.416 17.3445 17.5066 1.49413 1.82764 62.1319
11394468 11.856 15.4252 17.2953 17.4968 1.5187 1.81502 62.0734
11394488 11.9 15.4437 17.3741 17.4968 1.47331 1.81483 62.2146
11394504 11.9 15.4437 17.3741 17.4968 1.47331 1.81483 62.2146
11394508 11.8119 15.4529 17.3248 17.4676 1.52429 1.81953 62.0573
11394527 11.8471 15.4713 17.3347 17.4676 1.51201 1.8071 62.1207
11394529 11.8471 15.4713 17.3347 17.4676 1.51201 1.8071 62.1207
11394541 11.8295 15.4437 17.3445 17.4287 1.49012 1.81316 62.0464
11394549 11.8471 15.4529 17.3347 17.5553 1.53816 1.83067 62.19
11394559 11.8471 15.4529 17.3347 17.5553 1.53816 1.83067 62.19
11394570 11.8295 15.4897 17.2953 17.5261 1.56538 1.81093 62.1406
11394580 11.8295 15.4897 17.2953 17.5261 1.56538 1.81093 62.1406
11394589 11.8207 15.4252 17.2855 17.4968 1.53797 1.82248 62.0283
11394599 11.8471 15.4713 17.2855 17.5261 1.55511 1.80905 62.13
11394609 11.8471 15.4713 17.2855 17.5261 1.55511 1.80905 62.13
11394619 11.8295 15.4805 17.2264 17.5066 1.58404 1.79463 62.043
11394632 11.8471 15.5081 17.2362 17.5163 1.58638 1.78656 62.1079
11394649 11.8031 15.545 17.2362 17.4774 1.60444 1.78021 62.0617
11394660 11.8031 15.545 17.2362 17.4774 1.60444 1.78021 62.0617
11394671 11.7679 15.4989 17.2461 17.4676 1.59428 1.80224 61.9805
11394681 11.7591 15.5358 17.2264 17.4871 1.62776 1.7946 62.0083
11394706 11.7591 15.5358 17.2264 17.4871 1.62776 1.7946 62.0083
11394707 11.7767 15.5173 17.1772 17.4287 1.61233 1.77185 61.8999
11394712 11.7767 15.5634 17.1477 17.4774 1.66078 1.76348 61.9651
11394722 11.7767 15.5634 17.1477 17.4774 1.66078 1.76348 61.9651
11394732 11.8383 15.5726 17.1575 17.4774 1.63352 1.74644 62.0458
11394744 11.8648 15.591 17.1378 17.4774 1.63756 1.73013 62.0709
11394762 11.9 15.591 17.1575 17.5066 1.625 1.73109 62.1551
11394772 11.9 15.591 17.1575 17.5066 1.625 1.73109 62.1551
11394782 11.9 15.6278 17.187 17.4871 1.61889 1.72333 62.202
11394792 11.9352 15.6463 17.0886 17.4092 1.62357 1.67115 62.0793
11394804 11.9352 15.6463 17.0886 17.4092 1.62357 1.67115 62.0793
11394812 11.9617 15.6647 17.1083 17.3215 1.5777 1.64451 62.0561
11394825 11.944 15.6463 17.0098 17.2533 1.59477 1.61822 61.8534
11394834 11.944 15.6463 17.0098 17.2533 1.59477 1.61822 61.8534
11394843 11.9176 15.6371 17.0295 17.2338 1.5868 1.62785 61.818
11394853 11.9176 15.6371 17.0295 17.2338 1.5868 1.62785 61.818
11394863 11.9705 15.6831 17.0295 17.2825 1.59993 1.61182 61.9656
11394873 11.9528 15.6278 17.0787 17.3507 1.59126 1.65669 62.0102
11394883 11.9528 15.6278 17.0787 17.3507 1.59126 1.65669 62.0102
11394893 11.9088 15.6555 17.0394 17.2923 1.61543 1.64002 61.8959
11394903 11.856 15.7107 17.0886 17.3702 1.66721 1.66676 62.0255
11394913 11.856 15.7107 17.0886 17.3702 1.66721 1.66676 62.0255
11394925 11.9264 15.7107 17.0492 17.3897 1.66117 1.64357 62.0761
11394945 11.9793 15.7199 17.0984 17.3312 1.59888 1.62496 62.1289
11394957 11.9264 15.7199 17.0295 17.3702 1.66577 1.63267 62.0461
11394965 11.9264 15.7199 17.0295 17.3702 1.66577 1.63267 62.0461
11394976 12.0057 15.7568 16.9272 17.3215 1.67121 1.56897 62.0112
11394986 11.9793 15.7568 16.9168 17.2825 1.67239 1.56533 61.9354
11395006 11.944 15.7752 16.948 17.2923 1.68473 1.5787 61.9595
11395017 11.9969 15.8028 16.9896 17.3799 1.68743 1.58515 62.1693
11395027 11.9969 15.8028 16.9896 17.3799 1.68743 1.58515 62.1693
11395038 11.9969 15.812 16.896 17.302 1.70187 1.54558 62.0069
11395047 11.9969 15.812 16.896 17.302 1.70187 1.54558 62.0069
11395059 11.9793 15.8304 16.9064 17.341 1.72652 1.55607 62.0571
11395068 12.0233 15.8304 16.8544 17.3117 1.71898 1.52671 62.0199
11395081 12.0233 15.8304 16.8544 17.3117 1.71898 1.52671 62.0199
11395087 11.9793 15.8212 16.8856 17.302 1.7174 1.54557 61.9881
11395097 12.0497 15.7844 16.9168 17.2338 1.63413 1.52856 61.9848
11395109 12.0497 15.7844 16.9168 17.2338 1.63413 1.52856 61.9848
11395128 12.0409 15.8581 16.9064 17.263 1.68111 1.51537 62.0685
11395138 11.9617 15.8028 16.8336 17.2436 1.71853 1.53118 61.8417
11395151 12.085 15.8765 16.844 17.2728 1.69957 1.48732 62.0783
11395167 12.085 15.8765 16.844 17.2728 1.69957 1.48732 62.0783
11395174 12.0409 15.941 16.8336 17.2436 1.73622 1.47327 62.0591
11395178 12.0938 15.9133 16.7193 17.1851 1.73045 1.42879 61.9115
11395198 12.1114 15.9778 16.7505 17.1559 1.72262 1.40748 61.9955
11395208 12.1114 15.9778 16.7505 17.1559 1.72262 1.40748 61.9955
11395219 12.0938 15.941 16.7609 17.1948 1.72654 1.43271 61.9904
11395228 12.1114 15.9686 16.7401 17.1266 1.71267 1.40122 61.9467
11395242 12.1114 15.9686 16.7401 17.1266 1.71267 1.40122 61.9467
11395250 12.1731 16.0054 16.792 17.1266 1.6776 1.38659 62.0972
11395259 12.1466 16.0423 16.7297 17.0974 1.71866 1.36373 62.016
11395272 12.1466 16.0423 16.7297 17.0974 1.71866 1.36373 62.016
11395279 12.2083 16.0423 16.6881 17.0779 1.7027 1.33403 62.0166
11395290 12.2083 16.0423 16.6881 17.0779 1.7027 1.33403 62.0166
11395299 12.1554 16.0423 16.6985 17 1.69168 1.33307 61.8962
11395311 12.1819 16.0423 16.7713 17.0779 1.67829 1.3593 62.0733
11395319 12.1819 16.0423 16.7713 17.0779 1.67829 1.3593 62.0733
11395333 12.1995 16.0699 16.6881 17.0097 1.69125 1.31403 61.9672
11395339 12.1642 16.0699 16.6881 16.9905 1.69919 1.31906 61.9127
11395350 12.1642 16.0699 16.6881 16.9905 1.69919 1.31906 61.9127
11395360 12.1995 16.1251 16.6361 16.9619 1.71645 1.27742 61.9226
11395371 12.1995 16.1251 16.6361 16.9619 1.71645 1.27742 61.9226
11395382 12.1731 16.0515 16.6777 16.9714 1.68577 1.31509 61.8736
11395391 12.2347 16.0883 16.6985 17.0097 1.67853 1.30222 62.0312
11395402 12.2347 16.0883 16.6985 17.0097 1.67853 1.30222 62.0312
11395411 12.2083 16.0883 16.6777 16.9143 1.66293 1.28346 61.8886
11395424 12.2083 16.1251 16.6361 16.9334 1.70191 1.26877 61.9029
11395431 12.2083 16.1251 16.6361 16.9334 1.70191 1.26877 61.9029
11395441 12.2788 16.1712 16.7089 16.8667 1.63251 1.23957 62.0255
11395451 12.2788 16.1712 16.7089 16.8667 1.63251 1.23957 62.0255
11395461 12.1907 16.1343 16.5633 16.9143 1.73726 1.25058 61.8027
11395471 12.2435 16.1712 16.6153 16.9334 1.713 1.24282 61.9634
11395492 12.2611 16.1804 16.5633 16.9429 1.73486 1.22636 61.9477
11395501 12.2171 16.1712 16.5529 17 1.77635 1.25069 61.9412
11395521 12.2876 16.1712 16.6465 17.0097 1.70928 1.25513 62.115
11395542 12.2259 16.1528 16.6257 17.0487 1.75248 1.28013 62.0531
11395554 12.2083 16.208 16.6361 17 1.75805 1.26178 62.0524
11395562 12.2083 16.208 16.6361 17 1.75805 1.26178 62.0524
11395575 12.1819 16.1067 16.6257 16.9048 1.70012 1.27192 61.8191
11395582 12.2259 16.1159 16.6153 16.8858 1.68189 1.25137 61.8429
11395597 12.2259 16.1159 16.6153 16.8858 1.68189 1.25137 61.8429
11395602 12.2083 16.0607 16.6049 16.8763 1.66953 1.26612 61.7501
11395618 12.2083 16.0607 16.6049 16.8763 1.66953 1.26612 61.7501
11395622 12.1731 16.0883 16.6361 16.8667 1.67812 1.27294 61.7642
11395632 12.1907 16.0699 16.6985 16.9619 1.67256 1.30808 61.921
11395642 12.1907 16.0699 16.6985 16.9619 1.67256 1.30808 61.921
11395652 12.2523 16.1159 16.6673 16.9048 1.65527 1.2602 61.9404
11395663 12.2259 16.1528 16.6049 16.9334 1.71817 1.24996 61.9169
11395673 12.2259 16.1528 16.6049 16.9334 1.71817 1.24996 61.9169
11395683 12.2435 16.162 16.6985 16.9048 1.66299 1.25735 62.0088
11395696 12.2171 16.1159 16.6673 16.9524 1.68837 1.28001 61.9527
11395705 12.2171 16.1159 16.6673 16.9524 1.68837 1.28001 61.9527
11395731 12.2964 16.2264 16.6673 16.9334 1.68864 1.22607 62.1235
11395732 12.2964 16.2264 16.6673 16.9334 1.68864 1.22607 62.1235
11395735 12.2347 16.1712 16.5529 16.8858 1.72583 1.22067 61.8446
11395745 12.2964 16.2264 16.5425 16.8287 1.703 1.175 61.894
11395755 12.2964 16.2264 16.5425 16.8287 1.703 1.175 61.894
11395765 12.314 16.2264 16.5945 16.8667 1.68733 1.19049 62.0017
11395774 12.2699 16.1988 16.5945 16.8763 1.69949 1.21134 61.9395
11395793 12.2699 16.1988 16.5945 16.8763 1.69949 1.21134 61.9395
11395800 12.3052 16.1436 16.5737 16.8667 1.66887 1.20983 61.8892
11395808 12.3052 16.1436 16.5737 16.8667 1.66887 1.20983 61.8892
11395817 12.3404 16.1528 16.6361 16.9429 1.65901 1.229 62.0722
11395827 12.2876 16.1343 16.6257 16.7906 1.62185 1.21148 61.8382
11395847 12.3404 16.1528 16.6569 16.7716 1.58548 1.19552 61.9216
11395859 12.3668 16.1436 16.6153 16.8001 1.59931 1.18812 61.9258
11395868 12.3668 16.1436 16.6153 16.8001 1.59931 1.18812 61.9258
11395880 12.2876 16.162 16.6569 16.762 1.60808 1.20483 61.8685
11395888 12.3404 16.0791 16.7193 16.8667 1.56686 1.24985 62.0055
11395902 12.3404 16.0791 16.7193 16.8667 1.56686 1.24985 62.0055
11395908 12.3228 16.1528 16.7297 16.8382 1.58699 1.23114 62.0434
11395918 12.3228 16.1528 16.7297 16.8382 1.58699 1.23114 62.0434
11395930 12.3228 16.1159 16.7713 16.8953 1.57683 1.26265 62.1053
11395940 12.3228 16.1436 16.7609 16.9429 1.60961 1.26364 62.1701
11395960 12.2347 16.0607 16.792 16.8667 1.57401 1.29856 61.9542
11395969 12.2523 15.9962 16.8336 16.8096 1.50257 1.30746 61.8918
11395981 12.2523 15.9962 16.8336 16.8096 1.50257 1.30746 61.8918
11395991 12.2876 16.0515 16.844 16.8667 1.52563 1.29857 62.0498
11396001 12.2876 16.0515 16.844 16.8667 1.52563 1.29857 62.0498
11396012 12.1907 16.0146 16.8544 16.8858 1.55593 1.34027 61.9455
11396021 12.1819 15.987 16.8544 16.9048 1.55645 1.35408 61.9281
11396031 12.1819 15.987 16.8544 16.9048 1.55645 1.35408 61.9281
11396041 12.2083 15.9317 16.8544 17.0585 1.58231 1.39547 62.0529
11396051 12.1907 15.8581 16.8856 16.9714 1.5157 1.40738 61.9058
11396072 12.1819 15.9225 16.9688 17.0097 1.5228 1.41927 62.083
11396082 12.1466 15.8212 16.9168 17.0292 1.52914 1.44834 61.9139
11396102 12.1378 15.766 16.9688 17.0877 1.51187 1.48951 61.9603
11396114 12.1378 15.766 16.9688 17.0877 1.51187 1.48951 61.9603
11396122 12.1642 15.7291 17.0295 17.1266 1.47544 1.51398 62.0496
11396134 12.1026 15.7568 17 17.0877 1.51011 1.50814 61.947
11396143 12.1026 15.7568 17 17.0877 1.51011 1.50814 61.947
11396156 12.0762 15.7107 17.0591 17.1948 1.5193 1.56357 62.0408
11396163 12.1466 15.7107 17.0197 17.1461 1.48756 1.52567 62.0232
11396183 12.0674 15.7107 17.0984 17.1851 1.50256 1.57234 62.0616
11396193 12.0674 15.7107 17.0984 17.1851 1.50256 1.57234 62.0616
11396204 12.0585 15.6647 17.0295 17.2338 1.53679 1.58263 61.9866
11396217 12.0938 15.6555 17.0984 17.263 1.49986 1.59688 62.1107
11396224 12.0938 15.6555 17.0984 17.263 1.49986 1.59688 62.1107
11396235 12.0585 15.6371 17.0394 17.2436 1.5258 1.59426 61.9785
11396247 12.0674 15.6739 17.0886 17.3215 1.54439 1.6095 62.1513
11396271 12.0585 15.5818 17.1181 17.3799 1.52284 1.65543 62.1384
11396276 11.9881 15.5542 17.0984 17.4579 1.58036 1.69426 62.0986
11396297 11.9705 15.5542 17.128 17.4871 1.58628 1.71157 62.1397
11396317 11.8912 15.4989 17.0886 17.4384 1.59791 1.72898 61.9171
11396331 11.9528 15.4989 17.0689 17.5066 1.60565 1.72272 62.0273
11396348 11.9088 15.4621 17.0787 17.4968 1.60275 1.74458 61.9465
11396362 11.9528 15.5081 17.0984 17.5456 1.61114 1.73489 62.105
11396368 11.9528 15.5081 17.0984 17.5456 1.61114 1.73489 62.105
11396378 11.9176 15.5542 17.1181 17.4871 1.61313 1.72369 62.077
11396388 11.9176 15.5542 17.1181 17.4871 1.61313 1.72369 62.077
11396398 11.9352 15.4805 17.0984 17.4287 1.56414 1.72208 61.9428
11396408 12.0057 15.6002 17.0886 17.3897 1.56868 1.66041 62.0842
11396418 12.0057 15.6002 17.0886 17.3897 1.56868 1.66041 62.0842
11396430 11.9528 15.5542 16.9896 17.3897 1.61643 1.6657 61.8863
11396439 11.9617 15.5542 17.0098 17.4092 1.61131 1.67188 61.9348
11396448 11.9617 15.5542 17.0098 17.4092 1.61131 1.67188 61.9348
11396458 11.9881 15.591 17.0098 17.3702 1.59915 1.64648 61.9591
11396468 11.9881 15.591 17.0098 17.3702 1.59915 1.64648 61.9591
11396478 11.9969 15.591 17.0394 17.302 1.55692 1.63577 61.9293
11396488 12.0145 15.6555 17.0394 17.3117 1.57742 1.61586 62.0211
11396500 12.0145 15.6555 17.0394 17.3117 1.57742 1.61586 62.0211
11396509 12.0321 15.6463 16.9376 17.2825 1.59901 1.58528 61.8985
11396523 12.0585 15.7752 16.9272 17.2825 1.64076 1.5415 62.0435
11396530 12.0585 15.7752 16.9272 17.2825 1.64076 1.5415 62.0435
11396539 12.1466 15.8028 16.896 17.2533 1.61576 1.49758 62.0988
11396550 12.1026 15.7568 16.8544 17.2338 1.62781 1.50826 61.9476
11396560 12.1026 15.7568 16.8544 17.2338 1.62781 1.50826 61.9476
11396571 12.1554 15.8489 16.7817 17.2143 1.66374 1.44959 62.0003
11396580 12.1554 15.8489 16.7817 17.2143 1.66374 1.44959 62.0003
11396594 12.1554 15.8581 16.896 17.1754 1.60343 1.46361 62.0849
11396599 12.1466 15.8028 16.844 17.1656 1.605 1.46714 61.9591
11396610 12.1466 15.8028 16.844 17.1656 1.605 1.46714 61.9591
11396620 12.2259 15.8581 16.8232 17.1754 1.60443 1.42905 62.0826
11396630 12.2259 15.8581 16.8232 17.1754 1.60443 1.42905 62.0826
11396642 12.1026 15.8397 16.8336 17.1072 1.62023 1.45401 61.883
11396649 12.1554 15.812 16.8544 17.0585 1.55971 1.44119 61.8804
11396665 12.1554 15.812 16.8544 17.0585 1.55971 1.44119 61.8804
11396671 12.1642 15.812 16.8752 17.039 1.53962 1.43914 61.8905
11396681 12.1819 15.8212 16.9064 17.039 1.5222 1.43884 61.9485
11396701 12.1819 15.8212 16.8648 17.0877 1.55846 1.44041 61.9556
11396711 12.2171 15.8212 16.8024 17.0097 1.54058 1.40028 61.8505
11396722 12.2171 15.8489 16.8024 17.0097 1.55106 1.39295 61.8782
11396732 12.2171 15.8397 16.896 17.0779 1.5333 1.43087 62.0307
11396742 12.2171 15.8397 16.896 17.0779 1.5333 1.43087 62.0307
11396753 12.1819 15.8397 16.8648 17.1169 1.57647 1.44191 62.0033
11396762 12.1995 15.8212 16.9168 17.1461 1.55075 1.45986 62.0837
11396773 12.1995 15.8212 16.9168 17.1461 1.55075 1.45986 62.0837
11396783 12.1819 15.8489 16.9168 17.0877 1.54665 1.44445 62.0352
11396793 12.1466 15.8489 16.8544 17.1169 1.59952 1.44654 61.9668
11396813 12.1731 15.7844 16.9168 17.1364 1.54445 1.47452 62.0107
11396823 12.1731 15.7844 16.9168 17.1364 1.54445 1.47452 62.0107
11396833 12.0762 15.7936 16.9064 17.1266 1.59026 1.49346 61.9028
11396844 12.1554 15.8949 16.896 17.1266 1.59896 1.44322 62.073
11396858 12.1554 15.8949 16.896 17.1266 1.59896 1.44322 62.073
11396865 12.1819 15.8028 16.8544 17.0974 1.55964 1.44515 61.9365
11396882 12.1731 15.7936 16.9168 17.1169 1.54057 1.46783 62.0004
11396896 12.1466 15.8489 16.9064 17.2046 1.6103 1.47702 62.1065
11396907 12.1202 15.7752 16.8856 17.1559 1.58437 1.48848 61.9369
11396928 12.1114 15.8765 16.896 17.1656 1.62559 1.46828 62.0495
11396950 12.1026 15.8489 16.8544 17.1169 1.61844 1.45824 61.9228
11396957 12.1026 15.8212 16.8856 17.2338 1.63871 1.49789 62.0433
11396977 12.1026 15.8581 16.8648 17.1461 1.62848 1.46445 61.9716
11396987 12.1202 15.8304 16.8856 17.1266 1.5942 1.4674 61.9629
11397008 12.1026 15.8397 16.9272 17.1851 1.60945 1.49145 62.0546
11397019 12.1466 15.812 16.8752 17.2241 1.61713 1.48425 62.058
11397029 12.1466 15.812 16.8752 17.2241 1.61713 1.48425 62.058
11397041 12.0938 15.7936 16.9584 17.2533 1.6082 1.52764 62.0991
11397049 12.0938 15.7936 16.9584 17.2533 1.6082 1.52764 62.0991
11397059 12.0938 15.766 16.844 17.263 1.65056 1.51225 61.9668
11397069 12.0497 15.8212 17 17.2728 1.62698 1.54524 62.1438
11397089 12.0497 15.8212 17 17.2728 1.62698 1.54524 62.1438
11397089 12.0585 15.7752 16.948 17.2436 1.61715 1.53756 62.0253
11397099 12.0762 15.7568 17.0295 17.3507 1.60809 1.5786 62.2132
11397110 12.0762 15.7568 17.0295 17.3507 1.60809 1.5786 62.2132
11397119 12.085 15.7199 17.0492 17.3215 1.57105 1.58401 62.1756
11397140 12.0233 15.6831 17.0197 17.2728 1.5778 1.59343 61.9989
11397165 12.0674 15.7015 16.9792 17.2046 1.55746 1.55318 61.9527
11397168 12.0674 15.7015 16.9792 17.2046 1.55746 1.55318 61.9527
11397175 12.0321 15.6186 16.9896 17.1948 1.533 1.58494 61.8352
11397179 12.0762 15.6647 17.0394 17.1754 1.50289 1.56739 61.9556
11397189 12.0762 15.6647 17.0394 17.1754 1.50289 1.56739 61.9556
11397200 12.0938 15.7107 16.9688 17.1948 1.55039 1.53929 61.9682
11397209 12.0938 15.7107 16.9688 17.1948 1.55039 1.53929 61.9682
11397220 11.9881 15.6186 16.9584 17.2338 1.58011 1.59845 61.7989
11397229 11.9881 15.6647 17.0295 17.2825 1.58541 1.61203 61.9648
11397243 11.9881 15.6647 17.0295 17.2825 1.58541 1.61203 61.9648
11397249 12.0585 15.6739 17.128 17.3702 1.54971 1.6308 62.2306
11397264 12.0057 15.6739 17.0394 17.3702 1.61019 1.62589 62.0892
11397269 12.0057 15.6278 17.0394 17.2923 1.56339 1.62142 61.9652
11397280 12.0497 15.7107 17 17.2923 1.5927 1.57893 62.0527
11397290 12.0497 15.7107 17 17.2923 1.5927 1.57893 62.0527
11397299 12.0762 15.6186 16.9792 17.1461 1.50008 1.5603 61.8201
11397312 12.0674 15.6555 16.9168 17.1559 1.54832 1.54134 61.7955
11397331 12.1202 15.7199 16.9064 17.1461 1.55084 1.50561 61.8927
11397341 12.0233 15.6923 16.948 17.1851 1.57888 1.55641 61.8487
11397354 12.0233 15.6923 16.948 17.1851 1.57888 1.55641 61.8487
11397361 12.085 15.7568 16.948 17.2338 1.5952 1.53331 62.0236
11397377 12.085 15.7568 16.948 17.2338 1.5952 1.53331 62.0236
11397381 12.0674 15.7752 16.9272 17.1656 1.59288 1.51374 61.9354
11397391 12.1554 15.812 16.896 17.0682 1.54556 1.45243 61.9317
11397402 12.1554 15.812 16.896 17.0682 1.54556 1.45243 61.9317
11397411 12.1907 15.8765 16.792 17.0779 1.60312 1.40533 61.9371
11397431 12.1554 15.9133 16.8232 16.9714 1.57851 1.38836 61.8635
11397445 12.1819 16.033 16.8648 16.9619 1.59098 1.35679 62.0417
11397461 12.1995 16.0146 16.6985 16.9143 1.62995 1.30979 61.8269
11397471 12.2259 16.1436 16.6569 16.8382 1.65642 1.24278 61.8645
11397482 12.2259 16.1436 16.6569 16.8382 1.65642 1.24278 61.8645
11397491 12.2788 16.1343 16.6361 16.8001 1.62476 1.21823 61.8493
11397501 12.2788 16.1343 16.6361 16.8001 1.62476 1.21823 61.8493
11397513 12.2259 16.162 16.6881 16.8001 1.63557 1.23642 61.8761
11397521 12.2435 16.162 16.7609 16.9048 1.63619 1.27117 62.0712
11397535 12.2435 16.162 16.7609 16.9048 1.63619 1.27117 62.0712
11397541 12.2876 16.0883 16.7193 16.9048 1.60737 1.26973 61.9999
11397551 12.2347 16.0883 16.7297 16.9143 1.62919 1.28802 61.967
11397578 12.2259 16.0975 16.6985 16.9048 1.64628 1.2789 61.9267
11397583 12.2259 16.0975 16.6985 16.9048 1.64628 1.2789 61.9267
11397592 12.1554 15.9962 16.7401 17.0195 1.66375 1.35869 61.9112
11397602 12.1642 15.9502 16.844 17.0097 1.59422 1.38927 61.9682
11397612 12.1642 15.9502 16.844 17.0097 1.59422 1.38927 61.9682
11397625 12.1202 15.9594 16.896 17.0779 1.62 1.42483 62.0535
11397633 12.1026 15.9317 16.9376 17.0682 1.59563 1.44378 62.0401
11397643 12.1026 15.9317 16.9376 17.0682 1.59563 1.44378 62.0401
11397653 12.1378 15.9225 16.9376 17.1656 1.61377 1.45814 62.1636
11397673 12.0409 15.8212 17.0098 17.1559 1.58249 1.52437 62.0279
11397683 12.0409 15.8212 17.0492 17.2241 1.59134 1.5477 62.1355
11397695 12.0409 15.8212 17.0492 17.2241 1.59134 1.5477 62.1355
11397704 12.085 15.8028 16.948 17.2825 1.6309 1.53161 62.1183
11397718 12.0497 15.7936 17.0295 17.2338 1.58926 1.55056 62.1067
11397729 12.0497 15.7936 17.0295 17.2338 1.58926 1.55056 62.1067
11397735 12.1026 15.7384 17.0098 17.263 1.56525 1.55326 62.1138
11397744 12.0938 15.6739 17.0591 17.2143 1.5052 1.57292 62.0411
11397754 12.0938 15.6739 17.0591 17.2143 1.5052 1.57292 62.0411
11397764 12.0233 15.7107 17.1181 17.263 1.54243 1.60519 62.1152
11397774 12.0233 15.7107 17.1181 17.263 1.54243 1.60519 62.1152
11397787 11.9881 15.6647 17.0984 17.2533 1.54483 1.6206 62.0045
11397796 11.9881 15.6094 17.1772 17.2728 1.49762 1.65659 62.0475
11397804 11.9881 15.6094 17.1772 17.2728 1.49762 1.65659 62.0475
11397815 11.9176 15.591 17.2658 17.2923 1.49028 1.70367 62.0667
11397835 11.9528 15.5358 17.2166 17.3799 1.50853 1.7173 62.0851
11397845 11.9 15.5265 17.2461 17.3897 1.51869 1.74242 62.0623
11397856 11.9 15.5265 17.2461 17.3897 1.51869 1.74242 62.0623
11397867 11.9176 15.5265 17.2855 17.3799 1.49068 1.74399 62.1096
11397876 11.944 15.4621 17.3248 17.3312 1.41972 1.75226 62.0622
11397900 11.9088 15.4529 17.3052 17.3897 1.46181 1.77254 62.0565
11397907 11.9088 15.5265 17.2756 17.3507 1.48756 1.73802 62.0617
11397917 11.9088 15.5265 17.2756 17.3507 1.48756 1.73802 62.0617
11397929 11.9617 15.545 17.2461 17.4092 1.5067 1.72501 62.1619
11397937 11.9617 15.545 17.2461 17.4092 1.5067 1.72501 62.1619
11397953 11.8648 15.4252 17.315 17.3507 1.45111 1.78572 61.9557
11397958 11.7855 15.5081 17.2658 17.4676 1.58176 1.79916 62.027
11397970 11.7855 15.5081 17.2658 17.4676 1.58176 1.79916 62.027
11397978 11.8912 15.545 17.2166 17.4287 1.55677 1.74184 62.0814
11397987 11.856 15.4805 17.1969 17.4871 1.57802 1.77704 62.0204
11398004 11.856 15.4805 17.1969 17.4871 1.57802 1.77704 62.0204
11398007 11.8207 15.4805 17.2855 17.4871 1.55517 1.80544 62.0738
11398017 11.8207 15.4805 17.2855 17.4871 1.55517 1.80544 62.0738
11398029 11.856 15.4621 17.3544 17.5066 1.5111 1.81965 62.179
11398037 11.856 15.4529 17.3347 17.4579 1.49759 1.80762 62.1014
11398055 11.856 15.4529 17.3347 17.4579 1.49759 1.80762 62.1014
11398057 11.8736 15.4437 17.2953 17.4384 1.49602 1.79283 62.0509
11398067 11.7767 15.4437 17.2855 17.4968 1.56379 1.82943 62.0027
11398079 11.7767 15.4437 17.2855 17.4968 1.56379 1.82943 62.0027
11398087 11.8031 15.416 17.3839 17.5261 1.511 1.85682 62.1291
11398105 11.8031 15.416 17.3839 17.5261 1.511 1.85682 62.1291
11398108 11.8031 15.4345 17.315 17.5358 1.55108 1.83929 62.0884
11398118 11.7943 15.3976 17.3052 17.5456 1.54882 1.85166 62.0426
11398138 11.8383 15.5081 17.2855 17.5163 1.56909 1.79941 62.1483
11398149 11.8471 15.5542 17.2559 17.4871 1.58429 1.7721 62.1444
11398159 11.8471 15.5542 17.2559 17.4871 1.58429 1.7721 62.1444
11398171 11.8383 15.5173 17.2067 17.5553 1.62095 1.78846 62.1177
11398180 11.8383 15.5173 17.2067 17.5553 1.62095 1.78846 62.1177
11398193 11.7415 15.4805 17.2166 17.5553 1.64444 1.82678 61.9938
11398201 11.7767 15.4805 17.2166 17.5163 1.61461 1.80893 61.9901
11398218 11.7767 15.4805 17.2166 17.5163 1.61461 1.80893 61.9901
11398221 11.7062 15.4621 17.2362 17.5358 1.63683 1.84139 61.9404
11398231 11.7238 15.4252 17.1969 17.6138 1.66168 1.85481 61.9597
11398251 11.715 15.4805 17.3642 17.643 1.62542 1.88376 62.2027
11398263 11.715 15.4805 17.3052 17.643 1.65073 1.87129 62.1437
11398271 11.715 15.3608 17.3052 17.604 1.59096 1.89563 61.985
11398281 11.7062 15.3332 17.3347 17.6625 1.59371 1.92413 62.0365
11398301 11.7238 15.3792 17.3741 17.7307 1.61232 1.92943 62.2077
11398312 11.671 15.3792 17.3248 17.7014 1.64507 1.92732 62.0765
11398322 11.671 15.3792 17.3248 17.7014 1.64507 1.92732 62.0765
11398333 11.7062 15.416 17.2855 17.7599 1.68264 1.91171 62.1676
11398342 11.7415 15.4068 17.3052 17.7501 1.65198 1.90673 62.2036
11398356 11.7415 15.4068 17.3052 17.7501 1.65198 1.90673 62.2036
11398368 11.6886 15.3884 17.2855 17.7014 1.65788 1.91171 62.0639
11398372 11.6886 15.3884 17.2855 17.7014 1.65788 1.91171 62.0639
11398393 11.6974 15.3792 17.2461 17.6722 1.65655 1.89734 61.9949
11398394 11.6974 15.416 17.2658 17.6722 1.66195 1.89147 62.0514
11398404 11.6974 15.416 17.2658 17.6722 1.66195 1.89147 62.0514
11398413 11.7238 15.4252 17.2362 17.6819 1.67041 1.87759 62.0673
11398426 11.6974 15.4529 17.2855 17.6625 1.66368 1.88354 62.0982
11398433 11.6974 15.4529 17.2855 17.6625 1.66368 1.88354 62.0982
11398447 11.7238 15.4437 17.2067 17.6819 1.69003 1.86633 62.0562
11398454 11.7238 15.4437 17.2067 17.6819 1.69003 1.86633 62.0562
11398465 11.6798 15.4437 17.2461 17.7014 1.69935 1.89076 62.071
11398474 11.7062 15.4713 17.2067 17.6332 1.68968 1.8533 62.0175
11398484 11.7062 15.4713 17.2067 17.6332 1.68968 1.8533 62.0175
11398495 11.7503 15.4345 17.1673 17.6138 1.66649 1.83885 61.9658
11398505 11.7326 15.4437 17.1378 17.643 1.70125 1.84107 61.9571
11398518 11.7326 15.4437 17.1378 17.643 1.70125 1.84107 61.9571
11398527 11.7679 15.416 17.1969 17.7209 1.67958 1.86804 62.1017
11398544 11.7415 15.4989 17.2461 17.7014 1.69358 1.859 62.1879
11398554 11.7415 15.4529 17.2264 17.7307 1.69573 1.87351 62.1514
11398576 11.7503 15.4621 17.2067 17.6332 1.66728 1.84384 62.0523
11398589 11.6886 15.4529 17.2362 17.7014 1.70325 1.88377 62.0792
11398611 11.7238 15.5265 17.2067 17.6138 1.69554 1.82938 62.0708
11398616 11.7062 15.4345 17.187 17.6138 1.67697 1.85501 61.9415
11398634 11.7062 15.4345 17.187 17.6138 1.67697 1.85501 61.9415
11398637 11.7326 15.4897 17.2067 17.5943 1.67059 1.83285 62.0233
11398657 11.7062 15.4805 17.2362 17.5066 1.63275 1.83017 61.9296
11398667 11.715 15.5173 17.2953 17.5943 1.65049 1.84892 62.1219
11398680 11.715 15.5173 17.2953 17.5943 1.65049 1.84892 62.1219
11398688 11.7503 15.5726 17.3248 17.4871 1.60321 1.80795 62.1348
11398704 11.7238 15.4897 17.2953 17.5943 1.63632 1.85402 62.1031
11398708 11.7238 15.4897 17.2953 17.5943 1.63632 1.85402 62.1031
11398718 11.7503 15.5358 17.315 17.5845 1.63021 1.83648 62.1855
11398729 11.7503 15.5358 17.315 17.5845 1.63021 1.83648 62.1855
11398740 11.7591 15.4805 17.2855 17.5163 1.5926 1.82835 62.0414
11398750 11.7326 15.4897 17.3052 17.4774 1.58426 1.82893 62.0049
11398758 11.7326 15.4897 17.3052 17.4774 1.58426 1.82893 62.0049
11398772 11.7415 15.4621 17.2461 17.4871 1.59907 1.82356 61.9367
11398778 11.7503 15.5634 17.1772 17.5943 1.70339 1.80184 62.0851
11398788 11.7503 15.5634 17.1772 17.5943 1.70339 1.80184 62.0851
11398798 11.8031 15.5542 17.2461 17.5456 1.62936 1.79433 62.1489
11398808 11.8031 15.5542 17.2461 17.5456 1.62936 1.79433 62.1489
11398818 11.7238 15.5358 17.187 17.4871 1.65983 1.79576 61.9337
11398828 11.7855 15.6186 17.1477 17.5163 1.69242 1.75449 62.0681
11398840 11.7855 15.6186 17.1477 17.5163 1.69242 1.75449 62.0681
11398849 11.8824 15.6186 17.0689 17.4968 1.67731 1.70737 62.0668
11398862 11.7591 15.6002 17.1181 17.5553 1.72422 1.76862 62.0327
11398879 11.7415 15.6186 17.128 17.4968 1.71254 1.75803 61.9849
11398899 11.7679 15.6831 17.0492 17.4871 1.75565 1.71455 61.9873
11398910 11.8207 15.6831 17.0394 17.5163 1.74805 1.70447 62.0595
11398921 11.8207 15.6831 17.0394 17.5163 1.74805 1.70447 62.0595
11398932 11.7855 15.7384 16.9896 17.4676 1.78719 1.67794 61.9811
11398942 11.8471 15.7199 16.9376 17.4676 1.77611 1.65513 61.9723
11398955 11.8471 15.7199 16.9376 17.4676 1.77611 1.65513 61.9723
11398961 11.8295 15.7844 16.9376 17.4287 1.79327 1.63415 61.9802
11398971 11.8471 15.8028 16.9792 17.4579 1.78553 1.63974 62.0871
11398981 11.8471 15.8028 16.9792 17.4579 1.78553 1.63974 62.0871
11399008 11.856 15.8304 17.0098 17.5456 1.81156 1.6554 62.2418
11399009 11.856 15.8304 17.0098 17.5456 1.81156 1.6554 62.2418
11399012 11.8471 15.8028 16.9168 17.4968 1.82703 1.6347 62.0636
11399022 11.8119 15.8489 16.9168 17.4968 1.85945 1.6318 62.0744
11399032 11.8119 15.8489 16.9168 17.4968 1.85945 1.6318 62.0744
11399043 11.8207 15.8673 16.9064 17.3215 1.80148 1.58438 61.9159
11399052 11.9088 15.8028 16.8752 17.3799 1.77463 1.58396 61.9668
11399062 11.9088 15.8028 16.8752 17.3799 1.77463 1.58396 61.9668
11399072 11.8736 15.8397 16.8232 17.3215 1.80427 1.55958 61.858
11399082 11.8736 15.8397 16.8232 17.3215 1.80427 1.55958 61.858
11399092 11.8295 15.8304 16.8544 17.3897 1.83193 1.5954 61.9041
11399102 11.8736 15.8581 16.8336 17.4189 1.84312 1.57804 61.9842
11399112 11.8736 15.8581 16.8336 17.4189 1.84312 1.57804 61.9842
11399122 11.8912 15.8581 16.844 17.4287 1.83463 1.57769 62.022
11399143 11.8912 15.8765 16.844 17.3799 1.82331 1.56222 61.9917
11399154 11.9088 15.8581 16.8752 17.3799 1.79532 1.56919 62.022
11399163 11.9088 15.8581 16.8752 17.3799 1.79532 1.56919 62.022
11399173 11.9 15.9502 16.8648 17.341 1.82348 1.53627 62.056
11399183 11.944 15.8857 16.8232 17.3312 1.79467 1.53057 61.9842
11399199 11.944 15.8857 16.8232 17.3312 1.79467 1.53057 61.9842
11399205 11.9176 15.8673 16.8336 17.3507 1.802 1.54902 61.9693
11399214 11.9528 15.8581 16.792 17.3312 1.794 1.52881 61.9342
11399225 11.9528 15.8581 16.792 17.3312 1.794 1.52881 61.9342
11399234 11.9705 15.8304 16.792 17.3702 1.79063 1.53995 61.9632
11399245 11.9705 15.8304 16.792 17.3702 1.79063 1.53995 61.9632
11399255 11.8824 15.8765 16.7713 17.3799 1.85866 1.54878 61.9101
11399264 11.9969 15.8489 16.8128 17.3994 1.78807 1.53885 62.058
11399286 11.9528 15.8949 16.8336 17.3994 1.81531 1.54282 62.0808
11399296 11.8648 15.8212 16.8648 17.4579 1.83422 1.60543 62.0087
11399316 11.9352 15.9041 16.792 17.4871 1.87703 1.55504 62.1185
11399330 11.9352 15.9041 16.792 17.4871 1.87703 1.55504 62.1185
11399336 11.8824 15.8489 16.8024 17.4871 1.87483 1.58615 62.0208
11399346 11.8824 15.8304 16.844 17.4579 1.83904 1.59376 62.0147
11399357 11.8824 15.8304 16.844 17.4579 1.83904 1.59376 62.0147
11399366 11.8912 15.8581 16.844 17.5261 1.87096 1.59874 62.1194
11399376 11.856 15.8489 16.792 17.4287 1.86898 1.57832 61.9255
11399387 11.856 15.8489 16.792 17.4287 1.86898 1.57832 61.9255
11399397 11.9088 15.8857 16.8648 17.3994 1.81742 1.56378 62.0588
11399417 11.8824 15.8765 16.8232 17.3897 1.83977 1.56218 61.9718
11399427 11.9176 15.8581 16.8128 17.4287 1.83669 1.56387 62.0172
11399438 11.9176 15.8581 16.8128 17.4287 1.83669 1.56387 62.0172
11399447 11.9264 15.9225 16.8024 17.3312 1.82507 1.52092 61.9826
11399459 11.944 15.9502 16.8336 17.4092 1.84336 1.53256 62.137
11399480 11.9528 15.9594 16.8024 17.1948 1.77635 1.47435 61.9095
11399487 11.9528 15.9594 16.8024 17.1948 1.77635 1.47435 61.9095
11399497 11.9705 16.0238 16.7505 17.1656 1.80444 1.43476 61.9104
11399507 12.0057 16.0883 16.7401 17.1948 1.82874 1.41246 62.0289
11399517 12.0057 16.0883 16.7401 17.1948 1.82874 1.41246 62.0289
11399528 11.9705 16.0699 16.6569 17.1169 1.84401 1.39129 61.8141
11399538 12.0409 16.0883 16.6881 17.1948 1.83598 1.39175 62.0121
11399548 12.0409 16.0883 16.6881 17.1948 1.83598 1.39175 62.0121
11399565 12.0145 16.1528 16.7089 17.2338 1.87699 1.3948 62.1099
11399568 12.0145 16.1528 16.7089 17.2338 1.87699 1.3948 62.1099
11399578 12.0145 16.1343 16.6985 17.1656 1.8492 1.38243 62.0129
11399588 12.0233 16.162 16.7713 17.1559 1.8206 1.38664 62.1124
11399610 12.0057 16.1159 16.7193 17.1266 1.82257 1.38563 61.9675
11399619 12.0057 16.1159 16.6881 17.1754 1.85428 1.38948 61.9851
11399630 12.0057 16.1159 16.6881 17.1754 1.85428 1.38948 61.9851
11399652 12.0057 16.1067 16.7713 17.0974 1.7857 1.39307 61.9811
11399654 11.9969 16.1067 16.6465 17.0585 1.82895 1.35936 61.8085
11399659 11.9969 16.0791 16.6465 17.0585 1.81859 1.36667 61.7809
11399671 12.0321 16.1067 16.7817 17.1266 1.78074 1.39478 62.0471
11399679 12.0321 16.1067 16.7817 17.1266 1.78074 1.39478 62.0471
11399689 12.0409 16.0791 16.6777 17.0585 1.78597 1.3619 61.8562
11399700 11.9881 16.1067 16.8128 17.039 1.75343 1.39403 61.9466
11399709 11.9881 16.1067 16.8128 17.039 1.75343 1.39403 61.9466
11399719 12.0321 16.1067 16.8752 17.0487 1.7112 1.3982 62.0628
11399729 12.0321 16.1067 16.8752 17.0487 1.7112 1.3982 62.0628
11399739 12.0057 16.0791 16.896 17.0292 1.69593 1.41279 62.01
11399749 12.0321 16.0423 16.9064 17.0585 1.67723 1.42422 62.0393
11399771 11.9352 16.0146 16.844 17.0292 1.72451 1.43718 61.8231
11399782 12.0321 16.0238 16.8544 17.0487 1.68901 1.41558 61.9591
11399801 12.0321 15.987 16.8544 17.0585 1.67882 1.42748 61.932
11399812 12.0321 15.941 16.9272 17.1072 1.6485 1.46627 62.0075
11399827 12.0321 15.941 16.9272 17.1072 1.6485 1.46627 62.0075
11399831 11.9969 15.9778 16.9584 17.0779 1.6531 1.46627 62.011
11399841 11.9969 15.9778 16.9584 17.0779 1.6531 1.46627 62.011
11399852 11.9881 15.9317 16.9064 17.0974 1.66926 1.47376 61.9237
11399861 12.0497 15.9317 16.9688 17.2143 1.65992 1.49643 62.1646
11399878 12.0497 15.9317 16.9688 17.2143 1.65992 1.49643 62.1646
11399882 12.0497 15.941 16.9272 17.2241 1.68488 1.48706 62.142
11399891 11.9264 15.8949 16.8856 17.1072 1.6946 1.49758 61.8141
11399904 11.9264 15.8949 16.8856 17.1072 1.6946 1.49758 61.8141
11399912 12.0145 15.8949 16.9584 17.1266 1.63266 1.49424 61.9945
11399933 11.9617 15.8765 16.9272 17.1169 1.6582 1.5043 61.8823
11399942 12.0057 15.9225 16.9272 17.1754 1.67859 1.49305 62.0308
11399956 12.0057 15.9225 16.9272 17.1754 1.67859 1.49305 62.0308
11399962 11.9617 15.8489 16.9792 17.1754 1.64744 1.53571 61.9651
11399973 11.8912 15.8397 17.0197 17.1948 1.66422 1.57002 61.9454
11399993 11.9881 15.8028 17.0295 17.2436 1.62282 1.56665 62.064
11400007 11.9881 15.8028 17.0295 17.2436 1.62282 1.56665 62.064
11400013 11.8912 15.7568 17.0689 17.2241 1.62282 1.6092 61.9409
11400023 11.944 15.766 17.0492 17.3312 1.65241 1.61146 62.0905
11400033 11.944 15.766 17.0492 17.3312 1.65241 1.61146 62.0905
11400043 11.9088 15.7568 17.0984 17.4189 1.67588 1.65281 62.1829
11400053 11.9088 15.6923 17.0197 17.3799 1.67085 1.64478 62.0007
11400073 11.9881 15.7291 17.0689 17.341 1.61489 1.61588 62.1271
11400084 11.9881 15.7291 17.0689 17.341 1.61489 1.61588 62.1271
11400095 11.9264 15.7291 16.9792 17.2728 1.6542 1.59829 61.9076
11400107 11.9264 15.7384 17.0689 17.2728 1.61911 1.61521 62.0065
11400125 11.9088 15.6923 17.0591 17.2143 1.59143 1.61753 61.8745
11400136 11.8912 15.766 17.0591 17.2143 1.62685 1.60249 61.9306
11400146 11.8912 15.766 17.0591 17.2143 1.62685 1.60249 61.9306
11400162 11.9969 15.766 17.0984 17.2143 1.56462 1.58272 62.0756
11400176 11.9793 15.8304 17.0197 17.1559 1.60819 1.54049 61.9853
11400189 11.9881 15.812 17.0787 17.1656 1.57581 1.55798 62.0445
11400196 11.9881 15.812 17.0787 17.1656 1.57581 1.55798 62.0445
11400206 11.9881 15.812 17.0591 17.1461 1.57689 1.54948 62.0053
11400217 11.9352 15.812 17.0197 17.263 1.66054 1.5804 62.03
11400227 11.9352 15.812 17.0197 17.263 1.66054 1.5804 62.03
11400239 12.0145 15.8765 17.0197 17.2241 1.63611 1.53362 62.1348
11400247 11.9088 15.8857 16.9792 17.2338 1.70604 1.55268 62.0075
11400267 11.9088 15.8857 16.9792 17.2338 1.70604 1.55268 62.0075
11400268 11.9264 15.812 17 17.341 1.70209 1.59534 62.0794
11400288 11.9176 15.812 16.9792 17.3702 1.72579 1.59952 62.079
11400300 11.9088 15.8397 17.0591 17.4384 1.73111 1.62637 62.2459
11400311 11.9088 15.8397 17.0591 17.4384 1.73111 1.62637 62.2459
11400320 11.8471 15.8489 16.9688 17.4968 1.82176 1.63356 62.1617
11400330 11.856 15.8581 16.9896 17.4384 1.79062 1.62063 62.142
11400340 11.856 15.8581 16.9896 17.4384 1.79062 1.62063 62.142
11400350 11.8648 15.7936 16.948 17.4676 1.79159 1.63287 62.074
11400359 11.8207 15.7844 16.9584 17.4774 1.80632 1.65149 62.0409
11400372 11.8207 15.7844 16.9584 17.4774 1.80632 1.65149 62.0409
11400379 11.7415 15.8489 17.0197 17.5261 1.85633 1.67908 62.1361
11400399 11.7943 15.7752 17.0197 17.5261 1.80603 1.68468 62.1152
11400409 11.7326 15.7476 17.0394 17.565 1.82839 1.72125 62.0846
11400419 11.7326 15.7476 17.0394 17.565 1.82839 1.72125 62.0846
11400437 11.7679 15.7384 17.0886 17.5553 1.78487 1.72268 62.1501
11400441 11.7943 15.7384 17.1477 17.4774 1.71892 1.71154 62.1577
11400451 11.7943 15.7199 17.1477 17.4774 1.71202 1.7165 62.1393
11400463 11.7767 15.7568 17.0787 17.5261 1.78127 1.70701 62.1383
11400471 11.7767 15.7568 17.0787 17.5261 1.78127 1.70701 62.1383
11400488 11.715 15.6371 17.1575 17.5066 1.72178 1.76857 62.0162
11400492 11.6358 15.6371 17.128 17.5748 1.79431 1.79828 61.9756
11400502 11.6358 15.6371 17.128 17.5748 1.79431 1.79828 61.9756
11400511 11.6974 15.6278 17.1477 17.6138 1.77032 1.79656 62.0867
11400521 11.6974 15.6278 17.128 17.6138 1.77881 1.79237 62.067
11400531 11.6974 15.6371 17.128 17.6235 1.7859 1.79195 62.0859
11400541 11.7062 15.6094 17.1673 17.6235 1.75479 1.80541 62.1065
11400551 11.7062 15.6094 17.1673 17.6235 1.75479 1.80541 62.1065
11400561 11.671 15.591 17.1378 17.643 1.78312 1.81781 62.0428
11400573 11.6974 15.5818 17.1181 17.604 1.76217 1.80067 62.0013
11400581 11.6974 15.5818 17.1181 17.604 1.76217 1.80067 62.0013
11400591 11.6534 15.6002 17.0886 17.7209 1.84456 1.82619 62.0631
11400601 11.6534 15.6002 17.0886 17.7209 1.84456 1.82619 62.0631
11400612 11.6534 15.6094 17.1477 17.6332 1.78972 1.81761 62.0437
11400622 11.6798 15.6371 17.2067 17.6722 1.77776 1.82378 62.1958
11400632 11.6798 15.6371 17.2067 17.6722 1.77776 1.82378 62.1958
11400642 11.7062 15.6094 17.1673 17.6332 1.75844 1.80748 62.1162
11400652 11.6798 15.5726 17.2166 17.643 1.73848 1.83713 62.1119
11400672 11.671 15.6186 17.187 17.6235 1.76494 1.81664 62.1001
11400685 11.671 15.6186 17.187 17.6235 1.76494 1.81664 62.1001
11400693 11.7326 15.591 17.2461 17.5845 1.68806 1.8117 62.1543
11400707 11.7855 15.6002 17.2264 17.5358 1.659 1.78039 62.1479
11400714 11.7855 15.6002 17.2264 17.5358 1.659 1.78039 62.1479
11400723 11.7679 15.4805 17.3052 17.5358 1.58775 1.83428 62.0893
11400735 11.7503 15.4989 17.3544 17.4676 1.55544 1.83003 62.0712
11400743 11.7503 15.4989 17.3544 17.4676 1.55544 1.83003 62.0712
11400754 11.7238 15.4805 17.2855 17.4579 1.58564 1.8255 61.9477
11400765 11.7503 15.4621 17.3445 17.5845 1.58985 1.8627 62.1414
11400784 11.7767 15.5173 17.4134 17.5943 1.57359 1.85718 62.3017
11400794 11.7767 15.5173 17.4134 17.5943 1.57359 1.85718 62.3017
11400805 11.7503 15.4713 17.3741 17.565 1.57335 1.86232 62.1607
11400816 11.7855 15.4805 17.3741 17.5748 1.56544 1.85234 62.2148
11400837 11.7062 15.4897 17.3642 17.4481 1.55923 1.84244 62.0083
11400847 11.6798 15.4345 17.4233 17.4579 1.52805 1.87923 61.9954
11400856 11.6798 15.4345 17.4233 17.4579 1.52805 1.87923 61.9954
11400870 11.6622 15.4529 17.3544 17.4676 1.57577 1.86648 61.937
11400876 11.6622 15.4529 17.3544 17.4676 1.57577 1.86648 61.937
11400886 11.6886 15.3792 17.5217 17.4676 1.46498 1.91474 62.0571
11400896 11.6798 15.2963 17.5316 17.4968 1.44418 1.94799 62.0045
11400912 11.6798 15.2963 17.5316 17.4968 1.44418 1.94799 62.0045
11400921 11.6798 15.3884 17.5709 17.4384 1.44017 1.91884 62.0775
11400934 11.715 15.3792 17.5709 17.4384 1.42168 1.91175 62.1035
11400938 11.715 15.3792 17.5709 17.4384 1.42168 1.91175 62.1035
11400947 11.6622 15.3884 17.5906 17.4189 1.43189 1.92369 62.0601
11400967 11.6798 15.3976 17.5512 17.4092 1.44095 1.90602 62.0378
11400978 11.7062 15.4068 17.5512 17.3702 1.41839 1.88808 62.0345
11400987 11.7062 15.4068 17.5512 17.3702 1.41839 1.88808 62.0345
11401000 11.6974 15.3884 17.5119 17.3994 1.44303 1.89335 61.9971
11401007 11.7415 15.4897 17.4627 17.3605 1.4689 1.83516 62.0543
11401017 11.7415 15.4897 17.4627 17.3605 1.4689 1.83516 62.0543
11401027 11.7326 15.4621 17.3839 17.4189 1.51798 1.84074 61.9975
11401047 11.7238 15.4345 17.4725 17.3312 1.44014 1.85084 61.962
11401057 11.7767 15.5358 17.4823 17.341 1.45557 1.81318 62.1357
11401068 11.7767 15.5358 17.4823 17.341 1.45557 1.81318 62.1357
11401078 11.8031 15.4897 17.4922 17.2533 1.38935 1.80195 62.0383
11401088 11.856 15.4621 17.4922 17.2241 1.34523 1.7889 62.0343
11401108 11.8471 15.5542 17.4331 17.1656 1.3869 1.74131 62.0001
11401129 11.8824 15.5542 17.3347 17.1072 1.39155 1.69816 61.8784
11401131 11.8824 15.5542 17.3347 17.1072 1.39155 1.69816 61.8784
11401140 11.9617 15.6371 17.4331 17.039 1.32157 1.66102 62.0708
11401154 11.9617 15.6371 17.4331 17.039 1.32157 1.66102 62.0708
11401160 11.9352 15.6186 17.443 17 1.30669 1.6668 61.9968
11401171 12.0057 15.6831 17.3839 16.9524 1.3083 1.60762 62.0251
11401181 12.0057 15.6831 17.3839 16.9524 1.3083 1.60762 62.0251
11401191 12.0674 15.7199 17.3248 16.8667 1.28854 1.54995 61.9789
11401206 12.0585 15.7844 17.2953 16.8096 1.30762 1.51627 61.9479
11401211 12.0585 15.7844 17.2953 16.8096 1.30762 1.51627 61.9479
11401221 12.1202 15.7936 17.315 16.7811 1.26572 1.49547 62.0099
11401232 12.1202 15.7936 17.315 16.7811 1.26572 1.49547 62.0099
11401242 12.1378 15.7844 17.2362 16.762 1.28082 1.4719 61.9205
11401251 12.1466 15.7844 17.1969 16.724 1.27921 1.45262 61.8519
11401272 12.1554 15.8397 17.2559 16.6573 1.24604 1.43394 61.9084
11401281 12.1202 15.8304 17.2264 16.7144 1.29189 1.45178 61.8915
11401295 12.1202 15.8304 17.2264 16.7144 1.29189 1.45178 61.8915
11401302 12.2347 15.9594 17.3445 16.7049 1.23911 1.41108 62.2435
11401316 12.2347 15.9594 17.3445 16.7049 1.23911 1.41108 62.2435
11401322 12.2171 15.8489 17.2658 16.6002 1.19736 1.40478 61.932
11401338 12.2611 15.8857 17.2855 16.6669 1.21014 1.40231 62.0992
11401342 12.2611 15.8857 17.2855 16.6669 1.21014 1.40231 62.0992
11401352 12.2083 15.9225 17.2559 16.6288 1.24448 1.39172 62.0155
11401362 12.2523 15.8765 17.2658 16.6764 1.22229 1.40484 62.071
11401372 12.2523 15.8765 17.2658 16.6764 1.22229 1.40484 62.071
11401382 12.2083 15.8304 17.2559 16.6764 1.22742 1.42653 61.971
11401392 12.2083 15.8304 17.2559 16.6764 1.22742 1.42653 61.971
11401403 12.1554 15.7568 17.3347 16.6573 1.18085 1.4732 61.9042
11401413 12.1554 15.8028 17.4233 16.6954 1.17576 1.48858 62.0769
11401433 12.1731 15.7844 17.3544 16.7049 1.19399 1.47585 62.0168
11401449 12.1554 15.7752 17.4233 16.8001 1.20531 1.51867 62.154
11401466 12.1554 15.7752 17.4233 16.8001 1.20531 1.51867 62.154
11401477 12.0674 15.6647 17.4331 16.7525 1.17766 1.56343 61.9177
11401478 12.085 15.6739 17.5217 16.8763 1.18388 1.60218 62.1568
11401485 12.085 15.6739 17.5217 16.8763 1.18388 1.60218 62.1568
11401502 12.0762 15.6831 17.443 16.8382 1.20976 1.57685 62.0404
11401505 12.0762 15.6831 17.443 16.8382 1.20976 1.57685 62.0404
11401515 12.0321 15.6186 17.5217 16.9143 1.19958 1.63931 62.0868
11401528 11.9881 15.5818 17.502 16.9524 1.22698 1.66497 62.0243
11401534 11.9881 15.5818 17.502 16.9524 1.22698 1.66497 62.0243
11401545 11.9881 15.5818 17.6694 17 1.17464 1.71102 62.2393
11401558 11.9881 15.5818 17.6694 17 1.17464 1.71102 62.2393
11401571 11.9352 15.545 17.6103 17.0585 1.23006 1.735 62.149
11401583 11.9176 15.5634 17.6792 17.0487 1.21175 1.7474 62.2089
11401585 11.9176 15.5634 17.6792 17.0487 1.21175 1.7474 62.2089
11401596 11.9088 15.4621 17.6103 17.0585 1.20947 1.76449 62.0396
11401610 11.8648 15.4345 17.6989 17.0974 1.19502 1.81102 62.0955
11401616 11.8648 15.4345 17.6989 17.0974 1.19502 1.81102 62.0955
11401626 11.8031 15.4345 17.6595 17.1169 1.24517 1.82351 62.014
11401637 11.7767 15.4068 17.6103 17.1754 1.28902 1.84015 61.9692
11401648 11.7767 15.4068 17.6103 17.1754 1.28902 1.84015 61.9692
11401663 11.7855 15.3884 17.6989 17.2728 1.27796 1.88214 62.1456
11401666 11.7855 15.3884 17.6989 17.2728 1.27796 1.88214 62.1456
11401676 11.7679 15.3792 17.6005 17.2338 1.30873 1.86037 61.9813
11401689 11.8031 15.3884 17.63 17.2338 1.28479 1.85454 62.0553
11401706 11.8648 15.4252 17.6103 17.2436 1.28481 1.82573 62.1439
11401716 11.8207 15.4345 17.63 17.2338 1.29491 1.83727 62.119
11401743 11.8471 15.4252 17.63 17.2241 1.2765 1.83054 62.1265
11401747 11.8471 15.4252 17.63 17.2241 1.2765 1.83054 62.1265
11401757 11.7591 15.4437 17.6103 17.1364 1.29569 1.82664 61.9494
11401771 11.7855 15.4252 17.5316 17.1266 1.30713 1.80562 61.8689
11401787 11.8648 15.5081 17.502 17.0682 1.29535 1.74289 61.9431
11401797 11.8295 15.5726 17.4823 17.0877 1.35077 1.73495 61.9721
11401808 11.8295 15.5726 17.4823 17.0877 1.35077 1.73495 61.9721
11401826 11.8031 15.5542 17.4627 17.0682 1.35592 1.73868 61.8881
11401828 11.8031 15.5542 17.4627 17.0682 1.35592 1.73868 61.8881
11401838 11.8383 15.6186 17.5316 17.1364 1.36223 1.74108 62.1249
11401852 11.8736 15.6463 17.443 17.0974 1.38057 1.69687 62.0602
11401862 11.8736 15.6463 17.443 17.0974 1.38057 1.69687 62.0602
11401872 11.8648 15.6647 17.315 17.0097 1.41246 1.6479 61.8542
11401878 11.8912 15.7291 17.3445 17.0779 1.43907 1.64454 62.0428
11401888 11.8912 15.7291 17.3445 17.0779 1.43907 1.64454 62.0428
11401898 11.9264 15.7476 17.2756 17.0097 1.43451 1.60058 61.9594
11401908 11.9264 15.7476 17.2756 17.0097 1.43451 1.60058 61.9594
11401918 11.8912 15.7844 17.2166 16.9239 1.45614 1.56873 61.816
11401928 11.9176 15.8397 17.2461 16.9714 1.47132 1.5636 61.9748
11401949 11.9352 15.766 17.1969 17.0487 1.48619 1.58467 61.9468
11401961 11.9088 15.7107 17.2658 17.1948 1.50249 1.65296 62.0802
11401971 11.9088 15.7107 17.2658 17.1948 1.50249 1.65296 62.0802
11401982 11.9088 15.7476 17.2658 17.2143 1.52379 1.64728 62.1365
11401990 11.9088 15.7476 17.2658 17.2143 1.52379 1.64728 62.1365
11401999 11.9088 15.7199 17.3347 17.2046 1.48027 1.66738 62.168
11402010 11.8824 15.7015 17.2559 17.1656 1.50342 1.65413 62.0055
11402019 11.8824 15.7015 17.2559 17.1656 1.50342 1.65413 62.0055
11402030 11.9088 15.7015 17.3248 17.1656 1.46274 1.66184 62.1008
11402039 11.856 15.7199 17.2362 17.2338 1.55592 1.66671 62.046
11402053 11.856 15.7199 17.2362 17.2338 1.55592 1.66671 62.046
11402060 11.8648 15.7291 17.3347 17.2728 1.52829 1.69133 62.2014
11402077 11.8648 15.7291 17.3347 17.2728 1.52829 1.69133 62.2014
11402079 11.8031 15.6002 17.2756 17.2143 1.50898 1.71746 61.8933
11402089 11.7943 15.6371 17.3741 17.341 1.53254 1.75803 62.1464
11402101 11.7943 15.6371 17.3741 17.341 1.53254 1.75803 62.1464
11402111 11.7062 15.6831 17.4134 17.2923 1.55234 1.76738 62.095
11402121 11.7767 15.5726 17.4134 17.3215 1.4915 1.78443 62.0842
11402131 11.7767 15.5726 17.4134 17.3215 1.4915 1.78443 62.0842
11402144 11.7767 15.6463 17.443 17.3605 1.52149 1.7791 62.2264
11402151 11.7767 15.6463 17.443 17.3605 1.52149 1.7791 62.2264
11402167 11.7503 15.545 17.3642 17.263 1.49119 1.7761 61.9225
11402174 11.7943 15.5726 17.3741 17.3117 1.4971 1.7692 62.0527
11402183 11.7943 15.5726 17.3741 17.3117 1.4971 1.7692 62.0527
11402195 11.7767 15.545 17.3642 17.3117 1.49837 1.77934 61.9976
11402206 11.7503 15.5818 17.3741 17.2825 1.50834 1.77239 61.9886
11402217 11.7503 15.5818 17.3741 17.2825 1.50834 1.77239 61.9886
11402222 11.7591 15.5265 17.4331 17.3312 1.47687 1.80791 62.05
11402234 11.7679 15.5265 17.4233 17.3312 1.47731 1.80344 62.0489
11402242 11.7679 15.6002 17.4233 17.302 1.49415 1.77729 62.0934
11402257 11.7855 15.5358 17.4528 17.3312 1.4607 1.80246 62.1053
11402272 11.7767 15.5726 17.4331 17.3897 1.5089 1.80311 62.1721
11402283 11.7591 15.5542 17.3741 17.3799 1.53099 1.79823 62.0672
11402304 11.715 15.5818 17.4036 17.3702 1.54396 1.80688 62.0706
11402313 11.7062 15.5265 17.3839 17.4287 1.55736 1.83248 62.0453
11402328 11.7062 15.5265 17.3839 17.4287 1.55736 1.83248 62.0453
11402333 11.7591 15.5081 17.3544 17.4092 1.53305 1.81273 62.0307
11402355 11.7238 15.4897 17.3741 17.2825 1.4847 1.80452 61.8701
11402365 11.6886 15.5634 17.4233 17.3702 1.53988 1.82322 62.0455
11402374 11.6886 15.5634 17.4233 17.3702 1.53988 1.82322 62.0455
11402386 11.6886 15.5358 17.3347 17.2728 1.53046 1.7911 61.8318
11402396 11.7062 15.5634 17.4725 17.341 1.50026 1.82269 62.0831
11402405 11.7062 15.5634 17.4725 17.341 1.50026 1.82269 62.0831
11402418 11.7415 15.6186 17.4233 17.302 1.5124 1.77945 62.0854
11402425 11.7415 15.6186 17.4233 17.302 1.5124 1.77945 62.0854
11402435 11.7503 15.5081 17.4331 17.302 1.46255 1.80908 61.9935
11402445 11.7326 15.591 17.443 17.2923 1.49361 1.79142 62.0589
11402455 11.7326 15.591 17.443 17.2923 1.49361 1.79142 62.0589
11402464 11.7679 15.5265 17.5119 17.3312 1.43956 1.82225 62.1375
11402490 11.7415 15.5634 17.5414 17.2923 1.43743 1.81743 62.1385
11402491 11.7415 15.5634 17.5414 17.2923 1.43743 1.81743 62.1385
11402496 11.8031 15.5173 17.4528 17.2923 1.43142 1.79438 62.0655
11402509 11.8031 15.5173 17.4528 17.2923 1.43142 1.79438 62.0655
11402516 11.7767 15.5081 17.4331 17.3117 1.45498 1.80399 62.0297
11402530 11.7591 15.545 17.4922 17.2436 1.4254 1.79684 62.0398
11402536 11.7591 15.545 17.4922 17.2436 1.4254 1.79684 62.0398
11402546 11.7855 15.5173 17.4627 17.2338 1.41252 1.7888 61.9993
11402556 11.7679 15.4989 17.5119 17.2825 1.41058 1.8194 62.0612
11402578 11.7415 15.5173 17.5119 17.2436 1.41402 1.81329 62.0142
11402586 11.7415 15.5173 17.5119 17.2436 1.41402 1.81329 62.0142
11402598 11.7591 15.4897 17.5217 17.302 1.41405 1.83051 62.0725
11402606 11.7679 15.4713 17.6792 17.3312 1.34757 1.87261 62.2496
11402621 11.7679 15.4713 17.6792 17.3312 1.34757 1.87261 62.2496
11402626 11.7855 15.4897 17.6792 17.3117 1.33971 1.85874 62.2662
11402636 11.6974 15.4437 17.6595 17.2728 1.35304 1.88275 62.0734
11402646 11.6974 15.4437 17.6595 17.2728 1.35304 1.88275 62.0734
11402656 11.6886 15.4897 17.6792 17.302 1.37706 1.88296 62.1595
11402668 11.6886 15.4897 17.6792 17.302 1.37706 1.88296 62.1595
11402676 11.671 15.4345 17.6398 17.2143 1.34683 1.87591 61.9596
11402689 11.671 15.37 17.6792 17.1754 1.29054 1.89358 61.8955
11402698 11.671 15.37 17.6792 17.1754 1.29054 1.89358 61.8955
11402713 11.6974 15.4437 17.6103 17.2046 1.34794 1.85789 61.956
11402717 11.6798 15.37 17.6497 17.2046 1.31054 1.89111 61.904
11402738 11.7062 15.3976 17.6595 17.2241 1.31315 1.88258 61.9874
11402764 11.7062 15.416 17.5808 17.2436 1.36109 1.86501 61.9466
11402768 11.7943 15.4437 17.6398 17.2143 1.29801 1.8399 62.0921
11402790 11.7855 15.4805 17.5611 17.1656 1.33061 1.80523 61.9927
11402799 11.7591 15.545 17.5217 17.1948 1.3943 1.79276 62.0206
11402815 11.7591 15.545 17.5217 17.1948 1.3943 1.79276 62.0206
11402818 11.8471 15.5358 17.5414 17.1266 1.31902 1.76109 62.051
11402828 11.8471 15.5358 17.5414 17.1266 1.31902 1.76109 62.051
11402847 11.8648 15.5818 17.4922 17.1266 1.34999 1.7334 62.0654
11402850 11.8648 15.6186 17.4725 17.1169 1.36867 1.71718 62.0728
11402863 11.8648 15.6186 17.4725 17.1169 1.36867 1.71718 62.0728
11402870 11.856 15.5634 17.5119 17.0877 1.32348 1.73662 62.0189
11402880 11.8912 15.6371 17.4725 17.0682 1.34591 1.69468 62.0689
11402908 11.944 15.6278 17.4331 17.0779 1.34039 1.67659 62.0829
11402909 11.944 15.6278 17.4331 17.0779 1.34039 1.67659 62.0829
11402920 11.8736 15.6371 17.3937 17.0487 1.37945 1.67832 61.9531
11402931 11.9528 15.6371 17.3642 17.0195 1.34713 1.64436 61.9736
11402953 11.9 15.6923 17.3642 17.0974 1.42034 1.66049 62.0539
11402961 11.9088 15.6923 17.3347 17.1072 1.43287 1.65387 62.043
11402976 11.9088 15.6923 17.3347 17.1072 1.43287 1.65387 62.043
11402981 11.9881 15.7107 17.3052 17.0682 1.40389 1.61293 62.0722
11402991 11.9881 15.7107 17.3052 17.0682 1.40389 1.61293 62.0722
11403001 11.9352 15.7199 17.2855 17.0292 1.42346 1.61196 61.9699
11403011 11.8648 15.766 17.2953 17.1754 1.52221 1.65212 62.1014
11403021 11.8648 15.766 17.2953 17.1754 1.52221 1.65212 62.1014
11403032 11.9088 15.7291 17.2855 17.1559 1.4863 1.64388 62.0793
11403042 11.9176 15.7384 17.3642 17.0682 1.41923 1.63713 62.0884
11403066 12.0057 15.7384 17.2658 17.0779 1.42734 1.59444 62.0878
11403072 11.9088 15.766 17.2953 17.0487 1.45543 1.61303 62.0188
11403092 11.9705 15.7752 17.3445 17.1364 1.44496 1.62357 62.2266
11403103 11.9705 15.7752 17.3445 17.1364 1.44496 1.62357 62.2266
11403114 11.9352 15.7291 17.2756 17.1169 1.46446 1.62629 62.0569
11403123 11.9705 15.766 17.2166 17.0877 1.47751 1.58794 62.0407
11403143 11.8912 15.7384 17.2461 17.039 1.46978 1.61243 61.9146
11403153 11.9088 15.7291 17.2362 17.1656 1.51101 1.63538 62.0398
11403163 11.9088 15.7291 17.2362 17.1656 1.51101 1.63538 62.0398
11403173 11.9352 15.8397 17.2166 17.1364 1.53886 1.58819 62.1278
11403183 11.9352 15.8397 17.2166 17.1364 1.53886 1.58819 62.1278
11403193 11.9176 15.7476 17.2067 17.1266 1.51208 1.61331 61.9985
11403203 11.9176 15.7568 17.2559 17.1559 1.5056 1.62776 62.0862
11403216 11.9176 15.7568 17.2559 17.1559 1.5056 1.62776 62.0862
11403224 11.9617 15.7936 17.1772 17.1169 1.51963 1.58072 62.0494
11403243 11.8736 15.766 17.2067 17.1559 1.54896 1.62648 62.0022
11403246 11.8736 15.766 17.2067 17.1559 1.54896 1.62648 62.0022
11403254 11.9176 15.766 17.315 17.2241 1.50968 1.65265 62.2227
11403272 11.9176 15.766 17.315 17.2241 1.50968 1.65265 62.2227
11403275 11.856 15.7568 17.2461 17.1656 1.53985 1.64427 62.0244
11403285 11.8648 15.7015 17.3052 17.1948 1.50099 1.67572 62.0663
11403304 11.8736 15.7199 17.2264 17.1754 1.53049 1.64728 61.9953
11403317 11.8383 15.6555 17.2461 17.2533 1.54224 1.69508 61.9932
11403327 11.8383 15.6555 17.2461 17.2533 1.54224 1.69508 61.9932
11403334 11.8119 15.7291 17.2461 17.2533 1.5814 1.68237 62.0405
11403344 11.8119 15.7291 17.2461 17.2533 1.5814 1.68237 62.0405
11403354 11.7855 15.6647 17.2362 17.2436 1.56891 1.70264 61.93
11403364 11.8383 15.6463 17.2953 17.2923 1.53244 1.71646 62.0722
11403375 11.8383 15.6463 17.2953 17.2923 1.53244 1.71646 62.0722
11403384 11.7767 15.6278 17.3347 17.3312 1.54974 1.75479 62.0704
11403405 11.7503 15.6371 17.2953 17.341 1.58507 1.75312 62.0236
11403418 11.7855 15.6739 17.4528 17.3702 1.52763 1.77345 62.2824
11403425 11.7855 15.6739 17.4528 17.3702 1.52763 1.77345 62.2824
11403435 11.7767 15.6278 17.3544 17.4676 1.59273 1.78801 62.2265
11403445 11.7679 15.6647 17.3642 17.4287 1.59149 1.77427 62.2254
11403465 11.7679 15.6647 17.3642 17.4287 1.59149 1.77427 62.2254
11403466 11.7855 15.6555 17.3445 17.4287 1.58891 1.76782 62.2141
11403475 11.715 15.6278 17.3052 17.3897 1.61086 1.77762 62.0377
11403491 11.715 15.6278 17.3052 17.3897 1.61086 1.77762 62.0377
11403496 11.7415 15.6371 17.2953 17.3702 1.59987 1.76174 62.044
11403517 11.7238 15.5542 17.2756 17.3215 1.56614 1.77433 61.8751
11403528 11.6974 15.6002 17.3445 17.3799 1.58743 1.79618 62.0221
11403537 11.6974 15.6002 17.3445 17.3799 1.58743 1.79618 62.0221
11403548 11.6886 15.545 17.3937 17.3117 1.52342 1.8095 61.9391
11403557 11.7062 15.6371 17.3445 17.3799 1.59755 1.78383 62.0677
11403577 11.7238 15.6002 17.3544 17.4287 1.59026 1.80148 62.1071
11403587 11.7238 15.6002 17.3544 17.4287 1.59026 1.80148 62.1071
11403598 11.7591 15.6186 17.3544 17.4189 1.57846 1.78491 62.151
11403608 11.7326 15.6186 17.3445 17.4774 1.61598 1.80237 62.1732
11403618 11.7326 15.6186 17.3445 17.4774 1.61598 1.80237 62.1732
11403629 11.715 15.6463 17.3741 17.4287 1.60295 1.79559 62.164
11403639 11.7238 15.6278 17.3052 17.3994 1.61075 1.77732 62.0563
11403648 11.7238 15.6278 17.3052 17.3994 1.61075 1.77732 62.0563
11403660 11.7062 15.6555 17.2953 17.2923 1.59252 1.74963 61.9493
11403668 11.7062 15.6555 17.2953 17.2923 1.59252 1.74963 61.9493
11403678 11.715 15.6463 17.2953 17.2728 1.57789 1.74557 61.9294
11403688 11.7855 15.6371 17.2658 17.3507 1.5863 1.73937 62.039
11403698 11.7855 15.6371 17.2658 17.3507 1.5863 1.73937 62.039
11403709 11.7943 15.6555 17.3248 17.2923 1.54212 1.73216 62.0669
11403720 11.8383 15.6555 17.2756 17.263 1.53329 1.70351 62.0325
11403729 11.8383 15.6555 17.2756 17.263 1.53329 1.70351 62.0325
11403740 11.8383 15.6463 17.4528 17.341 1.48369 1.76045 62.2784
11403760 11.7767 15.5818 17.3248 17.341 1.54022 1.76721 62.0243
11403774 11.8207 15.6371 17.2756 17.2923 1.54491 1.71947 62.0257
11403781 11.8207 15.6371 17.2756 17.2923 1.54491 1.71947 62.0257
11403791 11.7943 15.6463 17.3741 17.1851 1.47702 1.72225 61.9997
11403803 11.8383 15.6647 17.3445 17.2728 1.51102 1.71787 62.1203
11403827 11.8295 15.6186 17.3347 17.1266 1.44609 1.69922 61.9095
11403831 11.7943 15.6002 17.3937 17.2533 1.47702 1.75347 62.0416
11403841 11.7943 15.6002 17.3937 17.2533 1.47702 1.75347 62.0416
11403853 11.8295 15.5542 17.3839 17.2728 1.45611 1.75845 62.0404
11403878 11.8031 15.6002 17.3839 17.2338 1.47007 1.74482 62.021
11403881 11.8471 15.591 17.3937 17.1754 1.42139 1.72503 62.0073
11403902 11.8471 15.6186 17.4134 17.1851 1.42721 1.72388 62.0643
11403912 11.8912 15.6094 17.4134 17.1656 1.39757 1.71032 62.0797
11403927 11.8912 15.6094 17.4134 17.1656 1.39757 1.71032 62.0797
11403934 11.8736 15.6186 17.3937 17.1461 1.40953 1.7042 62.0321
11403942 11.8736 15.6186 17.3937 17.1461 1.40953 1.7042 62.0321
11403953 11.8824 15.6371 17.4922 17.1656 1.37836 1.7221 62.1772
11403963 11.856 15.6463 17.4233 17.1559 1.41866 1.70992 62.0814
11403976 11.856 15.6463 17.4233 17.1559 1.41866 1.70992 62.0814
11403983 11.856 15.6739 17.4725 17.1754 1.41562 1.71718 62.1777
11403993 11.8736 15.6371 17.4233 17.1072 1.38915 1.69722 62.0411
11404005 11.8736 15.6371 17.4233 17.1072 1.38915 1.69722 62.0411
11404014 11.8207 15.6186 17.4233 17.1266 1.41205 1.7206 61.9893
11404027 11.8207 15.6186 17.4233 17.1266 1.41205 1.7206 61.9893
11404037 11.8471 15.591 17.4823 17.1461 1.37258 1.73772 62.0666
11404047 11.8471 15.5818 17.4725 17.1851 1.38808 1.74643 62.0865
11404055 11.8471 15.5818 17.4725 17.1851 1.38808 1.74643 62.0865
11404068 11.8295 15.591 17.4134 17.1169 1.39826 1.72148 61.9509
11404076 11.8648 15.591 17.4922 17.1754 1.37203 1.74132 62.1233
11404096 11.8295 15.6186 17.4331 17.2436 1.44851 1.74532 62.1248
11404110 11.8207 15.6094 17.4922 17.1656 1.39405 1.74615 62.088
11404118 11.8207 15.6094 17.4922 17.1656 1.39405 1.74615 62.088
11404127 11.856 15.545 17.443 17.1364 1.36431 1.73727 61.9803
11404136 11.856 15.545 17.443 17.1364 1.36431 1.73727 61.9803
11404146 11.856 15.5634 17.4725 17.1754 1.37363 1.74694 62.0672
11404156 11.8207 15.545 17.4823 17.2046 1.38853 1.76976 62.0526
11404166 11.8207 15.545 17.4823 17.2046 1.38853 1.76976 62.0526
11404178 11.8207 15.5818 17.4627 17.1559 1.39239 1.74522 62.021
11404186 11.8207 15.5173 17.4725 17.2143 1.38592 1.77721 62.0249
11404196 11.8207 15.5173 17.4725 17.2143 1.38592 1.77721 62.0249
11404206 11.7855 15.5358 17.4922 17.3215 1.44024 1.80875 62.1349
11404216 11.7855 15.5358 17.4922 17.3215 1.44024 1.80875 62.1349
11404226 11.8031 15.545 17.4233 17.263 1.4434 1.7744 62.0344
11404236 11.7591 15.5173 17.4627 17.263 1.43489 1.80219 62.0021
11404248 11.7591 15.5173 17.4627 17.263 1.43489 1.80219 62.0021
11404257 11.7855 15.6002 17.4922 17.341 1.47203 1.79547 62.2189
11404270 11.8031 15.5542 17.4725 17.3994 1.4776 1.81136 62.2292
11404292 11.7591 15.5358 17.5414 17.3605 1.44531 1.83459 62.1967
11404297 11.7591 15.5358 17.5414 17.3605 1.44531 1.83459 62.1967
11404307 11.6974 15.5173 17.4823 17.2825 1.4602 1.82724 61.9796
11404318 11.7062 15.4989 17.4233 17.341 1.49687 1.82972 61.9694
11404327 11.7062 15.4989 17.4233 17.341 1.49687 1.82972 61.9694
11404341 11.6974 15.4529 17.3347 17.302 1.5063 1.81747 61.787
11404348 11.6886 15.4252 17.4233 17.3507 1.48013 1.85662 61.8878
11404358 11.6886 15.4252 17.4233 17.3507 1.48013 1.85662 61.8878
11404368 11.6534 15.4897 17.5316 17.4579 1.51396 1.89426 62.1325
11404378 11.6534 15.4897 17.5316 17.4579 1.51396 1.89426 62.1325
11404393 11.6534 15.4713 17.4922 17.5066 1.54222 1.90124 62.1234
11404398 11.5829 15.4621 17.5414 17.5456 1.56253 1.94151 62.1319
11404408 11.5829 15.4621 17.5414 17.5456 1.56253 1.94151 62.1319
11404421 11.6005 15.3976 17.5512 17.5748 1.5375 1.9625 62.1242
11404428 11.6005 15.4529 17.5119 17.5358 1.56048 1.93095 62.1011
11404449 11.5829 15.5081 17.5316 17.5553 1.58777 1.92894 62.1779
11404460 11.5829 15.5081 17.5316 17.5553 1.58777 1.92894 62.1779
11404469 11.5389 15.3884 17.5414 17.5163 1.5425 1.96752 61.985
11404478 11.6181 15.4989 17.4823 17.5845 1.60129 1.91766 62.1839
11404492 11.6181 15.4989 17.4823 17.5845 1.60129 1.91766 62.1839
11404498 11.5565 15.37 17.5217 17.5358 1.54379 1.9677 61.984
11404508 11.5301 15.37 17.5611 17.5943 1.56035 1.99547 62.0554
11404518 11.5301 15.37 17.5611 17.5943 1.56035 1.99547 62.0554
11404528 11.5301 15.4252 17.6005 17.5748 1.55701 1.98452 62.1305
11404548 11.5036 15.3516 17.5512 17.565 1.55787 1.99957 61.9715
11404568 11.5917 15.4621 17.5611 17.565 1.5577 1.94733 62.1799
11404580 11.5653 15.4713 17.502 17.5358 1.58672 1.93347 62.0744
11404593 11.5477 15.416 17.4627 17.4579 1.56082 1.92864 61.8842
11404599 11.5477 15.416 17.4627 17.4579 1.56082 1.92864 61.8842
11404609 11.6358 15.4252 17.5414 17.5066 1.51133 1.92895 62.109
11404629 11.6005 15.4529 17.5119 17.4676 1.53471 1.91659 62.0329
11404643 11.6181 15.4897 17.5512 17.4384 1.51323 1.90389 62.0975
11404651 11.6181 15.4897 17.5512 17.4384 1.51323 1.90389 62.0975
11404667 11.6446 15.4989 17.5512 17.4579 1.5128 1.89831 62.1526
11404671 11.6181 15.5081 17.5414 17.4579 1.53176 1.90092 62.1255
11404681 11.6181 15.5081 17.5414 17.4579 1.53176 1.90092 62.1255
11404691 11.6622 15.4805 17.5709 17.4774 1.4973 1.90678 62.191
11404701 11.6622 15.4805 17.5709 17.4774 1.4973 1.90678 62.191
11404712 11.6798 15.4252 17.5119 17.4676 1.49039 1.90252 62.0845
11404721 11.6269 15.5081 17.5709 17.5163 1.53746 1.91704 62.2223
11404747 11.6622 15.4345 17.5119 17.4871 1.50877 1.90892 62.0956
11404767 11.6181 15.4437 17.5611 17.4774 1.50636 1.92672 62.1003
11404771 11.6181 15.4437 17.5611 17.4774 1.50636 1.92672 62.1003
11404773 11.6181 15.4529 17.4823 17.4676 1.53981 1.90555 62.021
11404783 11.6181 15.4529 17.4823 17.4676 1.53981 1.90555 62.021
11404792 11.6798 15.4621 17.502 17.3605 1.46793 1.86776 62.0044
11404803 11.6974 15.4345 17.5119 17.3702 1.44942 1.87463 62.0139
11404812 11.6974 15.4345 17.5119 17.3702 1.44942 1.87463 62.0139
11404826 11.6798 15.4897 17.5414 17.3117 1.44313 1.85827 62.0226
11404832 11.7326 15.4805 17.3937 17.2923 1.47271 1.8109 61.8992
11404842 11.7326 15.4805 17.3937 17.2923 1.47271 1.8109 61.8992
11404852 11.7415 15.5358 17.4823 17.3897 1.48901 1.83304 62.1492
11404862 11.7415 15.5358 17.4823 17.3897 1.48901 1.83304 62.1492
11404872 11.7855 15.5081 17.4823 17.302 1.42655 1.81 62.078
11404883 11.8471 15.5818 17.4528 17.3117 1.44452 1.76922 62.1935
11404896 11.8471 15.5818 17.4528 17.3117 1.44452 1.76922 62.1935
11404902 11.7855 15.5726 17.3937 17.2143 1.4555 1.75499 61.9662
11404912 11.7855 15.5634 17.443 17.2338 1.43841 1.77214 62.0257
11404922 11.7855 15.5634 17.443 17.2338 1.43841 1.77214 62.0257
11404932 11.7943 15.5265 17.4725 17.2436 1.41178 1.7881 62.0369
11404942 11.7943 15.5265 17.4725 17.2436 1.41178 1.7881 62.0369
11404952 11.8207 15.5358 17.4134 17.1461 1.3921 1.74504 61.916
11404963 11.856 15.5542 17.4528 17.1948 1.38591 1.74938 62.0578
11404972 11.856 15.5542 17.4528 17.1948 1.38591 1.74938 62.0578
11404986 11.8295 15.5358 17.4922 17.1461 1.35483 1.7595 62.0036
11404992 11.8295 15.5358 17.4922 17.1461 1.35483 1.7595 62.0036
11405003 11.8648 15.5173 17.5611 17.2046 1.3259 1.7821 62.1478
11405013 11.856 15.5542 17.4528 17.1851 1.3822 1.7473 62.048
11405027 11.856 15.5542 17.4528 17.1851 1.3822 1.7473 62.048
11405035 11.8471 15.5542 17.4922 17.1754 1.3655 1.75601 62.0689
11405043 11.8824 15.5634 17.502 17.2436 1.3758 1.76065 62.1913
11405053 11.8824 15.5634 17.502 17.2436 1.3758 1.76065 62.1913
11405063 11.8119 15.5358 17.5414 17.2046 1.36367 1.78721 62.0937
11405073 11.8031 15.5358 17.5414 17.2338 1.37853 1.79581 62.1141
11405093 11.7855 15.4989 17.5512 17.2533 1.37523 1.81678 62.089
11405106 11.7855 15.4989 17.5512 17.2533 1.37523 1.81678 62.089
11405124 11.7679 15.4621 17.5906 17.263 1.35568 1.84196 62.0836
11405145 11.7503 15.4529 17.5906 17.263 1.35965 1.84924 62.0568
11405164 11.7326 15.4529 17.6202 17.3605 1.39165 1.88087 62.1661
11405175 11.7062 15.4437 17.6005 17.3799 1.41514 1.89051 62.1303
11405186 11.7062 15.4437 17.6005 17.3799 1.41514 1.89051 62.1303
11405197 11.7503 15.4345 17.6202 17.3312 1.36607 1.87492 62.1361
11405206 11.6798 15.4252 17.6398 17.3702 1.39894 1.90896 62.1151
11405217 11.6798 15.4252 17.6398 17.3702 1.39894 1.90896 62.1151
11405226 11.715 15.416 17.5709 17.3215 1.39123 1.87704 62.0235
11405238 11.671 15.3884 17.502 17.2533 1.40286 1.8675 61.8147
11405246 11.671 15.3884 17.502 17.2533 1.40286 1.8675 61.8147
11405260 11.7238 15.4345 17.4823 17.2825 1.4174 1.84258 61.9231
11405276 11.6886 15.5173 17.4233 17.2436 1.4744 1.80877 61.8728
11405286 11.6798 15.4713 17.5119 17.3994 1.482 1.87558 62.0624
11405315 11.7238 15.5265 17.502 17.4189 1.4957 1.85067 62.1713
11405318 11.6622 15.4437 17.4922 17.3507 1.46896 1.87342 61.9487
11405327 11.6622 15.4437 17.4922 17.3507 1.46896 1.87342 61.9487
11405343 11.7415 15.5173 17.5119 17.3702 1.46209 1.84016 62.1409
11405349 11.7415 15.5173 17.5119 17.3702 1.46209 1.84016 62.1409
11405357 11.6974 15.5265 17.4233 17.4092 1.53692 1.83909 62.0564
11405371 11.7503 15.4805 17.4528 17.5163 1.52483 1.86617 62.1999
11405400 11.7238 15.5265 17.4627 17.3702 1.49406 1.83201 62.0832
11405402 11.715 15.5358 17.4627 17.3897 1.50868 1.83603 62.1031
11405411 11.715 15.5358 17.4627 17.3897 1.50868 1.83603 62.1031
11405427 11.715 15.5265 17.4922 17.3117 1.46307 1.82826 62.0455
11405429 11.715 15.5265 17.4922 17.3117 1.46307 1.82826 62.0455
11405438 11.7591 15.4897 17.5316 17.3117 1.41356 1.83466 62.0921
11405453 11.7679 15.4713 17.5217 17.3605 1.4255 1.8455 62.1213
11405460 11.7679 15.4713 17.5217 17.3605 1.4255 1.8455 62.1213
11405470 11.7503 15.4621 17.5119 17.2533 1.39295 1.82796 61.9775
11405479 11.715 15.5081 17.5217 17.3312 1.45089 1.84365 62.0761
11405490 11.715 15.5081 17.5217 17.3312 1.45089 1.84365 62.0761
11405502 11.7503 15.4989 17.502 17.3117 1.43337 1.82829 62.063
11405512 11.7503 15.4989 17.502 17.3117 1.43337 1.82829 62.063
11405519 11.671 15.4989 17.4627 17.2825 1.47291 1.83524 61.9151
11405530 11.7326 15.4805 17.5316 17.4092 1.45826 1.86495 62.1539
11405540 11.7326 15.4805 17.5316 17.4092 1.45826 1.86495 62.1539
11405551 11.7062 15.4437 17.5119 17.4092 1.46395 1.87797 62.0709
11405561 11.6798 15.4805 17.4725 17.4968 1.53915 1.88535 62.1296
11405575 11.6798 15.4805 17.4725 17.4968 1.53915 1.88535 62.1296
11405581 11.6886 15.5081 17.5119 17.4774 1.52165 1.87965 62.186
11405591 11.6974 15.5081 17.5414 17.4384 1.49059 1.87526 62.1853
11405601 11.6974 15.416 17.5414 17.4384 1.45572 1.90029 62.0932
11405611 11.6974 15.5173 17.5512 17.4968 1.51195 1.88716 62.2628
11405623 11.6974 15.5173 17.5512 17.4968 1.51195 1.88716 62.2628
11405631 11.6798 15.4252 17.5512 17.4774 1.47729 1.91287 62.1336
11405641 11.6798 15.4252 17.5119 17.4481 1.48301 1.8984 62.065
11405651 11.6798 15.4252 17.5119 17.4481 1.48301 1.8984 62.065
11405661 11.6534 15.4989 17.5512 17.4774 1.51641 1.90002 62.1809
11405672 11.6886 15.4529 17.502 17.4871 1.50866 1.89464 62.1306
11405681 11.6886 15.4529 17.502 17.4871 1.50866 1.89464 62.1306
11405695 11.6534 15.4252 17.5217 17.5456 1.52694 1.9282 62.1459
11405712 11.6093 15.4345 17.5217 17.5261 1.54187 1.9336 62.0916
11405722 11.671 15.3516 17.5512 17.5845 1.49372 1.95788 62.1583
11405732 11.671 15.3516 17.5512 17.5845 1.49372 1.95788 62.1583
11405743 11.6181 15.4805 17.5217 17.565 1.57018 1.92685 62.1854
11405753 11.5653 15.4252 17.4922 17.565 1.5846 1.95012 62.0478
11405767 11.5653 15.4252 17.4922 17.565 1.5846 1.95012 62.0478
11405773 11.6358 15.4252 17.502 17.6138 1.5686 1.9432 62.1768
11405783 11.6358 15.4252 17.502 17.6138 1.5686 1.9432 62.1768
11405793 11.5917 15.416 17.4331 17.6527 1.62816 1.95143 62.0936
11405803 11.5829 15.3239 17.5217 17.5845 1.53349 1.98331 62.0131
11405815 11.5829 15.3239 17.5217 17.5845 1.53349 1.98331 62.0131
11405823 11.5301 15.416 17.5119 17.6235 1.60982 1.97868 62.0815
11405839 11.5741 15.3884 17.5414 17.6235 1.56791 1.98038 62.1274
11405843 11.5741 15.3884 17.5414 17.6235 1.56791 1.98038 62.1274
11405854 11.5741 15.3332 17.5512 17.6819 1.56491 2.00979 62.1404
11405863 11.5741 15.3332 17.5512 17.6819 1.56491 2.00979 62.1404
11405875 11.5301 15.3792 17.4922 17.643 1.61172 1.98871 62.0444
11405885 11.5036 15.3608 17.502 17.604 1.59719 1.9949 61.9704
11405895 11.5036 15.3608 17.502 17.604 1.59719 1.9949 61.9704
11405910 11.5829 15.3332 17.4528 17.6917 1.60695 1.98881 62.0606
11405915 11.5653 15.3884 17.5316 17.7404 1.61989 2.00518 62.2257
11405941 11.5741 15.4252 17.5217 17.7404 1.63417 1.99067 62.2615
11405945 11.5741 15.4252 17.5217 17.7404 1.63417 1.99067 62.2615
11405959 11.5124 15.3608 17.5217 17.7014 1.6217 2.01701 62.0964
11405966 11.4948 15.37 17.4627 17.6625 1.64341 1.99879 61.9899
11405982 11.4948 15.37 17.4627 17.6625 1.64341 1.99879 61.9899
11405986 11.5036 15.3239 17.502 17.6332 1.59431 2.01113 61.9628
11405996 11.5036 15.3516 17.5316 17.6722 1.60677 2.0179 62.059
11406016 11.5301 15.37 17.5611 17.7307 1.61175 2.02399 62.1918
11406025 11.5301 15.37 17.5611 17.7307 1.61175 2.02399 62.1918
11406035 11.5653 15.3424 17.4233 17.7112 1.63799 1.98901 62.0421
11406053 11.6005 15.3976 17.502 17.6722 1.59528 1.9726 62.1724
11406060 11.6005 15.3976 17.502 17.6722 1.59528 1.9726 62.1724
11406069 11.6269 15.3884 17.4134 17.5845 1.58537 1.93086 62.0133
11406077 11.6181 15.4437 17.4823 17.6332 1.59882 1.94294 62.1774
11406092 11.6181 15.4437 17.4823 17.6332 1.59882 1.94294 62.1774
11406097 11.6181 15.4068 17.502 17.5748 1.55449 1.94484 62.1018
11406107 11.6181 15.4068 17.502 17.5748 1.55449 1.94484 62.1018
11406117 11.6181 15.3792 17.4331 17.5845 1.57723 1.93993 62.015
11406127 11.6005 15.4713 17.502 17.6332 1.60833 1.94434 62.2071
11406138 11.6005 15.4713 17.502 17.6332 1.60833 1.94434 62.2071
