6743155 8.02435 9.19068 21.2426 18.4711 -0.704928 5.92811 56.9287
6743164 8.09482 9.27356 21.3017 18.3834 -0.762248 5.86731 57.0534
6743171 8.10363 9.28277 21.1639 18.3542 -0.716363 5.83389 56.9044
6743180 8.10363 9.28277 21.1639 18.3542 -0.716363 5.83389 56.9044
6743189 8.1829 9.23673 21.095 18.3347 -0.750433 5.80747 56.8493
6743209 8.10363 9.21831 21.0359 18.2762 -0.726153 5.82428 56.6341
6743223 8.15648 9.2091 20.9867 18.2275 -0.754046 5.79234 56.5798
6743231 8.15648 9.2091 20.9867 18.2275 -0.754046 5.79234 56.5798
6743239 8.15648 9.30119 20.8981 18.2665 -0.6565 5.75045 56.6222
6743252 8.24456 9.3104 20.9375 18.286 -0.69818 5.72448 56.7784
6743271 8.21813 9.28277 20.9867 18.3347 -0.698394 5.76018 56.8223
6743281 8.27098 9.28277 20.9473 18.3347 -0.704156 5.73448 56.8357
6743292 8.27098 9.29198 20.9473 18.3347 -0.699992 5.73112 56.8449
6743302 8.26218 9.34724 20.9375 18.2372 -0.711092 5.69665 56.7841
6743322 8.24456 9.31961 20.9572 18.208 -0.737748 5.7116 56.7293
6743332 8.27098 9.34724 21.0064 18.2567 -0.735472 5.70791 56.8813
6743344 8.27098 9.34724 21.0064 18.2567 -0.735472 5.70791 56.8813
6743362 8.27979 9.40249 20.9965 18.3054 -0.688078 5.69096 56.9843
6743366 8.27979 9.36566 20.8882 18.1301 -0.737815 5.65782 56.6638
6743373 8.27979 9.36566 20.8882 18.1301 -0.737815 5.65782 56.6638
6743384 8.27979 9.40249 20.967 18.1691 -0.737107 5.66378 56.8183
6743393 8.27979 9.40249 20.967 18.1691 -0.737107 5.66378 56.8183
6743406 8.2886 9.4117 20.9276 18.1496 -0.7287 5.64754 56.7775
6743415 8.27979 9.42091 20.9276 18.1009 -0.742847 5.63937 56.7292
6743431 8.27979 9.42091 20.9276 18.1009 -0.742847 5.63937 56.7292
6743434 8.2886 9.43933 20.9867 18.1301 -0.750233 5.64402 56.8447
6743450 8.30622 9.38407 20.9965 18.1885 -0.76049 5.66892 56.8754
6743455 8.30622 9.38407 20.9965 18.1885 -0.76049 5.66892 56.8754
6743466 8.26218 9.40249 20.9965 18.1009 -0.773117 5.66383 56.7621
6743476 8.26218 9.38407 21.0162 18.0716 -0.803168 5.66897 56.7341
6743486 8.26218 9.38407 21.0162 18.0716 -0.803168 5.66897 56.7341
6743496 8.31503 9.39328 20.9768 18.2178 -0.738458 5.66393 56.9029
6743506 8.31503 9.39328 20.9768 18.2178 -0.738458 5.66393 56.9029
6743516 8.2886 9.36566 20.9867 18.1106 -0.792502 5.66761 56.7515
6743526 8.27098 9.35645 21.0753 18.0619 -0.849085 5.68393 56.7646
6743536 8.27098 9.35645 21.0753 18.0619 -0.849085 5.68393 56.7646
6743546 8.2886 9.40249 21.0753 18.1301 -0.804663 5.67195 56.8965
6743567 8.27098 9.40249 21.0556 18.0229 -0.837485 5.65752 56.752
6743580 8.26218 9.38407 20.9965 18.0619 -0.799201 5.66413 56.7047
6743586 8.26218 9.38407 20.9965 18.0619 -0.799201 5.66413 56.7047
6743596 8.34145 9.40249 21.0162 17.984 -0.868469 5.61897 56.7441
6743611 8.34145 9.43012 20.967 17.9547 -0.848249 5.59594 56.6933
6743622 8.34145 9.43012 20.967 17.9547 -0.848249 5.59594 56.6933
6743628 8.38549 9.34724 20.9768 17.9547 -0.909026 5.61169 56.6643
6743636 8.38549 9.34724 20.9768 17.9547 -0.909026 5.61169 56.6643
6743648 8.36788 9.39328 20.9572 17.906 -0.894369 5.59 56.6243
6743659 8.3943 9.43012 20.9572 18.0132 -0.839934 5.58482 56.7948
6743667 8.3943 9.43012 20.9572 18.0132 -0.839934 5.58482 56.7948
6743677 8.41192 9.38407 20.967 17.945 -0.903687 5.58546 56.708
6743687 8.44715 9.44854 20.9079 18.0132 -0.8331 5.55085 56.8168
6743697 8.44715 9.44854 20.9079 18.0132 -0.8331 5.55085 56.8168
6743708 8.5 9.45775 20.9572 18.0034 -0.876679 5.53499 56.9183
6743717 8.5 9.45775 20.9572 18.0034 -0.876679 5.53499 56.9183
6743727 8.48238 9.48537 21.0654 17.984 -0.911345 5.54613 57.0171
6743740 8.50881 9.43012 21.0064 17.906 -0.958221 5.53377 56.8513
6743747 8.50881 9.43012 21.0064 17.906 -0.958221 5.53377 56.8513
6743757 8.48238 9.47616 21.0064 17.8378 -0.957157 5.51531 56.8027
6743768 8.54404 9.43933 20.8784 17.7891 -0.968213 5.47674 56.6509
6743787 8.5 9.42091 20.8784 17.7599 -0.971374 5.49443 56.5592
6743798 8.5 9.42091 20.8784 17.7599 -0.971374 5.49443 56.5592
6743808 8.48238 9.44854 20.8686 17.7891 -0.933622 5.49406 56.5886
6743818 8.53523 9.45775 20.8587 17.8281 -0.92984 5.47651 56.6798
6743838 8.49119 9.40249 20.8981 17.8086 -0.962093 5.51578 56.6004
6743848 8.5 9.43933 20.9768 17.7989 -0.986801 5.51081 56.715
6743859 8.5 9.43933 20.9768 17.7989 -0.986801 5.51081 56.715
6743869 8.52642 9.48537 20.967 17.7501 -0.995041 5.47481 56.7289
6743878 8.52642 9.48537 20.967 17.7501 -0.995041 5.47481 56.7289
6743888 8.49119 9.43933 20.9768 17.8086 -0.978605 5.51562 56.716
6743898 8.53523 9.44854 21.0162 17.7794 -1.02306 5.49807 56.7794
6743918 8.54404 9.43012 21.0556 17.8476 -1.02059 5.51951 56.8773
6743928 8.5 9.46696 21.0359 17.8086 -0.99467 5.51233 56.8114
6743943 8.5 9.46696 21.0359 17.8086 -0.99467 5.51233 56.8114
6743949 8.53523 9.513 20.9965 17.7112 -1.01645 5.46008 56.7559
6743962 8.50881 9.48537 21.0359 17.7501 -1.01673 5.49272 56.7802
6743974 8.50881 9.48537 21.0359 17.7501 -1.01673 5.49272 56.7802
6743982 8.51762 9.52221 21.0162 17.7891 -0.977439 5.47949 56.8451
6743991 8.51762 9.52221 21.0162 17.7891 -0.977439 5.47949 56.8451
6744002 8.46477 9.47616 20.9572 17.7794 -0.955574 5.50367 56.6775
6744011 8.52642 9.44854 20.9867 17.7112 -1.03815 5.48488 56.6728
6744022 8.52642 9.44854 20.9867 17.7112 -1.03815 5.48488 56.6728
6744031 8.51762 9.46696 21.0162 17.7112 -1.03845 5.48636 56.712
6744043 8.54404 9.50379 21.0261 17.7599 -1.01455 5.47336 56.8338
6744051 8.54404 9.50379 21.0261 17.7599 -1.01455 5.47336 56.8338
6744061 8.50881 9.46696 20.9965 17.7599 -1.00406 5.4944 56.7322
6744072 8.50881 9.46696 20.9965 17.7599 -1.00406 5.4944 56.7322
6744082 8.5 9.513 21.0359 17.7209 -1.01373 5.48103 56.7698
6744092 8.50881 9.50379 21.0064 17.7696 -0.986889 5.48439 56.7886
6744103 8.50881 9.50379 21.0064 17.7696 -0.986889 5.48439 56.7886
6744112 8.44715 9.44854 21.0064 17.7501 -0.995035 5.52339 56.6522
6744122 8.50881 9.48537 20.9867 17.6917 -1.02273 5.47466 56.6726
6744132 8.50881 9.48537 20.9867 17.6917 -1.02273 5.47466 56.6726
6744142 8.57047 9.48537 20.9965 17.6722 -1.06189 5.45078 56.7246
6744152 8.57047 9.48537 20.9965 17.6722 -1.06189 5.45078 56.7246
6744162 8.51762 9.47616 20.9768 17.6819 -1.03099 5.47151 56.6526
6744174 8.54404 9.48537 20.9768 17.6527 -1.05137 5.45372 56.659
6744183 8.54404 9.48537 20.9768 17.6527 -1.05137 5.45372 56.659
6744192 8.55285 9.50379 20.9079 17.604 -1.03988 5.42403 56.5686
6744202 8.50881 9.513 20.9276 17.7599 -0.953783 5.46622 56.7093
6744212 8.50881 9.513 20.9276 17.7599 -0.953783 5.46622 56.7093
6744223 8.56166 9.54984 20.9572 17.7307 -0.985186 5.43395 56.7993
6744233 8.56166 9.54984 20.9572 17.7307 -0.985186 5.43395 56.7993
6744247 8.58808 9.47616 20.9178 17.6722 -1.0403 5.43447 56.6542
6744258 8.59689 9.53142 20.9178 17.6917 -1.00971 5.41469 56.7378
6744267 8.59689 9.53142 20.9178 17.6917 -1.00971 5.41469 56.7378
6744277 8.59689 9.53142 20.8193 17.6917 -0.968021 5.39803 56.6393
6744286 8.63212 9.60509 20.9178 17.7014 -0.98642 5.37723 56.8564
6744295 8.63212 9.60509 20.9178 17.7014 -0.98642 5.37723 56.8564
6744304 8.66736 9.56826 20.839 17.643 -1.01166 5.35453 56.7176
6744315 8.66736 9.56826 20.839 17.643 -1.01166 5.35453 56.7176
6744324 8.69378 9.62351 20.7111 17.5845 -0.970097 5.2934 56.6129
6744334 8.80829 9.62351 20.7209 17.6625 -0.987068 5.2675 56.8152
6744355 8.76425 9.64193 20.6028 17.5553 -0.958996 5.23791 56.5643
6744364 8.79948 9.63272 20.5339 17.5066 -0.971287 5.20825 56.4727
6744393 8.79948 9.63272 20.5339 17.5066 -0.971287 5.20825 56.4727
6744395 8.78187 9.69718 20.5043 17.4676 -0.93949 5.1796 56.451
6744396 8.78187 9.69718 20.5043 17.4676 -0.93949 5.1796 56.451
6744405 8.86114 9.7156 20.4256 17.5261 -0.904438 5.1412 56.5284
6744416 8.91399 9.7156 20.4158 17.5845 -0.895998 5.13087 56.6299
6744435 8.90518 9.79848 20.3567 17.565 -0.838113 5.09085 56.6254
6744445 9.03731 9.82611 20.2681 17.5261 -0.861849 5.01189 56.6576
6744456 9.03731 9.82611 20.2681 17.5261 -0.861849 5.01189 56.6576
6744465 9.11658 9.86295 20.2189 17.4774 -0.880072 4.95363 56.6758
6744492 9.12539 9.82611 20.1598 17.4287 -0.897789 4.94437 56.54
6744495 9.16062 9.9182 20.1008 17.4968 -0.814416 4.90119 56.6764
6744505 9.16062 9.9182 20.1008 17.4968 -0.814416 4.90119 56.6764
6744515 9.16943 9.9182 20.1008 17.3605 -0.880444 4.87373 56.5488
6744525 9.2487 9.9182 20.0023 17.3994 -0.854445 4.83523 56.5686
6744535 9.2487 9.9182 20.0023 17.3994 -0.854445 4.83523 56.5686
6744545 9.29275 9.96425 20.0318 17.4579 -0.83814 4.8195 56.7467
6744556 9.29275 9.96425 20.0318 17.4579 -0.83814 4.8195 56.7467
6744565 9.28394 9.93662 19.9925 17.4092 -0.852413 4.81642 56.6222
6744575 9.2487 9.92741 20.0023 17.3897 -0.854687 4.83025 56.5681
6744597 9.2487 9.92741 20.0023 17.3897 -0.854687 4.83025 56.5681
6744598 9.27513 9.96425 19.9925 17.3897 -0.844941 4.80633 56.6215
6744607 9.27513 9.95504 20.0023 17.3605 -0.866693 4.80606 56.5929
6744617 9.27513 9.95504 20.0023 17.3605 -0.866693 4.80606 56.5929
6744628 9.27513 9.99187 19.9728 17.3605 -0.837268 4.78785 56.6003
6744637 9.27513 9.99187 19.9728 17.3605 -0.837268 4.78785 56.6003
6744649 9.20466 9.93662 20.1008 17.2533 -0.93614 4.83565 56.4953
6744657 9.2399 9.98267 20.0909 17.3799 -0.867914 4.82815 56.6934
6744670 9.2399 9.98267 20.0909 17.3799 -0.867914 4.82815 56.6934
6744677 9.23109 10.0195 20.0811 17.4092 -0.829865 4.82183 56.7408
6744690 9.21347 9.90899 20.0515 17.3605 -0.88245 4.85267 56.5345
6744698 9.21347 9.90899 20.0515 17.3605 -0.88245 4.85267 56.5345
6744707 9.18705 9.98267 20.0811 17.3702 -0.845642 4.84314 56.621
6744717 9.18705 9.98267 20.0811 17.3702 -0.845642 4.84314 56.621
6744727 9.18705 9.9182 20.1303 17.341 -0.909457 4.86934 56.5765
6744737 9.23109 9.9182 20.0712 17.3702 -0.889681 4.84853 56.5907
6744747 9.23109 9.9182 20.0712 17.3702 -0.889681 4.84853 56.5907
6744757 9.26632 9.98267 20.0811 17.4092 -0.86164 4.82239 56.7392
6744767 9.31036 9.9182 20.0023 17.3215 -0.916402 4.7996 56.5524
6744777 9.31036 9.9182 20.0023 17.3215 -0.916402 4.7996 56.5524
6744788 9.33679 9.98267 20.0318 17.2728 -0.932992 4.76436 56.6241
6744797 9.33679 9.98267 20.0318 17.2728 -0.932992 4.76436 56.6241
6744808 9.31917 9.92741 20.0023 17.2436 -0.951687 4.77921 56.4925
6744818 9.40725 9.98267 19.9826 17.2728 -0.942019 4.73088 56.6453
6744828 9.40725 9.98267 19.9826 17.2728 -0.942019 4.73088 56.6453
6744838 9.42487 10.0195 19.9925 17.1948 -0.972512 4.69956 56.6317
6744849 9.42487 10.0195 20.0318 17.1948 -0.989206 4.70672 56.6711
6744858 9.37202 10.0103 20.0318 17.2338 -0.953153 4.73539 56.648
6744868 9.4601 10.0379 20.0417 17.1754 -1.00878 4.68633 56.7151
6744879 9.4601 10.0379 20.0417 17.1754 -1.00878 4.68633 56.7151
6744888 9.40725 10.0379 20.0023 17.2241 -0.947382 4.70638 56.6716
6744907 9.42487 9.99187 19.9531 17.1754 -0.977419 4.69846 56.5452
6744911 9.42487 9.99187 19.9531 17.1754 -0.977419 4.69846 56.5452
6744918 9.38964 10.0103 20.0614 17.1851 -0.995484 4.72578 56.6464
6744938 9.39845 10.0011 19.9629 17.1364 -0.984055 4.69916 56.4989
6744948 9.38964 10.0195 19.9236 17.1461 -0.950608 4.6904 56.4788
6744968 9.33679 10.0655 19.9137 17.0974 -0.925107 4.68208 56.4135
6744980 9.46891 10.0471 19.9137 17.039 -1.01673 4.63176 56.4687
6744988 9.46891 10.0471 19.9137 17.039 -1.01673 4.63176 56.4687
6745003 9.42487 10.1116 19.9629 17.1072 -0.957954 4.64619 56.6066
6745008 9.42487 10.1116 19.9629 17.1072 -0.957954 4.64619 56.6066
6745019 9.45129 10.0748 19.9433 17.0487 -1.00458 4.63549 56.518
6745029 9.43368 10.0563 20.0023 17.1072 -1.00376 4.66951 56.5995
6745040 9.43368 10.0563 20.0023 17.1072 -1.00376 4.66951 56.5995
6745049 9.39845 10.0471 20.0417 16.9905 -1.06348 4.67085 56.4777
6745059 9.4601 10.1024 20.0712 17.0487 -1.04981 4.64627 56.6824
6745079 9.51295 10.1024 20.0122 16.9524 -1.09152 4.59949 56.5799
6745099 9.4601 10.0103 19.9728 17.0097 -1.06853 4.65312 56.4529
6745120 9.4601 10.1116 19.9334 17 -1.00961 4.60889 56.5051
6745131 9.47772 10.13 20.0122 17 -1.04198 4.61086 56.6199
6745143 9.49534 10.084 19.9728 16.8953 -1.10229 4.59422 56.4474
6745151 9.49534 10.084 19.9728 16.8953 -1.10229 4.59422 56.4474
6745165 9.53938 10.1484 19.9629 16.981 -1.04753 4.57061 56.6317
6745171 9.53938 10.1484 19.9629 16.981 -1.04753 4.57061 56.6317
6745181 9.43368 10.0748 19.9728 16.9905 -1.03646 4.63635 56.4717
6745191 9.53938 10.1484 19.9826 17 -1.0471 4.57774 56.6704
6745201 9.53938 10.1484 19.9826 17 -1.0471 4.57774 56.6704
6745211 9.50414 10.0932 19.9531 17.0195 -1.03614 4.6072 56.5699
6745221 9.53938 10.0932 19.9826 16.9714 -1.08567 4.59159 56.5866
6745235 9.53938 10.0932 19.9826 16.9714 -1.08567 4.59159 56.5866
6745241 9.50414 10.1116 19.9334 17.0097 -1.02381 4.59541 56.5589
6745261 9.46891 10.0563 19.9531 17.0292 -1.03369 4.634 56.5076
6745272 9.45129 10.1024 19.9925 17.0487 -1.01276 4.63492 56.5949
6745282 9.45129 10.1024 19.9925 17.0487 -1.01276 4.63492 56.5949
6745292 9.45129 10.0563 20.0122 17.1169 -1.01092 4.66697 56.6367
6745305 9.45129 10.0748 19.9925 17.0877 -1.00754 4.65164 56.6062
6745313 9.45129 10.0748 19.9925 17.0877 -1.00754 4.65164 56.6062
6745326 9.40725 10.0748 19.9334 17.1559 -0.932467 4.66861 56.5713
6745334 9.39845 10.0563 19.9925 17.1072 -0.984634 4.67997 56.5544
6745344 9.39845 10.0563 19.9925 17.1072 -0.984634 4.67997 56.5544
6745353 9.37202 10.1484 19.9826 17.1461 -0.909144 4.66246 56.6492
6745374 9.39845 10.0379 19.9629 17.1754 -0.949237 4.69343 56.5747
6745383 9.38083 10.0195 19.9629 17.1948 -0.941257 4.70952 56.5581
6745394 9.38083 10.0195 19.9629 17.1948 -0.941257 4.70952 56.5581
6745416 9.36321 10.084 20.0811 17.2533 -0.927687 4.72526 56.7815
6745418 9.32798 10.0379 20.1204 17.2533 -0.950482 4.76065 56.7396
6745438 9.33679 10.0195 20.15 17.302 -0.952877 4.7781 56.8083
6745459 9.28394 9.95504 20.1106 17.302 -0.943261 4.81195 56.6516
6745464 9.2399 9.93662 20.15 17.2923 -0.954184 4.83913 56.6188
6745476 9.2399 9.93662 20.15 17.2923 -0.954184 4.83913 56.6188
6745486 9.23109 9.92741 20.1598 17.2728 -0.967781 4.84372 56.5911
6745496 9.22228 9.88136 20.2189 17.2436 -1.02369 4.86832 56.5661
6745507 9.22228 9.88136 20.2189 17.2436 -1.02369 4.86832 56.5661
6745516 9.14301 9.89057 20.2386 17.3312 -0.953904 4.91213 56.6034
6745539 8.99326 9.78927 20.2878 17.3312 -0.957659 5.00956 56.4016
6745548 9.0285 9.78006 20.4158 17.3702 -1.01334 5.02983 56.5945
6745566 8.93161 9.74323 20.6028 17.4481 -1.03261 5.12362 56.7258
6745576 8.9228 9.70639 20.6815 17.4968 -1.05667 5.16195 56.8076
6745586 8.9228 9.70639 20.6815 17.4968 -1.05667 5.16195 56.8076
6745596 8.83471 9.68797 20.8292 17.5845 -1.05003 5.24033 56.9364
6745607 8.83471 9.68797 20.8292 17.5845 -1.05003 5.24033 56.9364
6745617 8.78187 9.70639 20.8292 17.5456 -1.03719 5.24589 56.863
6745626 8.72021 9.66035 20.8686 17.6235 -1.0132 5.30435 56.8726
6745640 8.72021 9.66035 20.8686 17.6235 -1.0132 5.30435 56.8726
6745646 8.7114 9.65114 20.8489 17.6332 -1.00093 5.30909 56.8447
6745656 8.64974 9.60509 20.8292 17.565 -1.0189 5.33267 56.6491
6745666 8.64974 9.60509 20.8292 17.565 -1.0189 5.33267 56.6491
6745676 8.64974 9.62351 20.8489 17.6235 -0.991975 5.33938 56.7456
6745696 8.63212 9.55905 20.839 17.5358 -1.05023 5.35224 56.566
6745706 8.62332 9.6143 20.8193 17.604 -0.981428 5.34382 56.661
6745717 8.62332 9.6143 20.8193 17.604 -0.981428 5.34382 56.661
6745728 8.63212 9.60509 20.8193 17.565 -1.00727 5.33732 56.6216
6745739 8.6057 9.60509 20.8686 17.6235 -0.990106 5.36514 56.7029
6745750 8.6057 9.60509 20.8686 17.6235 -0.990106 5.36514 56.7029
6745757 8.58808 9.62351 20.8686 17.643 -0.965282 5.36816 56.7231
6745777 8.64093 9.67877 20.9079 17.6235 -0.987934 5.3328 56.8511
6745787 8.65855 9.62351 20.8095 17.643 -0.970112 5.33284 56.7345
6745797 8.65855 9.62351 20.8095 17.643 -0.970112 5.33284 56.7345
6745807 8.67617 9.64193 20.7997 17.5845 -0.991741 5.30828 56.7023
6745818 8.7114 9.6143 20.7603 17.6138 -0.989255 5.30382 56.6997
6745828 8.7114 9.6143 20.7603 17.6138 -0.989255 5.30382 56.6997
6745843 8.67617 9.65114 20.78 17.5456 -0.997053 5.29494 56.6528
6745858 8.73782 9.64193 20.7307 17.5358 -1.01102 5.26605 56.6463
6745870 8.72021 9.66035 20.7406 17.5358 -0.999276 5.26745 56.657
6745889 8.74663 9.67877 20.7504 17.5456 -1.00172 5.25479 56.7214
6745899 8.74663 9.70639 20.6914 17.5553 -0.959578 5.23644 56.6997
6745909 8.74663 9.70639 20.6914 17.5553 -0.959578 5.23644 56.6997
6745919 8.79067 9.73402 20.7307 17.6625 -0.933333 5.2361 56.9179
6745933 8.7114 9.59588 20.6126 17.643 -0.921611 5.29013 56.5629
6745941 8.7114 9.59588 20.6126 17.643 -0.921611 5.29013 56.5629
6745955 8.75544 9.70639 20.6422 17.6625 -0.893459 5.24327 56.7665
6745961 8.75544 9.70639 20.6422 17.6625 -0.893459 5.24327 56.7665
6745971 8.69378 9.69718 20.6815 17.7014 -0.870423 5.282 56.7739
6745981 8.78187 9.70639 20.6815 17.7891 -0.863731 5.26232 56.9589
6746003 8.74663 9.69718 20.7209 17.7891 -0.869671 5.28486 56.9538
6746011 8.73782 9.65114 20.6422 17.7989 -0.849018 5.29264 56.83
6746023 8.73782 9.65114 20.6422 17.7989 -0.849018 5.29264 56.83
6746032 8.78187 9.65114 20.5831 17.8086 -0.838204 5.26849 56.8247
6746044 8.78187 9.65114 20.5831 17.8086 -0.838204 5.26849 56.8247
6746052 8.78187 9.66035 20.4453 17.7891 -0.784135 5.23819 56.6766
6746064 8.78187 9.65114 20.4158 17.7404 -0.797893 5.22798 56.5892
6746072 8.78187 9.65114 20.4158 17.7404 -0.797893 5.22798 56.5892
6746086 8.82591 9.64193 20.2583 17.7599 -0.744584 5.19163 56.486
6746092 8.84352 9.6143 20.1795 17.6819 -0.766513 5.16794 56.3193
6746112 8.86114 9.66956 20.2484 17.7209 -0.760654 5.16069 56.5
6746123 8.86114 9.66956 20.2484 17.7209 -0.760654 5.16069 56.5
6746133 8.8171 9.58667 20.1303 17.7696 -0.706474 5.19401 56.3037
6746143 8.93161 9.65114 20.1893 17.7307 -0.7695 5.13354 56.5028
6746153 8.93161 9.65114 20.1893 17.7307 -0.7695 5.13354 56.5028
6746163 8.98446 9.65114 20.1106 17.8086 -0.722893 5.11458 56.5548
6746173 8.95803 9.73402 20.1795 17.8573 -0.6814 5.11506 56.7289
6746196 9.01088 9.77086 20.2583 17.9255 -0.690229 5.10889 56.9655
6746203 9.01088 9.77086 20.2583 17.9255 -0.690229 5.10889 56.9655
6746213 9.08135 9.73402 20.1893 17.8476 -0.742763 5.07144 56.8523
6746231 9.09016 9.78927 20.0811 17.867 -0.666447 5.0333 56.8275
6746243 9.12539 9.78006 20.0909 17.7989 -0.720738 5.01388 56.7952
6746253 9.12539 9.78006 20.0023 17.7307 -0.71373 4.98624 56.6384
6746263 9.12539 9.78006 20.0023 17.7307 -0.71373 4.98624 56.6384
6746274 9.16943 9.82611 19.9433 17.7307 -0.6864 4.94403 56.6695
6746294 9.14301 9.78006 19.8743 17.6917 -0.684023 4.95042 56.4891
6746304 9.16943 9.78927 20.0122 17.6235 -0.78136 4.95022 56.5944
6746315 9.16943 9.78927 20.0122 17.6235 -0.78136 4.95022 56.5944
6746324 9.20466 9.79848 19.9531 17.6527 -0.753661 4.92926 56.609
6746335 9.19586 9.78927 19.9531 17.6625 -0.749645 4.93733 56.6007
6746355 9.23109 9.84453 19.9826 17.643 -0.761096 4.9073 56.7012
6746364 9.23109 9.84453 19.9826 17.643 -0.761096 4.9073 56.7012
6746375 9.22228 9.85374 19.9531 17.6527 -0.736091 4.90364 56.6818
6746386 9.22228 9.85374 19.9334 17.7112 -0.701149 4.91053 56.7206
6746396 9.22228 9.85374 19.9334 17.7112 -0.701149 4.91053 56.7206
6746406 9.26632 9.88136 19.9433 17.5943 -0.764725 4.8663 56.6852
6746416 9.18705 9.89978 19.9039 17.6819 -0.66575 4.89628 56.6727
6746431 9.18705 9.89978 19.9039 17.6819 -0.66575 4.89628 56.6727
6746438 9.2399 9.89057 19.8842 17.604 -0.719507 4.86352 56.6187
6746446 9.2399 9.89057 19.8842 17.604 -0.719507 4.86352 56.6187
6746456 9.25751 9.86295 19.835 17.5845 -0.727367 4.85472 56.54
6746466 9.21347 9.88136 19.9039 17.643 -0.703108 4.88651 56.6417
6746476 9.21347 9.88136 19.9039 17.643 -0.703108 4.88651 56.6417
6746487 9.28394 9.92741 19.835 17.6138 -0.696148 4.8281 56.6601
6746496 9.21347 9.88136 19.8547 17.5456 -0.726263 4.86026 56.4951
6746516 9.2487 9.93662 20.0318 17.6527 -0.743456 4.87936 56.8699
6746536 9.29275 9.9182 19.9334 17.643 -0.732987 4.85111 56.7873
6746546 9.28394 9.95504 19.9433 17.5456 -0.760911 4.82564 56.7278
6746556 9.28394 9.95504 19.9433 17.5456 -0.760911 4.82564 56.7278
6746566 9.29275 9.89978 19.8547 17.565 -0.743032 4.82948 56.6122
6746576 9.26632 9.89978 19.9137 17.565 -0.757004 4.84934 56.6449
6746586 9.26632 9.92741 19.9137 17.5748 -0.740024 4.8414 56.6822
6746596 9.29275 9.93662 19.8743 17.5163 -0.756861 4.81136 56.62
6746605 9.29275 9.93662 19.8743 17.5163 -0.756861 4.81136 56.62
6746616 9.30155 9.99187 19.8743 17.4384 -0.770955 4.77492 56.6062
6746628 9.26632 9.95504 19.8054 17.3897 -0.76531 4.77886 56.4165
6746646 9.32798 9.92741 19.8448 17.3605 -0.83462 4.76878 56.4607
6746656 9.32798 9.92741 19.8448 17.3605 -0.83462 4.76878 56.4607
6746666 9.26632 9.90899 19.9039 17.3702 -0.837478 4.80929 56.4494
6746677 9.32798 9.93662 19.894 17.3994 -0.833641 4.78151 56.5581
6746698 9.32798 9.92741 19.9433 17.3702 -0.872223 4.78834 56.5688
6746706 9.31917 9.89978 19.9334 17.341 -0.890294 4.79404 56.4933
6746726 9.38083 9.94583 19.9826 17.3507 -0.911981 4.76704 56.66
6746748 9.3456 9.97346 20.0122 17.3897 -0.879139 4.78204 56.7209
6746757 9.41606 9.95504 20.022 17.3994 -0.917199 4.76744 56.7925
6746777 9.37202 9.94583 19.9826 17.302 -0.930531 4.76131 56.6025
6746788 9.38083 9.92741 20.0318 17.263 -0.981496 4.76651 56.6031
6746808 9.38083 9.92741 20.0318 17.263 -0.981496 4.76651 56.6031
6746813 9.41606 9.99187 19.9629 17.2241 -0.9555 4.71219 56.5949
6746831 9.41606 9.99187 19.9629 17.2241 -0.9555 4.71219 56.5949
6746832 9.42487 9.94583 20.0023 17.1656 -1.02396 4.7217 56.5386
6746842 9.40725 9.94583 19.9728 17.1656 -1.00395 4.72248 56.4915
6746851 9.40725 9.94583 19.9728 17.1656 -1.00395 4.72248 56.4915
6746858 9.40725 10.0103 19.9925 17.1656 -0.982675 4.70358 56.5756
6746868 9.42487 9.95504 19.9629 17.1948 -0.989574 4.71664 56.5377
6746878 9.42487 9.95504 19.9629 17.1948 -0.989574 4.71664 56.5377
6746889 9.44249 10.0103 19.9925 17.2046 -0.979738 4.69841 56.6498
6746899 9.45129 10.0011 20.0122 17.1364 -1.02736 4.68972 56.6009
6746909 9.45129 10.0011 20.0122 17.1364 -1.02736 4.68972 56.6009
6746919 9.52176 9.93662 20.0023 17.2143 -1.04682 4.70002 56.675
6746929 9.52176 9.93662 20.0023 17.2143 -1.04682 4.70002 56.675
6746940 9.51295 10.0287 19.894 17.2436 -0.941582 4.65671 56.6793
6746949 9.47772 9.95504 19.9728 17.2241 -1.00274 4.70534 56.6296
6746963 9.47772 9.95504 19.9728 17.2241 -1.00274 4.70534 56.6296
6746969 9.54819 9.94583 20.0122 17.1461 -1.08927 4.67702 56.6523
6746989 9.50414 9.93662 20.0023 17.0877 -1.0977 4.68309 56.5308
6746999 9.51295 9.98267 19.9433 17.0779 -1.05969 4.65142 56.5168
6747009 9.51295 9.98267 19.9433 17.0779 -1.05969 4.65142 56.5168
6747019 9.54819 9.96425 19.9236 17.0585 -1.08376 4.6384 56.4944
6747032 9.5658 10.0287 19.9629 17.1461 -1.03781 4.63319 56.7036
6747053 9.58342 10.0287 19.9039 17.0195 -1.07857 4.59302 56.5355
6747061 9.5658 10.0287 19.9433 17.0585 -1.06981 4.61352 56.5962
6747072 9.5658 9.99187 19.9433 17.0585 -1.08679 4.6263 56.5594
6747081 9.60104 10.0655 19.9531 17.039 -1.08087 4.5868 56.6587
6747095 9.60104 10.0655 19.9531 17.039 -1.08087 4.5868 56.6587
6747101 9.59223 10.0011 19.9236 17.0877 -1.07192 4.61569 56.6046
6747116 9.55699 10.0655 19.9925 17.0292 -1.08338 4.60748 56.6442
6747122 9.55699 10.0655 19.9925 17.0292 -1.08338 4.60748 56.6442
6747131 9.70674 10.084 19.9137 17.0195 -1.10932 4.53314 56.7239
6747141 9.70674 10.084 19.9137 17.0195 -1.10932 4.53314 56.7239
6747151 9.63627 10.0011 19.8251 16.9714 -1.10256 4.56088 56.4339
6747162 9.60104 10.1392 19.8054 17.0779 -0.966612 4.54133 56.6236
6747185 9.59223 10.0655 19.7956 17 -1.02841 4.55362 56.4534
6747191 9.62746 10.0379 19.8054 16.9143 -1.09987 4.53694 56.3852
6747201 9.62746 10.0379 19.8054 16.9143 -1.09987 4.53694 56.3852
6747211 9.60104 10.1484 19.8054 16.9905 -1.00254 4.52198 56.5454
6747223 9.60104 10.1484 19.8054 16.9905 -1.00254 4.52198 56.5454
6747232 9.58342 10.084 19.7956 17 -1.01618 4.5503 56.463
6747241 9.68912 10.0748 19.835 17.039 -1.06394 4.53144 56.6378
6747256 9.68912 10.0748 19.835 17.039 -1.06394 4.53144 56.6378
6747262 9.66269 10.0655 19.8153 17 -1.06663 4.53289 56.5435
6747275 9.64508 10.1208 19.8448 17.0097 -1.04174 4.52717 56.6204
6747282 9.64508 10.1208 19.8448 17.0097 -1.04174 4.52717 56.6204
6747296 9.70674 10.2129 19.7562 16.9334 -1.02311 4.44362 56.6092
6747302 9.70674 10.2129 19.7562 16.9334 -1.02311 4.44362 56.6092
6747312 9.68031 10.1761 19.7464 16.8858 -1.04661 4.45466 56.4885
6747322 9.72435 10.2221 19.8054 16.9143 -1.0559 4.44003 56.6662
6747333 9.72435 10.2221 19.8054 16.9143 -1.0559 4.44003 56.6662
6747343 9.75959 10.2313 19.707 16.8572 -1.05121 4.39571 56.5551
6747353 9.73316 10.305 19.7267 16.8572 -1.01447 4.38321 56.6221
6747363 9.73316 10.305 19.7267 16.8572 -1.01447 4.38321 56.6221
6747373 9.75959 10.3418 19.6972 16.6859 -1.07509 4.32375 56.4845
6747385 9.75959 10.3418 19.6972 16.6859 -1.07509 4.32375 56.4845
6747393 9.75959 10.3694 19.7169 16.6573 -1.08386 4.31263 56.5032
6747403 9.73316 10.3418 19.6873 16.6954 -1.05533 4.33274 56.4577
6747413 9.73316 10.3418 19.6873 16.6954 -1.05533 4.33274 56.4577
6747426 9.75959 10.4063 19.6381 16.6954 -1.01594 4.29234 56.4994
6747434 9.69793 10.3694 19.6972 16.6954 -1.03181 4.3372 56.4599
6747443 9.69793 10.3694 19.6972 16.6954 -1.03181 4.3372 56.4599
6747453 9.75959 10.4155 19.7267 16.7049 -1.04487 4.30776 56.6067
6747468 9.75959 10.4155 19.7267 16.7049 -1.04487 4.30776 56.6067
6747476 9.78601 10.3142 19.707 16.7144 -1.09002 4.33141 56.5217
6747483 9.72435 10.3142 19.7169 16.7335 -1.05929 4.35797 56.4889
6747499 9.72435 10.3142 19.7169 16.7335 -1.05929 4.35797 56.4889
6747504 9.71554 10.3234 19.7267 16.6954 -1.07305 4.35251 56.461
6747514 9.74197 10.305 19.7858 16.7716 -1.0826 4.37521 56.6043
6747525 9.74197 10.305 19.7858 16.7716 -1.0826 4.37521 56.6043
6747536 9.71554 10.2866 19.7365 16.7716 -1.05908 4.38133 56.5102
6747545 9.71554 10.2866 19.7365 16.7716 -1.05908 4.38133 56.5102
6747555 9.68031 10.305 19.7562 16.8287 -1.01771 4.4015 56.5702
6747568 9.68912 10.2221 19.835 16.8096 -1.10172 4.43811 56.5558
6747574 9.68912 10.2221 19.835 16.8096 -1.10172 4.43811 56.5558
6747587 9.66269 10.2958 19.7858 16.8763 -1.00512 4.42513 56.6205
6747595 9.64508 10.2405 19.7661 16.9334 -0.988448 4.45714 56.585
6747609 9.64508 10.2405 19.7661 16.9334 -0.988448 4.45714 56.585
6747614 9.61865 10.2866 19.8645 16.8382 -1.04155 4.451 56.6079
6747626 9.61865 10.2866 19.8645 16.8382 -1.04155 4.451 56.6079
6747636 9.64508 10.2497 19.894 16.8858 -1.06027 4.46893 56.6746
6747644 9.61865 10.2774 19.894 16.8191 -1.06705 4.45612 56.6092
6747668 9.61865 10.2774 19.894 16.8191 -1.06705 4.45612 56.6092
6747670 9.63627 10.2405 19.9334 16.8858 -1.0774 4.48244 56.696
6747676 9.53938 10.2774 20.0122 16.8858 -1.05282 4.51767 56.7147
6747686 9.53938 10.2774 20.0122 16.8858 -1.05282 4.51767 56.7147
6747699 9.53057 10.2497 19.9629 16.9429 -1.01475 4.53167 56.6861
6747720 9.4601 10.1761 20.0417 16.8763 -1.0828 4.5837 56.5541
6747726 9.4601 10.2129 20.0614 16.9714 -1.03038 4.59208 56.7058
6747747 9.40725 10.0932 20.1106 16.9429 -1.09709 4.65566 56.5539
6747757 9.31036 10.0379 20.15 17.0097 -1.0674 4.72803 56.508
6747767 9.31036 10.0379 20.15 17.0097 -1.0674 4.72803 56.508
6747777 9.29275 10.0748 20.2386 17.0682 -1.05355 4.74799 56.6743
6747797 9.15181 9.95504 20.3075 17.1461 -1.0423 4.86561 56.5605
6747810 9.10777 9.98267 20.337 17.1754 -1.01 4.88189 56.6028
6747832 9.08135 9.90899 20.5043 17.2143 -1.08553 4.9538 56.709
6747837 9.00207 9.88136 20.5536 17.2533 -1.06763 5.00705 56.6903
6747849 9.00207 9.88136 20.5536 17.2533 -1.06763 5.00705 56.6903
6747861 9.00207 9.90899 20.524 17.3117 -1.01563 5.0024 56.7468
6747868 8.94922 9.80769 20.6028 17.3215 -1.06862 5.07241 56.6812
6747878 8.94922 9.80769 20.6028 17.3215 -1.06862 5.07241 56.6812
6747888 8.98446 9.88136 20.5929 17.3605 -1.02763 5.03903 56.8192
6747908 8.96684 9.77086 20.5043 17.3507 -1.03795 5.06709 56.5928
6747923 8.94041 9.75244 20.4551 17.4384 -0.974046 5.08974 56.5864
6747929 8.94041 9.75244 20.4551 17.4384 -0.974046 5.08974 56.5864
6747939 8.98446 9.72481 20.4158 17.4871 -0.966351 5.08555 56.6121
6747951 8.99326 9.73402 20.4354 17.5066 -0.965291 5.08602 56.6693
6747961 8.99326 9.73402 20.4354 17.5066 -0.965291 5.08602 56.6693
6747969 9.01088 9.68797 20.3862 17.6819 -0.892761 5.11811 56.767
6747981 9.01088 9.68797 20.3862 17.6819 -0.892761 5.11811 56.767
6747991 8.94041 9.62351 20.3665 17.7112 -0.870501 5.1677 56.6416
6748001 9.01969 9.65114 20.2878 17.7696 -0.831467 5.12617 56.7282
6748021 8.96684 9.62351 20.1893 17.7696 -0.779431 5.13763 56.5493
6748031 8.94922 9.6143 20.1303 17.7501 -0.759628 5.13347 56.4439
6748041 8.94922 9.6143 20.1303 17.7501 -0.759628 5.13347 56.4439
6748051 8.99326 9.62351 20.1893 17.8086 -0.77299 5.13502 56.6147
6748062 8.99326 9.62351 20.1893 17.8086 -0.77299 5.13502 56.6147
6748071 8.97565 9.55905 20.2583 17.867 -0.797656 5.18636 56.66
6748083 8.95803 9.513 20.2976 17.9645 -0.783575 5.23268 56.7331
6748090 8.95803 9.513 20.2976 17.9645 -0.783575 5.23268 56.7331
6748108 8.87876 9.49458 20.3961 17.9645 -0.800124 5.28446 56.7339
6748113 8.91399 9.43012 20.3862 18.0424 -0.804824 5.30656 56.7727
6748122 8.91399 9.43012 20.3862 18.0424 -0.804824 5.30656 56.7727
6748132 8.88756 9.4117 20.524 18.0911 -0.838441 5.35433 56.9144
6748142 8.88756 9.4117 20.524 18.0911 -0.838441 5.35433 56.9144
6748154 8.82591 9.36566 20.5142 18.0716 -0.837836 5.38795 56.7774
6748162 8.78187 9.29198 20.5536 18.1203 -0.847216 5.44516 56.7478
6748175 8.78187 9.29198 20.5536 18.1203 -0.847216 5.44516 56.7478
6748182 8.80829 9.32882 20.5929 18.0424 -0.893921 5.41589 56.7725
6748197 8.79067 9.30119 20.5732 18.1301 -0.850709 5.44363 56.7952
6748202 8.79067 9.30119 20.5732 18.1301 -0.850709 5.44363 56.7952
6748212 8.73782 9.30119 20.6126 18.1983 -0.813974 5.48072 56.8499
6748222 8.73782 9.30119 20.6126 18.1983 -0.813974 5.48072 56.8499
6748232 8.67617 9.21831 20.5634 18.208 -0.799967 5.52633 56.6659
6748242 8.72021 9.19068 20.5831 18.1203 -0.879756 5.509 56.6143
6748265 8.67617 9.25515 20.6028 18.1009 -0.848831 5.50164 56.635
6748272 8.65855 9.19989 20.5536 18.1593 -0.818837 5.5296 56.5713
6748286 8.65855 9.19989 20.5536 18.1593 -0.818837 5.5296 56.5713
6748293 8.64093 9.15385 20.5732 18.1496 -0.845207 5.55439 56.5176
6748313 8.66736 9.17226 20.5929 18.1301 -0.865386 5.53813 56.5626
6748323 8.64974 9.19989 20.5732 18.1398 -0.832382 5.53282 56.5627
6748343 8.69378 9.18147 20.5831 18.1593 -0.854896 5.52844 56.6177
6748356 8.64093 9.15385 20.6225 18.247 -0.821754 5.57883 56.6642
6748364 8.64093 9.15385 20.6225 18.247 -0.821754 5.57883 56.6642
6748380 8.65855 9.26436 20.6422 18.1885 -0.813961 5.52594 56.7536
6748384 8.65855 9.26436 20.6422 18.1885 -0.813961 5.52594 56.7536
6748394 8.67617 9.27356 20.6225 18.1885 -0.808889 5.51295 56.7607
6748405 8.7114 9.24594 20.5929 18.1983 -0.819455 5.50689 56.7486
6748415 8.7114 9.24594 20.5929 18.1983 -0.819455 5.50689 56.7486
6748428 8.66736 9.25515 20.652 18.1983 -0.821665 5.52935 56.7728
6748434 8.75544 9.31961 20.6323 18.2178 -0.812635 5.4743 56.9251
6748449 8.75544 9.31961 20.6323 18.2178 -0.812635 5.4743 56.9251
6748454 8.74663 9.3104 20.5536 18.1398 -0.814956 5.4545 56.7504
6748466 8.74663 9.3104 20.5536 18.1398 -0.814956 5.4545 56.7504
6748474 8.72021 9.28277 20.5929 18.1593 -0.824177 5.48388 56.7552
6748484 8.72902 9.26436 20.5142 18.0911 -0.833823 5.46266 56.5987
6748497 8.72902 9.26436 20.5142 18.0911 -0.833823 5.46266 56.5987
6748506 8.68497 9.29198 20.5536 18.1496 -0.792599 5.48504 56.6801
6748519 8.65855 9.27356 20.5437 18.1203 -0.798798 5.4947 56.5962
6748536 8.72902 9.31961 20.4748 18.1203 -0.778496 5.44098 56.6438
6748546 8.70259 9.22752 20.524 18.1301 -0.825767 5.49376 56.5842
6748557 8.70259 9.22752 20.524 18.1301 -0.825767 5.49376 56.5842
6748568 8.75544 9.28277 20.6126 18.2275 -0.816563 5.4859 56.8783
6748577 8.75544 9.28277 20.6126 18.2275 -0.816563 5.4859 56.8783
6748587 8.72021 9.27356 20.6422 18.1496 -0.853752 5.49382 56.7855
6748597 8.76425 9.32882 20.6815 18.1496 -0.864039 5.46465 56.9242
6748609 8.76425 9.32882 20.6815 18.1496 -0.864039 5.46465 56.9242
6748617 8.75544 9.31961 20.7209 18.0911 -0.907768 5.46793 56.8871
6748631 8.74663 9.26436 20.6618 18.1106 -0.895295 5.48438 56.7834
6748647 8.72902 9.3104 20.6028 18.0619 -0.863916 5.45602 56.7041
6748657 8.72902 9.3104 20.6028 18.0619 -0.863916 5.45602 56.7041
6748671 8.74663 9.26436 20.5634 18.0034 -0.902404 5.4498 56.5778
6748679 8.75544 9.31961 20.5339 17.9547 -0.89058 5.41343 56.5637
6748691 8.75544 9.31961 20.5339 17.9547 -0.89058 5.41343 56.5637
6748700 8.74663 9.35645 20.5536 17.9255 -0.891732 5.4017 56.5821
6748708 8.79067 9.3104 20.4748 17.9352 -0.89356 5.3907 56.5111
6748723 8.79067 9.3104 20.4748 17.9352 -0.89356 5.3907 56.5111
6748728 8.78187 9.35645 20.524 17.984 -0.867441 5.39391 56.6463
6748747 8.78187 9.35645 20.524 17.984 -0.867441 5.39391 56.6463
6748749 8.76425 9.31961 20.5831 18.0229 -0.884111 5.43011 56.6899
6748760 8.80829 9.34724 20.7012 18.0716 -0.918099 5.43244 56.9284
6748779 8.85233 9.33803 20.7209 18.0034 -0.980313 5.41178 56.9147
6748791 8.79067 9.33803 20.7209 18.0132 -0.949815 5.43556 56.8628
6748799 8.79067 9.33803 20.7209 18.0132 -0.949815 5.43556 56.8628
6748814 8.80829 9.32882 20.6323 17.9158 -0.968517 5.40114 56.6852
6748829 8.83471 9.29198 20.6225 17.8086 -1.04168 5.38503 56.5578
6748839 8.87876 9.3104 20.6225 17.8768 -1.02051 5.37414 56.6884
6748850 8.87876 9.3104 20.6225 17.8768 -1.02051 5.37414 56.6884
6748859 8.93161 9.37486 20.5732 17.7307 -1.05958 5.2987 56.6104
6748869 8.86114 9.34724 20.652 17.6917 -1.09377 5.34074 56.5521
6748883 8.86114 9.34724 20.652 17.6917 -1.09377 5.34074 56.5521
6748891 8.86995 9.30119 20.6717 17.7014 -1.12258 5.35916 56.5443
6748899 8.86995 9.30119 20.6717 17.7014 -1.12258 5.35916 56.5443
6748910 8.9228 9.30119 20.6126 17.8086 -1.07054 5.34835 56.6452
6748919 8.87876 9.25515 20.652 17.8378 -1.07631 5.39242 56.6237
6748929 8.87876 9.25515 20.652 17.8378 -1.07631 5.39242 56.6237
6748940 8.9228 9.30119 20.6914 17.7696 -1.1217 5.35512 56.685
6748959 8.88756 9.28277 20.652 17.8086 -1.08076 5.37434 56.6309
6748974 8.93161 9.31961 20.7209 17.8281 -1.10247 5.36031 56.8002
6748981 8.93161 9.31961 20.7209 17.8281 -1.10247 5.36031 56.8002
6748999 8.93161 9.31961 20.6422 17.867 -1.0514 5.35355 56.7604
6749003 8.95803 9.30119 20.6422 17.8768 -1.06652 5.35234 56.7782
6749023 9.0285 9.37486 20.5929 17.7891 -1.08191 5.27742 56.7854
6749031 9.04611 9.38407 20.524 17.7696 -1.065 5.25268 56.7238
6749044 9.04611 9.38407 20.524 17.7696 -1.065 5.25268 56.7238
6749052 9.01088 9.39328 20.5339 17.7989 -1.03663 5.26868 56.7369
6749062 9.01088 9.39328 20.5339 17.7989 -1.03663 5.26868 56.7369
6749072 8.95803 9.39328 20.4748 17.7404 -1.01613 5.2674 56.5665
6749082 9.01969 9.40249 20.4256 17.8281 -0.976922 5.24866 56.6759
6749104 9.01088 9.35645 20.3764 17.7599 -1.00477 5.24806 56.5036
6749113 9.01969 9.39328 20.3567 17.7794 -0.974254 5.23168 56.549
6749125 9.01969 9.39328 20.3567 17.7794 -0.974254 5.23168 56.549
6749132 9.06373 9.48537 20.4354 17.7696 -0.988546 5.19503 56.7542
6749153 9.06373 9.42091 20.3567 17.6917 -1.02056 5.19088 56.533
6749162 9.06373 9.513 20.3665 17.7404 -0.960091 5.16821 56.6837
6749172 9.06373 9.513 20.3665 17.7404 -0.960091 5.16821 56.6837
6749183 9.09016 9.50379 20.3272 17.7209 -0.967745 5.15186 56.642
6749195 9.14301 9.53142 20.3272 17.7112 -0.981951 5.12157 56.7128
6749203 9.14301 9.53142 20.3272 17.7112 -0.981951 5.12157 56.7128
6749215 9.17824 9.54984 20.3468 17.6917 -1.00568 5.10259 56.7666
6749223 9.17824 9.54984 20.3468 17.6917 -1.00568 5.10259 56.7666
6749237 9.04611 9.56826 20.2484 17.6625 -0.912778 5.12068 56.5252
6749243 9.17824 9.56826 20.1893 17.5943 -0.975171 5.05141 56.5301
6749253 9.17824 9.56826 20.1893 17.5943 -0.975171 5.05141 56.5301
6749263 9.17824 9.59588 20.1697 17.6527 -0.927307 5.04844 56.5965
6749273 9.14301 9.6143 20.0909 17.6625 -0.865832 5.04225 56.5107
6749283 9.14301 9.6143 20.0909 17.6625 -0.865832 5.04225 56.5107
6749300 9.19586 9.67877 20.1598 17.6332 -0.901601 5.00773 56.6677
6749305 9.19586 9.67877 20.1598 17.6332 -0.901601 5.00773 56.6677
6749314 9.23109 9.70639 20.1598 17.7014 -0.872853 4.99758 56.7987
6749327 9.26632 9.67877 20.1795 17.6819 -0.917634 4.99495 56.8065
6749333 9.26632 9.67877 20.1795 17.6819 -0.917634 4.99495 56.8065
6749343 9.21347 9.70639 20.1204 17.6332 -0.879726 4.98482 56.6735
6749353 9.21347 9.70639 20.1204 17.6332 -0.879726 4.98482 56.6735
6749363 9.28394 9.72481 20.0909 17.6235 -0.893173 4.94657 56.7232
6749373 9.2399 9.70639 20.0515 17.5553 -0.89727 4.94947 56.5531
6749388 9.2399 9.70639 20.0515 17.5553 -0.89727 4.94947 56.5531
6749394 9.32798 9.74323 20.0023 17.5261 -0.910339 4.89151 56.5996
6749403 9.32798 9.79848 19.9137 17.4871 -0.865118 4.84926 56.5273
6749416 9.32798 9.79848 19.9137 17.4871 -0.865118 4.84926 56.5273
6749425 9.29275 9.78006 19.8547 17.5456 -0.806487 4.86801 56.473
6749439 9.29275 9.78006 19.8547 17.5456 -0.806487 4.86801 56.473
6749444 9.3544 9.73402 19.8054 17.4481 -0.877538 4.83613 56.342
6749455 9.37202 9.85374 19.8547 17.5261 -0.815661 4.81084 56.6065
6749465 9.37202 9.85374 19.8547 17.5261 -0.815661 4.81084 56.6065
6749474 9.3544 9.84453 19.8153 17.4774 -0.817733 4.80436 56.4916
6749484 9.36321 9.83532 19.7464 17.5066 -0.782835 4.79733 56.4515
6749494 9.36321 9.83532 19.7464 17.5066 -0.782835 4.79733 56.4515
6749510 9.43368 9.86295 19.8251 17.5163 -0.829624 4.77898 56.6381
6749516 9.43368 9.86295 19.8251 17.5163 -0.829624 4.77898 56.6381
6749524 9.38083 9.90899 19.7759 17.5456 -0.751701 4.77775 56.6113
6749535 9.45129 9.92741 19.8645 17.5553 -0.806838 4.7645 56.7985
6749557 9.40725 10.0011 19.7365 17.4871 -0.73086 4.7187 56.632
6749564 9.49534 10.0471 19.7267 17.4481 -0.761126 4.66323 56.7173
6749576 9.49534 10.0471 19.7267 17.4481 -0.761126 4.66323 56.7173
6749586 9.46891 10.0011 19.7267 17.4384 -0.775196 4.68661 56.6351
6749596 9.3456 10.0011 19.6972 17.4968 -0.68306 4.73482 56.5407
6749606 9.3456 9.95504 19.6972 17.4968 -0.703992 4.75091 56.4946
6749618 9.40725 9.99187 19.6283 17.5163 -0.675274 4.70754 56.5437
6749629 9.40725 9.99187 19.6283 17.5163 -0.675274 4.70754 56.5437
6749637 9.38964 10.0563 19.7169 17.4579 -0.703043 4.69671 56.6207
6749651 9.32798 10.0563 19.7169 17.4579 -0.676553 4.71819 56.559
6749667 9.33679 10.0932 19.6775 17.4579 -0.64669 4.69512 56.5653
6749677 9.36321 10.0471 19.7365 17.4481 -0.708757 4.71093 56.595
6749688 9.36321 10.0471 19.7365 17.4481 -0.708757 4.71093 56.595
6749698 9.36321 10.0655 19.7562 17.4871 -0.691162 4.71517 56.6721
6749708 9.36321 10.0655 19.7562 17.4871 -0.691162 4.71517 56.6721
6749721 9.33679 10.0103 19.7661 17.4968 -0.704697 4.74718 56.61
6749729 9.30155 9.96425 19.8251 17.4189 -0.771338 4.77215 56.5098
6749738 9.30155 9.96425 19.8251 17.4189 -0.771338 4.77215 56.5098
6749749 9.31036 9.93662 19.8054 17.4676 -0.757062 4.78399 56.52
6749758 9.31036 10.0011 19.835 17.4871 -0.731523 4.77031 56.6335
6749770 9.31036 10.0011 19.835 17.4871 -0.731523 4.77031 56.6335
6749778 9.31036 9.92741 19.8743 17.4968 -0.777462 4.80492 56.609
6749793 9.31036 9.92741 19.8743 17.4968 -0.777462 4.80492 56.609
6749798 9.26632 9.89057 19.9433 17.4676 -0.818212 4.84038 56.5678
6749808 9.32798 9.89978 19.9531 17.4676 -0.844538 4.81733 56.6485
6749818 9.32798 9.89978 19.9531 17.4676 -0.844538 4.81733 56.6485
6749828 9.31036 9.88136 20.0318 17.4579 -0.883429 4.84233 56.6814
6749841 9.26632 9.86295 20.0712 17.4676 -0.885411 4.873 56.6681
6749848 9.26632 9.86295 20.0712 17.4676 -0.885411 4.873 56.6681
6749860 9.23109 9.89978 20.1697 17.4968 -0.882132 4.8952 56.7974
6749869 9.23109 9.89978 20.1697 17.4968 -0.882132 4.8952 56.7974
6749880 9.23109 9.79848 20.1008 17.5456 -0.876828 4.92716 56.6759
6749889 9.22228 9.73402 20.2976 17.6235 -0.950462 5.0015 56.8774
6749902 9.22228 9.73402 20.2976 17.6235 -0.950462 5.0015 56.8774
6749910 9.16943 9.78006 20.2878 17.643 -0.894056 5.00559 56.8803
6749919 9.11658 9.78006 20.2779 17.6138 -0.880772 5.01733 56.7883
6749929 9.11658 9.70639 20.2779 17.6138 -0.914389 5.04333 56.7147
6749941 9.11658 9.70639 20.2386 17.6917 -0.862093 5.05009 56.7532
6749949 9.11658 9.70639 20.2386 17.6917 -0.862093 5.05009 56.7532
6749959 9.09896 9.63272 20.1697 17.7014 -0.854406 5.07203 56.6028
6749969 9.0285 9.57747 20.1598 17.7307 -0.831994 5.1201 56.4964
6749979 9.0285 9.57747 20.1598 17.7307 -0.831994 5.1201 56.4964
6749990 9.04611 9.59588 20.2484 17.6722 -0.895658 5.11255 56.5626
6749999 9.01088 9.57747 20.1893 17.7014 -0.85046 5.12643 56.4791
6750012 9.01088 9.57747 20.1893 17.7014 -0.85046 5.12643 56.4791
6750028 8.99326 9.50379 20.2386 17.8086 -0.848645 5.18623 56.5442
6750035 8.99326 9.50379 20.2386 17.8086 -0.848645 5.18623 56.5442
6750043 9.00207 9.54984 20.3272 17.7404 -0.900306 5.17021 56.6195
6750051 8.95803 9.52221 20.4059 17.7501 -0.923252 5.2111 56.6363
6750071 8.99326 9.48537 20.5142 17.7307 -1.00991 5.22699 56.7235
6750081 9.00207 9.46696 20.5142 17.7404 -1.01761 5.23209 56.7236
6750091 9.00207 9.46696 20.5142 17.7404 -1.01761 5.23209 56.7236
6750103 8.98446 9.45775 20.6028 17.7112 -1.06522 5.25187 56.7562
6750122 8.96684 9.43012 20.5831 17.7209 -1.0577 5.26633 56.701
6750132 8.95803 9.42091 20.5929 17.6625 -1.08927 5.26442 56.6343
6750144 8.95803 9.42091 20.5929 17.6625 -1.08927 5.26442 56.6343
6750152 8.94041 9.38407 20.6323 17.6138 -1.13791 5.28232 56.5706
6750163 8.97565 9.4117 20.6126 17.6819 -1.10027 5.26814 56.6819
6750185 8.94041 9.48537 20.6618 17.6819 -1.07229 5.26285 56.7696
6750192 8.94041 9.48537 20.6618 17.6819 -1.07229 5.26285 56.7696
6750202 8.97565 9.44854 20.6323 17.5748 -1.14099 5.23993 56.6313
6750212 9.00207 9.37486 20.652 17.565 -1.19896 5.25854 56.594
6750233 9.07254 9.46696 20.6618 17.5456 -1.19913 5.19885 56.7469
6750242 9.11658 9.45775 20.6422 17.5358 -1.21809 5.18137 56.7523
6750254 9.11658 9.45775 20.6422 17.5358 -1.21809 5.18137 56.7523
6750263 9.15181 9.50379 20.5732 17.4871 -1.2052 5.13209 56.716
6750277 9.15181 9.50379 20.5732 17.4871 -1.2052 5.13209 56.716
6750283 9.20466 9.39328 20.6028 17.4287 -1.318 5.14755 56.6294
6750293 9.23109 9.42091 20.6323 17.3897 -1.34665 5.12669 56.674
6750303 9.23109 9.42091 20.6323 17.3897 -1.34665 5.12669 56.674
6750313 9.21347 9.45775 20.6225 17.3897 -1.31807 5.11815 56.6834
6750329 9.23109 9.43933 20.6028 17.302 -1.36656 5.09968 56.5752
6750333 9.23109 9.43933 20.6028 17.302 -1.36656 5.09968 56.5752
6750346 9.25751 9.46696 20.5634 17.3312 -1.33468 5.07872 56.6191
6750363 9.25751 9.45775 20.5437 17.3312 -1.33073 5.07853 56.5902
6750373 9.2487 9.47616 20.6126 17.2825 -1.36994 5.07866 56.62
6750383 9.2487 9.47616 20.6126 17.2825 -1.36994 5.07866 56.62
6750393 9.25751 9.46696 20.6126 17.3605 -1.34165 5.09245 56.6975
6750403 9.25751 9.46696 20.6126 17.3605 -1.34165 5.09245 56.6975
6750414 9.18705 9.39328 20.7012 17.3702 -1.37894 5.16077 56.6517
6750423 9.21347 9.46696 20.7209 17.4092 -1.34581 5.1354 56.8105
6750436 9.21347 9.46696 20.7209 17.4092 -1.34581 5.1354 56.8105
6750443 9.17824 9.42091 20.7406 17.3994 -1.36524 5.16597 56.7392
6750453 9.15181 9.38407 20.8292 17.4287 -1.39464 5.20884 56.7937
6750473 9.12539 9.4117 20.8489 17.4287 -1.37901 5.2118 56.8146
6750485 9.12539 9.4117 20.8489 17.4287 -1.37901 5.2118 56.8146
6750495 9.07254 9.33803 20.8784 17.3799 -1.42626 5.25362 56.6689
6750507 9.04611 9.39328 20.9867 17.4287 -1.41187 5.27026 56.8547
6750530 9.01088 9.32882 20.839 17.4189 -1.37028 5.27891 56.5976
6750535 8.98446 9.31961 20.9965 17.3605 -1.45643 5.30865 56.661
6750554 9.0285 9.29198 21.0064 17.3605 -1.4917 5.30445 56.6873
6750567 8.9228 9.26436 21.0261 17.4092 -1.44613 5.36398 56.6224
6750586 8.90518 9.31961 21.1048 17.3897 -1.45484 5.36053 56.7193
6750598 8.90518 9.31961 21.1048 17.3897 -1.45484 5.36053 56.7193
6750606 8.86995 9.19989 21.1442 17.3994 -1.50795 5.42462 56.6134
6750616 8.84352 9.17226 21.1934 17.4092 -1.52578 5.45409 56.6184
6750626 8.84352 9.17226 21.1934 17.4092 -1.52578 5.45409 56.6184
6750635 8.86114 9.17226 21.2721 17.4384 -1.55199 5.4659 56.7439
6750645 8.83471 9.17226 21.3509 17.4384 -1.57359 5.48865 56.7963
6750655 8.83471 9.13543 21.3509 17.4189 -1.59996 5.49868 56.7399
6750673 8.75544 9.12622 21.4001 17.4481 -1.57818 5.54379 56.7299
6750679 8.75544 9.12622 21.4001 17.4481 -1.57818 5.54379 56.7299
6750688 8.72021 9.11701 21.4395 17.4384 -1.58877 5.56483 56.7151
6750697 8.76425 9.13543 21.5576 17.4384 -1.64689 5.56185 56.8957
6750712 8.76425 9.13543 21.5576 17.4384 -1.64689 5.56185 56.8957
6750717 8.67617 9.08938 21.5281 17.4676 -1.6064 5.61038 56.7613
6750727 8.66736 9.03413 21.6167 17.4189 -1.68805 5.64025 56.7371
6750737 8.66736 9.03413 21.6167 17.4189 -1.68805 5.64025 56.7371
6750747 8.61451 9.06176 21.6659 17.4189 -1.67356 5.65754 56.7611
6750757 8.61451 9.06176 21.6659 17.4189 -1.67356 5.65754 56.7611
6750769 8.56166 9.08017 21.6462 17.4579 -1.61677 5.67325 56.7459
6750779 8.50881 9.04334 21.8037 17.4481 -1.68168 5.73015 56.804
6750787 8.50881 9.04334 21.8037 17.4481 -1.68168 5.73015 56.804
6750797 8.5 9.01571 21.912 17.5163 -1.7034 5.77214 56.944
6750807 8.5 9.01571 21.912 17.5163 -1.7034 5.77214 56.944
6750817 8.43834 9.05255 21.9612 17.4481 -1.71303 5.77813 56.9002
6750827 8.35026 8.96045 22.0498 17.5261 -1.71988 5.87093 56.8866
6750849 8.37668 8.89599 22.04 17.4774 -1.77993 5.8755 56.79
6750857 8.33264 8.86836 22.1089 17.4968 -1.79393 5.91603 56.8067
6750871 8.33264 8.86836 22.1089 17.4968 -1.79393 5.91603 56.8067
6750878 8.24456 8.9052 22.1679 17.5261 -1.75094 5.949 56.8438
6750898 8.20933 8.92362 22.1482 17.4481 -1.7565 5.93963 56.7293
6750908 8.21813 8.89599 22.1876 17.4676 -1.78007 5.95597 56.7694
6750919 8.21813 8.89599 22.1876 17.4676 -1.78007 5.95597 56.7694
6750928 8.23575 8.85915 22.1778 17.4092 -1.82827 5.95218 56.6818
6750941 8.24456 8.95125 22.1975 17.3702 -1.8148 5.91186 56.7635
6750948 8.24456 8.95125 22.1975 17.3702 -1.8148 5.91186 56.7635
6750963 8.27098 8.91441 22.2762 17.4189 -1.85207 5.93606 56.8805
6750968 8.27098 8.91441 22.2762 17.4189 -1.85207 5.93606 56.8805
6750981 8.29741 8.92362 22.2959 17.3605 -1.89408 5.91676 56.8774
6750989 8.30622 8.96966 22.2467 17.3897 -1.84211 5.89341 56.9122
6750999 8.30622 8.96966 22.2467 17.3897 -1.84211 5.89341 56.9122
6751009 8.36788 8.97887 22.2368 17.2338 -1.93252 5.84079 56.8174
6751019 8.34145 8.94204 22.2368 17.263 -1.92539 5.86872 56.7834
6751031 8.34145 8.94204 22.2368 17.263 -1.92539 5.86872 56.7834
6751041 8.45596 9.02492 22.1581 17.2338 -1.9145 5.77896 56.8728
6751051 8.42953 9.02492 22.1975 17.2046 -1.93359 5.79026 56.8565
6751061 8.42953 9.02492 22.1975 17.2046 -1.93359 5.79026 56.8565
6751071 8.46477 9.13543 22.1581 17.2046 -1.87966 5.7307 56.9629
6751091 8.47358 9.01571 22.1187 17.1656 -1.94234 5.75841 56.7736
6751101 8.52642 9.12622 22.0301 17.0779 -1.91699 5.66996 56.7607
6751111 8.52642 9.12622 22.0301 17.0779 -1.91699 5.66996 56.7607
6751121 8.62332 9.11701 22.0006 17 -1.98573 5.62035 56.7409
6751131 8.62332 9.14464 21.9218 16.9905 -1.94513 5.59569 56.6803
6751152 8.68497 9.2091 21.8332 17.0195 -1.88981 5.54004 56.7468
6751173 8.68497 9.14464 21.8431 16.9334 -1.96536 5.55069 56.6061
6751182 8.66736 9.29198 21.7742 16.8287 -1.90979 5.47455 56.5622
6751195 8.66736 9.29198 21.7742 16.8287 -1.90979 5.47455 56.5622
6751202 8.73782 9.30119 21.7348 16.8096 -1.92715 5.43589 56.5834
6751213 8.75544 9.30119 21.7053 16.8953 -1.88159 5.43901 56.6572
6751223 8.75544 9.30119 21.7053 16.8953 -1.88159 5.43901 56.6572
6751233 8.82591 9.27356 21.6561 16.7906 -1.95318 5.3975 56.5461
6751243 8.90518 9.34724 21.6659 16.8191 -1.94082 5.34901 56.7375
6751254 8.90518 9.34724 21.6659 16.8191 -1.94082 5.34901 56.7375
6751264 8.82591 9.4117 21.6265 16.8287 -1.8574 5.34924 56.6928
6751274 8.82591 9.4117 21.6265 16.8287 -1.8574 5.34924 56.6928
6751289 8.85233 9.43012 21.6364 16.7811 -1.88603 5.32673 56.6999
6751303 8.87876 9.40249 21.7053 16.8191 -1.91987 5.34537 56.8057
6751311 8.87876 9.40249 21.7053 16.8191 -1.91987 5.34537 56.8057
6751317 8.91399 9.46696 21.6364 16.8572 -1.85768 5.30448 56.8745
6751326 8.9228 9.43012 21.6462 16.8382 -1.89167 5.31292 56.8373
6751336 8.9228 9.43012 21.6462 16.8382 -1.89167 5.31292 56.8373
6751346 8.94922 9.44854 21.6265 16.7335 -1.9353 5.27564 56.7578
6751356 8.94922 9.44854 21.6265 16.7335 -1.9353 5.27564 56.7578
6751366 8.91399 9.42091 21.5675 16.762 -1.89648 5.2929 56.6644
6751376 9.00207 9.45775 21.5379 16.743 -1.91188 5.23991 56.7408
6751396 8.98446 9.49458 21.4887 16.6954 -1.88975 5.21637 56.6632
6751407 8.89637 9.45775 21.4493 16.6954 -1.85515 5.25425 56.4989
6751417 8.89637 9.45775 21.4493 16.6954 -1.85515 5.25425 56.4989
6751428 8.98446 9.48537 21.4198 16.724 -1.85243 5.21269 56.6136
6751437 8.98446 9.48537 21.4198 16.724 -1.85243 5.21269 56.6136
6751448 8.9228 9.44854 21.4395 16.8001 -1.81663 5.26442 56.6109
6751457 8.94041 9.43933 21.5871 16.8667 -1.85695 5.29813 56.8336
6751477 8.9228 9.44854 21.5675 16.8858 -1.82841 5.30102 56.8246
6751487 8.87876 9.49458 21.5478 16.8763 -1.78516 5.29532 56.7974
6751497 8.87876 9.49458 21.5478 16.8763 -1.78516 5.29532 56.7974
6751508 8.91399 9.42091 21.5576 16.9429 -1.80689 5.32211 56.8354
6751517 8.91399 9.42091 21.5576 16.9429 -1.80689 5.32211 56.8354
6751527 8.79948 9.37486 21.5478 16.9905 -1.7553 5.38608 56.7126
6751537 8.79948 9.35645 21.4986 17.0292 -1.72552 5.39093 56.6837
6751550 8.79948 9.35645 21.4986 17.0292 -1.72552 5.39093 56.6837
6751557 8.75544 9.34724 21.5576 17.0682 -1.71767 5.42667 56.7285
6751568 8.72902 9.27356 21.5478 17.2046 -1.67326 5.48405 56.7549
6751578 8.72902 9.27356 21.5478 17.2046 -1.67326 5.48405 56.7549
6751588 8.72021 9.28277 21.6954 17.2338 -1.71214 5.51347 56.9322
6751608 8.63212 9.1078 21.7053 17.3994 -1.68449 5.63768 56.8446
6751619 8.62332 9.15385 21.6954 17.5358 -1.59147 5.64498 57.0084
6751628 8.62332 9.15385 21.6954 17.5358 -1.59147 5.64498 57.0084
6751641 8.52642 9.02492 21.7545 17.5748 -1.61795 5.74306 56.8806
6751648 8.48238 8.93283 21.7545 17.6332 -1.61559 5.8023 56.8029
6751658 8.48238 8.93283 21.7545 17.6332 -1.61559 5.8023 56.8029
6751668 8.43834 8.9052 21.6954 17.5358 -1.6318 5.80321 56.5748
6751688 8.3943 8.88678 21.6954 17.6235 -1.58103 5.84042 56.6
6751698 8.46477 8.9052 21.7742 17.7501 -1.57468 5.84092 56.8943
6751711 8.46477 8.9052 21.7742 17.7501 -1.57468 5.84092 56.8943
6751718 8.41192 8.95125 21.7151 17.6917 -1.5343 5.82446 56.77
6751728 8.35907 8.9052 21.725 17.7696 -1.50161 5.87494 56.7589
6751738 8.35907 8.9052 21.725 17.7696 -1.50161 5.87494 56.7589
6751749 8.38549 8.98808 21.7348 17.7696 -1.47798 5.8364 56.878
6751758 8.38549 8.98808 21.7348 17.7696 -1.47798 5.8364 56.878
6751770 8.40311 8.96045 21.6265 17.7696 -1.4533 5.8226 56.7597
6751779 8.41192 9.01571 21.6167 17.8476 -1.39094 5.81013 56.8919
6751791 8.41192 9.01571 21.6167 17.8476 -1.39094 5.81013 56.8919
6751799 8.42073 9.0065 21.4986 17.7696 -1.38598 5.7785 56.6954
6751811 8.37668 9.02492 21.3804 17.7794 -1.30514 5.77024 56.5614
6751830 8.41192 9.1078 21.3411 17.7599 -1.27395 5.71732 56.6207
6751852 8.38549 9.13543 21.2032 17.7599 -1.19212 5.69423 56.484
6751859 8.43834 9.13543 21.1934 17.8573 -1.16513 5.68931 56.6245
6751873 8.43834 9.13543 21.1934 17.8573 -1.16513 5.68931 56.6245
6751879 8.45596 9.21831 21.1639 17.8768 -1.1129 5.651 56.7149
6751891 8.46477 9.25515 21.0457 17.906 -1.03638 5.6197 56.6717
6751901 8.46477 9.25515 21.0457 17.906 -1.03638 5.6197 56.6717
6751911 8.51762 9.27356 21.0654 17.8963 -1.06304 5.59545 56.7529
6751921 8.51762 9.27356 21.0654 17.8963 -1.06304 5.59545 56.7529
6751930 8.55285 9.34724 21.0654 17.984 -1.004 5.57054 56.9495
6751951 8.52642 9.45775 21.0064 17.9158 -0.948615 5.51906 56.9063
6751960 8.58808 9.46696 20.8489 17.9352 -0.894961 5.47046 56.8391
6751972 8.59689 9.45775 20.7209 17.9352 -0.848518 5.4491 56.7108
6751982 8.59689 9.45775 20.7209 17.9352 -0.848518 5.4491 56.7108
6751992 8.63212 9.53142 20.6225 17.9158 -0.796893 5.38996 56.7018
6752012 8.64974 9.55905 20.5437 17.8963 -0.767066 5.35701 56.6488
6752023 8.70259 9.54063 20.4158 17.867 -0.756583 5.31779 56.526
6752032 8.70259 9.54063 20.4158 17.867 -0.756583 5.31779 56.526
6752042 8.77306 9.58667 20.3567 17.7989 -0.771567 5.2541 56.5153
6752052 8.75544 9.62351 20.3468 17.8281 -0.729701 5.25056 56.5539
6752072 8.86114 9.64193 20.2583 17.906 -0.693277 5.20437 56.6673
6752082 8.86114 9.64193 20.2583 17.906 -0.693277 5.20437 56.6673
6752092 8.84352 9.62351 20.2484 17.9352 -0.67659 5.22058 56.6507
6752102 8.94041 9.69718 20.2287 17.9937 -0.649954 5.16659 56.86
6752114 8.94041 9.69718 20.2287 17.9937 -0.649954 5.16659 56.86
6752123 8.88756 9.6143 20.1401 17.9547 -0.644323 5.19279 56.5967
6752134 8.94041 9.63272 20.0614 17.984 -0.611605 5.15879 56.6185
6752143 8.94041 9.63272 20.0614 17.984 -0.611605 5.15879 56.6185
6752153 8.97565 9.67877 20.0122 17.9742 -0.589165 5.11962 56.6408
6752163 8.97565 9.67877 20.0122 17.9742 -0.589165 5.11962 56.6408
6752176 9.0285 9.78006 19.9531 17.8768 -0.584733 5.03756 56.6385
6752183 9.0285 9.79848 19.9039 17.867 -0.559582 5.02067 56.5979
6752203 9.1342 9.82611 19.8251 17.8378 -0.571936 4.95449 56.6233
6752213 9.12539 9.80769 19.8251 17.8865 -0.554462 4.97272 56.6447
6752226 9.12539 9.80769 19.8251 17.8865 -0.554462 4.97272 56.6447
6752236 9.18705 9.88136 19.6775 17.867 -0.492869 4.89538 56.6129
6752246 9.18705 9.88136 19.6775 17.867 -0.492869 4.89538 56.6129
6752254 9.18705 9.89057 19.6873 17.8476 -0.501755 4.89042 56.6125
6752267 9.25751 9.85374 19.6381 17.867 -0.518766 4.8733 56.6164
6752284 9.30155 9.85374 19.5692 17.8378 -0.521192 4.84025 56.5623
6752294 9.28394 9.88136 19.6283 17.8086 -0.539836 4.8421 56.6022
6752304 9.28394 9.88136 19.6283 17.8086 -0.539836 4.8421 56.6022
6752314 9.32798 9.89057 19.6381 17.8768 -0.528222 4.83745 56.7334
6752334 9.31036 9.88136 19.5889 17.8183 -0.529842 4.82752 56.5989
6752346 9.39845 9.9182 19.5692 17.8865 -0.512092 4.79258 56.7724
6752356 9.39845 9.9182 19.5692 17.8865 -0.512092 4.79258 56.7724
6752366 9.38964 9.88136 19.5987 17.906 -0.528827 4.81731 56.7757
6752376 9.38964 9.93662 19.5495 17.867 -0.500272 4.78218 56.7428
6752396 9.40725 9.93662 19.52 17.8183 -0.517038 4.76193 56.6822
6752406 9.40725 9.93662 19.52 17.8183 -0.517038 4.76193 56.6822
6752416 9.41606 9.82611 19.5101 17.7989 -0.575243 4.79216 56.5512
6752426 9.40725 9.9182 19.4904 17.7891 -0.525743 4.75773 56.605
6752436 9.40725 9.9182 19.4904 17.7891 -0.525743 4.75773 56.605
6752446 9.31917 9.87216 19.5101 17.8476 -0.490542 4.81875 56.549
6752458 9.36321 9.77086 19.5298 17.8086 -0.581512 4.83537 56.4725
6752468 9.36321 9.77086 19.5298 17.8086 -0.581512 4.83537 56.4725
6752478 9.30155 9.79848 19.5889 17.7599 -0.589946 4.84919 56.4488
6752497 9.2487 9.78927 19.6283 17.7891 -0.575046 4.88334 56.4553
6752508 9.25751 9.84453 19.7267 17.8865 -0.552383 4.89582 56.7153
6752519 9.25751 9.84453 19.7267 17.8865 -0.552383 4.89582 56.7153
6752527 9.25751 9.78927 19.6578 17.9352 -0.525594 4.91163 56.6398
6752541 9.19586 9.66035 19.7858 17.9158 -0.62127 4.99807 56.5577
6752549 9.19586 9.66035 19.7858 17.9158 -0.62127 4.99807 56.5577
6752562 9.18705 9.7156 19.7858 17.9352 -0.583661 4.98511 56.6236
6752571 9.16943 9.72481 19.7956 17.984 -0.554168 4.99842 56.6738
6752583 9.16943 9.72481 19.7956 17.984 -0.554168 4.99842 56.6738
6752588 9.23109 9.66035 19.7267 17.9937 -0.575736 4.98896 56.6118
6752599 9.23109 9.66035 19.7267 17.9937 -0.575736 4.98896 56.6118
6752608 9.22228 9.6143 19.7365 17.984 -0.601412 5.00837 56.5571
6752619 9.25751 9.54984 19.8448 18.0911 -0.643854 5.05661 56.7433
6752639 9.25751 9.53142 19.7956 18.1691 -0.595838 5.06815 56.7536
6752649 9.2399 9.46696 19.8547 18.2372 -0.611967 5.1194 56.7988
6752670 9.21347 9.39328 19.8251 18.286 -0.599176 5.15826 56.7178
6752681 9.21347 9.39328 19.8251 18.286 -0.599176 5.15826 56.7178
6752691 9.18705 9.32882 19.7562 18.286 -0.587226 5.17866 56.5581
6752701 9.17824 9.23673 19.8054 18.3834 -0.602244 5.24007 56.6038
6752711 9.17824 9.23673 19.8054 18.3834 -0.602244 5.24007 56.6038
6752721 9.16062 9.26436 19.7464 18.3347 -0.578688 5.21787 56.506
6752731 9.18705 9.25515 19.7562 18.3054 -0.611763 5.20835 56.5039
6752741 9.18705 9.25515 19.7562 18.3054 -0.611763 5.20835 56.5039
6752752 9.22228 9.3104 19.7759 18.3444 -0.592813 5.18621 56.653
6752761 9.22228 9.3104 19.7759 18.3444 -0.592813 5.18621 56.653
6752773 9.2487 9.28277 19.6479 18.2665 -0.596766 5.15085 56.4459
6752781 9.28394 9.34724 19.6775 18.3347 -0.564721 5.13237 56.6433
6752795 9.28394 9.34724 19.6775 18.3347 -0.564721 5.13237 56.6433
6752801 9.36321 9.37486 19.6086 18.2762 -0.583114 5.07217 56.6229
6752811 9.30155 9.48537 19.5889 18.2665 -0.502533 5.0497 56.6423
6752821 9.30155 9.48537 19.5889 18.2665 -0.502533 5.0497 56.6423
6752831 9.36321 9.50379 19.5889 18.1788 -0.560392 5.00594 56.6347
6752841 9.36321 9.50379 19.5889 18.1788 -0.560392 5.00594 56.6347
6752851 9.37202 9.47616 19.5397 18.2275 -0.53343 5.01251 56.6154
6752861 9.45129 9.513 19.4117 18.1009 -0.552939 4.92634 56.4769
6752872 9.45129 9.513 19.4117 18.1009 -0.552939 4.92634 56.4769
6752881 9.58342 9.63272 19.2345 18.0229 -0.514528 4.79197 56.4736
6752891 9.66269 9.60509 19.1065 17.9255 -0.55002 4.73294 56.2998
6752911 9.80363 9.68797 18.9983 17.945 -0.51782 4.63853 56.4348
6752921 9.80363 9.68797 18.9983 17.945 -0.51782 4.63853 56.4348
6752932 9.90052 9.77086 18.9195 17.867 -0.523455 4.54724 56.4579
6752942 10.0062 9.80769 18.9097 17.867 -0.548302 4.49619 56.5906
6752957 10.0062 9.80769 18.9097 17.867 -0.548302 4.49619 56.5906
6752962 10.1824 9.88136 18.7325 17.8183 -0.536595 4.36824 56.6146
6752981 10.1295 9.94583 18.7423 17.7599 -0.515287 4.35513 56.5776
6752984 10.1295 9.94583 18.7423 17.7599 -0.515287 4.35513 56.5776
6752994 10.2528 9.96425 18.6439 17.7696 -0.513355 4.29002 56.6306
6753007 10.2528 9.96425 18.6439 17.7696 -0.513355 4.29002 56.6306
6753012 10.2881 10.0287 18.5947 17.7014 -0.508988 4.23383 56.6129
6753022 10.385 10.0379 18.4076 17.6235 -0.50094 4.14715 56.454
6753034 10.385 10.0379 18.4076 17.6235 -0.50094 4.14715 56.454
6753043 10.4114 10.1024 18.3486 17.5943 -0.470862 4.09936 56.4566
6753055 10.4466 10.0655 18.2305 17.5845 -0.455827 4.07516 56.3272
6753073 10.4907 10.1484 18.132 17.4968 -0.434269 3.99599 56.268
6753101 10.5083 10.1392 18.0926 17.4676 -0.442152 3.97972 56.2078
6753105 10.5347 10.1208 18.1222 17.4579 -0.479327 3.9809 56.2356
6753114 10.5347 10.1208 18.1222 17.4579 -0.479327 3.9809 56.2356
6753124 10.5611 10.1761 18.1419 17.5553 -0.430432 3.97629 56.4344
6753134 10.5435 10.1576 18.1025 17.5358 -0.422686 3.97691 56.3395
6753146 10.5435 10.1576 18.1025 17.5358 -0.422686 3.97691 56.3395
6753154 10.5788 10.1853 18.1025 17.5163 -0.434372 3.95195 56.3828
6753169 10.5788 10.1853 18.1025 17.5163 -0.434372 3.95195 56.3828
6753177 10.5611 10.1761 18.1419 17.5456 -0.434823 3.97439 56.4246
6753191 10.5523 10.1668 18.1222 17.5358 -0.430956 3.9747 56.3772
6753194 10.5523 10.1668 18.1222 17.5358 -0.430956 3.9747 56.3772
6753206 10.614 10.2589 18.0631 17.5163 -0.399379 3.90768 56.4524
6753217 10.5611 10.2681 18.0926 17.5456 -0.371933 3.93384 56.4675
6753228 10.5611 10.2681 18.0926 17.5456 -0.371933 3.93384 56.4675
6753240 10.5435 10.2497 18.1025 17.5456 -0.376819 3.94785 56.4413
6753244 10.5435 10.2497 18.1025 17.5456 -0.376819 3.94785 56.4413
6753255 10.5259 10.1761 18.1419 17.5553 -0.415082 3.98815 56.3991
6753265 10.4202 10.2129 18.1911 17.643 -0.334449 4.038 56.4672
6753284 10.4642 10.2221 18.2009 17.6332 -0.358205 4.02008 56.5205
6753296 10.4466 10.1945 18.2698 17.5943 -0.410458 4.04113 56.5052
6753306 10.4466 10.1945 18.2698 17.5943 -0.410458 4.04113 56.5052
6753316 10.3938 10.1668 18.2994 17.6625 -0.382076 4.08719 56.5225
6753326 10.3938 10.1668 18.2994 17.6625 -0.382076 4.08719 56.5225
6753336 10.3145 10.13 18.2797 17.604 -0.381765 4.1114 56.3282
6753346 10.3409 10.1668 18.2403 17.6625 -0.333236 4.09364 56.4105
6753368 10.3057 10.1668 18.2305 17.6625 -0.31351 4.10368 56.3655
6753376 10.3497 10.1761 18.26 17.6722 -0.337183 4.09324 56.458
6753399 10.2793 10.0932 18.3289 17.7112 -0.356223 4.166 56.4125
6753421 10.2793 10.0932 18.3289 17.7112 -0.356223 4.166 56.4125
6753424 10.2793 10.1761 18.3683 17.7112 -0.336215 4.14544 56.5348
6753427 10.2264 10.1576 18.3978 17.7989 -0.295036 4.19204 56.5807
6753447 10.2176 10.1576 18.3781 17.8476 -0.260828 4.20057 56.6009
6753457 10.2 10.1484 18.3486 17.8476 -0.244313 4.20404 56.5446
6753477 10.1736 10.1853 18.388 17.7989 -0.255285 4.19872 56.5457
6753497 10.2 10.1484 18.2698 17.7891 -0.235914 4.17778 56.4074
6753508 10.2088 10.13 18.3486 17.7599 -0.295629 4.19054 56.4473
6753527 10.1207 10.1392 18.3486 17.7696 -0.248526 4.21926 56.3782
6753537 10.1383 10.1024 18.3781 17.7891 -0.276983 4.23517 56.408
6753548 10.1383 10.1024 18.3781 17.7891 -0.276983 4.23517 56.408
6753558 10.1648 10.13 18.4273 17.7891 -0.297716 4.22615 56.5112
6753568 10.1648 10.13 18.4273 17.7891 -0.297716 4.22615 56.5112
6753578 10.156 10.1024 18.4569 17.8086 -0.310417 4.24789 56.5238
6753588 10.1295 10.1668 18.4175 17.8378 -0.239758 4.23301 56.5517
6753598 10.1295 10.1668 18.4175 17.8378 -0.239758 4.23301 56.5517
6753609 10.1383 10.1208 18.4864 17.7891 -0.316098 4.24953 56.5346
6753618 10.1295 10.1484 18.4962 17.8963 -0.256336 4.26533 56.6705
6753632 10.1295 10.1484 18.4962 17.8963 -0.256336 4.26533 56.6705
6753638 10.2 10.1853 18.5258 17.8768 -0.292189 4.23083 56.7878
6753648 10.2 10.1853 18.5258 17.8768 -0.292189 4.23083 56.7878
6753658 10.1648 10.1208 18.4569 17.8573 -0.284241 4.24788 56.5997
6753668 10.1119 10.13 18.4569 17.7696 -0.296247 4.24606 56.4684
6753688 10.1295 10.1484 18.3978 17.7891 -0.261131 4.22624 56.4649
6753698 10.0855 10.1761 18.3781 17.7696 -0.229537 4.22436 56.4093
6753720 10.1383 10.1668 18.3092 17.7307 -0.24405 4.18883 56.3451
6753735 10.1383 10.1668 18.3092 17.7307 -0.24405 4.18883 56.3451
6753739 10.1472 10.1668 18.3289 17.7501 -0.247839 4.19335 56.393
6753749 10.0943 10.2037 18.2895 17.7794 -0.17775 4.19685 56.3669
6753760 10.0943 10.2037 18.2895 17.7794 -0.17775 4.19685 56.3669
6753769 10.1295 10.2681 18.3486 17.7891 -0.186104 4.17615 56.5354
6753780 10.0767 10.2958 18.3092 17.7404 -0.154956 4.16782 56.4221
6753801 10.1207 10.3418 18.2994 17.7891 -0.127831 4.14473 56.551
6753813 10.1207 10.3418 18.2994 17.7891 -0.127831 4.14473 56.551
6753822 10.0679 10.2774 18.2698 17.7794 -0.124563 4.177 56.3944
6753831 10.1119 10.4063 18.3486 17.7404 -0.138594 4.12601 56.6072
6753851 10.0943 10.3879 18.319 17.7014 -0.143379 4.12502 56.5026
6753868 10.1383 10.3787 18.3092 17.6527 -0.184214 4.10196 56.4789
6753871 10.1383 10.3787 18.3092 17.6527 -0.184214 4.10196 56.4789
6753882 10.1472 10.4247 18.3781 17.643 -0.202139 4.09483 56.5929
6753892 10.1472 10.4247 18.3781 17.643 -0.202139 4.09483 56.5929
6753902 10.1031 10.4339 18.3289 17.6722 -0.1441 4.10274 56.5381
6753912 10.1472 10.4339 18.388 17.5358 -0.250147 4.07294 56.5048
6753923 10.1472 10.4339 18.388 17.5358 -0.250147 4.07294 56.5048
6753932 10.1031 10.4247 18.3781 17.4871 -0.25243 4.0796 56.393
6753942 10.1295 10.4247 18.388 17.4774 -0.2727 4.07068 56.4196
6753953 10.1295 10.4247 18.388 17.4774 -0.2727 4.07068 56.4196
6753962 10.1736 10.4523 18.4175 17.4579 -0.301254 4.04844 56.5013
6753976 10.1736 10.4523 18.4175 17.4579 -0.301254 4.04844 56.5013
6753982 10.1472 10.4247 18.4864 17.4189 -0.349668 4.07247 56.4772
6753992 10.1648 10.4155 18.575 17.4287 -0.395699 4.08863 56.5839
6754012 10.1824 10.3602 18.5159 17.4287 -0.402489 4.08994 56.4872
6754023 10.0767 10.2958 18.6537 17.4579 -0.432317 4.17972 56.4841
6754032 10.0767 10.2958 18.6537 17.4579 -0.432317 4.17972 56.4841
6754045 10.0767 10.3602 18.6734 17.4968 -0.394394 4.16909 56.6072
6754053 9.96218 10.2681 18.7522 17.5748 -0.385191 4.26911 56.5573
6754063 9.96218 10.2681 18.7522 17.5748 -0.385191 4.26911 56.5573
6754073 9.89171 10.2681 18.8309 17.5748 -0.388797 4.30806 56.5656
6754083 9.89171 10.2681 18.8309 17.5748 -0.388797 4.30806 56.5656
6754094 9.84767 10.2221 18.8605 17.5553 -0.411926 4.34075 56.4855
6754166 9.80363 10.1945 18.8998 17.4774 -0.457478 4.35805 56.3753
6754169 9.80363 10.1945 18.8998 17.4774 -0.457478 4.35805 56.3753
6754170 9.81244 10.2037 18.9786 17.5261 -0.469406 4.37588 56.5208
6754171 9.79482 10.1945 18.9294 17.4774 -0.466494 4.36665 56.396
6754172 9.83886 10.1853 19.0081 17.4579 -0.532757 4.36586 56.4901
6754173 9.83886 10.1853 19.0081 17.4579 -0.532757 4.36586 56.4901
6754175 9.82124 10.1392 19.0376 17.4579 -0.558744 4.39326 56.456
6754186 9.85648 10.2313 19.0278 17.4092 -0.550109 4.33859 56.5247
6754206 9.83886 10.13 19.077 17.4189 -0.605223 4.39045 56.4648
6754217 9.83005 10.1853 19.1656 17.3702 -0.636677 4.382 56.5511
6754225 9.83005 10.1853 19.1656 17.3702 -0.636677 4.382 56.5511
6754237 9.79482 10.1668 19.0967 17.3702 -0.600082 4.38747 56.4286
6754252 9.79482 10.1668 19.0967 17.3702 -0.600082 4.38747 56.4286
6754256 9.80363 10.1761 19.1951 17.4189 -0.620121 4.40889 56.5937
6754266 9.85648 10.1853 19.205 17.3994 -0.651748 4.38582 56.6461
6754278 9.85648 10.1853 19.205 17.3994 -0.651748 4.38582 56.6461
6754286 9.89171 10.1853 19.2444 17.3897 -0.688188 4.37933 56.711
6754303 9.7772 10.1761 19.264 17.3507 -0.669315 4.41809 56.568
6754316 9.84767 10.1761 19.2444 17.3702 -0.682297 4.39389 56.6383
6754328 9.84767 10.1761 19.2444 17.3702 -0.682297 4.39389 56.6383
6754337 9.83886 10.1761 19.1459 17.302 -0.667128 4.36562 56.4628
6754352 9.87409 10.2037 19.1459 17.3215 -0.660902 4.34775 56.5452
6754367 9.90052 10.1853 19.1164 17.2143 -0.716683 4.3192 56.4165
6754379 9.85648 10.1761 19.0475 17.1559 -0.698853 4.3133 56.2359
6754387 9.85648 10.1761 19.0475 17.1559 -0.698853 4.3133 56.2359
6754397 9.87409 10.1853 19.0869 17.1559 -0.719251 4.31157 56.3021
6754407 9.87409 10.1853 19.0869 17.1559 -0.719251 4.31157 56.3021
6754419 9.83886 10.1945 19.0672 17.1948 -0.673552 4.32416 56.2953
6754427 9.90052 10.2037 19.1262 17.2338 -0.703654 4.31844 56.4642
6754443 9.90052 10.2037 19.1262 17.2338 -0.703654 4.31844 56.4642
6754448 9.92694 10.2313 19.0869 17.1948 -0.703244 4.28512 56.44
6754458 9.94456 10.2129 19.1065 17.2436 -0.705504 4.29836 56.5075
6754468 9.94456 10.2129 19.1065 17.2436 -0.705504 4.29836 56.5075
6754478 9.96218 10.2221 19.077 17.2046 -0.713928 4.27621 56.4659
6754488 9.96218 10.2221 19.077 17.2046 -0.713928 4.27621 56.4659
6754508 9.95337 10.2681 19.1459 17.1461 -0.745399 4.26549 56.5136
6754510 9.99741 10.2405 19.1361 17.1948 -0.750466 4.26727 56.5688
6754519 9.99741 10.2405 19.1361 17.1948 -0.750466 4.26727 56.5688
6754533 9.97098 10.2313 19.1656 17.1461 -0.778191 4.27578 56.514
6754539 9.97979 10.2589 19.0573 17.1266 -0.731769 4.23905 56.4227
6754551 9.97979 10.2589 19.0573 17.1266 -0.731769 4.23905 56.4227
6754559 9.97979 10.305 19.1361 17.1364 -0.740179 4.24022 56.5572
6754569 9.97979 10.305 19.1361 17.1364 -0.740179 4.24022 56.5572
6754586 9.9886 10.305 19.0672 17.0487 -0.75434 4.20735 56.4095
6754589 9.96218 10.2681 19.1361 17.1461 -0.744954 4.26062 56.5125
6754599 9.96218 10.2681 19.1361 17.1461 -0.744954 4.26062 56.5125
6754610 10.0326 10.2958 19.0869 17.1169 -0.7548 4.21229 56.5322
6754624 10.015 10.3234 19.077 17.0779 -0.748186 4.19957 56.4934
6754631 10.015 10.3234 19.077 17.0779 -0.748186 4.19957 56.4934
6754639 10.0062 10.2681 19.077 17.0974 -0.760716 4.22508 56.4488
6754653 10.0062 10.2681 19.077 17.0974 -0.760716 4.22508 56.4488
6754661 9.97979 10.2774 19.1065 17.1754 -0.722344 4.25142 56.5391
6754671 10.0326 10.2497 19.1164 17.1364 -0.779565 4.23729 56.5351
6754681 10.0326 10.2497 19.1164 17.1364 -0.779565 4.23729 56.5351
6754691 9.97979 10.2681 19.1361 17.0877 -0.77917 4.24349 56.4717
6754701 9.97979 10.2313 19.077 17.1656 -0.735062 4.25964 56.4537
6754723 9.97979 10.2958 19.1459 17.1266 -0.753026 4.24338 56.5481
6754745 9.90933 10.2129 19.205 17.1656 -0.768149 4.31428 56.4928
6754750 9.93575 10.2958 19.0967 17.2533 -0.655417 4.27307 56.5815
6754762 9.93575 10.2958 19.0967 17.2533 -0.655417 4.27307 56.5815
6754772 9.93575 10.2497 19.1951 17.1851 -0.749595 4.2945 56.5657
6754782 9.86528 10.1853 19.1656 17.2436 -0.709388 4.34609 56.4597
6754792 9.86528 10.1853 19.1656 17.2436 -0.709388 4.34609 56.4597
6754802 9.87409 10.2129 19.2837 17.3312 -0.711484 4.37233 56.702
6754813 9.87409 10.2129 19.2837 17.3312 -0.711484 4.37233 56.702
6754823 9.85648 10.084 19.2739 17.3117 -0.767188 4.41704 56.5261
6754835 9.78601 10.1208 19.2936 17.3215 -0.724185 4.4341 56.5219
6754852 9.75959 10.0748 19.3231 17.2923 -0.759824 4.45911 56.4497
6754862 9.71554 10.084 19.3329 17.3215 -0.727598 4.47841 56.4539
6754872 9.71554 10.084 19.3329 17.3215 -0.727598 4.47841 56.4539
6754882 9.71554 10.13 19.4609 17.341 -0.752671 4.48996 56.6474
6754905 9.64508 10.0379 19.5298 17.3897 -0.771737 4.56778 56.6025
6754912 9.63627 10.0471 19.6676 17.3994 -0.818208 4.59476 56.7505
6754926 9.63627 10.0471 19.6676 17.3994 -0.818208 4.59476 56.7505
6754933 9.5658 10.0103 19.7365 17.3702 -0.847632 4.63914 56.6828
6754943 9.44249 10.0748 19.7759 17.3994 -0.769155 4.67206 56.6926
6754963 9.39845 10.0287 19.7858 17.3897 -0.779912 4.70339 56.6026
6754974 9.39845 10.0287 19.7858 17.3897 -0.779912 4.70339 56.6026
6754983 9.44249 10.0287 19.7759 17.3215 -0.825633 4.67385 56.5686
6754993 9.44249 10.0563 19.7169 17.341 -0.778876 4.65701 56.5566
6755004 9.44249 10.0563 19.7169 17.341 -0.778876 4.65701 56.5566
6755014 9.46891 10.0932 19.579 17.302 -0.732051 4.60258 56.4431
6755024 9.49534 10.0655 19.5889 17.302 -0.760235 4.60482 56.4518
6755034 9.49534 10.0655 19.5889 17.302 -0.760235 4.60482 56.4518
6755044 9.49534 10.1116 19.579 17.341 -0.71727 4.5942 56.5269
6755056 9.44249 10.1024 19.5889 17.3215 -0.711843 4.61397 56.4552
6755064 9.44249 10.1024 19.5889 17.3215 -0.711843 4.61397 56.4552
6755077 9.50414 10.1392 19.6381 17.3117 -0.747119 4.58708 56.5932
6755094 9.53938 10.1024 19.5397 17.3117 -0.736776 4.56949 56.4932
6755107 9.49534 10.1208 19.579 17.3702 -0.699797 4.59639 56.5654
6755132 9.54819 10.1668 19.5987 17.1948 -0.7898 4.53344 56.5086
6755143 9.55699 10.2405 19.5889 17.263 -0.724775 4.51577 56.6494
6755154 9.55699 10.2405 19.5889 17.263 -0.724775 4.51577 56.6494
6755159 9.57461 10.2958 19.5594 17.2241 -0.712274 4.47799 56.6538
6755167 9.57461 10.2958 19.5594 17.2241 -0.712274 4.47799 56.6538
6755179 9.60104 10.3694 19.5692 17.1754 -0.716488 4.43641 56.715
6755187 9.54819 10.4247 19.5101 17.1461 -0.656681 4.41911 56.6292
6755197 9.54819 10.4247 19.5101 17.1461 -0.656681 4.41911 56.6292
6755207 9.58342 10.4063 19.5003 17.0974 -0.698037 4.40239 56.5874
6755220 9.52176 10.4615 19.392 17.1364 -0.582111 4.39159 56.5117
6755227 9.52176 10.4615 19.392 17.1364 -0.582111 4.39159 56.5117
6755242 9.52176 10.4892 19.4412 17.1559 -0.582053 4.395 56.608
6755247 9.52176 10.4892 19.4412 17.1559 -0.582053 4.395 56.608
6755258 9.49534 10.4523 19.4215 17.0974 -0.605281 4.40206 56.4666
6755268 9.54819 10.4247 19.4117 17.1266 -0.623122 4.39703 56.5112
6755278 9.54819 10.4247 19.4117 17.1266 -0.623122 4.39703 56.5112
6755289 9.49534 10.4339 19.5003 17.1266 -0.634356 4.42861 56.5562
6755298 9.49534 10.351 19.5594 17.1461 -0.688539 4.47177 56.5518
6755308 9.49534 10.351 19.5594 17.1461 -0.688539 4.47177 56.5518
6755318 9.52176 10.4063 19.6381 17.1754 -0.695355 4.46378 56.7415
6755328 9.52176 10.4063 19.6381 17.1754 -0.695355 4.46378 56.7415
6755338 9.40725 10.3602 19.6479 17.1656 -0.67573 4.51902 56.5811
6755351 9.38964 10.3694 19.6381 17.2436 -0.624435 4.53452 56.6407
6755358 9.38964 10.3694 19.6381 17.2436 -0.624435 4.53452 56.6407
6755368 9.40725 10.351 19.6775 17.2533 -0.652863 4.54386 56.6891
6755378 9.3456 10.2589 19.7169 17.2728 -0.676186 4.60783 56.5942
6755389 9.3456 10.2589 19.7169 17.2728 -0.676186 4.60783 56.5942
6755398 9.36321 10.2129 19.7562 17.3215 -0.699447 4.63383 56.6538
6755409 9.36321 10.2129 19.7562 17.3215 -0.699447 4.63383 56.6538
6755419 9.33679 10.1945 19.7956 17.2923 -0.726631 4.65124 56.6191
6755430 9.3456 10.1668 19.9236 17.3312 -0.779976 4.68818 56.7672
6755441 9.3456 10.1668 19.9236 17.3312 -0.779976 4.68818 56.7672
6755449 9.27513 10.1484 19.8743 17.2533 -0.77264 4.69594 56.5512
6755462 9.2487 10.0932 19.8547 17.3605 -0.729236 4.74032 56.557
6755469 9.2487 10.0932 19.8547 17.3605 -0.729236 4.74032 56.557
6755479 9.29275 10.084 19.8251 17.3312 -0.752957 4.7175 56.5331
6755491 9.29275 10.084 19.8251 17.3312 -0.752957 4.7175 56.5331
6755499 9.2487 10.0379 19.9137 17.3117 -0.801934 4.76151 56.5121
6755509 9.29275 9.96425 19.9531 17.3897 -0.835654 4.79307 56.5998
6755519 9.29275 9.96425 19.9531 17.3897 -0.835654 4.79307 56.5998
6755530 9.26632 10.0011 20.0417 17.4384 -0.823179 4.81414 56.7475
6755539 9.17824 9.89057 20.0318 17.4092 -0.845137 4.87673 56.5098
6755552 9.17824 9.89057 20.0318 17.4092 -0.845137 4.87673 56.5098
6755559 9.19586 9.93662 20.1598 17.4676 -0.859511 4.88768 56.7599
6755579 9.15181 9.9182 20.1893 17.4871 -0.852852 4.91831 56.7465
6755597 9.11658 9.83532 20.3173 17.5358 -0.907825 4.99108 56.805
6755602 9.11658 9.83532 20.3173 17.5358 -0.907825 4.99108 56.805
6755611 9.18705 9.8169 20.3075 17.565 -0.928579 4.9762 56.8765
6755621 9.1342 9.78927 20.2976 17.5163 -0.936869 4.99418 56.7374
6755631 9.1342 9.78927 20.2976 17.5163 -0.936869 4.99418 56.7374
6755643 9.10777 9.78006 20.2779 17.4774 -0.939339 4.9964 56.6431
6755651 9.10777 9.78006 20.2779 17.4774 -0.939339 4.9964 56.6431
6755661 9.07254 9.70639 20.3272 17.4287 -1.00144 5.03501 56.5347
6755671 9.11658 9.69718 20.3567 17.4287 -1.03687 5.02788 56.5991
6755681 9.11658 9.69718 20.3567 17.4287 -1.03687 5.02788 56.5991
6755693 9.0285 9.67877 20.3272 17.3702 -1.02239 5.05014 56.4046
6755701 9.04611 9.68797 20.3764 17.3897 -1.03753 5.05272 56.5002
6755711 9.04611 9.68797 20.3764 17.3897 -1.03753 5.05272 56.5002
6755721 9.09016 9.7156 20.4551 17.3994 -1.07229 5.04289 56.6603
6755741 9.06373 9.63272 20.4256 17.3702 -1.10033 5.07132 56.4922
6755752 9.12539 9.58667 20.4256 17.3117 -1.17475 5.05549 56.4494
6755772 9.16062 9.66035 20.5043 17.2923 -1.19766 5.02732 56.6176
6755782 9.12539 9.7156 20.5339 17.1948 -1.21479 5.00826 56.5697
6755794 9.12539 9.7156 20.5339 17.1948 -1.21479 5.00826 56.5697
6755802 9.20466 9.66956 20.5142 17.2241 -1.24761 4.9982 56.6125
6755823 9.25751 9.68797 20.5634 17.1754 -1.30441 4.97315 56.6842
6755833 9.3456 9.70639 20.5043 17.2338 -1.28092 4.93558 56.7901
6755846 9.3456 9.70639 20.5043 17.2338 -1.28092 4.93558 56.7901
6755853 9.36321 9.69718 20.465 17.1072 -1.33485 4.90312 56.6325
6755863 9.31036 9.67877 20.5142 17.0487 -1.36913 4.92655 56.552
6755883 9.36321 9.68797 20.5142 17.0097 -1.40507 4.89776 56.5751
6755894 9.36321 9.68797 20.5142 17.0097 -1.40507 4.89776 56.5751
6755904 9.42487 9.72481 20.465 17.0877 -1.3568 4.86831 56.7023
6755914 9.38083 9.73402 20.4453 17.0292 -1.35311 4.86655 56.5894
6755924 9.38083 9.73402 20.4453 17.0292 -1.35311 4.86655 56.5894
6755934 9.38083 9.69718 20.4748 17 -1.39624 4.87954 56.5528
6755945 9.40725 9.7156 20.4059 16.9905 -1.37435 4.84973 56.5192
6755956 9.40725 9.7156 20.4059 16.9905 -1.37435 4.84973 56.5192
6755964 9.47772 9.69718 20.4059 17.0195 -1.39883 4.83668 56.6003
6755974 9.47772 9.69718 20.4059 17.0195 -1.39883 4.83668 56.6003
6755985 9.41606 9.7156 20.4256 16.9524 -1.40403 4.84333 56.5097
6755997 9.42487 9.68797 20.5043 17.0097 -1.42666 4.87433 56.6269
6756004 9.42487 9.68797 20.5043 17.0097 -1.42666 4.87433 56.6269
6756016 9.45129 9.72481 20.4748 17.039 -1.39457 4.8521 56.6899
6756024 9.48653 9.76165 20.4158 16.981 -1.39451 4.80587 56.6449
6756034 9.48653 9.76165 20.4158 16.981 -1.39451 4.80587 56.6449
6756044 9.41606 9.70639 20.4158 16.981 -1.39088 4.84993 56.5192
6756060 9.41606 9.70639 20.4158 16.981 -1.39088 4.84993 56.5192
6756068 9.44249 9.7156 20.4158 16.9714 -1.40206 4.83571 56.5453
6756074 9.47772 9.67877 20.3862 16.9714 -1.42165 4.83096 56.5142
6756084 9.47772 9.67877 20.3862 16.9714 -1.42165 4.83096 56.5142
6756094 9.45129 9.76165 20.4551 16.981 -1.39623 4.82527 56.649
6756106 9.37202 9.7156 20.4354 17.0097 -1.36297 4.87086 56.5328
6756118 9.37202 9.7156 20.4354 17.0097 -1.36297 4.87086 56.5328
6756126 9.40725 9.75244 20.4256 17.0585 -1.33376 4.85253 56.6437
6756138 9.40725 9.75244 20.4256 17.0585 -1.33376 4.85253 56.6437
6756146 9.36321 9.77086 20.4256 17.0682 -1.30226 4.86326 56.6279
6756159 9.3544 9.77086 20.3862 17.0974 -1.2685 4.86453 56.6089
6756166 9.3544 9.77086 20.3862 17.0974 -1.2685 4.86453 56.6089
6756176 9.31917 9.78006 20.465 17.0779 -1.2915 4.88426 56.6421
6756186 9.32798 9.78927 20.4748 17.0877 -1.29051 4.88144 56.6797
6756196 9.32798 9.78927 20.4748 17.0877 -1.29051 4.88144 56.6797
6756206 9.38083 9.72481 20.4059 17.1851 -1.26851 4.8906 56.6966
6756217 9.38083 9.72481 20.4059 17.1851 -1.26851 4.8906 56.6966
6756226 9.32798 9.74323 20.4158 17.1461 -1.26003 4.89749 56.6331
6756236 9.30155 9.78006 20.524 17.2241 -1.24119 4.92695 56.8297
6756257 9.30155 9.74323 20.4354 17.1754 -1.24366 4.91549 56.6556
6756267 9.25751 9.78006 20.4551 17.1754 -1.21639 4.92153 56.6681
6756287 9.29275 9.77086 20.4551 17.2143 -1.21741 4.91931 56.7331
6756297 9.29275 9.77086 20.4551 17.2143 -1.21741 4.91931 56.7331
6756307 9.26632 9.69718 20.3468 17.2046 -1.19942 4.93354 56.5149
6756318 9.26632 9.70639 20.4256 17.2241 -1.21924 4.94777 56.6224
6756327 9.26632 9.70639 20.4256 17.2241 -1.21924 4.94777 56.6224
6756337 9.19586 9.68797 20.4256 17.1754 -1.22074 4.97049 56.4848
6756347 9.22228 9.73402 20.465 17.2143 -1.209 4.95881 56.6356
6756357 9.22228 9.73402 20.465 17.2143 -1.209 4.95881 56.6356
6756374 9.16943 9.66035 20.4059 17.263 -1.17346 5.00166 56.4987
6756378 9.16943 9.66035 20.4059 17.263 -1.17346 5.00166 56.4987
6756389 9.12539 9.7156 20.4453 17.2436 -1.15493 5.00121 56.5298
6756398 9.12539 9.7156 20.4354 17.3702 -1.09231 5.02183 56.6466
6756432 9.14301 9.68797 20.4551 17.302 -1.15225 5.01682 56.5881
6756434 9.14301 9.76165 20.3468 17.3605 -1.0456 4.98198 56.612
6756451 9.17824 9.78006 20.2878 17.4092 -1.00467 4.96123 56.6553
6756474 9.17824 9.78006 20.2878 17.4092 -1.00467 4.96123 56.6553
6756478 9.18705 9.78006 20.3173 17.3799 -1.03431 4.95818 56.6644
6756480 9.21347 9.79848 20.2681 17.4384 -0.9894 4.94404 56.7184
6756489 9.21347 9.79848 20.2681 17.4384 -0.9894 4.94404 56.7184
6756499 9.18705 9.80769 20.1697 17.4481 -0.927743 4.93435 56.6125
6756510 9.11658 9.82611 20.1992 17.5066 -0.875166 4.96829 56.6485
6756521 9.11658 9.82611 20.1992 17.5066 -0.875166 4.96829 56.6485
6756531 9.20466 9.85374 20.1893 17.4871 -0.904721 4.92238 56.7349
6756544 9.1342 9.85374 20.1303 17.5553 -0.818479 4.94878 56.6735
6756551 9.1342 9.8169 20.1303 17.5553 -0.83527 4.96175 56.6367
6756561 9.19586 9.87216 20.0909 17.5845 -0.806294 4.91883 56.7434
6756571 9.19586 9.87216 20.0909 17.5845 -0.806294 4.91883 56.7434
6756581 9.14301 9.84453 20.0023 17.5163 -0.789495 4.91923 56.5062
6756591 9.15181 9.82611 19.9531 17.5456 -0.76724 4.91905 56.4766
6756601 9.15181 9.82611 19.9531 17.5456 -0.76724 4.91905 56.4766
6756612 9.16062 9.92741 19.9728 17.5943 -0.711203 4.89251 56.6551
6756635 9.20466 9.85374 19.9433 17.6625 -0.719908 4.90981 56.6641
6756641 9.18705 9.89057 19.8842 17.643 -0.679134 4.88904 56.6048
6756651 9.18705 9.89057 19.8842 17.643 -0.679134 4.88904 56.6048
6756661 9.17824 9.87216 19.8645 17.5748 -0.706236 4.8829 56.4897
6756671 9.18705 9.89057 19.8743 17.6917 -0.652824 4.89598 56.6437
6756685 9.18705 9.89057 19.8743 17.6917 -0.652824 4.89598 56.6437
6756691 9.21347 9.90899 19.835 17.6722 -0.647737 4.86972 56.6296
6756711 9.16943 9.86295 19.8645 17.6625 -0.666788 4.90492 56.5593
6756721 9.14301 9.89978 19.8251 17.7014 -0.60409 4.90118 56.5694
6756732 9.14301 9.89978 19.8251 17.7014 -0.60409 4.90118 56.5694
6756742 9.15181 9.93662 19.8448 17.7404 -0.582109 4.89561 56.6737
6756753 9.14301 9.87216 19.9039 17.7794 -0.615256 4.93879 56.6984
6756762 9.14301 9.87216 19.9039 17.7794 -0.615256 4.93879 56.6984
6756777 9.09896 9.88136 19.8547 17.7891 -0.566521 4.94404 56.6241
6756782 9.09896 9.88136 19.8547 17.7891 -0.566521 4.94404 56.6241
6756792 9.10777 9.86295 19.8743 17.7599 -0.600338 4.94573 56.6049
6756802 9.08135 9.85374 19.9137 17.8768 -0.557306 4.98596 56.7256
6756822 8.97565 9.82611 19.9629 17.9352 -0.519064 5.05197 56.6999
6756834 8.97565 9.78927 20.0023 17.9352 -0.552642 5.0719 56.7025
6756852 8.9228 9.78927 20.0515 18.0424 -0.502875 5.11791 56.806
6756862 8.9228 9.78927 20.0515 18.0424 -0.502875 5.11791 56.806
6756875 8.85233 9.66035 20.1795 18.1009 -0.559323 5.22098 56.793
6756883 8.78187 9.62351 20.3173 18.2372 -0.543548 5.30615 56.9599
6756893 8.78187 9.62351 20.3173 18.2372 -0.543548 5.30615 56.9599
6756903 8.7114 9.54984 20.3665 18.1496 -0.606987 5.35113 56.7773
6756914 8.59689 9.54984 20.2681 18.1009 -0.537148 5.36724 56.5157
6756923 8.59689 9.54984 20.2681 18.1009 -0.537148 5.36724 56.5157
6756935 8.65855 9.56826 20.2779 18.1106 -0.555342 5.34177 56.6153
6756944 8.65855 9.56826 20.2779 18.1106 -0.555342 5.34177 56.6153
6756958 8.66736 9.65114 20.1204 18.0132 -0.497536 5.26512 56.4521
6756963 8.79067 9.66035 20.1401 18.0229 -0.550893 5.22274 56.6141
6756983 8.79067 9.65114 20.1106 17.945 -0.577524 5.20744 56.4974
6756993 8.8171 9.66035 20.0417 17.9742 -0.541757 5.18781 56.4933
6757013 8.86995 9.7156 20.1303 18.0814 -0.529628 5.18321 56.7972
6757027 8.86995 9.7156 20.1303 18.0814 -0.529628 5.18321 56.7972
6757034 8.82591 9.72481 20.1204 17.9937 -0.541714 5.17872 56.6649
6757049 8.82591 9.80769 20.1401 17.9255 -0.543588 5.14082 56.6992
6757056 8.82591 9.80769 20.1401 17.9255 -0.543588 5.14082 56.6992
6757064 8.84352 9.78927 20.0023 17.906 -0.508721 5.11368 56.5411
6757091 8.91399 9.78927 19.9925 17.9645 -0.508609 5.09714 56.6602
6757097 8.91399 9.78927 19.9925 17.9645 -0.508609 5.09714 56.6602
6757098 8.90518 9.78927 20.0023 17.8865 -0.544193 5.08835 56.5833
6757104 8.90518 9.78927 20.0023 17.8865 -0.544193 5.08835 56.5833
6757118 8.96684 9.83532 19.9039 17.906 -0.498737 5.03631 56.6121
6757124 8.95803 9.79848 19.9728 17.8768 -0.554511 5.05945 56.6061
6757144 8.93161 9.87216 19.9925 17.867 -0.52277 5.04447 56.6633
6757156 8.93161 9.80769 19.9925 17.8476 -0.560638 5.06388 56.5793
6757166 8.93161 9.80769 19.9925 17.8476 -0.560638 5.06388 56.5793
6757176 8.93161 9.88136 19.9137 17.8476 -0.493333 5.02392 56.5743
6757187 8.93161 9.88136 19.9137 17.8476 -0.493333 5.02392 56.5743
6757196 8.9228 9.87216 19.9433 17.8378 -0.510851 5.03379 56.576
6757210 8.93161 9.86295 19.9531 17.8768 -0.505508 5.04252 56.6244
6757216 8.93161 9.86295 19.9531 17.8768 -0.505508 5.04252 56.6244
6757226 8.98446 9.89978 19.8743 17.7599 -0.530417 4.97625 56.5185
6757236 8.96684 9.93662 19.894 17.7891 -0.501508 4.97813 56.5866
6757246 8.96684 9.93662 19.894 17.7891 -0.501508 4.97813 56.5866
6757256 8.98446 9.90899 19.9236 17.8281 -0.516792 4.99378 56.6451
6757266 8.98446 9.90899 19.9236 17.8281 -0.516792 4.99378 56.6451
6757277 8.97565 9.89057 19.9236 17.7891 -0.53886 4.99651 56.5789
6757286 8.99326 9.87216 19.9629 17.8378 -0.549811 5.01234 56.6662
6757300 8.99326 9.87216 19.9629 17.8378 -0.549811 5.01234 56.6662
6757306 8.95803 9.98267 20.0023 17.8183 -0.510624 4.9893 56.7614
6757316 8.99326 9.92741 19.9433 17.8183 -0.525193 4.98593 56.6823
6757336 9.00207 9.97346 19.8743 17.7696 -0.500417 4.94576 56.6195
6757346 9.00207 9.97346 19.8743 17.7696 -0.500417 4.94576 56.6195
6757357 9.0285 9.95504 19.8645 17.6722 -0.559869 4.92386 56.5202
6757368 9.01969 9.98267 19.8153 17.7307 -0.495882 4.91887 56.5483
6757389 9.05492 10.0103 19.835 17.7014 -0.52038 4.89505 56.6016
6757397 9.05492 9.98267 19.8547 17.7014 -0.541353 4.90828 56.5937
6757411 9.05492 9.98267 19.8547 17.7014 -0.541353 4.90828 56.5937
6757417 9.09896 10.0379 19.8251 17.6332 -0.553463 4.85592 56.5953
6757427 9.09896 10.0379 19.8251 17.6332 -0.553463 4.85592 56.5953
6757437 9.07254 10.0103 19.7759 17.6138 -0.542036 4.86259 56.4725
6757447 9.14301 10.0932 19.7365 17.6138 -0.518063 4.80171 56.5865
6757467 9.19586 10.0932 19.6972 17.5845 -0.537077 4.77084 56.5707
6757480 9.2487 10.0932 19.6873 17.604 -0.54687 4.75413 56.6332
6757488 9.2487 10.0932 19.6873 17.604 -0.54687 4.75413 56.6332
6757503 9.28394 10.1392 19.6676 17.5358 -0.563574 4.70988 56.6266
6757508 9.28394 10.1392 19.6676 17.5358 -0.563574 4.70988 56.6266
6757518 9.29275 10.1484 19.7562 17.5845 -0.579417 4.7285 56.7819
6757528 9.33679 10.1392 19.6479 17.4481 -0.617521 4.67194 56.5721
6757538 9.33679 10.1392 19.6479 17.4481 -0.617521 4.67194 56.5721
6757549 9.28394 10.1484 19.6283 17.4579 -0.577636 4.68531 56.5185
6757558 9.36321 10.2405 19.5594 17.4189 -0.558099 4.60602 56.582
6757569 9.36321 10.2405 19.5594 17.4189 -0.558099 4.60602 56.582
6757579 9.41606 10.1945 19.5298 17.3605 -0.615457 4.58747 56.5008
6757592 9.41606 10.1945 19.5298 17.3605 -0.615457 4.58747 56.5008
6757598 9.49534 10.2037 19.4117 17.3215 -0.612177 4.52778 56.4322
6757608 9.48653 10.2497 19.4019 17.2143 -0.631884 4.49313 56.3524
6757618 9.48653 10.2497 19.4019 17.2143 -0.631884 4.49313 56.3524
6757628 9.53057 10.2866 19.4215 17.2825 -0.611725 4.48158 56.5212
6757638 9.51295 10.2866 19.392 17.2825 -0.591367 4.48215 56.4741
6757648 9.51295 10.2589 19.392 17.2436 -0.621581 4.48443 56.4075
6757658 9.53938 10.2681 19.4314 17.341 -0.601642 4.49758 56.5799
6757668 9.53938 10.2681 19.4314 17.341 -0.601642 4.49758 56.5799
6757678 9.5658 10.2774 19.392 17.1656 -0.671461 4.44527 56.4008
6757697 9.59223 10.3602 19.4215 17.2338 -0.626998 4.42595 56.6078
6757714 9.63627 10.3234 19.4215 17.1948 -0.680307 4.41619 56.5761
6757720 9.69793 10.3418 19.3723 17.2143 -0.668462 4.38318 56.6264
6757730 9.69793 10.3418 19.3723 17.2143 -0.668462 4.38318 56.6264
6757741 9.6715 10.3879 19.3428 17.1851 -0.636771 4.36543 56.5873
6757749 9.6715 10.3879 19.3428 17.1851 -0.636771 4.36543 56.5873
6757763 9.71554 10.3971 19.3231 17.0292 -0.713873 4.3141 56.465
6757769 9.83005 10.4063 19.3526 17.039 -0.767037 4.27932 56.6279
6757789 9.81244 10.4155 19.2444 17 -0.726594 4.25424 56.4723
6757801 9.86528 10.3602 19.264 16.9619 -0.800318 4.25156 56.4515
6757821 9.83005 10.4523 19.2345 17.039 -0.695448 4.24123 56.5559
6757831 9.83005 10.4523 19.2345 17.039 -0.695448 4.24123 56.5559
6757841 9.83005 10.4247 19.2444 16.9714 -0.742979 4.23966 56.4706
6757851 9.97979 10.4615 19.2247 16.9619 -0.78627 4.17072 56.6279
6757861 9.97979 10.4615 19.2247 16.9619 -0.78627 4.17072 56.6279
6757873 9.96218 10.4984 19.2247 16.8572 -0.809677 4.14415 56.5424
6757881 9.94456 10.4615 19.1951 16.8858 -0.793271 4.16241 56.487
6757902 9.97098 10.5352 19.1754 16.8953 -0.758228 4.12656 56.5769
6757912 9.97098 10.5352 19.1754 16.8953 -0.758228 4.12656 56.5769
6757922 9.9886 10.4707 19.1262 16.8477 -0.795798 4.12379 56.4333
6757932 9.9886 10.526 19.1558 16.8287 -0.791915 4.1071 56.499
6757943 9.9886 10.526 19.1558 16.8287 -0.791915 4.1071 56.499
6757952 9.97098 10.5813 19.1656 16.8191 -0.767721 4.09445 56.537
6757963 9.97979 10.5352 19.1361 16.8191 -0.779837 4.10134 56.4702
6757972 9.97979 10.5352 19.1361 16.8191 -0.779837 4.10134 56.4702
6757986 10.015 10.5628 19.1853 16.8667 -0.781716 4.09876 56.6299
6757993 10.015 10.5628 19.1853 16.8667 -0.781716 4.09876 56.6299
6758002 10.0326 10.48 19.1656 16.8001 -0.849079 4.10417 56.4783
6758012 10.0326 10.5076 19.1853 16.7906 -0.849208 4.0968 56.5161
6758022 10.0326 10.5076 19.1853 16.7906 -0.849208 4.0968 56.5161
6758032 10.0503 10.5076 19.1951 16.8953 -0.81314 4.1129 56.6483
6758052 10.015 10.4339 19.1754 16.8382 -0.8494 4.13496 56.4626
6758062 9.99741 10.4523 19.2837 16.8953 -0.853591 4.16642 56.6288
6758083 9.96218 10.3971 19.2148 16.9048 -0.830004 4.18574 56.4789
6758094 9.95337 10.4523 19.3625 16.9429 -0.846671 4.20544 56.7111
6758103 9.95337 10.4523 19.3625 16.9429 -0.846671 4.20544 56.7111
6758115 9.95337 10.3787 19.3822 16.8953 -0.910439 4.22512 56.6095
6758123 9.89171 10.3787 19.4215 16.9524 -0.874838 4.26439 56.6443
6758139 9.89171 10.3787 19.4215 16.9524 -0.874838 4.26439 56.6443
6758145 9.8829 10.3602 19.3723 16.9905 -0.841124 4.27155 56.6059
6758165 9.81244 10.2589 19.3625 16.9334 -0.879326 4.31753 56.3672
6758174 9.84767 10.3142 19.392 16.9619 -0.868589 4.29758 56.5158
6758186 9.84767 10.3142 19.392 16.9619 -0.868589 4.29758 56.5158
6758196 9.83005 10.3142 19.3625 16.9143 -0.870243 4.28897 56.4211
6758210 9.7772 10.2774 19.3822 16.9239 -0.868583 4.32522 56.3606
6758214 9.7772 10.2774 19.3822 16.9239 -0.868583 4.32522 56.3606
6758224 9.76839 10.2681 19.4511 16.981 -0.872323 4.35521 56.4686
6758234 9.76839 10.2681 19.4511 16.981 -0.872323 4.35521 56.4686
6758244 9.72435 10.2497 19.4609 16.9905 -0.861782 4.38029 56.4255
6758257 9.66269 10.2313 19.52 17.0682 -0.833522 4.43348 56.4822
6758264 9.66269 10.2313 19.52 17.0682 -0.833522 4.43348 56.4822
6758281 9.73316 10.2497 19.5889 17.1072 -0.866792 4.42311 56.6789
6758284 9.6715 10.1208 19.6873 17.1461 -0.923559 4.51415 56.6258
6758311 9.60104 10.1761 19.7759 17.2046 -0.879312 4.54655 56.7576
6758321 9.60104 10.1761 19.7759 17.2046 -0.879312 4.54655 56.7576
6758330 9.57461 10.0932 19.7956 17.2143 -0.909841 4.58967 56.6777
6758350 9.52176 10.0655 19.8054 17.2143 -0.904186 4.61933 56.6071
6758353 9.52176 10.0655 19.8054 17.2143 -0.904186 4.61933 56.6071
6758356 9.47772 10.0471 19.8645 17.302 -0.878923 4.66782 56.6914
6758366 9.41606 10.0195 19.9137 17.341 -0.86845 4.71487 56.6903
6758386 9.41606 9.97346 19.9137 17.2241 -0.943023 4.70965 56.5273
6758398 9.41606 9.97346 19.9137 17.2241 -0.943023 4.70965 56.5273
6758407 9.32798 9.94583 19.9433 17.3117 -0.890546 4.77134 56.5288
6758417 9.27513 9.97346 19.9826 17.4189 -0.823206 4.8066 56.6501
6758437 9.19586 9.97346 20.0318 17.4384 -0.801493 4.84668 56.6395
6758447 9.21347 9.89057 20.1204 17.4189 -0.893496 4.88194 56.6434
6758457 9.21347 9.89057 20.1204 17.4189 -0.893496 4.88194 56.6434
6758472 9.26632 9.89057 20.0614 17.4579 -0.873052 4.85981 56.6762
6758477 9.26632 9.89057 20.0614 17.4579 -0.873052 4.85981 56.6762
6758487 9.23109 9.88136 20.0909 17.4676 -0.87038 4.88241 56.671
6758497 9.2487 9.83532 20.0909 17.4481 -0.907826 4.88891 56.6231
6758507 9.2487 9.83532 20.0909 17.4481 -0.907826 4.88891 56.6231
6758519 9.29275 9.90899 20.0712 17.4189 -0.897866 4.83889 56.6919
6758527 9.2399 9.90899 20.0811 17.3702 -0.901839 4.85044 56.6002
6758542 9.2399 9.90899 20.0811 17.3702 -0.901839 4.85044 56.6002
6758547 9.31917 9.94583 20.0122 17.3994 -0.876057 4.80267 56.6766
6758567 9.29275 9.92741 19.9039 17.3507 -0.849274 4.79004 56.4748
6758577 9.3456 9.96425 19.8743 17.2533 -0.886999 4.73563 56.4375
6758597 9.37202 10.0471 19.894 17.302 -0.846471 4.70993 56.6152
6758611 9.36321 10.0471 19.7956 17.263 -0.818436 4.68796 56.469
6758619 9.36321 10.0103 19.7956 17.263 -0.835289 4.70081 56.4321
6758632 9.39845 10.0655 19.9334 17.2923 -0.870548 4.69971 56.6897
6758638 9.39845 10.0655 19.9334 17.2923 -0.870548 4.69971 56.6897
6758648 9.36321 10.084 19.8743 17.3215 -0.808619 4.70014 56.643
6758659 9.39845 10.0748 19.8743 17.3312 -0.823413 4.69286 56.6788
6758668 9.39845 10.0748 19.8743 17.3312 -0.823413 4.69286 56.6788
6758683 9.41606 10.0655 19.8448 17.3117 -0.83141 4.68102 56.6382
6758688 9.41606 10.0655 19.8448 17.3117 -0.83141 4.68102 56.6382
6758698 9.43368 10.0932 19.7562 17.3215 -0.784054 4.65091 56.6046
6758709 9.46891 10.1116 19.7759 17.3215 -0.799137 4.63591 56.6779
6758718 9.46891 10.1116 19.7759 17.3215 -0.799137 4.63591 56.6779
6758732 9.45129 10.084 19.707 17.2436 -0.810283 4.62469 56.4858
6758738 9.4601 10.0471 19.7464 17.2825 -0.829929 4.6488 56.5361
6758748 9.4601 10.0471 19.7464 17.2825 -0.829929 4.6488 56.5361
6758759 9.51295 10.1208 19.7562 17.3312 -0.800911 4.61565 56.7212
6758785 9.47772 10.0563 19.7365 17.3117 -0.8157 4.64303 56.5823
6758788 9.44249 10.1024 19.6775 17.3215 -0.749898 4.63024 56.5438
6758799 9.44249 10.1024 19.6775 17.3215 -0.749898 4.63024 56.5438
6758811 9.48653 10.0655 19.6873 17.2825 -0.807555 4.62239 56.5219
6758819 9.37202 9.99187 19.6676 17.302 -0.774747 4.6879 56.3335
6758836 9.37202 9.99187 19.6676 17.302 -0.774747 4.6879 56.3335
6758839 9.4601 10.0563 19.7169 17.3507 -0.781977 4.65267 56.584
6758849 9.41606 10.0563 19.707 17.3994 -0.736718 4.67508 56.5788
6758862 9.41606 10.0471 19.707 17.3994 -0.740907 4.67828 56.5696
6758870 9.33679 9.99187 19.7661 17.4774 -0.721918 4.75007 56.5721
6758886 9.33679 9.99187 19.7661 17.4774 -0.721918 4.75007 56.5721
6758890 9.38964 9.90899 19.7858 17.5358 -0.76412 4.77469 56.6202
6758899 9.3456 10.0011 19.8153 17.5358 -0.716069 4.76326 56.6978
6758919 9.3456 10.0011 19.7858 17.5553 -0.69458 4.76145 56.6877
6758934 9.3456 10.0011 19.7858 17.5553 -0.69458 4.76145 56.6877
6758941 9.27513 9.96425 19.7661 17.6138 -0.646068 4.80591 56.6192
6758951 9.42487 9.97346 19.7858 17.604 -0.718969 4.75226 56.7881
6758961 9.42487 9.97346 19.7858 17.604 -0.718969 4.75226 56.7881
6758971 9.31917 9.94583 19.7464 17.604 -0.669304 4.79165 56.6154
6758988 9.3456 9.92741 19.7169 17.6138 -0.671902 4.78528 56.6036
6758992 9.3456 9.92741 19.7169 17.6138 -0.671902 4.78528 56.6036
6759004 9.31917 9.92741 19.8153 17.604 -0.707231 4.81049 56.6659
6759012 9.28394 9.89057 19.6972 17.643 -0.640342 4.82148 56.5147
6759022 9.28394 9.89057 19.6972 17.643 -0.640342 4.82148 56.5147
6759034 9.27513 9.87216 19.7562 17.6527 -0.665919 4.84341 56.5562
6759052 9.29275 9.82611 19.7858 17.643 -0.711529 4.85694 56.5476
6759062 9.29275 9.88136 19.8153 17.6235 -0.707954 4.83936 56.6129
6759072 9.29275 9.88136 19.8153 17.6235 -0.707954 4.83936 56.6129
6759082 9.27513 9.94583 19.8153 17.7112 -0.63149 4.83868 56.7474
6759092 9.25751 9.86295 19.7759 17.6722 -0.662148 4.85985 56.5686
6759102 9.25751 9.86295 19.7759 17.6722 -0.662148 4.85985 56.5686
6759112 9.20466 9.87216 19.835 17.7501 -0.625351 4.89966 56.6619
6759126 9.20466 9.87216 19.835 17.7501 -0.625351 4.89966 56.6619
6759132 9.18705 9.78927 19.8054 17.7501 -0.642589 4.92977 56.5319
6759143 9.19586 9.8169 19.8645 17.7209 -0.672522 4.92224 56.5982
6759153 9.19586 9.8169 19.8645 17.7209 -0.672522 4.92224 56.5982
6759163 9.16943 9.8169 19.9137 17.7696 -0.660241 4.94895 56.6697
6759173 9.12539 9.83532 19.9039 17.7404 -0.64197 4.95104 56.605
6759183 9.12539 9.83532 19.9039 17.7404 -0.64197 4.95104 56.605
6759193 9.20466 9.78006 19.9728 17.7209 -0.739464 4.95135 56.6784
6759203 9.20466 9.78006 19.9728 17.7209 -0.739464 4.95135 56.6784
6759214 9.12539 9.75244 19.9433 17.7404 -0.696503 4.98727 56.5615
6759223 9.11658 9.74323 20.0023 17.7891 -0.700141 5.01267 56.6512
6759235 9.11658 9.74323 20.0023 17.7891 -0.700141 5.01267 56.6512
6759243 9.09016 9.78927 19.9629 17.7989 -0.646599 5.00052 56.6412
6759257 9.06373 9.79848 19.9925 17.8183 -0.634947 5.01524 56.673
6759263 9.06373 9.79848 19.9925 17.8183 -0.634947 5.01524 56.673
6759273 9.08135 9.78927 19.9728 17.8281 -0.633818 5.01052 56.6715
6759283 9.08135 9.78927 19.9728 17.8281 -0.633818 5.01052 56.6715
6759293 9.08135 9.80769 19.9925 17.8573 -0.620747 5.01264 56.7388
6759304 9.07254 9.77086 20.0417 17.8865 -0.641535 5.04253 56.7716
6759313 9.07254 9.77086 20.0417 17.8865 -0.641535 5.04253 56.7716
6759329 9.09016 9.80769 20.0712 17.9352 -0.62317 5.03704 56.9043
6759343 9.09016 9.80769 20.0712 17.9352 -0.62317 5.03704 56.9043
6759345 9.01088 9.7156 20.1008 17.945 -0.638978 5.10441 56.7722
6759356 9.01088 9.66956 20.1008 17.9645 -0.650978 5.12412 56.7457
6759364 9.01088 9.66956 20.1008 17.9645 -0.650978 5.12412 56.7457
6759375 9.00207 9.66035 20.0417 17.8768 -0.665696 5.10492 56.5809
6759384 9.0285 9.60509 20.0417 18.0229 -0.635901 5.14065 56.6982
6759401 9.0285 9.60509 20.0417 18.0229 -0.635901 5.14065 56.6982
6759405 8.98446 9.63272 20.0614 17.9352 -0.652613 5.13464 56.6138
6759414 8.98446 9.63272 20.0614 17.9352 -0.652613 5.13464 56.6138
6759425 8.87876 9.63272 20.0122 18.0229 -0.546132 5.17899 56.5466
6759436 8.89637 9.6143 20.0909 18.0424 -0.587253 5.19631 56.644
6759450 8.89637 9.6143 20.0909 18.0424 -0.587253 5.19631 56.644
6759456 8.84352 9.57747 20.15 18.0229 -0.615397 5.23517 56.5939
6759464 8.82591 9.54063 20.209 18.1398 -0.597054 5.28489 56.7154
6759474 8.82591 9.54063 20.209 18.1398 -0.597054 5.28489 56.7154
6759484 8.85233 9.49458 20.2386 18.1788 -0.624299 5.30363 56.7643
6759497 8.85233 9.49458 20.2386 18.1788 -0.624299 5.30363 56.7643
6759504 8.72902 9.44854 20.2583 18.2275 -0.578517 5.37602 56.6633
6759514 8.72902 9.47616 20.2484 18.2567 -0.548632 5.36938 56.7103
6759524 8.72902 9.47616 20.2484 18.2567 -0.548632 5.36938 56.7103
6759536 8.73782 9.48537 20.2878 18.2275 -0.578412 5.36464 56.7385
6759546 8.73782 9.43933 20.2583 18.2567 -0.573277 5.38113 56.6921
6759554 8.73782 9.43933 20.2583 18.2567 -0.573277 5.38113 56.6921
6759570 8.73782 9.45775 20.3173 18.3152 -0.564073 5.39441 56.8281
6759576 8.73782 9.45775 20.3173 18.3152 -0.564073 5.39441 56.8281
6759586 8.74663 9.40249 20.3173 18.3249 -0.588349 5.41274 56.7914
6759596 8.72021 9.43012 20.2878 18.286 -0.569382 5.40073 56.7241
6759617 8.72021 9.43012 20.2878 18.286 -0.569382 5.40073 56.7241
6759619 8.72902 9.44854 20.2386 18.2762 -0.548056 5.38095 56.6923
6759628 8.72902 9.42091 20.2779 18.247 -0.590673 5.3926 56.6749
6759640 8.72902 9.42091 20.2779 18.247 -0.590673 5.3926 56.6749
6759646 8.72021 9.38407 20.2386 18.2567 -0.582144 5.40402 56.5996
6759656 8.72021 9.38407 20.2386 18.2567 -0.582144 5.40402 56.5996
6759667 8.69378 9.36566 20.2386 18.2665 -0.574662 5.42185 56.5645
6759676 8.7114 9.40249 20.3272 18.3347 -0.573041 5.42871 56.7757
6759696 8.75544 9.36566 20.3272 18.3444 -0.604184 5.42776 56.7927
6759709 8.66736 9.35645 20.3665 18.3347 -0.591791 5.4678 56.725
6759717 8.66736 9.35645 20.3665 18.3347 -0.591791 5.4678 56.725
6759733 8.64974 9.34724 20.3961 18.3736 -0.5835 5.48897 56.7667
6759745 8.64974 9.34724 20.3961 18.3736 -0.5835 5.48897 56.7667
6759747 8.6057 9.34724 20.4059 18.3736 -0.56878 5.50653 56.7325
6759757 8.65855 9.3104 20.337 18.3931 -0.569685 5.49247 56.6991
6759780 8.61451 9.27356 20.4158 18.4126 -0.592458 5.53815 56.7164
6759787 8.6057 9.24594 20.3862 18.3931 -0.597224 5.54318 56.631
6759797 8.6057 9.24594 20.3862 18.3931 -0.597224 5.54318 56.631
6759807 8.59689 9.24594 20.3764 18.4613 -0.558397 5.5561 56.6805
6759817 8.59689 9.24594 20.3764 18.4613 -0.558397 5.5561 56.6805
6759829 8.59689 9.28277 20.3665 18.4321 -0.550722 5.53623 56.6783
6759837 8.59689 9.3104 20.4158 18.4223 -0.563875 5.53282 56.7454
6759853 8.59689 9.3104 20.4158 18.4223 -0.563875 5.53282 56.7454
6759857 8.59689 9.31961 20.3764 18.4418 -0.533986 5.52617 56.7347
6759867 8.59689 9.31961 20.3764 18.4418 -0.533986 5.52617 56.7347
6759878 8.6057 9.24594 20.3862 18.3931 -0.597224 5.54318 56.631
6759887 8.63212 9.32882 20.4256 18.5198 -0.531191 5.53131 56.9063
6759907 8.58808 9.27356 20.3764 18.4516 -0.546537 5.54766 56.6896
6759923 8.6057 9.31961 20.4354 18.4321 -0.567603 5.53121 56.7928
6759928 8.6057 9.31961 20.4354 18.4321 -0.567603 5.53121 56.7928
6759938 8.67617 9.38407 20.3961 18.3736 -0.578266 5.46617 56.8299
6759948 8.68497 9.36566 20.2779 18.3834 -0.535105 5.45141 56.7119
6759958 8.68497 9.36566 20.2779 18.3834 -0.535105 5.45141 56.7119
6759971 8.65855 9.37486 20.2779 18.3639 -0.528328 5.45435 56.6752
6759995 8.69378 9.42091 20.2287 18.2567 -0.549848 5.3986 56.6001
6759998 8.72021 9.47616 20.1303 18.1885 -0.524545 5.34081 56.5152
6760008 8.72021 9.47616 20.1303 18.1885 -0.524545 5.34081 56.5152
6760018 8.73782 9.45775 20.1303 18.247 -0.514102 5.35108 56.5728
6760028 8.73782 9.45775 20.1303 18.247 -0.514102 5.35108 56.5728
6760038 8.72902 9.48537 20.1204 18.1885 -0.519937 5.33264 56.5234
6760048 8.80829 9.46696 20.1204 18.2665 -0.527379 5.3241 56.6622
6760058 8.80829 9.46696 20.1204 18.2665 -0.527379 5.3241 56.6622
6760068 8.79067 9.53142 19.9728 18.2567 -0.431158 5.28033 56.5516
6760078 8.82591 9.55905 20.0712 18.2178 -0.494194 5.26804 56.6739
6760090 8.82591 9.55905 20.0712 18.2178 -0.494194 5.26804 56.6739
6760104 8.88756 9.60509 19.9728 18.2372 -0.448835 5.21599 56.7027
6760123 8.84352 9.59588 19.9728 18.1593 -0.468926 5.22154 56.5715
6760129 8.83471 9.6143 19.9925 18.2178 -0.439084 5.23159 56.6593
6760140 8.83471 9.6143 19.9925 18.2178 -0.439084 5.23159 56.6593
6760150 8.91399 9.66956 19.9531 18.1398 -0.466554 5.16335 56.6765
6760160 8.94041 9.65114 19.894 18.208 -0.43007 5.16209 56.6936
6760177 8.94041 9.65114 19.894 18.208 -0.43007 5.16209 56.6936
6760179 9.00207 9.7156 19.8842 18.1203 -0.462924 5.10035 56.7222
6760189 9.00207 9.7156 19.8842 18.1203 -0.462924 5.10035 56.7222
6760204 8.98446 9.73402 19.8842 18.1009 -0.455777 5.09666 56.7035
6760209 8.99326 9.77086 19.8645 18.1593 -0.408362 5.08727 56.7879
6760220 8.99326 9.77086 19.8645 18.1593 -0.408362 5.08727 56.7879
6760230 8.99326 9.78006 19.7562 18.0619 -0.400914 5.04797 56.5914
6760239 9.01088 9.78927 19.7562 18.0521 -0.408809 5.03675 56.6085
6760259 9.01088 9.78927 19.7562 18.0521 -0.408809 5.03675 56.6085
6760261 9.04611 9.83532 19.7365 18.0327 -0.403644 5.00112 56.6506
6760270 9.04611 9.83532 19.7365 18.0327 -0.403644 5.00112 56.6506
6760283 9.00207 9.77086 19.6873 17.9645 -0.422718 5.01877 56.4247
6760291 9.09896 9.86295 19.707 18.0424 -0.397016 4.96925 56.7113
6760306 9.09896 9.86295 19.707 18.0424 -0.397016 4.96925 56.7113
6760311 9.06373 9.86295 19.6086 17.984 -0.365098 4.95385 56.5192
6760321 9.09016 9.88136 19.5889 18.0034 -0.351036 4.938 56.5638
6760331 9.09016 9.88136 19.5889 18.0034 -0.351036 4.938 56.5638
6760341 9.09016 9.85374 19.5692 17.9645 -0.372335 4.9373 56.4776
6760361 9.14301 9.87216 19.4904 17.9352 -0.365892 4.89287 56.4408
6760374 9.17824 9.93662 19.5397 17.8768 -0.399993 4.85614 56.5313
6760381 9.17824 9.93662 19.5397 17.8768 -0.399993 4.85614 56.5313
6760391 9.18705 9.94583 19.5495 17.8865 -0.399597 4.85333 56.5689
6760402 9.16062 10.0103 19.5298 17.867 -0.359347 4.83295 56.5678
6760411 9.16062 10.0103 19.5298 17.867 -0.359347 4.83295 56.5678
6760421 9.16943 9.99187 19.4806 17.906 -0.332524 4.83448 56.5479
6760441 9.18705 9.98267 19.4314 17.945 -0.305407 4.82969 56.5461
6760451 9.20466 9.99187 19.4117 17.945 -0.300381 4.81674 56.5532
6760463 9.20466 9.99187 19.4117 17.945 -0.300381 4.81674 56.5532
6760472 9.22228 10.0471 19.4806 17.984 -0.296031 4.81065 56.734
6760485 9.18705 10.0103 19.4412 17.9937 -0.275588 4.83053 56.6323
6760492 9.18705 10.0103 19.4412 17.9937 -0.275588 4.83053 56.6323
6760508 9.30155 10.1024 19.5003 18.0424 -0.288451 4.77783 56.9466
6760522 9.2399 10.0103 19.4511 18.0132 -0.294235 4.81731 56.7144
6760532 9.2399 10.1024 19.52 18.0424 -0.270225 4.8028 56.9047
6760542 9.2399 10.1024 19.52 18.0424 -0.270225 4.8028 56.9047
6760552 9.22228 10.1024 19.4412 17.984 -0.254261 4.78429 56.7498
6760562 9.16062 9.98267 19.4511 17.9742 -0.289389 4.84774 56.5686
6760572 9.16062 9.98267 19.4511 17.9742 -0.289389 4.84774 56.5686
6760583 9.21347 10.0103 19.4806 17.9937 -0.30428 4.82835 56.6981
6760603 9.18705 9.9182 19.4609 17.906 -0.364667 4.85062 56.4722
6760616 9.14301 9.90899 19.4904 17.9158 -0.358096 4.87641 56.4582
6760623 9.14301 9.90899 19.4904 17.9158 -0.358096 4.87641 56.4582
6760633 9.10777 9.92741 19.5003 17.8963 -0.347489 4.8806 56.4317
6760644 9.12539 9.9182 19.4708 17.945 -0.324552 4.88108 56.4593
6760666 9.15181 9.88136 19.5594 17.945 -0.391249 4.90059 56.5375
6760674 9.11658 9.90899 19.579 17.984 -0.35461 4.91374 56.5886
6760692 9.11658 9.90899 19.579 17.984 -0.35461 4.91374 56.5886
6760694 9.12539 9.93662 19.6283 17.9158 -0.398044 4.89754 56.606
6760704 9.12539 9.93662 19.6283 17.9158 -0.398044 4.89754 56.606
6760717 9.12539 9.84453 19.6381 17.8573 -0.470047 4.92129 56.4653
6760726 9.21347 9.88136 19.6676 17.8768 -0.495657 4.88608 56.6393
6760742 9.21347 9.88136 19.6676 17.8768 -0.495657 4.88608 56.6393
6760746 9.17824 9.92741 19.6578 17.8378 -0.472955 4.87356 56.6013
6760756 9.17824 9.92741 19.6578 17.8378 -0.472955 4.87356 56.6013
6760767 9.16062 9.95504 19.6873 17.8281 -0.470069 4.87358 56.6311
6760776 9.17824 9.89057 19.7169 17.7794 -0.541475 4.88661 56.565
6760796 9.19586 9.86295 19.7661 17.7404 -0.600445 4.89196 56.5653
6760806 9.23109 9.83532 19.7759 17.7014 -0.650047 4.88408 56.5437
6760817 9.23109 9.83532 19.7759 17.7014 -0.650047 4.88408 56.5437
6760826 9.26632 9.86295 19.7169 17.6917 -0.631672 4.84966 56.5378
6760841 9.26632 9.86295 19.7169 17.6917 -0.631672 4.84966 56.5378
6760846 9.20466 9.90899 19.8153 17.6819 -0.631064 4.87104 56.6109
6760856 9.2399 9.89978 19.7956 17.6917 -0.637516 4.86013 56.627
6760867 9.2399 9.89978 19.7956 17.6917 -0.637516 4.86013 56.627
6760875 9.27513 9.89057 19.8153 17.6722 -0.674115 4.85104 56.6532
6760891 9.29275 9.85374 19.8448 17.6235 -0.73317 4.85434 56.6148
6760913 9.2487 9.83532 19.8547 17.6235 -0.726877 4.87803 56.5622
6760917 9.2487 9.83532 19.8547 17.6235 -0.726877 4.87803 56.5622
6760928 9.22228 9.78006 19.9531 17.6332 -0.778459 4.92607 56.5887
6760937 9.25751 9.83532 19.8743 17.6235 -0.739099 4.87846 56.5907
6760947 9.25751 9.83532 19.8743 17.6235 -0.739099 4.87846 56.5907
6760960 9.28394 9.79848 19.9334 17.5748 -0.814657 4.88396 56.5906
6760967 9.28394 9.84453 20.022 17.5845 -0.82704 4.88536 56.735
6760983 9.28394 9.84453 20.022 17.5845 -0.82704 4.88536 56.735
6760987 9.27513 9.84453 19.9334 17.5358 -0.807667 4.86391 56.5889
6760997 9.27513 9.84453 19.9334 17.5358 -0.807667 4.86391 56.5889
6761007 9.2399 9.83532 19.9137 17.5261 -0.792809 4.87426 56.515
6761017 9.29275 9.77086 19.9433 17.5163 -0.861953 4.88189 56.5232
6761029 9.29275 9.77086 19.9433 17.5163 -0.861953 4.88189 56.5232
6761037 9.31036 9.87216 19.9629 17.5456 -0.818291 4.84891 56.691
6761052 9.27513 9.79848 19.9334 17.5456 -0.824232 4.88183 56.5526
6761058 9.27513 9.79848 19.9334 17.5456 -0.824232 4.88183 56.5526
6761068 9.25751 9.80769 20.0023 17.5456 -0.841932 4.8971 56.6131
6761078 9.19586 9.80769 20.0614 17.5553 -0.836378 4.93105 56.6202
6761088 9.19586 9.75244 20.0614 17.5553 -0.861616 4.95052 56.565
6761100 9.21347 9.73402 20.1303 17.6138 -0.880192 4.97338 56.6915
6761108 9.21347 9.73402 20.1303 17.6138 -0.880192 4.97338 56.6915
6761127 9.21347 9.73402 20.1697 17.604 -0.901382 4.97861 56.7212
6761129 9.16943 9.78006 20.209 17.6138 -0.87395 4.98658 56.7723
6761155 9.1342 9.73402 20.209 17.6625 -0.857753 5.0238 56.7397
6761160 9.14301 9.67877 20.1795 17.6332 -0.887491 5.02987 56.6345
6761185 9.14301 9.67877 20.1795 17.6332 -0.887491 5.02987 56.6345
6761185 9.1342 9.63272 20.2386 17.6235 -0.934392 5.05796 56.629
6761209 9.03731 9.59588 20.209 17.7014 -0.861733 5.11391 56.5437
6761212 9.0285 9.57747 20.2681 17.6625 -0.90944 5.12711 56.5365
6761236 8.97565 9.54063 20.2976 17.7014 -0.898522 5.17102 56.5153
6761240 8.97565 9.54063 20.2976 17.7014 -0.898522 5.17102 56.5153
6761250 8.99326 9.50379 20.4256 17.8768 -0.897136 5.23033 56.7994
6761263 8.85233 9.47616 20.4354 17.9352 -0.82733 5.30224 56.6992
6761270 8.85233 9.47616 20.4354 17.9352 -0.82733 5.30224 56.6992
6761280 8.8171 9.45775 20.524 17.9352 -0.85845 5.33659 56.7341
6761290 8.79067 9.39328 20.5732 17.945 -0.89311 5.37923 56.7022
6761299 8.79067 9.39328 20.5732 17.945 -0.89311 5.37923 56.7022
6761312 8.70259 9.46696 20.6126 17.9742 -0.825478 5.39603 56.7564
6761319 8.70259 9.46696 20.6126 17.9742 -0.825478 5.39603 56.7564
6761333 8.70259 9.37486 20.6422 17.9742 -0.880021 5.43417 56.6938
6761341 8.64974 9.40249 20.6618 17.9742 -0.853296 5.44658 56.6883
6761351 8.64974 9.40249 20.6618 17.9742 -0.853296 5.44658 56.6883
6761361 8.72021 9.4117 20.6028 17.9937 -0.845076 5.4112 56.7284
6761371 8.64093 9.38407 20.6815 17.945 -0.879677 5.4548 56.6515
6761381 8.64093 9.38407 20.6815 17.945 -0.879677 5.4548 56.6515
6761391 8.66736 9.42091 20.7111 18.0229 -0.851157 5.45008 56.8223
6761411 8.61451 9.34724 20.6618 17.945 -0.876866 5.47435 56.5686
6761421 8.66736 9.39328 20.6914 17.9352 -0.895353 5.44196 56.6873
6761443 8.72021 9.43933 20.5437 17.9158 -0.842842 5.37804 56.619
6761452 8.66736 9.49458 20.5732 17.8768 -0.825459 5.37557 56.612
6761465 8.66736 9.49458 20.5732 17.8768 -0.825459 5.37557 56.612
6761472 8.72902 9.54063 20.5732 17.9255 -0.808609 5.34517 56.7684
6761492 8.64974 9.52221 20.5732 17.867 -0.809777 5.37031 56.6123
6761502 8.73782 9.55905 20.4945 17.8865 -0.788113 5.31534 56.6779
6761516 8.73782 9.55905 20.4945 17.8865 -0.788113 5.31534 56.6779
6761522 8.76425 9.53142 20.4847 17.8378 -0.829975 5.30576 56.6181
6761532 8.76425 9.59588 20.5142 17.9352 -0.768931 5.30438 56.8096
6761557 8.79948 9.66956 20.4354 17.906 -0.730211 5.24703 56.8105
6761566 8.79948 9.66956 20.4354 17.906 -0.730211 5.24703 56.8105
6761573 8.78187 9.6143 20.337 17.867 -0.72328 5.24942 56.6002
6761591 8.8171 9.56826 20.3862 17.8573 -0.784826 5.26008 56.6289
6761603 8.80829 9.62351 20.3468 17.8378 -0.747928 5.23334 56.6165
6761613 8.82591 9.60509 20.337 17.8281 -0.764067 5.23024 56.5961
6761623 8.82591 9.60509 20.337 17.8281 -0.764067 5.23024 56.5961
6761636 8.9228 9.65114 20.2386 17.7599 -0.773497 5.15035 56.5724
6761643 8.86114 9.65114 20.337 17.7599 -0.789236 5.18943 56.6092
6761653 8.86114 9.65114 20.337 17.7989 -0.771493 5.19618 56.6481
6761664 8.89637 9.6143 20.3468 17.8573 -0.78093 5.20855 56.7148
6761674 8.89637 9.6143 20.3468 17.8573 -0.78093 5.20855 56.7148
6761684 8.90518 9.62351 20.337 17.8768 -0.76745 5.2038 56.7425
6761694 8.86995 9.68797 20.337 17.906 -0.709917 5.19844 56.8009
6761707 8.86995 9.68797 20.337 17.906 -0.709917 5.19844 56.8009
6761714 8.89637 9.67877 20.3764 17.945 -0.724559 5.20583 56.8965
6761734 8.8171 9.6143 20.4945 17.9742 -0.757067 5.28223 56.9001
6761745 8.77306 9.57747 20.4453 18.0424 -0.703076 5.31434 56.8382
6761756 8.77306 9.57747 20.4453 18.0424 -0.703076 5.31434 56.8382
6761765 8.72021 9.53142 20.4158 18.0911 -0.666605 5.35301 56.7585
6761775 8.72902 9.53142 20.4551 18.0424 -0.709289 5.34826 56.758
6761787 8.72902 9.53142 20.4551 18.0424 -0.709289 5.34826 56.758
6761795 8.66736 9.47616 20.4748 18.1301 -0.676633 5.40844 56.7484
6761806 8.51762 9.43933 20.4945 18.1691 -0.619799 5.48563 56.6205
6761816 8.51762 9.43933 20.4945 18.1691 -0.619799 5.48563 56.6205
6761828 8.48238 9.35645 20.5732 18.2567 -0.636353 5.55627 56.6688
6761851 8.38549 9.31961 20.6028 18.2957 -0.606394 5.61626 56.6036
6761857 8.41192 9.27356 20.5929 18.3736 -0.599119 5.63468 56.6521
6761867 8.41192 9.27356 20.5929 18.3736 -0.599119 5.63468 56.6521
6761877 8.38549 9.30119 20.6618 18.3639 -0.609323 5.64402 56.7124
6761889 8.34145 9.24594 20.7504 18.5003 -0.591883 5.71712 56.8381
6761898 8.34145 9.24594 20.7504 18.5003 -0.591883 5.71712 56.8381
6761907 8.32383 9.25515 20.8292 18.4613 -0.631514 5.72667 56.8695
6761918 8.32383 9.25515 20.8292 18.4613 -0.631514 5.72667 56.8695
6761927 8.25337 9.19989 20.7898 18.5295 -0.578521 5.77728 56.7726
6761943 8.27979 9.3104 20.8686 18.5782 -0.552154 5.748 57.037
6761947 8.27979 9.3104 20.8686 18.5782 -0.552154 5.748 57.037
6761957 8.27979 9.26436 20.8489 18.549 -0.577477 5.75684 56.942
6761968 8.20052 9.27356 20.8292 18.5393 -0.535198 5.77764 56.8425
6761977 8.20052 9.27356 20.8292 18.5393 -0.535198 5.77764 56.8425
6761994 8.20052 9.18147 20.8095 18.5393 -0.568159 5.80816 56.7307
6761997 8.20052 9.18147 20.8095 18.5393 -0.568159 5.80816 56.7307
6762007 8.12124 9.08938 20.8981 18.5198 -0.622556 5.88235 56.6285
6762017 8.0772 9.1078 20.9178 18.5685 -0.581729 5.9028 56.6713
6762042 8.09482 9.1078 20.967 18.6172 -0.588529 5.912 56.7868
6762047 8.09482 9.1078 20.9276 18.6172 -0.571591 5.90569 56.7474
6762058 7.99793 9.08017 20.9276 18.6075 -0.54666 5.95011 56.6132
6762071 7.93627 9.13543 20.9375 18.6075 -0.49935 5.95405 56.6166
6762078 7.93627 9.13543 20.9375 18.6075 -0.49935 5.95405 56.6166
6762088 7.95389 9.1078 21.0162 18.7049 -0.509584 5.98581 56.7828
6762099 7.98031 9.05255 21.0654 18.7146 -0.562631 6.00581 56.8129
6762109 7.98031 9.05255 21.0654 18.7146 -0.562631 6.00581 56.8129
6762118 8.00674 9.03413 21.1245 18.6756 -0.625189 6.00604 56.841
6762130 8.00674 9.03413 21.1245 18.6756 -0.625189 6.00604 56.841
6762138 7.94508 8.99729 21.0851 18.7341 -0.572045 6.04551 56.7616
6762152 7.94508 9.02492 21.2032 18.7633 -0.597191 6.05847 56.9366
6762158 7.94508 9.02492 21.2032 18.7633 -0.597191 6.05847 56.9366
6762168 7.90984 9.01571 21.1343 18.7633 -0.556616 6.0641 56.8232
6762178 7.93627 8.96966 21.1245 18.7633 -0.58447 6.06983 56.7938
6762201 7.96269 8.98808 21.1639 18.7341 -0.617595 6.0548 56.8487
6762218 7.88342 8.91441 21.0654 18.7925 -0.547998 6.10533 56.6558
6762228 7.93627 8.94204 21.0753 18.8607 -0.531894 6.08765 56.8143
6762240 7.93627 8.94204 21.0753 18.8607 -0.531894 6.08765 56.8143
6762248 7.91865 8.94204 21.095 18.8023 -0.55908 6.08811 56.7579
6762264 7.8658 8.91441 21.1147 18.8218 -0.548458 6.12419 56.7166
6762268 7.8658 8.91441 21.1147 18.8218 -0.548458 6.12419 56.7166
6762278 7.90984 8.97887 21.1442 18.9484 -0.494343 6.10829 56.9813
6762289 7.90984 8.97887 21.1442 18.9484 -0.494343 6.10829 56.9813
6762299 7.82176 8.94204 21.1737 18.8607 -0.524968 6.14561 56.7983
6762309 7.84819 8.89599 21.1836 18.9484 -0.521894 6.16809 56.8762
6762318 7.84819 8.89599 21.1836 18.9484 -0.521894 6.16809 56.8762
6762333 7.82176 8.92362 21.1934 18.9095 -0.519843 6.16311 56.8482
6762338 7.82176 8.88678 21.1639 18.9679 -0.497422 6.18132 56.8403
6762348 7.82176 8.88678 21.1639 18.9679 -0.497422 6.18132 56.8403
6762358 7.83938 8.9052 21.2525 18.9582 -0.53923 6.18013 56.9552
6762378 7.8658 8.88678 21.2328 18.9776 -0.541642 6.17712 56.963
6762391 7.85699 8.91441 21.2426 18.9971 -0.52098 6.17467 57.0112
6762402 7.85699 8.91441 21.2426 18.9971 -0.52098 6.17467 57.0112
6762411 7.83057 8.9052 21.0753 18.8997 -0.485326 6.14678 56.7108
6762424 7.82176 8.89599 21.0851 18.8315 -0.520609 6.14438 56.6344
6762430 7.82176 8.89599 21.0851 18.8315 -0.520609 6.14438 56.6344
6762439 7.83938 8.93283 21.1245 18.8705 -0.511104 6.13632 56.7672
6762460 7.83938 8.94204 21.1147 18.9192 -0.480855 6.13896 56.8153
6762471 7.87461 8.85915 21.1639 18.851 -0.585179 6.15374 56.7486
6762481 7.87461 8.85915 21.1639 18.851 -0.585179 6.15374 56.7486
6762494 7.91865 8.93283 21.1737 18.8218 -0.588317 6.10693 56.847
6762501 7.91865 8.89599 21.0359 18.8997 -0.510505 6.11124 56.7503
6762511 7.91865 8.89599 21.0359 18.8997 -0.510505 6.11124 56.7503
6762521 7.90984 8.96045 21.1737 18.8705 -0.550219 6.10755 56.9145
6762541 7.88342 8.93283 21.1343 18.8997 -0.521198 6.12604 56.8503
6762551 7.92746 8.96966 21.1737 18.8997 -0.540541 6.10218 56.9706
6762563 7.92746 8.96966 21.1737 18.8997 -0.540541 6.10218 56.9706
6762572 7.92746 8.97887 21.1442 18.9095 -0.519361 6.09568 56.96
6762586 7.90984 8.91441 21.1245 18.851 -0.558507 6.11391 56.7998
6762593 7.90984 8.91441 21.1245 18.851 -0.558507 6.11391 56.7998
6762602 7.89223 8.96966 21.1147 18.89 -0.50436 6.10449 56.8665
6762622 7.94508 8.96045 21.1245 18.8413 -0.557335 6.08221 56.8713
6762633 7.96269 8.99729 21.154 18.8607 -0.552298 6.06974 56.9748
6762657 7.90984 8.96045 20.9965 18.8413 -0.486991 6.07519 56.7081
6762663 7.93627 8.96966 21.0851 18.851 -0.528096 6.07742 56.8421
6762683 7.94508 8.98808 21.095 18.7438 -0.57604 6.05201 56.772
6762693 7.94508 8.97887 21.0556 18.7049 -0.580814 6.04307 56.6844
6762714 7.98031 9.03413 21.0261 18.7633 -0.532058 6.0141 56.8038
6762726 7.98031 9.03413 21.0261 18.7633 -0.532058 6.0141 56.8038
6762734 7.98912 9.02492 21.0064 18.7731 -0.52713 6.01268 56.7935
6762748 8.04197 9.02492 21.0654 18.7438 -0.588402 5.99787 56.8762
6762755 8.04197 9.02492 21.0654 18.7438 -0.588402 5.99787 56.8762
6762765 8.05078 9.13543 21.0162 18.6756 -0.552021 5.93524 56.8781
6762775 8.05078 9.13543 21.0162 18.6756 -0.552021 5.93524 56.8781
6762785 8.00674 9.05255 21.0359 18.6367 -0.596407 5.97899 56.7319
6762794 8.09482 9.13543 21.0162 18.6464 -0.584073 5.91437 56.8929
6762817 8.09482 9.13543 21.0162 18.6464 -0.584073 5.91437 56.8929
6762826 8.0772 9.16306 20.9473 18.5685 -0.569531 5.88718 56.756
6762834 8.0772 9.16306 20.9473 18.5685 -0.569531 5.88718 56.756
6762844 8.09482 9.18147 20.8981 18.6172 -0.525714 5.87384 56.7916
6762866 8.05078 9.19068 20.8882 18.5295 -0.537789 5.87097 56.6592
6762876 8.20052 9.22752 20.8981 18.4808 -0.611849 5.79617 56.8069
6762886 8.20052 9.22752 20.8981 18.4808 -0.611849 5.79617 56.8069
6762896 8.19171 9.24594 20.8784 18.4808 -0.591306 5.78947 56.7969
6762907 8.27098 9.33803 20.8095 18.3834 -0.598164 5.69977 56.8019
6762916 8.27098 9.33803 20.8095 18.3834 -0.598164 5.69977 56.8019
6762929 8.32383 9.37486 20.7111 18.3152 -0.592704 5.63973 56.7249
6762936 8.3943 9.40249 20.6422 18.208 -0.629309 5.57489 56.647
6762958 8.45596 9.48537 20.5929 18.2665 -0.570874 5.52407 56.8007
6762966 8.45596 9.48537 20.5929 18.2665 -0.570874 5.52407 56.8007
6762976 8.5 9.54063 20.524 18.1788 -0.574781 5.462 56.7435
6762988 8.5 9.54063 20.4059 18.0619 -0.576632 5.42233 56.5084
6762997 8.5 9.54063 20.4059 18.0619 -0.576632 5.42233 56.5084
6763009 8.57047 9.6143 20.3961 18.0424 -0.578307 5.36539 56.6232
6763031 8.61451 9.54063 20.2878 18.0034 -0.601555 5.35094 56.4464
6763037 8.63212 9.76165 20.2779 17.945 -0.531393 5.25352 56.6167
6763057 8.72902 9.76165 20.209 17.9742 -0.53031 5.21208 56.6739
6763067 8.82591 9.78006 20.1303 17.8476 -0.58699 5.13536 56.5838
6763077 8.82591 9.78006 20.1303 17.8476 -0.58699 5.13536 56.5838
6763087 8.94922 9.87216 20.0515 17.8476 -0.564627 5.04519 56.7205
6763099 8.94041 9.84453 20.0023 17.7307 -0.604916 5.02886 56.5179
6763120 9.03731 9.93662 19.9137 17.643 -0.606498 4.93081 56.5306
6763131 9.03731 9.93662 19.9137 17.643 -0.606498 4.93081 56.5306
6763143 9.12539 9.95504 19.8645 17.6235 -0.62374 4.88105 56.5684
6763148 9.19586 10.084 19.7956 17.6235 -0.566146 4.79884 56.6989
6763158 9.19586 10.084 19.7956 17.6235 -0.566146 4.79884 56.6989
6763168 9.21347 10.0287 19.7759 17.5748 -0.612219 4.79968 56.5929
6763178 9.21347 10.0287 19.7759 17.5748 -0.612219 4.79968 56.5929
6763192 9.19586 10.0471 19.7169 17.5456 -0.584023 4.78346 56.5054
6763198 9.26632 10.0932 19.707 17.5456 -0.58936 4.74097 56.6121
6763221 9.31036 10.084 19.7956 17.5456 -0.650579 4.74487 56.7355
6763228 9.31036 10.13 19.8054 17.4968 -0.656007 4.72182 56.7427
6763249 9.31036 10.13 19.8054 17.4968 -0.656007 4.72182 56.7427
6763251 9.3544 10.1392 19.7858 17.4384 -0.688738 4.68915 56.7178
6763259 9.36321 10.0563 19.707 17.3605 -0.731769 4.68636 56.487
6763280 9.3456 9.98267 19.7759 17.3507 -0.791837 4.729 56.4549
6763307 9.28394 10.0103 19.7858 17.302 -0.779237 4.73383 56.382
6763309 9.25751 9.93662 19.8547 17.341 -0.813347 4.7885 56.3898
6763320 9.25751 9.93662 19.8547 17.341 -0.813347 4.7885 56.3898
6763335 9.31036 9.97346 19.894 17.4189 -0.800413 4.77831 56.5968
6763341 9.28394 9.96425 19.9334 17.3994 -0.819036 4.79436 56.581
6763351 9.28394 9.96425 19.9334 17.3994 -0.819036 4.79436 56.581
6763364 9.26632 10.0103 20.0712 17.4384 -0.831565 4.81622 56.7862
6763371 9.26632 10.0103 20.0712 17.4384 -0.831565 4.81622 56.7862
6763386 9.27513 9.9182 20.0417 17.3799 -0.891408 4.82954 56.615
6763391 9.25751 9.93662 20.0712 17.3994 -0.879158 4.83806 56.6648
6763401 9.25751 9.93662 20.0712 17.3994 -0.879158 4.83806 56.6648
6763411 9.25751 9.94583 20.1106 17.341 -0.918414 4.83141 56.6549
6763421 9.25751 9.94583 20.1106 17.341 -0.918414 4.83141 56.6549
6763433 9.20466 9.84453 20.15 17.3507 -0.954641 4.89431 56.5499
6763441 9.17824 9.93662 20.1204 17.3702 -0.879711 4.86943 56.6055
6763451 9.17824 9.93662 20.1204 17.3702 -0.879711 4.86943 56.6055
6763471 9.15181 9.73402 20.15 17.3605 -0.97848 4.95368 56.3963
6763472 9.12539 9.88136 20.2189 17.3994 -0.911023 4.93021 56.6251
6763482 9.12539 9.88136 20.2189 17.3994 -0.911023 4.93021 56.6251
6763492 9.1342 9.83532 20.337 17.4579 -0.959226 4.97461 56.7644
6763505 9.07254 9.78006 20.3665 17.4774 -0.961983 5.02446 56.6965
6763512 9.07254 9.78006 20.3665 17.4774 -0.961983 5.02446 56.6965
6763528 9.05492 9.78006 20.5142 17.565 -0.976908 5.07191 56.9142
6763532 9.05492 9.78006 20.5142 17.565 -0.976908 5.07191 56.9142
6763543 8.95803 9.68797 20.465 17.5553 -0.961649 5.12852 56.6663
6763554 9.00207 9.7156 20.5437 17.5456 -1.00544 5.11511 56.8069
6763563 9.00207 9.7156 20.5437 17.5456 -1.00544 5.11511 56.8069
6763575 8.93161 9.63272 20.5142 17.4579 -1.04145 5.14918 56.5364
6763583 8.91399 9.65114 20.4945 17.5163 -0.99027 5.15565 56.576
6763593 8.91399 9.65114 20.4945 17.5163 -0.99027 5.15565 56.576
6763603 8.96684 9.67877 20.524 17.4384 -1.04831 5.11857 56.608
6763613 8.96684 9.67877 20.524 17.4384 -1.04831 5.11857 56.608
6763623 8.86995 9.54984 20.5536 17.3994 -1.09727 5.19751 56.3728
6763633 8.90518 9.67877 20.5732 17.5163 -1.00723 5.16263 56.6735
6763647 8.90518 9.67877 20.5732 17.5163 -1.00723 5.16263 56.6735
6763656 8.9228 9.59588 20.6422 17.5456 -1.06845 5.20286 56.7064
6763671 8.9228 9.59588 20.6323 17.5358 -1.06877 5.19948 56.6868
6763675 8.9228 9.59588 20.6323 17.5358 -1.06877 5.19948 56.6868
6763684 8.86995 9.56826 20.6717 17.5456 -1.07131 5.23667 56.6554
6763695 8.86995 9.56826 20.6717 17.5456 -1.07131 5.23667 56.6554
6763705 8.79948 9.57747 20.6126 17.6138 -0.980899 5.26014 56.6033
6763715 8.85233 9.50379 20.6914 17.643 -1.05703 5.28613 56.6905
