5250143 11.0016 11.7048 21.2721 19.9811 -0.229771 4.34968 63.9596
5250155 10.9575 11.7508 21.2918 19.9713 -0.206025 4.35073 63.9715
5250163 11.0192 11.7508 21.2721 19.9519 -0.229959 4.32557 63.994
5250177 11.0192 11.7508 21.2721 19.9519 -0.229959 4.32557 63.994
5250183 11.0192 11.8613 21.2426 19.9324 -0.182688 4.28406 64.0555
5250193 10.9927 11.8245 21.1934 19.8837 -0.187024 4.28673 63.8943
5250203 10.9927 11.8245 21.1934 19.8837 -0.187024 4.28673 63.8943
5250213 11.0368 11.8521 21.154 19.8837 -0.177951 4.25851 63.9266
5250225 11.0368 11.8521 21.154 19.8837 -0.177951 4.25851 63.9266
5250233 11.0368 11.8705 21.1343 19.8155 -0.189926 4.23817 63.8571
5250244 11.0896 11.8797 21.1048 19.8252 -0.191507 4.21615 63.8994
5250254 11.0896 11.8797 21.1048 19.8252 -0.191507 4.21615 63.8994
5250266 11.0632 11.8705 21.1147 19.8155 -0.192542 4.22689 63.8639
5250274 11.0808 11.8705 21.1737 19.7862 -0.233823 4.22662 63.9113
5250285 11.0808 11.8982 21.1737 19.7862 -0.222921 4.21832 63.9389
5250294 11.1073 11.935 21.1442 19.8447 -0.184184 4.2042 64.0311
5250314 11.072 11.9258 21.154 19.8057 -0.193305 4.21262 63.9576
5250324 11.0984 11.9166 21.095 19.7862 -0.191946 4.19419 63.8962
5250334 11.0984 11.9166 21.095 19.7862 -0.191946 4.19419 63.8962
5250344 11.1249 11.9074 21.1147 19.7375 -0.232692 4.18411 63.8844
5250358 11.1249 11.9074 21.1147 19.7375 -0.232692 4.18411 63.8844
5250364 11.0632 11.8889 21.1245 19.757 -0.212166 4.21314 63.8337
5250374 11.0896 11.935 21.154 19.7765 -0.208023 4.19963 63.9552
5250385 11.0896 11.935 21.154 19.7765 -0.208023 4.19963 63.9552
5250394 11.1073 11.8705 21.1147 19.7083 -0.251982 4.19552 63.8007
5250404 11.1601 11.935 21.154 19.7278 -0.254522 4.17027 63.9769
5250414 11.1601 11.935 21.154 19.7278 -0.254522 4.17027 63.9769
5250424 11.1865 11.9626 21.1245 19.7862 -0.219385 4.15898 64.0599
5250434 11.1865 11.9626 21.1245 19.7862 -0.219385 4.15898 64.0599
5250445 11.072 11.8429 21.154 19.8155 -0.222147 4.2392 63.8844
5250454 11.1073 11.9718 21.1343 19.796 -0.185043 4.18327 64.0094
5250466 11.1073 11.9718 21.1343 19.796 -0.185043 4.18327 64.0094
5250475 11.1073 11.9626 21.1147 19.757 -0.196375 4.17611 63.9415
5250485 11.1073 11.8982 21.1147 19.7473 -0.225651 4.19381 63.8673
5250502 11.1073 11.8982 21.1147 19.7473 -0.225651 4.19381 63.8673
5250506 11.1513 11.981 21.095 19.7375 -0.206241 4.15075 63.9648
5250515 11.1513 11.981 21.095 19.7375 -0.206241 4.15075 63.9648
5250527 11.0896 11.935 21.1147 19.7473 -0.204273 4.18804 63.8866
5250536 11.1161 11.981 21.0753 19.7278 -0.188772 4.15632 63.9002
5250547 11.1161 11.981 21.0753 19.7278 -0.188772 4.15632 63.9002
5250556 11.1161 11.981 21.0753 19.7278 -0.188772 4.15632 63.9002
5250567 11.0808 11.9534 21.095 19.757 -0.182104 4.18347 63.8862
5250577 11.0808 11.9534 21.095 19.757 -0.182104 4.18347 63.8862
5250587 11.1953 11.9995 21.0654 19.757 -0.196934 4.13037 64.0172
5250597 11.1953 11.9995 21.0654 19.757 -0.196934 4.13037 64.0172
5250607 11.1425 11.981 21.0851 19.7375 -0.199008 4.15172 63.9462
5250617 11.1601 11.9718 21.0654 19.7375 -0.201833 4.14587 63.9349
5250627 11.1601 11.9718 21.0654 19.7375 -0.201833 4.14587 63.9349
5250637 11.1249 11.9902 21.1048 19.7375 -0.196181 4.15758 63.9575
5250647 11.1161 11.935 21.1245 19.7278 -0.226031 4.17847 63.9033
5250657 11.1161 11.935 21.1245 19.7278 -0.226031 4.17847 63.9033
5250668 11.1073 11.9718 21.2229 19.7765 -0.227006 4.19494 64.0785
5250677 11.1073 11.9718 21.2229 19.7765 -0.227006 4.19494 64.0785
5250687 11.0632 11.9442 21.1048 19.757 -0.182717 4.19319 63.8692
5250697 11.0984 11.9534 21.095 19.7862 -0.177431 4.18313 63.9331
5250718 11.0456 11.9534 21.1343 19.7668 -0.179873 4.20236 63.9001
5250728 11.1073 11.981 21.1934 19.7668 -0.215793 4.18555 64.0485
5250738 11.1073 11.981 21.1934 19.7668 -0.215793 4.18555 64.0485
5250748 11.072 11.9718 21.1048 19.7668 -0.171411 4.1839 63.9154
5250758 11.072 11.9718 21.1048 19.7668 -0.171411 4.1839 63.9154
5250768 11.0544 11.9534 21.1147 19.835 -0.148803 4.20791 63.9574
5250778 11.0544 11.935 21.2131 19.796 -0.209577 4.22346 63.9985
5250788 11.0544 11.935 21.2131 19.796 -0.209577 4.22346 63.9985
5250798 11.0368 11.8889 21.1442 19.7862 -0.198011 4.22936 63.8562
5250809 11.028 11.9442 21.1245 19.7278 -0.188202 4.20217 63.8245
5250830 11.0368 11.8889 21.1343 19.7668 -0.201879 4.22441 63.8268
5250841 11.0368 11.8889 21.1343 19.7668 -0.201879 4.22441 63.8268
5250852 11.0544 11.8889 21.2131 19.796 -0.227731 4.2373 63.9524
5250859 11.0192 11.8889 21.1737 19.8252 -0.187272 4.2462 63.907
5250872 11.0192 11.8889 21.1737 19.8252 -0.187272 4.2462 63.907
5250881 11.0368 11.8797 21.1934 19.8252 -0.205377 4.24698 63.9351
5250893 11.0896 11.9534 21.1934 19.8447 -0.189182 4.21225 64.0811
5250900 11.0896 11.9534 21.1934 19.8447 -0.189182 4.21225 64.0811
5250912 11.1073 11.9442 21.2426 19.7473 -0.257017 4.20161 64.0414
5250919 11.1073 11.9442 21.2426 19.7473 -0.257017 4.20161 64.0414
5250929 11.0808 11.9626 21.1442 19.7473 -0.201418 4.18739 63.9349
5250939 11.0896 11.9995 21.1639 19.7473 -0.197956 4.17703 64.0002
5250949 11.0896 11.9995 21.1639 19.7473 -0.197956 4.17703 64.0002
5250959 11.1337 11.9902 21.1048 19.7083 -0.211115 4.14999 63.937
5250969 11.2041 11.981 21.1048 19.757 -0.222841 4.13992 64.047
5250982 11.2041 11.981 21.1048 19.757 -0.222841 4.13992 64.047
5250991 11.1601 11.9626 21.1343 19.6499 -0.26678 4.14544 63.9069
5251010 11.1249 12.0179 21.1245 19.6986 -0.208284 4.14604 63.9658
5251021 11.1689 12.0179 21.0654 19.6109 -0.23706 4.1079 63.8631
5251040 11.213 12.0363 21.1442 19.6304 -0.269614 4.10596 64.0238
5251051 11.1513 12.0455 21.095 19.6109 -0.230768 4.10993 63.9026
5251060 11.1513 12.0455 21.095 19.6109 -0.230768 4.10993 63.9026
5251076 11.1865 12.0547 21.1245 19.6109 -0.252211 4.10169 63.9766
5251083 11.1865 12.0547 21.1245 19.6109 -0.252211 4.10169 63.9766
5251092 11.1513 11.9718 21.095 19.6596 -0.240627 4.14028 63.8777
5251103 11.1601 11.9074 21.1442 19.6499 -0.292453 4.16367 63.8615
5251112 11.1601 11.9074 21.1442 19.6499 -0.292453 4.16367 63.8615
5251123 11.0984 11.981 21.0851 19.6206 -0.228068 4.14507 63.7852
5251137 11.1513 12.0271 21.1737 19.6791 -0.241615 4.14042 64.0312
5251146 11.1513 12.0271 21.1737 19.6791 -0.241615 4.14042 64.0312
5251153 11.1161 11.981 21.1836 19.6596 -0.257653 4.16312 63.9403
5251172 11.0456 11.935 21.1836 19.6596 -0.248559 4.1981 63.8237
5251183 11.1249 11.9166 21.1836 19.6791 -0.278841 4.18311 63.9041
5251197 11.1249 11.9166 21.1836 19.6791 -0.278841 4.18311 63.9041
5251203 11.1513 11.8889 21.2131 19.6986 -0.30369 4.19176 63.9519
5251213 11.1513 11.9258 21.3017 19.7375 -0.3079 4.20224 64.1163
5251224 11.1513 11.9258 21.3017 19.7375 -0.3079 4.20224 64.1163
5251234 11.1073 11.9166 21.2032 19.6888 -0.275791 4.19338 63.9159
5251243 11.0984 11.9166 21.2721 19.6888 -0.299016 4.20766 63.976
5251253 11.0984 11.8889 21.2721 19.7181 -0.298382 4.22089 63.9776
5251263 11.1073 11.9442 21.282 19.6888 -0.295295 4.19839 64.0223
5251273 11.1073 11.9442 21.282 19.6888 -0.295295 4.19839 64.0223
5251283 11.0808 11.8705 21.2032 19.6791 -0.287646 4.21352 63.8337
5251293 11.0984 11.8797 21.2229 19.6109 -0.325468 4.19724 63.812
5251313 11.1601 11.8429 21.1737 19.7083 -0.306255 4.19793 63.885
5251323 11.1601 11.8429 21.1737 19.7083 -0.306255 4.19793 63.885
5251334 11.1249 11.9258 21.2229 19.6986 -0.282721 4.1903 63.9722
5251343 11.1249 11.8982 21.2328 19.7473 -0.278194 4.20847 64.0031
5251353 11.1249 11.8982 21.2328 19.7473 -0.278194 4.20847 64.0031
5251364 11.1601 11.9626 21.2229 19.7278 -0.270246 4.17365 64.0735
5251374 11.1337 11.935 21.1442 19.6888 -0.255877 4.16992 63.9017
5251384 11.1337 11.935 21.1442 19.6888 -0.255877 4.16992 63.9017
5251395 11.1865 11.9718 21.095 19.6401 -0.261977 4.12641 63.8934
5251404 11.1865 11.9718 21.095 19.6401 -0.261977 4.12641 63.8934
5251414 11.1601 11.9442 21.095 19.6791 -0.247259 4.14923 63.8784
5251424 11.1161 11.9626 21.1147 19.6499 -0.242092 4.1553 63.8432
5251445 11.1161 11.981 21.1343 19.7181 -0.215523 4.16468 63.9495
5251456 11.1249 12.0363 21.2032 19.6401 -0.254555 4.14397 64.0045
5251477 11.1601 11.9718 21.1147 19.6693 -0.247817 4.14264 63.9159
5251486 11.1249 11.9902 21.2032 19.6401 -0.272736 4.15775 63.9585
5251506 11.1249 11.9902 21.154 19.7278 -0.219092 4.16427 63.9969
5251517 11.1249 11.9902 21.154 19.7278 -0.219092 4.16427 63.9969
5251525 11.1073 11.9718 21.1737 19.6596 -0.254072 4.16685 63.9124
5251535 11.1161 11.9995 21.1737 19.7181 -0.223513 4.16583 64.0073
5251546 11.1161 11.9995 21.1737 19.7181 -0.223513 4.16583 64.0073
5251556 11.1425 11.9626 21.2032 19.7181 -0.259678 4.17395 64.0264
5251566 11.0456 11.9626 21.1639 19.7181 -0.206913 4.19635 63.8901
5251576 11.0456 11.9258 21.1639 19.7278 -0.217609 4.20907 63.863
5251586 11.0632 11.981 21.1836 19.7668 -0.194924 4.19709 63.9946
5251596 11.0632 11.981 21.1836 19.7668 -0.194924 4.19709 63.9946
5251606 11.0368 11.9166 21.2229 19.7473 -0.233039 4.22774 63.9236
5251617 11.0104 11.8982 21.2328 19.7862 -0.2185 4.24946 63.9275
5251637 11.0632 11.9166 21.2426 19.7765 -0.239359 4.22804 63.9989
5251657 11.0016 11.8889 21.3017 19.7862 -0.24541 4.26646 63.9784
5251667 11.0016 11.935 21.282 19.7668 -0.227316 4.24602 63.9853
5251691 11.0104 11.8797 21.1934 19.796 -0.206654 4.25002 63.8795
5251701 11.0192 11.8797 21.3115 19.7668 -0.267358 4.26231 63.9772
5251708 11.0192 11.8797 21.3115 19.7668 -0.267358 4.26231 63.9772
5251720 10.9751 11.8429 21.3312 19.796 -0.260945 4.29489 63.9452
5251728 10.9663 11.8429 21.3607 19.7862 -0.272807 4.30086 63.9562
5251741 10.9663 11.8337 21.3607 19.7862 -0.276448 4.30364 63.947
5251748 10.9663 11.8705 21.4592 19.8739 -0.265329 4.32358 64.17
5251763 10.9663 11.8705 21.4592 19.8739 -0.265329 4.32358 64.17
5251772 10.9663 11.7784 21.41 19.9226 -0.263432 4.35127 64.0774
5251784 10.9135 11.7969 21.41 19.8934 -0.247277 4.35681 64.0137
5251789 10.9135 11.7969 21.41 19.8934 -0.247277 4.35681 64.0137
5251799 10.9487 11.8153 21.41 19.9616 -0.226778 4.35194 64.1355
5251809 10.8959 11.7508 21.4296 19.8934 -0.266252 4.37935 63.9697
5251821 10.8959 11.7508 21.4296 19.8934 -0.266252 4.37935 63.9697
5251829 10.9575 11.6863 21.4198 19.8252 -0.338775 4.36723 63.8889
5251843 10.9575 11.6863 21.4198 19.8252 -0.338775 4.36723 63.8889
5251849 10.8959 11.6956 21.469 19.835 -0.326456 4.39294 63.8954
5251862 10.8782 11.6679 21.3509 19.8837 -0.265573 4.39515 63.7807
5251880 10.8166 11.5943 21.3903 19.9421 -0.262959 4.4526 63.7432
5251892 10.7813 11.5298 21.4789 19.9908 -0.289893 4.50572 63.7808
5251909 10.8254 11.585 21.5182 20.059 -0.273317 4.49309 63.9877
5251924 10.8254 11.585 21.5182 20.059 -0.273317 4.49309 63.9877
5251929 10.8166 11.5666 21.5379 20.098 -0.269407 4.51101 64.0191
5251943 10.8518 11.5758 21.597 20.1272 -0.290616 4.51192 64.1519
5251949 10.8518 11.5758 21.597 20.1272 -0.290616 4.51192 64.1519
5251959 10.8694 11.5666 21.597 20.1759 -0.281838 4.51732 64.209
5251969 10.8694 11.5666 21.597 20.1759 -0.281838 4.51732 64.209
5251979 10.8254 11.539 21.7446 20.2246 -0.313362 4.57106 64.3337
5251990 10.7902 11.5114 21.6462 20.2441 -0.265168 4.5774 64.1919
5252000 10.7902 11.5114 21.6462 20.2441 -0.265168 4.5774 64.1919
5252010 10.7637 11.4837 21.6462 20.1662 -0.296599 4.58124 64.0599
5252020 10.7549 11.4285 21.6364 20.1759 -0.307387 4.60083 63.9957
5252032 10.7549 11.4285 21.6364 20.1759 -0.307387 4.60083 63.9957
5252040 10.7813 11.4377 21.6265 20.1272 -0.329417 4.58039 63.9728
5252051 10.7373 11.3917 21.6561 20.1857 -0.318906 4.6223 63.9707
5252061 10.7373 11.3917 21.6561 20.1857 -0.318906 4.6223 63.9707
5252071 10.7637 11.4285 21.7643 20.2831 -0.317746 4.6362 64.2397
5252081 10.7637 11.4285 21.7643 20.2831 -0.317746 4.6362 64.2397
5252092 10.7109 11.3732 21.6856 20.3026 -0.281185 4.65975 64.0723
5252102 10.7285 11.2996 21.7742 20.3026 -0.351192 4.69123 64.1048
5252112 10.7285 11.2996 21.7742 20.3026 -0.351192 4.69123 64.1048
5252122 10.7021 11.3272 21.7939 20.2831 -0.345382 4.69089 64.1062
5252133 10.6404 11.3088 21.7643 20.3221 -0.302137 4.71703 64.0356
5252143 10.6404 11.3088 21.7643 20.3221 -0.302137 4.71703 64.0356
5252153 10.6668 11.2719 21.7939 20.3221 -0.338265 4.72498 64.0547
5252163 10.6668 11.2719 21.7939 20.3221 -0.338265 4.72498 64.0547
5252173 10.6228 11.2535 21.7742 20.3026 -0.328708 4.73795 63.9531
5252183 10.658 11.2996 21.7446 20.2636 -0.328103 4.70188 63.9659
5252203 10.7197 11.318 21.7053 20.3026 -0.313991 4.67718 64.0455
5252214 10.7197 11.3824 21.6954 20.2246 -0.315525 4.64322 64.0222
5252234 10.6845 11.3548 21.7742 20.2441 -0.33551 4.67838 64.0576
5252256 10.7197 11.364 21.7643 20.3123 -0.314708 4.67413 64.1604
5252265 10.7109 11.3272 21.6659 20.3026 -0.291768 4.67071 64.0065
5252279 10.7109 11.3272 21.6659 20.3026 -0.291768 4.67071 64.0065
5252284 10.7461 11.3917 21.7643 20.2928 -0.321658 4.65443 64.1949
5252294 10.7725 11.3917 21.7053 20.2636 -0.320636 4.63209 64.1331
5252305 10.7725 11.3917 21.7053 20.2636 -0.320636 4.63209 64.1331
5252315 10.7373 11.3824 21.6757 20.2246 -0.314727 4.63463 64.0201
5252324 10.7373 11.3824 21.6757 20.2246 -0.314727 4.63463 64.0201
5252334 10.7197 11.3824 21.6462 20.2052 -0.30424 4.63209 63.9535
5252347 10.7197 11.4285 21.597 20.1564 -0.286274 4.60205 63.9016
5252364 10.8078 11.4285 21.597 20.1857 -0.308736 4.57983 64.0189
5252374 10.7725 11.4193 21.6561 20.2149 -0.310011 4.60777 64.0628
5252384 10.7725 11.4193 21.6561 20.2149 -0.310011 4.60777 64.0628
5252396 10.7902 11.4745 21.6265 20.2636 -0.264408 4.58861 64.1548
5252406 10.7902 11.4745 21.6265 20.2636 -0.264408 4.58861 64.1548
5252416 10.7461 11.4377 21.6364 20.2052 -0.288801 4.60545 64.0253
5252425 10.7461 11.4193 21.6856 20.2831 -0.284292 4.63169 64.1341
5252439 10.7461 11.4193 21.6856 20.2831 -0.284292 4.63169 64.1341
5252447 10.7637 11.4285 21.6265 20.2734 -0.268523 4.61234 64.0921
5252457 10.7373 11.4285 21.6659 20.3221 -0.25433 4.63468 64.1538
5252477 10.7725 11.493 21.5379 20.2636 -0.216138 4.57397 64.067
5252487 10.6933 11.3364 21.6265 20.2636 -0.281514 4.66063 63.9198
5252497 10.6933 11.3364 21.6265 20.2636 -0.281514 4.66063 63.9198
5252509 10.6668 11.4101 21.6265 20.1954 -0.269124 4.63506 63.8989
5252518 10.6668 11.4101 21.6265 20.1954 -0.269124 4.63506 63.8989
5252530 10.6756 11.4285 21.5675 20.2149 -0.234677 4.62028 63.8865
5252538 10.7285 11.4285 21.6757 20.3415 -0.24706 4.64212 64.1743
5252553 10.7285 11.4285 21.6757 20.3415 -0.24706 4.64212 64.1743
5252558 10.6756 11.4193 21.725 20.3415 -0.249283 4.66906 64.1614
5252568 10.6668 11.3824 21.6954 20.3026 -0.26435 4.67203 64.0473
5252578 10.6668 11.3824 21.6954 20.3026 -0.26435 4.67203 64.0473
5252588 10.6933 11.4009 21.6757 20.2539 -0.27891 4.64721 64.0237
5252599 10.6933 11.4009 21.6757 20.2539 -0.27891 4.64721 64.0237
5252608 10.6668 11.4285 21.6856 20.2636 -0.257757 4.65001 64.0445
5252622 10.7109 11.3917 21.6462 20.2734 -0.270252 4.64301 64.0221
5252646 10.7373 11.4653 21.597 20.1662 -0.274667 4.58695 63.9658
5252651 10.7197 11.4101 21.6068 20.1954 -0.281951 4.61564 63.932
5252660 10.7197 11.4101 21.6068 20.1954 -0.281951 4.61564 63.932
5252670 10.7461 11.5022 21.5478 20.1467 -0.252183 4.56178 63.9428
5252679 10.7461 11.5022 21.5478 20.1467 -0.252183 4.56178 63.9428
5252691 10.7549 11.4653 21.5871 20.1662 -0.277673 4.57996 63.9736
5252699 10.799 11.539 21.5379 20.1662 -0.246595 4.53596 64.0421
5252723 10.799 11.539 21.5379 20.1662 -0.246595 4.53596 64.0421
5252726 10.8342 11.5482 21.469 20.1077 -0.253001 4.50155 63.9592
5252731 10.8166 11.6035 21.4296 20.0688 -0.224502 4.4772 63.9185
5252742 10.8166 11.6035 21.4296 20.0688 -0.224502 4.4772 63.9185
5252750 10.843 11.6219 21.4592 20.1077 -0.223546 4.47481 64.0318
5252762 10.843 11.6219 21.4887 20.1077 -0.234966 4.47966 64.0613
5252772 10.8606 11.6035 21.4887 20.0883 -0.256714 4.47671 64.041
5252783 10.8782 11.6035 21.4493 20.0883 -0.248304 4.46488 64.0193
5252792 10.8782 11.6035 21.4493 20.0883 -0.248304 4.46488 64.0193
5252802 10.887 11.6035 21.469 20.0201 -0.286241 4.45421 63.9796
5252812 10.8694 11.6311 21.4395 20.0785 -0.234041 4.45593 64.0185
5252822 10.8694 11.6311 21.4395 20.0785 -0.234041 4.45593 64.0185
5252832 10.8694 11.6403 21.5084 20.0883 -0.253201 4.46607 64.1064
5252844 10.8694 11.5758 21.5084 20.0493 -0.294012 4.47926 64.003
5252853 10.8694 11.5758 21.5084 20.0493 -0.294012 4.47926 64.003
5252864 10.8782 11.6035 21.4789 20.059 -0.271249 4.46493 64.0196
5252873 10.8782 11.6035 21.4789 20.059 -0.271249 4.46493 64.0196
5252887 10.8166 11.493 21.5379 20.0883 -0.302373 4.53189 63.9357
5252893 10.8166 11.5298 21.6068 20.0883 -0.314392 4.53192 64.0415
5252916 10.7902 11.5298 21.5773 20.0688 -0.30051 4.53197 63.966
5252923 10.7461 11.493 21.6068 20.059 -0.31334 4.55993 63.9049
5252933 10.7461 11.493 21.6068 20.059 -0.31334 4.55993 63.9049
5252943 10.7725 11.4653 21.6364 20.0785 -0.338165 4.5683 63.9527
5252955 10.7725 11.4653 21.6364 20.0785 -0.338165 4.5683 63.9527
5252964 10.6492 11.4101 21.6561 20.1272 -0.300731 4.6342 63.8426
5252975 10.6845 11.3917 21.7446 20.2441 -0.309573 4.6623 64.0649
5252997 10.6668 11.3364 21.784 20.2636 -0.332098 4.69417 64.0509
5253004 10.6228 11.318 21.8431 20.3805 -0.29899 4.7416 64.1644
5253017 10.6228 11.318 21.8431 20.3805 -0.29899 4.7416 64.1644
5253024 10.6316 11.2904 21.8332 20.4487 -0.282605 4.75672 64.2039
5253034 10.6316 11.2904 21.8332 20.4487 -0.282605 4.75672 64.2039
5253044 10.6228 11.2627 21.9317 20.4097 -0.343312 4.77741 64.2269
5253062 10.6228 11.2904 21.8825 20.4195 -0.309666 4.76262 64.2151
5253065 10.6228 11.2904 21.8825 20.4195 -0.309666 4.76262 64.2151
5253076 10.5964 11.2996 21.7939 20.3513 -0.288635 4.74286 64.0411
5253087 10.5611 11.2811 21.8529 20.2636 -0.339793 4.75484 63.9588
5253099 10.5611 11.2811 21.8529 20.2636 -0.339793 4.75484 63.9588
5253107 10.6404 11.2996 21.8529 20.2734 -0.359166 4.72627 64.0663
5253120 10.5788 11.3364 21.7742 20.2831 -0.286621 4.72284 63.9724
5253127 10.5788 11.3364 21.7742 20.2831 -0.286621 4.72284 63.9724
5253142 10.5788 11.2996 21.8332 20.3805 -0.28549 4.75927 64.0921
5253148 10.5788 11.2996 21.8332 20.3805 -0.28549 4.75927 64.0921
5253158 10.6052 11.3088 21.8529 20.361 -0.307316 4.74832 64.1279
5253169 10.6316 11.3364 21.8825 20.3805 -0.310265 4.73953 64.231
5253178 10.6316 11.3364 21.8825 20.3805 -0.310265 4.73953 64.231
5253188 10.5699 11.2627 21.8726 20.2831 -0.350352 4.76407 63.9884
5253198 10.5788 11.2904 21.8234 20.4 -0.277643 4.76365 64.0925
5253208 10.5788 11.2904 21.8234 20.4 -0.277643 4.76365 64.0925
5253218 10.5611 11.2443 21.8332 20.4292 -0.28128 4.78953 64.0679
5253228 10.5611 11.2443 21.8332 20.4292 -0.28128 4.78953 64.0679
5253238 10.5083 11.2351 21.8529 20.3805 -0.291353 4.80409 63.9768
5253248 10.5699 11.2719 21.8234 20.3415 -0.304598 4.76271 64.0068
5253258 10.5699 11.2719 21.8234 20.3415 -0.304598 4.76271 64.0068
5253269 10.5523 11.2443 21.9218 20.3903 -0.32741 4.80015 64.1087
5253279 10.5523 11.2443 21.9218 20.4585 -0.300497 4.81099 64.1769
5253289 10.5523 11.2443 21.9218 20.4585 -0.300497 4.81099 64.1769
5253299 10.5171 11.2904 21.971 20.5169 -0.264749 4.82472 64.2954
5253309 10.5171 11.2904 21.971 20.5169 -0.264749 4.82472 64.2954
5253319 10.4907 11.2167 22.0006 20.4779 -0.310282 4.85414 64.1859
5253329 10.4907 11.1522 22.0006 20.4682 -0.33958 4.87256 64.1117
5253351 10.4907 11.1798 21.971 20.5072 -0.30192 4.86549 64.1487
5253359 10.429 11.1154 21.9514 20.439 -0.322993 4.89075 63.9347
5253372 10.429 11.1154 21.9514 20.439 -0.322993 4.89075 63.9347
5253379 10.4554 11.1522 21.912 20.4585 -0.295708 4.86794 63.9781
5253392 10.4554 11.1522 21.912 20.4585 -0.295708 4.86794 63.9781
5253399 10.4907 11.1246 21.912 20.4877 -0.308673 4.87021 64.0149
5253409 10.4202 11.1891 21.8923 20.4682 -0.256078 4.86587 63.9698
5253420 10.4202 11.1891 21.8923 20.4682 -0.256078 4.86587 63.9698
5253429 10.5435 11.2535 21.8923 20.4877 -0.27059 4.81082 64.177
5253440 10.4819 11.2535 21.9021 20.5461 -0.227609 4.84069 64.1837
5253449 10.4819 11.1614 21.9021 20.5461 -0.263859 4.8692 64.0916
5253462 10.4642 11.2719 21.912 20.5461 -0.217374 4.842 64.1943
5253469 10.4642 11.2719 21.912 20.5461 -0.217374 4.842 64.1943
5253485 10.4819 11.2535 21.8726 20.4877 -0.239202 4.82675 64.0957
5253491 10.4907 11.3088 21.8234 20.5266 -0.186536 4.80532 64.1495
5253501 10.4907 11.3088 21.8234 20.5266 -0.186536 4.80532 64.1495
5253511 10.5171 11.2351 21.8923 20.4585 -0.279178 4.82003 64.103
5253520 10.5083 11.2351 21.8037 20.4292 -0.253087 4.80401 63.9763
5253544 10.5083 11.1983 21.8037 20.4292 -0.267637 4.81542 63.9395
5253546 10.4819 11.2627 21.8628 20.4682 -0.239444 4.81924 64.0756
5253556 10.4819 11.2627 21.8628 20.4682 -0.239444 4.81924 64.0756
5253562 10.4642 11.1891 21.9317 20.4974 -0.27677 4.86306 64.0824
5253570 10.4731 11.2167 21.9317 20.5461 -0.250092 4.85948 64.1675
5253580 10.4731 11.2167 21.9317 20.5461 -0.250092 4.85948 64.1675
5253592 10.5259 11.2535 21.912 20.5656 -0.240736 4.83173 64.257
5253602 10.4202 11.2535 21.8726 20.5072 -0.207691 4.84893 64.0535
5253612 10.4202 11.1798 21.8726 20.5072 -0.236718 4.87178 63.9798
5253624 10.4554 11.1891 21.912 20.4974 -0.265771 4.86268 64.0539
5253642 10.4114 11.1983 21.8628 20.4779 -0.23376 4.86261 63.9504
5253652 10.4907 11.2443 21.912 20.4292 -0.284477 4.82384 64.0762
5253662 10.4907 11.2443 21.912 20.4292 -0.284477 4.82384 64.0762
5253673 10.4907 11.2351 21.9612 20.4585 -0.295548 4.83913 64.1454
5253701 10.3938 11.1614 21.8825 20.4877 -0.245258 4.88419 63.9253
5253704 10.4466 11.1891 22.0006 20.4877 -0.300387 4.87787 64.1239
5253712 10.4466 11.1891 22.0006 20.4877 -0.300387 4.87787 64.1239
5253722 10.4995 11.1338 21.9612 20.4974 -0.323544 4.87394 64.0919
5253741 10.4554 11.2259 21.9907 20.5559 -0.258616 4.87294 64.228
5253743 10.4554 11.2259 21.9907 20.5559 -0.258616 4.87294 64.228
5253752 10.4466 11.1983 21.9415 20.4779 -0.277825 4.86415 64.0644
5253763 10.4466 11.1983 21.9415 20.4779 -0.277825 4.86415 64.0644
5253772 10.3674 11.1983 21.9415 20.5364 -0.224152 4.89798 64.0435
5253786 10.4642 11.1522 21.971 20.4974 -0.306489 4.88071 64.0849
5253802 10.3938 11.1522 21.9514 20.4585 -0.287102 4.89333 63.9558
5253812 10.4554 11.1891 22.0006 20.4779 -0.307621 4.8736 64.123
5253822 10.4554 11.1891 22.0006 20.4779 -0.307621 4.8736 64.123
5253832 10.4554 11.1522 22.0104 20.5364 -0.302882 4.8958 64.1545
5253842 10.4554 11.1522 22.0104 20.5364 -0.302882 4.8958 64.1545
5253857 10.429 11.1706 22.0006 20.5559 -0.273976 4.8998 64.1561
5253862 10.4819 11.1338 22.0301 20.5266 -0.331733 4.89488 64.1724
5253872 10.4819 11.1338 22.0301 20.5266 -0.331733 4.89488 64.1724
5253882 10.4202 11.1891 21.9907 20.5072 -0.278722 4.88759 64.1072
5253892 10.4026 11.143 21.9514 20.4779 -0.286441 4.89654 63.9749
5253903 10.4026 11.143 21.9514 20.4779 -0.286441 4.89654 63.9749
5253913 10.4466 11.1706 22.0104 20.4585 -0.322987 4.88052 64.0861
5253933 10.4466 11.2075 22.0006 20.5072 -0.285439 4.87524 64.1618
5253948 10.4466 11.2167 21.971 20.4877 -0.278108 4.86465 64.122
5253953 10.4466 11.2167 21.971 20.4877 -0.278108 4.86465 64.122
5253963 10.429 11.1891 21.9612 20.4877 -0.278415 4.87712 64.067
5253973 10.429 11.1614 21.9612 20.4292 -0.312424 4.87645 63.9809
5253983 10.429 11.1614 21.9612 20.4292 -0.312424 4.87645 63.9809
5253995 10.4378 11.1706 21.9218 20.361 -0.323981 4.8538 63.8913
5254004 10.4378 11.1706 21.9218 20.361 -0.323981 4.8538 63.8913
5254015 10.4642 11.1983 21.7939 20.3415 -0.281471 4.81353 63.7979
5254024 10.4114 11.1246 21.8234 20.3708 -0.29006 4.86226 63.7302
5254044 10.4907 11.2351 21.8726 20.3805 -0.292154 4.81268 63.9789
5254056 10.3938 11.2075 21.8628 20.3903 -0.257938 4.8513 63.8543
5254074 10.5171 11.2996 22.0006 20.4 -0.318494 4.80803 64.2172
5254084 10.5171 11.2996 22.0006 20.4 -0.318494 4.80803 64.2172
5254094 10.5083 11.3917 21.9612 20.3903 -0.267534 4.77457 64.2514
5254104 10.5523 11.4285 21.8726 20.3123 -0.266548 4.72311 64.1658
5254117 10.5523 11.4285 21.8726 20.3123 -0.266548 4.72311 64.1658
5254124 10.5964 11.539 21.7545 20.2246 -0.22897 4.64257 64.1145
5254134 10.6052 11.539 21.7643 20.1564 -0.26304 4.63044 64.065
5254147 10.6052 11.493 21.7643 20.1564 -0.28121 4.64456 64.0189
5254159 10.6668 11.6035 21.725 20.1564 -0.246245 4.58548 64.1517
5254164 10.6668 11.6035 21.725 20.1564 -0.246245 4.58548 64.1517
5254176 10.6228 11.6587 21.5675 20.059 -0.18484 4.5405 63.908
5254184 10.6492 11.6403 21.597 20.1077 -0.194615 4.55085 63.9942
5254194 10.6492 11.6403 21.597 20.1077 -0.194615 4.55085 63.9942
5254207 10.7021 11.6403 21.597 20.0785 -0.226596 4.52993 64.0179
5254214 10.7021 11.6403 21.597 20.0785 -0.226596 4.52993 64.0179
5254224 10.6933 11.6219 21.6561 20.0298 -0.272506 4.53994 64.001
5254234 10.658 11.6956 21.6659 20.0785 -0.21446 4.53777 64.098
5254247 10.658 11.6956 21.6659 20.0785 -0.21446 4.53777 64.098
5254254 10.6933 11.6771 21.6856 20.098 -0.235257 4.53904 64.154
5254264 10.7021 11.6863 21.6757 20.0785 -0.238903 4.52877 64.1427
5254285 10.7021 11.6771 21.6561 20.059 -0.242594 4.52518 64.0943
5254296 10.7021 11.6771 21.6561 20.059 -0.242594 4.52518 64.0943
5254306 10.6492 11.6219 21.5871 20.0103 -0.236489 4.53893 63.8686
5254316 10.6933 11.6495 21.6068 19.9713 -0.265655 4.51387 63.921
5254325 10.6933 11.6495 21.6068 19.9713 -0.265655 4.51387 63.921
5254343 10.7285 11.5943 21.6068 20.0006 -0.289574 4.52478 63.9302
5254345 10.7285 11.6403 21.5871 20.0103 -0.259912 4.50909 63.9663
5254359 10.7285 11.6403 21.5871 20.0103 -0.259912 4.50909 63.9663
5254367 10.7373 11.6679 21.597 20.0298 -0.248535 4.5028 64.032
5254377 10.7373 11.6219 21.5871 19.9713 -0.285999 4.50563 63.9177
5254397 10.7549 11.6771 21.6462 19.9713 -0.293772 4.49312 64.0496
5254407 10.7549 11.6771 21.6462 19.9713 -0.293772 4.49312 64.0496
5254417 10.8166 11.6679 21.5478 19.8934 -0.314042 4.44813 63.9257
5254428 10.7461 11.6863 21.5773 19.9421 -0.271669 4.47687 63.9519
5254448 10.8254 11.7784 21.5576 19.8739 -0.285247 4.41031 64.0354
5254458 10.9047 11.76 21.5576 19.8544 -0.33078 4.38865 64.0767
5254478 10.8254 11.76 21.6068 19.835 -0.326912 4.41758 64.0272
5254490 10.8254 11.76 21.6068 19.835 -0.326912 4.41758 64.0272
5254498 10.9047 11.8613 21.5773 19.8057 -0.317585 4.35324 64.149
5254511 10.8694 11.8797 21.5084 19.8155 -0.26634 4.34848 64.073
5254518 10.8694 11.8797 21.5084 19.8155 -0.26634 4.34848 64.073
5254534 10.9047 11.9258 21.4296 19.7473 -0.258268 4.29946 64.0074
5254538 10.8694 11.8982 21.4592 19.7375 -0.270821 4.32174 63.9643
5254550 10.8694 11.8982 21.4592 19.7375 -0.270821 4.32174 63.9643
5254568 10.8694 11.9626 21.4296 19.7083 -0.245483 4.29246 63.97
5254570 10.8694 11.9626 21.4296 19.7083 -0.245483 4.29246 63.97
5254579 10.9311 11.8797 21.4296 19.6888 -0.309786 4.2956 63.9293
5254589 10.887 11.9626 21.4395 19.7375 -0.244579 4.29368 64.0267
5254609 10.9223 11.9442 21.3804 19.7278 -0.246468 4.2771 63.9747
5254620 10.9135 11.9442 21.3903 19.7083 -0.254562 4.27814 63.9563
5254629 10.9135 11.9442 21.3903 19.7083 -0.254562 4.27814 63.9563
5254643 10.9751 11.9534 21.4198 19.6693 -0.301547 4.25522 64.0177
5254661 10.8959 11.9534 21.4198 19.6693 -0.270927 4.27909 63.9384
5254671 10.9575 11.9258 21.4887 19.7473 -0.301453 4.29341 64.1193
5254680 10.9575 11.9258 21.4887 19.7473 -0.301453 4.29341 64.1193
5254691 10.9663 11.9258 21.3903 19.7278 -0.274573 4.27103 64.0102
5254701 10.9487 11.9626 21.4592 19.7862 -0.256799 4.28656 64.1568
5254721 10.9663 11.9442 21.469 19.8155 -0.263131 4.29332 64.195
5254733 10.9663 11.9442 21.469 19.8155 -0.263131 4.29332 64.195
5254742 10.9223 11.9442 21.3607 19.7083 -0.246541 4.27053 63.9355
5254755 10.887 11.8889 21.3706 19.6888 -0.266257 4.29622 63.8354
5254762 10.887 11.8889 21.3706 19.6888 -0.266257 4.29622 63.8354
5254772 10.8959 11.935 21.3411 19.6401 -0.259277 4.26651 63.812
5254782 10.9487 11.9534 21.3017 19.6986 -0.234109 4.24823 63.9024
5254792 10.9487 11.9534 21.3017 19.6986 -0.234109 4.24823 63.9024
5254802 10.9223 11.9902 21.3706 19.7083 -0.232181 4.25831 63.9914
5254822 10.887 11.9718 21.3607 19.6791 -0.233525 4.26791 63.8987
5254832 10.9487 12.0179 21.3411 19.7278 -0.212418 4.24037 64.0354
5254853 11.0104 12.0363 21.3115 19.6693 -0.240621 4.20152 64.0275
5254863 10.9223 11.9534 21.3115 19.6888 -0.23153 4.25621 63.876
5254873 10.9223 11.9534 21.3115 19.6888 -0.23153 4.25621 63.876
5254886 10.9663 12.0547 21.3017 19.6888 -0.204833 4.21083 64.0115
5254893 10.9663 12.0547 21.3017 19.6888 -0.204833 4.21083 64.0115
5254907 10.8959 12.0087 21.2328 19.6206 -0.195792 4.22274 63.7579
5254913 10.9839 11.981 21.3214 19.7181 -0.236784 4.23591 64.0044
5254923 10.9839 11.981 21.3214 19.7181 -0.236784 4.23591 64.0044
5254934 11.0192 12.0271 21.2918 19.6693 -0.240041 4.19832 64.0074
5254944 10.9575 12.0547 21.41 19.6888 -0.243305 4.2317 64.111
5254970 11.028 12.0639 21.2623 19.7473 -0.186844 4.19281 64.1015
5254979 10.9839 12.0271 21.2426 19.6499 -0.215018 4.19729 63.9035
5254992 10.9839 12.0271 21.2426 19.6499 -0.215018 4.19729 63.9035
5254995 10.9927 12.0823 21.2623 19.6206 -0.215799 4.17645 63.958
5255015 11.0016 12.0639 21.1639 19.6401 -0.180596 4.16596 63.8695
5255025 11.0192 12.0639 21.1737 19.6109 -0.202791 4.15738 63.8677
5255045 11.0632 12.0915 21.1639 19.5524 -0.228232 4.1243 63.8711
5255055 11.0104 12.1284 21.154 19.533 -0.19704 4.12409 63.8257
5255077 11.0632 12.1284 21.1836 19.533 -0.229013 4.11331 63.9081
5255103 11.0368 12.0823 21.1737 19.5622 -0.221589 4.1383 63.855
5255117 11.0544 12.1468 21.2032 19.5914 -0.202918 4.12373 63.9959
5255127 11.072 12.1468 21.2032 19.5914 -0.209743 4.11847 64.0135
5255137 11.0984 12.2205 21.1442 19.5622 -0.179607 4.07357 64.0253
5255159 11.1425 12.2113 21.1836 19.5427 -0.22319 4.0666 64.08
5255172 11.1425 12.2113 21.1836 19.5427 -0.22319 4.0666 64.08
5255177 11.1073 12.1284 21.0654 19.5037 -0.211808 4.07497 63.8048
5255188 11.1513 12.2021 21.154 19.5524 -0.214966 4.06334 64.0598
5255200 11.1513 12.2021 21.154 19.5524 -0.214966 4.06334 64.0598
5255208 11.0984 12.1744 21.0851 19.5817 -0.167139 4.08054 63.9397
5255220 11.1337 12.1652 21.1639 19.494 -0.24952 4.07126 63.9567
5255240 11.1073 12.2205 21.1048 19.4745 -0.202279 4.04922 63.907
5255248 11.1073 12.2205 21.1048 19.4745 -0.202279 4.04922 63.907
5255261 11.072 12.156 21.1442 19.5622 -0.194737 4.10069 63.9344
5255268 11.1689 12.2389 21.2131 19.5524 -0.230107 4.05723 64.1733
5255289 11.1073 12.1836 21.095 19.494 -0.205304 4.06186 63.8798
5255303 11.072 12.2021 21.154 19.533 -0.191925 4.08363 63.9611
5255309 11.072 12.2021 21.154 19.533 -0.191925 4.08363 63.9611
5255323 11.1073 12.2205 21.1048 19.4745 -0.202279 4.04922 63.907
5255329 11.1073 12.2205 21.1048 19.4745 -0.202279 4.04922 63.907
5255339 11.0896 12.1468 21.1147 19.494 -0.220653 4.08149 63.8451
5255349 11.1161 12.1836 21.0753 19.4842 -0.204927 4.05419 63.8592
5255369 11.1249 12.1468 21.095 19.494 -0.226684 4.06759 63.8606
5255379 11.0808 12.2113 21.1343 19.494 -0.199431 4.06824 63.9204
5255390 11.0808 12.2113 21.1343 19.494 -0.199431 4.06824 63.9204
5255400 11.0896 12.1928 21.0753 19.5622 -0.160311 4.07266 63.9199
5255411 11.1425 12.2205 21.0851 19.5719 -0.169951 4.05203 64.02
5255431 11.1601 12.1836 21.1343 19.5817 -0.206502 4.06783 64.0597
5255441 11.1601 12.1836 21.1343 19.5817 -0.206502 4.06783 64.0597
5255451 11.072 12.1652 21.095 19.5427 -0.179675 4.08621 63.8749
5255461 11.1161 12.1468 21.1245 19.4842 -0.238568 4.07361 63.8716
5255474 11.1161 12.1468 21.1245 19.4842 -0.238568 4.07361 63.8716
5255482 11.1425 12.1836 21.1343 19.5622 -0.207351 4.06974 64.0226
5255492 11.0984 12.1376 21.1343 19.5719 -0.204587 4.09828 63.9423
5255512 11.0632 12.1284 21.1147 19.6206 -0.167711 4.1165 63.9269
5255532 11.0632 12.0731 21.1343 19.6011 -0.204813 4.13307 63.8718
5255542 11.0984 12.2297 21.1737 19.5817 -0.179772 4.07918 64.0835
5255554 11.0984 12.2297 21.1737 19.5817 -0.179772 4.07918 64.0835
5255562 11.0808 12.1652 21.2426 19.6206 -0.20964 4.12199 64.1093
5255572 11.0456 12.1192 21.2032 19.5719 -0.218071 4.13131 63.9399
5255592 11.0456 12.1192 21.2032 19.5719 -0.218071 4.13131 63.9399
5255600 11.0984 12.11 21.2426 19.6304 -0.234357 4.13488 64.0814
5255604 11.0984 12.11 21.2426 19.6304 -0.234357 4.13488 64.0814
5255613 11.0632 12.1008 21.2426 19.5914 -0.239721 4.14155 63.998
5255628 10.9839 12.0455 21.2721 19.5817 -0.246121 4.18522 63.8833
5255644 11.0456 12.0547 21.2721 19.5524 -0.277905 4.15901 63.9249
5255653 11.0544 12.0547 21.2918 19.6011 -0.269672 4.16795 64.0021
5255666 11.0544 12.0547 21.2918 19.6011 -0.269672 4.16795 64.0021
5255673 11.0368 11.9902 21.2918 19.5232 -0.319213 4.17938 63.8421
5255688 11.0368 11.9902 21.2918 19.5232 -0.319213 4.17938 63.8421
5255694 10.9927 11.9902 21.3509 19.5817 -0.301856 4.21249 63.9156
5255704 11.0016 11.9258 21.3903 19.6109 -0.334418 4.24079 63.9285
5255718 11.0016 11.9258 21.3903 19.6109 -0.334418 4.24079 63.9285
5255724 11.0456 11.9534 21.3509 19.6304 -0.317562 4.21589 63.9803
5255735 10.9663 11.9534 21.4296 19.7181 -0.282709 4.26768 64.0674
5255744 10.9663 11.9534 21.4296 19.7181 -0.282709 4.26768 64.0674
5255754 10.9839 11.9074 21.469 19.7375 -0.315166 4.28608 64.0979
5255764 10.9839 11.9074 21.469 19.7375 -0.315166 4.28608 64.0979
5255776 10.9135 11.7876 21.5182 19.6304 -0.396903 4.33381 63.8497
5255784 10.9311 11.7784 21.5773 19.8155 -0.356646 4.3719 64.1023
5255804 10.9047 11.7876 21.5675 19.835 -0.331351 4.3787 64.0947
5255814 10.8606 11.7232 21.6265 19.7862 -0.381938 4.41327 63.9966
5255836 10.8518 11.6956 21.6954 19.796 -0.41213 4.43732 64.0388
5255846 10.8518 11.6956 21.6954 19.796 -0.41213 4.43732 64.0388
5255856 10.8254 11.6771 21.6364 19.835 -0.371112 4.44763 63.9739
5255867 10.8078 11.6956 21.7643 19.8837 -0.38693 4.47645 64.1513
5255888 10.8254 11.6679 21.7446 19.8642 -0.404792 4.47306 64.1021
5255897 10.7549 11.6587 21.7446 19.8739 -0.37751 4.49889 64.0322
5255911 10.7549 11.6587 21.7446 19.8739 -0.37751 4.49889 64.0322
5255917 10.7637 11.6679 21.7348 19.8934 -0.365749 4.49499 64.0599
5255937 10.7725 11.6311 21.784 19.8642 -0.414227 4.5068 64.0518
5255947 10.8342 11.6863 21.725 19.9129 -0.374039 4.46956 64.1584
5255968 10.799 11.6311 21.6659 19.8252 -0.39445 4.47294 63.9212
5255978 10.7637 11.6863 21.6659 19.8252 -0.358948 4.46685 63.9412
5256001 10.7637 11.6863 21.6659 19.8252 -0.358948 4.46685 63.9412
5256003 10.8078 11.7048 21.7151 19.8544 -0.375953 4.46077 64.0821
5256008 10.7461 11.7048 21.6757 19.8544 -0.337072 4.47303 63.9811
5256018 10.7461 11.714 21.6757 19.8057 -0.352722 4.46221 63.9416
5256028 10.8166 11.6495 21.5773 19.796 -0.371395 4.44252 63.8394
5256049 10.8518 11.6311 21.6462 19.7862 -0.422698 4.44718 63.9154
5256058 10.8606 11.6956 21.7053 19.7181 -0.450255 4.4234 63.9795
5256068 10.8606 11.6956 21.7053 19.7181 -0.450255 4.4234 63.9795
5256078 10.8518 11.7692 21.6167 19.7278 -0.379683 4.39067 63.9655
5256089 10.8518 11.7692 21.6167 19.7278 -0.379683 4.39067 63.9655
5256101 10.8518 11.7324 21.6068 19.6791 -0.409883 4.39212 63.8701
5256111 10.8782 11.7969 21.6167 19.7668 -0.363454 4.38076 64.0585
5256119 10.8782 11.7969 21.6167 19.7668 -0.363454 4.38076 64.0585
5256134 10.9135 11.76 21.6265 19.6596 -0.43792 4.36509 63.9596
5256139 10.9223 11.8613 21.6659 19.7083 -0.396891 4.34646 64.1578
5256149 10.9223 11.8613 21.6659 19.7083 -0.396891 4.34646 64.1578
5256159 10.9487 11.8429 21.6265 19.6304 -0.430122 4.32452 64.0485
5256169 10.9487 11.8429 21.6265 19.6304 -0.430122 4.32452 64.0485
5256180 10.843 11.8061 21.6068 19.6791 -0.377215 4.37245 63.935
5256198 10.9839 11.8153 21.5675 19.7083 -0.401019 4.32538 64.075
5256200 10.9839 11.8153 21.5675 19.7083 -0.401019 4.32538 64.075
5256211 10.9575 11.8429 21.5773 19.6206 -0.418478 4.31203 63.9983
5256221 10.9311 11.8245 21.5773 19.6499 -0.404033 4.33045 63.9827
5256230 10.9311 11.8245 21.5773 19.6499 -0.404033 4.33045 63.9827
5256246 10.9663 11.8613 21.4986 19.6401 -0.376542 4.29391 63.9663
5256254 10.9311 11.8521 21.5084 19.5719 -0.397508 4.29755 63.8635
5256266 10.9311 11.8521 21.5084 19.5719 -0.397508 4.29755 63.8635
5256271 10.9751 11.9442 21.5084 19.5719 -0.377892 4.2565 63.9996
5256281 10.9751 11.9442 21.5084 19.5719 -0.377892 4.2565 63.9996
5256291 10.9575 11.9166 21.41 19.5427 -0.355729 4.24866 63.8267
5256302 11.028 12.0179 21.4001 19.533 -0.342797 4.1937 63.9789
5256313 11.028 12.0179 21.4001 19.533 -0.342797 4.1937 63.9789
5256322 10.9575 12.0271 21.4198 19.5719 -0.30414 4.22198 63.9763
5256333 11.0104 12.0087 21.4395 19.5427 -0.350967 4.21003 64.0012
5256353 11.028 12.0455 21.4296 19.5524 -0.335525 4.19369 64.0556
5256363 10.9575 12.0455 21.4395 19.5524 -0.31216 4.21648 63.9949
5256376 10.9575 11.9902 21.4395 19.5622 -0.330174 4.23473 63.9494
5256383 11.0104 12.0087 21.4592 19.6011 -0.335418 4.22319 64.0794
5256398 11.0104 12.0087 21.4592 19.6011 -0.335418 4.22319 64.0794
5256412 11.0104 12.0087 21.4296 19.5232 -0.354896 4.20509 63.9719
5256414 11.0368 12.0547 21.4001 19.4745 -0.354753 4.17013 63.9661
5256425 11.0368 12.0547 21.4001 19.4745 -0.354753 4.17013 63.9661
5256434 11.0368 12.0731 21.3706 19.4648 -0.339934 4.15795 63.9453
5256445 11.0456 12.0271 21.4198 19.4842 -0.372821 4.18075 63.9767
5256456 11.0456 12.0271 21.4198 19.4842 -0.372821 4.18075 63.9767
5256466 11.0808 12.0915 21.3411 19.5037 -0.322808 4.14086 64.0172
5256486 10.9927 12.0639 21.3214 19.416 -0.326888 4.1573 63.7941
5256496 11.072 12.1192 21.3509 19.4453 -0.335404 4.12698 63.9874
5256508 11.072 12.1192 21.3509 19.4453 -0.335404 4.12698 63.9874
5256516 11.1073 12.1376 21.3607 19.4745 -0.33392 4.11759 64.0801
5256530 11.1073 12.0547 21.3312 19.4063 -0.382416 4.12575 63.8995
5256537 11.1073 12.0547 21.3312 19.4063 -0.382416 4.12575 63.8995
5256547 11.1249 12.11 21.3312 19.4063 -0.367272 4.10396 63.9724
5256567 11.072 12.1468 21.3607 19.3868 -0.351411 4.11046 63.9664
5256577 11.0984 12.1376 21.3312 19.3966 -0.350003 4.10194 63.9638
5256587 11.0984 12.1376 21.3312 19.3966 -0.350003 4.10194 63.9638
5256597 11.1073 12.1008 21.3804 19.4258 -0.37536 4.12366 64.0142
5256619 11.1073 12.11 21.3804 19.3673 -0.394896 4.11097 63.965
5256629 11.1073 12.11 21.3607 19.3966 -0.375722 4.11259 63.9745
5256641 11.1073 12.11 21.3607 19.3966 -0.375722 4.11259 63.9745
5256648 11.0632 12.0823 21.3411 19.4453 -0.342807 4.13896 63.9319
5256658 11.0544 12.0547 21.4198 19.4355 -0.384577 4.16158 63.9645
5256668 11.0544 12.0547 21.4198 19.4355 -0.384577 4.16158 63.9645
5256678 11.0456 12.11 21.3607 19.3966 -0.351968 4.13103 63.9129
5256688 11.0808 12.1008 21.3312 19.4063 -0.353955 4.11988 63.9191
5256709 11.1161 12.0915 21.3411 19.3673 -0.390446 4.10714 63.916
5256718 11.0544 12.0915 21.3017 19.3673 -0.351484 4.11888 63.815
5256733 11.0544 12.0731 21.3017 19.3673 -0.358802 4.1244 63.7966
5256739 11.1337 12.1008 21.3706 19.3771 -0.401057 4.10581 63.9821
5256749 11.1337 12.1008 21.3706 19.3771 -0.401057 4.10581 63.9821
5256759 11.1249 12.0823 21.3509 19.3673 -0.401284 4.10893 63.9254
5256769 11.1249 12.1284 21.3607 19.3868 -0.37906 4.10017 64.0008
5256780 11.1249 12.1284 21.3607 19.3868 -0.37906 4.10017 64.0008
5256789 11.1073 12.11 21.3804 19.3576 -0.398764 4.10931 63.9552
5256809 11.1249 12.0179 21.4001 19.416 -0.426471 4.14487 63.9589
5256823 11.0896 12.0915 21.4395 19.4258 -0.394943 4.1417 64.0465
5256829 11.0896 12.0915 21.4395 19.4258 -0.394943 4.1417 64.0465
5256839 11.1249 12.0823 21.3804 19.3673 -0.412643 4.11396 63.955
5256851 11.1073 12.1192 21.4296 19.3089 -0.433378 4.10665 63.965
5256860 11.1073 12.1192 21.4296 19.3089 -0.433378 4.10665 63.965
5256870 11.1161 12.1008 21.3706 19.3381 -0.409766 4.10444 63.9255
5256880 11.0808 12.1284 21.3509 19.3868 -0.358312 4.11165 63.9469
5256890 11.0808 12.1284 21.3509 19.3868 -0.358312 4.11165 63.9469
5256900 11.1865 12.0915 21.4001 19.4258 -0.417019 4.1061 64.104
5256913 11.1865 12.0915 21.4001 19.4258 -0.417019 4.1061 64.104
5256920 11.1161 12.0271 21.4198 19.4453 -0.415379 4.15304 64.0082
5256934 11.072 12.0547 21.3804 19.3868 -0.395545 4.14136 63.894
5256940 11.072 12.0547 21.3804 19.3868 -0.395545 4.14136 63.894
5256956 11.1249 12.1376 21.3312 19.494 -0.321633 4.11063 64.0877
5256961 11.0896 12.1008 21.4198 19.494 -0.356722 4.14717 64.1042
5256970 11.0896 12.1008 21.4198 19.494 -0.356722 4.14717 64.1042
5256981 11.0984 12.1284 21.4001 19.4453 -0.360884 4.1247 64.0722
5257003 11.1513 12.0547 21.3706 19.3381 -0.441626 4.10767 63.9147
5257027 11.1073 12.1284 21.41 19.3966 -0.38735 4.11546 64.0422
5257032 11.0808 12.0455 21.3411 19.3673 -0.395177 4.13146 63.8347
5257043 11.0544 12.0731 21.3903 19.3089 -0.41623 4.12953 63.8267
5257052 11.0544 12.0731 21.3903 19.3089 -0.41623 4.12953 63.8267
5257063 11.028 12.0455 21.2918 19.3966 -0.344151 4.14391 63.7619
5257073 11.028 12.0455 21.2918 19.3966 -0.344151 4.14391 63.7619
5257083 11.0456 12.0363 21.3607 19.4453 -0.36187 4.16138 63.8879
5257093 11.072 12.0363 21.3903 19.3966 -0.402784 4.1502 63.8951
5257103 11.072 12.0363 21.3903 19.3966 -0.402784 4.1502 63.8951
5257115 11.0896 12.1008 21.3607 19.4063 -0.368729 4.12227 63.9574
5257123 10.9927 12.0455 21.41 19.4648 -0.349088 4.18611 63.913
5257136 10.9927 12.0455 21.41 19.4648 -0.349088 4.18611 63.913
5257146 11.0808 12.0455 21.4789 19.5135 -0.390182 4.17959 64.1187
5257158 11.0808 12.0455 21.4789 19.5135 -0.390182 4.17959 64.1187
5257164 11.0104 12.0547 21.4592 19.4745 -0.367323 4.18804 63.9988
5257174 11.0808 12.0731 21.3903 19.494 -0.35291 4.15306 64.0382
5257184 11.0808 12.0731 21.3903 19.494 -0.35291 4.15306 64.0382
5257194 11.1073 12.1376 21.4001 19.494 -0.341366 4.12758 64.1389
5257204 11.072 12.0823 21.3706 19.3966 -0.37691 4.13306 63.9215
5257226 11.1249 12.11 21.3214 19.3868 -0.371209 4.09896 63.943
5257234 11.1249 12.11 21.3214 19.3868 -0.371209 4.09896 63.943
5257244 11.072 12.0915 21.3312 19.4355 -0.342621 4.13024 63.9303
5257254 11.0984 12.0915 21.3411 19.4745 -0.341162 4.13063 64.0055
5257264 11.0984 12.0915 21.3411 19.4745 -0.341162 4.13063 64.0055
5257275 11.0632 12.1008 21.3312 19.455 -0.327854 4.13343 63.9502
5257284 11.072 12.0915 21.3115 19.3868 -0.35435 4.1186 63.8619
5257306 11.1161 12.0915 21.3509 19.455 -0.359453 4.12373 64.0135
5257318 11.1161 12.0915 21.3509 19.455 -0.359453 4.12373 64.0135
5257325 11.0984 12.1008 21.2918 19.416 -0.341699 4.10956 63.9071
5257336 11.1425 12.1192 21.3509 19.4258 -0.370252 4.10263 64.0383
5257356 11.0984 12.1008 21.282 19.4258 -0.334036 4.10954 63.907
5257367 11.0984 12.11 21.2426 19.4063 -0.322904 4.09675 63.8573
5257377 11.0984 12.11 21.2426 19.4063 -0.322904 4.09675 63.8573
5257386 11.0808 12.156 21.3214 19.4355 -0.316693 4.10667 63.9937
5257395 11.0808 12.156 21.3214 19.4355 -0.316693 4.10667 63.9937
5257406 11.0368 12.11 21.3312 19.494 -0.298586 4.1452 63.9719
5257416 11.0984 12.11 21.4001 19.4355 -0.372034 4.12854 64.0441
5257428 11.0984 12.11 21.4001 19.4355 -0.372034 4.12854 64.0441
5257436 11.1073 12.11 21.3214 19.4355 -0.345108 4.11253 63.9741
5257450 11.0192 12.0731 21.3312 19.4258 -0.333388 4.14994 63.8493
5257467 11.0632 12.1192 21.3903 19.5037 -0.324059 4.14621 64.0764
5257478 11.0632 12.1192 21.3903 19.5037 -0.324059 4.14621 64.0764
5257487 11.072 12.11 21.3312 19.4355 -0.335321 4.12473 63.9487
5257497 11.0544 12.1284 21.3804 19.4355 -0.340208 4.13285 63.9987
5257507 11.0544 12.1284 21.3804 19.4355 -0.340208 4.13285 63.9987
5257517 11.0544 12.0731 21.3509 19.416 -0.358452 4.14106 63.8945
5257527 11.072 12.11 21.3706 19.4842 -0.331217 4.13969 64.0368
5257543 11.072 12.11 21.3706 19.4842 -0.331217 4.13969 64.0368
5257547 11.0456 12.0915 21.3804 19.5135 -0.320552 4.15972 64.031
5257567 11.0632 12.0179 21.4198 19.5037 -0.375524 4.18152 64.0046
5257580 11.0016 12.0731 21.469 19.5037 -0.34885 4.19175 64.0474
5257598 11.0192 12.0915 21.3607 19.5037 -0.306617 4.16265 63.9752
5257608 10.9927 12.0547 21.41 19.5817 -0.299163 4.2031 64.0391
5257618 10.9927 12.0547 21.41 19.5817 -0.299163 4.2031 64.0391
5257634 10.9839 12.0087 21.4395 19.6011 -0.317656 4.22781 64.0332
5257638 10.9839 12.0087 21.4395 19.6011 -0.317656 4.22781 64.0332
5257652 11.0016 11.9902 21.4001 19.533 -0.343557 4.20993 63.9249
5257658 10.9839 12.0271 21.3903 19.5914 -0.29524 4.21235 63.9927
5257668 10.9839 12.0271 21.3903 19.5914 -0.29524 4.21235 63.9927
5257678 11.0456 11.9718 21.4198 19.5524 -0.367692 4.20884 63.9897
5257689 10.9751 11.9902 21.4395 19.5037 -0.36014 4.21958 63.9086
5257699 10.9751 11.9902 21.4395 19.5037 -0.36014 4.21958 63.9086
5257709 11.028 12.0455 21.3804 19.5622 -0.312705 4.18702 64.0161
5257720 11.028 12.0455 21.3804 19.5622 -0.312705 4.18702 64.0161
5257733 10.9751 11.9902 21.3903 19.494 -0.345017 4.20963 63.8496
5257740 10.9751 12.0271 21.3903 19.5817 -0.295688 4.21335 63.9741
5257749 10.9751 12.0271 21.3903 19.5817 -0.295688 4.21335 63.9741
5257761 11.0016 12.0087 21.3804 19.4745 -0.351842 4.19118 63.8651
5257769 10.9927 11.9902 21.469 19.5427 -0.362852 4.22583 63.9947
5257782 10.9927 11.9902 21.469 19.5427 -0.362852 4.22583 63.9947
5257790 11.0456 11.9995 21.469 19.6499 -0.337145 4.22523 64.1639
5257810 10.9663 11.9902 21.4493 19.5817 -0.329651 4.23702 63.9876
5257823 10.9575 11.9995 21.3804 19.5622 -0.30372 4.22201 63.8996
5257844 10.9927 12.0087 21.4395 19.5719 -0.332609 4.22025 64.0128
5257850 10.9663 12.0547 21.3903 19.5524 -0.29292 4.20277 63.9637
5257867 10.9663 12.0547 21.3903 19.5524 -0.29292 4.20277 63.9637
5257871 10.9839 12.0087 21.41 19.5135 -0.340979 4.20806 63.916
5257881 10.9839 12.0087 21.41 19.5135 -0.340979 4.20806 63.916
5257892 10.9223 11.981 21.3903 19.533 -0.312786 4.23489 63.8265
5257902 10.9751 11.9902 21.469 19.5914 -0.336777 4.23932 64.0258
5257914 10.9751 11.9902 21.469 19.5914 -0.336777 4.23932 64.0258
5257922 10.9751 12.0179 21.4395 19.6499 -0.291377 4.23588 64.0824
5257938 10.9839 11.981 21.469 19.6011 -0.339957 4.24108 64.0351
5257942 10.9839 11.981 21.469 19.6011 -0.339957 4.24108 64.0351
5257952 11.0192 11.9902 21.4592 19.5817 -0.353801 4.2228 64.0503
5257972 10.9575 12.0087 21.4592 19.494 -0.357498 4.22102 63.9193
5257985 10.9751 11.9534 21.41 19.5719 -0.336313 4.23718 63.9104
5257994 10.9751 11.9534 21.41 19.5719 -0.336313 4.23718 63.9104
5258002 11.0104 12.0639 21.4493 19.5817 -0.31749 4.20169 64.1053
5258012 11.0368 12.0455 21.4493 19.6011 -0.327237 4.20258 64.1328
5258022 11.0368 12.0455 21.4493 19.6011 -0.327237 4.20258 64.1328
5258032 11.028 12.0271 21.4296 19.5135 -0.35824 4.19263 63.9982
5258053 11.0192 12.0087 21.4986 19.5232 -0.384799 4.21406 64.0496
5258063 11.0192 12.0087 21.3804 19.5232 -0.339317 4.19413 63.9315
5258073 11.0192 12.0087 21.3804 19.5232 -0.339317 4.19413 63.9315
5258083 11.028 12.0363 21.3214 19.455 -0.336006 4.16164 63.8407
5258093 11.0104 12.0823 21.2426 19.4745 -0.27274 4.14303 63.8098
5258103 11.0104 12.0823 21.2426 19.4745 -0.27274 4.14303 63.8098
5258114 11.0632 12.11 21.2918 19.3771 -0.339903 4.11071 63.8421
5258123 11.0632 12.11 21.2918 19.3771 -0.339903 4.11071 63.8421
5258137 11.0016 12.0179 21.3115 19.416 -0.344785 4.16682 63.747
5258143 10.9927 12.0271 21.3312 19.4258 -0.341459 4.1717 63.7768
5258153 10.9927 12.0271 21.3312 19.4258 -0.341459 4.1717 63.7768
5258163 11.0632 12.0179 21.3411 19.4745 -0.356784 4.16324 63.8966
5258173 11.0896 12.0547 21.4296 19.5135 -0.371018 4.16589 64.0875
5258184 11.0896 12.0547 21.4296 19.5135 -0.371018 4.16589 64.0875
5258195 11.1249 12.1468 21.4001 19.4842 -0.348347 4.11793 64.156
5258204 11.0808 12.0823 21.3706 19.416 -0.372568 4.13374 63.9498
5258226 11.072 12.1192 21.3706 19.5037 -0.319868 4.14024 64.0655
5258235 11.072 12.1192 21.3706 19.5037 -0.319868 4.14024 64.0655
5258246 11.1073 12.0731 21.3411 19.4453 -0.363433 4.12854 63.9667
5258255 11.1161 12.1744 21.3509 19.3966 -0.349779 4.08905 64.0379
5258266 11.1161 12.1744 21.3509 19.3966 -0.349779 4.08905 64.0379
5258275 11.1073 12.1008 21.3411 19.3966 -0.371796 4.11199 63.9456
5258286 11.0808 12.0731 21.3411 19.4453 -0.35325 4.13644 63.9403
5258307 11.1073 12.0547 21.4198 19.4355 -0.404899 4.14576 64.0173
5258321 11.1073 12.0547 21.4198 19.4355 -0.404899 4.14576 64.0173
5258327 11.0632 12.0455 21.41 19.416 -0.395569 4.15673 63.9347
5258338 11.0896 12.0271 21.4296 19.4745 -0.397412 4.16757 64.0209
5258358 11.0544 12.0455 21.4592 19.4648 -0.391777 4.17595 64.0238
5258370 11.0104 12.0179 21.4592 19.416 -0.405151 4.18921 63.9035
5258393 11.0368 12.0547 21.4198 19.4258 -0.38166 4.16521 63.9371
5258398 11.0368 12.0547 21.4198 19.4258 -0.38166 4.16521 63.9371
5258408 11.0016 12.0455 21.3214 19.494 -0.306687 4.17342 63.8624
5258420 11.0632 11.9534 21.4395 19.4745 -0.420296 4.19925 63.9306
5258442 11.0104 12.0087 21.4887 19.5427 -0.369906 4.21833 64.0504
5258449 10.9839 11.9626 21.5182 19.5719 -0.377767 4.24997 64.0367
5258459 10.9839 11.9626 21.5182 19.5719 -0.377767 4.24997 64.0367
5258469 10.9575 11.9626 21.4887 19.5232 -0.375552 4.24477 63.9321
5258479 10.9663 11.9166 21.5576 19.5817 -0.400524 4.27736 64.0222
5258490 10.9663 11.9166 21.5576 19.5817 -0.400524 4.27736 64.0222
5258499 10.9487 11.9902 21.5675 19.6499 -0.341375 4.27356 64.1563
5258515 10.9487 11.9902 21.5675 19.6499 -0.341375 4.27356 64.1563
5258519 10.9487 11.935 21.5084 19.5719 -0.371376 4.26723 63.964
5258532 10.9399 11.9258 21.4592 19.5817 -0.348802 4.26603 63.9065
5258549 10.9751 11.9166 21.5478 19.6011 -0.392397 4.27632 64.0406
5258571 10.9311 11.8982 21.5182 19.6011 -0.371401 4.29019 63.9486
5258581 10.9399 11.8705 21.5871 19.6401 -0.396797 4.3139 64.0377
5258591 10.9399 11.8705 21.5871 19.6401 -0.396797 4.3139 64.0377
5258601 10.887 11.8982 21.5182 19.6693 -0.327398 4.31489 63.9728
5258613 10.9047 11.8429 21.5773 19.6401 -0.390427 4.33124 63.965
5258637 10.9399 11.8337 21.6265 19.6499 -0.422664 4.33321 64.05
5258642 10.8606 11.8061 21.6462 19.6499 -0.410748 4.3688 63.9628
5258662 10.8606 11.8061 21.6462 19.6499 -0.410748 4.3688 63.9628
5258664 10.8518 11.8245 21.5871 19.7083 -0.354126 4.36579 63.9718
5258685 10.843 11.7508 21.6561 19.6986 -0.410362 4.40061 63.9484
5258692 10.843 11.76 21.7643 19.7668 -0.421211 4.42699 64.1341
5258713 10.8694 11.7232 21.6561 19.8057 -0.388953 4.41871 64.0544
5258723 10.843 11.7048 21.7939 19.7668 -0.454441 4.4486 64.1084
5258733 10.843 11.7048 21.7939 19.7668 -0.454441 4.4486 64.1084
5258743 10.7813 11.6587 21.7348 19.8837 -0.380026 4.49083 64.0585
5258758 10.7813 11.6587 21.7348 19.8837 -0.380026 4.49083 64.0585
5258763 10.7109 11.6127 21.7643 19.835 -0.401884 4.5232 63.9228
5258773 10.7285 11.6587 21.7151 19.9226 -0.336687 4.51008 64.025
5258783 10.7285 11.6587 21.7151 19.9226 -0.336687 4.51008 64.025
5258793 10.7197 11.6495 21.7446 19.8544 -0.375335 4.50924 63.9683
5258807 10.7373 11.6311 21.7643 19.8837 -0.385402 4.5175 64.0164
5258822 10.7373 11.6311 21.7643 19.8837 -0.385402 4.5175 64.0164
5258830 10.7197 11.6495 21.8037 19.9324 -0.367172 4.53166 64.1053
5258843 10.6492 11.6127 21.8135 19.9908 -0.335301 4.57553 64.0663
5258856 10.7197 11.6035 21.8431 19.9908 -0.377381 4.56164 64.1571
5258864 10.7197 11.6035 21.8431 19.9908 -0.377381 4.56164 64.1571
5258876 10.7285 11.6035 21.9021 19.9324 -0.426544 4.55905 64.1665
5258885 10.6756 11.5666 21.8628 19.9616 -0.394191 4.58478 64.0667
5258904 10.6756 11.5666 21.8726 19.9519 -0.401835 4.58479 64.0668
5258924 10.6404 11.5482 21.8037 19.9226 -0.38069 4.58524 63.915
5258935 10.6756 11.5666 21.784 19.9811 -0.356188 4.57514 64.0074
5258944 10.6756 11.5666 21.784 19.9811 -0.356188 4.57514 64.0074
5258957 10.6492 11.5482 21.8234 20.0201 -0.353035 4.6016 64.0409
5258965 10.6404 11.4561 21.8135 20.059 -0.366902 4.63725 63.9691
5258975 10.6404 11.4561 21.8135 20.059 -0.366902 4.63725 63.9691
5258986 10.6492 11.5114 21.8628 20.0298 -0.378911 4.62084 64.0532
5258995 10.6492 11.5114 21.8628 20.0298 -0.378911 4.62084 64.0532
5259005 10.6404 11.539 21.8923 20.0883 -0.352813 4.62932 64.16
5259016 10.6404 11.493 21.8923 20.0201 -0.398035 4.63239 64.0457
5259036 10.5964 11.5666 21.7939 20.0395 -0.306293 4.61051 63.9964
5259048 10.6668 11.5114 21.8135 20.0493 -0.359036 4.61062 64.041
5259067 10.5876 11.585 21.8037 20.059 -0.291711 4.61233 64.0353
5259078 10.6668 11.6127 21.8135 20.1272 -0.288263 4.5923 64.2203
5259087 10.6668 11.6127 21.8135 20.1272 -0.288263 4.5923 64.2203
5259099 10.6052 11.5666 21.8431 20.059 -0.320958 4.61896 64.0739
5259122 10.6052 11.5114 21.8234 20.0493 -0.339085 4.63112 63.9892
5259127 10.6404 11.5482 21.784 20.0883 -0.307508 4.60897 64.0609
5259137 10.6404 11.5482 21.784 20.0883 -0.307508 4.60897 64.0609
5259147 10.614 11.539 21.784 20.1077 -0.293258 4.62304 64.0447
5259158 10.6052 11.5022 21.725 19.9908 -0.327913 4.60846 63.8231
5259168 10.6052 11.5022 21.725 19.9908 -0.327913 4.60846 63.8231
5259178 10.5964 11.5298 21.7643 20.0103 -0.321044 4.61226 63.9008
5259188 10.5964 11.5298 21.7643 20.0103 -0.321044 4.61226 63.9008
5259198 10.5964 11.5298 21.8332 20.059 -0.328343 4.63134 64.0184
5259211 10.5435 11.539 21.8234 20.0688 -0.29666 4.64472 63.9747
5259218 10.5435 11.539 21.8234 20.0688 -0.29666 4.64472 63.9747
5259228 10.6316 11.5298 21.8431 20.0785 -0.337994 4.6253 64.083
5259238 10.5876 11.4837 21.8923 20.1564 -0.327381 4.67344 64.1201
5259248 10.5876 11.4837 21.8923 20.1564 -0.327381 4.67344 64.1201
5259258 10.5788 11.4469 21.8923 20.1662 -0.334699 4.68903 64.0842
5259269 10.5788 11.4469 21.8923 20.1662 -0.334699 4.68903 64.0842
5259278 10.5788 11.5298 21.8726 20.1759 -0.290553 4.66199 64.1571
5259288 10.5788 11.4377 21.8825 20.1759 -0.330698 4.69184 64.0749
5259300 10.5788 11.4377 21.8825 20.1759 -0.330698 4.69184 64.0749
5259308 10.5699 11.5298 21.9021 20.1662 -0.302373 4.66788 64.1681
5259329 10.5259 11.4653 21.8332 20.1467 -0.29197 4.68696 63.9712
5259340 10.5699 11.4561 21.8135 20.1564 -0.301161 4.67464 63.9961
5259349 10.5699 11.4561 21.8135 20.1564 -0.301161 4.67464 63.9961
5259359 10.5788 11.5298 21.7545 20.1564 -0.252658 4.63977 64.0195
5259371 10.5699 11.4837 21.8529 20.1564 -0.305432 4.67251 64.0631
5259379 10.5699 11.4837 21.8529 20.1564 -0.305432 4.67251 64.0631
5259391 10.5611 11.493 21.8825 20.1857 -0.298244 4.68185 64.1222
5259401 10.5171 11.4745 21.8529 20.137 -0.296381 4.68844 63.9815
5259412 10.5171 11.4745 21.8529 20.137 -0.296381 4.68844 63.9815
5259421 10.5435 11.4653 21.8529 20.1564 -0.30252 4.68629 64.0182
5259430 10.5435 11.4653 21.8529 20.1564 -0.30252 4.68629 64.0182
5259446 10.5699 11.4285 21.8431 20.098 -0.346631 4.67848 63.9395
5259459 10.614 11.4837 21.784 20.1857 -0.284304 4.65259 64.0674
5259463 10.614 11.4837 21.784 20.1857 -0.284304 4.65259 64.0674
5259472 10.5699 11.5022 21.8431 20.0785 -0.325169 4.65268 63.9937
5259483 10.5876 11.5022 21.8726 20.0883 -0.339481 4.65362 64.0506
5259492 10.5876 11.5022 21.8726 20.0883 -0.339481 4.65362 64.0506
5259504 10.5523 11.539 21.8431 20.1467 -0.276877 4.65779 64.0811
5259526 10.5171 11.4469 21.8628 20.1077 -0.322682 4.69382 63.9345
5259532 10.5876 11.5022 21.8431 20.1467 -0.305 4.65829 64.0795
5259542 10.5876 11.5022 21.8431 20.1467 -0.305 4.65829 64.0795
5259552 10.614 11.5022 21.8135 20.1175 -0.315352 4.64069 64.0472
5259562 10.5964 11.5022 21.7939 20.1467 -0.289418 4.64764 64.0391
5259572 10.5964 11.5022 21.7939 20.1467 -0.289418 4.64764 64.0391
5259582 10.6228 11.4837 21.7742 20.1759 -0.287752 4.64672 64.0567
5259594 10.6228 11.4837 21.7742 20.1759 -0.287752 4.64672 64.0567
5259602 10.6228 11.5206 21.725 20.0688 -0.296544 4.61008 63.9371
5259615 10.6492 11.4837 21.7742 20.098 -0.328743 4.626 64.0051
5259622 10.6492 11.4837 21.7742 20.098 -0.328743 4.626 64.0051
5259637 10.6668 11.5574 21.7151 20.0785 -0.291331 4.58529 64.0179
5259642 10.614 11.5114 21.7151 20.059 -0.296834 4.61242 63.8995
5259652 10.614 11.5114 21.7151 20.059 -0.296834 4.61242 63.8995
5259662 10.6228 11.5114 21.7939 20.0493 -0.334492 4.62093 63.9773
5259687 10.6668 11.5943 21.7348 20.059 -0.292075 4.57406 64.0549
5259692 10.7109 11.5022 21.7348 20.0201 -0.360905 4.58241 63.9679
5259705 10.7109 11.5022 21.7348 20.0201 -0.360905 4.58241 63.9679
5259712 10.6845 11.6679 21.7151 20.059 -0.262222 4.54299 64.1265
5259726 10.6845 11.6679 21.7151 20.059 -0.262222 4.54299 64.1265
5259732 10.6845 11.6127 21.6462 20.0493 -0.261241 4.54701 63.9926
5259742 10.658 11.6035 21.725 20.0201 -0.296637 4.56598 64.0065
5259752 10.658 11.6035 21.725 20.0201 -0.296637 4.56598 64.0065
5259762 10.6845 11.6403 21.6757 19.9519 -0.300235 4.52747 63.9524
5259773 10.6933 11.6127 21.6856 19.9811 -0.306803 4.53961 63.9726
5259783 10.6933 11.6127 21.6856 19.9811 -0.306803 4.53961 63.9726
5259795 10.7285 11.6679 21.6462 19.9908 -0.279517 4.50716 64.0335
5259818 10.7285 11.6311 21.6265 19.9129 -0.317311 4.50237 63.899
5259823 10.7373 11.6587 21.7151 19.9226 -0.340079 4.5074 64.0338
5259844 10.7725 11.6679 21.5871 19.9324 -0.296816 4.47445 63.96
5259853 10.7549 11.7048 21.6856 20.0006 -0.286521 4.49596 64.1458
5259873 10.7285 11.6863 21.6462 19.9713 -0.279941 4.49836 64.0324
5259884 10.7285 11.6863 21.6462 19.9713 -0.279941 4.49836 64.0324
5259893 10.7549 11.6679 21.5773 20.0688 -0.232378 4.50059 64.0689
5259906 10.7725 11.6403 21.6265 19.9908 -0.299828 4.49894 64.0302
5259913 10.7725 11.6403 21.6265 19.9908 -0.299828 4.49894 64.0302
5259928 10.7461 11.7232 21.6659 19.9226 -0.299023 4.47703 64.0578
5259937 10.7637 11.7232 21.5773 19.9324 -0.267777 4.4587 63.9966
5259943 10.7637 11.7232 21.5773 19.9324 -0.267777 4.4587 63.9966
5259953 10.7813 11.6679 21.597 19.9811 -0.284766 4.4814 64.0274
5259963 10.7813 11.6679 21.597 19.9811 -0.284766 4.4814 64.0274
5259973 10.7637 11.6771 21.6068 19.9226 -0.30123 4.47596 63.9703
5259983 10.7637 11.6863 21.5379 19.8544 -0.297946 4.45056 63.8424
5259994 10.7637 11.6863 21.5379 19.8544 -0.297946 4.45056 63.8424
5260006 10.8518 11.7692 21.597 19.8642 -0.318101 4.40999 64.0822
5260014 10.8166 11.76 21.5182 19.8837 -0.270064 4.41366 63.9785
5260034 10.8342 11.8429 21.5478 19.796 -0.29017 4.37357 64.0209
5260046 10.8342 11.8429 21.5478 19.796 -0.29017 4.37357 64.0209
5260054 10.843 11.7508 21.5576 19.835 -0.318368 4.40689 63.9864
5260068 10.8782 11.8153 21.597 19.8252 -0.325482 4.38161 64.1157
5260075 10.8782 11.8153 21.597 19.8252 -0.325482 4.38161 64.1157
5260085 10.8782 11.8153 21.5182 19.8057 -0.302836 4.36532 64.0175
5260095 10.843 11.8245 21.5281 19.757 -0.30866 4.36674 63.9526
5260126 10.9135 11.8061 21.5084 19.6888 -0.362572 4.33635 63.9168
5260136 10.8254 11.8245 21.5084 19.7765 -0.28654 4.37204 63.9348
5260146 10.9487 11.8613 21.4887 19.7375 -0.327374 4.31386 64.0363
5260156 10.9487 11.8613 21.4887 19.7375 -0.327374 4.31386 64.0363
5260169 10.8694 11.8797 21.5084 19.7765 -0.281718 4.342 64.0341
5260176 10.9223 11.8521 21.5576 19.7278 -0.351229 4.33447 64.0598
5260187 10.9223 11.8521 21.5576 19.7278 -0.351229 4.33447 64.0598
5260197 10.887 11.8429 21.5379 19.7473 -0.326012 4.34786 64.0152
5260207 10.887 11.8429 21.5379 19.7473 -0.326012 4.34786 64.0152
5260220 10.9311 11.7876 21.4986 19.7278 -0.357416 4.34145 63.9451
5260227 10.887 11.8521 21.5084 19.6791 -0.337982 4.32879 63.9266
5260247 10.887 11.7969 21.5084 19.6596 -0.367641 4.34226 63.8519
5260257 10.8782 11.8061 21.3804 19.5817 -0.342099 4.30765 63.6464
5260267 10.8782 11.8061 21.3804 19.5817 -0.342099 4.30765 63.6464
5260277 10.9135 11.8337 21.4493 19.6693 -0.336552 4.31487 63.8658
5260288 10.9135 11.8337 21.4493 19.6693 -0.336552 4.31487 63.8658
5260297 10.9487 11.7876 21.4592 19.6109 -0.395472 4.31 63.8064
5260308 10.9663 11.8705 21.469 19.7181 -0.330642 4.29923 64.0239
5260328 10.9663 11.8337 21.4789 19.5719 -0.407031 4.28752 63.8508
5260338 10.9751 11.935 21.4887 19.6791 -0.331534 4.27394 64.0779
5260348 10.9751 11.935 21.4887 19.6791 -0.331534 4.27394 64.0779
5260358 11.0896 11.9074 21.469 19.6304 -0.398196 4.23637 64.0964
5260368 11.0896 11.9074 21.469 19.6304 -0.398196 4.23637 64.0964
5260378 11.0544 11.9166 21.4493 19.5817 -0.392762 4.23269 64.002
5260388 11.0808 12.0179 21.4986 19.533 -0.400965 4.19447 64.1302
5260398 11.0808 12.0179 21.4986 19.533 -0.400965 4.19447 64.1302
5260411 11.0456 11.9442 21.3706 19.533 -0.367419 4.20554 63.8933
5260418 11.0368 11.9442 21.4001 19.5524 -0.367671 4.21646 63.9335
5260438 11.072 12.0087 21.3312 19.5232 -0.34072 4.16995 63.9351
5260448 11.072 12.0087 21.3312 19.5232 -0.34072 4.16995 63.9351
5260458 11.0632 12.0455 21.3115 19.494 -0.326708 4.15325 63.9142
5260468 11.0896 12.0639 21.2918 19.5427 -0.302735 4.14475 63.9881
5260478 11.0896 12.0639 21.2918 19.5427 -0.302735 4.14475 63.9881
5260488 11.1073 12.0363 21.3214 19.4745 -0.358865 4.14118 63.9394
5260499 11.0632 12.1008 21.3706 19.5037 -0.323755 4.14838 64.0383
5260512 11.0632 12.1008 21.3706 19.5037 -0.323755 4.14838 64.0383
5260519 11.1073 12.0547 21.3214 19.5622 -0.316857 4.15054 64.0455
5260529 11.1073 12.0547 21.3214 19.5622 -0.316857 4.15054 64.0455
5260539 11.0896 12.0731 21.3509 19.4453 -0.360438 4.13548 63.9589
5260549 11.0632 12.0731 21.3411 19.5037 -0.323303 4.15164 63.9811
5260569 11.1161 12.0363 21.3607 19.4453 -0.389019 4.14027 63.9584
5260579 11.1073 12.0823 21.3214 19.4258 -0.359923 4.11912 63.9367
5260589 11.1073 12.0823 21.3214 19.4258 -0.359923 4.11912 63.9367
5260601 11.1865 12.1468 21.3804 19.416 -0.391434 4.08464 64.1298
5260609 11.1865 12.1468 21.3804 19.416 -0.391434 4.08464 64.1298
5260621 11.1777 12.0823 21.2525 19.3966 -0.372122 4.08134 63.9091
5260631 11.2218 12.1284 21.3017 19.3966 -0.389741 4.06289 64.0484
5260651 11.2306 12.156 21.1737 19.2991 -0.371569 4.01341 63.8594
5260661 11.1953 12.1468 21.2131 19.2894 -0.380696 4.03174 63.8446
5260671 11.1953 12.1468 21.2131 19.2894 -0.380696 4.03174 63.8446
5260681 11.2658 12.156 21.2131 19.3186 -0.392573 4.01304 63.9535
5260693 11.2658 12.156 21.2131 19.3186 -0.392573 4.01304 63.9535
5260716 11.2306 12.1652 21.1245 19.2212 -0.37991 3.98875 63.7415
5260717 11.2482 12.156 21.1934 19.2797 -0.39369 4.0082 63.8773
5260722 11.2482 12.156 21.1934 19.2797 -0.39369 4.0082 63.8773
5260732 11.2218 12.1652 21.2032 19.2504 -0.395261 4.00999 63.8407
5260748 11.2482 12.1928 21.2229 19.2504 -0.402038 3.9973 63.9144
5260752 11.2482 12.1928 21.2229 19.2504 -0.402038 3.9973 63.9144
5260762 11.2394 12.1928 21.2426 19.2797 -0.394613 4.00833 63.9545
5260772 11.2394 12.1928 21.2426 19.2797 -0.394613 4.00833 63.9545
5260783 11.1865 12.2665 21.1934 19.2407 -0.341508 3.98696 63.8871
5260792 11.2394 12.2573 21.2131 19.2894 -0.353815 3.98578 63.9992
5260813 11.213 12.3126 21.2229 19.2602 -0.337121 3.9739 64.0086
5260828 11.2218 12.2389 21.1737 19.2602 -0.350738 3.98467 63.8945
5260843 11.2482 12.2113 21.1343 19.2407 -0.364445 3.97487 63.8345
5260863 11.2041 12.1836 21.1343 19.2797 -0.342934 4.00291 63.8018
5260874 11.2306 12.2021 21.1934 19.3089 -0.357017 4.00477 63.9349
5260883 11.2306 12.2021 21.1934 19.3089 -0.357017 4.00477 63.9349
5260898 11.2218 12.2113 21.1343 19.2699 -0.342636 3.98777 63.8373
5260903 11.2041 12.2297 21.1836 19.2797 -0.343661 3.99769 63.897
5260913 11.2041 12.2297 21.1836 19.2797 -0.343661 3.99769 63.897
5260923 11.2658 12.2205 21.1934 19.3284 -0.355566 3.99219 64.008
5260934 11.2658 12.2205 21.1934 19.3284 -0.355566 3.99219 64.008
5260945 11.1777 12.156 21.2032 19.2797 -0.370316 4.03088 63.8166
5260954 11.1425 12.1744 21.282 19.3186 -0.364307 4.05609 63.9175
5260968 11.1425 12.1744 21.282 19.3186 -0.364307 4.05609 63.9175
5260974 11.1601 12.1376 21.3214 19.3673 -0.38154 4.07688 63.9864
5260984 11.1073 12.156 21.3312 19.2115 -0.419629 4.06218 63.8059
5261006 11.1425 12.2389 21.3017 19.2991 -0.354055 4.03693 63.9822
5261015 11.1425 12.2389 21.3017 19.2991 -0.354055 4.03693 63.9822
5261024 11.1073 12.1008 21.4001 19.3186 -0.42548 4.10878 63.9268
5261039 11.1425 12.1836 21.3903 19.3771 -0.379148 4.08183 64.0935
5261046 11.1425 12.1836 21.3903 19.3771 -0.379148 4.08183 64.0935
5261056 11.0896 12.1744 21.3509 19.2699 -0.389838 4.07532 63.8849
5261065 11.0984 12.1928 21.2721 19.3576 -0.320768 4.06872 63.921
5261076 11.0984 12.1928 21.2721 19.3576 -0.320768 4.06872 63.921
5261086 11.1073 12.2021 21.3312 19.3186 -0.358739 4.06678 63.9592
5261096 11.1073 12.2021 21.3312 19.3186 -0.358739 4.06678 63.9592
5261108 11.0368 12.1192 21.2623 19.3576 -0.322348 4.10749 63.7759
5261116 11.028 12.1468 21.2918 19.4355 -0.288519 4.12019 63.9021
5261130 11.028 12.1468 21.2918 19.4355 -0.288519 4.12019 63.9021
5261136 11.0896 12.2021 21.3017 19.416 -0.301991 4.08363 64.0094
5261146 11.1161 12.1284 21.3411 19.416 -0.356509 4.10443 64.0015
5261156 11.1161 12.1284 21.3411 19.416 -0.356509 4.10443 64.0015
5261166 11.1337 12.1928 21.3017 19.4648 -0.303367 4.08155 64.093
5261178 11.1337 12.1928 21.3017 19.4648 -0.303367 4.08155 64.093
5261186 11.0192 12.1192 21.3607 19.494 -0.299546 4.15272 63.9931
5261201 11.0104 12.1284 21.3903 19.5037 -0.300051 4.15926 64.0327
5261216 11.0368 12.1468 21.3804 19.5914 -0.264595 4.15902 64.1554
5261227 10.9927 12.1652 21.3312 19.5524 -0.236684 4.15175 64.0416
5261248 11.0368 12.1836 21.3214 19.5135 -0.257997 4.12481 64.0553
5261257 10.9575 12.1836 21.2328 19.5037 -0.196828 4.13181 63.8776
5261271 10.9575 12.11 21.2328 19.5037 -0.225922 4.1539 63.804
5261277 11.0016 12.1376 21.2032 19.4842 -0.228336 4.12406 63.8266
5261298 11.028 12.1284 21.2525 19.4842 -0.261301 4.12729 63.8931
5261308 10.9751 12.1192 21.2328 19.4453 -0.252247 4.1359 63.7724
5261318 10.9751 12.1192 21.2328 19.4453 -0.252247 4.1359 63.7724
5261328 10.9751 12.156 21.3115 19.4453 -0.268193 4.13826 63.8879
5261339 10.9575 12.1008 21.2328 19.494 -0.233418 4.15501 63.785
5261366 10.9399 12.156 21.3017 19.5232 -0.219943 4.16038 63.9208
5261374 10.9399 12.156 21.3017 19.5232 -0.219943 4.16038 63.9208
5261384 10.9927 12.2021 21.3115 19.5622 -0.210725 4.13906 64.0685
5261389 10.9927 12.2021 21.3214 19.5622 -0.214532 4.14073 64.0783
5261399 10.9927 12.2021 21.3214 19.5622 -0.214532 4.14073 64.0783
5261411 10.9399 12.1376 21.4198 19.6109 -0.238356 4.20068 64.1082
5261419 10.9487 12.11 21.3312 19.5232 -0.252979 4.17655 63.9131
5261430 10.9487 12.11 21.3312 19.5232 -0.252979 4.17655 63.9131
5261441 10.9487 12.11 21.3509 19.5719 -0.241365 4.18812 63.9815
5261453 10.9487 12.11 21.3509 19.5719 -0.241365 4.18812 63.9815
5261461 10.887 12.156 21.3509 19.5719 -0.199331 4.1928 63.9659
5261474 10.9575 12.1192 21.3411 19.6109 -0.221972 4.18764 64.0286
5261480 10.9575 12.1192 21.3411 19.6109 -0.221972 4.18764 64.0286
5261491 10.9135 12.1468 21.3706 19.6596 -0.18632 4.20575 64.0905
5261501 10.8782 12.0915 21.3607 19.6986 -0.17526 4.2378 64.0291
5261511 10.8782 12.0915 21.3607 19.6986 -0.17526 4.2378 64.0291
5261521 10.8782 12.0639 21.3804 19.7181 -0.18609 4.25269 64.0406
5261531 10.8782 12.0639 21.3804 19.7181 -0.18609 4.25269 64.0406
5261544 10.8166 12.0639 21.4001 19.6888 -0.181317 4.26964 63.9694
5261550 10.799 12.0915 21.3706 19.7668 -0.121525 4.27474 64.0279
5261572 10.8342 12.0639 21.3607 19.7765 -0.138403 4.27244 64.0354
5261582 10.7725 11.9995 21.3903 19.6986 -0.181954 4.30236 63.8608
5261602 10.8166 12.0455 21.3706 19.7668 -0.146446 4.2833 63.9994
5261613 10.8166 12.0455 21.3706 19.7668 -0.146446 4.2833 63.9994
5261622 10.7637 11.9534 21.3607 19.8544 -0.123811 4.34006 63.9323
5261637 10.7637 12.0179 21.3607 19.757 -0.136769 4.3043 63.8994
5261644 10.7637 12.0179 21.3607 19.757 -0.136769 4.3043 63.8994
5261652 10.7373 12.0271 21.3804 19.8057 -0.111383 4.32094 63.9506
5261662 10.7902 11.981 21.3607 19.8739 -0.115587 4.32698 64.0059
5261672 10.7902 11.981 21.3607 19.8739 -0.115587 4.32698 64.0059
5261684 10.7461 11.9995 21.4198 19.835 -0.129494 4.33807 64.0003
5261692 10.7461 11.9995 21.4198 19.835 -0.129494 4.33807 64.0003
5261706 10.7549 11.9626 21.4296 19.8544 -0.143555 4.35142 64.0016
5261712 10.7197 11.9902 21.4395 19.8739 -0.115193 4.3586 64.0234
5261730 10.7197 11.9902 21.4395 19.8739 -0.115193 4.3586 64.0234
5261733 10.7285 12.0271 21.3804 19.9032 -0.0697568 4.33984 64.0392
5261742 10.7109 12.0363 21.3706 19.8739 -0.0669003 4.33588 63.9917
5261754 10.7109 12.0363 21.3706 19.8739 -0.0669003 4.33588 63.9917
5261763 10.6933 11.9718 21.4198 19.9226 -0.0853822 4.37699 64.0075
5261779 10.6933 11.9718 21.4198 19.9226 -0.0853822 4.37699 64.0075
5261783 10.7021 11.9258 21.4296 19.9129 -0.114523 4.38828 63.9704
5261793 10.7109 12.0363 21.41 19.9713 -0.0441298 4.35863 64.1285
5261813 10.7021 11.9902 21.4395 19.8837 -0.104524 4.36555 64.0155
5261825 10.658 11.9442 21.4887 19.9129 -0.113134 4.40584 64.0038
5261833 10.658 11.9442 21.4887 19.9129 -0.113134 4.40584 64.0038
5261849 10.6492 11.8245 21.5379 19.9811 -0.149068 4.46425 63.9927
5261856 10.6492 11.8245 21.5379 19.9811 -0.149068 4.46425 63.9927
5261864 10.6316 11.8521 21.4887 19.9713 -0.116059 4.45149 63.9438
5261874 10.6228 11.8613 21.597 20.0006 -0.139624 4.474 64.0817
5261884 10.6228 11.8613 21.597 20.0006 -0.139624 4.474 64.0817
5261894 10.6316 11.8521 21.5281 20.0201 -0.112256 4.466 64.0319
5261904 10.7021 11.7876 21.5773 20.0103 -0.187825 4.47067 64.0773
5261914 10.7021 11.7876 21.5773 20.0103 -0.187825 4.47067 64.0773
5261929 10.6404 11.8429 21.5871 20.0688 -0.123128 4.48382 64.1392
5261934 10.6404 11.8429 21.5871 20.0688 -0.123128 4.48382 64.1392
5261944 10.5435 11.7876 21.597 20.0395 -0.122453 4.52698 63.9677
5261954 10.5699 11.7969 21.5773 20.1662 -0.071831 4.5336 64.1103
5261964 10.5699 11.7969 21.5773 20.1662 -0.071831 4.5336 64.1103
5261974 10.5876 11.76 21.6561 20.1662 -0.12366 4.55229 64.1698
5261984 10.5788 11.7048 21.6364 20.1467 -0.141901 4.56546 64.0666
5261994 10.5788 11.7048 21.6364 20.1467 -0.141901 4.56546 64.0666
5262004 10.5347 11.7416 21.6462 20.098 -0.133285 4.56132 64.0205
5262022 10.5347 11.7416 21.6462 20.098 -0.133285 4.56132 64.0205
5262026 10.4731 11.6863 21.6561 20.0493 -0.154024 4.59078 63.8647
5262036 10.5523 11.7508 21.6954 20.1662 -0.128868 4.57225 64.1648
5262046 10.5523 11.7508 21.6954 20.1662 -0.128868 4.57225 64.1648
5262055 10.5347 11.7416 21.6659 20.137 -0.125644 4.57088 64.0792
5262067 10.5083 11.6956 21.6954 20.1564 -0.137267 4.601 64.0557
5262077 10.5083 11.6956 21.6954 20.1564 -0.137267 4.601 64.0557
5262087 10.5259 11.6495 21.6364 20.1272 -0.150743 4.59536 63.939
5262097 10.5259 11.6495 21.6364 20.1272 -0.150743 4.59536 63.939
5262107 10.5523 11.6311 21.7151 20.1759 -0.179642 4.61361 64.0745
5262117 10.5523 11.6863 21.7151 20.2149 -0.14267 4.60302 64.1687
5262127 10.5523 11.6863 21.7151 20.2149 -0.14267 4.60302 64.1687
5262138 10.5523 11.6863 21.6856 20.1175 -0.169453 4.58241 64.0417
5262148 10.5611 11.7048 21.6856 20.1954 -0.135057 4.58676 64.1469
5262168 10.5964 11.7508 21.6659 20.0883 -0.165053 4.54132 64.1013
5262183 10.5788 11.6587 21.6167 20.1467 -0.152345 4.57632 64.0009
5262204 10.6404 11.7784 21.5871 20.1272 -0.125481 4.51299 64.1332
5262219 10.6228 11.76 21.6856 20.137 -0.160189 4.54161 64.2054
5262229 10.5876 11.7692 21.6364 20.1077 -0.135319 4.53675 64.1009
5262239 10.5876 11.7692 21.6364 20.1077 -0.135319 4.53675 64.1009
5262251 10.5876 11.7232 21.6561 20.098 -0.164849 4.55241 64.0648
5262261 10.5964 11.6771 21.6659 20.0688 -0.20168 4.56062 64.0082
5262273 10.5964 11.6771 21.6659 20.0688 -0.20168 4.56062 64.0082
5262281 10.5876 11.6956 21.6561 20.137 -0.160396 4.5672 64.0761
5262292 10.5611 11.6219 21.6364 20.0688 -0.198336 4.5835 63.8882
5262302 10.5611 11.6219 21.6364 20.0688 -0.198336 4.5835 63.8882
5262315 10.4819 11.6035 21.6561 20.1077 -0.167078 4.62304 63.8491
5262322 10.4819 11.6035 21.6561 20.1077 -0.167078 4.62304 63.8491
5262332 10.4907 11.6127 21.7151 20.1175 -0.18598 4.62867 63.9359
5262342 10.4995 11.5943 21.8332 20.1662 -0.223219 4.65861 64.0932
5262362 10.4819 11.5666 21.8529 20.1662 -0.234897 4.67567 64.0676
5262372 10.5171 11.5022 21.8037 20.1467 -0.262597 4.67358 63.9697
5262392 10.5259 11.5574 21.8628 20.2052 -0.243993 4.67284 64.1513
5262406 10.5259 11.5574 21.8628 20.2052 -0.243993 4.67284 64.1513
5262412 10.4819 11.5114 21.8529 20.2636 -0.218298 4.70832 64.1098
5262422 10.5083 11.5574 21.8234 20.2539 -0.202826 4.67975 64.143
5262432 10.5083 11.5574 21.8234 20.2539 -0.202826 4.67975 64.143
5262443 10.5171 11.539 21.8234 20.2149 -0.228798 4.67643 64.0944
5262453 10.4907 11.539 21.7545 20.1175 -0.230306 4.6577 63.9016
5262463 10.4907 11.5482 21.7545 20.1175 -0.226671 4.65486 63.9109
5262474 10.5171 11.5666 21.784 20.1272 -0.237232 4.64744 63.995
5262483 10.5171 11.5666 21.784 20.1272 -0.237232 4.64744 63.995
5262497 10.4995 11.5298 21.7939 20.137 -0.244913 4.66734 63.9601
5262503 10.5523 11.5758 21.8628 20.1564 -0.266111 4.65125 64.1474
5262523 10.4995 11.6035 21.8431 20.1759 -0.219567 4.65895 64.122
5262533 10.5523 11.6035 21.8431 20.1759 -0.239974 4.64276 64.1748
5262543 10.5523 11.5758 21.8431 20.0785 -0.289251 4.63548 64.0498
5262553 10.5347 11.539 21.8332 20.137 -0.270121 4.66004 64.0439
5262565 10.5347 11.539 21.8332 20.137 -0.270121 4.66004 64.0439
5262573 10.5259 11.5298 21.8037 20.098 -0.274332 4.65451 63.9574
5262586 10.5611 11.6035 21.7939 20.0201 -0.28583 4.60685 63.9785
5262593 10.5611 11.6035 21.7939 20.0201 -0.28583 4.60685 63.9785
5262603 10.5699 11.5482 21.8135 19.9811 -0.334126 4.61797 63.9128
5262613 10.5699 11.5482 21.8135 19.9811 -0.334126 4.61797 63.9128
5262623 10.4995 11.5758 21.8332 20.0493 -0.276585 4.64537 63.9578
5262634 10.5611 11.6587 21.7643 20.059 -0.237231 4.59147 64.0432
5262645 10.5611 11.6587 21.7643 20.059 -0.237231 4.59147 64.0432
5262654 10.5523 11.585 21.8431 20.0201 -0.30871 4.62319 64.0005
5262671 10.5435 11.6311 21.8332 20.059 -0.267939 4.6165 64.0669
5262676 10.5435 11.6311 21.8332 20.059 -0.267939 4.6165 64.0669
5262684 10.5435 11.5666 21.9021 20.0688 -0.316109 4.64898 64.0811
5262697 10.5171 11.6311 21.8431 20.098 -0.246176 4.6325 64.0893
5262705 10.5171 11.6311 21.8431 20.098 -0.246176 4.6325 64.0893
5262718 10.5347 11.6127 21.9021 20.059 -0.298381 4.63599 64.1086
5262725 10.5347 11.6127 21.9021 20.059 -0.298381 4.63599 64.1086
5262736 10.5964 11.6127 21.8726 20.059 -0.310758 4.61234 64.1407
5262757 10.5523 11.6127 21.9021 20.0103 -0.324407 4.62271 64.0775
5262762 10.5523 11.6127 21.9021 20.0103 -0.324407 4.62271 64.0775
5262766 10.5611 11.6311 21.8037 19.9421 -0.309531 4.58731 63.9381
5262776 10.6052 11.6771 21.8431 20.0201 -0.292721 4.57885 64.1455
5262786 10.6052 11.6771 21.8431 20.0201 -0.292721 4.57885 64.1455
5262795 10.6052 11.6035 21.8234 20.0103 -0.31807 4.59658 64.0424
5262808 10.6052 11.6035 21.8234 20.0103 -0.31807 4.59658 64.0424
5262817 10.5611 11.6035 21.8135 20.0298 -0.289583 4.61163 64.008
5262830 10.5347 11.5943 21.8529 20.0688 -0.282827 4.63525 64.0507
5262837 10.5347 11.5943 21.8529 20.0688 -0.282827 4.63525 64.0507
5262851 10.5964 11.585 21.9021 20.0688 -0.329176 4.62715 64.1523
5262857 10.5876 11.585 21.8234 20.059 -0.299306 4.61552 64.055
5262867 10.5876 11.6403 21.8234 20.059 -0.277503 4.59861 64.1103
5262878 10.5876 11.6127 21.8529 19.9519 -0.342143 4.59445 64.005
5262897 10.6228 11.6127 21.8529 20.0103 -0.332585 4.59317 64.0987
5262907 10.6492 11.6495 21.8037 19.9421 -0.336207 4.55474 64.0446
5262918 10.6492 11.6495 21.8037 19.9421 -0.336207 4.55474 64.0446
5262928 10.6316 11.6403 21.7545 19.9713 -0.302528 4.55967 63.9977
5262943 10.6228 11.6679 21.7939 19.9129 -0.326511 4.55081 63.9975
5262958 10.6316 11.6311 21.8037 19.9713 -0.325148 4.57051 64.0378
5262968 10.6316 11.6311 21.8037 19.9713 -0.325148 4.57051 64.0378
5262978 10.6668 11.6311 21.7545 19.9811 -0.315906 4.55331 64.0335
5262990 10.6404 11.6127 21.7742 19.9713 -0.324447 4.56864 63.9986
5263012 10.6492 11.6863 21.8431 19.9226 -0.3445 4.54674 64.1013
5263019 10.6404 11.6311 21.7742 19.8934 -0.34802 4.55029 63.9391
5263028 10.6404 11.6311 21.7742 19.8934 -0.34802 4.55029 63.9391
5263038 10.7021 11.6495 21.784 19.9129 -0.360544 4.53063 64.0485
5263059 10.6756 11.6219 21.7545 19.8934 -0.357665 4.53911 63.9454
5263068 10.6316 11.7048 21.7348 19.8934 -0.300257 4.52403 63.9646
5263078 10.6316 11.7048 21.7348 19.8934 -0.300257 4.52403 63.9646
5263088 10.6668 11.7232 21.7446 19.9519 -0.287281 4.51885 64.0865
5263098 10.6756 11.7232 21.7151 19.9519 -0.279288 4.51133 64.0658
5263110 10.6756 11.6219 21.7151 19.8934 -0.342481 4.53267 63.9061
5263118 10.7021 11.7692 21.784 19.8252 -0.347862 4.47981 64.0805
5263128 10.7021 11.7692 21.784 19.8252 -0.347862 4.47981 64.0805
5263140 10.6933 11.6863 21.7446 19.8447 -0.354414 4.50447 63.969
5263148 10.7197 11.7416 21.7348 19.7668 -0.369793 4.46516 63.9629
5263165 10.7197 11.7416 21.7348 19.7668 -0.369793 4.46516 63.9629
5263169 10.6756 11.7692 21.7643 19.8252 -0.33011 4.48462 64.0344
5263179 10.6756 11.7692 21.7643 19.8252 -0.33011 4.48462 64.0344
5263191 10.6845 11.7969 21.6462 19.757 -0.303981 4.44284 63.8845
5263199 10.6845 11.8061 21.6561 19.796 -0.288719 4.4481 63.9426
5263219 10.7549 11.8245 21.6364 19.796 -0.301042 4.41785 64.0118
5263234 10.6933 11.8337 21.6659 19.8544 -0.261925 4.44828 64.0473
5263241 10.6933 11.8337 21.6659 19.8544 -0.261925 4.44828 64.0473
5263254 10.7725 11.8705 21.6561 19.8252 -0.285712 4.40664 64.1243
5263260 10.8518 11.8429 21.6364 19.757 -0.3465 4.37647 64.0881
5263281 10.8518 11.8429 21.6364 19.757 -0.3465 4.37647 64.0881
5263282 10.7461 11.8521 21.597 19.7862 -0.27537 4.40401 63.9815
5263296 10.7461 11.8521 21.597 19.7862 -0.27537 4.40401 63.9815
5263302 10.799 11.8889 21.5675 19.757 -0.281371 4.3671 64.0124
5263312 10.7902 11.8429 21.5478 19.6986 -0.311704 4.37072 63.8794
5263332 10.7725 11.8613 21.4493 19.5914 -0.301984 4.33616 63.6746
5263343 10.7813 11.9258 21.4789 19.5914 -0.291257 4.31888 63.7774
5263352 10.7813 11.9258 21.4789 19.5914 -0.291257 4.31888 63.7774
5263362 10.8342 11.8705 21.5379 19.7473 -0.294699 4.35549 63.9899
5263372 10.8342 11.8705 21.5379 19.7473 -0.294699 4.35549 63.9899
5263383 10.8166 11.9258 21.5182 19.7278 -0.266157 4.33758 63.9884
5263392 10.8166 11.9166 21.5182 19.7862 -0.246729 4.3501 64.0376
5263404 10.8166 11.9166 21.5182 19.7862 -0.246729 4.3501 64.0376
5263412 10.8342 11.9258 21.5576 19.7181 -0.292014 4.3372 64.0356
5263426 10.799 11.9258 21.5576 19.7181 -0.278412 4.34784 64.0004
5263432 10.799 11.9258 21.5576 19.7181 -0.278412 4.34784 64.0004
5263442 10.8078 11.9074 21.5773 19.7668 -0.277457 4.36212 64.0592
5263452 10.8078 11.9074 21.5773 19.7668 -0.277457 4.36212 64.0592
5263463 10.8078 11.9534 21.5773 19.7668 -0.2593 4.34821 64.1052
5263472 10.8166 11.9534 21.4986 19.6596 -0.274575 4.31457 63.9281
5263482 10.8166 11.9534 21.4986 19.6596 -0.274575 4.31457 63.9281
5263495 10.7902 11.9166 21.5281 19.6304 -0.301921 4.33375 63.8652
5263502 10.7902 11.9166 21.5281 19.6304 -0.301921 4.33375 63.8652
5263513 10.799 11.9902 21.4986 19.6596 -0.253204 4.30876 63.9474
5263522 10.8518 11.9258 21.5773 19.7668 -0.287175 4.34326 64.1217
5263543 10.8342 11.9258 21.5182 19.7375 -0.269119 4.33388 64.0158
5263558 10.8078 11.9534 21.5182 19.7765 -0.232647 4.34001 64.0559
5263573 10.8342 11.9534 21.5576 19.7278 -0.277261 4.33048 64.073
5263593 10.7461 11.935 21.5281 19.757 -0.227536 4.36261 63.9662
5263604 10.7902 11.8982 21.5675 19.7473 -0.278182 4.36536 64.0031
5263613 10.7902 11.8982 21.5675 19.7473 -0.278182 4.36536 64.0031
5263624 10.7549 11.8889 21.5281 19.6986 -0.272226 4.36417 63.8705
5263633 10.7725 11.9166 21.5576 19.7375 -0.264142 4.36186 63.9843
5263654 10.7285 11.8705 21.4887 19.8155 -0.207816 4.39066 63.9032
5263669 10.7813 11.8613 21.4986 19.7668 -0.254983 4.37097 63.908
5263684 10.7549 11.8889 21.6265 19.8252 -0.260268 4.40152 64.0956
5263694 10.7549 11.8889 21.6265 19.8252 -0.260268 4.40152 64.0956
5263704 10.7197 11.8337 21.5675 19.796 -0.257157 4.41435 63.9168
5263714 10.7285 11.9166 21.6068 19.8642 -0.216237 4.40434 64.1161
5263736 10.6933 11.8245 21.6757 19.8739 -0.261673 4.45591 64.0674
5263747 10.6933 11.8429 21.6954 19.8642 -0.265852 4.45196 64.0958
5263765 10.6933 11.8613 21.6954 19.9129 -0.239418 4.45438 64.1629
5263778 10.6933 11.8613 21.6954 19.9129 -0.239418 4.45438 64.1629
5263787 10.6404 11.7876 21.7053 19.9226 -0.247985 4.49603 64.056
5263798 10.7109 11.7416 21.7151 19.9421 -0.289451 4.49341 64.1097
5263822 10.6228 11.7784 21.7545 19.9713 -0.244629 4.52023 64.1271
5263827 10.6316 11.7416 21.7939 19.9713 -0.277728 4.53519 64.1384
5263848 10.6052 11.6587 21.8135 20.0688 -0.269403 4.58758 64.1462
5263859 10.5611 11.6219 21.8529 20.0883 -0.274441 4.62185 64.1242
5263872 10.5611 11.6219 21.8529 20.0883 -0.274441 4.62185 64.1242
5263878 10.5259 11.585 21.9415 20.137 -0.290318 4.66608 64.1894
5263888 10.5259 11.585 21.9415 20.137 -0.290318 4.66608 64.1894
5263899 10.4995 11.5114 21.8923 20.1662 -0.278689 4.69358 64.0694
5263908 10.4819 11.5114 21.9317 20.1857 -0.279394 4.70845 64.1106
5263923 10.4819 11.5114 21.9317 20.1857 -0.279394 4.70845 64.1106
5263932 10.4642 11.4745 21.971 20.137 -0.321558 4.72371 64.0468
5263945 10.4378 11.5114 21.9612 20.2052 -0.26612 4.72986 64.1156
5263949 10.4378 11.5114 21.9612 20.2052 -0.26612 4.72986 64.1156
5263959 10.4642 11.4469 22.0006 20.1954 -0.320753 4.74631 64.1072
5263969 10.4642 11.4469 22.0006 20.1954 -0.320753 4.74631 64.1072
5263992 10.385 11.4101 21.9809 20.2246 -0.285603 4.78366 64.0006
5263995 10.385 11.4009 22.0203 20.3026 -0.273675 4.8052 64.1087
5263999 10.385 11.4009 22.0203 20.3026 -0.273675 4.8052 64.1087
5264009 10.4378 11.3917 22.0695 20.2441 -0.339681 4.79026 64.1431
5264019 10.385 11.4285 22.0892 20.2344 -0.316224 4.79678 64.137
5264029 10.385 11.4285 22.0892 20.2344 -0.316224 4.79678 64.137
5264039 10.385 11.4193 22.099 20.2734 -0.308272 4.80738 64.1766
5264054 10.385 11.4193 22.099 20.2734 -0.308272 4.80738 64.1766
5264059 10.385 11.3917 22.1679 20.2636 -0.349496 4.8253 64.2082
5264069 10.3321 11.3456 22.1975 20.2734 -0.354885 4.86209 64.1485
5264079 10.3321 11.3456 22.1975 20.2734 -0.354885 4.86209 64.1485
5264090 10.3057 11.364 22.1384 20.2928 -0.307025 4.85831 64.101
5264111 10.2969 11.3088 22.1581 20.2928 -0.333047 4.88129 64.0566
5264121 10.3409 11.2719 22.0892 20.2052 -0.372811 4.85425 63.9072
5264131 10.3409 11.2719 22.0892 20.2052 -0.372811 4.85425 63.9072
5264141 10.2881 11.2811 22.1285 20.2344 -0.352363 4.8787 63.9322
5264153 10.3057 11.2811 22.1384 20.2441 -0.359084 4.87632 63.9694
5264161 10.3057 11.2811 22.1384 20.2441 -0.359084 4.87632 63.9694
5264172 10.3233 11.2811 22.1482 20.3123 -0.342652 4.88319 64.065
5264185 10.2617 11.2904 22.2171 20.2636 -0.361077 4.90266 64.0328
5264202 10.385 11.2719 22.2467 20.2636 -0.427045 4.87477 64.1672
5264222 10.2969 11.3456 22.1581 20.2636 -0.33004 4.86524 64.0642
5264232 10.3409 11.3088 22.1778 20.2149 -0.388424 4.85841 64.0424
5264242 10.3409 11.3088 22.1778 20.2149 -0.388424 4.85841 64.0424
5264255 10.3674 11.3732 22.1384 20.1759 -0.373341 4.81783 64.0549
5264263 10.3497 11.3824 22.1089 20.1857 -0.347698 4.81729 64.0267
5264283 10.385 11.3824 22.099 20.0883 -0.396097 4.78929 63.9547
5264304 10.4202 11.3917 22.1384 20.1272 -0.405648 4.78805 64.0775
5264313 10.4202 11.4653 22.099 20.1077 -0.369059 4.75593 64.0923
5264334 10.5171 11.5574 22.1285 20.0883 -0.388843 4.69946 64.2913
5264349 10.5435 11.5758 22.0301 20.0201 -0.38092 4.65894 64.1695
5264354 10.5435 11.5758 22.0301 20.0201 -0.38092 4.65894 64.1695
5264364 10.5611 11.5666 21.9612 19.9129 -0.407341 4.62791 64.0019
5264375 10.5083 11.585 21.9809 19.9129 -0.38728 4.64166 63.9871
5264387 10.5083 11.585 21.9809 19.9129 -0.38728 4.64166 63.9871
5264395 10.5523 11.6587 21.9021 19.7765 -0.398831 4.57059 63.8897
5264406 10.5523 11.6587 21.9021 19.7765 -0.398831 4.57059 63.8897
5264418 10.5523 11.6127 21.8431 19.7473 -0.406027 4.57029 63.7554
5264426 10.614 11.6679 21.8431 19.7668 -0.400043 4.53766 63.8918
5264441 10.614 11.6679 21.8431 19.7668 -0.400043 4.53766 63.8918
5264446 10.6228 11.76 21.8628 19.7473 -0.382179 4.50688 63.9929
5264456 10.6228 11.76 21.8628 19.7473 -0.382179 4.50688 63.9929
5264467 10.6668 11.7876 21.8529 19.7181 -0.395961 4.47864 64.0255
5264476 10.6668 11.8797 21.8037 19.796 -0.309767 4.45539 64.1463
5264488 10.6668 11.8797 21.8037 19.796 -0.309767 4.45539 64.1463
5264496 10.6845 11.8337 21.8037 19.6596 -0.388733 4.44156 63.9815
5264511 10.7109 11.8153 21.7742 19.6986 -0.379385 4.44068 63.9989
5264516 10.7109 11.8153 21.7742 19.6986 -0.379385 4.44068 63.9989
5264526 10.7637 11.8521 21.7742 19.6499 -0.40441 4.40542 64.0399
5264536 10.7637 11.8521 21.7742 19.6499 -0.40441 4.40542 64.0399
5264546 10.7549 11.8061 21.8726 19.6304 -0.464806 4.4351 64.064
5264558 10.7021 11.8521 21.8234 19.6499 -0.399633 4.43226 64.0274
5264565 10.7021 11.8521 21.8234 19.6499 -0.399633 4.43226 64.0274
5264582 10.7373 11.8429 21.8825 19.5622 -0.474299 4.41963 64.0248
5264589 10.7637 11.8705 21.8234 19.6401 -0.41986 4.40637 64.0978
5264607 10.7902 11.8429 21.8529 19.6109 -0.463864 4.40679 64.0969
5264617 10.7902 11.8429 21.8529 19.6109 -0.463864 4.40679 64.0969
5264629 10.7637 11.8521 21.8037 19.6011 -0.435084 4.40225 64.0207
5264637 10.7373 11.8061 21.8529 19.6109 -0.45826 4.43398 64.0072
5264652 10.7373 11.8061 21.8529 19.6109 -0.45826 4.43398 64.0072
5264657 10.7373 11.7876 21.8628 19.5817 -0.480998 4.43637 63.9694
5264667 10.7285 11.8337 21.8529 19.6596 -0.424553 4.43631 64.0747
5264677 10.7285 11.8337 21.8529 19.6596 -0.424553 4.43631 64.0747
5264687 10.7813 11.7876 21.8135 19.5914 -0.475132 4.41648 63.9739
5264700 10.7813 11.7876 21.8135 19.5914 -0.475132 4.41648 63.9739
5264707 10.7373 11.76 21.8628 19.6401 -0.468723 4.45441 64.0002
5264717 10.7637 11.8429 21.8726 19.6693 -0.438084 4.42769 64.1486
5264727 10.7637 11.8429 21.8726 19.6693 -0.438084 4.42769 64.1486
5264737 10.7637 11.8705 21.8332 19.5914 -0.442962 4.39995 64.0589
5264747 10.6933 11.7416 21.7939 19.5524 -0.467649 4.44757 63.7812
5264777 10.7021 11.76 21.784 19.6109 -0.436595 4.44731 63.857
5264784 10.7021 11.76 21.784 19.6109 -0.436595 4.44731 63.857
5264792 10.6845 11.7416 21.8135 19.6304 -0.44075 4.46639 63.87
5264799 10.7021 11.7324 21.912 19.6693 -0.473446 4.48644 64.0158
5264808 10.7021 11.7324 21.912 19.6693 -0.473446 4.48644 64.0158
5264819 10.7197 11.7324 21.8726 19.6986 -0.453483 4.47941 64.0233
5264829 10.7637 11.7048 21.9317 19.6986 -0.503938 4.48412 64.0987
5264843 10.7637 11.7048 21.9317 19.6986 -0.503938 4.48412 64.0987
5264849 10.7549 11.8153 21.8726 19.6888 -0.437942 4.44194 64.1316
5264859 10.6845 11.7692 21.8628 19.7278 -0.409952 4.48211 64.0443
5264870 10.6845 11.7692 21.8628 19.7278 -0.409952 4.48211 64.0443
5264879 10.7021 11.7692 21.912 19.6986 -0.447184 4.48003 64.0818
5264903 10.6756 11.7784 21.8037 19.6693 -0.403416 4.46265 63.9271
5264909 10.7285 11.7416 21.784 19.6206 -0.450209 4.44649 63.8747
5264919 10.7285 11.7416 21.784 19.6206 -0.450209 4.44649 63.8747
5264929 10.7285 11.7508 21.7939 19.6791 -0.427063 4.45496 63.9523
5264939 10.7197 11.7508 21.7939 19.5817 -0.462471 4.44155 63.846
5264950 10.7197 11.8245 21.7939 19.5817 -0.433123 4.41914 63.9197
5264959 10.7725 11.8705 21.7643 19.6888 -0.381269 4.40199 64.0962
5264981 10.8166 11.8429 21.7446 19.6304 -0.42475 4.38409 64.0345
5264990 10.7902 11.8337 21.725 19.6206 -0.414568 4.39 63.9694
5265012 10.7725 11.9166 21.6757 19.6011 -0.363691 4.35883 63.966
5265021 10.7725 11.9166 21.6757 19.6011 -0.363691 4.35883 63.966
5265031 10.8342 11.9258 21.6659 19.533 -0.407042 4.32439 63.9588
5265041 10.8606 11.9074 21.6068 19.5037 -0.413427 4.30721 63.8785
5265051 10.8606 11.9074 21.6068 19.5037 -0.413427 4.30721 63.8785
5265061 10.8606 12.0547 21.5576 19.5037 -0.335979 4.25452 63.9767
5265070 10.8254 12.0179 21.597 19.5232 -0.344452 4.2861 63.9635
5265081 10.8254 12.0179 21.597 19.5232 -0.344452 4.2861 63.9635
5265093 10.9047 12.0731 21.5478 19.4453 -0.365023 4.22425 63.9708
5265108 10.9047 12.0731 21.5478 19.4453 -0.365023 4.22425 63.9708
5265123 10.8694 12.1744 21.4001 19.3576 -0.28899 4.16459 63.8016
5265132 10.8694 12.1744 21.4001 19.3576 -0.28899 4.16459 63.8016
5265145 10.9663 12.2297 21.41 19.2797 -0.339253 4.1074 63.8856
5265151 10.9575 12.3034 21.3312 19.2309 -0.295511 4.06623 63.823
5265166 10.9575 12.3034 21.3312 19.2309 -0.295511 4.06623 63.823
5265170 11.028 12.3218 21.3017 19.2309 -0.304049 4.03465 63.8824
5265192 11.0104 12.331 21.2721 19.2894 -0.259036 4.04212 63.9029
5265203 11.0544 12.3862 21.2918 19.2699 -0.269555 4.01261 64.0024
5265212 11.0544 12.3862 21.2918 19.2699 -0.269555 4.01261 64.0024
5265223 11.072 12.377 21.2131 19.2309 -0.264946 3.98986 63.8931
5265235 11.0456 12.3954 21.2525 19.2504 -0.25498 4.00238 63.9439
5265242 11.0456 12.3954 21.2525 19.2504 -0.25498 4.00238 63.9439
5265252 11.1073 12.4047 21.2721 19.2115 -0.298178 3.97802 63.9955
5265262 11.1073 12.4047 21.2721 19.2115 -0.298178 3.97802 63.9955
5265272 11.1425 12.4323 21.2328 19.2212 -0.281815 3.95429 64.0287
5265290 11.1865 12.506 21.2032 19.192 -0.269879 3.90934 64.0877
5265303 11.1953 12.5336 21.1934 19.1238 -0.285487 3.88507 64.0461
5265323 11.1689 12.5244 21.1343 19.1043 -0.263786 3.88194 63.9319
5265327 11.1689 12.5244 21.1343 19.1043 -0.263786 3.88194 63.9319
5265333 11.1425 12.4783 21.1147 19.0946 -0.267997 3.89826 63.83
5265343 11.1425 12.4783 21.1147 19.0946 -0.267997 3.89826 63.83
5265356 11.1425 12.4415 20.9768 19.0458 -0.248396 3.87665 63.6067
5265363 11.2394 12.4967 21.0654 18.9192 -0.348733 3.82493 63.7208
5265380 11.2394 12.4967 21.0654 18.9192 -0.348733 3.82493 63.7208
5265383 11.2306 12.5244 20.9965 18.9095 -0.311518 3.80556 63.6609
5265393 11.213 12.5428 20.9867 18.9484 -0.278069 3.81044 63.6909
5265403 11.213 12.5428 20.9867 18.9484 -0.278069 3.81044 63.6909
5265416 11.301 12.5796 21.0556 18.9095 -0.3397 3.77889 63.8457
5265423 11.301 12.5796 21.0556 18.9095 -0.3397 3.77889 63.8457
5265433 11.2746 12.5888 21.0162 19.0556 -0.252755 3.80268 63.9353
5265444 11.2834 12.6441 21.1147 19.0264 -0.283921 3.79597 64.0685
5265464 11.3275 12.6441 21.0654 18.9776 -0.301158 3.7659 64.0146
5265474 11.2922 12.6441 21.0261 19.0069 -0.260794 3.77446 63.9693
5265484 11.2922 12.6441 21.0261 19.0069 -0.260794 3.77446 63.9693
5265494 11.301 12.6625 21.0359 18.89 -0.306956 3.74764 63.8894
5265504 11.301 12.6625 21.0359 18.89 -0.306956 3.74764 63.8894
5265514 11.3098 12.6625 20.9572 18.9095 -0.27218 3.73461 63.839
5265525 11.3363 12.6901 21.0162 18.851 -0.317454 3.71887 63.8936
5265534 11.3363 12.6901 21.0162 18.851 -0.317454 3.71887 63.8936
5265546 11.3891 12.6901 20.9276 18.812 -0.319093 3.68082 63.8189
5265554 11.2922 12.6809 20.9473 18.851 -0.277396 3.72231 63.7715
5265567 11.2922 12.6809 20.9473 18.851 -0.277396 3.72231 63.7715
5265574 11.3539 12.6717 21.0457 18.8802 -0.331374 3.72947 63.9516
5265594 11.3187 12.6533 21.0064 18.8705 -0.313722 3.73654 63.8488
5265604 11.3627 12.6533 21.0359 18.9192 -0.322838 3.73741 63.9711
5265621 11.3627 12.6533 21.0359 18.9192 -0.322838 3.73741 63.9711
5265626 11.3539 12.6349 21.0162 18.9582 -0.303708 3.74879 63.9632
5265635 11.3275 12.6257 20.9473 18.9095 -0.28978 3.73852 63.8099
5265662 11.3539 12.6533 20.9768 18.8997 -0.304346 3.72615 63.8837
5265666 11.3539 12.6533 20.9768 18.8997 -0.304346 3.72615 63.8837
5265676 11.2658 12.6441 20.9572 18.8997 -0.266261 3.75124 63.7668
5265687 11.3275 12.6165 21.0556 18.9289 -0.327571 3.76372 63.9285
5265696 11.3275 12.6165 21.0556 18.9289 -0.327571 3.76372 63.9285
5265713 11.2746 12.5612 21.0457 18.8607 -0.352354 3.78179 63.7423
5265716 11.3187 12.5612 21.1245 18.9582 -0.361058 3.79975 63.9625
5265726 11.3187 12.5704 21.1245 18.9582 -0.357407 3.79705 63.9717
5265737 11.2834 12.6533 21.1245 18.9874 -0.299467 3.78818 64.0486
5265747 11.2834 12.6533 21.1245 18.9874 -0.299467 3.78818 64.0486
5265759 11.3187 12.552 21.0654 19.0069 -0.322632 3.80065 63.943
5265766 11.2922 12.552 21.0457 19.0264 -0.29711 3.80839 63.9163
5265787 11.2746 12.5612 21.0064 18.9679 -0.294571 3.79371 63.8101
5265797 11.257 12.5336 21.0359 18.9971 -0.298546 3.81735 63.8236
5265807 11.257 12.5336 21.0359 18.9971 -0.298546 3.81735 63.8236
5265832 11.2834 12.5244 21.1245 18.9484 -0.365961 3.81925 63.8807
5265837 11.2834 12.506 21.1245 18.9582 -0.369407 3.82639 63.872
5265849 11.301 12.552 21.1737 19.0653 -0.334445 3.83495 64.0921
5265858 11.301 12.552 21.1737 19.0653 -0.334445 3.83495 64.0921
5265871 11.2482 12.5244 21.1442 19.0069 -0.336775 3.84329 63.9236
5265878 11.2658 12.4783 21.095 19.0264 -0.335108 3.84649 63.8655
5265888 11.2658 12.4783 21.095 19.0264 -0.335108 3.84649 63.8655
5265898 11.2482 12.4967 21.1934 19.0166 -0.36284 3.86172 63.955
5265908 11.2482 12.4967 21.1934 19.0166 -0.36284 3.86172 63.955
5265920 11.2218 12.4875 21.154 19.0166 -0.341119 3.86538 63.8799
5265928 11.2746 12.5152 21.1737 19.0653 -0.338843 3.85356 64.0288
5265942 11.2746 12.5152 21.1737 19.0653 -0.338843 3.85356 64.0288
5265948 11.2394 12.4231 21.2032 19.0264 -0.388618 3.88949 63.8921
5265965 11.2482 12.4231 21.1245 19.0166 -0.365517 3.87147 63.8124
5265968 11.2482 12.4231 21.1245 19.0166 -0.365517 3.87147 63.8124
5265978 11.257 12.4507 21.2032 19.0264 -0.384428 3.87612 63.9373
5265988 11.257 12.4507 21.2032 19.0264 -0.384428 3.87612 63.9373
5265998 11.2834 12.4047 21.2229 19.0361 -0.41659 3.88703 63.9471
5266008 11.2834 12.377 21.2032 19.0361 -0.420004 3.89177 63.8998
5266037 11.301 12.3954 21.1245 18.9776 -0.412402 3.85721 63.7986
5266039 11.2746 12.4231 21.1737 19.0556 -0.379205 3.87902 63.927
5266049 11.2746 12.4231 21.1737 19.0556 -0.379205 3.87902 63.927
5266059 11.213 12.4047 21.1737 18.9289 -0.413159 3.88065 63.7203
5266079 11.2218 12.4139 21.1245 19.0069 -0.362849 3.88032 63.767
5266091 11.1953 12.4139 21.1343 19.0361 -0.34482 3.89495 63.7796
5266099 11.1953 12.4139 21.1343 19.0361 -0.34482 3.89495 63.7796
5266109 11.2922 12.4599 21.154 18.9582 -0.402485 3.84253 63.8643
5266119 11.2922 12.4231 21.1245 19.0458 -0.370897 3.86355 63.8856
5266141 11.257 12.4967 21.1934 19.0166 -0.366232 3.85912 63.9638
5266152 11.257 12.4967 21.1934 19.0166 -0.366232 3.85912 63.9638
5266161 11.2306 12.4967 21.1737 19.0166 -0.348461 3.86349 63.9176
5266171 11.3363 12.4231 21.2721 18.9971 -0.463934 3.86779 64.0286
5266181 11.3363 12.4231 21.2721 18.9971 -0.463934 3.86779 64.0286
5266191 11.3539 12.506 21.095 18.9874 -0.373578 3.80559 63.9422
5266200 11.2922 12.4967 21.1245 18.9289 -0.388077 3.82139 63.8424
5266210 11.2922 12.4967 21.1245 18.9289 -0.388077 3.82139 63.8424
5266221 11.3363 12.4691 21.1442 18.9679 -0.408112 3.82682 63.9175
5266230 11.3363 12.4691 21.1442 18.9679 -0.408112 3.82682 63.9175
5266242 11.301 12.4967 21.2131 18.9679 -0.410083 3.84109 63.9788
5266250 11.2834 12.506 21.1934 18.9289 -0.407563 3.83332 63.9117
5266271 11.2922 12.5152 21.1245 18.89 -0.396252 3.80913 63.8219
5266284 11.3187 12.5152 21.095 18.9192 -0.383431 3.8013 63.848
5266306 11.3363 12.5244 21.1737 18.9095 -0.420737 3.80549 63.9438
5266322 11.2482 12.4415 21.1442 18.9095 -0.408439 3.85075 63.7433
5266332 11.3363 12.506 21.1147 18.9289 -0.397593 3.80398 63.8858
5266352 11.2834 12.506 21.1048 18.89 -0.388928 3.81099 63.7842
5266362 11.257 12.4967 21.095 18.7828 -0.421332 3.80095 63.6315
5266373 11.257 12.4967 21.095 18.7828 -0.421332 3.80095 63.6315
5266383 11.3098 12.4599 21.1442 18.89 -0.432631 3.82368 63.8039
5266393 11.3098 12.4599 21.1442 18.89 -0.432631 3.82368 63.8039
5266403 11.2922 12.4875 21.154 18.9387 -0.399244 3.83098 63.8725
5266414 11.301 12.5152 21.095 19.0264 -0.334103 3.82524 63.9375
5266423 11.301 12.5152 21.095 19.0264 -0.334103 3.82524 63.9375
5266433 11.301 12.5244 21.1934 19.0361 -0.364515 3.84141 64.0549
5266443 11.2834 12.506 21.2426 19.0069 -0.395542 3.8555 64.0389
5266453 11.2834 12.506 21.2426 19.0069 -0.395542 3.8555 64.0389
5266463 11.2834 12.4323 21.1934 19.0264 -0.398122 3.87204 63.9355
5266489 11.2482 12.4047 21.1737 19.0361 -0.384079 3.88889 63.8627
5266501 11.213 12.4323 21.2426 18.9971 -0.401561 3.89634 63.885
5266512 11.213 12.4323 21.2426 18.9971 -0.401561 3.89634 63.885
5266518 11.2482 12.3678 21.282 19.0361 -0.440396 3.91858 63.9341
5266523 11.2306 12.4047 21.2623 19.0458 -0.407535 3.91118 63.9434
5266534 11.2306 12.4047 21.2623 19.0458 -0.407535 3.91118 63.9434
5266543 11.2394 12.3954 21.282 19.0751 -0.41054 3.91977 63.9919
5266553 11.2394 12.3954 21.282 19.0751 -0.41054 3.91977 63.9919
5266563 11.1689 12.3586 21.2131 19.0556 -0.379252 3.93624 63.7962
5266574 11.213 12.3862 21.2918 19.0946 -0.400086 3.93539 63.9856
5266595 11.1865 12.3586 21.2328 19.153 -0.354944 3.95129 63.9309
5266604 11.213 12.3954 21.2623 19.0946 -0.385071 3.92755 63.9653
5266627 11.2306 12.3862 21.2623 19.114 -0.387771 3.92844 63.9932
5266639 11.2306 12.3862 21.2623 19.114 -0.387771 3.92844 63.9932
5266652 11.1601 12.3494 21.2426 19.0848 -0.379287 3.95177 63.8369
5266656 11.2041 12.3494 21.3214 19.1433 -0.403337 3.96241 64.0182
5266669 11.2041 12.3494 21.3214 19.1433 -0.403337 3.96241 64.0182
5266676 11.1249 12.3218 21.2623 19.0848 -0.384282 3.97385 63.7938
5266686 11.1513 12.3678 21.2623 19.1238 -0.36069 3.95906 63.9052
5266697 11.1513 12.3678 21.2623 19.1238 -0.36069 3.95906 63.9052
5266706 11.0808 12.3586 21.282 19.1725 -0.325429 3.99452 63.8939
5266717 11.0808 12.3586 21.282 19.1725 -0.325429 3.99452 63.8939
5266725 11.1073 12.2113 21.2721 19.1628 -0.394246 4.02717 63.7534
5266736 11.1425 12.2665 21.3411 19.2602 -0.373706 4.02878 64.0102
5266746 11.1425 12.2665 21.3411 19.2602 -0.373706 4.02878 64.0102
5266758 11.072 12.3126 21.3115 19.2115 -0.336236 4.02262 63.9076
5266766 11.0808 12.2665 21.282 19.2309 -0.338767 4.03199 63.8603
5266780 11.0808 12.2665 21.282 19.2309 -0.338767 4.03199 63.8603
5266787 11.072 12.2113 21.4001 19.2407 -0.398982 4.073 63.9241
5266802 11.072 12.2113 21.4001 19.2407 -0.398982 4.073 63.9241
5266807 11.0544 12.1928 21.3706 19.3479 -0.34561 4.09701 63.9657
5266817 11.0456 12.1928 21.4296 19.3284 -0.372687 4.10638 63.9965
5266827 11.0456 12.1928 21.4296 19.3284 -0.372687 4.10638 63.9965
5266837 10.9751 12.1376 21.4001 19.3381 -0.352202 4.14062 63.8509
5266847 10.9487 12.0731 21.4198 19.3966 -0.351989 4.18116 63.8382
5266857 10.9487 12.0731 21.4198 19.3966 -0.351989 4.18116 63.8382
5266869 10.9487 12.11 21.4493 19.4063 -0.344902 4.17676 63.9143
5266891 10.9047 12.0915 21.4592 19.455 -0.319697 4.20541 63.9104
5266898 10.9575 12.1284 21.5379 19.5037 -0.336567 4.20001 64.1275
5266918 10.9047 12.0823 21.4789 19.5135 -0.307801 4.22136 63.9793
5266928 10.9135 12.0547 21.4986 19.455 -0.352891 4.22048 63.9217
5266938 10.9135 12.0547 21.4986 19.455 -0.352891 4.22048 63.9217
5266948 10.9223 12.0179 21.5281 19.533 -0.351375 4.247 64.0012
5266969 10.799 12.0271 21.5084 19.5037 -0.304109 4.27317 63.8382
5266983 10.8694 11.9902 21.5871 19.5719 -0.349274 4.28766 64.0187
5266989 10.8694 11.9902 21.5871 19.5719 -0.349274 4.28766 64.0187
5267002 10.8518 11.9718 21.5478 19.5719 -0.334607 4.29193 63.9433
5267009 10.7902 11.9718 21.6167 19.6206 -0.318116 4.3302 63.9993
5267029 10.8518 11.9626 21.6265 19.6109 -0.353161 4.31439 64.0518
5267039 10.7902 11.8889 21.6364 19.6401 -0.350811 4.36179 63.9556
5267050 10.7902 11.8889 21.6364 19.6401 -0.350811 4.36179 63.9556
5267059 10.7813 11.8337 21.6757 19.6693 -0.372908 4.39259 63.9601
5267069 10.7813 11.8337 21.6757 19.6693 -0.372908 4.39259 63.9601
5267082 10.7549 11.8245 21.7151 19.7181 -0.362232 4.41798 64.0126
5267090 10.7197 11.8797 21.7053 19.7473 -0.311443 4.41511 64.052
5267099 10.7197 11.8797 21.7053 19.7473 -0.311443 4.41511 64.052
5267113 10.7902 11.8245 21.7348 19.6888 -0.394939 4.40572 64.0383
5267129 10.7902 11.8245 21.7348 19.6888 -0.394939 4.40572 64.0383
5267134 10.6933 11.7969 21.7151 19.7473 -0.337845 4.44993 63.9525
5267140 10.7285 11.8337 21.7545 19.7862 -0.336586 4.44095 64.1029
5267151 10.7285 11.8337 21.7545 19.7862 -0.336586 4.44095 64.1029
5267161 10.6668 11.7784 21.7643 19.7375 -0.357792 4.47008 63.9471
5267171 10.7109 11.7876 21.725 19.7862 -0.336646 4.45542 64.0097
5267181 10.7109 11.7876 21.725 19.7862 -0.336646 4.45542 64.0097
5267193 10.7637 11.7692 21.784 19.796 -0.383124 4.45629 64.113
5267202 10.6845 11.7876 21.7545 19.8155 -0.326279 4.47312 64.0421
5267222 10.6933 11.714 21.7939 19.8252 -0.370137 4.50092 64.0263
5267233 10.6933 11.714 21.7939 19.8252 -0.370137 4.50092 64.0263
5267243 10.6933 11.7416 21.7151 19.7862 -0.344297 4.47317 63.9362
5267256 10.7197 11.7692 21.7151 19.7862 -0.343539 4.45672 63.9903
5267264 10.7197 11.7692 21.7151 19.7862 -0.343539 4.45672 63.9903
5267273 10.7461 11.8429 21.7151 19.8252 -0.309186 4.43275 64.1293
5267285 10.7725 11.7876 21.7643 19.8057 -0.367802 4.44639 64.1302
5267296 10.7725 11.7876 21.7643 19.8057 -0.367802 4.44639 64.1302
5267304 10.7461 11.8337 21.6954 19.7862 -0.320627 4.42587 64.0615
5267314 10.7461 11.8337 21.6954 19.7862 -0.320627 4.42587 64.0615
5267324 10.7285 11.8429 21.6462 19.7473 -0.306621 4.41385 63.9649
5267334 10.8606 11.8337 21.6954 19.6791 -0.407089 4.37347 64.0688
5267344 10.8606 11.8337 21.6954 19.6791 -0.407089 4.37347 64.0688
5267354 10.7637 11.8797 21.5675 19.6109 -0.329261 4.35624 63.8218
5267370 10.8166 11.9074 21.5281 19.5135 -0.3622 4.30897 63.7655
5267375 10.8166 11.9074 21.5281 19.5135 -0.3622 4.30897 63.7655
5267385 10.843 11.9074 21.5478 19.5622 -0.360642 4.31244 63.8603
5267396 10.843 11.9074 21.5478 19.5622 -0.360642 4.31244 63.8603
5267404 10.8254 11.9995 21.4493 19.5135 -0.298569 4.26523 63.7877
5267414 10.9135 12.0639 21.4592 19.4453 -0.337912 4.20942 63.8818
5267424 10.9135 12.0639 21.4592 19.4453 -0.337912 4.20942 63.8818
5267434 10.9927 12.0823 21.3706 19.3771 -0.354071 4.15351 63.8227
5267444 10.9311 12.2021 21.3903 19.4355 -0.267272 4.14938 63.959
5267464 10.9311 12.2297 21.4198 19.3771 -0.290869 4.1362 63.9577
5267474 10.9311 12.2297 21.4198 19.3771 -0.290869 4.1362 63.9577
5267484 11.0192 12.2297 21.3804 19.416 -0.294271 4.10981 64.0453
5267497 11.028 12.2665 21.3804 19.416 -0.283128 4.0962 64.091
5267506 11.028 12.2665 21.3804 19.416 -0.283128 4.0962 64.091
5267522 11.028 12.2941 21.3312 19.3868 -0.264765 4.07461 64.0402
5267526 11.0192 12.3034 21.3115 19.3089 -0.280896 4.05781 63.9429
5267536 11.0192 12.3034 21.3115 19.3089 -0.280896 4.05781 63.9429
5267546 10.9927 12.3218 21.3115 19.3089 -0.263399 4.0602 63.9349
5267556 10.9927 12.3218 21.3115 19.3089 -0.263399 4.0602 63.9349
5267568 10.9663 12.2573 21.282 19.3186 -0.263369 4.08395 63.8242
5267576 10.9663 12.3678 21.3214 19.2797 -0.250335 4.05103 63.9352
5267591 10.9663 12.3678 21.3214 19.2797 -0.250335 4.05103 63.9352
5267596 11.0632 12.2849 21.282 19.2991 -0.297642 4.04345 63.9293
5267608 10.9399 12.2941 21.3312 19.2309 -0.292343 4.07425 63.7962
5267616 10.9399 12.2941 21.3312 19.2309 -0.292343 4.07425 63.7962
5267627 10.9839 12.2205 21.3607 19.2309 -0.350042 4.08817 63.7961
5267638 10.9839 12.2205 21.3607 19.2309 -0.350042 4.08817 63.7961
5267647 10.9223 12.2757 21.3903 19.2699 -0.300235 4.10179 63.8582
5267661 11.0104 12.2665 21.3706 19.2699 -0.330311 4.07486 63.9174
5267676 11.0104 12.2665 21.3706 19.2699 -0.330311 4.07486 63.9174
5267678 11.0192 12.2941 21.3903 19.2699 -0.330362 4.06736 63.9735
5267687 10.9663 12.2849 21.3509 19.2602 -0.302252 4.07748 63.8623
5267697 10.9663 12.2849 21.3509 19.2602 -0.302252 4.07748 63.8623
5267708 10.9927 12.3034 21.4296 19.2894 -0.324 4.08253 64.0152
5267717 10.9927 12.3034 21.4296 19.2894 -0.324 4.08253 64.0152
5267733 10.9311 12.2113 21.41 19.2894 -0.329088 4.12512 63.8417
5267737 10.9399 12.3034 21.41 19.3284 -0.280601 4.10159 63.9816
5267764 10.9663 12.3126 21.3903 19.2309 -0.318104 4.07096 63.9001
5267768 10.9487 12.2481 21.3607 19.2602 -0.31385 4.09544 63.8177
5267787 10.9487 12.2481 21.3607 19.2602 -0.31385 4.09544 63.8177
5267789 10.9927 12.2665 21.3017 19.2991 -0.285299 4.07333 63.8601
5267798 10.9927 12.2665 21.3017 19.2991 -0.285299 4.07333 63.8601
5267811 10.8959 12.2021 21.4001 19.2504 -0.330785 4.13013 63.7485
5267818 10.9751 12.2757 21.4198 19.2991 -0.320487 4.09602 63.9698
5267829 10.9751 12.2757 21.4198 19.2991 -0.320487 4.09602 63.9698
5267839 10.9839 12.2941 21.4296 19.2991 -0.320393 4.08957 64.0069
5267849 10.9487 12.3034 21.3804 19.2504 -0.303425 4.08062 63.8829
5267869 11.028 12.3586 21.4296 19.2699 -0.32343 4.05227 64.0862
5267889 10.9223 12.2665 21.2918 19.2504 -0.273477 4.08438 63.7311
5267906 11.0016 12.2941 21.4001 19.2797 -0.323509 4.07595 63.9755
5267919 10.9399 12.331 21.41 19.2504 -0.300494 4.08005 63.9313
5267934 11.0104 12.3402 21.4493 19.3576 -0.296891 4.08129 64.1575
5267939 11.0104 12.3402 21.4493 19.3576 -0.296891 4.08129 64.1575
5267950 11.0544 12.3678 21.3804 19.3381 -0.284103 4.04493 64.1408
5267970 10.9839 12.2849 21.3706 19.2504 -0.320533 4.07392 63.8899
5267987 10.9839 12.3218 21.3903 19.2407 -0.317401 4.06463 63.9367
5267991 10.9839 12.3218 21.3903 19.2407 -0.317401 4.06463 63.9367
5267999 10.9839 12.3218 21.3214 19.2894 -0.271498 4.06117 63.9165
5268012 10.9663 12.3126 21.3214 19.2017 -0.303046 4.05415 63.802
5268021 10.9663 12.3126 21.3214 19.2017 -0.303046 4.05415 63.802
5268035 11.0104 12.3586 21.3903 19.2017 -0.328442 4.03911 63.961
5268041 11.0104 12.3586 21.3903 19.2017 -0.328442 4.03911 63.961
5268051 11.0104 12.3034 21.3706 19.2407 -0.327295 4.05887 63.925
5268061 11.0192 12.331 21.4789 19.2212 -0.369182 4.0632 64.0502
5268071 11.0192 12.331 21.4789 19.2212 -0.369182 4.0632 64.0502
5268081 10.9663 12.3402 21.4986 19.2699 -0.333501 4.08786 64.075
5268091 10.9487 12.2389 21.4296 19.2504 -0.347997 4.10829 63.8677
5268103 10.9487 12.2389 21.4296 19.2504 -0.347997 4.10829 63.8677
5268111 10.9311 12.2573 21.4887 19.3186 -0.329655 4.12971 63.9957
5268130 10.8959 12.2113 21.4592 19.2797 -0.338358 4.1424 63.846
5268144 10.9047 12.2389 21.5084 19.3089 -0.33821 4.14481 63.9608
5268165 10.9399 12.2573 21.5379 19.3089 -0.355862 4.13378 64.044
5268172 10.8518 12.2481 21.5576 19.3089 -0.33316 4.16623 63.9664
5268186 10.8518 12.2481 21.5576 19.3089 -0.33316 4.16623 63.9664
5268192 10.8518 12.2021 21.5675 19.3381 -0.343618 4.18664 63.9594
5268202 10.8518 12.2021 21.5675 19.3381 -0.343618 4.18664 63.9594
5268212 10.8782 12.1744 21.5871 19.3576 -0.364609 4.19362 63.9974
5268229 10.843 12.1652 21.5478 19.3186 -0.354967 4.19372 63.8746
5268232 10.843 12.1652 21.5478 19.3186 -0.354967 4.19372 63.8746
5268242 10.8254 12.1744 21.5379 19.3479 -0.329119 4.19953 63.8856
5268253 10.8606 12.2113 21.6068 19.3771 -0.343101 4.19447 64.0558
5268263 10.8606 12.2113 21.6068 19.3771 -0.343101 4.19447 64.0558
5268276 10.8782 12.1744 21.5281 19.3284 -0.353441 4.1787 63.9091
5268297 10.8694 12.1928 21.5281 19.3381 -0.338878 4.17746 63.9285
5268304 10.8782 12.1928 21.6364 19.3284 -0.387824 4.19148 64.0358
5268324 10.8342 12.2021 21.6068 19.2894 -0.371319 4.19035 63.9325
5268335 10.9311 12.2389 21.5576 19.2894 -0.375061 4.14195 64.017
5268344 10.9311 12.2389 21.5576 19.2894 -0.375061 4.14195 64.017
5268354 10.887 12.2113 21.5379 19.2894 -0.361478 4.16007 63.9256
5268374 10.9047 12.2205 21.5675 19.2991 -0.372119 4.15869 63.9917
5268386 10.9047 12.2021 21.4986 19.2115 -0.387709 4.13762 63.8167
5268394 10.9047 12.2021 21.4986 19.2115 -0.387709 4.13762 63.8167
5268422 10.8959 12.156 21.4592 19.1628 -0.406867 4.13908 63.6738
5268423 10.8782 12.2297 21.4789 19.1433 -0.386064 4.12228 63.7301
5268428 10.8782 12.2297 21.4789 19.1433 -0.386064 4.12228 63.7301
5268436 10.9223 12.2205 21.5182 19.153 -0.418024 4.12021 63.814
5268446 10.9223 12.2205 21.5084 19.153 -0.414233 4.11854 63.8042
5268456 10.9223 12.3034 21.5084 19.2407 -0.346476 4.10868 63.9747
5268466 10.9575 12.2389 21.6068 19.2309 -0.42731 4.13249 64.0342
5268476 10.9575 12.2389 21.6068 19.2309 -0.42731 4.13249 64.0342
5268487 10.9223 12.2481 21.5576 19.2699 -0.375743 4.13853 63.9979
5268496 10.9751 12.2849 21.5576 19.2309 -0.396909 4.10512 64.0486
5268517 10.9399 12.2941 21.6462 19.2212 -0.417601 4.12628 64.1015
5268527 10.9487 12.2849 21.597 19.2309 -0.401883 4.1197 64.0616
5268547 10.9927 12.2665 21.5281 19.1433 -0.43447 4.08539 63.9306
5268567 10.9839 12.3034 21.5281 19.2115 -0.389367 4.08866 64.0268
5268581 10.9751 12.331 21.5478 19.1335 -0.413516 4.07311 63.9874
5268587 10.9751 12.331 21.5478 19.1335 -0.413516 4.07311 63.9874
5268597 11.0016 12.3494 21.5084 19.0556 -0.432199 4.03967 63.9149
5268607 11.0016 12.3218 21.4789 19.1628 -0.389232 4.0612 63.9649
5268617 11.0016 12.3218 21.4789 19.1628 -0.389232 4.0612 63.9649
5268627 11.0192 12.3218 21.5478 19.1725 -0.418611 4.06939 64.0612
5268648 11.0456 12.3218 21.4789 19.0946 -0.433263 4.0364 63.9408
5268657 11.0544 12.2757 21.5182 19.1238 -0.458454 4.05924 63.9722
5268669 11.0544 12.2757 21.5182 19.1238 -0.458454 4.05924 63.9722
5268677 11.072 12.3034 21.4592 19.0361 -0.466464 4.0206 63.8707
5268691 11.072 12.3034 21.4592 19.0361 -0.466464 4.0206 63.8707
5268699 11.0104 12.3494 21.4887 19.0264 -0.439651 4.02865 63.8748
5268713 11.0104 12.2941 21.4198 19.0361 -0.431268 4.03496 63.7604
5268728 10.9839 12.2665 21.4986 19.0556 -0.454664 4.06797 63.8046
5268738 10.9927 12.3034 21.4592 19.1433 -0.393319 4.06261 63.8986
5268749 10.9927 12.3034 21.4592 19.1433 -0.393319 4.06261 63.8986
5268759 11.0456 12.3034 21.4887 19.0848 -0.448251 4.0419 63.9225
5268769 11.0368 12.3218 21.4493 19.0751 -0.426279 4.03061 63.883
5268780 11.0368 12.3218 21.4493 19.0751 -0.426279 4.03061 63.883
5268789 11.072 12.331 21.4789 19.153 -0.416528 4.03582 64.0349
5268802 11.072 12.331 21.4789 19.153 -0.416528 4.03582 64.0349
5268809 11.0632 12.3034 21.5084 19.0653 -0.470328 4.03669 63.9403
5268824 11.0984 12.3402 21.469 19.1238 -0.43084 4.01853 64.0314
5268829 11.0984 12.3402 21.469 19.1238 -0.43084 4.01853 64.0314
5268839 11.0808 12.3126 21.5281 19.0848 -0.473209 4.03542 64.0063
5268850 11.0632 12.2941 21.4493 19.1238 -0.428048 4.03933 63.9305
5268859 11.0632 12.2941 21.4493 19.1238 -0.428048 4.03933 63.9305
5268869 11.0544 12.2941 21.4493 19.114 -0.428538 4.04028 63.9119
5268879 11.0544 12.2941 21.4493 19.114 -0.428538 4.04028 63.9119
5268903 11.0368 12.2665 21.4296 19.1433 -0.41355 4.05541 63.8762
5268906 11.0808 12.3218 21.4789 19.153 -0.423564 4.03594 64.0345
5268921 11.0544 12.2849 21.4493 19.1725 -0.408961 4.05304 63.9612
5268933 11.0456 12.2941 21.41 19.1725 -0.386764 4.04618 63.9222
5268941 11.0456 12.2941 21.41 19.1725 -0.386764 4.04618 63.9222
5268954 11.0368 12.2757 21.4789 19.192 -0.409459 4.06942 63.9834
5268962 11.0368 12.2757 21.4789 19.192 -0.409459 4.06942 63.9834
5268971 11.0104 12.1928 21.5478 19.2212 -0.447102 4.11876 63.9722
5268981 11.0192 12.2481 21.4986 19.2115 -0.413488 4.08959 63.9773
5268992 11.0192 12.2481 21.4986 19.2115 -0.413488 4.08959 63.9773
5269001 11.0016 12.2021 21.4887 19.192 -0.42899 4.10361 63.8843
5269010 10.9575 12.1836 21.5084 19.2212 -0.415319 4.13063 63.8708
5269021 10.9575 12.1836 21.5084 19.2212 -0.415319 4.13063 63.8708
5269030 10.9751 12.1836 21.4395 19.2991 -0.364584 4.1269 63.8974
5269046 10.9751 12.1836 21.4395 19.2991 -0.364584 4.1269 63.8974
5269055 10.9487 12.2113 21.4789 19.2797 -0.366345 4.12992 63.9185
5269065 10.9927 12.1744 21.469 19.3673 -0.359358 4.14098 64.0035
5269071 10.9927 12.1744 21.469 19.3673 -0.359358 4.14098 64.0035
5269081 10.9663 12.1652 21.4592 19.3771 -0.345173 4.15163 63.9678
5269109 10.9663 12.1652 21.5084 19.3771 -0.364128 4.15997 64.017
5269110 10.887 12.1928 21.5084 19.3966 -0.314932 4.17874 63.9849
5269112 10.9047 12.11 21.5182 19.3868 -0.362216 4.19834 63.9197
5269121 10.9047 12.11 21.5182 19.3868 -0.362216 4.19834 63.9197
5269131 10.8694 12.1468 21.5478 19.4745 -0.310709 4.21763 64.0385
5269141 10.8606 12.1008 21.4887 19.4745 -0.302729 4.22416 63.9246
5269151 10.8606 12.1008 21.4887 19.4745 -0.302729 4.22416 63.9246
5269161 10.8782 12.1468 21.5675 19.4842 -0.317842 4.21994 64.0767
5269174 10.8782 12.1468 21.5675 19.4842 -0.317842 4.21994 64.0767
5269181 10.8254 12.0731 21.5871 19.533 -0.314929 4.26944 64.0186
5269190 10.843 12.0639 21.5675 19.6499 -0.271615 4.28318 64.1242
5269212 10.8782 12.0823 21.5773 19.6011 -0.300927 4.26056 64.139
5269222 10.8342 12.0731 21.5281 19.5817 -0.27629 4.26505 64.0171
5269232 10.8342 12.0731 21.5281 19.5817 -0.27629 4.26505 64.0171
5269246 10.8342 12.0271 21.5576 19.5135 -0.332874 4.27244 63.9324
5269262 10.843 11.9718 21.4887 19.5622 -0.31226 4.28306 63.8657
5269274 10.8342 12.0823 21.5084 19.5914 -0.261204 4.26061 64.0163
5269282 10.8342 12.0823 21.5084 19.5914 -0.261204 4.26061 64.0163
5269292 10.8342 11.935 21.4887 19.5232 -0.338934 4.29031 63.7811
5269303 10.8166 11.9534 21.5182 19.5232 -0.336224 4.29503 63.8114
5269316 10.8166 11.9534 21.5182 19.5232 -0.336224 4.29503 63.8114
5269323 10.843 11.9074 21.5675 19.5622 -0.368237 4.31573 63.88
5269343 10.7813 11.9258 21.5675 19.5719 -0.33326 4.33044 63.8465
5269353 10.8694 11.9718 21.6167 19.6109 -0.352508 4.30466 64.0688
5269366 10.8694 11.9718 21.6167 19.6109 -0.352508 4.30466 64.0688
5269376 10.887 12.0363 21.5871 19.5524 -0.345543 4.26524 64.0629
5269389 10.8959 12.0179 21.5773 19.5719 -0.34472 4.26974 64.063
5269393 10.8959 12.0179 21.5773 19.5719 -0.34472 4.26974 64.063
5269403 10.8959 12.0271 21.5871 19.5914 -0.337164 4.27189 64.1015
5269424 10.8518 11.9902 21.5675 19.5232 -0.354207 4.28152 63.9327
5269436 10.8694 12.0639 21.5773 19.5427 -0.327896 4.25895 64.0533
5269444 10.8694 12.0639 21.5773 19.5427 -0.327896 4.25895 64.0533
5269454 10.8694 12.0179 21.5281 19.5135 -0.338723 4.25964 63.9289
5269464 10.887 12.0271 21.5379 19.416 -0.384325 4.23682 63.8681
5269474 10.887 12.0271 21.5379 19.416 -0.384325 4.23682 63.8681
5269485 10.9223 12.0455 21.5379 19.494 -0.359659 4.2338 63.9997
5269494 10.9223 12.0455 21.5379 19.494 -0.359659 4.2338 63.9997
5269518 10.887 12.0639 21.469 19.5037 -0.308345 4.2289 63.9237
5269519 10.9135 12.0731 21.4986 19.4355 -0.353314 4.21166 63.9207
5269524 10.9135 12.0731 21.4986 19.4355 -0.353314 4.21166 63.9207
5269536 10.843 12.0915 21.4789 19.455 -0.30348 4.22728 63.8684
5269544 10.9135 12.1008 21.4986 19.4745 -0.326927 4.20994 63.9873
5269566 10.8959 12.1008 21.4789 19.494 -0.304824 4.21519 63.9695
5269580 10.8959 12.1008 21.4789 19.494 -0.304824 4.21519 63.9695
5269586 10.8782 12.0363 21.5281 19.4258 -0.369604 4.23668 63.8684
5269596 10.8782 12.0271 21.5871 19.5037 -0.365089 4.26249 63.9962
5269616 10.9047 11.9718 21.5675 19.5232 -0.381868 4.27114 63.9672
5269628 10.9047 12.0271 21.5281 19.5232 -0.344799 4.24789 63.983
5269638 10.9047 12.0271 21.5281 19.5232 -0.344799 4.24789 63.983
5269650 10.8606 12.0087 21.5084 19.4842 -0.342971 4.25684 63.8619
5269667 10.9223 12.0271 21.5773 19.4842 -0.385973 4.24432 64.0109
5269677 10.9047 12.0179 21.5281 19.533 -0.344588 4.2523 63.9836
5269687 10.9047 12.0179 21.5281 19.533 -0.344588 4.2523 63.9836
5269697 10.887 11.9995 21.5773 19.533 -0.364056 4.27141 63.9968
5269720 10.8782 12.1008 21.5576 19.4842 -0.332256 4.2321 64.0209
5269727 10.8959 12.0547 21.597 19.4745 -0.376289 4.24563 64.0221
5269737 10.8959 12.0271 21.4986 19.5232 -0.330018 4.24558 63.9447
5269747 10.8959 12.0271 21.4986 19.5232 -0.330018 4.24558 63.9447
5269757 10.9223 12.0271 21.5182 19.5817 -0.324664 4.25076 64.0493
5269767 10.9223 12.0271 21.5182 19.5817 -0.324664 4.25076 64.0493
5269777 10.8606 12.0639 21.4493 19.494 -0.294378 4.23189 63.8679
5269792 10.9047 12.0087 21.5478 19.533 -0.35582 4.25838 63.9941
5269798 10.9047 12.0087 21.5478 19.533 -0.35582 4.25838 63.9941
5269808 10.8959 12.0639 21.5182 19.4842 -0.338455 4.23125 63.9623
5269818 10.8959 12.0639 21.5182 19.4842 -0.338455 4.23125 63.9623
5269828 10.9047 11.9995 21.469 19.5232 -0.332968 4.24628 63.8964
5269841 10.9135 12.0363 21.4493 19.5524 -0.302604 4.23414 63.9515
5269848 10.9135 12.0363 21.4493 19.5524 -0.302604 4.23414 63.9515
5269865 10.9047 12.0547 21.41 19.5524 -0.276698 4.22462 63.9218
5269868 10.8518 12.0547 21.4887 19.5232 -0.298269 4.24887 63.9184
5269878 10.8518 12.0547 21.4887 19.5232 -0.298269 4.24887 63.9184
5269889 10.9047 12.0363 21.5084 19.6011 -0.302739 4.2549 64.0505
5269898 10.9047 12.0363 21.5084 19.6011 -0.302739 4.2549 64.0505
5269911 10.8166 12.0271 21.5281 19.494 -0.322393 4.26952 63.8657
5269928 10.8959 12.0271 21.5379 19.5427 -0.337483 4.25547 64.0036
5269935 10.8959 12.0271 21.5379 19.5427 -0.337483 4.25547 64.0036
5269938 10.8078 12.0271 21.5478 19.5817 -0.291881 4.29018 63.9643
5269948 10.843 12.0271 21.597 19.6206 -0.309059 4.29432 64.0877
5269960 10.843 12.0271 21.597 19.6206 -0.309059 4.29432 64.0877
5269968 10.8959 12.0639 21.5871 19.5817 -0.326461 4.25918 64.1286
5269989 10.7813 11.981 21.5182 19.5914 -0.284608 4.30875 63.872
5269999 10.799 11.9902 21.5773 19.6109 -0.302891 4.31378 63.9774
5270012 10.799 11.9902 21.5773 19.6109 -0.302891 4.31378 63.9774
5270019 10.8254 12.0363 21.5478 19.5914 -0.29119 4.28373 64.0009
5270035 10.8254 11.9995 21.5478 19.533 -0.328904 4.28504 63.9056
5270041 10.8254 11.9995 21.5478 19.533 -0.328904 4.28504 63.9056
5270051 10.887 12.0455 21.5576 19.6011 -0.311278 4.26568 64.0913
5270061 10.8342 11.9902 21.5478 19.5719 -0.320514 4.29169 63.9441
5270071 10.8342 11.9902 21.5478 19.5719 -0.320514 4.29169 63.9441
5270082 10.9223 12.0547 21.5281 19.6401 -0.294462 4.25391 64.1452
5270091 10.9223 12.0547 21.5281 19.6401 -0.294462 4.25391 64.1452
5270104 10.8694 11.9718 21.5084 19.5037 -0.353257 4.26858 63.8534
5270126 10.8078 12.0455 21.5773 19.6206 -0.280611 4.29609 64.0512
5270133 10.8959 12.0547 21.5871 19.6109 -0.318557 4.26684 64.1486
5270141 10.8959 12.0547 21.5871 19.6109 -0.318557 4.26684 64.1486
5270152 10.7902 12.0179 21.4986 19.6109 -0.258122 4.29493 63.9175
5270162 10.843 12.0363 21.5675 19.6693 -0.274825 4.29475 64.1161
5270172 10.843 12.0363 21.5675 19.6693 -0.274825 4.29475 64.1161
5270182 10.8166 11.9166 21.5675 19.5914 -0.342789 4.32582 63.892
5270192 10.8606 11.9626 21.5871 19.5719 -0.356826 4.29865 63.9823
5270212 10.8254 11.9534 21.5576 19.5524 -0.343233 4.30386 63.8888
5270229 10.799 11.9074 21.4986 19.5817 -0.316872 4.32079 63.7865
5270243 10.7813 11.9995 21.5675 19.533 -0.319499 4.30164 63.8812
5270254 10.7813 11.9995 21.5675 19.533 -0.319499 4.30164 63.8812
5270263 10.8254 11.935 21.5182 19.5037 -0.354685 4.29466 63.7823
5270277 10.8782 11.9074 21.5281 19.5817 -0.358905 4.30175 63.8954
5270283 10.8782 11.9074 21.5281 19.5817 -0.358905 4.30175 63.8954
5270293 10.8959 12.0179 21.6364 19.4842 -0.402166 4.26495 64.0343
5270303 10.843 11.981 21.6462 19.5817 -0.361623 4.3099 64.0519
5270314 10.843 11.981 21.6462 19.5817 -0.361623 4.3099 64.0519
5270324 10.8782 12.0271 21.6265 19.5719 -0.353238 4.28051 64.1038
5270349 10.8782 12.0271 21.6265 19.5719 -0.353238 4.28051 64.1038
5270350 10.9047 11.9902 21.597 19.5817 -0.362763 4.28033 64.0736
5270354 10.8782 12.0271 21.6265 19.5914 -0.345533 4.28377 64.1232
5270364 10.8782 12.0271 21.6265 19.5914 -0.345533 4.28377 64.1232
5270375 10.9135 11.9626 21.5576 19.4842 -0.400601 4.26307 63.9179
5270384 10.8959 11.9258 21.5576 19.4842 -0.408466 4.27949 63.8635
5270399 10.8959 11.9258 21.5576 19.4842 -0.408466 4.27949 63.8635
5270404 10.9311 11.9995 21.597 19.5914 -0.365421 4.27124 64.1189
5270425 10.8782 11.9626 21.5576 19.4355 -0.406407 4.2655 63.834
5270436 10.9399 11.9258 21.597 19.5719 -0.405711 4.2875 64.0346
5270457 11.0016 11.9995 21.6265 19.5232 -0.430785 4.24361 64.1507
5270466 10.9311 11.9442 21.6068 19.4648 -0.441368 4.2683 63.9469
5270486 10.9575 11.9995 21.6265 19.4453 -0.44484 4.24375 64.0288
5270498 10.9575 11.9995 21.6265 19.4453 -0.44484 4.24375 64.0288
5270506 10.9399 12.0179 21.4986 19.4063 -0.397052 4.2154 63.8626
5270521 10.9487 11.981 21.5478 19.3966 -0.437921 4.23049 63.8741
5270528 10.9487 11.981 21.5478 19.3966 -0.437921 4.23049 63.8741
5270537 10.9751 12.11 21.5182 19.3186 -0.416435 4.16565 63.922
5270546 10.9399 11.9995 21.5478 19.3186 -0.458258 4.21444 63.8057
5270556 10.9399 11.9995 21.5478 19.3186 -0.458258 4.21444 63.8057
5270567 10.9751 12.0547 21.5871 19.3381 -0.457138 4.19718 63.9551
5270576 10.9751 12.0547 21.5871 19.3381 -0.457138 4.19718 63.9551
5270591 11.0016 12.0823 21.5379 19.3089 -0.449024 4.1677 63.9307
5270596 11.0016 12.0731 21.4887 19.3381 -0.422142 4.16707 63.9015
5270606 11.0016 12.0731 21.4887 19.3381 -0.422142 4.16707 63.9015
5270616 11.028 12.0731 21.5182 19.2797 -0.46692 4.15424 63.899
5270626 10.9839 12.1008 21.5182 19.2894 -0.435115 4.16081 63.8923
5270637 10.9839 12.1008 21.5182 19.2894 -0.435115 4.16081 63.8923
5270647 10.9927 12.0915 21.5379 19.3479 -0.426479 4.17418 63.9701
5270667 10.9927 12.0179 21.5379 19.2991 -0.475217 4.18804 63.8477
5270677 11.072 12.0731 21.4887 19.2894 -0.468609 4.13768 63.9233
5270688 11.072 12.0731 21.4887 19.2894 -0.468609 4.13768 63.9233
5270698 11.0456 12.0363 21.4789 19.2797 -0.473253 4.15332 63.8404
5270714 11.0456 12.0639 21.5379 19.3381 -0.461625 4.16497 63.9856
5270718 11.0456 12.0639 21.5379 19.3381 -0.461625 4.16497 63.9856
5270728 11.0544 12.1192 21.5379 19.3381 -0.443035 4.1458 64.0496
5270738 11.0544 12.1192 21.5379 19.3381 -0.443035 4.1458 64.0496
5270749 11.0192 12.0455 21.5576 19.2894 -0.485781 4.17349 63.9117
5270764 11.028 12.0823 21.597 19.2407 -0.508983 4.15823 63.948
5270768 11.028 12.0823 21.597 19.2407 -0.508983 4.15823 63.948
5270778 11.0544 12.0639 21.5281 19.2894 -0.480625 4.1524 63.9358
5270789 11.0192 12.0639 21.5281 19.3089 -0.459345 4.16627 63.9201
5270811 10.9927 12.0823 21.5576 19.2797 -0.46484 4.16872 63.9124
5270818 10.9927 12.0823 21.5576 19.2797 -0.46484 4.16872 63.9124
