182436 9.25517 9.64741 20.8193 20.1467 -0.117086 5.52797 59.8686
182445 9.20248 9.67495 20.7997 20.1564 -0.0713408 5.53503 59.8335
182456 9.18492 9.71166 20.78 20.137 -0.0485912 5.52225 59.8135
182476 9.22004 9.70248 20.7209 20.137 -0.042446 5.50398 59.7804
182487 9.22004 9.70248 20.7209 20.137 -0.042446 5.50398 59.7804
182497 9.21126 9.7392 20.6815 20.1272 -0.0110313 5.48659 59.7592
182507 9.17614 9.7392 20.7111 20.137 -0.00461489 5.50488 59.7634
182519 9.17614 9.7392 20.7111 20.137 -0.00461489 5.50488 59.7634
182528 9.27273 9.75756 20.6914 20.1759 -0.0127763 5.46859 59.8976
182537 9.22882 9.75756 20.7012 20.2246 0.0217646 5.4929 59.9122
182547 9.22882 9.75756 20.7012 20.2246 0.0217646 5.4929 59.9122
182557 9.27273 9.76674 20.8095 20.1857 -0.0540569 5.48576 60.0346
182567 9.27273 9.76674 20.8095 20.1857 -0.0540569 5.48576 60.0346
182577 9.2376 9.76674 20.7209 20.098 -0.0391856 5.46975 59.8232
182587 9.28151 9.75756 20.7307 20.1175 -0.0572801 5.46255 59.8873
182597 9.28151 9.75756 20.7307 20.1175 -0.0572801 5.46255 59.8873
182607 9.30785 9.74838 20.7504 20.0785 -0.0965998 5.45362 59.8852
182617 9.30785 9.74838 20.7504 20.0785 -0.0965998 5.45362 59.8852
182626 9.29029 9.7851 20.7307 20.0298 -0.0861272 5.43615 59.8359
182637 9.36054 9.80346 20.8292 20.0298 -0.148472 5.42167 60.023
182648 9.36054 9.80346 20.8292 20.0298 -0.148472 5.42167 60.023
182658 9.32541 9.80346 20.7307 19.9519 -0.125746 5.40542 59.8115
182668 9.32541 9.77592 20.8587 19.9421 -0.194521 5.43374 59.9022
182678 9.32541 9.77592 20.8587 19.9421 -0.194521 5.43374 59.9022
182688 9.33419 9.7851 20.8489 19.9421 -0.190221 5.42604 59.9103
182698 9.33419 9.7851 20.8489 19.9421 -0.190221 5.42604 59.9103
182708 9.30785 9.77592 20.8784 19.835 -0.240555 5.42574 59.7971
182718 9.32541 9.7392 20.9079 19.8739 -0.259088 5.44324 59.8465
182728 9.32541 9.7392 20.9079 19.8739 -0.259088 5.44324 59.8465
182738 9.32541 9.7851 20.8784 19.796 -0.260407 5.41037 59.7849
182749 9.33419 9.70248 20.8882 19.8642 -0.274202 5.44808 59.7891
182758 9.33419 9.70248 20.8882 19.8642 -0.274202 5.44808 59.7891
182768 9.31663 9.76674 20.8981 19.8057 -0.268558 5.42435 59.7872
182778 9.31663 9.76674 20.8981 19.8057 -0.268558 5.42435 59.7872
182788 9.31663 9.72084 20.9473 19.8155 -0.304189 5.44947 59.8003
182798 9.35176 9.77592 20.9276 19.8544 -0.270832 5.42175 59.9097
182808 9.35176 9.77592 20.9276 19.8544 -0.270832 5.42175 59.9097
182818 9.36054 9.83099 20.8784 19.8155 -0.247335 5.38587 59.8854
182828 9.33419 9.76674 20.8686 19.8155 -0.259489 5.41518 59.785
182838 9.33419 9.76674 20.8686 19.8155 -0.259489 5.41518 59.785
182848 9.35176 9.75756 20.8292 19.8642 -0.233768 5.41382 59.8027
182859 9.35176 9.75756 20.8292 19.8642 -0.233768 5.41382 59.8027
182869 9.39566 9.76674 20.8587 19.8544 -0.264381 5.39889 59.8756
182889 9.3781 9.77592 20.8882 19.8155 -0.281897 5.40023 59.8577
182899 9.35176 9.7851 20.8292 19.7083 -0.288035 5.37936 59.6743
182909 9.40444 9.77592 20.8784 19.8057 -0.292826 5.38811 59.8645
182919 9.40444 9.77592 20.8784 19.8057 -0.292826 5.38811 59.8645
182929 9.46591 9.80346 20.8882 19.7278 -0.343533 5.34688 59.8854
182939 9.46591 9.80346 20.8882 19.7278 -0.343533 5.34688 59.8854
182949 9.36932 9.75756 20.9375 19.796 -0.31458 5.41425 59.8603
182959 9.422 9.7851 20.9276 19.7375 -0.345314 5.37596 59.8723
182970 9.422 9.7851 20.9276 19.7375 -0.345314 5.37596 59.8723
182979 9.46591 9.81264 20.9572 19.7181 -0.372109 5.35329 59.9537
182989 9.36054 9.7851 20.9276 19.796 -0.295256 5.40628 59.8692
183009 9.422 9.80346 20.9572 19.7862 -0.329109 5.38228 59.9689
183031 9.36054 9.7851 20.9473 19.8447 -0.282814 5.41722 59.9376
183040 9.43957 9.74838 20.9276 19.7668 -0.355718 5.38717 59.8823
183060 9.34298 9.83099 20.9276 19.8837 -0.231697 5.41066 59.9853
183071 9.38688 9.76674 20.7898 19.8447 -0.236356 5.38925 59.7881
183080 9.38688 9.76674 20.7898 19.8447 -0.236356 5.38925 59.7881
183090 9.35176 9.84017 20.8095 19.8837 -0.182606 5.38562 59.8851
183110 9.35176 9.84935 20.7111 19.8837 -0.137883 5.36667 59.7958
183120 9.3781 9.87689 20.7012 20.0201 -0.0760168 5.3687 59.9763
183137 9.3781 9.87689 20.7012 20.0201 -0.0760168 5.3687 59.9763
183140 9.36054 9.95032 20.6815 20.0688 -0.00956208 5.3544 60.0612
183150 9.34298 9.90443 20.5831 20.098 0.0318527 5.36481 59.9285
183160 9.34298 9.90443 20.5831 20.098 0.0318527 5.36481 59.9285
183170 9.30785 9.93197 20.5142 20.2052 0.131375 5.37354 59.9592
183182 9.30785 9.93197 20.5142 20.2052 0.131375 5.37354 59.9592
183192 9.24638 10.0054 20.4256 20.1467 0.200641 5.3458 59.8241
183202 9.22882 9.94114 20.3272 20.1564 0.22698 5.35935 59.6536
183212 9.22882 9.94114 20.3272 20.1564 0.22698 5.35935 59.6536
183222 9.26395 9.96868 20.209 20.2149 0.297788 5.32833 59.6566
183233 9.22882 9.95032 20.1795 20.2344 0.325701 5.34494 59.593
183253 9.1937 10.0421 20.1303 20.4 0.467712 5.34445 59.7661
183274 9.21126 9.98704 20.0515 20.4779 0.503191 5.3571 59.7278
183283 9.22882 9.99622 20.0318 20.6143 0.563657 5.3668 59.8712
183293 9.22882 9.99622 20.0318 20.6143 0.563657 5.3668 59.8712
183304 9.1937 10.0329 20.0122 20.6533 0.617936 5.36936 59.8921
183314 9.22882 10.0238 20.0614 20.6241 0.566262 5.36376 59.938
183334 9.1937 10.0421 20.0122 20.6436 0.617707 5.36467 59.8915
183344 9.1937 10.0421 20.0122 20.6436 0.617707 5.36467 59.8915
183355 9.2376 9.99622 20.0417 20.6436 0.567633 5.3701 59.9191
183364 9.1937 10.0329 20.0023 20.6825 0.634038 5.37248 59.9115
183385 9.22004 9.98704 19.9236 20.6241 0.61397 5.35704 59.7547
183397 9.22882 10.0421 20.1204 20.6046 0.540635 5.36388 59.996
183415 9.17614 9.98704 19.9728 20.6338 0.615668 5.3815 59.7698
183425 9.20248 9.98704 20.0909 20.6046 0.54197 5.38682 59.885
183435 9.20248 9.98704 20.0909 20.6046 0.54197 5.38682 59.885
183447 9.18492 10.0238 20.1106 20.5656 0.540146 5.3772 59.8849
183456 9.18492 10.0238 20.1106 20.5656 0.540146 5.3772 59.8849
183467 9.17614 9.94114 20.209 20.5072 0.444207 5.41476 59.8335
183477 9.17614 9.95032 20.2287 20.5266 0.447595 5.4179 59.8818
183487 9.17614 9.95032 20.2287 20.5266 0.447595 5.4179 59.8818
183498 9.14101 9.94114 20.2681 20.4585 0.414026 5.42841 59.8087
183509 9.10589 9.91361 20.3272 20.4877 0.404552 5.46392 59.8343
183520 9.10589 9.91361 20.3272 20.4877 0.404552 5.46392 59.8343
183532 9.14979 9.91361 20.3075 20.4877 0.39427 5.44578 59.8586
183546 9.14101 9.84935 20.4158 20.3903 0.285488 5.47248 59.7964
183557 9.22004 9.77592 20.5043 20.3318 0.160173 5.47537 59.8321
183577 9.22882 9.7851 20.524 20.3123 0.143927 5.46926 59.8503
183587 9.15857 9.7392 20.6028 20.3513 0.137478 5.52772 59.8518
183607 9.22004 9.77592 20.652 20.3318 0.0982344 5.49881 59.9798
183617 9.22004 9.77592 20.652 20.3318 0.0982344 5.49881 59.9798
183627 9.14979 9.72084 20.7111 20.2636 0.0516325 5.54029 59.8453
183637 9.1937 9.71166 20.7111 20.2344 0.0172466 5.52375 59.8508
183646 9.1937 9.71166 20.7111 20.2344 0.0172466 5.52375 59.8508
183657 9.15857 9.73002 20.8193 20.2441 -0.00157058 5.54815 59.9521
183668 9.15857 9.73002 20.8193 20.2441 -0.00157058 5.54815 59.9521
183678 9.11467 9.70248 20.8587 20.2734 0.00102222 5.58345 59.9492
183688 9.13223 9.66577 20.9375 20.2344 -0.0706807 5.59627 59.9698
183699 9.13223 9.66577 20.9375 20.2344 -0.0706807 5.59627 59.9698
183711 9.16736 9.59233 20.9375 20.2539 -0.107846 5.61249 59.951
183719 9.16736 9.59233 20.9768 20.2636 -0.120103 5.62018 60.0001
183729 9.16736 9.59233 20.9768 20.2636 -0.120103 5.62018 60.0001
183739 9.16736 9.57397 20.9867 20.2636 -0.131874 5.62803 59.9916
183749 9.07955 9.52808 20.9965 20.1954 -0.147399 5.665 59.7996
183760 9.07955 9.52808 20.9965 20.1954 -0.147399 5.665 59.7996
183770 9.10589 9.55562 21.0556 20.2636 -0.14265 5.66625 59.9807
183780 9.10589 9.55562 21.0556 20.2636 -0.14265 5.66625 59.9807
183789 9.08833 9.5189 20.9965 20.2246 -0.142621 5.6697 59.8284
183799 9.06198 9.44546 21.0457 20.3415 -0.133868 5.73001 59.8947
183811 9.06198 9.44546 21.0457 20.3415 -0.133868 5.73001 59.8947
183819 9.07076 9.45464 21.0654 20.2734 -0.170469 5.71628 59.8642
183829 9.11467 9.43629 21.1048 20.2734 -0.212686 5.71355 59.9291
183840 9.11467 9.43629 21.1048 20.2734 -0.212686 5.71355 59.9291
183850 9.08833 9.43629 21.0556 20.3513 -0.148644 5.7271 59.9315
183860 9.08833 9.43629 21.0556 20.3513 -0.148644 5.7271 59.9315
183870 9.04442 9.46382 21.0753 20.3805 -0.1148 5.74033 59.964
183880 9.03564 9.43629 21.1245 20.4097 -0.130865 5.76498 60.0062
183901 9.03564 9.42711 21.1934 20.4097 -0.163233 5.77875 60.0659
183913 9.04442 9.36285 21.0851 20.4097 -0.148971 5.78133 59.9021
183922 9.04442 9.36285 21.0851 20.4097 -0.148971 5.78133 59.9021
183932 9.01808 9.37203 21.0851 20.4097 -0.134185 5.78728 59.885
183942 9.01808 9.37203 21.0851 20.4097 -0.134185 5.78728 59.885
183952 8.94783 9.34449 21.0162 20.4 -0.0919268 5.80919 59.7085
183962 9.0093 9.35367 20.9178 20.4 -0.0726387 5.7694 59.6807
183981 8.98295 9.39039 20.9768 20.4292 -0.0586227 5.77943 59.7794
183992 8.90393 9.36285 20.9572 20.4292 -0.0289187 5.81351 59.6532
184003 8.90393 9.36285 20.9572 20.4292 -0.0289187 5.81351 59.6532
184015 8.96539 9.36285 21.0064 20.6143 0.00225604 5.82807 59.9489
184023 8.96539 9.36285 21.0064 20.6143 0.00225604 5.82807 59.9489
184033 8.91271 9.30778 21.0261 20.5948 -0.0150979 5.86561 59.8414
184043 8.93905 9.36285 21.0654 20.702 0.0251293 5.85961 60.0693
184054 8.93905 9.36285 21.0654 20.702 0.0251293 5.85961 60.0693
184064 8.92149 9.30778 21.0654 20.741 0.0257492 5.89078 60.0357
184074 8.95661 9.33531 21.0359 20.7507 0.0389159 5.86599 60.0785
184094 8.8688 9.37203 21.0359 20.7605 0.0948519 5.88523 60.0372
184104 8.86002 9.24352 21.0753 20.7312 0.0164658 5.93464 59.91
184115 8.86002 9.24352 21.0753 20.7312 0.0164658 5.93464 59.91
184126 8.86002 9.27106 21.1147 20.7799 0.0317901 5.93834 60.0257
184153 8.78977 9.26188 21.0654 20.7994 0.0859976 5.9616 59.9165
184162 8.83368 9.30778 21.1048 20.8579 0.0944912 5.94499 60.1041
184170 8.83368 9.30778 21.1048 20.8579 0.0944912 5.94499 60.1041
184182 8.78977 9.26188 21.1048 20.7799 0.0614166 5.9646 59.9364
184203 8.78099 9.21598 21.1245 20.7897 0.0418037 5.98817 59.9112
184204 8.78099 9.21598 21.1245 20.7897 0.0418037 5.98817 59.9112
184205 8.78099 9.30778 21.095 20.7994 0.0963807 5.95308 59.9832
184216 8.78099 9.30778 21.095 20.7994 0.0963807 5.95308 59.9832
184229 8.73709 9.2527 21.0654 20.8189 0.112355 5.9862 59.8741
184237 8.75465 9.23434 21.1048 20.8774 0.105155 6.00118 59.9712
184246 8.75465 9.23434 21.1048 20.8774 0.105155 6.00118 59.9712
184258 8.74587 9.19762 21.1639 20.9358 0.0931442 6.03471 60.0432
184268 8.71074 9.22516 21.154 20.9456 0.127405 6.03735 60.0355
184278 8.71074 9.22516 21.154 20.9456 0.127405 6.03735 60.0355
184288 8.74587 9.16091 21.1737 20.8968 0.057596 6.04323 59.9773
184308 8.6844 9.13337 21.2328 20.9748 0.0795424 6.09487 60.0253
184318 8.69318 9.13337 21.1836 20.9845 0.10049 6.08593 59.9946
184338 8.6405 9.15173 21.1639 21.0138 0.15054 6.09941 59.9698
184348 8.69318 9.09665 21.2721 20.9553 0.0360817 6.10764 60.0173
184359 8.69318 9.09665 21.2721 20.9553 0.0360817 6.10764 60.0173
184368 8.64928 9.08747 21.2623 20.9748 0.0628084 6.12776 59.9738
184379 8.60537 9.10583 21.2328 21.043 0.129473 6.14247 59.987
184389 8.60537 9.10583 21.2328 21.043 0.129473 6.14247 59.987
184399 8.64928 9.06911 21.3115 21.0722 0.0750899 6.15586 60.1021
184419 8.64928 9.05076 21.2426 21.0235 0.0760227 6.14499 59.9661
184429 8.62293 9.11501 21.3411 21.004 0.0645101 6.14328 60.083
184440 8.62293 9.11501 21.3411 21.004 0.0645101 6.14328 60.083
184450 8.63171 9.05994 21.2328 21.0235 0.0913054 6.14649 59.9479
184460 8.59659 9.00486 21.3312 20.9943 0.0297546 6.18854 59.9269
184471 8.59659 9.00486 21.3312 20.9943 0.0297546 6.18854 59.9269
184480 8.61415 9.09665 21.3607 21.0235 0.0604272 6.1586 60.095
184502 8.59659 9.04158 21.2623 21.004 0.0779092 6.16685 59.9045
184511 8.6405 9.06911 21.3706 20.965 0.00960827 6.15187 60.0452
184522 8.6405 9.06911 21.3706 20.965 0.00960827 6.15187 60.0452
184533 8.6405 8.99568 21.3509 20.9943 -0.000600517 6.17917 59.9813
184544 8.56147 9.06911 21.3411 21.004 0.0711143 6.18113 59.9756
184553 8.56147 9.06911 21.3411 21.004 0.0711143 6.18113 59.9756
184564 8.62293 8.97732 21.3017 20.9748 0.0114799 6.18176 59.8767
184573 8.58781 8.96814 21.4001 21.0138 -0.00251532 6.21761 59.9698
184593 8.55269 9.01404 21.4493 21.1209 0.0552624 6.23664 60.137
184603 8.55269 9.01404 21.4493 21.1209 0.0552624 6.23664 60.137
184613 8.54391 8.94978 21.5182 21.1989 0.0359118 6.28378 60.2108
184623 8.50878 8.85799 21.469 21.267 0.0612438 6.33147 60.1028
184633 8.50878 8.85799 21.469 21.267 0.0612438 6.33147 60.1028
184643 8.52634 8.84881 21.4001 21.3158 0.0990629 6.32558 60.091
184654 8.48244 8.85799 21.4001 21.345 0.133318 6.34213 60.0855
184674 8.45609 8.86717 21.4395 21.2963 0.111499 6.34688 60.059
184684 8.45609 8.86717 21.4395 21.2963 0.111499 6.34688 60.059
184695 8.44731 8.77538 21.3706 21.2963 0.105926 6.37277 59.8896
184705 8.41219 8.73866 21.3017 21.3645 0.162688 6.39834 59.817
184716 8.41219 8.73866 21.3017 21.3645 0.162688 6.39834 59.817
184725 8.43853 8.80292 21.3312 21.384 0.173929 6.37304 59.9566
184735 8.42975 8.81209 21.3312 21.3547 0.169313 6.36869 59.9278
184755 8.41219 8.79374 21.4296 21.3742 0.135857 6.39844 60.0098
184765 8.41219 8.79374 21.4296 21.3742 0.135857 6.39844 60.0098
184775 8.42975 8.80292 21.4001 21.3255 0.124481 6.37767 59.9583
184785 8.49122 8.83045 21.4395 21.3255 0.0937164 6.35166 60.0867
184795 8.49122 8.83045 21.4395 21.3255 0.0937164 6.35166 60.0867
184810 8.45609 8.88553 21.4395 21.384 0.155362 6.35298 60.1651
184816 8.42975 8.81209 21.4789 21.2963 0.0832081 6.38152 60.017
184826 8.42975 8.81209 21.4789 21.2963 0.0832081 6.38152 60.017
184836 8.49122 8.83963 21.469 21.2865 0.0690371 6.34703 60.0864
184857 8.45609 8.80292 21.4296 21.2281 0.060606 6.3585 59.9167
184868 8.49122 8.85799 21.4986 21.2086 0.0319749 6.33353 60.0564
184888 8.51756 8.92225 21.4789 21.1404 0.0275671 6.28867 60.0591
184898 8.52634 8.92225 21.4887 21.1112 0.00764728 6.28275 60.0485
184908 8.52634 8.92225 21.4887 21.1112 0.00764728 6.28275 60.0485
184918 8.61415 8.94061 21.4493 21.0235 -0.041391 6.22666 60.0276
184928 8.61415 8.94061 21.4493 21.0235 -0.041391 6.22666 60.0276
184938 8.61415 8.94061 21.4789 20.9358 -0.0902936 6.21815 59.9694
184948 8.59659 8.94061 21.4887 20.8968 -0.103402 6.2201 59.9228
184958 8.59659 8.94061 21.4887 20.8968 -0.103402 6.2201 59.9228
184969 8.56147 8.97732 21.4296 20.8579 -0.0651523 6.20515 59.8263
184978 8.58781 9.01404 21.4592 20.8871 -0.0608206 6.19146 59.9481
184988 8.58781 9.01404 21.4592 20.8871 -0.0608206 6.19146 59.9481
184998 8.57025 9.04158 21.4395 20.8871 -0.0338092 6.18504 59.9384
185018 8.53512 9.01404 21.4198 20.8871 -0.022462 6.20432 59.8561
185028 8.56147 8.99568 21.5182 20.9066 -0.073953 6.21879 59.982
185038 8.56147 8.99568 21.5182 20.9066 -0.073953 6.21879 59.982
185048 8.54391 9.05994 21.5478 20.9066 -0.0520945 6.20661 60.0582
185058 8.58781 9.01404 21.5379 20.9163 -0.0813276 6.2073 60.0561
185079 8.59659 8.97732 21.5871 20.9261 -0.116639 6.22579 60.0871
185090 8.59659 8.97732 21.5871 20.9261 -0.116639 6.22579 60.0871
185099 8.59659 8.95896 21.5576 20.8968 -0.12431 6.22369 60.01
185109 8.57025 8.99568 21.5379 20.8871 -0.0939295 6.21571 59.991
185119 8.57025 8.99568 21.5379 20.8871 -0.0939295 6.21571 59.991
185129 8.57025 8.89471 21.5084 20.9553 -0.0953764 6.25713 59.9286
185139 8.55269 8.94061 21.5084 20.8871 -0.0974193 6.23711 59.8888
185160 8.56147 8.99568 21.5084 20.965 -0.0454515 6.2259 60.0306
185169 8.56147 8.99568 21.5084 20.965 -0.0454515 6.2259 60.0306
185180 8.5 8.90389 21.4986 21.0917 -0.00123978 6.2972 59.9941
185190 8.53512 8.91307 21.5871 21.0332 -0.0732347 6.28586 60.0686
185200 8.53512 8.91307 21.5871 21.0332 -0.0732347 6.28586 60.0686
185210 8.50878 8.87635 21.5281 20.9163 -0.102033 6.28267 59.8295
185220 8.54391 8.97732 21.4887 20.9261 -0.0538975 6.23003 59.936
185230 8.54391 8.97732 21.4887 20.9261 -0.0538975 6.23003 59.936
185241 8.57903 8.99568 21.469 20.8676 -0.0770912 6.19964 59.9114
185260 8.61415 9.00486 21.4395 20.9261 -0.0511408 6.18823 59.9846
185271 8.60537 9.02322 21.4493 20.8384 -0.0805676 6.17339 59.9163
185280 8.60537 9.02322 21.4493 20.8384 -0.0805676 6.17339 59.9163
185290 8.64928 9.19762 21.41 20.7507 -0.0461996 6.07768 60.0076
185300 8.6844 9.24352 21.3214 20.741 -0.0088647 6.03458 59.9903
185310 8.6844 9.24352 21.3214 20.741 -0.0088647 6.03458 59.9903
185321 8.77221 9.26188 21.2525 20.5461 -0.090529 5.95774 59.8327
185341 8.78099 9.32613 21.2426 20.5948 -0.0428006 5.93807 59.9446
185352 8.83368 9.40875 21.3017 20.5948 -0.0547767 5.89986 60.1389
185362 8.83368 9.40875 21.3017 20.5948 -0.0547767 5.89986 60.1389
185371 8.89514 9.473 21.1639 20.4585 -0.0531569 5.81447 59.9905
185383 8.91271 9.473 21.1442 20.4292 -0.0644833 5.80088 59.9591
185391 8.91271 9.473 21.1442 20.4292 -0.0644833 5.80088 59.9591
185402 8.90393 9.52808 21.095 20.3123 -0.0662148 5.75925 59.8393
185412 8.90393 9.52808 21.095 20.3123 -0.0662148 5.75925 59.8393
185422 8.95661 9.50972 21.0556 20.2539 -0.103977 5.7322 59.7758
185440 8.96539 9.52808 20.9867 20.2831 -0.0589401 5.71663 59.7632
185452 8.96539 9.52808 20.9867 20.2831 -0.0589401 5.71663 59.7632
185452 8.99174 9.61987 20.9572 20.1954 -0.0558868 5.65748 59.7642
185463 8.99174 9.60151 21.0162 20.2441 -0.0677943 5.68063 59.8536
185473 8.99174 9.60151 21.0162 20.2441 -0.0677943 5.68063 59.8536
185485 9.0532 9.66577 20.9375 20.2344 -0.0377834 5.62345 59.8908
185503 8.99174 9.65659 21.0556 20.2344 -0.065212 5.66624 59.9383
185513 9.0093 9.71166 21.0261 20.1662 -0.0657201 5.62596 59.9132
185523 9.0093 9.71166 21.0261 20.1662 -0.0657201 5.62596 59.9132
185534 9.08833 9.74838 20.9473 20.1857 -0.0423476 5.57689 59.9697
185544 9.07076 9.7392 20.9768 20.2344 -0.030829 5.59834 60.0212
185554 9.07076 9.7392 20.9768 20.2344 -0.030829 5.59834 60.0212
185565 9.11467 9.76674 20.967 20.2441 -0.0294551 5.57383 60.0925
185574 9.11467 9.76674 20.967 20.2441 -0.0294551 5.57383 60.0925
185584 9.0532 9.64741 20.9375 20.2052 -0.0576943 5.6252 59.8432
185595 9.04442 9.65659 21.0556 20.2831 -0.0667572 5.65568 60.0397
185604 9.04442 9.65659 21.0556 20.2831 -0.0667572 5.65568 60.0397
185614 9.03564 9.53726 20.9768 20.3221 -0.0639513 5.69367 59.8718
185624 9.09711 9.63823 20.9276 20.361 -0.0106066 5.63608 60.024
185634 9.09711 9.63823 20.9276 20.361 -0.0106066 5.63608 60.024
185644 9.03564 9.65659 20.9178 20.3903 0.0389278 5.65393 60.0003
185654 9.03564 9.65659 20.9178 20.3903 0.0389278 5.65393 60.0003
185664 9.0093 9.64741 20.8686 20.3513 0.0504553 5.65241 59.8766
185674 9.01808 9.67495 20.9178 20.3318 0.0295669 5.64454 59.9426
185684 9.01808 9.67495 20.9178 20.3318 0.0295669 5.64454 59.9426
185696 9.07955 9.6933 20.7898 20.2928 0.0487775 5.59091 59.8555
185704 9.08833 9.63823 20.7504 20.2831 0.0345379 5.59913 59.7601
185725 9.13223 9.77592 20.7307 20.1759 0.0371456 5.51666 59.8148
185735 9.13223 9.77592 20.7307 20.1759 0.0371456 5.51666 59.8148
185745 9.08833 9.75756 20.78 20.1662 0.0231892 5.54428 59.792
185755 9.18492 9.85853 20.7209 20.137 0.0374258 5.46259 59.9013
185765 9.18492 9.85853 20.7209 20.137 0.0374258 5.46259 59.9013
185775 9.14101 9.88607 20.6914 20.0883 0.0593334 5.45571 59.8067
185785 9.21126 9.89525 20.6717 20.0103 0.00945628 5.41295 59.7885
185796 9.21126 9.89525 20.6717 20.0103 0.00945628 5.41295 59.7885
185805 9.28151 9.94114 20.6914 20.059 0.0113755 5.38435 59.973
185825 9.21126 9.92279 20.6618 20.0688 0.0494659 5.41135 59.8647
185835 9.20248 9.94114 20.6028 20.1175 0.105807 5.40642 59.8639
185845 9.20248 9.94114 20.6028 20.1175 0.105807 5.40642 59.8639
185855 9.22882 9.96868 20.5536 20.098 0.118753 5.37704 59.8491
185866 9.24638 9.90443 20.6028 20.137 0.0802398 5.4071 59.8906
185886 9.26395 9.89525 20.5929 20.2149 0.105587 5.41514 59.967
185907 9.1937 9.82181 20.5536 20.2246 0.125095 5.45944 59.7937
185916 9.1937 9.88607 20.5536 20.2149 0.147751 5.43592 59.8482
185926 9.1937 9.88607 20.5536 20.2149 0.147751 5.43592 59.8482
185936 9.16736 9.82181 20.6225 20.2052 0.0991166 5.47634 59.8168
185946 9.18492 9.79428 20.6323 20.3221 0.12477 5.49989 59.9336
185958 9.18492 9.79428 20.6323 20.3221 0.12477 5.49989 59.9336
185968 9.24638 9.79428 20.6422 20.2928 0.08277 5.4758 59.9757
185988 9.11467 9.76674 20.6323 20.3123 0.138769 5.53185 59.826
185998 9.20248 9.73002 20.5929 20.361 0.123417 5.5158 59.8865
186009 9.20248 9.73002 20.5929 20.361 0.123417 5.5158 59.8865
186019 9.15857 9.71166 20.6028 20.3805 0.138181 5.54179 59.8535
186029 9.14979 9.64741 20.6126 20.4195 0.127223 5.57458 59.8293
186039 9.14979 9.64741 20.6126 20.4195 0.127223 5.57458 59.8293
186049 9.12345 9.61069 20.652 20.4877 0.134835 5.61319 59.8738
186069 9.07076 9.60151 20.7406 20.4682 0.107861 5.64532 59.8811
186080 9.10589 9.53726 20.8193 20.5559 0.0699371 5.68128 60.0184
186092 9.10589 9.53726 20.8193 20.5559 0.0699371 5.68128 60.0184
186103 9.08833 9.48218 20.7406 20.5364 0.0792235 5.69108 59.8475
186109 9.03564 9.48218 20.8981 20.5461 0.0394344 5.73523 59.962
186119 9.03564 9.48218 20.8981 20.5461 0.0394344 5.73523 59.962
186129 9.08833 9.44546 20.9375 20.6338 0.0222474 5.7493 60.1051
186140 8.97417 9.38121 20.9473 20.5559 0.00651777 5.80062 59.8586
186150 8.97417 9.38121 20.9473 20.5559 0.00651777 5.80062 59.8586
186160 9.0532 9.38121 21.0359 20.5754 -0.055182 5.78981 60.0457
186180 9.04442 9.35367 20.967 20.5559 -0.0425026 5.78882 59.921
186190 9.0093 9.41793 20.967 20.5754 0.00708401 5.78171 59.9696
186202 9.0093 9.41793 20.967 20.5754 0.00708401 5.78171 59.9696
186214 9.01808 9.39039 20.9178 20.5169 -0.0119314 5.77164 59.8431
186222 9.00052 9.33531 20.9079 20.5364 -0.0153661 5.79837 59.7802
186233 9.00052 9.33531 20.9079 20.5364 -0.0153661 5.79837 59.7802
186243 9.0093 9.28024 20.9079 20.5754 -0.0257805 5.82048 59.7728
186253 9.0093 9.28024 20.9079 20.5754 -0.0257805 5.82048 59.7728
186263 8.94783 9.32613 20.9375 20.5656 0.00270009 5.82894 59.777
186273 8.95661 9.32613 20.9079 20.6825 0.0601739 5.83927 59.8732
186283 8.95661 9.32613 20.9079 20.6825 0.0601739 5.83927 59.8732
186293 8.99174 9.30778 20.967 20.7702 0.0496566 5.85584 60.0367
186303 8.98295 9.39957 20.8489 20.8092 0.156939 5.81495 60.0406
186313 8.98295 9.39957 20.8489 20.8092 0.156939 5.81495 60.0406
186323 8.92149 9.38121 20.8686 20.7994 0.162825 5.84418 59.9707
186333 8.92149 9.38121 20.8686 20.7994 0.162825 5.84418 59.9707
186343 8.90393 9.33531 20.8489 20.8092 0.163481 5.86474 59.8973
186353 8.94783 9.35367 20.8981 20.8774 0.160259 5.86097 60.077
186363 8.94783 9.35367 20.8981 20.8774 0.160259 5.86097 60.077
186374 8.91271 9.38121 20.78 20.8968 0.24403 5.84858 59.9707
186383 8.96539 9.37203 20.7603 20.8287 0.198165 5.82002 59.9264
186403 8.94783 9.40875 20.7898 20.8871 0.232458 5.82683 60.0335
186413 8.94783 9.40875 20.7898 20.8871 0.232458 5.82683 60.0335
186424 8.88636 9.35367 20.7504 20.9553 0.280327 5.87173 59.9458
186434 8.94783 9.32613 20.7701 20.8968 0.210637 5.85401 59.9409
186444 8.94783 9.32613 20.7701 20.8968 0.210637 5.85401 59.9409
186454 8.89514 9.36285 20.7997 20.9456 0.255659 5.87149 60.0032
186464 8.8688 9.34449 20.7209 20.9748 0.304452 5.87952 59.909
186474 8.8688 9.34449 20.7209 20.9748 0.304452 5.87952 59.909
186484 8.91271 9.31695 20.6815 20.965 0.287163 5.86633 59.8762
186505 8.88636 9.28024 20.7111 21.0235 0.294781 5.90171 59.9012
186515 8.87758 9.31695 20.7406 21.004 0.293127 5.89349 59.9391
186535 8.93905 9.28942 20.78 20.9943 0.235271 5.88618 60.0027
186545 8.87758 9.30778 20.8095 21.0235 0.268331 5.9101 60.0183
186565 8.88636 9.28942 20.78 21.043 0.277534 5.91192 59.9987
186585 8.83368 9.22516 20.7504 21.0235 0.277668 5.94534 59.8328
186595 8.85124 9.24352 20.7701 21.0332 0.273547 5.93723 59.8981
186606 8.85124 9.24352 20.7701 21.0332 0.273547 5.93723 59.8981
186617 8.81612 9.2527 20.7898 21.0722 0.299922 5.95516 59.9308
186629 8.78099 9.2527 20.7701 21.1014 0.335121 5.96889 59.9052
186648 8.77221 9.24352 20.8587 21.0527 0.277552 5.98119 59.9272
186656 8.77221 9.24352 20.8587 21.0527 0.277552 5.98119 59.9272
186666 8.81612 9.26188 20.8193 21.1014 0.30328 5.96082 59.9988
186676 8.86002 9.21598 20.8882 21.1404 0.252941 5.97774 60.1047
186697 8.79855 9.17927 20.8489 21.1014 0.26418 6.00031 59.9281
186708 8.81612 9.21598 20.8193 21.0819 0.276339 5.97393 59.9334
186719 8.81612 9.21598 20.8193 21.0819 0.276339 5.97393 59.9334
186730 8.81612 9.2527 20.8489 21.0722 0.275013 5.96407 59.9899
186739 8.78977 9.22516 20.8587 21.0722 0.270611 5.9844 59.9459
186748 8.78977 9.22516 20.8587 21.0722 0.270611 5.9844 59.9459
186758 8.84246 9.22516 20.8784 21.0819 0.244159 5.9704 60.028
186768 8.84246 9.22516 20.8784 21.0819 0.244159 5.9704 60.028
186779 8.78099 9.24352 20.8784 21.0235 0.253487 5.97668 59.9264
186789 8.8249 9.28024 20.8981 21.0332 0.24589 5.95293 60.0365
186799 8.8249 9.28024 20.8981 21.0332 0.24589 5.95293 60.0365
186809 8.81612 9.2986 20.839 20.9748 0.257906 5.93184 59.9285
186819 8.77221 9.28942 20.8489 21.0527 0.300625 5.96365 59.9632
186839 8.84246 9.28942 20.8686 20.9943 0.238633 5.93326 59.9947
186859 8.83368 9.2527 20.8095 20.9553 0.23593 5.93432 59.8512
186869 8.8688 9.31695 20.7898 21.0235 0.284106 5.90698 59.9991
186889 8.86002 9.34449 20.7701 20.9943 0.295413 5.89302 59.9689
186899 8.84246 9.37203 20.7406 20.9943 0.32663 5.88506 59.9493
186920 8.85124 9.41793 20.78 20.9553 0.309154 5.86609 60.0044
186930 8.85124 9.41793 20.78 20.9553 0.309154 5.86609 60.0044
186940 8.8688 9.37203 20.7307 20.9066 0.283521 5.86103 59.8782
186951 8.89514 9.38121 20.8095 20.9748 0.271124 5.87105 60.0606
186960 8.89514 9.38121 20.8095 20.9748 0.271124 5.87105 60.0606
186971 8.88636 9.43629 20.8587 20.8871 0.240687 5.84912 60.0685
186981 8.93905 9.42711 20.7997 20.8092 0.207406 5.81309 59.975
186990 8.93905 9.42711 20.7997 20.8092 0.207406 5.81309 59.975
187000 8.94783 9.50054 20.7701 20.7605 0.226349 5.77258 59.979
187021 8.8688 9.45464 20.7307 20.7117 0.23711 5.8024 59.7659
187030 8.88636 9.50054 20.8292 20.7117 0.207224 5.79548 59.9278
187040 8.88636 9.50054 20.8292 20.7117 0.207224 5.79548 59.9278
187052 8.91271 9.49136 20.7898 20.6143 0.168526 5.76846 59.8082
187061 8.8688 9.46382 20.7307 20.6046 0.196445 5.78268 59.668
187071 8.8688 9.46382 20.7307 20.6046 0.196445 5.78268 59.668
187083 8.88636 9.46382 20.7701 20.6533 0.192657 5.79015 59.7736
187091 8.88636 9.46382 20.7701 20.6533 0.192657 5.79015 59.7736
187101 8.83368 9.473 20.8095 20.6825 0.214201 5.81585 59.7987
187111 8.83368 9.473 20.8981 20.741 0.201106 5.83838 59.9457
187131 8.8688 9.56479 20.8882 20.7799 0.244457 5.79881 60.1018
187142 8.80733 9.473 20.8489 20.7799 0.249016 5.84597 59.9092
187163 8.79855 9.48218 20.9178 20.8189 0.243583 5.86229 60.0174
187183 8.85124 9.48218 20.8882 20.8579 0.24991 5.84543 60.0795
187193 8.80733 9.5189 20.9178 20.8189 0.255024 5.84648 60.0629
187203 8.80733 9.5189 20.9178 20.8189 0.255024 5.84648 60.0629
187213 8.81612 9.46382 20.9375 20.7897 0.208279 5.86111 60.0071
187223 8.81612 9.43629 20.8981 20.8092 0.221503 5.86766 59.9597
187233 8.81612 9.43629 20.8981 20.8092 0.221503 5.86766 59.9597
187243 8.76343 9.39957 20.8981 20.8092 0.2285 5.89882 59.8703
187253 8.76343 9.39957 20.8981 20.8092 0.2285 5.89882 59.8703
187264 8.74587 9.42711 20.9965 20.8481 0.221956 5.91618 60.0176
187274 8.80733 9.43629 21.0162 20.7702 0.159475 5.88275 60.03
187294 8.79855 9.38121 20.9965 20.6923 0.116253 5.89016 59.8686
187304 8.79855 9.34449 21.0359 20.741 0.104728 5.91635 59.9199
187325 8.78099 9.40875 21.0753 20.7799 0.138405 5.91194 60.045
187335 8.78099 9.40875 21.0753 20.7799 0.138405 5.91194 60.045
187349 8.71074 9.43629 20.9768 20.7799 0.220621 5.91191 59.9038
187360 8.78099 9.43629 21.0654 20.7117 0.125682 5.89052 59.9945
187372 8.78099 9.43629 21.0654 20.7117 0.125682 5.89052 59.9945
187383 8.76343 9.38121 21.0556 20.7507 0.130486 5.92026 59.9509
187385 8.67562 9.44546 21.095 20.8189 0.205627 5.94473 60.035
187395 8.67562 9.44546 21.095 20.8189 0.205627 5.94473 60.035
187405 8.77221 9.42711 21.0753 20.8579 0.18189 5.92039 60.1325
187415 8.77221 9.42711 21.0753 20.8579 0.18189 5.92039 60.1325
187425 8.65806 9.36285 21.0064 20.8774 0.240293 5.9752 59.9046
187435 8.70196 9.34449 21.0654 20.9066 0.201476 5.97955 60.0185
187445 8.70196 9.34449 21.0654 20.9066 0.201476 5.97955 60.0185
187455 8.71952 9.39039 21.095 20.9066 0.200665 5.96183 60.1115
187465 8.6844 9.38121 21.0162 20.9066 0.24471 5.96545 59.9884
187486 8.71074 9.40875 21.0162 20.9553 0.265053 5.95397 60.091
187505 8.71074 9.40875 21.0261 20.9748 0.268933 5.95839 60.1203
187515 8.67562 9.39039 20.9375 20.9163 0.289401 5.95491 59.9198
187525 8.67562 9.39039 20.9375 20.9163 0.289401 5.95491 59.9198
187535 8.71074 9.37203 20.9276 20.9553 0.287232 5.95344 59.9657
187545 8.64928 9.41793 20.9572 21.0138 0.343636 5.97213 60.0381
187555 8.64928 9.41793 20.9572 21.0138 0.343636 5.97213 60.0381
187567 8.65806 9.35367 20.9572 20.9845 0.30148 5.98714 59.9534
187577 8.65806 9.35367 20.9572 20.9845 0.30148 5.98714 59.9534
187586 8.67562 9.31695 20.8882 20.9943 0.312051 5.98494 59.8751
187597 8.6844 9.38121 20.9572 21.004 0.309724 5.97122 60.0268
187616 8.65806 9.37203 20.9178 21.0527 0.353712 5.98504 60.0006
187626 8.66684 9.37203 20.9276 20.9748 0.313789 5.97173 59.9413
187636 8.66684 9.37203 20.9276 20.9748 0.313789 5.97173 59.9413
187647 8.67562 9.39957 20.9572 20.9553 0.300938 5.96054 59.9876
187667 8.71952 9.35367 20.8882 20.9163 0.276494 5.94496 59.8778
187678 8.71074 9.43629 20.8587 20.965 0.34678 5.92207 59.9708
187688 8.71074 9.43629 20.8587 20.965 0.34678 5.92207 59.9708
187698 8.70196 9.39957 20.7406 20.8774 0.349292 5.90672 59.7195
187708 8.74587 9.37203 20.8193 20.9163 0.302052 5.91889 59.8536
187718 8.74587 9.37203 20.8193 20.9163 0.302052 5.91889 59.8536
187728 8.78099 9.48218 20.8784 20.8189 0.26755 5.8624 59.9605
187748 8.75465 9.48218 20.8587 20.8189 0.286961 5.86857 59.9145
187758 8.8688 9.55562 20.9178 20.7994 0.236303 5.80948 60.1416
187768 8.8688 9.55562 20.9178 20.7994 0.236303 5.80948 60.1416
187779 8.83368 9.61069 20.8686 20.6533 0.234193 5.77262 59.9662
187789 8.87758 9.66577 20.8292 20.5461 0.210756 5.71574 59.9187
187809 8.8688 9.71166 20.8193 20.5072 0.221461 5.69534 59.907
187829 8.8688 9.63823 20.7997 20.4877 0.191262 5.71466 59.7944
187839 8.88636 9.64741 20.8489 20.3708 0.118381 5.69487 59.7534
187849 8.88636 9.64741 20.8489 20.3708 0.118381 5.69487 59.7534
187860 8.87758 9.65659 20.8882 20.3903 0.117457 5.70389 59.8127
187870 8.91271 9.61987 20.8489 20.4292 0.120178 5.70438 59.8107
187884 8.91271 9.61987 20.8489 20.4292 0.120178 5.70438 59.8107
187890 8.92149 9.74838 20.8882 20.3903 0.137162 5.65703 59.9484
187900 8.92149 9.74838 20.8882 20.3903 0.137162 5.65703 59.9484
187912 8.88636 9.6933 20.9079 20.4195 0.132909 5.69576 59.9071
187922 8.93027 9.67495 20.8686 20.4292 0.127435 5.68233 59.903
187942 8.94783 9.63823 20.9178 20.4097 0.0760943 5.69356 59.9136
187952 8.91271 9.70248 20.8882 20.4585 0.15009 5.68649 59.9619
187963 8.91271 9.70248 20.8882 20.4585 0.15009 5.68649 59.9619
187973 8.94783 9.71166 20.8686 20.4877 0.15952 5.6727 60.0157
187984 8.93905 9.64741 20.9375 20.439 0.0874966 5.70102 59.9629
188004 8.84246 9.64741 20.9965 20.4974 0.12747 5.75257 59.9838
188015 8.84246 9.64741 20.9965 20.4974 0.12747 5.75257 59.9838
188023 8.87758 9.60151 20.9867 20.4877 0.0937909 5.75328 59.9535
188033 8.90393 9.61987 20.9965 20.4877 0.0862777 5.73934 60.008
188043 8.90393 9.61987 20.9965 20.4877 0.0862777 5.73934 60.008
188053 8.92149 9.57397 20.9572 20.5169 0.0884771 5.74757 59.9695
188063 8.85124 9.53726 21.0162 20.5461 0.0900477 5.79821 59.9508
188073 8.85124 9.53726 21.0162 20.5461 0.0900477 5.79821 59.9508
188083 8.85124 9.58315 21.0556 20.5656 0.100714 5.79134 60.0556
188093 8.85124 9.58315 21.0556 20.5656 0.100714 5.79134 60.0556
188104 8.85124 9.473 20.9867 20.5461 0.075686 5.816 59.8571
188114 8.8688 9.5189 20.9572 20.5948 0.120032 5.7969 59.9397
188124 8.8688 9.5189 20.9572 20.5948 0.120032 5.7969 59.9397
188134 8.90393 9.50972 20.9473 20.5072 0.0691712 5.7729 59.8681
188144 8.87758 9.5189 21.0162 20.5364 0.0673473 5.79395 59.9491
188164 8.93027 9.54644 20.9572 20.5851 0.101686 5.76457 60.019
188185 8.88636 9.54644 20.9473 20.5948 0.128222 5.77975 59.975
188195 8.87758 9.60151 20.967 20.702 0.190753 5.7832 60.1481
188215 8.83368 9.58315 20.8292 20.6338 0.231338 5.7731 59.8798
188225 8.80733 9.59233 20.8587 20.702 0.261959 5.79409 59.9604
188247 8.86002 9.63823 20.8784 20.702 0.250426 5.76298 60.0787
188256 8.8688 9.56479 20.8095 20.6436 0.22127 5.76576 59.8867
188268 8.8688 9.56479 20.8095 20.6436 0.22127 5.76576 59.8867
188278 8.88636 9.59233 20.8292 20.702 0.241122 5.76217 60.0099
188288 8.88636 9.59233 20.8292 20.702 0.241122 5.76217 60.0099
188298 8.84246 9.64741 20.8292 20.6923 0.278291 5.75681 60.0113
188308 8.85124 9.56479 20.8193 20.7312 0.260746 5.78686 59.9666
188318 8.85124 9.56479 20.8193 20.7312 0.260746 5.78686 59.9666
188328 8.80733 9.61069 20.839 20.6923 0.273812 5.7832 59.9493
188338 8.8249 9.63823 20.8095 20.6923 0.290212 5.76303 59.9649
188358 8.8249 9.61069 20.8095 20.7215 0.290906 5.77707 59.9666
188368 8.8249 9.61069 20.8095 20.7215 0.290906 5.77707 59.9666
188379 8.85124 9.59233 20.8095 20.7605 0.28829 5.78029 60.0135
188389 8.84246 9.58315 20.7701 20.7312 0.292775 5.77597 59.927
188399 8.84246 9.58315 20.7701 20.7312 0.292775 5.77597 59.927
188409 8.78099 9.60151 20.7209 20.7117 0.339112 5.78034 59.8152
188420 8.79855 9.60151 20.7701 20.7897 0.342947 5.79381 59.9599
188429 8.79855 9.60151 20.7701 20.7897 0.342947 5.79381 59.9599
188439 8.8249 9.59233 20.7504 20.8189 0.348374 5.78932 59.9866
188449 8.8249 9.59233 20.7504 20.8189 0.348374 5.78932 59.9866
188459 8.8249 9.54644 20.7504 20.8189 0.329497 5.80524 59.9407
188469 8.86002 9.52808 20.78 20.8287 0.298658 5.80545 59.9967
188490 8.8249 9.56479 20.7701 20.7799 0.312695 5.79591 59.9398
188499 8.79855 9.5189 20.8686 20.8676 0.299484 5.84945 60.0536
188525 8.83368 9.54644 20.9079 20.8481 0.271451 5.83075 60.1362
188529 8.83368 9.54644 20.9079 20.8481 0.271451 5.83075 60.1362
188539 8.79855 9.473 20.8784 20.8287 0.260383 5.86096 59.9786
188549 8.83368 9.49136 20.7898 20.8774 0.310558 5.83629 59.9922
188559 8.83368 9.49136 20.7898 20.8774 0.310558 5.83629 59.9922
188569 8.8249 9.473 20.8489 20.8189 0.257707 5.84581 59.9657
188590 8.76343 9.42711 20.7603 20.7897 0.290039 5.86523 59.7405
188600 8.80733 9.44546 20.78 20.7702 0.262681 5.84353 59.803
188610 8.80733 9.44546 20.78 20.7702 0.262681 5.84353 59.803
188620 8.79855 9.41793 20.7307 20.8092 0.291935 5.85463 59.7564
188630 8.78099 9.42711 20.6618 20.9358 0.384617 5.86638 59.8058
188640 8.78099 9.42711 20.6618 20.9358 0.384617 5.86638 59.8058
188652 8.8249 9.41793 20.7307 21.0527 0.381085 5.88258 60.0263
188663 8.8249 9.41793 20.7307 21.0527 0.381085 5.88258 60.0263
188670 8.78977 9.39957 20.7012 21.0138 0.384918 5.8908 59.9043
188680 8.78977 9.50054 20.6914 21.0722 0.454426 5.86305 60.0539
188690 8.78977 9.50054 20.6914 21.0722 0.454426 5.86305 60.0539
188702 8.77221 9.46382 20.6914 21.0332 0.4309 5.876 59.9606
188712 8.78099 9.46382 20.6225 21.0917 0.480351 5.87135 59.959
188732 8.81612 9.49136 20.6323 21.0819 0.468528 5.84957 60.0217
188742 8.81612 9.49136 20.6028 21.0819 0.481066 5.84507 59.9922
188752 8.83368 9.45464 20.6028 21.0138 0.430658 5.84131 59.9049
188762 8.77221 9.48218 20.652 21.0527 0.463107 5.86658 59.9591
188772 8.77221 9.48218 20.652 21.0527 0.463107 5.86658 59.9591
188782 8.85124 9.56479 20.5634 20.9845 0.473067 5.78645 59.964
188792 8.81612 9.50972 20.5634 21.0235 0.481409 5.82374 59.9127
188812 8.85124 9.54644 20.5929 20.9845 0.453019 5.79735 59.9751
188822 8.85124 9.54644 20.5929 20.9845 0.453019 5.79735 59.9751
188833 8.8249 9.5189 20.524 20.9748 0.478235 5.80398 59.8426
188843 8.90393 9.5189 20.5437 20.9456 0.424296 5.77507 59.9121
188853 8.90393 9.5189 20.5437 20.9456 0.424296 5.77507 59.9121
188863 8.87758 9.52808 20.4748 20.9163 0.456554 5.7659 59.7968
188873 8.86002 9.58315 20.5043 20.9261 0.478032 5.75894 59.8736
188883 8.86002 9.58315 20.5043 20.9261 0.478032 5.75894 59.8736
188893 8.87758 9.54644 20.4453 20.8774 0.460666 5.74893 59.7467
188903 8.87758 9.54644 20.4453 20.8774 0.460666 5.74893 59.7467
188913 8.8688 9.52808 20.465 20.8774 0.448477 5.7614 59.7392
188923 8.92149 9.59233 20.5536 20.8968 0.422806 5.73757 59.9642
188949 8.8688 9.50972 20.4847 20.9553 0.464559 5.78286 59.8185
188953 8.86002 9.54644 20.465 20.9553 0.491735 5.77012 59.8267
188974 8.88636 9.60151 20.5831 20.9748 0.460833 5.76311 60.0458
188994 8.84246 9.50972 20.4354 20.9163 0.480771 5.77841 59.7039
189004 8.83368 9.59233 20.5142 20.9456 0.49679 5.76942 59.8858
189024 8.8688 9.59233 20.4847 20.965 0.502378 5.7557 59.9108
189034 8.8688 9.63823 20.5339 21.0138 0.520071 5.75491 60.0547
189044 8.8688 9.63823 20.5339 21.0138 0.520071 5.75491 60.0547
189054 8.89514 9.58315 20.4256 21.004 0.528488 5.74665 59.9079
189064 8.89514 9.58315 20.4256 21.004 0.528488 5.74665 59.9079
189074 8.87758 9.59233 20.4256 20.9358 0.511846 5.73901 59.8313
189084 8.84246 9.61987 20.4748 21.004 0.544956 5.75977 59.9412
189094 8.84246 9.61987 20.4748 21.004 0.544956 5.75977 59.9412
189104 8.89514 9.62905 20.465 20.9261 0.498629 5.7248 59.9152
189114 8.87758 9.61069 20.5437 20.965 0.481039 5.75541 59.997
189125 8.87758 9.61069 20.5437 20.965 0.481039 5.75541 59.997
189134 8.93905 9.58315 20.4847 20.9748 0.472742 5.73606 59.9816
189154 8.89514 9.59233 20.5043 20.9553 0.478816 5.74811 59.9471
189164 8.90393 9.50054 20.4748 20.965 0.454029 5.77383 59.8443
189174 8.90393 9.50054 20.4748 20.965 0.454029 5.77383 59.8443
189184 8.8688 9.55562 20.5437 21.043 0.494108 5.7895 60.0111
189194 8.90393 9.55562 20.524 21.043 0.487548 5.77431 60.0266
189204 8.90393 9.50972 20.524 21.004 0.452843 5.78422 59.9417
189214 8.96539 9.53726 20.524 21.043 0.453979 5.7594 60.0697
189234 8.93905 9.49136 20.5043 21.0235 0.446752 5.77838 59.9582
189244 8.90393 9.50054 20.5142 20.9748 0.441289 5.78139 59.8934
189255 8.90393 9.50054 20.5142 20.9748 0.441289 5.78139 59.8934
189267 8.93027 9.60151 20.5142 20.8579 0.423568 5.71924 59.9038
189278 8.93027 9.57397 20.5437 20.8774 0.407735 5.73635 59.9253
189289 8.93027 9.57397 20.5437 20.8774 0.407735 5.73635 59.9253
189300 9.00052 9.63823 20.4847 20.8579 0.421354 5.67772 59.9813
189305 9.00052 9.63823 20.4847 20.8579 0.421354 5.67772 59.9813
189315 8.98295 9.60151 20.4945 20.8092 0.389573 5.69041 59.8881
189325 9.02686 9.64741 20.4158 20.8189 0.427195 5.64867 59.9089
189335 9.02686 9.64741 20.4158 20.8189 0.427195 5.64867 59.9089
189347 9.01808 9.65659 20.4158 20.7312 0.398681 5.63483 59.8216
189358 9.0532 9.61069 20.4354 20.702 0.344497 5.63705 59.8013
189366 9.0532 9.61069 20.4354 20.702 0.344497 5.63705 59.8013
189377 9.07076 9.64741 20.4059 20.6338 0.336584 5.60299 59.7579
189397 9.04442 9.62905 20.4453 20.6825 0.343582 5.63224 59.8013
189407 9.03564 9.67495 20.4059 20.6533 0.370878 5.60867 59.7698
189417 9.03564 9.67495 20.4059 20.6533 0.370878 5.60867 59.7698
189427 9.09711 9.61987 20.4158 20.6923 0.334007 5.61414 59.825
189436 9.07955 9.66577 20.4256 20.663 0.344145 5.60133 59.8339
189456 9.08833 9.65659 20.4453 20.7312 0.356388 5.61525 59.9214
189478 9.12345 9.65659 20.465 20.6338 0.293085 5.59098 59.8788
189488 9.12345 9.6933 20.4945 20.6436 0.299773 5.58453 59.9548
189498 9.12345 9.6933 20.4945 20.6436 0.299773 5.58453 59.9548
189508 9.13223 9.6933 20.465 20.6143 0.296482 5.57228 59.9048
189518 9.09711 9.6933 20.4453 20.6143 0.319648 5.58125 59.85
189528 9.09711 9.6933 20.4453 20.6143 0.319648 5.58125 59.85
189538 9.13223 9.70248 20.465 20.5948 0.292236 5.56606 59.8945
189564 9.07955 9.70248 20.5043 20.6143 0.305891 5.59342 59.9007
189568 9.11467 9.7392 20.5339 20.4974 0.245503 5.55499 59.8852
189578 9.11467 9.7392 20.5339 20.4974 0.245503 5.55499 59.8852
189588 9.16736 9.72084 20.5634 20.5266 0.215381 5.55247 59.9782
189608 9.12345 9.66577 20.5339 20.5266 0.223511 5.58181 59.8497
189618 9.11467 9.65659 20.5339 20.5169 0.219378 5.58645 59.822
189629 9.11467 9.65659 20.5339 20.5169 0.219378 5.58645 59.822
189639 9.12345 9.68412 20.5142 20.4877 0.223279 5.56625 59.8094
189649 9.14979 9.7851 20.4847 20.439 0.246254 5.51017 59.8585
189669 9.21126 9.77592 20.4551 20.4292 0.224963 5.48604 59.8715
189679 9.17614 9.80346 20.4551 20.4195 0.247133 5.48709 59.8542
189699 9.21126 9.84017 20.5142 20.4195 0.222641 5.47192 59.9851
189709 9.21126 9.84017 20.5142 20.4195 0.222641 5.47192 59.9851
189720 9.1937 9.79428 20.4551 20.3026 0.187474 5.4656 59.7457
189730 9.14101 9.79428 20.5142 20.4 0.22518 5.50854 59.8495
189740 9.14101 9.79428 20.5142 20.4 0.22518 5.50854 59.8495
189750 9.18492 9.83099 20.4748 20.3513 0.218308 5.46694 59.842
189760 9.20248 9.84935 20.5043 20.361 0.210106 5.46092 59.9172
189780 9.2376 9.89525 20.4256 20.3513 0.243425 5.41916 59.9097
189790 9.2376 9.89525 20.4256 20.3513 0.243425 5.41916 59.9097
189800 9.20248 9.93197 20.5043 20.2441 0.195912 5.41407 59.8829
189811 9.26395 9.89525 20.5437 20.2539 0.142375 5.4135 59.9568
189822 9.26395 9.89525 20.5437 20.2539 0.142375 5.4135 59.9568
189832 9.22004 9.84935 20.4551 20.1564 0.1385 5.41434 59.681
189842 9.24638 9.91361 20.4256 20.2246 0.194895 5.38961 59.8102
189862 9.24638 9.98704 20.4059 20.2539 0.245696 5.36614 59.8932
189873 9.24638 9.98704 20.4059 20.2539 0.245696 5.36614 59.8932
189882 9.20248 9.91361 20.4059 20.2344 0.225753 5.40299 59.7564
189892 9.25517 9.96868 20.3862 20.2539 0.242701 5.36623 59.8639
189912 9.25517 9.96868 20.3862 20.2539 0.242701 5.36623 59.8639
189913 9.25517 9.96868 20.337 20.2441 0.259444 5.35673 59.805
189923 9.28151 9.98704 20.4158 20.2246 0.214669 5.35108 59.9089
189933 9.28151 9.98704 20.4158 20.2246 0.214669 5.35108 59.9089
189943 9.32541 10.0146 20.3961 20.1564 0.187647 5.31265 59.8925
189953 9.36054 10.0513 20.465 20.1662 0.163206 5.30103 60.043
189973 9.39566 10.0697 20.3764 20.0785 0.15693 5.25438 59.9202
189983 9.39566 10.0697 20.3764 20.0785 0.15693 5.25438 59.9202
189993 9.29907 10.0605 20.3173 20.0298 0.198424 5.27267 59.7067
190003 9.29029 10.0788 20.3075 20.098 0.242189 5.27892 59.7746
190013 9.29029 10.0788 20.3075 20.098 0.242189 5.27892 59.7746
190023 9.30785 10.0146 20.2189 20.0493 0.225341 5.27241 59.5906
190033 9.30785 10.0146 20.2189 20.0493 0.225341 5.27241 59.5906
190043 9.35176 10.088 20.2386 20.0298 0.220862 5.2326 59.7081
190053 9.35176 10.0972 20.2681 20.0883 0.236431 5.24387 59.8053
190079 9.40444 10.1064 20.3862 20.098 0.172392 5.24379 59.995
190083 9.36932 10.1431 20.2878 20.1077 0.247768 5.2288 59.9079
190104 9.3781 10.1523 20.2484 19.9811 0.212035 5.19558 59.7599
190124 9.3781 10.1706 20.209 20.059 0.268537 5.1957 59.8168
190134 9.3781 10.1982 20.2189 20.0103 0.255623 5.18003 59.8055
190154 9.39566 10.1523 20.1008 19.9616 0.258955 5.16214 59.6103
190164 9.36054 10.189 20.1106 19.9324 0.272781 5.1584 59.5925
190185 9.39566 10.2073 20.1598 19.9421 0.248718 5.15006 59.7049
190204 9.40444 10.2165 20.1598 19.9713 0.260916 5.14882 59.7521
190214 9.40444 10.2349 20.2484 19.9811 0.235146 5.15882 59.8688
190224 9.40444 10.2349 20.2484 19.9811 0.235146 5.15882 59.8688
190234 9.43957 10.2808 20.1992 20.0785 0.300232 5.13951 59.998
190246 9.422 10.2441 20.209 20.0493 0.276309 5.15456 59.9244
190265 9.41322 10.29 20.2287 20.0006 0.270548 5.13731 59.9325
190275 9.41322 10.29 20.2287 20.0006 0.270548 5.13731 59.9325
190285 9.41322 10.2624 20.1893 19.9908 0.27177 5.13848 59.8558
190295 9.43079 10.2991 20.1697 19.9616 0.275761 5.11216 59.8612
190317 9.45713 10.3267 20.1598 19.9032 0.25602 5.08277 59.8468
190327 9.422 10.3267 20.1204 19.9421 0.303599 5.0945 59.8112
190337 9.422 10.3267 20.1204 19.9421 0.303599 5.0945 59.8112
190347 9.45713 10.4185 20.15 19.9032 0.298071 5.05038 59.9287
190357 9.45713 10.4185 20.15 19.9032 0.298071 5.05038 59.9287
190367 9.3781 10.3083 20.15 19.9129 0.290018 5.11549 59.7493
190376 9.43957 10.3542 20.1893 19.9519 0.282457 5.09238 59.935
190397 9.44835 10.4001 20.1106 19.8642 0.294763 5.04645 59.8232
190406 9.3781 10.3726 20.0909 19.9226 0.345609 5.0857 59.7642
190417 9.3781 10.3726 20.0909 19.9226 0.345609 5.0857 59.7642
190427 9.40444 10.4001 20.0712 19.9713 0.374201 5.07243 59.8471
190447 9.39566 10.3542 20.1106 19.9129 0.318223 5.08762 59.7734
190457 9.33419 10.3817 20.1697 19.9811 0.358707 5.12008 59.8667
190466 9.33419 10.3817 20.1697 19.9811 0.358707 5.12008 59.8667
190477 9.34298 10.3359 20.1401 19.9908 0.352612 5.12929 59.8098
190487 9.30785 10.2991 20.2189 20.1175 0.371137 5.18724 59.9433
190507 9.34298 10.2716 20.2386 20.0785 0.320601 5.18153 59.9316
190518 9.34298 10.2716 20.2386 20.0785 0.320601 5.18153 59.9316
190528 9.29907 10.2991 20.209 20.098 0.371012 5.1854 59.9052
190538 9.26395 10.2624 20.2583 20.0785 0.341919 5.2145 59.8631
190548 9.26395 10.2624 20.2583 20.0785 0.341919 5.2145 59.8631
190558 9.24638 10.2257 20.1992 20.0493 0.347203 5.2184 59.7206
190567 9.27273 10.2349 20.1893 20.1564 0.388137 5.22231 59.8534
190578 9.27273 10.2349 20.1893 20.1564 0.388137 5.22231 59.8534
190588 9.30785 10.2808 20.1893 20.1272 0.380099 5.19019 59.9052
190599 9.30785 10.2808 20.1893 20.1272 0.380099 5.19019 59.9052
190609 9.24638 10.2532 20.1303 20.1467 0.427958 5.21375 59.7766
190619 9.27273 10.2073 20.209 20.1272 0.356427 5.23006 59.8163
190639 9.29029 10.2257 20.2287 20.098 0.336167 5.21636 59.8427
190649 9.22004 10.1982 20.2189 20.137 0.374833 5.2542 59.774
190660 9.22004 10.1982 20.2189 20.137 0.374833 5.2542 59.774
190670 9.25517 10.2624 20.2583 20.2052 0.397694 5.23812 59.981
190680 9.25517 10.2624 20.2583 20.2052 0.397694 5.23812 59.981
190690 9.2376 10.2716 20.2189 20.2052 0.425589 5.23453 59.9332
190700 9.20248 10.2349 20.2681 20.1467 0.380528 5.25732 59.8522
190720 9.29029 10.2532 20.2681 20.1954 0.370902 5.22938 60.007
190730 9.22882 10.2624 20.2681 20.1564 0.384682 5.24068 59.9158
190750 9.25517 10.2349 20.2484 20.1564 0.370544 5.23787 59.8949
190772 9.25517 10.189 20.2484 20.1272 0.339615 5.24863 59.8198
190781 9.25517 10.2349 20.2189 20.2441 0.419065 5.24734 59.953
190802 9.22004 10.1614 20.2287 20.1759 0.371581 5.27459 59.7861
190812 9.26395 10.1982 20.2681 20.2246 0.371429 5.26162 59.9548
190821 9.26395 10.1982 20.2681 20.2246 0.371429 5.26162 59.9548
190831 9.28151 10.1798 20.3173 20.1954 0.323638 5.26513 59.974
190842 9.28151 10.1798 20.3173 20.1954 0.323638 5.26513 59.974
190851 9.24638 10.189 20.2976 20.1564 0.334543 5.26438 59.8894
190862 9.18492 10.1614 20.209 20.2052 0.406897 5.28806 59.7606
190882 9.22882 10.1614 20.2287 20.1467 0.35581 5.26686 59.7657
190892 9.20248 10.0972 20.1795 20.1564 0.365409 5.2912 59.6356
190903 9.20248 10.0972 20.1795 20.1564 0.365409 5.2912 59.6356
190915 9.1937 10.1339 20.2287 20.1954 0.379446 5.29604 59.7517
190923 9.14101 10.0788 20.2976 20.2344 0.365922 5.35017 59.7519
190933 9.14101 10.0788 20.2976 20.2344 0.365922 5.35017 59.7519
190944 9.18492 10.088 20.2484 20.1954 0.35589 5.31783 59.7168
190954 9.18492 10.088 20.2484 20.1954 0.35589 5.31783 59.7168
190964 9.16736 10.0788 20.3961 20.2441 0.317076 5.35865 59.8864
190974 9.22004 10.0788 20.4059 20.3123 0.318748 5.35331 60.0171
190984 9.22004 10.0788 20.4059 20.3123 0.318748 5.35331 60.0171
190994 9.21126 10.0238 20.4256 20.2539 0.267369 5.36876 59.9145
191004 9.13223 10.0972 20.4551 20.2441 0.314525 5.37385 59.9287
191014 9.13223 10.0972 20.4551 20.2441 0.314525 5.37385 59.9287
191025 9.22004 10.0513 20.3862 20.2928 0.3077 5.35636 59.9504
191034 9.22004 10.0513 20.3862 20.2928 0.3077 5.35636 59.9504
191044 9.17614 10.0421 20.4354 20.2734 0.293648 5.37917 59.927
191054 9.17614 10.0788 20.4256 20.2052 0.284818 5.35414 59.8857
191064 9.17614 10.0788 20.4256 20.2052 0.284818 5.35414 59.8857
191074 9.14101 10.0146 20.4158 20.1759 0.265178 5.38169 59.7473
191084 9.14979 10.0605 20.3961 20.1759 0.288779 5.35988 59.7823
191094 9.14979 10.0605 20.3961 20.1759 0.288779 5.35988 59.7823
191105 9.16736 10.0329 20.4847 20.1759 0.232565 5.37754 59.8609
191114 9.16736 10.0329 20.4847 20.1759 0.232565 5.37754 59.8609
191124 9.14101 9.96868 20.4847 20.2344 0.241271 5.4178 59.8287
191135 9.17614 9.99622 20.5437 20.1954 0.196865 5.39966 59.9115
191145 9.17614 9.99622 20.5437 20.1954 0.196865 5.39966 59.9115
191155 9.11467 9.99622 20.5043 20.2149 0.247413 5.41743 59.8301
191165 9.14979 9.99622 20.4945 20.2149 0.236747 5.40387 59.8554
191175 9.14979 9.96868 20.4945 20.1759 0.209203 5.40701 59.7889
191185 9.17614 9.9595 20.5831 20.2441 0.185281 5.42625 59.9629
191195 9.17614 9.9595 20.5831 20.2441 0.185281 5.42625 59.9629
191210 9.14101 9.93197 20.6225 20.1564 0.135726 5.43991 59.8519
191215 9.12345 9.95032 20.5831 20.1759 0.175366 5.43646 59.8328
191236 9.16736 9.97786 20.6225 20.1954 0.159872 5.4215 59.9631
191245 9.16736 9.97786 20.6225 20.1954 0.159872 5.4215 59.9631
191255 9.16736 9.92279 20.6717 20.1564 0.100216 5.44191 59.9183
191267 9.11467 9.96868 20.6914 20.1954 0.149265 5.45357 59.9701
191277 9.11467 9.96868 20.6914 20.1954 0.149265 5.45357 59.9701
191287 9.13223 9.87689 20.7012 20.0006 0.0184298 5.44942 59.7109
191297 9.13223 9.87689 20.7406 20.1759 0.0750929 5.48365 59.9256
191307 9.13223 9.87689 20.7406 20.1759 0.0750929 5.48365 59.9256
191317 9.11467 9.86771 20.7111 20.1467 0.0788301 5.48346 59.8401
191329 9.11467 9.86771 20.7111 20.1467 0.0788301 5.48346 59.8401
191337 9.10589 9.84935 20.7504 20.1954 0.0786483 5.50673 59.9011
191347 9.15857 9.87689 20.7997 20.1662 0.0353545 5.48248 60.0013
191357 9.15857 9.87689 20.7997 20.1662 0.0353545 5.48248 60.0013
191367 9.07955 9.81264 20.839 20.2052 0.0413865 5.54388 59.9364
191378 9.08833 9.84017 20.8292 20.2636 0.0775844 5.53911 60.0213
191388 9.08833 9.84017 20.8292 20.2636 0.0775844 5.53911 60.0213
191398 9.06198 9.7851 20.8882 20.2246 0.0248134 5.57017 59.96
191408 9.10589 9.77592 20.8686 20.2149 0.00682473 5.55363 59.9653
191428 9.07955 9.7392 20.9276 20.1662 -0.0424668 5.5769 59.9126
191439 9.07955 9.7392 20.9276 20.1662 -0.0424668 5.5769 59.9126
191448 9.02686 9.68412 20.8981 20.2344 -0.00268668 5.62004 59.8435
191458 9.00052 9.68412 20.9375 20.2831 0.0122011 5.64289 59.9052
191468 9.00052 9.68412 20.9375 20.2831 0.0122011 5.64289 59.9052
191478 8.97417 9.63823 20.9375 20.2441 -0.0122428 5.66174 59.794
191488 8.99174 9.63823 20.9867 20.2052 -0.0564292 5.65727 59.8218
191498 8.99174 9.62905 20.9867 20.2052 -0.0602767 5.66044 59.8126
191509 9.00052 9.60151 21.0556 20.3026 -0.0633806 5.69281 59.9602
191519 9.00052 9.60151 21.0556 20.3026 -0.0633806 5.69281 59.9602
191529 8.93027 9.56479 21.0359 20.3026 -0.0412792 5.72674 59.8335
191540 9.03564 9.60151 21.0654 20.2636 -0.098367 5.67617 59.9662
191549 9.03564 9.60151 21.0654 20.2636 -0.098367 5.67617 59.9662
191559 8.95661 9.59233 20.9965 20.2734 -0.0365496 5.69744 59.8188
191569 8.96539 9.61069 21.0654 20.3123 -0.0449568 5.70481 59.9538
191589 9.02686 9.65659 20.9965 20.2928 -0.0308305 5.65404 59.9728
191599 9.02686 9.65659 20.9965 20.2928 -0.0308305 5.65404 59.9728
191609 8.97417 9.62905 21.0261 20.2441 -0.0530526 5.67872 59.8734
191619 9.02686 9.62905 20.9473 20.1662 -0.0748426 5.63606 59.7694
191629 9.02686 9.62905 20.9473 20.1662 -0.0748426 5.63606 59.7694
191639 9.00052 9.63823 20.967 20.2539 -0.0314966 5.65877 59.8596
191650 8.95661 9.67495 20.9375 20.2052 -0.00584424 5.64903 59.7742
191670 9.00052 9.62905 21.0162 20.3026 -0.0354901 5.67719 59.9484
191680 9.00052 9.62905 21.0162 20.3026 -0.0354901 5.67719 59.9484
191690 9.02686 9.67495 21.0162 20.3415 -0.0110626 5.65837 60.0596
191700 9.01808 9.71166 20.9375 20.3026 0.0244707 5.63041 59.9698
191721 9.03564 9.7851 20.8784 20.2636 0.0561446 5.58379 59.9628
191731 9.00052 9.73002 20.8292 20.2441 0.0603825 5.60401 59.8038
191752 9.0532 9.7851 20.7504 20.3123 0.12261 5.56529 59.9011
191763 9.0532 9.7851 20.7504 20.3123 0.12261 5.56529 59.9011
191772 9.04442 9.73002 20.7209 20.3123 0.115797 5.58259 59.8077
191782 9.02686 9.75756 20.7701 20.3513 0.13015 5.59303 59.9058
191792 9.02686 9.75756 20.7701 20.3513 0.13015 5.59303 59.9058
191802 9.00052 9.81264 20.7012 20.3513 0.193015 5.57232 59.8657
191812 9.02686 9.83099 20.6914 20.3318 0.185606 5.55234 59.881
191832 9.07955 9.84017 20.6717 20.361 0.187638 5.53264 59.9524
191843 9.07955 9.84017 20.6717 20.361 0.187638 5.53264 59.9524
191853 9.02686 9.89525 20.7406 20.3026 0.179428 5.53347 59.9653
191864 9.02686 9.92279 20.652 20.4 0.268295 5.52544 60.0016
191873 9.02686 9.92279 20.652 20.4 0.268295 5.52544 60.0016
191883 8.99174 9.93197 20.5634 20.361 0.308219 5.51414 59.8481
191893 9.02686 9.79428 20.6126 20.4 0.231802 5.56328 59.8338
191903 9.02686 9.79428 20.6126 20.4 0.231802 5.56328 59.8338
191913 8.99174 9.84935 20.5831 20.3903 0.277853 5.55023 59.8144
191923 8.99174 9.84935 20.5831 20.3903 0.277853 5.55023 59.8144
191933 9.00052 9.92279 20.5536 20.3708 0.308904 5.51426 59.8476
191943 9.03564 9.87689 20.5732 20.439 0.294942 5.53186 59.9247
191963 9.02686 9.9595 20.5339 20.5266 0.38529 5.51423 60.0469
191974 8.99174 9.84935 20.5043 20.4487 0.335312 5.54702 59.7941
191984 8.99174 9.84935 20.5043 20.4487 0.335312 5.54702 59.7941
191994 8.97417 9.96868 20.4059 20.3903 0.409639 5.4872 59.739
192004 8.97417 9.96868 20.4059 20.3903 0.409639 5.4872 59.739
192014 9.00052 9.90443 20.4551 20.4487 0.375152 5.51731 59.8088
192024 9.00052 9.92279 20.4453 20.4292 0.378868 5.50636 59.7978
192044 9.00052 10.0054 20.4551 20.4487 0.416657 5.48273 59.9098
192054 9.03564 9.97786 20.3862 20.4585 0.423694 5.47073 59.8582
192065 9.03564 9.97786 20.3862 20.4585 0.423694 5.47073 59.8582
192075 9.0093 9.99622 20.3272 20.4682 0.47155 5.4656 59.8009
192095 9.0093 9.9595 20.337 20.4487 0.444284 5.47664 59.7545
192105 9.09711 9.96868 20.3468 20.4487 0.406539 5.44502 59.8613
192115 9.09711 9.96868 20.3468 20.4487 0.406539 5.44502 59.8613
192125 9.09711 10.0054 20.3075 20.3708 0.406316 5.41372 59.7808
192135 9.0532 10.0421 20.3173 20.3708 0.435895 5.41775 59.7834
192145 9.0532 10.0421 20.3173 20.3708 0.435895 5.41775 59.7834
192155 9.11467 10.0513 20.4551 20.4 0.367165 5.42038 60.0211
192168 9.11467 10.0513 20.4551 20.4 0.367165 5.42038 60.0211
192175 9.14101 10.0605 20.3764 20.4 0.393096 5.39571 59.9779
192185 9.16736 10.1064 20.337 20.361 0.401461 5.3586 59.9718
192195 9.16736 10.1064 20.337 20.361 0.401461 5.3586 59.9718
192205 9.14101 10.1064 20.3468 20.3123 0.388455 5.3613 59.9065
192215 9.07955 10.0421 20.2878 20.3123 0.413209 5.39463 59.7218
192225 9.07955 10.0421 20.2878 20.3123 0.413209 5.39463 59.7218
192236 9.12345 10.1064 20.337 20.2246 0.364 5.35155 59.7915
192245 9.12345 10.1064 20.337 20.2246 0.364 5.35155 59.7915
192255 9.12345 10.1431 20.3272 20.2344 0.387302 5.33905 59.8281
192265 9.20248 10.1431 20.337 20.1954 0.333607 5.30751 59.878
192276 9.20248 10.1431 20.337 20.1954 0.333607 5.30751 59.878
192285 9.22882 10.1982 20.3567 20.1662 0.324789 5.27838 59.9499
192295 9.22882 10.1982 20.3567 20.1662 0.324789 5.27838 59.9499
192305 9.15857 10.0421 20.2681 20.2052 0.343785 5.3472 59.6739
192315 9.1937 10.0697 20.3468 20.1954 0.302869 5.33702 59.8056
192337 9.1937 10.1798 20.2386 20.137 0.370091 5.27256 59.749
192348 9.17614 10.0513 20.3075 20.1272 0.291184 5.33184 59.6621
192357 9.17614 10.0513 20.3075 20.1272 0.291184 5.33184 59.6621
192367 9.26395 10.1064 20.2779 20.1077 0.281236 5.27529 59.756
192387 9.21126 10.1064 20.3665 20.0298 0.233772 5.29492 59.714
192397 9.25517 10.0788 20.3862 20.0298 0.195503 5.29256 59.75
192418 9.34298 10.1431 20.4158 20.0688 0.188896 5.25219 59.9706
192428 9.29907 10.1706 20.4748 20.0103 0.169736 5.25782 59.9548
192448 9.36932 10.1614 20.3665 20.0201 0.185946 5.22115 59.9174
192457 9.36932 10.1982 20.3567 19.9421 0.173 5.19441 59.8663
192479 9.3781 10.2073 20.3468 19.8447 0.136802 5.17074 59.777
192488 9.3781 10.2073 20.3468 19.8447 0.136802 5.17074 59.777
192497 9.40444 10.2257 20.3468 19.8155 0.121206 5.15086 59.7925
192512 9.41322 10.2441 20.3075 19.8642 0.161943 5.14326 59.8289
192518 9.41322 10.2441 20.3075 19.8642 0.161943 5.14326 59.8289
192528 9.45713 10.2624 20.3272 19.835 0.130713 5.12074 59.8817
192538 9.45713 10.2624 20.3272 19.835 0.130713 5.12074 59.8817
192548 9.41322 10.2532 20.2484 19.7083 0.125754 5.10462 59.6232
192559 9.44835 10.2165 20.3764 19.8057 0.0825137 5.14242 59.847
192579 9.43079 10.2349 20.2583 19.6888 0.0984132 5.10329 59.6127
192590 9.50103 10.3175 20.2583 19.7083 0.111449 5.05511 59.7851
192599 9.50103 10.3175 20.2583 19.7083 0.111449 5.05511 59.7851
192610 9.45713 10.2808 20.3468 19.6791 0.0652105 5.09205 59.7638
192620 9.46591 10.2808 20.2583 19.6693 0.0946641 5.07277 59.6743
192630 9.46591 10.2808 20.2583 19.6693 0.0946641 5.07277 59.6743
192640 9.47469 10.3359 20.3567 19.7278 0.0969499 5.07737 59.895
192650 9.47469 10.3359 20.3567 19.7278 0.0969499 5.07737 59.895
192660 9.47469 10.345 20.3665 19.6596 0.0682622 5.06461 59.8459
192670 9.44835 10.3083 20.3665 19.7668 0.108618 5.10352 59.89
192690 9.47469 10.29 20.3075 19.6596 0.0700593 5.07329 59.7317
192700 9.47469 10.29 20.3075 19.6596 0.0700593 5.07329 59.7317
192710 9.41322 10.2716 20.3764 19.6499 0.0552058 5.10996 59.7111
192720 9.44835 10.2808 20.3665 19.5914 0.0239998 5.08372 59.6871
192731 9.44835 10.2808 20.3665 19.5914 0.0239998 5.08372 59.6871
192741 9.422 10.3083 20.3468 19.6401 0.0751793 5.08813 59.7173
192750 9.45713 10.2991 20.4551 19.6401 0.0112772 5.09736 59.8515
192760 9.45713 10.2991 20.4551 19.6401 0.0112772 5.09736 59.8515
192770 9.48347 10.2991 20.4256 19.6986 0.0369906 5.0933 59.9068
192790 9.43079 10.3083 20.3862 19.6986 0.0793487 5.1014 59.8239
192801 9.43079 10.2441 20.4256 19.7668 0.0644922 5.14076 59.8672
192821 9.40444 10.2624 20.3764 19.7473 0.0957012 5.13212 59.7905
192832 9.38688 10.2624 20.337 19.6888 0.0952512 5.12186 59.6751
192851 9.41322 10.3175 20.3961 19.7375 0.102627 5.11228 59.8643
192862 9.39566 10.3175 20.3862 19.8155 0.146496 5.12941 59.9148
192872 9.39566 10.3175 20.3862 19.8155 0.146496 5.12941 59.9148
192883 9.45713 10.3083 20.3665 19.8252 0.129205 5.11022 59.9572
192893 9.45713 10.3083 20.3665 19.8252 0.129205 5.11022 59.9572
192904 9.36932 10.2716 20.3468 19.7862 0.142908 5.14241 59.774
192913 9.422 10.3083 20.2976 19.7375 0.136459 5.09613 59.7655
192933 9.43079 10.2808 20.2484 19.8057 0.17038 5.10558 59.7657
192943 9.34298 10.3083 20.3075 19.8057 0.193927 5.13563 59.7645
192964 9.39566 10.3542 20.2681 19.8057 0.207353 5.09596 59.8237
192984 9.35176 10.3542 20.2779 19.796 0.217676 5.11074 59.7799
192994 9.39566 10.3175 20.2681 19.8934 0.228456 5.12279 59.8747
193004 9.39566 10.3175 20.2681 19.8934 0.228456 5.12279 59.8747
193014 9.422 10.4185 20.2189 19.8447 0.2597 5.06387 59.904
193024 9.43957 10.3634 20.209 19.7862 0.209472 5.06511 59.7982
193034 9.43957 10.3634 20.209 19.7862 0.209472 5.06511 59.7982
193044 9.41322 10.4185 20.0712 19.7473 0.285539 5.026 59.6502
193054 9.41322 10.4185 20.0712 19.7473 0.285539 5.026 59.6502
193064 9.47469 10.4276 19.9925 19.6206 0.244102 4.96781 59.5154
193074 9.43079 10.5286 20.0023 19.5622 0.276232 4.94048 59.5239
193084 9.43079 10.5286 20.0023 19.5622 0.276232 4.94048 59.5239
193094 9.51859 10.5837 19.9826 19.5622 0.270191 4.88939 59.6471
193104 9.50981 10.5286 20.022 19.5037 0.210077 4.90747 59.5642
193114 9.50981 10.5286 20.022 19.5037 0.210077 4.90747 59.5642
193132 9.59762 10.6755 20.0614 19.416 0.180972 4.82112 59.7505
193134 9.59762 10.6755 20.0614 19.416 0.180972 4.82112 59.7505
193144 9.63275 10.7306 20.0122 19.3284 0.173366 4.76784 59.7038
193154 9.65909 10.8315 19.9925 19.2212 0.167984 4.70395 59.7043
193164 9.65909 10.8315 19.9925 19.2212 0.167984 4.70395 59.7043
193174 9.79081 11.0059 19.9334 19.1725 0.189564 4.58473 59.9026
193184 9.79081 11.0059 19.9334 19.1725 0.189564 4.58473 59.9026
193194 9.76446 10.9876 19.8251 19.0361 0.182045 4.55667 59.6133
193204 9.79081 11.1436 19.835 19.0166 0.223494 4.49532 59.786
193215 9.79081 11.1436 19.835 19.0166 0.223494 4.49532 59.786
193225 9.87862 11.1987 19.8251 18.851 0.144744 4.41786 59.7535
193236 9.86983 11.2079 19.7661 18.8413 0.173092 4.40553 59.6851
193246 9.86983 11.2079 19.7661 18.8413 0.173092 4.40553 59.6851
193255 9.87862 11.263 19.7661 18.8315 0.188231 4.38306 59.7392
193265 9.87862 11.263 19.7661 18.8315 0.188231 4.38306 59.7392
193275 9.82593 11.2262 19.7759 18.7925 0.174835 4.40694 59.6206
193285 9.86983 11.3089 19.8448 18.7731 0.153551 4.37463 59.7966
193295 9.86983 11.3089 19.8448 18.7731 0.153551 4.37463 59.7966
193305 9.84349 11.263 19.9531 18.8023 0.1122 4.42242 59.8618
193317 9.90496 11.2446 19.9039 18.7244 0.0669628 4.38591 59.7778
193325 9.90496 11.2446 19.9039 18.7244 0.0669628 4.38591 59.7778
193335 9.86983 11.2262 19.8842 18.7438 0.0904381 4.40323 59.7241
193348 9.86983 11.2262 19.8842 18.7438 0.0904381 4.40323 59.7241
193356 9.81715 11.263 19.8054 18.6951 0.140774 4.38577 59.5807
193366 9.82593 11.2721 19.8153 18.8413 0.197551 4.40765 59.7546
193378 9.82593 11.2721 19.8153 18.8413 0.197551 4.40765 59.7546
193388 9.82593 11.2171 19.8251 18.7828 0.146186 4.41693 59.6509
193398 9.79959 11.2262 19.8054 18.812 0.1816 4.42421 59.6433
193408 9.79959 11.2262 19.8054 18.812 0.1816 4.42421 59.6433
193418 9.85227 11.1987 19.8251 18.8802 0.167987 4.43159 59.7563
193428 9.80837 11.1895 19.7759 18.9679 0.239846 4.45566 59.7417
193438 9.80837 11.1895 19.7759 18.9679 0.239846 4.45566 59.7417
193448 9.77324 11.2538 19.7759 18.9971 0.29338 4.45134 59.8001
193468 9.79081 11.2538 19.6676 18.9874 0.327781 4.42476 59.6996
193478 9.80837 11.2905 19.6873 18.9679 0.319105 4.40715 59.7541
193489 9.80837 11.2905 19.6873 18.9679 0.319105 4.40715 59.7541
193499 9.78202 11.2813 19.6578 18.9776 0.343037 4.41519 59.6988
193509 9.79081 11.2813 19.5692 18.9776 0.376964 4.3966 59.619
193522 9.79081 11.2813 19.5692 18.9776 0.376964 4.3966 59.619
193529 9.77324 11.3364 19.5692 18.9289 0.38707 4.37573 59.6078
193539 9.77324 11.3364 19.5692 18.9289 0.38707 4.37573 59.6078
193550 9.7469 11.3548 19.5101 18.9387 0.435093 4.36953 59.5505
193560 9.79959 11.3915 19.5594 18.9776 0.422826 4.35623 59.7281
193570 9.79959 11.3915 19.5594 18.9776 0.422826 4.35623 59.7281
193580 9.82593 11.3823 19.4314 18.9874 0.466385 4.32956 59.627
193590 9.85227 11.3639 19.4609 18.9679 0.426966 4.32877 59.645
193610 9.84349 11.4465 19.4511 19.0264 0.492889 4.31357 59.7675
193620 9.84349 11.4465 19.4511 19.0264 0.492889 4.31357 59.7675
193630 9.86105 11.4465 19.4215 18.9679 0.474003 4.29214 59.697
193640 9.84349 11.4741 19.4412 19.0458 0.516352 4.3064 59.8046
193650 9.84349 11.4741 19.4412 19.0458 0.516352 4.3064 59.8046
193661 9.87862 11.5108 19.3231 18.9387 0.522941 4.24276 59.6512
193670 9.84349 11.4924 19.3231 18.9971 0.554419 4.27055 59.6562
193690 9.91374 11.5567 19.3723 18.9679 0.517693 4.2308 59.8107
193700 9.91374 11.5567 19.3723 18.9679 0.517693 4.2308 59.8107
193710 9.89618 11.4833 19.3428 18.9971 0.519693 4.26005 59.7194
193720 9.87862 11.6026 19.3034 19.0166 0.600815 4.2237 59.8012
193740 9.8874 11.5842 19.3526 18.9582 0.544629 4.22511 59.7824
193752 9.91374 11.5292 19.3428 18.9776 0.52301 4.23609 59.7633
193763 9.91374 11.5292 19.3428 18.9776 0.52301 4.23609 59.7633
193774 9.87862 11.5751 19.3428 18.9971 0.564769 4.23614 59.7936
193785 9.87862 11.5751 19.3428 18.9971 0.564769 4.23614 59.7936
193791 9.90496 11.4741 19.3625 18.9289 0.475776 4.25145 59.6705
193801 9.86105 11.4833 19.3723 18.9582 0.506097 4.26969 59.6748
193811 9.86105 11.4833 19.3723 18.9582 0.506097 4.26969 59.6748
193821 9.84349 11.3823 19.4019 18.9582 0.459468 4.31334 59.5858
193832 9.77324 11.318 19.3822 18.9679 0.475481 4.35525 59.4414
193841 9.77324 11.318 19.3822 18.9679 0.475481 4.35525 59.4414
193851 9.78202 11.2905 19.5594 19.0848 0.432849 4.41375 59.7167
193873 9.76446 11.2262 19.6381 19.0848 0.380352 4.45431 59.7136
193883 9.72056 11.1987 19.7169 19.1433 0.37829 4.50177 59.7794
193903 9.73812 11.1528 19.7267 19.2504 0.391871 4.53152 59.868
193913 9.72056 11.0886 19.7464 19.2309 0.356501 4.55828 59.7864
193923 9.72056 11.0886 19.7464 19.2309 0.356501 4.55828 59.7864
193933 9.77324 11.1069 19.7759 19.2602 0.341281 4.54533 59.9162
193943 9.77324 11.1069 19.7759 19.2602 0.341281 4.54533 59.9162
193953 9.75568 11.0335 19.835 19.192 0.265312 4.57346 59.8161
193963 9.66787 11.0151 19.7661 19.2894 0.364327 4.61323 59.7385
193973 9.66787 11.0151 19.7661 19.2894 0.364327 4.61323 59.7385
193983 9.72056 11.0059 19.7759 19.2797 0.330001 4.59897 59.7821
193993 9.72056 11.0059 19.7759 19.2797 0.330001 4.59897 59.7821
194003 9.71178 10.9325 19.7858 19.2894 0.303239 4.62936 59.7194
194013 9.69421 10.8774 19.8448 19.2894 0.262871 4.66351 59.7059
194024 9.69421 10.8774 19.8448 19.2894 0.262871 4.66351 59.7059
194034 9.68543 10.9325 19.8743 19.2212 0.248659 4.64157 59.7135
194044 9.63275 10.9233 19.9531 19.2407 0.241914 4.67894 59.7499
194054 9.63275 10.9233 19.9531 19.2407 0.241914 4.67894 59.7499
194065 9.72934 10.8958 19.8842 19.2699 0.230923 4.64935 59.7792
194074 9.72934 10.8224 19.9039 19.192 0.159734 4.66343 59.6476
194094 9.76446 10.8774 19.9236 19.2115 0.167647 4.64054 59.7769
194104 9.76446 10.8774 19.9236 19.2115 0.167647 4.64054 59.7769
194114 9.71178 10.8315 19.9531 19.2309 0.166425 4.68146 59.7274
194124 9.75568 10.8591 19.9236 19.2115 0.163716 4.64946 59.7498
194134 9.75568 10.8591 19.9236 19.2115 0.163716 4.64946 59.7498
194144 9.76446 10.8958 19.8842 19.192 0.18377 4.62429 59.7364
194154 9.703 10.8591 19.9137 19.153 0.165761 4.65497 59.6288
194164 9.703 10.8591 19.9137 19.153 0.165761 4.65497 59.6288
194175 9.73812 10.8958 19.9531 19.192 0.165838 4.6449 59.779
194195 9.76446 10.8683 19.9137 19.1822 0.15583 4.63678 59.7287
194205 9.77324 10.8958 19.9629 19.1628 0.134775 4.63001 59.7947
194215 9.77324 10.8958 19.9629 19.1628 0.134775 4.63001 59.7947
194225 9.7469 10.8774 19.9039 19.1433 0.154981 4.63106 59.6715
194245 9.79081 10.8866 19.9334 19.1335 0.123829 4.61705 59.7443
194255 9.73812 10.8683 19.9531 19.1725 0.146288 4.65058 59.732
194268 9.73812 10.8683 19.9531 19.1725 0.146288 4.65058 59.732
194276 9.703 10.8958 19.9433 19.1335 0.160477 4.64462 59.6756
194286 9.72056 10.8774 19.894 19.1335 0.166187 4.63633 59.6255
194306 9.72934 10.8683 19.9925 19.1628 0.129363 4.6586 59.7528
194317 9.703 10.905 20.0122 19.2115 0.167665 4.66701 59.8316
194328 9.703 10.905 20.0122 19.2115 0.167665 4.66701 59.8316
194338 9.71178 10.8407 20.0122 19.1238 0.100756 4.67011 59.6884
194348 9.71178 10.8407 20.0122 19.1238 0.100756 4.67011 59.6884
194358 9.66787 10.8132 20.022 19.1433 0.111729 4.69875 59.6463
194368 9.72056 10.8499 20.022 19.1822 0.121108 4.67601 59.7747
194378 9.72056 10.8499 20.022 19.1822 0.121108 4.67601 59.7747
194388 9.703 10.7489 20.0318 19.2017 0.0903875 4.72015 59.6855
194399 9.72934 10.7765 20.0614 19.1628 0.0621498 4.70074 59.7299
194409 9.72934 10.7765 20.0614 19.1628 0.0621498 4.70074 59.7299
194418 9.703 10.8499 19.9925 19.2212 0.157124 4.68342 59.7666
194428 9.703 10.8499 19.9925 19.2212 0.157124 4.68342 59.7666
194439 9.72934 10.7489 20.0909 19.2602 0.0789106 4.73167 59.8293
194449 9.73812 10.804 20.1204 19.2309 0.0736237 4.71068 59.8935
194459 9.73812 10.804 20.1204 19.2309 0.0736237 4.71068 59.8935
194469 9.72056 10.8591 20.0318 19.2797 0.16126 4.69148 59.8911
194480 9.72934 10.7856 20.0515 19.1628 0.0701129 4.69602 59.7293
194489 9.72934 10.7856 20.0515 19.1628 0.0701129 4.69602 59.7293
194501 9.68543 10.804 20.0318 19.153 0.100431 4.69937 59.6743
194510 9.68543 10.804 20.0318 19.153 0.100431 4.69937 59.6743
194520 9.703 10.7581 20.0023 19.153 0.0863016 4.70363 59.6164
194530 9.69421 10.7765 20.0417 19.1433 0.077033 4.70558 59.6556
194540 9.69421 10.7765 20.0417 19.1433 0.077033 4.70558 59.6556
194550 9.73812 10.7581 19.9629 19.0653 0.0513941 4.67002 59.5245
194560 9.75568 10.8224 19.9433 19.0751 0.0832617 4.64129 59.5964
194571 9.75568 10.8224 19.9433 19.0751 0.0832617 4.64129 59.5964
194583 9.79081 10.8591 20.0023 19.153 0.0915319 4.64143 59.8052
194591 9.703 10.8774 20.0909 19.0166 0.0419468 4.65599 59.688
194603 9.703 10.8774 20.0909 19.0166 0.0419468 4.65599 59.688
194612 9.78202 10.8774 20.0811 19.1238 0.0576824 4.64686 59.8643
194622 9.78202 10.8774 20.0811 19.1238 0.0576824 4.64686 59.8643
194632 9.79959 10.8224 20.0811 19.0751 0.00701547 4.65075 59.7781
194641 9.81715 10.905 20.0909 19.0946 0.0381678 4.62296 59.9076
194652 9.81715 10.905 20.0909 19.0946 0.0381678 4.62296 59.9076
194661 9.83471 10.8866 20.0614 18.9971 -0.00516474 4.60118 59.7798
194671 9.83471 10.8591 19.9925 18.9192 -0.0205159 4.58462 59.6055
194682 9.83471 10.8591 19.9925 18.9192 -0.0205159 4.58462 59.6055
194693 9.86105 10.9325 20.0909 19.0361 0.00694692 4.58944 59.9206
194703 9.86105 10.9325 20.0909 19.0361 0.00694692 4.58944 59.9206
194713 9.83471 10.8683 20.0417 18.8997 -0.0454515 4.5868 59.6444
194723 9.78202 10.9141 20.0318 18.9192 0.00815988 4.59071 59.6472
194743 9.86105 10.8774 20.0122 18.8997 -0.0402614 4.56998 59.6504
194753 9.79959 10.8683 20.0811 18.8997 -0.0472322 4.6052 59.6486
194763 9.79959 10.8683 20.0811 18.8997 -0.0472322 4.6052 59.6486
194774 9.84349 10.9417 20.0712 18.8802 -0.0388369 4.56159 59.7366
194794 9.79959 10.8958 20.0318 18.8607 -0.0314251 4.58076 59.588
194805 9.84349 10.96 20.0515 18.8315 -0.0433385 4.54361 59.6866
194824 9.86105 10.8958 20.022 18.8705 -0.0489458 4.56057 59.6493
194834 9.83471 10.9417 20.0515 18.8413 -0.0432789 4.55421 59.6692
194855 9.87862 10.9417 20.1401 18.812 -0.110847 4.55022 59.7725
194874 9.85227 10.8683 20.0909 18.7828 -0.122546 4.5692 59.5942
194884 9.89618 10.9417 20.1106 18.7536 -0.130442 4.52907 59.702
194897 9.89618 10.9417 20.1106 18.7536 -0.130442 4.52907 59.702
194910 9.86983 11.0427 20.0318 18.7633 -0.0400692 4.49256 59.7077
194916 9.90496 11.0427 20.0811 18.6562 -0.120302 4.47089 59.6848
194925 9.90496 11.0427 20.0811 18.6562 -0.120302 4.47089 59.6848
194935 9.96643 11.061 20.0318 18.6172 -0.134084 4.42928 59.6765
194945 9.96643 11.061 20.0318 18.6172 -0.134084 4.42928 59.6765
194955 10.0015 11.0702 19.9728 18.5587 -0.144875 4.394 59.6033
194965 9.97521 11.0794 20.0023 18.5977 -0.125907 4.41176 59.6546
194985 10.0279 11.1253 20.0318 18.4905 -0.185974 4.36592 59.6756
194995 10.0367 11.2171 19.9334 18.4223 -0.138684 4.30351 59.6095
195005 10.0367 11.2171 19.9334 18.4223 -0.138684 4.30351 59.6095
195016 10.063 11.263 19.9826 18.4029 -0.159022 4.28549 59.7115
195032 10.063 11.263 19.9826 18.4029 -0.159022 4.28549 59.7115
195040 10.0806 11.2721 19.9236 18.3054 -0.178981 4.24869 59.5817
195050 10.0894 11.4006 19.8448 18.2372 -0.124337 4.17781 59.5721
195055 10.0894 11.4006 19.8448 18.2372 -0.124337 4.17781 59.5721
195067 10.1245 11.52 19.7858 18.1398 -0.105101 4.09966 59.57
195076 10.1508 11.5475 19.8054 18.1398 -0.112721 4.086 59.6436
195087 10.1508 11.5475 19.8054 18.1398 -0.112721 4.086 59.6436
195096 10.2123 11.6118 19.7464 18.0521 -0.123593 4.0189 59.6226
195108 10.2123 11.6118 19.7464 18.0521 -0.123593 4.0189 59.6226
195116 10.2123 11.6852 19.6775 18.0814 -0.0516236 3.98818 59.6563
195127 10.1947 11.7311 19.5889 18.0619 0.00393391 3.95917 59.5766
195138 10.1947 11.7311 19.5889 18.0619 0.00393391 3.95917 59.5766
195148 10.2123 11.8504 19.579 18.0716 0.0547349 3.91569 59.7134
195159 10.2035 11.8963 19.579 18.0229 0.0572413 3.89489 59.7018
195178 10.2474 11.9239 19.5594 18.0327 0.0626475 3.87045 59.7633
195188 10.2474 11.9239 19.5594 18.0327 0.0626475 3.87045 59.7633
195198 10.2123 11.8504 19.5594 17.984 0.0263125 3.89572 59.606
195209 10.2386 11.8504 19.579 18.0327 0.0273973 3.90011 59.7008
195230 10.2386 11.8504 19.579 18.0327 0.0273973 3.90011 59.7008
195231 10.2386 11.8229 19.5987 17.9742 -0.0168741 3.90162 59.6345
195240 10.1947 11.8229 19.5594 17.9352 0.00170171 3.90095 59.5122
195259 10.1508 11.7311 19.5987 17.9937 -0.010407 3.96234 59.4743
195269 10.1508 11.7311 19.5987 17.9937 -0.010407 3.96234 59.4743
195279 10.1157 11.7403 19.6283 18.0619 0.0244409 3.98871 59.5461
195289 10.142 11.7036 19.7267 18.1203 -0.018777 4.02095 59.6926
195299 10.142 11.7036 19.7267 18.1203 -0.018777 4.02095 59.6926
195310 10.1157 11.6944 19.7759 18.1496 -0.0199452 4.04668 59.7356
195320 10.1157 11.5659 19.8153 18.1203 -0.102644 4.0896 59.6172
195329 10.1157 11.5659 19.8153 18.1203 -0.102644 4.0896 59.6172
195339 10.0718 11.5934 19.7956 18.247 -0.0113025 4.11438 59.7078
195349 10.0718 11.5934 19.7956 18.247 -0.0113025 4.11438 59.7078
195360 10.0367 11.4557 19.8448 18.3054 -0.0504345 4.18942 59.6427
195370 10.0367 11.4465 19.8448 18.3444 -0.0379294 4.19943 59.6724
195380 10.0367 11.4465 19.8448 18.3444 -0.0379294 4.19943 59.6724
195390 10.1157 11.4282 19.8645 18.4223 -0.0541821 4.19758 59.8307
195400 9.99277 11.3089 19.9039 18.3639 -0.0939652 4.2722 59.5694
195412 9.99277 11.3089 19.9039 18.3639 -0.0939652 4.2722 59.5694
195420 10.0191 11.3456 19.9925 18.4321 -0.0978097 4.28 59.7892
195430 10.0191 11.3456 19.9925 18.4321 -0.0978097 4.28 59.7892
195440 9.99277 11.3272 19.9629 18.4808 -0.0617802 4.29787 59.7637
195450 10.0367 11.2538 20.0023 18.4808 -0.127319 4.31445 59.7736
195460 10.0367 11.2538 20.0023 18.4808 -0.127319 4.31445 59.7736
195470 10.063 11.2538 19.9826 18.4808 -0.130087 4.30242 59.7802
195480 9.99277 11.263 19.9531 18.5198 -0.0682816 4.32384 59.7286
195490 9.99277 11.263 19.9531 18.5198 -0.0682816 4.32384 59.7286
195500 9.96643 11.1803 19.9728 18.5003 -0.108428 4.3592 59.6198
195510 9.96643 11.1803 19.9728 18.5003 -0.108428 4.3592 59.6198
195521 9.97521 11.1528 20.0122 18.4613 -0.156556 4.36536 59.6015
195532 10.0015 11.2262 20.0417 18.51 -0.128375 4.34696 59.7795
195552 9.98399 11.1803 19.9826 18.4808 -0.128073 4.35177 59.6278
195562 9.98399 11.162 20.0023 18.5003 -0.135809 4.36472 59.6486
195581 9.97521 11.2171 20.022 18.4321 -0.145882 4.34104 59.6464
195592 9.97521 11.2171 20.022 18.4321 -0.145882 4.34104 59.6464
195603 9.97521 11.162 20.0318 18.4613 -0.160886 4.36589 59.6304
195613 9.98399 11.2446 19.9531 18.4808 -0.0887007 4.32566 59.6625
195638 10.0103 11.2813 19.9629 18.4418 -0.104748 4.30004 59.6964
195643 10.0191 11.2813 19.9433 18.3639 -0.133017 4.27967 59.6076
195653 10.0191 11.2813 19.9433 18.3639 -0.133017 4.27967 59.6076
195664 10.0015 11.2905 19.894 18.4418 -0.068447 4.28755 59.6279
195675 10.0718 11.2905 19.8645 18.4418 -0.0854596 4.25954 59.6686
195687 10.0718 11.3364 19.8645 18.3639 -0.0989392 4.23068 59.6366
195698 10.0718 11.3548 19.8842 18.3639 -0.099431 4.22831 59.6746
195704 10.0718 11.3548 19.8842 18.3639 -0.099431 4.22831 59.6746
195714 10.0718 11.3548 19.8547 18.3931 -0.0748172 4.22826 59.6743
195725 10.1333 11.3456 19.7956 18.3152 -0.11248 4.18662 59.5896
195744 10.1245 11.4098 19.8251 18.3054 -0.0981927 4.17237 59.6649
195754 10.1772 11.3915 19.8054 18.2762 -0.131989 4.15246 59.6503
195764 10.1772 11.3915 19.8054 18.2762 -0.131989 4.15246 59.6503
195774 10.1596 11.4098 19.8251 18.286 -0.121042 4.15755 59.6805
195784 10.1596 11.4098 19.8251 18.286 -0.121042 4.15755 59.6805
195794 10.1772 11.3456 19.8448 18.3249 -0.147207 4.18319 59.6925
195804 10.2035 11.3823 19.7267 18.286 -0.109886 4.13438 59.5985
195814 10.2035 11.3823 19.7267 18.286 -0.109886 4.13438 59.5985
195827 10.265 11.4006 19.7267 18.3054 -0.119592 4.11234 59.6978
195834 10.265 11.4006 19.7267 18.3054 -0.119592 4.11234 59.6978
195845 10.265 11.3548 19.6578 18.3152 -0.106066 4.11625 59.5927
195855 10.3089 11.3548 19.6086 18.3152 -0.103846 4.09318 59.5874
195865 10.3089 11.3548 19.6086 18.3152 -0.103846 4.09318 59.5874
195875 10.344 11.3548 19.579 18.3347 -0.0979781 4.08009 59.6125
195885 10.3352 11.3731 19.6086 18.2567 -0.13175 4.06815 59.5736
195895 10.3352 11.3731 19.6086 18.2567 -0.13175 4.06815 59.5736
195905 10.4055 11.3823 19.5397 18.2957 -0.112015 4.03726 59.6231
195915 10.4055 11.3823 19.5397 18.2957 -0.112015 4.03726 59.6231
195928 10.3879 11.3548 19.6578 18.3054 -0.161417 4.07512 59.7059
195935 10.3791 11.3823 19.6479 18.3152 -0.137967 4.06911 59.7246
195945 10.3791 11.3823 19.6479 18.3152 -0.137967 4.06911 59.7246
195955 10.3967 11.3731 19.579 18.3249 -0.116339 4.05559 59.6738
195965 10.4055 11.3548 19.5495 18.3054 -0.123622 4.04965 59.6152
195975 10.4055 11.3548 19.5495 18.3054 -0.123622 4.04965 59.6152
195985 10.3264 11.3823 19.52 18.3347 -0.0543386 4.06607 59.5634
196005 10.3177 11.3639 19.5003 18.3249 -0.0542358 4.06935 59.5068
196015 10.3352 11.3548 19.4806 18.3542 -0.0449061 4.06842 59.5247
196025 10.3352 11.3548 19.4806 18.3542 -0.0449061 4.06842 59.5247
196038 10.3177 11.2997 19.4019 18.3347 -0.035876 4.07367 59.3539
196047 10.265 11.3639 19.4708 18.4711 0.0416517 4.10761 59.5707
196066 10.2474 11.3548 19.4904 18.5198 0.0573128 4.12868 59.6124
196077 10.2474 11.3548 19.4904 18.5198 0.0573128 4.12868 59.6124
196087 10.265 11.3364 19.5298 18.6269 0.0705063 4.1556 59.7581
196098 10.2299 11.2813 19.5101 18.6172 0.0664502 4.17922 59.6385
196118 10.2474 11.2997 19.5101 18.6367 0.0748813 4.17121 59.6939
196128 10.265 11.3456 19.4904 18.6659 0.107104 4.15258 59.7669
196139 10.265 11.3456 19.4904 18.6659 0.107104 4.15258 59.7669
196149 10.2123 11.3731 19.4708 18.6659 0.149009 4.15707 59.7221
196159 10.1684 11.3272 19.4806 18.7341 0.172633 4.20005 59.7103
196169 10.1684 11.3272 19.4806 18.7341 0.172633 4.20005 59.7103
196179 10.2123 11.3639 19.4511 18.6659 0.153482 4.15644 59.6932
196190 10.2123 11.3639 19.4511 18.6659 0.153482 4.15644 59.6932
196199 10.1947 11.2905 19.5003 18.7731 0.154179 4.21399 59.7586
196209 10.1333 11.3089 19.5397 18.8315 0.195378 4.24548 59.8133
196219 10.1333 11.3089 19.5397 18.8315 0.195378 4.24548 59.8133
196229 10.1508 11.1803 19.5298 18.8705 0.154936 4.28647 59.7315
196240 10.1596 11.1803 19.5987 18.8705 0.122261 4.29598 59.8092
196249 10.1596 11.1987 19.5987 18.8997 0.142041 4.29529 59.8568
196260 10.0455 11.1528 19.5298 18.8705 0.187933 4.32948 59.5986
196269 10.0455 11.1528 19.5298 18.8705 0.187933 4.32948 59.5986
196280 9.94886 11.1528 19.5397 18.9387 0.253004 4.37479 59.58
196290 10.0455 11.1161 19.6381 18.9874 0.175595 4.38154 59.787
196309 10.0455 11.1161 19.6381 18.9874 0.175595 4.38154 59.787
196311 9.97521 11.1253 19.5594 19.0458 0.26654 4.39775 59.7057
196329 9.91374 11.0151 19.6086 19.1335 0.262412 4.47787 59.671
196330 9.91374 11.0151 19.6086 19.1335 0.262412 4.47787 59.671
196342 9.94008 11.0151 19.6479 19.0556 0.202265 4.46246 59.6587
196350 9.94008 11.0151 19.6479 19.0556 0.202265 4.46246 59.6587
196360 9.91374 11.0427 19.6578 19.153 0.261074 4.48099 59.7672
196372 9.89618 11.0151 19.6381 19.1628 0.269452 4.49395 59.7122
196392 9.79959 10.9968 19.6578 19.1335 0.282317 4.52987 59.5877
196401 9.86105 11.0335 19.6873 19.1433 0.263029 4.50465 59.7251
196413 9.86105 11.0335 19.6873 19.1433 0.263029 4.50465 59.7251
196423 9.87862 11.0243 19.707 19.1822 0.259614 4.51221 59.7922
196433 9.87862 11.0243 19.707 19.1822 0.259614 4.51221 59.7922
196445 9.8874 10.9509 19.7365 19.192 0.217053 4.54021 59.7668
196453 9.86105 10.9325 19.7759 19.2017 0.207981 4.56342 59.7712
196463 9.86105 10.9325 19.7759 19.2017 0.207981 4.56342 59.7712
196473 9.82593 10.8774 19.8054 19.192 0.183427 4.59644 59.7008
196483 9.81715 10.9325 19.835 19.1628 0.185421 4.58131 59.7474
196493 9.81715 10.9325 19.835 19.1628 0.185421 4.58131 59.7474
196503 9.85227 11.0243 19.8547 19.1433 0.192332 4.53984 59.8745
196513 9.85227 11.0243 19.8547 19.1433 0.192332 4.53984 59.8745
196523 9.86105 10.8958 19.8251 19.2309 0.184137 4.58912 59.8129
196533 9.81715 10.8683 19.8547 19.2212 0.174713 4.61598 59.7613
196554 9.84349 10.8774 19.7858 19.1335 0.160006 4.57704 59.6402
196566 9.86983 10.8958 19.7956 19.192 0.176698 4.5743 59.7532
196574 9.86983 10.8958 19.7956 19.192 0.176698 4.5743 59.7532
196584 9.82593 10.9417 19.835 19.1335 0.17339 4.57032 59.7361
196594 9.85227 10.8866 19.707 19.0556 0.160885 4.54368 59.5015
196606 9.85227 10.8866 19.707 19.0556 0.160885 4.54368 59.5015
196615 9.89618 10.9876 19.7661 19.0653 0.163555 4.50831 59.7152
196625 9.89618 10.9876 19.7661 19.0653 0.163555 4.50831 59.7152
196635 9.91374 10.9876 19.7365 19.0458 0.160491 4.49396 59.6837
196645 9.92252 10.96 19.7169 19.0458 0.153622 4.49662 59.6453
196658 9.92252 10.96 19.7169 19.0458 0.153622 4.49662 59.6453
196665 9.95764 11.0059 19.8054 19.0653 0.128764 4.48919 59.8344
196675 9.94886 11.0151 19.7956 19.0751 0.144452 4.48904 59.8347
196685 9.94886 11.0151 19.7956 19.0751 0.144452 4.48904 59.8347
196696 9.92252 10.9876 19.7661 19.0361 0.140294 4.49457 59.7123
196715 9.92252 10.9692 19.7562 19.0264 0.132734 4.49712 59.6743
196726 9.8874 10.9876 19.707 18.9387 0.139388 4.47846 59.5207
196735 9.8874 10.9876 19.707 18.9387 0.139388 4.47846 59.5207
196745 9.97521 11.0059 19.707 18.9192 0.101885 4.44032 59.6073
196756 9.91374 10.9692 19.6873 18.9484 0.132975 4.47408 59.5187
196768 9.91374 10.9692 19.6873 18.9484 0.132975 4.47408 59.5187
196777 9.9313 10.9692 19.7661 18.9679 0.100514 4.48569 59.6345
196787 9.9313 10.9692 19.7661 18.9679 0.100514 4.48569 59.6345
196796 9.8874 10.9233 19.7169 18.9582 0.116518 4.50468 59.4857
196806 9.91374 10.9876 19.8251 19.0166 0.111029 4.5044 59.7431
196816 9.91374 10.9876 19.8251 19.0166 0.111029 4.5044 59.7431
196827 9.94886 11.0243 19.7858 19.0166 0.128102 4.47404 59.7755
196837 9.89618 11.0243 19.7956 18.9679 0.125843 4.48438 59.684
196847 9.89618 11.0243 19.7956 18.9679 0.125843 4.48438 59.684
196858 9.97521 11.0335 19.8547 19.0264 0.0959963 4.47631 59.8897
196869 9.97521 11.0335 19.8547 19.0264 0.0959963 4.47631 59.8897
196878 9.9313 11.0427 19.7169 19.0264 0.176191 4.46335 59.7172
196888 9.97521 11.0886 19.7759 18.9582 0.123584 4.43252 59.7978
196898 9.97521 11.0886 19.7759 18.9582 0.123584 4.43252 59.7978
196908 9.98399 11.0794 19.835 19.0069 0.111547 4.45166 59.9052
196918 9.99277 11.0427 19.7365 18.9095 0.0933319 4.42614 59.6814
196928 9.99277 11.0427 19.7365 18.9095 0.0933319 4.42614 59.6814
196937 9.98399 11.0243 19.7464 18.9582 0.105542 4.44534 59.7128
196958 9.96643 10.9876 19.7169 18.8218 0.0529826 4.43365 59.4926
196967 9.94886 11.0977 19.7464 18.8802 0.118443 4.41907 59.6732
196979 9.94886 11.0977 19.7464 18.8802 0.118443 4.41907 59.6732
196988 9.96643 11.0518 19.7956 18.851 0.0590026 4.43184 59.6649
196998 9.96643 11.0518 19.7956 18.851 0.0590026 4.43184 59.6649
197008 9.99277 11.0151 19.7169 18.8413 0.0615954 4.41952 59.566
197018 10.0455 11.0518 19.7267 18.8997 0.0750989 4.40255 59.7237
197028 10.0455 11.0518 19.7267 18.8997 0.0750989 4.40255 59.7237
197038 9.97521 11.0886 19.7365 18.7828 0.0669718 4.39443 59.5831
197048 9.99277 11.0702 19.8153 18.8413 0.0432849 4.41905 59.7195
197059 9.99277 11.0702 19.8153 18.8413 0.0432849 4.41905 59.7195
197068 10.0191 11.0427 19.8153 18.8705 0.0329494 4.42462 59.7475
197079 10.0191 11.0427 19.8153 18.8705 0.0329494 4.42462 59.7475
197088 10.0279 11.0518 19.7464 18.7828 0.0253201 4.39099 59.6089
197098 10.0718 11.1069 19.707 18.7925 0.0505447 4.35356 59.6783
197108 10.0718 11.1069 19.707 18.7925 0.0505447 4.35356 59.6783
197118 10.0894 11.1344 19.6972 18.7438 0.038451 4.32848 59.6648
197128 10.0806 11.1436 19.7267 18.7049 0.0172794 4.32666 59.6558
197139 10.0806 11.1436 19.7267 18.7049 0.0172794 4.32666 59.6558
197148 10.0894 11.1344 19.7464 18.6659 -0.0148356 4.32334 59.6361
197169 10.1333 11.0977 19.7169 18.6269 -0.0526428 4.30873 59.5748
197179 10.0894 11.1344 19.7365 18.6464 -0.0188872 4.31809 59.6068
197199 10.142 11.1803 19.7365 18.6464 -0.0216976 4.28619 59.7053
197209 10.1947 11.1344 19.7661 18.6464 -0.0752971 4.28929 59.7417
197220 10.1947 11.1344 19.7661 18.6464 -0.0752971 4.28929 59.7417
197229 10.1333 11.1712 19.7267 18.6562 -0.0136673 4.29197 59.6873
197239 10.1333 11.1712 19.7267 18.6562 -0.0136673 4.29197 59.6873
197249 10.1684 11.1712 19.7562 18.6464 -0.0447869 4.28418 59.7422
197259 10.1508 11.1344 19.7464 18.6756 -0.0364751 4.30519 59.7073
197279 10.1333 11.2171 19.7169 18.6172 -0.00664294 4.26838 59.6844
197292 10.142 11.1528 19.6873 18.6269 -0.0208095 4.28275 59.6091
197299 10.142 11.1528 19.6873 18.6269 -0.0208095 4.28275 59.6091
197309 10.1947 11.1712 19.7169 18.6659 -0.0311762 4.27211 59.7486
197319 10.1947 11.1712 19.7169 18.6659 -0.0311762 4.27211 59.7486
197329 10.142 11.2079 19.6972 18.6464 0.00632107 4.27023 59.6935
197339 10.0894 11.162 19.6873 18.7049 0.0377983 4.31082 59.6435
197349 10.0894 11.162 19.6873 18.7049 0.0377983 4.31082 59.6435
197359 10.1069 11.2171 19.7267 18.7244 0.0450879 4.29788 59.775
197370 10.1069 11.2171 19.7267 18.7244 0.0450879 4.29788 59.775
197380 10.0806 11.1803 19.7956 18.6951 -0.000295043 4.32535 59.7517
197390 10.1245 11.1528 19.7464 18.7049 -0.00552088 4.313 59.7285
197400 10.1245 11.1528 19.7464 18.7049 -0.00552088 4.313 59.7285
197410 10.0806 11.162 19.6775 18.7049 0.0456214 4.3119 59.6249
197420 10.0806 11.1803 19.7267 18.7731 0.0611365 4.32697 59.7607
197440 10.1157 11.1895 19.7858 18.7536 0.0174016 4.31972 59.8446
197450 10.0455 11.1987 19.6873 18.7146 0.0756711 4.31489 59.6461
197471 10.0981 11.2446 19.7169 18.7146 0.0603169 4.28832 59.7742
197481 10.0981 11.2446 19.7169 18.7146 0.0603169 4.28832 59.7742
197494 10.0367 11.1528 19.6578 18.7536 0.0888973 4.33431 59.6008
197501 10.0542 11.1987 19.6381 18.6659 0.0723124 4.29448 59.5569
197512 10.0542 11.1987 19.6381 18.6659 0.0723124 4.29448 59.5569
197522 10.0455 11.2446 19.6184 18.6951 0.115708 4.28418 59.6036
197533 10.0542 11.1344 19.6381 18.7341 0.0739604 4.32755 59.5609
197543 10.0542 11.1344 19.6381 18.7341 0.0739604 4.32755 59.5609
197553 10.0981 11.1895 19.6775 18.7536 0.0701159 4.30603 59.7187
197563 10.0981 11.1895 19.6775 18.7536 0.0701159 4.30603 59.7187
197573 10.0455 11.2354 19.6381 18.7049 0.107649 4.29243 59.6238
197583 10.0806 11.2354 19.6972 18.6756 0.0558406 4.28643 59.6888
197593 10.0806 11.2354 19.6972 18.6756 0.0558406 4.28643 59.6888
197613 10.1245 11.2354 19.5594 18.6951 0.103462 4.25096 59.6144
197623 10.142 11.2813 19.5594 18.6659 0.103033 4.22522 59.6486
197633 10.1508 11.2997 19.5397 18.6854 0.123405 4.21644 59.6756
197654 10.1333 11.3548 19.4708 18.5782 0.138131 4.17244 59.537
197664 10.142 11.3548 19.5101 18.6269 0.13814 4.18561 59.6339
197674 10.142 11.3548 19.5101 18.6269 0.13814 4.18561 59.6339
197684 10.2386 11.4098 19.4117 18.6367 0.16591 4.1208 59.6968
197694 10.1596 11.3548 19.4708 18.6269 0.147337 4.17282 59.612
197714 10.2386 11.4006 19.4117 18.5587 0.129616 4.10952 59.6097
197724 10.2386 11.4006 19.4117 18.5587 0.129616 4.10952 59.6097
197735 10.2035 11.3364 19.5101 18.5782 0.0842601 4.1629 59.6283
197745 10.2474 11.419 19.5298 18.5393 0.0757605 4.11882 59.7355
197765 10.2474 11.4006 19.4609 18.5295 0.0929892 4.11036 59.6385
197775 10.2123 11.4282 19.3625 18.549 0.168934 4.09835 59.552
197787 10.2123 11.4282 19.3625 18.549 0.168934 4.09835 59.552
197796 10.265 11.4006 19.4117 18.51 0.0981748 4.09217 59.5874
197806 10.2211 11.4006 19.4511 18.5198 0.104156 4.11522 59.5926
197816 10.2211 11.4006 19.4511 18.5198 0.104156 4.11522 59.5926
197826 10.2474 11.419 19.4806 18.4905 0.0760972 4.10095 59.6376
197838 10.2474 11.419 19.4806 18.4905 0.0760972 4.10095 59.6376
197848 10.2913 11.4006 19.4708 18.5198 0.0663251 4.09632 59.6825
197858 10.2211 11.4374 19.4314 18.4126 0.0829875 4.08022 59.5024
197878 10.3089 11.4649 19.4904 18.5003 0.0693798 4.07021 59.7645
197888 10.265 11.4833 19.4806 18.4516 0.0792772 4.06765 59.6804
197899 10.265 11.4833 19.4806 18.4516 0.0792772 4.06765 59.6804
197912 10.3264 11.4649 19.4019 18.4126 0.0625819 4.03227 59.6058
197929 10.2913 11.4833 19.4019 18.3542 0.0605732 4.02686 59.5306
197939 10.2825 11.5475 19.4019 18.3736 0.0993013 4.01274 59.6055
197961 10.3177 11.5383 19.392 18.3152 0.0603765 3.99186 59.5632
197970 10.3089 11.5383 19.4019 18.2567 0.035429 3.98567 59.5058
197981 10.3089 11.5383 19.4019 18.2567 0.035429 3.98567 59.5058
197990 10.3616 11.6026 19.4117 18.2275 0.0238359 3.94484 59.6034
198000 10.3177 11.6026 19.4314 18.2275 0.0340074 3.96245 59.5791
198010 10.3177 11.5475 19.4314 18.2275 0.0109106 3.98 59.5241
198020 10.344 11.5842 19.3526 18.2567 0.0606 3.95073 59.5376
198030 10.344 11.5842 19.3526 18.2567 0.0606 3.95073 59.5376
198040 10.3791 11.5934 19.4412 18.247 0.00839829 3.95126 59.6608
198050 10.3879 11.5842 19.392 18.1691 -0.0111848 3.92779 59.5332
198075 10.3879 11.5842 19.392 18.1691 -0.0111848 3.92779 59.5332
198077 10.4055 11.6485 19.3231 18.208 0.053674 3.89623 59.5851
198090 10.3879 11.6485 19.3329 18.1301 0.0242501 3.8891 59.4994
198100 10.4143 11.5842 19.392 18.1593 -0.0263318 3.9176 59.5498
198110 10.4143 11.5842 19.392 18.1593 -0.0263318 3.9176 59.5498
198120 10.4757 11.6577 19.3034 18.1593 0.0158757 3.85831 59.5961
198130 10.4757 11.6852 19.3625 18.1885 0.0148833 3.86608 59.7119
198150 10.4582 11.6301 19.4511 18.1496 -0.0542507 3.8983 59.6889
198160 10.4582 11.6301 19.4511 18.1496 -0.0542507 3.8983 59.6889
198170 10.4669 11.621 19.3625 18.0814 -0.053373 3.86919 59.5317
198180 10.5021 11.6577 19.3625 18.0521 -0.0649288 3.84097 59.5744
198190 10.5021 11.6577 19.3625 18.0521 -0.0649288 3.84097 59.5744
198200 10.5372 11.676 19.4019 18.0424 -0.0924498 3.82962 59.6575
198220 10.5987 11.676 19.4019 18.0521 -0.113986 3.81207 59.7287
198232 10.625 11.676 19.3428 18.0521 -0.100346 3.7927 59.696
198243 10.625 11.676 19.3428 18.0521 -0.100346 3.7927 59.696
198260 10.6513 11.676 19.2936 17.9547 -0.131834 3.7568 59.5757
198262 10.6777 11.6668 19.2837 17.945 -0.146705 3.7477 59.5732
198282 10.6952 11.6668 19.2345 17.8378 -0.178805 3.71256 59.4344
198292 10.6777 11.6668 19.2542 17.8378 -0.179695 3.72182 59.4366
198300 10.6777 11.6852 19.2542 17.8476 -0.167795 3.71789 59.4647
198310 10.6426 11.6301 19.2148 17.8865 -0.143464 3.74625 59.374
198323 10.6426 11.6301 19.2148 17.8865 -0.143464 3.74625 59.374
198330 10.6601 11.6852 19.1853 17.7989 -0.152268 3.70106 59.3295
198342 10.7128 11.6393 19.2247 17.906 -0.164817 3.72676 59.4828
198362 10.6865 11.6668 19.2345 17.9742 -0.117488 3.74116 59.562
198372 10.6865 11.6668 19.2345 17.9742 -0.117488 3.74116 59.562
198382 10.6689 11.6852 19.264 17.8768 -0.155874 3.72806 59.4949
198393 10.6865 11.676 19.3231 17.9645 -0.154683 3.75316 59.6501
198403 10.6865 11.676 19.3231 17.9645 -0.154683 3.75316 59.6501
198413 10.6601 11.6577 19.3133 17.9937 -0.135019 3.77087 59.6247
198423 10.6777 11.6485 19.3625 17.984 -0.170816 3.77567 59.6726
198434 10.6777 11.6485 19.3625 17.984 -0.170816 3.77567 59.6726
198444 10.6689 11.621 19.3822 17.9742 -0.191088 3.78897 59.6462
198454 10.704 11.6026 19.3526 17.9937 -0.192942 3.7818 59.653
198464 10.704 11.6026 19.3526 17.9937 -0.192942 3.7818 59.653
198474 10.6162 11.6026 19.3034 18.1106 -0.0865474 3.82219 59.6328
198484 10.6162 11.6026 19.3034 18.1106 -0.0865474 3.82219 59.6328
198494 10.6338 11.5108 19.2148 18.0521 -0.120202 3.81804 59.4116
198504 10.6777 11.5475 19.2247 18.1496 -0.0861019 3.81271 59.5994
198514 10.6777 11.5475 19.2247 18.1496 -0.0861019 3.81271 59.5994
198524 10.6952 11.6118 19.1853 18.0619 -0.0868425 3.763 59.5542
198535 10.6689 11.5751 19.1754 18.0911 -0.0748545 3.78654 59.5105
198554 10.6426 11.5751 19.1262 18.1691 -0.0103697 3.80027 59.5129
198564 10.6426 11.5751 19.1262 18.1691 -0.0103697 3.80027 59.5129
198574 10.6074 11.5567 19.2345 18.247 -0.0160366 3.85209 59.6456
198584 10.625 11.5659 19.2247 18.2372 -0.0195071 3.83998 59.6528
198595 10.625 11.5659 19.2247 18.2372 -0.0195071 3.83998 59.6528
198605 10.6162 11.5567 19.1754 18.2275 -0.00313371 3.83461 59.5759
198615 10.5899 11.5934 19.2247 18.2665 0.018996 3.84784 59.6744
198625 10.5899 11.5934 19.2247 18.2665 0.018996 3.84784 59.6744
198637 10.5548 11.5383 19.2345 18.2762 0.0106096 3.88003 59.6038
198645 10.5548 11.5383 19.2345 18.2762 0.0106096 3.88003 59.6038
198655 10.546 11.5016 19.2345 18.3249 0.0193208 3.90353 59.607
198665 10.5108 11.5383 19.1951 18.3249 0.0660092 3.89569 59.5692
198685 10.546 11.5016 19.2542 18.3834 0.0355333 3.91806 59.6852
198698 10.4582 11.5108 19.2148 18.3444 0.0765294 3.92846 59.5282
198705 10.4582 11.5108 19.2148 18.3444 0.0765294 3.92846 59.5282
198716 10.5284 11.4833 19.2247 18.4223 0.06392 3.9312 59.6587
198737 10.4494 11.4833 19.2444 18.3736 0.0684977 3.95093 59.5506
198746 10.4406 11.4833 19.2247 18.4516 0.113073 3.96452 59.6001
198756 10.4406 11.4833 19.2247 18.4516 0.113073 3.96452 59.6001
198767 10.4582 11.4649 19.2936 18.4223 0.0568092 3.97212 59.639
198777 10.4318 11.4741 19.2542 18.4126 0.0842154 3.96849 59.5727
198796 10.4582 11.4282 19.3133 18.4418 0.0413269 3.99104 59.6414
198807 10.4582 11.4282 19.3133 18.4418 0.0413269 3.99104 59.6414
198817 10.4143 11.4374 19.3133 18.51 0.092116 4.01467 59.6749
198827 10.4055 11.4649 19.3133 18.4905 0.0991672 4.0051 59.6742
198837 10.4055 11.4649 19.3133 18.4905 0.0991672 4.0051 59.6742
198848 10.423 11.5108 19.3034 18.4808 0.110999 3.9813 59.7181
198857 10.423 11.4833 19.1951 18.5003 0.153255 3.97366 59.6017
198868 10.423 11.4833 19.1951 18.5003 0.153255 3.97366 59.6017
198879 10.4582 11.5383 19.264 18.4711 0.120202 3.95233 59.7316
198898 10.4669 11.52 19.2247 18.3736 0.0847548 3.93001 59.5852
198908 10.4933 11.5292 19.1754 18.3931 0.10637 3.91321 59.591
198929 10.5635 11.5751 19.1558 18.4126 0.11237 3.87638 59.707
198939 10.5021 11.6026 19.1262 18.2275 0.0848472 3.847 59.4584
198952 10.5021 11.6026 19.1262 18.2275 0.0848472 3.847 59.4584
198960 10.5635 11.6668 19.0573 18.247 0.123027 3.79794 59.5347
198970 10.5899 11.7127 18.9884 18.2567 0.164229 3.764 59.5478
198980 10.5899 11.7127 18.9884 18.2567 0.164229 3.764 59.5478
198990 10.6513 11.7954 18.949 18.1983 0.164971 3.70019 59.594
199010 10.7216 11.8045 18.9195 18.1983 0.151613 3.66969 59.6439
199020 10.7392 11.8596 18.9392 18.1496 0.138566 3.64147 59.6875
199040 10.8006 11.8413 18.8211 18.0911 0.130415 3.59429 59.5541
199050 10.7918 11.9055 18.7915 18.1009 0.177455 3.5732 59.5898
199062 10.7918 11.9055 18.7915 18.1009 0.177455 3.5732 59.5898
199071 10.8709 11.933 18.762 18.0814 0.159913 3.53062 59.6473
199091 10.827 11.878 18.6144 17.984 0.177309 3.51415 59.3032
199102 10.8533 11.8688 18.6537 18.0716 0.182253 3.53335 59.4475
199122 10.8533 11.9422 18.6242 18.0911 0.233501 3.50855 59.5109
199131 10.8709 11.9514 18.5356 18.0814 0.263423 3.48121 59.4393
199142 10.8709 11.9514 18.5356 18.0814 0.263423 3.48121 59.4393
199152 10.8884 11.933 18.6144 18.0911 0.218964 3.49858 59.527
199163 10.8884 11.933 18.6144 18.0911 0.218964 3.49858 59.527
199171 10.8445 11.9881 18.5651 18.1009 0.285432 3.48748 59.4986
199182 10.8884 11.9881 18.5848 18.1398 0.274613 3.48519 59.6012
199192 10.8884 11.9881 18.5848 18.1398 0.274613 3.48519 59.6012
199202 10.8972 11.9514 18.5258 18.1009 0.264516 3.47489 59.4752
199211 10.906 11.9606 18.5553 18.1496 0.272304 3.48446 59.5714
199222 10.906 11.9606 18.5553 18.1496 0.272304 3.48446 59.5714
199233 10.8884 11.9239 18.5947 18.1398 0.243756 3.50704 59.5468
199243 10.8884 11.9239 18.5947 18.1398 0.243756 3.50704 59.5468
199253 10.8796 11.9698 18.6144 18.0619 0.225803 3.48426 59.5257
199263 10.8357 11.8871 18.575 18.0229 0.210443 3.50847 59.3208
199273 10.8357 11.8871 18.575 18.0229 0.210443 3.50847 59.3208
199283 10.8621 11.9239 18.6439 18.1301 0.230008 3.52284 59.5599
199293 10.8621 11.9239 18.6439 18.1301 0.230008 3.52284 59.5599
199303 10.8621 11.8963 18.6931 18.0716 0.173363 3.52963 59.5232
199313 10.8357 11.9147 18.7128 18.0814 0.187895 3.53779 59.5446
199333 10.8709 11.8963 18.7423 18.0327 0.132594 3.52888 59.5422
199343 10.7743 11.8413 18.8014 18.1106 0.157991 3.60248 59.5275
199353 10.7743 11.8413 18.8014 18.1106 0.157991 3.60248 59.5275
199364 10.8094 11.8963 18.9195 18.0814 0.104171 3.59135 59.7066
199383 10.7831 11.933 18.7915 17.9937 0.147957 3.54676 59.5013
199393 10.8182 11.8963 18.8112 18.0229 0.12168 3.55667 59.5487
199403 10.8182 11.8963 18.8112 18.0229 0.12168 3.55667 59.5487
199414 10.7655 12.0065 18.7719 17.9645 0.182158 3.51993 59.5083
199423 10.8094 11.9881 18.7226 17.9352 0.164545 3.49683 59.4554
199444 10.8621 12.0524 18.8014 17.8573 0.103322 3.46068 59.5732
199454 10.8621 12.0524 18.8014 17.8573 0.103322 3.46068 59.5732
199464 10.8796 11.9973 18.7423 17.8768 0.105938 3.46464 59.4961
199474 10.8884 12.0157 18.7915 17.8183 0.0647008 3.45443 59.514
199484 10.8884 12.0157 18.7915 17.8183 0.0647008 3.45443 59.514
199494 10.8972 12.0707 18.7128 17.7307 0.0805348 3.40226 59.4114
199504 10.8796 12.0616 18.7817 17.7307 0.055027 3.42397 59.4536
199524 10.9762 12.1258 18.7423 17.6722 0.0333726 3.35515 59.5166
199535 10.9762 12.1258 18.7423 17.6722 0.0333726 3.35515 59.5166
199544 10.9499 12.0891 18.7226 17.6917 0.0455171 3.37458 59.4533
199554 11.0465 12.0983 18.7423 17.7307 0.0168204 3.35342 59.6177
199564 11.0465 12.0983 18.7423 17.7307 0.0168204 3.35342 59.6177
199574 11.0114 12.0983 18.634 17.6625 0.0485331 3.32967 59.4061
199584 11.0553 12.1166 18.5651 17.5943 0.0381291 3.28347 59.3313
199594 11.0553 12.1166 18.5651 17.5943 0.0381291 3.28347 59.3313
199604 11.0816 12.135 18.634 17.5358 -0.0188813 3.27177 59.3865
199614 11.0816 12.135 18.634 17.5358 -0.0188813 3.27177 59.3865
199624 11.108 12.1809 18.5947 17.5456 0.0100195 3.24371 59.4291
199634 11.1606 12.2084 18.5947 17.5553 0.00353456 3.22105 59.519
199644 11.1606 12.2084 18.5947 17.5553 0.00353456 3.22105 59.519
199654 11.2045 12.236 18.4864 17.5261 0.0298977 3.17191 59.453
199664 11.2221 12.236 18.5061 17.4774 -0.00625104 3.16077 59.4415
199684 11.2221 12.2543 18.5159 17.5261 0.017795 3.16681 59.5184
199695 11.2221 12.2543 18.5159 17.5261 0.017795 3.16681 59.5184
199705 11.2221 12.3461 18.4667 17.4287 0.0361353 3.10959 59.4636
199715 11.2924 12.3094 18.388 17.4189 0.020197 3.08165 59.4086
199735 11.345 12.3461 18.3289 17.3897 0.0260293 3.03673 59.4097
199745 11.3011 12.3737 18.3683 17.3994 0.0436038 3.05158 59.4425
199755 11.3011 12.3737 18.3683 17.3994 0.0436038 3.05158 59.4425
199765 11.3977 12.392 18.388 17.4481 0.0228345 3.03049 59.6258
199787 11.3802 12.3828 18.3387 17.4287 0.0388801 3.02477 59.5304
199795 11.3802 12.4012 18.2895 17.3507 0.0345916 2.99358 59.4216
199816 11.3187 12.4654 18.2698 17.2143 0.0384837 2.96112 59.2683
199826 11.3626 12.4838 18.2009 17.2241 0.0608802 2.93023 59.2714
199836 11.3626 12.4838 18.2009 17.2241 0.0608802 2.93023 59.2714
199846 11.4504 12.4654 18.2009 17.2143 0.0119805 2.90726 59.3311
199857 11.4504 12.4654 18.2009 17.2143 0.0119805 2.90726 59.3311
199867 11.3977 12.4654 18.1517 17.2046 0.0509083 2.91115 59.2195
199877 11.4592 12.4838 18.1911 17.2143 0.0201583 2.89707 59.3484
199896 11.4416 12.5848 18.1616 17.1754 0.0660956 2.85795 59.3633
199908 11.5031 12.5848 18.132 17.1754 0.052619 2.83344 59.3953
199918 11.5031 12.5756 18.132 17.1266 0.0282794 2.8262 59.3374
199926 11.5558 12.6215 18.1911 17.1072 -0.00765622 2.80476 59.4755
199938 11.5558 12.6215 18.1911 17.1072 -0.00765622 2.80476 59.4755
199948 11.6173 12.6123 18.073 17.0974 0.00821352 2.76283 59.3999
199958 11.6085 12.6582 17.9942 17.1266 0.0766903 2.74153 59.3875
199968 11.6085 12.6582 17.9942 17.1266 0.0766903 2.74153 59.3875
199978 11.6963 12.75 17.945 16.9905 0.0417858 2.64961 59.3818
199988 11.6875 12.7408 17.8859 16.8863 0.0226676 2.6209 59.2005
199998 11.6875 12.7408 17.8859 16.8863 0.0226676 2.6209 59.2005
200008 11.7665 12.8326 17.8958 16.8673 0.0158548 2.56829 59.3623
200018 11.7665 12.8326 17.8958 16.8673 0.0158548 2.56829 59.3623
200029 11.7753 12.8418 17.8466 16.9052 0.0527084 2.56061 59.3689
200038 11.7929 12.8877 17.8367 16.801 0.0249088 2.5179 59.3183
200048 11.7929 12.8877 17.8367 16.801 0.0249088 2.5179 59.3183
200058 11.7929 12.8693 17.8367 16.801 0.017181 2.52332 59.2999
200078 11.7753 12.9152 17.8367 16.7821 0.0359356 2.51096 59.3093
200088 11.8631 12.8969 17.7973 16.801 0.0157565 2.48618 59.3583
200099 11.8631 12.8969 17.7973 16.801 0.0157565 2.48618 59.3583
200112 11.8456 12.8785 17.8269 16.7441 -0.0209838 2.491 59.2951
200119 11.8543 12.8785 17.8564 16.7536 -0.0331149 2.49664 59.3429
200139 11.828 12.9428 17.7875 16.7631 0.0380874 2.47293 59.3214
200149 11.7841 12.8326 17.817 16.7726 0.00171959 2.52665 59.2063
200159 11.7841 12.8326 17.817 16.7726 0.00171959 2.52665 59.2063
200174 11.8631 12.9244 17.8564 16.7915 -0.00150651 2.48852 59.4354
200179 11.8631 12.9244 17.8564 16.7915 -0.00150651 2.48852 59.4354
200190 11.7753 12.8602 17.8564 16.801 0.0124156 2.53537 59.2929
200200 11.8543 12.8602 17.9253 16.7915 -0.053829 2.52451 59.4313
200226 11.8017 12.851 17.8859 16.7915 -0.0189975 2.53451 59.3301
200230 11.828 12.8418 17.9253 16.8389 -0.0305369 2.54764 59.434
200243 11.828 12.8418 17.9253 16.8389 -0.0305369 2.54764 59.434
200260 11.7314 12.7684 17.9647 16.801 -0.0534549 2.59829 59.2654
200270 11.7841 12.7959 17.9351 16.8673 -0.0235796 2.5822 59.3825
200280 11.7314 12.7959 17.9844 16.8484 -0.0301078 2.60414 59.36
200290 11.7314 12.7959 17.9844 16.8484 -0.0301078 2.60414 59.36
200301 11.8104 12.7592 17.9745 16.8768 -0.0626743 2.59548 59.4209
200311 11.7314 12.7133 17.9647 16.9337 -0.0206992 2.64235 59.343
200324 11.7314 12.7133 17.9647 16.9337 -0.0206992 2.64235 59.343
200334 11.7314 12.7408 17.9844 16.9052 -0.0293568 2.63234 59.3618
200349 11.7314 12.7408 17.9844 16.9052 -0.0293568 2.63234 59.3618
200351 11.6436 12.7133 18.0041 16.9526 0.00769198 2.68062 59.3136
200361 11.7314 12.649 18.0434 16.9905 -0.0569209 2.68963 59.4144
200371 11.7314 12.649 18.0434 16.9905 -0.0569209 2.68963 59.4144
200382 11.7051 12.6398 18.0434 16.9431 -0.0697345 2.69039 59.3315
200392 11.6436 12.6123 18.1123 16.9337 -0.0885099 2.72928 59.3019
200401 11.6436 12.6123 18.1123 16.9337 -0.0885099 2.72928 59.3019
200413 11.6699 12.6215 18.1419 16.981 -0.0880525 2.73456 59.4143
200422 11.6699 12.6215 18.1419 16.981 -0.0880525 2.73456 59.4143
200433 11.6612 12.594 18.1222 16.9716 -0.0917494 2.73939 59.3489
200443 11.6173 12.6031 18.1911 16.9716 -0.0983566 2.76399 59.383
200453 11.6173 12.6031 18.1911 16.9716 -0.0983566 2.76399 59.383
200463 11.6875 12.6582 18.0631 16.8768 -0.0909135 2.68047 59.2856
200473 11.6436 12.5664 18.1025 17.0195 -0.0674963 2.7587 59.332
200483 11.6436 12.5664 18.1025 17.0195 -0.0674963 2.7587 59.332
200494 11.6963 12.6582 18.1025 17.0487 -0.038591 2.7216 59.5057
200504 11.6963 12.6582 18.1025 17.0487 -0.038591 2.7216 59.5057
200514 11.5997 12.5572 18.1025 16.981 -0.0691652 2.76668 59.2405
200524 11.6436 12.5664 18.1123 16.981 -0.0878811 2.7528 59.3034
200538 11.6436 12.5664 18.1123 16.981 -0.0878811 2.7528 59.3034
200544 11.7051 12.6398 18.0828 16.9716 -0.0742629 2.70444 59.3993
200554 11.6348 12.6674 18.1222 17.039 -0.0212893 2.73924 59.4633
200574 11.6787 12.6674 18.1419 17.0682 -0.0356808 2.73623 59.5562
200584 11.6787 12.6674 18.1419 17.0682 -0.0356808 2.73623 59.5562
200596 11.6612 12.594 18.1419 17.0682 -0.0592247 2.76337 59.4652
200606 11.6436 12.6123 18.1812 17.0195 -0.0811681 2.76121 59.4566
200615 11.6436 12.6123 18.1812 17.0195 -0.0811681 2.76121 59.4566
200625 11.6612 12.6031 18.073 16.9526 -0.0752106 2.72255 59.2899
200635 11.6699 12.5572 18.0631 16.9431 -0.0982031 2.72964 59.2334
200646 11.6699 12.5572 18.0631 16.9431 -0.0982031 2.72964 59.2334
200655 11.6875 12.5848 17.9745 17 -0.0325963 2.70958 59.2468
200665 11.6875 12.5848 17.9745 17 -0.0325963 2.70958 59.2468
200675 11.6875 12.5664 18.0041 16.981 -0.0608087 2.71726 59.239
200685 11.7314 12.5756 17.9155 17.0487 -0.00951588 2.69706 59.2712
200695 11.7314 12.5756 17.9155 17.0487 -0.00951588 2.69706 59.2712
200705 11.7841 12.6031 17.9548 17.0195 -0.0489831 2.67524 59.3615
200715 11.8017 12.5848 17.9056 17.0974 -0.010556 2.68144 59.3895
200725 11.8017 12.5848 17.9056 17.0974 -0.010556 2.68144 59.3895
200735 11.8192 12.5664 17.9351 17.0877 -0.0421926 2.68578 59.4085
200747 11.8192 12.5664 17.9351 17.0877 -0.0421926 2.68578 59.4085
200759 11.7665 12.5664 17.8761 17.1072 0.0130475 2.69327 59.3162
200765 11.8543 12.594 17.8072 17.0779 0.00436902 2.63852 59.3334
200776 11.8543 12.594 17.8072 17.0779 0.00436902 2.63852 59.3334
200794 11.8368 12.6857 17.7973 17.1364 0.0790596 2.62661 59.4562
200803 11.8456 12.594 17.7875 17.1461 0.0450671 2.65123 59.3731
200812 11.8456 12.594 17.7875 17.1461 0.0450671 2.65123 59.3731
200816 11.8807 12.5848 17.7186 17.1461 0.0554651 2.62917 59.3302
200838 11.907 12.6398 17.6595 17.1364 0.0883371 2.59064 59.3428
200848 11.8982 12.6307 17.6891 17.2046 0.10432 2.61636 59.4226
200857 11.8982 12.6307 17.6891 17.2046 0.10432 2.61636 59.4226
200868 11.9246 12.6307 17.6398 17.1851 0.105822 2.59422 59.3802
200878 11.8631 12.594 17.6398 17.2143 0.128695 2.62946 59.3112
200887 11.8631 12.594 17.6398 17.2143 0.128695 2.62946 59.3112
200897 11.907 12.6949 17.5611 17.1559 0.161284 2.55779 59.3189
200907 11.907 12.6949 17.5611 17.1559 0.161284 2.55779 59.3189
200917 11.9158 12.5756 17.5808 17.1656 0.103241 2.59673 59.2378
200927 11.9246 12.6398 17.5906 17.2143 0.142735 2.58732 59.3694
200948 11.9597 12.6123 17.5611 17.2143 0.128835 2.5789 59.3474
200959 11.8982 12.5481 17.5709 17.2143 0.123754 2.61827 59.2316
200968 11.8982 12.5481 17.5709 17.2143 0.123754 2.61827 59.2316
200978 11.9685 12.6123 17.6202 17.2436 0.112385 2.59475 59.4445
200988 11.9685 12.6123 17.6202 17.2436 0.112385 2.59475 59.4445
200998 11.8631 12.5389 17.6103 17.263 0.138542 2.64984 59.2753
201008 11.9334 12.5664 17.6595 17.3117 0.119919 2.64116 59.4711
201028 11.907 12.5756 17.6792 17.2533 0.1021 2.63819 59.4151
201038 11.8719 12.4471 17.63 17.3312 0.116575 2.69287 59.2802
201051 11.8719 12.4471 17.63 17.3312 0.116575 2.69287 59.2802
201058 11.7665 12.5389 17.7284 17.4579 0.210869 2.74347 59.4917
201068 11.7665 12.5389 17.7284 17.4579 0.210869 2.74347 59.4917
201078 11.7577 12.4654 17.6989 17.4579 0.196481 2.76194 59.38
201089 11.7577 12.4379 17.7678 17.4871 0.167981 2.79037 59.4506
201099 11.7577 12.4379 17.7678 17.4871 0.167981 2.79037 59.4506
201109 11.6612 12.3737 17.8072 17.4968 0.169435 2.8487 59.3388
201119 11.6436 12.3828 17.817 17.5845 0.213173 2.87115 59.428
201139 11.6348 12.3461 17.8859 17.6917 0.217038 2.92066 59.5585
201149 11.6348 12.3461 17.8859 17.6917 0.217038 2.92066 59.5585
201162 11.5382 12.3002 17.8859 17.6917 0.238886 2.96364 59.4161
201171 11.5031 12.2819 17.9351 17.7307 0.241488 2.99765 59.4508
201180 11.5031 12.2819 17.9351 17.7307 0.241488 2.99765 59.4508
201190 11.5207 12.2543 18.0041 17.6625 0.164896 3.00082 59.4415
201202 11.4329 12.2084 18.132 17.7696 0.173479 3.08862 59.5429
201221 11.3626 12.1809 18.1714 17.8183 0.195366 3.13596 59.5332
201242 11.3538 12.0891 18.2305 17.867 0.15614 3.18807 59.5404
201251 11.3011 12.0524 18.26 17.8573 0.146523 3.21934 59.4708
201272 11.2924 12.034 18.2501 17.906 0.167081 3.23535 59.4825
201282 11.2572 11.9973 18.2994 17.906 0.145781 3.26712 59.4599
201293 11.2572 11.9973 18.2994 17.906 0.145781 3.26712 59.4599
201303 11.2221 12.0248 18.3584 17.9937 0.183728 3.29833 59.5991
201313 11.1958 11.9698 18.4076 17.8865 0.106329 3.31199 59.4597
201323 11.1958 11.9698 18.4076 17.8865 0.106329 3.31199 59.4597
201333 11.1782 11.9606 18.5061 18.0034 0.117242 3.36239 59.6483
201353 11.1431 11.9606 18.5061 17.9645 0.115776 3.36561 59.5742
201363 11.1958 11.9881 18.5651 18.0034 0.0965059 3.36004 59.7525
201374 11.1958 11.9881 18.5651 18.0034 0.0965059 3.36004 59.7525
201384 11.1606 11.878 18.5553 17.9255 0.0367671 3.38768 59.5194
201394 11.1519 11.8321 18.5947 17.9255 0.00464022 3.41226 59.5041
201404 11.1519 11.8321 18.5947 17.9255 0.00464022 3.41226 59.5041
201414 11.1431 11.8045 18.4864 17.945 0.0505477 3.4062 59.379
201424 11.1431 11.8045 18.4864 17.945 0.0505477 3.4062 59.379
201434 11.0728 11.7678 18.5848 17.945 0.023222 3.45858 59.3705
201450 11.0377 11.8045 18.6144 17.9645 0.0491977 3.4676 59.4211
201455 11.0377 11.8045 18.6144 17.9645 0.0491977 3.4676 59.4211
201465 11.0465 11.7586 18.6537 18.0034 0.0260055 3.49433 59.4623
201475 11.0289 11.7403 18.6636 18.0716 0.0501662 3.52058 59.5044
201485 11.0289 11.7403 18.6636 18.0716 0.0501662 3.52058 59.5044
201497 11.0289 11.7862 18.762 18.1009 0.040257 3.53089 59.678
201507 11.0114 11.7862 18.7719 18.0814 0.0353426 3.5345 59.6508
201517 11.0114 11.7495 18.7719 18.0814 0.0199676 3.54591 59.6141
201527 11.1255 11.777 18.7522 18.0521 -0.0203237 3.49252 59.7068
201537 11.1255 11.777 18.7522 18.0521 -0.0203237 3.49252 59.7068
201547 10.9938 11.7586 18.7423 18.0034 0.0109017 3.52783 59.4982
201557 11.0289 11.7495 18.703 17.9742 -0.00344962 3.50651 59.4556
201578 11.0289 11.7495 18.703 17.9742 -0.00344962 3.50651 59.4556
201579 11.0465 11.7311 18.8014 18.0327 -0.035274 3.53701 59.6116
201597 11.0377 11.7495 18.7226 17.984 -0.0113174 3.50947 59.4938
201607 11.0465 11.6852 18.7325 17.9937 -0.0420779 3.53052 59.4579
201617 11.0465 11.6852 18.7325 17.9937 -0.0420779 3.53052 59.4579
201627 11.064 11.7311 18.7226 17.9645 -0.038296 3.50322 59.4823
201637 11.0289 11.6668 18.8014 17.9742 -0.0795573 3.55125 59.4714
201657 11.064 11.7219 18.7719 18.0424 -0.0300243 3.5306 59.6002
201668 11.064 11.7219 18.7719 18.0424 -0.0300243 3.5306 59.6002
201678 10.9236 11.676 18.8211 18.0521 -0.00691414 3.60004 59.4728
201689 10.9762 11.621 18.9195 18.0424 -0.0975505 3.61777 59.5591
201698 10.9762 11.621 18.9195 18.0424 -0.0975505 3.61777 59.5591
201708 10.9499 11.6577 18.8605 18.1106 -0.0176564 3.61627 59.5786
201718 10.8533 11.6301 18.9294 18.0911 -0.0258043 3.66456 59.5039
201728 10.8533 11.6301 18.9294 18.0911 -0.0258043 3.66456 59.5039
201738 10.8445 11.6118 18.9589 18.2275 0.0150323 3.70458 59.6427
201748 10.8445 11.6118 18.9589 18.2275 0.0150323 3.70458 59.6427
201764 10.7831 11.6301 18.949 18.1788 0.0322551 3.70702 59.541
201770 10.7743 11.6944 19.0081 18.1496 0.0258148 3.69527 59.6263
201779 10.7743 11.6944 19.0081 18.1496 0.0258148 3.69527 59.6263
201790 10.8094 11.6485 18.9589 18.1496 0.0124931 3.68931 59.5663
201799 10.8094 11.6393 18.9195 18.1691 0.0333607 3.68841 59.5373
201813 10.8094 11.6393 18.9195 18.1691 0.0333607 3.68841 59.5373
201820 10.8445 11.676 18.9589 18.1788 0.0215441 3.67522 59.6582
201830 10.7831 11.6944 18.89 18.1496 0.0717938 3.67007 59.517
201840 10.7831 11.6944 18.89 18.1496 0.0717938 3.67007 59.517
201850 10.8006 11.676 18.8703 18.1496 0.0649959 3.66657 59.4965
201870 10.8006 11.6577 18.8703 18.0814 0.0286669 3.65933 59.41
201880 10.8182 11.6852 18.8801 18.1106 0.0409663 3.65263 59.4941
201900 10.8621 11.7311 18.8506 18.0716 0.0378221 3.61143 59.5154
201910 10.8621 11.7311 18.8506 18.0716 0.0378221 3.61143 59.5154
201920 10.8972 11.7127 18.8801 18.0619 -0.00113994 3.60997 59.552
201930 10.8884 11.7219 18.8998 18.0814 0.00630915 3.61734 59.5916
201941 10.8884 11.7219 18.8998 18.0814 0.00630915 3.61734 59.5916
201950 10.7918 11.7219 18.8605 18.0619 0.0553221 3.63632 59.4361
201960 10.8094 11.6944 18.89 18.1593 0.0647813 3.66367 59.5531
201970 10.8094 11.6944 18.89 18.1593 0.0647813 3.66367 59.5531
201980 10.8094 11.7954 18.9097 18.1009 0.0742882 3.62468 59.6153
202000 10.7918 11.7678 18.8408 18.0911 0.0951111 3.62377 59.4915
202012 10.7743 11.676 18.8506 18.1398 0.0803173 3.66924 59.4407
202020 10.7743 11.676 18.8506 18.1398 0.0803173 3.66924 59.4407
202032 10.7918 11.7495 18.8211 18.1301 0.112045 3.6332 59.4925
202042 10.7743 11.7127 18.89 18.1301 0.0750214 3.66336 59.5071
202068 10.8182 11.7586 18.8703 18.1009 0.0718027 3.6259 59.548
202079 10.7655 11.7586 18.8506 18.0716 0.0900686 3.63305 59.4464
202088 10.7655 11.7127 18.8506 18.0716 0.0708193 3.64744 59.4005
202097 10.8006 11.7862 18.9195 18.1885 0.106621 3.64887 59.6948
202105 10.8006 11.7862 18.9195 18.1885 0.106621 3.64887 59.6948
202113 10.8182 11.7495 18.8605 18.1691 0.100628 3.6399 59.5971
202123 10.7918 11.7495 18.8801 18.1203 0.083065 3.64262 59.5418
202143 10.7216 11.7586 18.8014 18.1009 0.141674 3.643 59.3825
202163 10.7304 11.7862 18.7817 18.208 0.202554 3.64832 59.5063
202173 10.7216 11.7127 18.89 18.1983 0.125769 3.69287 59.5226
202184 10.7216 11.7127 18.89 18.1983 0.125769 3.69287 59.5226
202195 10.6426 11.676 18.8605 18.1788 0.148174 3.71998 59.3578
202204 10.704 11.7036 18.8506 18.1691 0.133771 3.68822 59.4273
202216 10.704 11.7036 18.8506 18.1691 0.133771 3.68822 59.4273
202224 10.7216 11.7036 18.9294 18.247 0.12567 3.71245 59.6015
202234 10.7128 11.6668 18.8801 18.1885 0.110364 3.70633 59.4483
202244 10.7128 11.6668 18.8801 18.1885 0.110364 3.70633 59.4483
202255 10.6865 11.6944 18.9294 18.2567 0.140721 3.72822 59.5669
202265 10.6865 11.6944 18.9294 18.2567 0.140721 3.72822 59.5669
202276 10.704 11.6301 19.0081 18.2665 0.0773668 3.75962 59.6087
202285 10.6865 11.6668 19.018 18.247 0.0878155 3.75178 59.6183
202305 10.6952 11.676 19.0278 18.2275 0.075677 3.74431 59.6266
202315 10.6689 11.6668 18.949 18.247 0.124255 3.74429 59.5318
202325 10.6689 11.6668 18.949 18.247 0.124255 3.74429 59.5318
202335 10.704 11.676 19.018 18.2275 0.0761241 3.73969 59.6255
202345 10.704 11.676 19.018 18.2275 0.0761241 3.73969 59.6255
202355 10.625 11.6668 19.0672 18.286 0.109243 3.78773 59.645
202365 10.7216 11.7127 19.0475 18.2567 0.0838667 3.73374 59.7385
202375 10.7216 11.7127 19.0475 18.2567 0.0838667 3.73374 59.7385
202385 10.7479 11.7036 19.0081 18.2275 0.0733107 3.7154 59.6871
202395 10.6952 11.7219 18.9786 18.2567 0.127754 3.72612 59.6525
202405 10.6952 11.7219 18.9786 18.2567 0.127754 3.72612 59.6525
202418 10.7479 11.676 19.0278 18.2567 0.0657469 3.73328 59.7085
202426 10.7479 11.676 19.0278 18.2567 0.0657469 3.73328 59.7085
202437 10.6865 11.6668 18.9687 18.208 0.0922531 3.73511 59.5301
202447 10.6689 11.7311 18.9589 18.2372 0.142857 3.7241 59.5961
202457 10.6689 11.7311 18.9589 18.2372 0.142857 3.7241 59.5961
202467 10.6952 11.676 18.9392 18.1885 0.0966907 3.72018 59.499
202477 10.6777 11.5934 18.9687 18.2372 0.0774413 3.76655 59.4771
202497 10.7304 11.6668 18.9294 18.208 0.0903428 3.71385 59.5346
202518 10.6777 11.621 18.9687 18.1885 0.0685692 3.74865 59.4559
202527 10.6426 11.5842 18.9983 18.2665 0.088197 3.79162 59.4915
202538 10.6426 11.5842 18.9983 18.2665 0.088197 3.79162 59.4915
202548 10.6689 11.621 18.9983 18.2567 0.0883877 3.76988 59.5448
202558 10.625 11.676 18.9884 18.3444 0.170633 3.78102 59.6339
202568 10.625 11.676 18.9884 18.3444 0.170633 3.78102 59.6339
202578 10.6513 11.6944 19.0081 18.3542 0.162911 3.77249 59.708
202588 10.6513 11.6944 19.0081 18.3542 0.162911 3.77249 59.708
202598 10.6601 11.6485 18.9097 18.3054 0.161338 3.75644 59.5237
202608 10.6426 11.621 18.9687 18.286 0.124171 3.77813 59.5182
202618 10.6426 11.621 18.9687 18.286 0.124171 3.77813 59.5182
202628 10.6601 11.7127 18.89 18.2762 0.184271 3.72696 59.5391
202639 10.6513 11.6852 18.9392 18.2762 0.155696 3.7477 59.552
202648 10.6513 11.6852 18.9392 18.2762 0.155696 3.7477 59.552
202658 10.6601 11.676 18.9294 18.3444 0.180739 3.75884 59.6099
202679 10.6513 11.6485 18.9884 18.3347 0.143987 3.77957 59.6229
202690 10.6426 11.6393 18.9884 18.3249 0.1398 3.78339 59.5952
202709 10.6074 11.6026 18.9294 18.3444 0.1724 3.79861 59.4838
202729 10.6162 11.6301 18.949 18.4418 0.21241 3.80916 59.6372
202740 10.5723 11.5475 19.0081 18.4126 0.159431 3.85474 59.5405
202750 10.5723 11.5475 19.0081 18.4126 0.159431 3.85474 59.5405
202760 10.546 11.5475 19.0081 18.4418 0.182754 3.86855 59.5434
202770 10.5723 11.5475 19.0869 18.4418 0.138384 3.87491 59.6485
202780 10.5723 11.5475 19.0869 18.4418 0.138384 3.87491 59.6485
202790 10.5284 11.6301 19.077 18.4808 0.211629 3.8681 59.7164
202801 10.4757 11.6026 19.0967 18.5198 0.230315 3.9044 59.6948
202810 10.4757 11.6026 19.0967 18.5198 0.230315 3.9044 59.6948
202820 10.5021 11.5659 19.077 18.5587 0.228438 3.91127 59.7037
202830 10.5021 11.5659 19.077 18.5587 0.228438 3.91127 59.7037
202843 10.4318 11.4924 19.077 18.51 0.207371 3.94785 59.5113
202850 10.5021 11.5292 19.1065 18.549 0.196674 3.92658 59.6868
202861 10.5021 11.5292 19.1065 18.549 0.196674 3.92658 59.6868
202872 10.4582 11.4833 19.1656 18.6075 0.195491 3.97683 59.7145
202882 10.4845 11.4649 19.1951 18.6854 0.196663 3.9941 59.8299
202892 10.4845 11.4649 19.1951 18.6854 0.196663 3.9941 59.8299
202902 10.4143 11.4465 19.1361 18.6854 0.243622 4.01141 59.6823
202912 10.3616 11.4465 19.1459 18.6854 0.261757 4.03002 59.6394
202922 10.3616 11.3915 19.1459 18.6659 0.230795 4.04403 59.5649
202933 10.3967 11.3639 19.0967 18.6951 0.237465 4.03792 59.5525
202945 10.3967 11.3639 19.0967 18.6951 0.237465 4.03792 59.5525
202953 10.3528 11.4006 19.1262 18.6659 0.246674 4.04027 59.5456
202963 10.3528 11.3639 19.1754 18.6172 0.190255 4.05211 59.5094
202973 10.3528 11.3639 19.1754 18.6172 0.190255 4.05211 59.5094
202983 10.344 11.3548 19.2148 18.6562 0.189728 4.07226 59.5697
202993 10.3089 11.3639 19.2247 18.7244 0.232604 4.09486 59.6218
203004 10.3089 11.3639 19.2247 18.7244 0.232604 4.09486 59.6218
203013 10.3177 11.3364 19.2936 18.7244 0.188324 4.11346 59.672
203024 10.3177 11.3364 19.2936 18.7244 0.188324 4.11346 59.672
203034 10.3264 11.263 19.2837 18.7536 0.17038 4.13772 59.6267
203044 10.3001 11.2905 19.392 18.7633 0.151354 4.15879 59.7459
203053 10.3001 11.2905 19.392 18.7633 0.151354 4.15879 59.7459
203063 10.2738 11.2538 19.3526 18.7244 0.14753 4.16481 59.6045
203084 10.2738 11.2905 19.3428 18.7049 0.158864 4.14768 59.6119
203094 10.3001 11.263 19.4511 18.6464 0.0662953 4.15713 59.6605
203103 10.3001 11.263 19.4511 18.6464 0.0662953 4.15713 59.6605
203114 10.2738 11.3456 19.3526 18.6756 0.16548 4.12647 59.6476
203124 10.2386 11.2538 19.4511 18.6854 0.104588 4.18691 59.6289
203144 10.2738 11.2997 19.4019 18.7146 0.141847 4.15724 59.6899
203155 10.2738 11.2997 19.4019 18.7146 0.141847 4.15724 59.6899
203164 10.2738 11.2079 19.392 18.7146 0.107709 4.18496 59.5883
203174 10.3177 11.263 19.5101 18.7049 0.0585437 4.17281 59.7956
203184 10.3177 11.263 19.5101 18.7049 0.0585437 4.17281 59.7956
203194 10.2738 11.2079 19.4609 18.7244 0.0827789 4.19922 59.6669
203204 10.2123 11.162 19.4511 18.7341 0.0976831 4.23381 59.5594
203214 10.2123 11.162 19.4511 18.7341 0.0976831 4.23381 59.5594
203224 10.2211 11.2262 19.4412 18.7341 0.12497 4.20847 59.6226
203234 10.2211 11.2262 19.4412 18.7341 0.12497 4.20847 59.6226
203244 10.2386 11.1803 19.5003 18.812 0.106081 4.24233 59.7313
203256 10.1772 11.1895 19.5495 18.7049 0.0703275 4.24875 59.6211
203265 10.1772 11.1895 19.5495 18.7049 0.0703275 4.24875 59.6211
203275 10.2299 11.1253 19.5003 18.8218 0.0908643 4.26468 59.6772
203285 10.1508 11.162 19.579 18.7828 0.0900418 4.2855 59.6747
203295 10.1508 11.162 19.579 18.7828 0.0900418 4.2855 59.6747
203305 10.2123 11.1712 19.6184 18.8218 0.0677943 4.27675 59.8237
203315 10.2123 11.1712 19.6184 18.8218 0.0677943 4.27675 59.8237
203325 10.1508 11.0794 19.5495 18.8218 0.0842303 4.31392 59.6015
203335 10.142 11.1069 19.6381 18.8413 0.0703305 4.3272 59.7283
203349 10.142 11.1069 19.6381 18.8413 0.0703305 4.3272 59.7283
203359 10.1333 11.0794 19.6479 18.7146 0.00536144 4.31805 59.5752
203370 10.1508 11.061 19.7365 18.8607 0.0143766 4.36023 59.8091
203382 10.1508 11.061 19.7365 18.8607 0.0143766 4.36023 59.8091
203386 10.0718 11.061 19.6775 18.8413 0.0641227 4.37187 59.6516
203397 10.0718 11.061 19.6775 18.8413 0.0641227 4.37187 59.6516
203408 10.0806 11.0335 19.707 18.8705 0.0487447 4.38842 59.6915
203417 10.1069 11.0243 19.6775 18.9484 0.0787884 4.39145 59.7571
203438 10.0542 10.9692 19.7267 18.8997 0.0368834 4.42657 59.6499
203447 10.0279 11.0059 19.7858 18.9582 0.0629216 4.44398 59.7778
203457 10.0279 11.0059 19.7858 18.9582 0.0629216 4.44398 59.7778
203468 10.0542 11.0427 19.7365 18.9289 0.0756413 4.40961 59.7624
203478 10.0542 11.0427 19.7365 18.9289 0.0756413 4.40961 59.7624
203488 10.0015 10.9417 19.7759 18.9192 0.03497 4.46488 59.6383
203498 10.0279 10.9876 19.7956 19.0069 0.071454 4.46028 59.8179
203508 10.0279 10.9876 19.7956 19.0069 0.071454 4.46028 59.8179
203517 9.97521 10.9784 19.8251 18.89 0.0285059 4.46503 59.6687
203528 9.97521 10.9325 19.8153 18.9874 0.0541806 4.49544 59.7104
203538 9.97521 10.9325 19.8153 18.9874 0.0541806 4.49544 59.7104
203548 9.99277 10.8958 19.8153 19.0361 0.0518233 4.51026 59.7399
203558 9.99277 10.8958 19.8153 19.0361 0.0518233 4.51026 59.7399
203571 9.98399 10.8866 19.9334 19.0946 0.0266135 4.54703 59.8986
203578 10.0015 10.8866 19.9826 19.0166 -0.0337914 4.53628 59.8874
203598 9.97521 10.905 19.9629 19.0069 -0.0109881 4.53375 59.85
203608 9.95764 10.9141 19.8743 18.9874 0.0291079 4.51755 59.7335
203619 9.95764 10.9141 19.8743 18.9874 0.0291079 4.51755 59.7335
203628 9.94008 10.8591 19.8448 18.9776 0.0217289 4.53442 59.6216
203638 9.94008 10.8591 19.8448 18.9776 0.0217289 4.53442 59.6216
203648 9.87862 10.8499 19.7759 18.9582 0.0645489 4.54208 59.4626
203658 9.95764 10.9233 19.8842 18.9679 0.0206769 4.51286 59.7331
203668 9.95764 10.9233 19.8842 18.9679 0.0206769 4.51286 59.7331
203679 9.98399 10.9509 19.8547 18.9776 0.0375897 4.4918 59.7672
203689 9.94886 10.8591 19.7759 18.9874 0.0510693 4.52115 59.5712
203699 9.94886 10.8591 19.7759 18.9874 0.0510693 4.52115 59.5712
203709 9.91374 10.9417 19.8251 18.9582 0.0674844 4.50912 59.6387
