12813061 10.2264 12.5612 17.8761 16.6954 0.503018 3.0816 57.3591
12813069 10.2352 12.5244 17.8761 16.6954 0.483361 3.09044 57.3311
12813081 10.2352 12.5244 17.8761 16.6954 0.483361 3.09044 57.3311
12813090 10.2 12.5244 17.9155 16.724 0.493726 3.11565 57.3638
12813099 10.2705 12.5612 17.9548 16.6478 0.428197 3.0742 57.4343
12813109 10.2705 12.5612 17.9548 16.6478 0.428197 3.0742 57.4343
12813119 10.2705 12.5704 17.8958 16.5622 0.421619 3.04117 57.2988
12813129 10.2705 12.5152 18.0041 16.5622 0.349948 3.08113 57.3518
12813139 10.2705 12.5152 18.0041 16.5622 0.349948 3.08113 57.3518
12813149 10.2793 12.6257 17.9844 16.5907 0.414377 3.04544 57.48
12813162 10.2793 12.6257 17.9844 16.5907 0.414377 3.04544 57.48
12813171 10.2264 12.5428 17.9647 16.486 0.365996 3.06225 57.2199
12813183 10.3585 12.6165 18.0041 16.5622 0.354537 3.02162 57.5412
12813192 10.3585 12.6165 18.0041 16.5622 0.354537 3.02162 57.5412
12813204 10.3321 12.6349 18.0041 16.4574 0.329173 3.0023 57.4285
12813212 10.3409 12.6257 17.9155 16.3337 0.307167 2.9579 57.2158
12813222 10.3409 12.6257 17.9155 16.3337 0.307167 2.9579 57.2158
12813232 10.4026 12.6809 17.8859 16.3527 0.324985 2.91906 57.3222
12813252 10.4114 12.6717 17.9745 16.2956 0.253442 2.92582 57.3533
12813262 10.4378 12.6533 17.9745 16.3337 0.250292 2.93133 57.3994
12813272 10.4378 12.6533 17.9745 16.3337 0.250292 2.93133 57.3994
12813282 10.4642 12.6901 17.9745 16.3147 0.246346 2.90758 57.4436
12813293 10.4642 12.6533 18.0336 16.2766 0.188091 2.92349 57.4277
12813303 10.4642 12.6533 18.0336 16.2766 0.188091 2.92349 57.4277
12813313 10.4731 12.6809 18.0631 16.2195 0.158545 2.90632 57.4366
12813325 10.4731 12.6533 18.073 16.1814 0.125784 2.90899 57.3807
12813345 10.4819 12.6901 18.0631 16.229 0.16278 2.90271 57.4641
12813353 10.4819 12.6901 18.0631 16.229 0.16278 2.90271 57.4641
12813365 10.4819 12.6994 17.9745 16.1529 0.172669 2.86506 57.3086
12813373 10.4554 12.6994 18.0631 16.1719 0.153634 2.89604 57.3898
12813387 10.4554 12.6994 18.0631 16.1719 0.153634 2.89604 57.3898
12813393 10.5083 12.727 17.9548 16.1624 0.185791 2.84607 57.3525
12813419 10.4907 12.6809 17.945 16.1624 0.177917 2.86382 57.279
12813421 10.4907 12.6809 17.945 16.1624 0.177917 2.86382 57.279
12813428 10.4819 12.7178 17.9253 16.2576 0.247529 2.87106 57.3825
12813444 10.4731 12.7638 17.9647 16.1529 0.208762 2.84564 57.3544
12813454 10.4819 12.6717 17.9351 16.2576 0.223321 2.88749 57.3463
12813474 10.4378 12.7454 17.9647 16.3052 0.28199 2.89452 57.453
12813486 10.4731 12.6994 17.9056 16.229 0.239795 2.86934 57.307
12813498 10.4731 12.6994 17.9056 16.229 0.239795 2.86934 57.307
12813506 10.4554 12.7454 17.9351 16.2576 0.266737 2.87276 57.3935
12813516 10.4554 12.7454 17.9351 16.2576 0.266737 2.87276 57.3935
12813526 10.4819 12.7086 17.9253 16.3242 0.272274 2.88799 57.4399
12813536 10.4378 12.7178 17.9351 16.3052 0.283098 2.89691 57.3959
12813546 10.4378 12.7178 17.9351 16.3052 0.283098 2.89691 57.3959
12813558 10.4114 12.6533 17.9155 16.3623 0.300261 2.93317 57.3424
12813567 10.429 12.6441 17.9351 16.4479 0.316703 2.95268 57.4562
12813587 10.4378 12.6901 17.9548 16.4384 0.319836 2.93769 57.5212
12813599 10.4378 12.6901 17.9548 16.4384 0.319836 2.93769 57.5212
12813607 10.3762 12.6717 17.9351 16.4574 0.355959 2.96255 57.4405
12813618 10.4554 12.6901 17.9351 16.4574 0.328913 2.93206 57.5382
12813627 10.4554 12.6901 17.9351 16.4574 0.328913 2.93206 57.5382
12813639 10.385 12.6809 17.8564 16.3718 0.354025 2.92236 57.2941
12813647 10.4378 12.7638 17.7973 16.3432 0.380123 2.86149 57.3422
12813660 10.4378 12.7638 17.7973 16.3432 0.380123 2.86149 57.3422
12813667 10.4202 12.7086 17.6694 16.2861 0.396386 2.84493 57.0842
12813678 10.4202 12.7086 17.6694 16.2861 0.396386 2.84493 57.0842
12813687 10.4642 12.7822 17.6694 16.248 0.392145 2.80009 57.1639
12813697 10.4202 12.7362 17.7481 16.248 0.356898 2.84496 57.1525
12813717 10.4731 12.7546 17.6891 16.3052 0.392175 2.82232 57.2219
12813728 10.4731 12.8283 17.6891 16.3147 0.427902 2.80143 57.3051
12813738 10.4731 12.8283 17.6891 16.3147 0.427902 2.80143 57.3051
12813748 10.4819 12.8283 17.6989 16.3052 0.415546 2.79876 57.3142
12813758 10.4819 12.8283 17.6989 16.3052 0.415546 2.79876 57.3142
12813768 10.5171 12.8835 17.6792 16.248 0.407857 2.75432 57.3279
12813778 10.5435 12.948 17.6398 16.2195 0.428993 2.71168 57.3508
12813788 10.5435 12.948 17.6398 16.2195 0.428993 2.71168 57.3508
12813798 10.5611 12.9388 17.5709 16.1529 0.419217 2.67997 57.2237
12813811 10.5876 12.9572 17.6103 16.1338 0.389758 2.67051 57.2889
12813818 10.5876 12.9572 17.6103 16.1338 0.389758 2.67051 57.2889
12813828 10.5699 12.9756 17.6005 16.1053 0.397578 2.66199 57.2513
12813849 10.5876 12.9664 17.5414 16.0767 0.399739 2.64048 57.1721
12813861 10.6404 13.0677 17.6202 16.1338 0.409386 2.62238 57.4621
12813880 10.6492 13.0309 17.6103 16.0862 0.373662 2.6186 57.3766
12813889 10.6404 13.0125 17.5906 16.0196 0.349712 2.60831 57.2631
12813900 10.6404 13.0125 17.5906 16.0196 0.349712 2.60831 57.2631
12813909 10.6668 13.0585 17.5906 16.0672 0.37826 2.59635 57.3832
12813929 10.6228 13.0125 17.5611 16.0101 0.366503 2.60528 57.2064
12813939 10.7197 13.0861 17.5808 15.9815 0.334328 2.55102 57.3681
12813949 10.7197 13.0861 17.5808 15.9815 0.334328 2.55102 57.3681
12813959 10.6756 13.0861 17.5512 16.0101 0.37913 2.56429 57.3231
12813969 10.6404 13.0953 17.5217 15.9815 0.399527 2.55966 57.239
12813989 10.6668 13.0493 17.502 16.0386 0.401288 2.5738 57.2568
12814000 10.6668 13.0493 17.502 16.0386 0.401288 2.5738 57.2568
12814011 10.6933 13.0217 17.6103 16.0672 0.342068 2.6038 57.3924
12814020 10.6052 13.0217 17.6497 16.1529 0.400344 2.65779 57.4294
12814031 10.6052 13.0217 17.6497 16.1529 0.400344 2.65779 57.4294
12814043 10.6316 13.0217 17.5808 16.2195 0.447652 2.64918 57.4535
12814052 10.5876 12.9756 17.6497 16.1909 0.404724 2.68556 57.4038
12814061 10.5876 12.9756 17.6497 16.1909 0.404724 2.68556 57.4038
12814072 10.6228 12.9664 17.6103 16.1909 0.402611 2.66909 57.3904
12814081 10.6228 12.9664 17.6103 16.1909 0.402611 2.66909 57.3904
12814091 10.6052 12.9664 17.63 16.1148 0.369015 2.66237 57.3164
12814102 10.614 12.9848 17.6202 16.1624 0.397804 2.66211 57.3813
12814112 10.614 12.9848 17.6202 16.1624 0.397804 2.66211 57.3813
12814122 10.5876 12.9388 17.5611 16.0291 0.358588 2.64298 57.1166
12814137 10.5788 13.0125 17.5512 16.0291 0.398615 2.62083 57.1716
12814142 10.5788 13.0125 17.5512 16.0291 0.398615 2.62083 57.1716
12814152 10.6316 12.9572 17.6497 16.1529 0.361019 2.6695 57.3913
12814172 10.6492 12.9664 17.6792 16.1148 0.327802 2.6594 57.4096
12814182 10.6668 13.0493 17.5906 16.0767 0.378394 2.60124 57.3835
12814202 10.658 13.0769 17.5316 16.0577 0.412133 2.57856 57.3242
12814212 10.6316 13.0125 17.5217 16.0767 0.408724 2.60847 57.2425
12814222 10.6316 13.0125 17.5217 16.0767 0.408724 2.60847 57.2425
12814232 10.658 13.0953 17.502 16.0386 0.424963 2.56238 57.294
12814243 10.658 13.0953 17.502 16.0386 0.424963 2.56238 57.294
12814252 10.6316 13.0953 17.4823 16.0386 0.445443 2.56621 57.2479
12814263 10.6668 13.1414 17.4528 16.0101 0.450408 2.52867 57.2711
12814275 10.6668 13.1414 17.4528 16.0101 0.450408 2.52867 57.2711
12814283 10.7021 13.1506 17.4922 16.0196 0.425324 2.52572 57.3644
12814296 10.7021 13.1598 17.4134 16.0196 0.464219 2.50576 57.2949
12814314 10.7109 13.2335 17.4134 16.0577 0.508067 2.4889 57.4155
12814323 10.7109 13.2335 17.4134 16.0577 0.508067 2.4889 57.4155
12814334 10.7549 13.2243 17.4331 15.9815 0.443318 2.46597 57.3938
12814346 10.8078 13.1782 17.3741 15.972 0.422275 2.44891 57.3321
12814355 10.8078 13.1782 17.3741 15.972 0.422275 2.44891 57.3321
12814364 10.7725 13.2703 17.3248 15.9149 0.474763 2.40829 57.2826
12814376 10.7725 13.2519 17.3741 15.9054 0.440928 2.42261 57.3039
12814385 10.7725 13.2519 17.3741 15.9054 0.440928 2.42261 57.3039
12814397 10.7813 13.2703 17.2658 15.7816 0.439945 2.3632 57.0991
12814404 10.8518 13.2519 17.2756 15.8197 0.412667 2.35798 57.199
12814424 10.799 13.2611 17.2855 15.8102 0.43166 2.37131 57.1557
12814434 10.799 13.2611 17.2855 15.8102 0.43166 2.37131 57.1557
12814446 10.799 13.1966 17.2756 15.7721 0.391883 2.38033 57.0433
12814462 10.8166 13.2243 17.3839 15.9149 0.409263 2.42187 57.3396
12814466 10.8166 13.2243 17.3839 15.9149 0.409263 2.42187 57.3396
12814476 10.7902 13.2243 17.4331 15.8673 0.37874 2.43026 57.3148
12814486 10.8078 13.1874 17.4528 15.8483 0.338206 2.43625 57.2963
12814496 10.8078 13.1874 17.4528 15.8483 0.338206 2.43625 57.2963
12814506 10.7461 13.2059 17.443 15.9625 0.426823 2.47226 57.3574
12814516 10.7461 13.2059 17.443 15.9625 0.426823 2.47226 57.3574
12814528 10.799 13.1046 17.443 15.9434 0.351751 2.48287 57.2899
12814536 10.8166 13.1966 17.3839 15.9054 0.393322 2.42818 57.3025
12814549 10.8166 13.1966 17.3839 15.9054 0.393322 2.42818 57.3025
12814557 10.8254 13.2243 17.4036 15.9339 0.404805 2.42769 57.3872
12814571 10.7813 13.1138 17.4233 15.991 0.392681 2.49153 57.3094
12814578 10.7813 13.1138 17.4233 15.991 0.392681 2.49153 57.3094
12814587 10.7637 13.1782 17.4036 15.8959 0.396025 2.45211 57.2414
12814597 10.7637 13.1782 17.4036 15.8959 0.396025 2.45211 57.2414
12814607 10.7902 13.1598 17.443 15.9054 0.36304 2.46038 57.2983
12814618 10.8254 13.1506 17.4823 15.9339 0.338373 2.46731 57.3923
12814627 10.8254 13.1506 17.4823 15.9339 0.338373 2.46731 57.3923
12814639 10.7813 13.1414 17.4627 15.9054 0.350302 2.47299 57.2908
12814647 10.7813 13.1414 17.4627 15.9054 0.350302 2.47299 57.2908
12814661 10.7197 13.1322 17.5217 15.8959 0.343388 2.50545 57.2694
12814668 10.7549 13.1414 17.4134 15.953 0.404277 2.4807 57.2627
12814681 10.7549 13.1414 17.4134 15.953 0.404277 2.4807 57.2627
12814694 10.7549 13.0677 17.4331 15.953 0.36386 2.50752 57.2087
12814697 10.799 13.0309 17.4725 15.9815 0.323364 2.52013 57.2839
12814707 10.799 13.0309 17.4725 15.9815 0.323364 2.52013 57.2839
12814717 10.7725 13.0677 17.4725 16.0291 0.371367 2.5273 57.3419
12814727 10.7725 13.0677 17.4725 16.0291 0.371367 2.5273 57.3419
12814737 10.7549 13.0493 17.5217 16.0006 0.337201 2.54282 57.3265
12814748 10.7373 13.0309 17.5906 16.0386 0.323004 2.57705 57.3974
12814757 10.7373 13.0309 17.5906 16.0386 0.323004 2.57705 57.3974
12814771 10.7109 13.0585 17.5611 16.0386 0.359586 2.57029 57.3691
12814777 10.7549 13.0401 17.6398 16.0196 0.289327 2.57537 57.4544
12814787 10.7549 13.0401 17.6398 16.0196 0.289327 2.57537 57.4544
12814798 10.7549 13.0217 17.5611 15.991 0.30382 2.55776 57.3287
12814809 10.7549 13.0309 17.5217 15.953 0.30877 2.53811 57.2605
12814828 10.7109 13.0401 17.5119 15.972 0.344783 2.55078 57.2348
12814840 10.7109 13.0401 17.5119 15.972 0.344783 2.55078 57.2348
12814849 10.7637 13.0493 17.5119 15.972 0.325367 2.53177 57.2969
12814861 10.7373 13.0401 17.502 16.0006 0.349736 2.54675 57.28
12814869 10.7373 13.0401 17.502 16.0006 0.349736 2.54675 57.28
12814883 10.7285 13.0585 17.5316 15.9339 0.319806 2.53574 57.2525
12814890 10.7373 13.0585 17.5709 15.9434 0.302613 2.54367 57.3102
12814904 10.7373 13.0585 17.5709 15.9434 0.302613 2.54367 57.3102
12814913 10.7461 13.0677 17.5709 15.953 0.306794 2.54023 57.3377
12814925 10.7461 13.0677 17.5316 15.953 0.324187 2.53167 57.2984
12814931 10.7285 13.0309 17.5316 15.953 0.316098 2.54835 57.2439
12814941 10.7637 13.0769 17.6202 16.0386 0.318122 2.56127 57.4994
12814961 10.7285 13.0493 17.63 16.0006 0.301072 2.57439 57.4083
12814970 10.6933 13.0125 17.6891 16.0291 0.287014 2.6154 57.4239
12814981 10.6933 13.0125 17.6891 16.0291 0.287014 2.6154 57.4239
12814991 10.7109 12.9664 17.6398 16.0767 0.301602 2.62378 57.3938
12815000 10.7109 12.9664 17.6398 16.0767 0.301602 2.62378 57.3938
12815011 10.6316 12.9572 17.6202 16.1053 0.353625 2.6529 57.3142
12815021 10.6756 12.9388 17.6497 16.1243 0.321391 2.65547 57.3884
12815041 10.6845 12.9112 17.6103 16.1338 0.327089 2.65484 57.3397
12815051 10.5876 12.8559 17.6694 16.1624 0.33232 2.72062 57.2752
12815063 10.5876 12.8559 17.6694 16.1624 0.33232 2.72062 57.2752
12815072 10.5964 12.8375 17.6891 16.1909 0.324085 2.73393 57.3138
12815082 10.5964 12.8375 17.6891 16.1909 0.324085 2.73393 57.3138
12815092 10.5788 12.8375 17.6103 16.2195 0.379026 2.72863 57.246
12815106 10.614 12.8927 17.6202 16.2766 0.40729 2.715 57.4035
12815122 10.5171 12.8467 17.5808 16.2576 0.439835 2.74672 57.2021
12815134 10.5523 12.8467 17.5512 16.3147 0.461796 2.7417 57.2649
12815142 10.5523 12.8467 17.5512 16.3147 0.461796 2.7417 57.2649
12815155 10.5083 12.8283 17.5709 16.3527 0.481048 2.77342 57.2602
12815175 10.4731 12.7822 17.63 16.3813 0.462958 2.81735 57.2666
12815182 10.5259 12.7822 17.6792 16.4384 0.442103 2.82351 57.4258
12815202 10.4731 12.8375 17.6595 16.4289 0.493822 2.81657 57.399
12815212 10.5347 12.8283 17.63 16.467 0.491878 2.80212 57.4599
12815232 10.4731 12.7546 17.6792 16.505 0.482205 2.86263 57.4119
12815242 10.4731 12.7546 17.6792 16.505 0.482205 2.86263 57.4119
12815253 10.385 12.7638 17.6497 16.505 0.538447 2.88096 57.3035
12815263 10.4466 12.7454 17.6694 16.5241 0.502509 2.87566 57.3855
12815283 10.4554 12.7822 17.6398 16.5526 0.539607 2.86125 57.4301
12815294 10.4378 12.7546 17.6202 16.6002 0.564706 2.88123 57.4128
12815325 10.429 12.7546 17.5709 16.5526 0.570297 2.8635 57.3072
12815326 10.429 12.7546 17.5709 16.5526 0.570297 2.8635 57.3072
12815337 10.429 12.7362 17.5217 16.505 0.56411 2.84871 57.192
12815345 10.429 12.8006 17.5808 16.5431 0.58147 2.84923 57.3536
12815356 10.429 12.8006 17.5808 16.5431 0.58147 2.84923 57.3536
12815366 10.4378 12.8191 17.6005 16.505 0.560394 2.83686 57.3624
12815376 10.3938 12.8006 17.5808 16.5241 0.589085 2.85616 57.2993
12815387 10.3938 12.8006 17.5808 16.5241 0.589085 2.85616 57.2993
12815397 10.4114 12.8743 17.5119 16.4194 0.598785 2.79083 57.217
12815406 10.4202 12.8651 17.502 16.4765 0.619659 2.80103 57.2638
12815426 10.4731 12.8651 17.5611 16.467 0.565633 2.79517 57.3662
12815436 10.4731 12.8651 17.5611 16.467 0.565633 2.79517 57.3662
12815447 10.4026 12.8467 17.5611 16.486 0.59734 2.82683 57.2964
12815457 10.3674 12.8006 17.5808 16.505 0.59278 2.86037 57.2538
12815477 10.4378 12.8191 17.63 16.486 0.539127 2.83909 57.3729
12815489 10.4202 12.8283 17.6595 16.4765 0.533691 2.84594 57.3845
12815511 10.4114 12.7914 17.5611 16.5622 0.602302 2.85744 57.3261
12815528 10.4554 12.7362 17.6202 16.5146 0.512484 2.86337 57.3263
12815538 10.429 12.7822 17.6497 16.5431 0.542927 2.86954 57.404
12815548 10.429 12.7822 17.6497 16.5431 0.542927 2.86954 57.404
12815558 10.4026 12.6717 17.5808 16.5146 0.526026 2.89166 57.1696
12815568 10.4202 12.6625 17.6792 16.5717 0.494808 2.92189 57.3336
12815578 10.4202 12.6625 17.6792 16.5717 0.494808 2.92189 57.3336
12815588 10.3762 12.6073 17.758 16.5241 0.435343 2.95953 57.2655
12815614 10.3585 12.6349 17.7678 16.6002 0.483233 2.97445 57.3615
12815618 10.429 12.6441 17.7678 16.5717 0.443694 2.94353 57.4126
12815639 10.3497 12.6165 17.7973 16.5431 0.441703 2.9772 57.3067
12815648 10.3409 12.6349 17.8564 16.5812 0.443602 2.99454 57.4134
12815669 10.3762 12.5612 17.9155 16.6383 0.394794 3.03083 57.4911
12815680 10.3762 12.5612 17.9155 16.6383 0.394794 3.03083 57.4911
12815689 10.3674 12.5612 17.8859 16.6954 0.43616 3.03933 57.5099
12815699 10.3762 12.6441 17.7973 16.6383 0.482497 2.98021 57.4559
12815719 10.3938 12.5981 17.7776 16.5526 0.427082 2.96703 57.3221
12815731 10.3674 12.5796 17.758 16.4955 0.415134 2.96497 57.2005
12815746 10.3674 12.5796 17.758 16.4955 0.415134 2.96497 57.2005
12815763 10.385 12.6441 17.7481 16.5431 0.459749 2.94716 57.3203
12815764 10.385 12.6441 17.7481 16.5431 0.459749 2.94716 57.3203
12815772 10.3674 12.5704 17.7186 16.4479 0.408202 2.94953 57.1043
12815780 10.3674 12.5796 17.7186 16.4765 0.424457 2.95266 57.1421
12815802 10.3938 12.5704 17.7678 16.467 0.382787 2.95562 57.199
12815813 10.3585 12.5888 17.8072 16.5431 0.421581 2.98518 57.2977
12815832 10.3674 12.6073 17.8466 16.6859 0.469175 3.01472 57.5071
12815842 10.3233 12.6441 17.9253 16.6859 0.469518 3.03336 57.5786
12815862 10.3585 12.6073 17.8367 16.6193 0.448984 3.00152 57.4218
12815872 10.3585 12.6073 17.8367 16.6193 0.448984 3.00152 57.4218
12815882 10.3057 12.5981 17.817 16.5717 0.456867 3.00693 57.2924
12815892 10.3409 12.5888 17.8466 16.5812 0.428253 3.00692 57.3575
12815912 10.4026 12.5981 17.8662 16.5812 0.396186 2.98882 57.4481
12815924 10.4026 12.5981 17.8662 16.5812 0.396186 2.98882 57.4481
12815932 10.3585 12.5428 17.8662 16.6193 0.40831 3.02791 57.3868
12815946 10.3674 12.5796 17.8662 16.7144 0.460854 3.03342 57.5277
12815957 10.3674 12.5796 17.8662 16.7144 0.460854 3.03342 57.5277
12815968 10.3409 12.5152 17.8662 16.762 0.465357 3.07184 57.4844
12815974 10.3321 12.5336 17.8662 16.7049 0.452733 3.05695 57.4369
12815982 10.3321 12.5336 17.8662 16.7049 0.452733 3.05695 57.4369
12815993 10.3233 12.506 17.7776 16.743 0.500435 3.05791 57.3499
12816003 10.2793 12.5244 17.8072 16.7716 0.526938 3.07806 57.3824
12816013 10.2793 12.5244 17.8072 16.7716 0.526938 3.07806 57.3824
12816026 10.2969 12.4783 17.8466 16.7716 0.481957 3.09519 57.3933
12816044 10.2617 12.4047 17.7776 16.7811 0.500843 3.11727 57.225
12816053 10.2881 12.4783 17.8761 16.8096 0.489014 3.11197 57.4521
12816063 10.2881 12.4783 17.8761 16.8096 0.489014 3.11197 57.4521
12816073 10.2881 12.5244 17.8564 16.8191 0.521433 3.09536 57.488
12816083 10.244 12.4323 17.9253 16.8572 0.487375 3.1604 57.4589
12816103 10.2705 12.4599 17.8466 16.9524 0.562885 3.14672 57.5293
12816124 10.2176 12.4139 17.8662 16.8667 0.521556 3.16437 57.3645
12816136 10.2176 12.3954 17.8761 16.8953 0.521502 3.17812 57.3844
12816144 10.2176 12.3954 17.8761 16.8953 0.521502 3.17812 57.3844
12816156 10.2176 12.4323 17.8367 16.9429 0.574985 3.16815 57.4295
12816174 10.1736 12.377 17.8958 16.9239 0.536662 3.20785 57.3702
12816184 10.1824 12.377 17.8958 16.9143 0.528684 3.2031 57.3695
12816194 10.1824 12.377 17.8958 16.9143 0.528684 3.2031 57.3695
12816204 10.1824 12.3586 17.8761 16.9619 0.549883 3.21468 57.379
12816216 10.2088 12.3862 17.9548 16.9714 0.518954 3.21565 57.5213
12816224 10.2088 12.3862 17.9548 16.9714 0.518954 3.21565 57.5213
12816236 10.1648 12.3402 17.9155 17 0.548568 3.24201 57.4204
12816244 10.1648 12.3402 17.9155 17 0.548568 3.24201 57.4204
12816255 10.1207 12.3678 17.945 16.9429 0.542468 3.24157 57.3764
12816265 10.1648 12.3678 17.8958 17 0.569093 3.2292 57.4284
12816284 10.1648 12.4047 17.8662 16.981 0.589815 3.20755 57.4166
12816294 10.1472 12.3586 17.8859 16.9905 0.573355 3.23375 57.3822
12816304 10.1472 12.3586 17.8859 16.9905 0.573355 3.23375 57.3822
12816314 10.1472 12.3954 17.945 17.039 0.58333 3.24408 57.5266
12816324 10.1472 12.3954 17.945 17.039 0.58333 3.24408 57.5266
12816335 10.1119 12.2941 17.9351 17.0585 0.568616 3.28944 57.3997
12816345 10.1119 12.2665 17.9844 17.1851 0.588787 3.33401 57.5479
12816365 10.0591 12.3862 17.945 17.1656 0.672302 3.30078 57.5559
12816376 10.0943 12.3126 17.9745 17.1072 0.587469 3.30713 57.4886
12816395 10.1207 12.2849 17.9844 17.2143 0.605068 3.33127 57.6044
12816416 10.0503 12.2665 17.9155 17.0487 0.588989 3.31194 57.2809
12816427 10.0326 12.2941 18.0237 17.0585 0.564468 3.33277 57.409
12816447 10.0503 12.1928 17.9548 17.0195 0.527477 3.33759 57.2174
12816457 9.9886 12.2389 18.0336 17.0195 0.539532 3.35862 57.2806
12816470 9.9886 12.2389 18.0336 17.0195 0.539532 3.35862 57.2806
12816477 10.0415 12.2021 18.0434 17.0779 0.52084 3.36735 57.3649
12816487 9.97979 12.156 18.073 17.1266 0.536278 3.41773 57.3354
12816507 10.015 12.1744 18.073 17.1948 0.557497 3.41428 57.4573
12816517 10.015 12.1744 18.073 17.1948 0.557497 3.41428 57.4573
12816528 9.99741 12.1744 18.1419 17.1461 0.513962 3.424 57.4598
12816540 10.0591 12.1652 18.1222 17.1656 0.499719 3.40715 57.5121
12816550 10.0591 12.1652 18.1222 17.1656 0.499719 3.40715 57.5121
12816563 9.9886 12.2389 18.1123 17.1169 0.546005 3.39431 57.4567
12816568 10.0238 12.1928 18.1123 17.1851 0.539771 3.41153 57.5141
12816578 10.0238 12.1928 18.1123 17.1851 0.539771 3.41153 57.5141
12816588 10.0238 12.1836 18.1714 17.1364 0.488913 3.41657 57.5153
12816598 10.0238 12.1836 18.1714 17.1364 0.488913 3.41657 57.5153
12816615 10.0062 12.1284 18.1419 17.0877 0.465441 3.42416 57.3641
12816620 10.0238 12.1284 18.0828 17.1364 0.504667 3.41642 57.3714
12816630 10.0238 12.1284 18.0828 17.1364 0.504667 3.41642 57.3714
12816639 10.0503 12.1836 18.1222 17.1266 0.494868 3.39622 57.4827
12816656 10.0503 12.1836 18.073 17.1656 0.533319 3.39415 57.4725
12816659 10.0503 12.1836 18.073 17.1656 0.533319 3.39415 57.4725
12816669 10.0503 12.1928 17.9745 17.1266 0.56445 3.36339 57.3443
12816689 10.0591 12.2021 17.945 17.0779 0.556844 3.34171 57.2841
12816699 10.1031 12.2297 17.9647 17.1364 0.565124 3.33469 57.4339
12816719 10.0943 12.2941 17.9745 17.1072 0.579643 3.313 57.4701
12816731 10.0855 12.2573 18.0041 17.1656 0.579607 3.34541 57.5125
12816754 10.0415 12.2205 17.9942 17.1072 0.56307 3.3574 57.3633
12816762 10.0415 12.2205 17.9942 17.1072 0.56307 3.3574 57.3633
12816771 10.0415 12.2573 17.9942 17.1266 0.587037 3.34958 57.4196
12816781 10.0503 12.2205 18.0237 17.2046 0.587428 3.3803 57.4991
12816791 10.0503 12.2205 18.0237 17.2046 0.587428 3.3803 57.4991
12816801 10.0503 12.3034 18.0041 17.2046 0.631329 3.34986 57.5623
12816811 10.0415 12.2849 18.0139 17.1656 0.606552 3.35264 57.5059
12816831 10.0415 12.2021 18.0139 17.1559 0.567195 3.37716 57.4133
12816852 9.97979 12.156 17.9548 17.1364 0.593153 3.3958 57.227
12816866 10.0326 12.1652 17.9647 17.1754 0.585675 3.38576 57.3379
12816882 10.0415 12.2021 17.9844 17.1364 0.572059 3.36723 57.3643
12816892 10.0415 12.1744 17.9942 17.2241 0.593218 3.39582 57.4342
12816903 10.0415 12.1744 17.9942 17.2241 0.593218 3.39582 57.4342
12816913 10.0767 12.2481 18.0336 17.1364 0.554061 3.35123 57.4948
12816923 10.0767 12.2481 18.0336 17.1364 0.554061 3.35123 57.4948
12816933 10.0503 12.2021 17.9844 17.1461 0.572282 3.36639 57.3828
12816943 10.0503 12.2297 17.9253 17.0974 0.589651 3.33565 57.3027
12816965 10.0503 12.2573 17.9056 17.0487 0.58946 3.31287 57.2619
12816974 10.0415 12.2389 17.9942 17.0974 0.566763 3.34953 57.372
12816993 10.1207 12.2297 17.9548 17.1169 0.553373 3.32311 57.4221
12817013 10.0855 12.2389 17.9745 17.1754 0.589064 3.34728 57.4743
12817023 10.0767 12.2665 17.9942 17.1266 0.575262 3.33538 57.4641
12817034 10.0767 12.2665 17.9942 17.1266 0.575262 3.33538 57.4641
12817044 10.0767 12.2849 18.0533 17.1072 0.548548 3.33754 57.5221
12817054 10.0943 12.2665 18.0533 17.1266 0.54118 3.34174 57.5407
12817064 10.0943 12.2665 18.0533 17.1266 0.54118 3.34174 57.5407
12817074 10.0679 12.2665 18.0434 17.1266 0.557289 3.34818 57.5045
12817094 10.1383 12.2389 18.0434 17.1364 0.518402 3.33649 57.5571
12817105 10.0591 12.2481 18.0631 17.0097 0.494799 3.33714 57.38
12817114 10.0591 12.2481 18.0631 17.0097 0.494799 3.33714 57.38
12817125 10.1119 12.2205 17.9844 16.981 0.482199 3.30718 57.2977
12817134 10.1031 12.2573 17.9942 17.039 0.522256 3.31207 57.3936
12817154 10.0943 12.2113 17.9844 16.9905 0.490171 3.3177 57.2804
12817176 10.0503 12.1376 18.0041 17.0682 0.502741 3.37523 57.2601
12817186 10.0855 12.2297 18.0631 17.1072 0.516757 3.35435 57.4855
12817206 10.0415 12.2021 18.0139 17.1169 0.550601 3.36927 57.3743
12817216 10.0415 12.2021 18.1025 17.1461 0.523657 3.3931 57.4921
12817226 10.0415 12.2021 18.1025 17.1461 0.523657 3.3931 57.4921
12817235 10.0326 12.1836 18.0926 17.1072 0.507486 3.39196 57.4161
12817254 10.0591 12.1744 18.0533 17.1364 0.521776 3.38439 57.4232
12817256 10.0591 12.1744 18.0533 17.1364 0.521776 3.38439 57.4232
12817267 10.0326 12.156 18.0828 17.1559 0.520849 3.40866 57.4273
12817277 10.0326 12.156 18.0828 17.1559 0.520849 3.40866 57.4273
12817289 10.0238 12.1652 18.0828 17.1169 0.512072 3.40066 57.3888
12817297 10.0503 12.1376 18.073 17.0487 0.463748 3.38525 57.3095
12817311 10.0503 12.1376 18.073 17.0487 0.463748 3.38525 57.3095
12817317 10.0767 12.2205 18.0434 17.0877 0.517187 3.35217 57.4283
12817331 10.0679 12.1652 18.1025 17.1559 0.500393 3.3984 57.4915
12817337 10.0679 12.1652 18.1025 17.1559 0.500393 3.3984 57.4915
12817347 10.0855 12.1652 18.132 17.1461 0.475344 3.39676 57.5289
12817357 10.0855 12.1652 18.132 17.1461 0.475344 3.39676 57.5289
12817367 10.0591 12.1376 18.0434 17.1169 0.502121 3.39026 57.357
12817377 10.0503 12.2389 18.0631 17.1072 0.536326 3.36267 57.4594
12817387 10.0503 12.2389 18.0631 17.1072 0.536326 3.36267 57.4594
12817399 10.0855 12.2113 18.0533 17.0097 0.47169 3.33847 57.3598
12817407 10.0855 12.2113 18.0434 16.9714 0.459677 3.32868 57.3116
12817418 10.0855 12.2389 18.0434 16.9714 0.471503 3.31984 57.3393
12817427 10.0943 12.2297 17.9844 17.0195 0.510442 3.31772 57.3278
12817437 10.0943 12.2297 17.9844 17.0195 0.510442 3.31772 57.3278
12817447 10.1207 12.2573 18.0434 17.0097 0.480098 3.31052 57.4312
12817458 10.1472 12.3402 17.9942 16.8858 0.472662 3.24034 57.3673
12817468 10.1472 12.3402 17.9942 16.8858 0.472662 3.24034 57.3673
12817479 10.1736 12.3862 17.9647 16.8763 0.489649 3.20931 57.4008
12817489 10.156 12.3678 17.9647 16.8287 0.469255 3.21097 57.3171
12817499 10.156 12.3678 17.9647 16.8287 0.469255 3.21097 57.3171
12817509 10.2793 12.4047 17.8466 16.8667 0.498968 3.14371 57.3972
12817519 10.2793 12.4047 17.8466 16.8667 0.498968 3.14371 57.3972
12817529 10.2264 12.4599 17.8564 16.8001 0.513229 3.13121 57.3428
12817539 10.2617 12.5888 17.8072 16.762 0.558189 3.06133 57.4197
12817552 10.2617 12.5888 17.8072 16.762 0.558189 3.06133 57.4197
12817559 10.2793 12.6441 17.8072 16.6478 0.525221 3.01463 57.3784
12817569 10.2088 12.7178 17.8072 16.5146 0.531167 2.98572 57.2483
12817579 10.2088 12.7178 17.8072 16.5146 0.531167 2.98572 57.2483
12817589 10.2617 12.6994 17.758 16.6002 0.558257 2.98255 57.3192
12817600 10.2617 12.6994 17.758 16.6002 0.558257 2.98255 57.3192
12817609 10.2881 12.7454 17.7875 16.5812 0.544846 2.96205 57.4022
12817621 10.3585 12.7638 17.7776 16.5622 0.517631 2.92821 57.4622
12817629 10.3585 12.7638 17.7776 16.5622 0.517631 2.92821 57.4622
12817639 10.2881 12.7178 17.8269 16.5431 0.499308 2.97097 57.3758
12817649 10.2881 12.7178 17.8269 16.5431 0.499308 2.97097 57.3758
12817659 10.2705 12.773 17.7481 16.505 0.549543 2.93464 57.2966
12817669 10.3674 12.8006 17.7776 16.5431 0.521299 2.90998 57.4888
12817679 10.3674 12.8006 17.7776 16.5431 0.521299 2.90998 57.4888
12817690 10.3145 12.8099 17.7284 16.5431 0.570613 2.91323 57.3959
12817699 10.3145 12.7546 17.758 16.5907 0.554201 2.94671 57.4178
12817709 10.3145 12.7546 17.758 16.5907 0.554201 2.94671 57.4178
12817719 10.3497 12.7822 17.7875 16.5907 0.537169 2.93328 57.5102
12817729 10.3497 12.7822 17.7875 16.5907 0.537169 2.93328 57.5102
12817739 10.2705 12.7362 17.7284 16.6097 0.587252 2.96405 57.3448
12817752 10.2881 12.8191 17.7973 16.6002 0.579897 2.94508 57.5047
12817759 10.2881 12.8191 17.7973 16.6002 0.579897 2.94508 57.5047
12817772 10.3233 12.7454 17.758 16.486 0.501686 2.92481 57.3127
12817779 10.2881 12.6994 17.7678 16.5241 0.509578 2.96035 57.2793
12817789 10.2881 12.6994 17.7678 16.5241 0.509578 2.96035 57.2793
12817801 10.3145 12.7086 17.758 16.5241 0.506136 2.94711 57.3051
12817819 10.3145 12.6994 17.7776 16.6288 0.538123 2.9761 57.4203
12817829 10.2969 12.6625 17.8072 16.5717 0.492737 2.98739 57.3383
12817841 10.2969 12.6625 17.8072 16.5717 0.492737 2.98739 57.3383
12817853 10.2705 12.6165 17.7973 16.5431 0.476947 3.00211 57.2274
12817860 10.2793 12.6073 17.8958 16.5146 0.413096 3.01687 57.2969
12817884 10.2969 12.6349 17.8466 16.5717 0.463432 3.0043 57.35
12817894 10.2969 12.6349 17.8466 16.5717 0.463432 3.0043 57.35
12817901 10.2793 12.5796 17.8466 16.6193 0.467977 3.03715 57.3247
12817911 10.3409 12.6441 17.8367 16.5146 0.427744 2.97357 57.3363
12817921 10.3409 12.6441 17.8367 16.5146 0.427744 2.97357 57.3363
12817931 10.3233 12.6441 17.8466 16.6002 0.467852 2.99909 57.4142
12817941 10.3145 12.6165 17.8269 16.6002 0.468686 3.00641 57.3581
12817951 10.3145 12.6165 17.8269 16.6002 0.468686 3.00641 57.3581
12817961 10.3233 12.6257 17.7678 16.5907 0.490889 2.98639 57.3075
12817971 10.3233 12.6257 17.7678 16.5907 0.490889 2.98639 57.3075
12817981 10.3585 12.6717 17.758 16.5336 0.474867 2.94686 57.3218
12817991 10.3145 12.7178 17.7678 16.486 0.489411 2.93829 57.2861
12818002 10.3145 12.7178 17.7678 16.486 0.489411 2.93829 57.2861
12818012 10.4202 12.727 17.758 16.4955 0.454843 2.90231 57.4007
12818022 10.385 12.7546 17.7481 16.4384 0.462234 2.89056 57.3261
12818032 10.385 12.7546 17.7481 16.4384 0.462234 2.89056 57.3261
12818042 10.429 12.7362 17.7383 16.4099 0.426933 2.87444 57.3133
12818052 10.429 12.7362 17.7383 16.4099 0.426933 2.87444 57.3133
12818064 10.4554 12.7638 17.7284 16.4099 0.431415 2.85552 57.3575
12818072 10.4819 12.8099 17.7284 16.4384 0.451618 2.83903 57.4586
12818092 10.4554 12.8099 17.6792 16.4099 0.472966 2.83076 57.3544
12818105 10.4907 12.8006 17.6792 16.3718 0.437087 2.81459 57.3423
12818113 10.4907 12.8006 17.6792 16.3718 0.437087 2.81459 57.3423
12818128 10.4731 12.8651 17.5808 16.3623 0.512186 2.77706 57.2812
12818132 10.4731 12.8651 17.5808 16.3623 0.512186 2.77706 57.2812
12818142 10.4642 12.8191 17.6398 16.3337 0.457886 2.80059 57.2569
12818153 10.5171 12.8651 17.6595 16.3052 0.433171 2.76801 57.3469
12818166 10.5171 12.8651 17.6595 16.3052 0.433171 2.76801 57.3469
12818177 10.5083 12.9296 17.5512 16.3147 0.516856 2.72967 57.3038
12818182 10.5083 12.9296 17.5512 16.3147 0.516856 2.72967 57.3038
12818197 10.5259 12.9296 17.5709 16.248 0.471756 2.71416 57.2745
12818202 10.4731 12.9296 17.6398 16.2671 0.472766 2.74935 57.3095
12818212 10.4731 12.9296 17.6398 16.2671 0.472766 2.74935 57.3095
12818223 10.5259 12.948 17.63 16.3147 0.481886 2.73538 57.4186
12818232 10.4907 12.9296 17.6595 16.2576 0.452122 2.74607 57.3373
12818252 10.5347 12.8927 17.6202 16.2766 0.442427 2.7395 57.3242
12818262 10.5347 12.8927 17.6202 16.2766 0.442427 2.7395 57.3242
12818272 10.4819 12.8927 17.6398 16.2576 0.448996 2.756 57.272
12818283 10.4731 12.8559 17.7186 16.3527 0.442946 2.80722 57.4003
12818294 10.4731 12.8559 17.7186 16.3527 0.442946 2.80722 57.4003
12818303 10.4819 12.8467 17.6694 16.3147 0.440624 2.78878 57.3126
12818314 10.5083 12.8467 17.6398 16.2576 0.417507 2.76209 57.2524
12818323 10.5083 12.8467 17.6398 16.2576 0.417507 2.76209 57.2524
12818334 10.5876 12.8559 17.6595 16.2766 0.385767 2.74296 57.3796
12818343 10.5876 12.8559 17.6595 16.2766 0.385767 2.74296 57.3796
12818354 10.5699 12.8927 17.6005 16.2766 0.435531 2.72439 57.3397
12818363 10.4731 12.9296 17.63 16.2671 0.477141 2.74725 57.2997
12818381 10.4731 12.9296 17.63 16.2671 0.477141 2.74725 57.2997
12818383 10.5611 12.8743 17.6103 16.2385 0.410846 2.72676 57.2843
12818393 10.5611 12.9019 17.6497 16.248 0.409326 2.72868 57.3608
12818403 10.5611 12.9019 17.6497 16.248 0.409326 2.72868 57.3608
12818418 10.5523 12.9296 17.6103 16.2671 0.450677 2.71852 57.3593
12818423 10.5523 12.9296 17.6103 16.2671 0.450677 2.71852 57.3593
12818433 10.5611 12.9296 17.5709 16.248 0.456095 2.70328 57.3097
12818443 10.5699 12.9664 17.6005 16.2956 0.475183 2.70572 57.4325
12818453 10.5699 12.9664 17.6005 16.2956 0.475183 2.70572 57.4325
12818463 10.5611 12.9756 17.5906 16.2385 0.462988 2.69124 57.3659
12818473 10.5964 12.9664 17.5217 16.229 0.469929 2.66637 57.3135
12818484 10.5964 12.9664 17.5217 16.229 0.469929 2.66637 57.3135
12818494 10.5611 12.994 17.6103 16.2195 0.453988 2.68571 57.385
12818522 10.6228 13.0217 17.6005 16.2671 0.463158 2.66633 57.512
12818538 10.5964 13.0125 17.5709 16.2004 0.455558 2.65663 57.3802
12818539 10.5964 13.0125 17.5709 16.2004 0.455558 2.65663 57.3802
12818547 10.6052 12.9388 17.5906 16.2004 0.411367 2.68085 57.335
12818554 10.614 12.9112 17.6103 16.1624 0.370535 2.6827 57.2978
12818574 10.5964 12.9572 17.5611 16.1814 0.428107 2.66744 57.2961
12818584 10.5964 12.9572 17.5611 16.1814 0.428107 2.66744 57.2961
12818594 10.5964 12.9388 17.4922 16.1243 0.426292 2.64594 57.1516
12818604 10.5788 12.9204 17.5316 16.248 0.461817 2.69222 57.2787
12818616 10.5788 12.9204 17.5316 16.248 0.461817 2.69222 57.2787
12818624 10.5083 12.9019 17.5316 16.3242 0.517887 2.73605 57.266
12818634 10.5523 12.9019 17.5906 16.21 0.423092 2.71059 57.2549
12818655 10.5964 12.9388 17.5906 16.2956 0.456029 2.70398 57.4214
12818664 10.5964 12.9388 17.5906 16.2956 0.456029 2.70398 57.4214
12818676 10.5611 12.9019 17.4922 16.3242 0.511885 2.71126 57.2795
12818687 10.5435 12.8927 17.6202 16.3242 0.45889 2.74694 57.3806
12818697 10.5435 12.8927 17.6202 16.3242 0.45889 2.74694 57.3806
12818706 10.5876 12.8743 17.6497 16.3052 0.410259 2.74126 57.4167
12818718 10.5259 12.9112 17.6497 16.4289 0.506151 2.77529 57.5156
12818726 10.5259 12.9112 17.6497 16.4289 0.506151 2.77529 57.5156
12818739 10.5523 12.8006 17.6398 16.3813 0.431281 2.7891 57.3741
12818746 10.5523 12.8006 17.6398 16.3813 0.431281 2.7891 57.3741
12818760 10.5435 12.8283 17.6202 16.3718 0.451672 2.77705 57.3637
12818766 10.5699 12.8743 17.5611 16.3623 0.481781 2.73998 57.3676
12818776 10.5699 12.8743 17.5611 16.3623 0.481781 2.73998 57.3676
12818786 10.5611 12.9019 17.5709 16.3813 0.501251 2.74033 57.4153
12818796 10.5611 12.9019 17.5709 16.3813 0.501251 2.74033 57.4153
12818806 10.5699 12.9019 17.5217 16.2956 0.482604 2.70874 57.2892
12818821 10.5435 12.8743 17.502 16.3527 0.515741 2.73348 57.2726
12818836 10.5611 12.9112 17.4823 16.3052 0.512066 2.70221 57.2598
12818846 10.6052 12.948 17.5414 16.2861 0.473821 2.68584 57.3807
12818866 10.614 13.0401 17.5316 16.2956 0.517637 2.65472 57.4813
12818886 10.5788 13.0309 17.4134 16.229 0.553557 2.62859 57.2521
12818896 10.5347 13.0125 17.502 16.2861 0.550199 2.67923 57.3353
12818907 10.5347 13.0125 17.502 16.2861 0.550199 2.67923 57.3353
12818917 10.5788 13.0125 17.4233 16.2671 0.557554 2.6446 57.2816
12818927 10.6228 13.0217 17.4528 16.2671 0.528699 2.63459 57.3643
12818948 10.6404 13.0493 17.4528 16.3718 0.577185 2.64322 57.5143
12818957 10.6404 13.0493 17.4528 16.3718 0.577185 2.64322 57.5143
12818970 10.5876 13.0309 17.443 16.3623 0.593224 2.66096 57.4237
12818977 10.6228 12.9848 17.4725 16.229 0.487944 2.64195 57.3091
12818991 10.6228 12.9848 17.4725 16.229 0.487944 2.64195 57.3091
12818997 10.6492 13.0401 17.3544 16.2385 0.556463 2.59337 57.2822
12819007 10.614 13.0401 17.4627 16.2385 0.523913 2.6276 57.3553
12819017 10.614 13.0401 17.4627 16.2385 0.523913 2.6276 57.3553
12819027 10.658 13.0953 17.4134 16.248 0.553828 2.58856 57.4148
12819037 10.658 13.0953 17.4134 16.248 0.553828 2.58856 57.4148
12819047 10.614 13.0493 17.3347 16.2004 0.568664 2.58884 57.1984
12819057 10.5876 13.0217 17.3937 16.248 0.562608 2.62857 57.251
12819067 10.5876 13.0217 17.3937 16.248 0.562608 2.62857 57.251
12819077 10.5611 13.0309 17.4134 16.3337 0.606045 2.65659 57.3392
12819087 10.5435 12.9756 17.3642 16.3337 0.612402 2.66846 57.2171
12819107 10.5788 12.9756 17.4627 16.3147 0.54459 2.67468 57.3317
12819119 10.5788 12.9756 17.4627 16.3147 0.54459 2.67468 57.3317
12819128 10.5435 12.9296 17.5217 16.3147 0.514317 2.71245 57.3095
12819141 10.5435 12.9388 17.4823 16.3623 0.556099 2.71137 57.3269
12819148 10.5435 12.9388 17.4823 16.3623 0.556099 2.71137 57.3269
12819158 10.5083 12.8927 17.4725 16.3432 0.548431 2.73032 57.2168
12819174 10.5259 12.8835 17.502 16.4194 0.555968 2.75034 57.3308
12819183 10.5259 12.8835 17.502 16.4194 0.555968 2.75034 57.3308
12819189 10.5435 12.8191 17.6202 16.467 0.488409 2.80015 57.4497
12819199 10.5083 12.8191 17.5512 16.5431 0.567141 2.81261 57.4217
12819209 10.5083 12.8191 17.5512 16.5431 0.567141 2.81261 57.4217
12819219 10.5259 12.773 17.6497 16.5812 0.51218 2.85033 57.5298
12819229 10.5259 12.773 17.6497 16.5812 0.51218 2.85033 57.5298
12819239 10.4731 12.7546 17.6694 16.6002 0.527155 2.88064 57.4973
12819249 10.4466 12.8006 17.6497 16.5336 0.538883 2.85632 57.4306
12819269 10.5435 12.7546 17.6005 16.5812 0.518358 2.84018 57.4798
12819281 10.4731 12.7914 17.5906 16.4765 0.525123 2.82635 57.3316
12819291 10.4731 12.7914 17.5906 16.4765 0.525123 2.82635 57.3316
12819301 10.4554 12.7178 17.4823 16.486 0.553885 2.83379 57.1415
12819311 10.4554 12.7178 17.4823 16.486 0.553885 2.83379 57.1415
12819321 10.4026 12.6901 17.5512 16.4955 0.538957 2.87561 57.1395
12819331 10.4114 12.7086 17.6005 16.5241 0.53314 2.88357 57.2445
12819342 10.4114 12.7086 17.6005 16.5241 0.53314 2.88357 57.2445
12819352 10.4466 12.727 17.5808 16.5717 0.554386 2.87273 57.3261
12819361 10.4202 12.7546 17.63 16.6573 0.592449 2.90083 57.4621
12819381 10.385 12.7362 17.6103 16.6288 0.596964 2.90739 57.3602
12819394 10.385 12.7362 17.6103 16.6288 0.596964 2.90739 57.3602
12819402 10.3938 12.7086 17.6497 16.6954 0.592065 2.93557 57.4474
12819412 10.429 12.6809 17.6595 16.6764 0.552157 2.93127 57.4458
12819422 10.429 12.6809 17.6595 16.6764 0.552157 2.93127 57.4458
12819432 10.4202 12.6901 17.6202 16.724 0.597754 2.93287 57.4545
12819442 10.3233 12.6901 17.6694 16.7335 0.623053 2.97548 57.4163
12819452 10.3233 12.6533 17.6694 16.7335 0.607404 2.98702 57.3795
12819462 10.3762 12.6533 17.6694 16.8287 0.624239 2.99037 57.5275
12819472 10.3762 12.6533 17.6694 16.8287 0.624239 2.99037 57.5275
12819482 10.3409 12.6717 17.6103 16.8287 0.674111 2.98329 57.4516
12819493 10.3497 12.6165 17.6694 16.8667 0.636539 3.01811 57.5023
12819502 10.3497 12.6165 17.6694 16.8667 0.636539 3.01811 57.5023
12819512 10.2881 12.6441 17.6497 16.8191 0.664398 3.01475 57.401
12819524 10.2881 12.6441 17.6497 16.8191 0.664398 3.01475 57.401
12819532 10.244 12.6073 17.6891 16.7716 0.630635 3.03846 57.3119
12819547 10.2793 12.5796 17.6202 16.8382 0.662276 3.03558 57.3172
12819552 10.2793 12.5796 17.6202 16.8382 0.662276 3.03558 57.3172
12819562 10.244 12.552 17.6595 16.8096 0.636542 3.05764 57.2652
12819572 10.3233 12.6073 17.6595 16.8191 0.628629 3.01731 57.4092
12819582 10.3233 12.6073 17.6595 16.8191 0.628629 3.01731 57.4092
12819593 10.2969 12.552 17.7087 16.8001 0.586879 3.04927 57.3577
12819612 10.2264 12.552 17.6989 16.7811 0.614649 3.06546 57.2584
12819622 10.2617 12.5796 17.7973 16.8001 0.574851 3.0701 57.4387
12819634 10.2617 12.5796 17.7973 16.8001 0.574851 3.0701 57.4387
12819646 10.2969 12.6165 17.6792 16.7716 0.615332 3.01689 57.3641
12819653 10.2528 12.5981 17.7776 16.8191 0.603461 3.06694 57.4477
12819663 10.2528 12.5981 17.7776 16.8191 0.603461 3.06694 57.4477
12819674 10.3233 12.6441 17.7186 16.7335 0.581545 3.0002 57.4195
12819683 10.3233 12.6441 17.7186 16.7335 0.581545 3.0002 57.4195
12819696 10.3233 12.5796 17.758 16.724 0.532511 3.02666 57.3849
12819703 10.2881 12.6165 17.6989 16.724 0.590226 3.01382 57.3274
12819713 10.2881 12.6165 17.6989 16.724 0.590226 3.01382 57.3274
12819723 10.3321 12.5796 17.7284 16.743 0.549844 3.02171 57.3832
12819733 10.2793 12.5428 17.8269 16.7811 0.530091 3.07832 57.43
12819753 10.2617 12.5336 17.8564 16.7716 0.516817 3.09092 57.4232
12819763 10.2617 12.5336 17.8564 16.7716 0.516817 3.09092 57.4232
12819773 10.2088 12.506 17.817 16.8287 0.570425 3.11999 57.3605
12819783 10.2705 12.4875 17.8662 16.8287 0.513247 3.11653 57.4529
12819803 10.2705 12.4875 17.8662 16.8287 0.513247 3.11653 57.4529
12819804 10.2352 12.5428 17.8367 16.8953 0.593874 3.11789 57.51
12819824 10.2176 12.4599 17.8072 16.8858 0.575596 3.14154 57.3705
12819826 10.2176 12.4599 17.8072 16.8858 0.575596 3.14154 57.3705
12819834 10.1912 12.5244 17.7875 16.8001 0.587144 3.10769 57.3032
12819854 10.1912 12.5152 17.8072 16.8287 0.586593 3.1206 57.3422
12819868 10.1824 12.552 17.7776 16.8477 0.627476 3.10957 57.3597
12819874 10.1824 12.552 17.7776 16.8477 0.627476 3.10957 57.3597
12819884 10.2088 12.5704 17.758 16.8096 0.616112 3.08344 57.3468
12819894 10.2088 12.5428 17.8367 16.8572 0.589472 3.11835 57.4455
12819904 10.2088 12.5428 17.8367 16.8572 0.589472 3.11835 57.4455
12819914 10.1912 12.552 17.8367 16.8382 0.593144 3.11706 57.4181
12819934 10.1736 12.506 17.8466 16.9239 0.613439 3.15689 57.4499
12819944 10.1824 12.506 17.8859 16.9714 0.612161 3.17201 57.5457
12819956 10.1824 12.506 17.8859 16.9714 0.612161 3.17201 57.5457
12819965 10.2352 12.4967 17.8466 16.9048 0.573984 3.1364 57.4834
12819975 10.156 12.4507 17.945 16.981 0.578246 3.21191 57.5326
12819984 10.156 12.4507 17.945 16.981 0.578246 3.21191 57.5326
12819998 10.1648 12.377 17.8564 16.981 0.582454 3.21429 57.3792
12820014 10.0855 12.4139 17.8466 16.8953 0.601453 3.20813 57.2412
12820024 10.0767 12.3862 17.8958 16.9905 0.612158 3.24939 57.3492
12820034 10.0767 12.3862 17.8958 16.9905 0.612158 3.24939 57.3492
12820044 10.0767 12.2941 17.8761 16.9714 0.573605 3.27081 57.2184
12820064 9.99741 12.3218 17.9056 16.9429 0.595459 3.28752 57.1677
12820074 10.015 12.3402 17.9056 16.981 0.611666 3.2838 57.2418
12820085 10.015 12.3402 17.9056 16.981 0.611666 3.2838 57.2418
12820094 10.0415 12.3862 17.945 17 0.609958 3.27263 57.3727
12820107 10.0767 12.3494 17.9942 17.039 0.573224 3.29114 57.4593
12820124 10.0855 12.3126 18.0434 17.1072 0.560749 3.32393 57.5487
12820136 10.0855 12.3126 18.0434 17.1072 0.560749 3.32393 57.5487
12820146 10.0591 12.2757 18.0434 17.1072 0.556836 3.3441 57.4854
12820159 10.0503 12.2941 18.1025 17.1364 0.554755 3.35891 57.5833
12820166 10.0503 12.2941 18.1025 17.1364 0.554755 3.35891 57.5833
12820180 10.0238 12.2113 18.0533 17.0682 0.524071 3.37007 57.3566
12820186 10.015 12.2205 18.0926 17.039 0.501931 3.37199 57.3671
12820206 10.0503 12.2757 18.0631 17.1364 0.56442 3.35682 57.5255
12820217 9.97979 12.2757 18.0828 17.0487 0.549707 3.36557 57.387
12820227 9.97979 12.2573 18.0828 17.0487 0.54186 3.37146 57.3686
12820237 9.9886 12.2021 18.1025 17.0585 0.50976 3.39231 57.3516
12820247 9.9886 12.2021 18.1025 17.0585 0.50976 3.39231 57.3516
12820257 10.0679 12.2389 18.1714 17.0487 0.455585 3.36712 57.5269
12820268 10.0062 12.2481 18.0926 17.0487 0.521794 3.36795 57.3957
12820277 10.0062 12.2481 18.0926 17.0487 0.521794 3.36795 57.3957
12820287 10.015 12.2297 18.1025 17.0097 0.489005 3.36512 57.3569
12820297 10.015 12.2297 18.1025 17.0097 0.489005 3.36512 57.3569
12820307 10.0415 12.2389 18.073 17 0.490156 3.34574 57.3533
12820317 10.0591 12.2665 18.1419 17.0097 0.467721 3.34724 57.4772
12820327 10.0591 12.2665 18.1419 17.0097 0.467721 3.34724 57.4772
12820337 10.0767 12.1836 18.0631 17.0097 0.459412 3.35213 57.3332
12820347 10.0326 12.2205 18.1419 17.0585 0.480574 3.38027 57.4534
12820367 10.0503 12.2113 18.2009 17.0974 0.459304 3.39737 57.5599
12820378 10.0503 12.2113 18.2009 17.0974 0.459304 3.39737 57.5599
12820388 9.9886 12.1744 18.1812 17.0487 0.45881 3.41512 57.393
12820398 10.0326 12.1744 18.2206 17.0779 0.434354 3.41483 57.5056
12820408 10.0326 12.1744 18.2206 17.0779 0.434354 3.41483 57.5056
12820418 9.99741 12.1928 18.1911 17.0779 0.470898 3.41427 57.4593
12820429 10.0062 12.1744 18.1616 17 0.438884 3.39564 57.3422
12820454 10.0326 12.1928 18.2108 17.0195 0.421596 3.39516 57.4557
12820458 10.0238 12.1652 18.1714 17.0097 0.426936 3.39691 57.3702
12820478 9.99741 12.1836 18.2108 17.0487 0.445753 3.4153 57.4405
12820498 10.0679 12.1836 18.1616 17.039 0.432178 3.38082 57.452
12820508 10.0062 12.1744 18.2206 17.0877 0.450209 3.42526 57.4889
12820531 10.0679 12.2389 18.26 17 0.395644 3.37518 57.5668
12820539 10.0238 12.1468 18.2305 17 0.388718 3.41278 57.4011
12820562 10.0326 12.1744 18.2305 17.0097 0.400835 3.40307 57.4473
12820569 10.0326 12.1744 18.2305 17.0097 0.400835 3.40307 57.4473
12820584 9.9886 12.0731 18.2501 16.9905 0.359875 3.44983 57.3024
12820591 10.0415 12.0731 18.319 17.0097 0.314385 3.45058 57.4434
12820601 10.0415 12.0731 18.319 17.0097 0.314385 3.45058 57.4434
12820611 10.0238 12.1284 18.26 16.9714 0.355506 3.41889 57.3837
12820621 9.99741 12.1284 18.2797 16.981 0.362569 3.43326 57.3864
12820631 9.99741 12.1284 18.2797 16.981 0.362569 3.43326 57.3864
12820641 10.0503 12.0731 18.2895 17.1169 0.369486 3.46334 57.5298
12820651 10.0503 12.0731 18.2895 17.1169 0.369486 3.46334 57.5298
12820661 9.9886 12.11 18.2305 17.0487 0.4094 3.44574 57.3777
12820671 10.0679 12.0547 18.2994 17.0682 0.328609 3.4558 57.4901
12820693 10.0679 12.1468 18.2895 17.0487 0.364065 3.42039 57.5529
12820701 10.0679 12.1468 18.2895 17.0487 0.364065 3.42039 57.5529
12820711 9.9886 12.0823 18.3486 17.0779 0.357881 3.48422 57.4975
12820721 9.97979 12.11 18.3387 17.0974 0.386289 3.4801 57.5259
12820731 9.97979 12.11 18.3387 17.0974 0.386289 3.4801 57.5259
12820741 10.015 12.0271 18.2797 17.0974 0.361297 3.48359 57.4192
12820751 10.015 11.9995 18.3387 17.1461 0.344276 3.51406 57.4994
12820771 9.97979 12.0087 18.2501 17.1266 0.394568 3.50081 57.3653
12820791 9.90933 12.0087 18.319 17.1656 0.41196 3.54513 57.4027
12820801 9.84767 11.9718 18.3092 17.2241 0.452909 3.58669 57.3528
12820822 9.8829 12.0455 18.2994 17.1948 0.460654 3.54367 57.4226
12820831 9.84767 12.0087 18.2797 17.2241 0.481778 3.56888 57.3601
12820844 9.84767 12.0087 18.2797 17.2241 0.481778 3.56888 57.3601
12820852 9.94456 12.0455 18.2994 17.263 0.462458 3.53738 57.5525
12820865 9.94456 12.0455 18.2994 17.263 0.462458 3.53738 57.5525
12820872 9.8829 11.9534 18.2305 17.2728 0.485194 3.57526 57.3396
12820885 9.89171 11.9718 18.2501 17.3117 0.497049 3.57812 57.4254
12820892 9.89171 11.9718 18.2501 17.3117 0.497049 3.57812 57.4254
12820902 9.89171 12.0363 18.2009 17.2241 0.509012 3.52998 57.353
12820912 9.92694 12.0363 18.1911 17.2728 0.518504 3.52637 57.4271
12820922 9.92694 12.0363 18.1911 17.2728 0.518504 3.52637 57.4271
12820932 9.93575 12.0363 18.2009 17.2533 0.50191 3.52161 57.4263
12820942 9.93575 12.0363 18.2009 17.2533 0.50191 3.52161 57.4263
12820952 9.89171 12.0087 18.2108 17.2143 0.488666 3.53893 57.3255
12820962 9.90933 12.0271 18.2501 17.2728 0.496176 3.54682 57.4593
12820982 9.91813 11.9995 18.2698 17.2825 0.475907 3.55875 57.4699
12820993 9.90933 11.9995 18.2403 17.302 0.501224 3.5596 57.4511
12821013 9.90933 12.0731 18.2009 17.3117 0.554234 3.52992 57.4951
12821023 9.90933 12.0731 18.2009 17.3117 0.554234 3.52992 57.4951
12821033 9.87409 12.0179 18.1812 17.2533 0.530225 3.54353 57.3265
12821043 9.86528 12.0455 18.2206 17.3117 0.55331 3.55697 57.4431
12821053 9.86528 12.0455 18.2206 17.3117 0.55331 3.55697 57.4431
12821063 9.84767 12.1008 18.132 17.263 0.603428 3.51739 57.3435
12821078 9.89171 12.0455 18.1714 17.1851 0.509435 3.51329 57.2937
12821087 9.89171 12.0455 18.1714 17.1851 0.509435 3.51329 57.2937
12821096 9.89171 12.0455 18.2403 17.2923 0.524518 3.54848 57.4698
12821104 9.89171 12.0455 18.2403 17.2923 0.524518 3.54848 57.4698
12821114 9.87409 12.0363 18.1616 17.2436 0.542697 3.53169 57.3155
12821123 9.89171 12.0363 18.2305 17.3215 0.537413 3.55531 57.4799
12821135 9.89171 12.0363 18.2305 17.3215 0.537413 3.55531 57.4799
12821144 9.90933 12.0547 18.26 17.302 0.51603 3.54569 57.526
12821156 9.92694 12.0823 18.1616 17.2923 0.559536 3.50952 57.4631
12821177 9.90052 12.156 18.2009 17.3799 0.622213 3.51968 57.6374
12821184 9.90052 12.156 18.2009 17.3799 0.622213 3.51968 57.6374
12821194 9.90052 12.0639 18.0926 17.3117 0.602466 3.51409 57.3688
12821207 9.93575 12.1376 18.1025 17.2728 0.597113 3.47317 57.4486
12821214 9.93575 12.1376 18.1025 17.2728 0.597113 3.47317 57.4486
12821224 9.90933 12.11 18.0336 17.2728 0.62792 3.47673 57.3257
12821235 9.89171 12.0547 18.0533 17.3605 0.640774 3.52178 57.3602
12821254 9.90933 12.1008 18.0926 17.3897 0.647247 3.51496 57.4924
12821264 9.90933 12.1008 18.0926 17.3897 0.647247 3.51496 57.4924
12821276 9.84767 12.0731 18.0926 17.3897 0.663075 3.54376 57.4031
12821286 9.8829 12.0731 18.1616 17.3605 0.604203 3.5403 57.478
12821306 9.90933 12.0823 18.073 17.4384 0.668857 3.52669 57.503
12821316 9.90052 12.1376 18.0828 17.3897 0.671163 3.50398 57.5106
12821327 9.90052 12.1376 18.0828 17.3897 0.671163 3.50398 57.5106
12821336 9.90052 12.1468 18.0533 17.4092 0.696483 3.499 57.5098
12821349 9.90052 12.1468 18.0533 17.4092 0.696483 3.499 57.5098
12821356 9.90052 12.0915 18.0041 17.3605 0.67448 3.49719 57.3566
12821366 9.92694 12.1744 17.9548 17.3215 0.703296 3.44427 57.3777
12821376 9.92694 12.1744 17.9548 17.3215 0.703296 3.44427 57.3777
12821386 9.90933 12.1468 17.9844 17.3507 0.698638 3.47064 57.3912
12821396 9.91813 12.1468 17.9155 17.2825 0.696665 3.44019 57.2629
12821416 9.9886 12.2205 17.9155 17.3799 0.737488 3.41356 57.5045
12821427 9.9886 12.2205 17.9155 17.3799 0.737488 3.41356 57.5045
12821438 9.93575 12.1928 17.8662 17.2728 0.726256 3.40779 57.2676
12821447 10.0062 12.2665 17.9548 17.3215 0.706771 3.38935 57.5491
12821457 10.0062 12.2665 17.9548 17.3215 0.706771 3.38935 57.5491
12821467 9.93575 12.2665 17.9351 17.2338 0.71004 3.39021 57.3712
12821477 9.96218 12.3034 17.9155 17.2728 0.739074 3.37385 57.4538
12821487 9.96218 12.3034 17.9155 17.2728 0.739074 3.37385 57.4538
12821498 10.015 12.331 17.945 17.2338 0.697428 3.34624 57.5248
12821507 10.015 12.331 17.945 17.2338 0.697428 3.34624 57.5248
12821517 9.97979 12.2573 17.8761 17.2533 0.721124 3.37103 57.3665
12821529 9.9886 12.2573 17.8662 17.2046 0.700954 3.35633 57.3167
12821540 9.9886 12.2573 17.8662 17.2046 0.700954 3.35633 57.3167
12821547 9.95337 12.2573 17.8958 17.1656 0.686979 3.3657 57.2721
12821557 9.99741 12.2481 17.9253 17.1851 0.658384 3.36449 57.3559
12821577 10.015 12.2941 17.9844 17.2241 0.660157 3.36399 57.5176
12821597 9.97098 12.1928 17.9155 17.2143 0.663573 3.39461 57.2936
12821607 10.0238 12.2665 17.9942 17.1948 0.627756 3.36608 57.4794
12821618 10.0238 12.2665 17.9942 17.1948 0.627756 3.36608 57.4794
12821628 10.0415 12.2481 17.9253 17.2436 0.66348 3.36225 57.4584
12821639 9.9886 12.1836 17.9548 17.2436 0.646567 3.40579 57.3706
12821658 10.0238 12.2941 17.9647 17.2046 0.656766 3.35325 57.4872
12821672 10.0238 12.2941 17.9647 17.2046 0.656766 3.35325 57.4872
12821678 9.97979 12.2297 17.9745 17.2338 0.657108 3.39586 57.4178
12821688 10.015 12.2297 17.9253 17.1656 0.634411 3.36079 57.3356
12821698 10.015 12.2297 17.9253 17.1656 0.634411 3.36079 57.3356
12821708 10.0062 12.2297 17.8859 17.1461 0.647685 3.35165 57.268
12821718 10.015 12.2573 17.945 17.1851 0.645614 3.3599 57.4024
12821734 10.015 12.2573 17.945 17.1851 0.645614 3.3599 57.4024
12821739 10.0326 12.2757 17.9155 17.2241 0.675267 3.3503 57.4479
12821749 10.0326 12.2757 17.9155 17.2241 0.675267 3.3503 57.4479
12821762 10.0591 12.3034 17.8958 17.2046 0.675699 3.32509 57.4628
12821769 10.0679 12.2665 17.9155 17.1559 0.626707 3.32814 57.4057
12821783 10.0679 12.2665 17.9155 17.1559 0.626707 3.32814 57.4057
12821789 10.0679 12.3494 17.8958 17.039 0.621045 3.27385 57.352
12821799 10.0855 12.4323 17.8269 17.0877 0.699782 3.23775 57.4323
12821809 10.0855 12.4323 17.8269 17.0877 0.699782 3.23775 57.4323
12821819 10.0767 12.4783 17.7678 17.039 0.72906 3.20381 57.3618
12821830 10.0767 12.4783 17.7678 17.039 0.72906 3.20381 57.3618
12821842 10.1295 12.4231 17.7875 17.0487 0.677294 3.21062 57.3888
12821854 10.1472 12.4599 17.7875 17.0195 0.672638 3.18735 57.414
12821859 10.1472 12.4599 17.7875 17.0195 0.672638 3.18735 57.414
12821869 10.1648 12.4231 17.7383 17 0.66289 3.17929 57.3261
12821879 10.1648 12.4231 17.7383 17 0.66289 3.17929 57.3261
12821889 10.156 12.4507 17.7284 17.0097 0.687096 3.17331 57.3448
12821899 10.1648 12.4507 17.7776 17.0097 0.661132 3.18066 57.4029
12821909 10.1648 12.4507 17.7776 17.0097 0.661132 3.18066 57.4029
12821921 10.1383 12.4875 17.7678 16.9429 0.664622 3.16155 57.3366
12821929 10.1824 12.5152 17.7875 16.8667 0.615513 3.1272 57.3518
12821943 10.1824 12.5152 17.7875 16.8667 0.615513 3.1272 57.3518
12821949 10.2 12.5336 17.7186 16.8953 0.658399 3.10745 57.3475
12821959 10.2 12.5336 17.7186 16.8953 0.658399 3.10745 57.3475
12821970 10.244 12.5612 17.7383 16.8001 0.601202 3.06916 57.3436
12821979 10.2528 12.5428 17.7284 16.8287 0.605977 3.07608 57.3527
12821989 10.2528 12.5428 17.7284 16.8287 0.605977 3.07608 57.3527
12821999 10.2705 12.6809 17.6891 16.7525 0.642034 3.00303 57.393
12822010 10.2881 12.6994 17.6891 16.6193 0.585327 2.9638 57.2958
12822019 10.2881 12.6994 17.6891 16.6193 0.585327 2.9638 57.2958
12822029 10.3057 12.7454 17.6792 16.6859 0.629777 2.95579 57.4162
12822039 10.3057 12.7454 17.6792 16.6859 0.629777 2.95579 57.4162
12822049 10.2793 12.7454 17.6694 16.6669 0.637892 2.95799 57.3609
12822067 10.3145 12.6994 17.6595 16.6097 0.582659 2.94731 57.2831
12822071 10.3145 12.6994 17.6595 16.6097 0.582659 2.94731 57.2831
12822081 10.3409 12.7638 17.6694 16.6193 0.597966 2.92295 57.3934
12822091 10.3321 12.6901 17.6103 16.6193 0.596911 2.93632 57.2518
12822101 10.3321 12.6901 17.6103 16.6193 0.596911 2.93632 57.2518
12822114 10.3674 12.7638 17.6694 16.6478 0.59832 2.92071 57.4484
12822121 10.3674 12.7638 17.6694 16.6478 0.59832 2.92071 57.4484
12822131 10.2881 12.727 17.63 16.6859 0.651827 2.95673 57.3309
12822140 10.3409 12.727 17.6595 16.6097 0.582635 2.93039 57.3372
12822154 10.3409 12.727 17.6595 16.6097 0.582635 2.93039 57.3372
12822160 10.3233 12.8006 17.6989 16.6002 0.600219 2.91916 57.4231
12822170 10.385 12.7178 17.6497 16.6288 0.571567 2.92144 57.3812
12822190 10.3585 12.7362 17.6497 16.7049 0.623542 2.93995 57.4493
12822202 10.3585 12.7362 17.6497 16.7049 0.623542 2.93995 57.4493
12822212 10.2705 12.6625 17.7186 16.6954 0.59675 3.00304 57.347
12822222 10.2705 12.6165 17.7481 16.6859 0.559908 3.02169 57.3209
12822232 10.2705 12.6165 17.7481 16.6859 0.559908 3.02169 57.3209
12822242 10.2881 12.7178 17.7186 16.762 0.640643 2.99412 57.4865
12822254 10.2705 12.6349 17.7678 16.8287 0.619668 3.04976 57.5018
12822262 10.2705 12.6349 17.7678 16.8287 0.619668 3.04976 57.5018
12822272 10.3321 12.6165 17.758 16.762 0.560489 3.02028 57.4686
12822282 10.3321 12.6165 17.758 16.762 0.560489 3.02028 57.4686
12822292 10.244 12.5888 17.7875 16.7525 0.57075 3.0608 57.3729
12822302 10.2969 12.5888 17.758 16.743 0.556308 3.03604 57.3867
12822312 10.2969 12.5888 17.758 16.743 0.556308 3.03604 57.3867
12822322 10.244 12.5981 17.7383 16.8001 0.616869 3.05756 57.3805
12822332 10.1912 12.4967 17.758 16.7716 0.576377 3.10436 57.2175
12822352 10.2 12.4507 17.8466 16.8572 0.549814 3.15226 57.3545
12822362 10.2 12.4507 17.8466 16.8572 0.549814 3.15226 57.3545
12822374 10.1736 12.4047 17.8761 16.8191 0.512519 3.17346 57.2735
12822384 10.1472 12.4783 17.9253 16.9143 0.574353 3.18824 57.4651
12822393 10.1472 12.4783 17.9253 16.9143 0.574353 3.18824 57.4651
12822403 10.1912 12.4047 17.8662 16.9143 0.549686 3.18547 57.3764
12822413 10.1648 12.377 17.8662 16.9143 0.54968 3.20262 57.3224
12822423 10.1648 12.377 17.8662 16.9143 0.54968 3.20262 57.3224
12822433 10.1648 12.331 17.9351 17.0195 0.544187 3.25295 57.4504
12822443 10.1648 12.331 17.9351 17.0195 0.544187 3.25295 57.4504
12822454 10.1207 12.3218 18.0139 17.0585 0.541431 3.29389 57.5149
12822463 10.0855 12.2757 18.0237 17.0682 0.537261 3.32376 57.4532
12822474 10.0855 12.2757 18.0237 17.0682 0.537261 3.32376 57.4532
12822483 10.0767 12.2389 18.0434 17.0779 0.520882 3.34431 57.4369
12822494 10.0943 12.1376 18.0237 17.1754 0.520152 3.38681 57.431
12822503 10.0943 12.1376 18.0237 17.1754 0.520152 3.38681 57.431
12822513 9.99741 12.2113 18.1025 17.1948 0.567859 3.41407 57.506
12822533 10.015 12.156 18.0926 17.1851 0.536758 3.42219 57.4488
12822544 10.0238 12.11 18.132 17.2338 0.516489 3.45185 57.4996
12822554 10.0238 12.11 18.132 17.2338 0.516489 3.45185 57.4996
12822564 10.0326 12.156 18.1123 17.2533 0.549191 3.43423 57.5543
12822577 10.0062 12.1008 18.0139 17.2436 0.577098 3.43867 57.3644
12822584 10.0062 12.1008 18.0139 17.2436 0.577098 3.43867 57.3644
12822594 9.9886 12.1652 17.9942 17.2338 0.617015 3.41768 57.3818
12822604 9.9886 12.1652 17.9942 17.2338 0.617015 3.41768 57.3818
12822614 10.0238 12.2481 17.9155 17.2436 0.67575 3.36589 57.431
12822624 10.015 12.2849 17.8859 17.1948 0.687873 3.34105 57.3807
12822634 10.015 12.2849 17.8859 17.1948 0.687873 3.34105 57.3807
12822644 10.0326 12.3218 17.8662 17.1266 0.675508 3.30577 57.3473
12822654 10.0326 12.3218 17.8662 17.1266 0.675508 3.30577 57.3473
12822668 10.0591 12.3126 17.8859 17.1851 0.67575 3.31619 57.4427
12822674 10.0591 12.2757 17.8859 17.1461 0.643608 3.32001 57.3669
12822694 10.0238 12.3034 17.8269 17.1169 0.685149 3.30444 57.271
12822704 10.1119 12.3494 17.8662 17.0779 0.631115 3.26176 57.4055
12822724 10.1031 12.3678 17.817 17.0585 0.656599 3.24463 57.3464
12822736 10.0679 12.377 17.817 17.1559 0.717548 3.27285 57.4178
12822746 10.0679 12.377 17.817 17.1559 0.717548 3.27285 57.4178
12822756 10.0767 12.4139 17.7875 17.0585 0.701186 3.23234 57.3365
12822765 10.0767 12.4139 17.7875 17.0585 0.701186 3.23234 57.3365
12822777 10.1383 12.3954 17.7973 17.0487 0.657237 3.21862 57.3798
12822786 10.1031 12.4323 17.7186 17.1169 0.752774 3.21594 57.3709
12822795 10.1031 12.4323 17.7186 17.1169 0.752774 3.21594 57.3709
12822805 10.1295 12.3862 17.758 17.1072 0.699672 3.22826 57.3809
12822816 10.1295 12.3862 17.7678 17.1072 0.695264 3.23028 57.3907
12822825 10.0767 12.3678 17.7678 17.1364 0.723523 3.25893 57.3487
12822835 10.1031 12.5152 17.7875 17.1559 0.773275 3.2118 57.5616
12822845 10.1031 12.5152 17.7875 17.1559 0.773275 3.2118 57.5616
12822855 10.0503 12.4231 17.758 17.1851 0.78373 3.25771 57.4164
12822865 10.1295 12.4323 17.6891 17.1851 0.782955 3.21549 57.436
12822875 10.1295 12.4323 17.6891 17.1851 0.782955 3.21549 57.436
12822887 10.1736 12.3586 17.7186 17.1851 0.718865 3.23095 57.4359
12822895 10.1736 12.3586 17.7186 17.1851 0.718865 3.23095 57.4359
12822907 10.0591 12.3954 17.6792 17.2046 0.811741 3.25156 57.3383
12822917 10.1031 12.3494 17.6398 17.2241 0.798431 3.24812 57.3164
12822927 10.1031 12.3494 17.6398 17.2241 0.798431 3.24812 57.3164
12822937 10.0855 12.4691 17.6595 17.1559 0.819233 3.20571 57.37
12822947 10.0855 12.4507 17.63 17.1948 0.841191 3.2135 57.361
12822967 10.1472 12.4415 17.6202 17.1851 0.809881 3.19283 57.3939
12822977 10.1472 12.4415 17.6202 17.1851 0.809881 3.19283 57.3939
12822987 10.0943 12.4691 17.5709 17.2143 0.879803 3.19672 57.3487
12823004 10.1119 12.4783 17.63 17.263 0.869584 3.21035 57.4833
12823015 10.1119 12.4783 17.63 17.263 0.869584 3.21035 57.4833
12823018 10.1472 12.4967 17.6497 17.2436 0.844443 3.19342 57.5371
12823027 10.1383 12.4507 17.6694 17.3117 0.848854 3.22877 57.5702
12823037 10.1383 12.4507 17.6694 17.3117 0.848854 3.22877 57.5702
12823047 10.156 12.4507 17.6694 17.3215 0.845033 3.22519 57.5975
12823068 10.0591 12.377 17.6694 17.2825 0.841254 3.27136 57.388
12823083 10.0591 12.3678 17.6005 17.2923 0.872543 3.26219 57.3196
12823089 10.0591 12.3678 17.6005 17.2923 0.872543 3.26219 57.3196
12823098 10.0591 12.3494 17.6398 17.2825 0.842923 3.27412 57.3308
12823108 10.0503 12.3586 17.6103 17.3702 0.900969 3.28588 57.3894
12823128 10.0415 12.331 17.5808 17.341 0.894389 3.2855 57.2942
12823139 10.0326 12.3954 17.6398 17.3312 0.894699 3.27783 57.3992
12823149 10.0326 12.3954 17.6398 17.3312 0.894699 3.27783 57.3992
12823162 10.0855 12.4139 17.5512 17.3799 0.938991 3.24701 57.4305
12823169 10.0855 12.4139 17.5512 17.3799 0.938991 3.24701 57.4305
12823186 10.0326 12.377 17.5512 17.302 0.914705 3.25959 57.2629
12823189 10.0591 12.4691 17.5709 17.2923 0.928444 3.22392 57.3914
12823199 10.0591 12.4691 17.5709 17.2923 0.928444 3.22392 57.3914
12823211 10.1207 12.4415 17.63 17.2338 0.837854 3.21324 57.426
12823219 10.1207 12.4415 17.63 17.2338 0.837854 3.21324 57.426
12823230 10.1031 12.3954 17.5808 17.3702 0.90591 3.25131 57.4495
12823239 10.1383 12.506 17.6005 17.2436 0.874397 3.18318 57.4883
12823250 10.1383 12.506 17.6005 17.2436 0.874397 3.18318 57.4883
12823259 10.1119 12.506 17.502 17.2728 0.942972 3.1773 57.3927
12823270 10.1824 12.5244 17.4627 17.1948 0.903952 3.12496 57.3643
12823290 10.1824 12.5244 17.4627 17.1948 0.903952 3.12496 57.3643
12823292 10.1736 12.552 17.5217 17.1851 0.888792 3.12922 57.4324
12823299 10.1736 12.552 17.5217 17.1851 0.888792 3.12922 57.4324
12823309 10.1383 12.5612 17.4725 17.1169 0.902131 3.11313 57.289
12823319 10.1295 12.5152 17.5611 17.1656 0.86723 3.15889 57.3714
12823329 10.1295 12.5152 17.5611 17.1656 0.86723 3.15889 57.3714
12823339 10.1824 12.5704 17.5611 17.1559 0.862548 3.12273 57.4698
12823351 10.1736 12.4507 17.5808 17.1072 0.786707 3.15735 57.3122
12823371 10.1736 12.5244 17.5709 17.1851 0.85502 3.14811 57.454
12823391 10.1383 12.5336 17.5709 17.1559 0.86247 3.1503 57.3987
12823400 10.1648 12.4875 17.63 17.2436 0.841504 3.18672 57.5259
12823411 10.1648 12.4875 17.63 17.2436 0.841504 3.18672 57.5259
12823421 10.1824 12.4875 17.6202 17.1851 0.813439 3.1671 57.4752
12823431 10.1295 12.5336 17.6005 17.1656 0.857234 3.16119 57.4292
12823441 10.1295 12.5336 17.6005 17.1656 0.857234 3.16119 57.4292
12823451 10.1736 12.5152 17.6497 17.1851 0.815758 3.16724 57.5235
12823471 10.1648 12.4415 17.63 17.1072 0.764644 3.17322 57.3434
12823481 10.1472 12.4783 17.5808 17.1364 0.822598 3.16301 57.3426
12823491 10.1472 12.4783 17.5808 17.1364 0.822598 3.16301 57.3426
12823503 10.1648 12.4967 17.5709 17.1169 0.818646 3.14554 57.3494
12823512 10.1383 12.4783 17.5808 17.0974 0.810122 3.15775 57.2949
12823533 10.1912 12.4691 17.6005 17.1461 0.794151 3.15806 57.4069
12823541 10.1912 12.4691 17.6005 17.1461 0.794151 3.15806 57.4069
12823559 10.1912 12.4967 17.63 17.1072 0.776109 3.14737 57.4251
12823562 10.1824 12.5244 17.63 17.1266 0.799921 3.14545 57.4634
12823572 10.1824 12.5244 17.63 17.1266 0.799921 3.14545 57.4634
12823584 10.2617 12.4967 17.6694 17.0585 0.706333 3.1232 57.4862
12823592 10.2617 12.5796 17.6005 16.981 0.739461 3.06677 57.4227
12823612 10.2617 12.5796 17.5808 16.9905 0.752309 3.06465 57.4125
12823622 10.2617 12.5796 17.5808 16.9905 0.752309 3.06465 57.4125
12823637 10.2 12.5244 17.5808 16.9143 0.724375 3.08568 57.2195
12823651 10.244 12.5612 17.6398 16.9619 0.713879 3.08233 57.407
12823659 10.244 12.5612 17.6398 16.9619 0.713879 3.08233 57.407
12823663 10.244 12.552 17.6497 16.981 0.713626 3.09123 57.4267
12823673 10.244 12.5336 17.6497 16.9524 0.693744 3.09111 57.3797
12823683 10.244 12.5336 17.6497 16.9524 0.693744 3.09111 57.3797
12823693 10.2352 12.5428 17.6497 16.9524 0.701588 3.09098 57.3801
12823703 10.2352 12.5428 17.6497 16.9524 0.701588 3.09098 57.3801
12823714 10.244 12.4967 17.7284 16.9143 0.626752 3.11116 57.3836
12823723 10.2617 12.5428 17.7087 16.9714 0.671414 3.09885 57.4846
12823743 10.2528 12.4875 17.6497 16.9048 0.650069 3.09297 57.2949
12823756 10.2881 12.4967 17.6497 16.9239 0.646305 3.08291 57.3584
12823763 10.2881 12.4967 17.6497 16.9239 0.646305 3.08291 57.3584
12823780 10.3145 12.5336 17.7087 17.0292 0.668374 3.09707 57.5861
12823783 10.3145 12.5336 17.7087 17.0292 0.668374 3.09707 57.5861
12823793 10.2969 12.506 17.6989 16.8858 0.608122 3.07954 57.3875
12823803 10.3145 12.5981 17.6792 16.7811 0.603685 3.01913 57.3728
12823823 10.2705 12.5796 17.6398 16.7716 0.629079 3.02855 57.2615
12823833 10.2969 12.552 17.6891 16.743 0.571331 3.03325 57.281
12823843 10.2969 12.552 17.6891 16.743 0.571331 3.03325 57.281
12823853 10.2969 12.5428 17.6497 16.7144 0.572807 3.02194 57.2038
12823875 10.3497 12.506 17.5611 16.7049 0.568986 2.99632 57.1217
12823884 10.3321 12.5428 17.5414 16.7811 0.633919 3.00212 57.1974
12823899 10.3321 12.5428 17.5414 16.7811 0.633919 3.00212 57.1974
12823904 10.3497 12.5981 17.63 16.8096 0.622064 3.00375 57.3874
12823914 10.3762 12.6257 17.6398 16.8096 0.617614 2.98887 57.4513
12823934 10.4026 12.6257 17.6103 16.8477 0.635147 2.98239 57.4863
12823944 10.4026 12.6257 17.6103 16.8477 0.635147 2.98239 57.4863
12823954 10.4114 12.6625 17.5611 16.8001 0.648618 2.94784 57.4351
12823964 10.385 12.7178 17.5512 16.743 0.664037 2.92476 57.397
12823974 10.385 12.7178 17.5512 16.743 0.664037 2.92476 57.397
12823994 10.4114 12.6901 17.4725 16.743 0.675735 2.90855 57.317
12824004 10.3938 12.6165 17.443 16.6954 0.645304 2.92084 57.1486
12824015 10.4114 12.6349 17.5414 16.6859 0.597125 2.92832 57.2736
12824034 10.3938 12.6257 17.502 16.6573 0.606522 2.92239 57.1788
12824044 10.4026 12.6717 17.5611 16.762 0.640309 2.93972 57.3974
12824055 10.4026 12.6717 17.5611 16.762 0.640309 2.93972 57.3974
12824066 10.4378 12.6809 17.5414 16.724 0.621107 2.91368 57.3841
12824076 10.4378 12.6809 17.5808 16.724 0.603539 2.92197 57.4235
12824086 10.4202 12.6994 17.5808 16.6478 0.586846 2.90568 57.3481
12824101 10.5083 12.7454 17.502 16.6193 0.590125 2.8412 57.375
12824106 10.5083 12.7454 17.502 16.6193 0.590125 2.8412 57.375
12824117 10.4554 12.7178 17.4725 16.6288 0.619215 2.86202 57.2745
12824126 10.4466 12.7178 17.4528 16.5812 0.611693 2.8505 57.1984
12824138 10.4466 12.7178 17.4528 16.5812 0.611693 2.8505 57.1984
12824146 10.5259 12.7914 17.4823 16.6002 0.602534 2.81321 57.3999
12824156 10.4995 12.7914 17.443 16.6288 0.644049 2.81912 57.3627
12824166 10.4995 12.6994 17.443 16.6288 0.604883 2.84777 57.2706
12824176 10.4995 12.773 17.5512 16.6288 0.58791 2.84779 57.4525
12824187 10.4995 12.773 17.5512 16.6288 0.58791 2.84779 57.4525
12824196 10.5259 12.8191 17.4134 16.5526 0.624821 2.77985 57.311
12824209 10.5788 12.8651 17.4725 16.5526 0.594449 2.76182 57.469
12824216 10.5788 12.8651 17.4725 16.5526 0.594449 2.76182 57.469
12824228 10.5435 12.8651 17.4823 16.505 0.585532 2.76467 57.396
12824247 10.5788 12.8375 17.502 16.505 0.549316 2.76651 57.4233
12824255 10.5259 12.8559 17.4823 16.467 0.573257 2.76486 57.3311
12824267 10.5259 12.8559 17.4823 16.467 0.573257 2.76486 57.3311
12824287 10.5611 12.8006 17.5808 16.4479 0.482073 2.78798 57.3905
12824288 10.4907 12.7914 17.5906 16.5336 0.541639 2.83299 57.4063
12824297 10.4907 12.7914 17.5906 16.5336 0.541639 2.83299 57.4063
12824321 10.5523 12.7914 17.5316 16.5146 0.532371 2.79727 57.3899
12824329 10.4819 12.7822 17.4922 16.5622 0.597686 2.82376 57.3184
12824338 10.4554 12.8099 17.5414 16.6097 0.619492 2.84392 57.4164
12824348 10.4554 12.8099 17.5414 16.6097 0.619492 2.84392 57.4164
12824358 10.4466 12.7362 17.5316 16.6002 0.59244 2.86549 57.3146
12824371 10.4907 12.6994 17.5611 16.6383 0.560158 2.87754 57.3894
12824378 10.4907 12.6994 17.5611 16.6383 0.560158 2.87754 57.3894
12824388 10.5259 12.6901 17.502 16.6193 0.558743 2.85292 57.3373
12824398 10.4554 12.7454 17.4627 16.5241 0.590765 2.82908 57.1876
12824408 10.4554 12.7454 17.4627 16.5241 0.590765 2.82908 57.1876
12824421 10.5083 12.7638 17.5217 16.6478 0.601318 2.8457 57.4416
12824444 10.4907 12.7086 17.3839 16.6193 0.635129 2.83308 57.2024
12824451 10.5171 12.8006 17.4331 16.6764 0.664669 2.8188 57.4272
12824459 10.5171 12.8006 17.4331 16.6764 0.664669 2.8188 57.4272
12824469 10.4819 12.7638 17.4823 16.6478 0.630677 2.84557 57.3758
12824479 10.4642 12.773 17.4725 16.6478 0.646859 2.8461 57.3576
12824489 10.4642 12.773 17.4725 16.6478 0.646859 2.8461 57.3576
12824499 10.4819 12.8099 17.4528 16.6573 0.66745 2.82702 57.4019
12824511 10.4819 12.8099 17.4528 16.6573 0.66745 2.82702 57.4019
12824519 10.4907 12.8099 17.4922 16.6859 0.658023 2.83867 57.4786
12824534 10.5171 12.7454 17.5316 16.6859 0.601354 2.85881 57.4799
12824539 10.5171 12.7454 17.5316 16.6859 0.601354 2.85881 57.4799
12824549 10.4819 12.8191 17.4922 16.6859 0.665855 2.83855 57.479
12824569 10.4995 12.8006 17.4134 16.6288 0.661165 2.80999 57.3423
12824579 10.4819 12.7914 17.4233 16.6573 0.672853 2.82648 57.3539
12824589 10.4819 12.7914 17.4233 16.6573 0.672853 2.82648 57.3539
12824599 10.4114 12.7638 17.3445 16.6383 0.720015 2.83624 57.158
12824609 10.4642 12.8006 17.3839 16.6288 0.69018 2.81466 57.2776
12824629 10.429 12.8006 17.4134 16.6002 0.680614 2.82583 57.2433
12824644 10.429 12.8006 17.3741 16.6002 0.698292 2.81745 57.2039
12824651 10.3938 12.727 17.3741 16.6288 0.694945 2.85751 57.1236
12824665 10.429 12.7362 17.443 16.6859 0.676379 2.87036 57.2941
12824670 10.429 12.7362 17.443 16.6859 0.676379 2.87036 57.2941
12824680 10.429 12.6809 17.4528 16.7049 0.656581 2.89372 57.2677
12824690 10.4202 12.727 17.4725 16.8382 0.727686 2.91435 57.4579
12824700 10.4202 12.727 17.4725 16.8382 0.727686 2.91435 57.4579
12824710 10.385 12.6994 17.4922 16.8382 0.722975 2.93811 57.4147
12824721 10.385 12.6994 17.4922 16.8382 0.722975 2.93811 57.4147
12824730 10.4026 12.727 17.4922 16.762 0.694552 2.90796 57.3838
12824740 10.3674 12.7362 17.5709 16.7906 0.691065 2.93865 57.4651
12824762 10.3585 12.6533 17.4528 16.762 0.700712 2.93648 57.2267
12824770 10.3762 12.6165 17.5217 16.7906 0.658402 2.96301 57.3049
12824782 10.3762 12.6165 17.5217 16.7906 0.658402 2.96301 57.3049
12824792 10.3585 12.6533 17.502 16.8382 0.710922 2.96285 57.3521
12824802 10.3585 12.6533 17.502 16.8382 0.710922 2.96285 57.3521
12824812 10.3409 12.5612 17.6005 16.8191 0.627583 3.0139 57.3218
12824823 10.3497 12.5704 17.5906 16.8382 0.64005 3.01016 57.349
12824832 10.3497 12.5704 17.5906 16.8382 0.64005 3.01016 57.349
12824843 10.3233 12.5612 17.5709 16.8763 0.672939 3.0252 57.3317
12824852 10.3409 12.5796 17.5906 16.981 0.708374 3.03981 57.4921
12824878 10.3409 12.5796 17.5906 16.9334 0.688249 3.0299 57.4446
12824883 10.3409 12.5796 17.5906 16.9334 0.688249 3.0299 57.4446
12824892 10.3585 12.5336 17.6005 16.9619 0.66857 3.04682 57.4545
12824902 10.3674 12.6073 17.6595 16.9334 0.65738 3.0273 57.5675
12824917 10.3674 12.6073 17.6595 16.9334 0.65738 3.0273 57.5675
12824926 10.3321 12.5244 17.5906 16.9048 0.656667 3.04408 57.3519
12824934 10.2793 12.552 17.5414 16.8763 0.702015 3.03579 57.2489
12824942 10.2793 12.552 17.5414 16.8763 0.702015 3.03579 57.2489
12824953 10.2705 12.506 17.5611 16.9143 0.69375 3.06514 57.2518
12824978 10.2176 12.4139 17.63 16.8667 0.627097 3.11543 57.1282
12824982 10.244 12.4691 17.6103 16.9905 0.700206 3.11119 57.314
12825003 10.2793 12.4691 17.6497 16.9714 0.658718 3.10428 57.3695
12825012 10.3145 12.4231 17.6595 17 0.631148 3.11564 57.3971
12825029 10.3145 12.4231 17.6595 17 0.631148 3.11564 57.3971
12825032 10.3321 12.4783 17.6792 17.0292 0.650313 3.1028 57.5189
12825054 10.3233 12.4783 17.63 16.981 0.65577 3.08538 57.4126
12825062 10.2617 12.5244 17.6989 16.9334 0.651878 3.09472 57.4183
12825079 10.2617 12.5244 17.6989 16.9334 0.651878 3.09472 57.4183
12825083 10.2793 12.5428 17.6497 16.8953 0.657666 3.06524 57.3671
12825093 10.2352 12.4875 17.6694 16.8572 0.628898 3.09274 57.2494
12825107 10.2352 12.4875 17.6694 16.8572 0.628898 3.09274 57.2494
12825124 10.2793 12.4507 17.6202 16.9714 0.664112 3.10397 57.3216
12825133 10.2881 12.4507 17.6989 16.9429 0.612843 3.11159 57.3806
12825144 10.2793 12.4507 17.7973 17.0292 0.609541 3.15253 57.5565
12825165 10.3321 12.5152 17.7087 16.9619 0.624248 3.0834 57.518
12825173 10.2352 12.4599 17.6792 16.9429 0.649175 3.1213 57.3172
12825194 10.2881 12.4507 17.6497 16.9714 0.646961 3.10731 57.3599
12825214 10.2528 12.3862 17.6694 16.9905 0.634614 3.14685 57.2989
12825224 10.244 12.4323 17.7284 17.039 0.652283 3.15729 57.4437
12825238 10.244 12.4323 17.7284 17.039 0.652283 3.15729 57.4437
12825244 10.2705 12.4139 17.7678 17.0779 0.631639 3.17088 57.5301
12825263 10.2176 12.377 17.758 17.0585 0.635725 3.19323 57.4111
12825275 10.2352 12.4047 17.7678 17.0195 0.618652 3.1729 57.4272
12825287 10.2352 12.4047 17.7678 17.0195 0.618652 3.1729 57.4272
12825296 10.2088 12.3494 17.7678 17.0195 0.606966 3.19879 57.3455
12825312 10.2528 12.377 17.7875 17.039 0.598565 3.18413 57.4563
12825316 10.2528 12.377 17.7875 17.039 0.598565 3.18413 57.4563
12825326 10.2264 12.3586 17.7087 17.0195 0.629407 3.17811 57.3133
12825345 10.2088 12.3218 17.7875 17 0.578123 3.2076 57.3181
12825346 10.2088 12.3218 17.7875 17 0.578123 3.2076 57.3181
12825362 10.1736 12.2941 17.7383 17.0682 0.633138 3.23149 57.2742
12825366 10.1736 12.2941 17.7383 17.0682 0.633138 3.23149 57.2742
12825376 10.1824 12.331 17.7284 17.039 0.636837 3.20894 57.2808
12825386 10.1383 12.3126 17.7875 17.0877 0.642994 3.25094 57.3261
12825396 10.1383 12.3126 17.7875 17.0877 0.642994 3.25094 57.3261
12825406 10.2176 12.377 17.6989 17.0195 0.645575 3.17303 57.313
12825416 10.1824 12.3678 17.6694 17.0487 0.683093 3.18707 57.2683
12825428 10.1824 12.3678 17.6694 17.0487 0.683093 3.18707 57.2683
12825436 10.2088 12.3954 17.7186 17.0292 0.652668 3.17605 57.3521
12825456 10.2176 12.3126 17.6792 17.0682 0.647694 3.19948 57.2776
12825466 10.2088 12.4047 17.6792 17.1072 0.707233 3.18108 57.3998
12825477 10.2088 12.4047 17.6792 17.1072 0.707233 3.18108 57.3998
12825487 10.1912 12.3494 17.7383 17.0487 0.640464 3.20432 57.3276
12825497 10.156 12.3678 17.6891 17.0974 0.70678 3.20955 57.3103
12825509 10.156 12.3678 17.6891 17.0974 0.70678 3.20955 57.3103
12825519 10.2528 12.3494 17.7481 17.1266 0.641596 3.2028 57.477
12825537 10.1912 12.3218 17.758 17.1559 0.665411 3.23913 57.4268
12825547 10.1824 12.3494 17.7087 17.1072 0.682431 3.21306 57.3477
12825574 10.1824 12.3494 17.7087 17.1072 0.682431 3.21306 57.3477
12825575 10.2088 12.3586 17.7186 17.1461 0.686613 3.21178 57.4321
12825578 10.1472 12.3678 17.6694 17.1559 0.744319 3.22032 57.3402
12825588 10.1472 12.3678 17.6694 17.1559 0.744319 3.22032 57.3402
12825598 10.2 12.3954 17.6989 17.1656 0.723183 3.20286 57.46
12825621 10.1736 12.3402 17.5906 17.0974 0.731367 3.19245 57.2018
12825628 10.2264 12.3862 17.6398 17.1656 0.733912 3.18526 57.4181
12825638 10.2264 12.3862 17.6398 17.1656 0.733912 3.18526 57.4181
12825648 10.156 12.4323 17.6595 17.1072 0.751445 3.18502 57.3549
12825658 10.1736 12.3678 17.6398 17.1169 0.729218 3.19784 57.2981
12825669 10.1736 12.3678 17.6398 17.1169 0.729218 3.19784 57.2981
12825678 10.1824 12.3678 17.6497 17.1559 0.737342 3.20509 57.3558
12825698 10.1912 12.4231 17.6792 17.0585 0.702298 3.17079 57.3519
12825710 10.2176 12.3586 17.7481 17.1461 0.669479 3.21505 57.4705
12825723 10.2176 12.3586 17.7481 17.1461 0.669479 3.21505 57.4705
12825731 10.1912 12.3954 17.63 17.1851 0.76625 3.19549 57.4017
12825740 10.1472 12.377 17.6891 17.1072 0.71876 3.21143 57.3204
12825749 10.1472 12.377 17.6891 17.1072 0.71876 3.21143 57.3204
12825759 10.2088 12.4047 17.7087 17.2241 0.743389 3.21116 57.5463
12825769 10.2088 12.4047 17.7087 17.2241 0.743389 3.21116 57.5463
12825780 10.1648 12.4231 17.63 17.1559 0.777444 3.1891 57.3737
12825789 10.1648 12.3954 17.6792 17.1656 0.747794 3.20998 57.405
12825800 10.1648 12.3954 17.6792 17.1656 0.747794 3.20998 57.405
12825809 10.2352 12.3862 17.63 17.1559 0.730258 3.17844 57.4073
12825822 10.156 12.3494 17.6497 17.2241 0.770244 3.23333 57.3791
12825829 10.156 12.3494 17.6497 17.2241 0.770244 3.23333 57.3791
12825843 10.1912 12.4139 17.6792 17.2436 0.776589 3.21176 57.5278
12825849 10.1912 12.4139 17.6792 17.2436 0.776589 3.21176 57.5278
12825859 10.1648 12.3402 17.6005 17.1656 0.759801 3.21134 57.271
12825869 10.1295 12.3494 17.6202 17.1559 0.766566 3.22166 57.255
12825881 10.1295 12.3494 17.6202 17.1559 0.766566 3.22166 57.255
12825890 10.156 12.3862 17.6005 17.263 0.824332 3.21953 57.4057
12825902 10.1383 12.377 17.5906 17.1948 0.804052 3.21202 57.3008
12825911 10.1383 12.377 17.5906 17.1948 0.804052 3.21202 57.3008
12825929 10.1912 12.4139 17.6202 17.1948 0.782552 3.18963 57.4201
12825931 10.1912 12.4139 17.6202 17.1948 0.782552 3.18963 57.4201
12825941 10.1383 12.4139 17.6398 17.1948 0.797454 3.21044 57.3869
12825950 10.1383 12.377 17.6497 17.2728 0.810349 3.24014 57.4378
12825971 10.1736 12.4783 17.5611 17.1851 0.840083 3.16063 57.3981
12825982 10.156 12.4231 17.5512 17.1364 0.808612 3.17164 57.2667
12826002 10.2 12.4599 17.5512 17.1948 0.828969 3.15808 57.406
12826022 10.1648 12.4783 17.5808 17.1948 0.839287 3.16949 57.4187
12826038 10.2264 12.4415 17.5906 17.1364 0.766984 3.15161 57.3949
12826053 10.2 12.4415 17.5512 17.1754 0.812998 3.15988 57.3681
12826063 10.2 12.4139 17.5906 17.1461 0.771296 3.17073 57.3506
12826073 10.2 12.4139 17.5906 17.1461 0.771296 3.17073 57.3506
12826086 10.1472 12.4323 17.5316 17.1948 0.85001 3.17951 57.3058
12826093 10.1472 12.4323 17.5316 17.1948 0.85001 3.17951 57.3058
12826103 10.1648 12.3954 17.5709 17.1266 0.77998 3.17966 57.2578
12826113 10.1824 12.3862 17.5316 17.1851 0.810593 3.18093 57.2853
12826123 10.1824 12.3862 17.5316 17.1851 0.810593 3.18093 57.2853
12826134 10.1648 12.4507 17.5217 17.1559 0.837842 3.158 57.2931
12826143 10.1648 12.377 17.5808 17.2143 0.804812 3.20561 57.3369
12826164 10.1824 12.4415 17.5906 17.1851 0.807318 3.17559 57.3996
12826173 10.1824 12.4415 17.5906 17.1851 0.807318 3.17559 57.3996
12826183 10.1736 12.377 17.6792 17.2533 0.773069 3.23101 57.4831
12826198 10.1383 12.4047 17.6103 17.3215 0.860161 3.23328 57.4748
12826207 10.1383 12.4047 17.6103 17.3215 0.860161 3.23328 57.4748
12826223 10.1031 12.3494 17.6398 17.3117 0.835395 3.26607 57.4041
12826226 10.1824 12.3678 17.6497 17.3605 0.823578 3.24701 57.5603
12826236 10.1824 12.3678 17.6497 17.3605 0.823578 3.24701 57.5603
12826249 10.1648 12.3218 17.6497 17.2923 0.783408 3.25328 57.4285
12826254 10.1648 12.3218 17.6497 17.2923 0.783408 3.25328 57.4285
12826265 10.0767 12.2573 17.6694 17.302 0.791055 3.3079 57.3054
12826276 10.1031 12.3034 17.6398 17.3799 0.844714 3.29466 57.4262
12826285 10.1031 12.3034 17.6398 17.3799 0.844714 3.29466 57.4262
12826298 10.1031 12.3126 17.7186 17.341 0.796798 3.29983 57.4752
12826304 10.0767 12.2573 17.6989 17.4384 0.835255 3.34166 57.4713
12826326 10.0855 12.2389 17.7284 17.4676 0.822574 3.35663 57.5204
12826336 10.0855 12.2389 17.7284 17.4676 0.822574 3.35663 57.5204
12826346 10.0326 12.156 17.7875 17.4189 0.764346 3.40214 57.3951
12826367 10.0591 12.1744 17.758 17.4092 0.769404 3.37983 57.4006
12826369 10.0591 12.1744 17.758 17.4092 0.769404 3.37983 57.4006
12826376 10.0679 12.2021 17.7087 17.4287 0.807428 3.36215 57.4073
12826386 10.0767 12.2665 17.6891 17.2825 0.777856 3.305 57.3148
12826396 10.0767 12.2665 17.6891 17.2825 0.777856 3.305 57.3148
12826406 10.1031 12.3034 17.6891 17.3312 0.802076 3.29476 57.4268
12826416 10.1031 12.3034 17.6891 17.3312 0.802076 3.29476 57.4268
12826425 10.0767 12.2481 17.6792 17.3702 0.81152 3.32675 57.3742
12826436 10.1031 12.2757 17.6792 17.3507 0.803068 3.30553 57.4088
12826447 10.1031 12.2757 17.6792 17.3507 0.803068 3.30553 57.4088
12826456 10.1119 12.3586 17.758 17.3215 0.78637 3.28643 57.55
12826466 10.1295 12.2757 17.7186 17.3215 0.761202 3.29917 57.4453
12826476 10.1295 12.2757 17.7186 17.3215 0.761202 3.29917 57.4453
12826485 10.1119 12.3034 17.7776 17.3215 0.754282 3.308 57.5144
12826506 10.0767 12.2481 17.7776 17.3312 0.750867 3.33883 57.4337
12826517 10.1119 12.2389 17.7875 17.3897 0.751445 3.34438 57.528
12826538 10.0767 12.1836 17.7481 17.3215 0.732744 3.35146 57.3299
12826552 10.0415 12.2481 17.7776 17.3117 0.758445 3.34613 57.379
12826558 10.0415 12.2481 17.7776 17.3117 0.758445 3.34613 57.379
12826567 10.0855 12.2665 17.6989 17.302 0.777701 3.30817 57.3529
12826577 10.0855 12.2665 17.6989 17.302 0.777701 3.30817 57.3529
12826587 10.0326 12.1928 17.7284 17.3799 0.789988 3.37049 57.3339
12826600 10.0415 12.2021 17.8367 17.4189 0.757754 3.39451 57.4991
12826617 10.0326 12.2205 17.8269 17.3799 0.757444 3.38158 57.4599
12826628 10.0326 12.1652 17.8564 17.4189 0.737342 3.4131 57.4732
12826638 10.0326 12.1652 17.8564 17.4189 0.737342 3.4131 57.4732
12826648 10.0415 12.2297 17.8269 17.4579 0.790209 3.39156 57.5559
12826661 10.0415 12.2297 17.8269 17.4579 0.790209 3.39156 57.5559
12826669 10.0415 12.1376 17.8269 17.3897 0.722599 3.40727 57.3956
12826678 10.015 12.0915 17.8367 17.5066 0.759968 3.45607 57.4499
12826698 10.0238 12.1284 17.8761 17.4968 0.749809 3.44737 57.5252
12826712 10.015 12.0915 17.8466 17.4579 0.734985 3.44826 57.411
12826719 10.015 12.0915 17.8466 17.4579 0.734985 3.44826 57.411
12826733 9.96218 12.0731 17.8958 17.5163 0.753519 3.49279 57.4474
12826749 9.97098 12.0915 17.8958 17.4287 0.720304 3.46644 57.387
12826759 9.99741 12.11 17.9548 17.5553 0.743273 3.48924 57.6175
12826780 9.96218 12.0455 17.8662 17.4384 0.722131 3.48013 57.3123
12826791 10.015 12.1008 17.8564 17.3994 0.709742 3.43551 57.3716
12826801 10.015 12.1008 17.8564 17.3994 0.709742 3.43551 57.3716
12826811 10.015 12.1376 17.7678 17.3702 0.752726 3.39987 57.2906
12826824 10.0326 12.1008 17.8466 17.3605 0.689748 3.42 57.3404
12826846 10.0326 12.11 17.8072 17.3215 0.694779 3.4012 57.2713
12826853 10.0326 12.11 17.8072 17.3215 0.694779 3.4012 57.2713
12826861 10.0591 12.156 17.7776 17.3702 0.73632 3.38183 57.3629
12826871 10.0679 12.1652 17.7776 17.3702 0.736263 3.37606 57.3809
12826882 10.0679 12.1652 17.7776 17.3702 0.736263 3.37606 57.3809
12826892 10.015 12.1836 17.7973 17.3702 0.758931 3.39107 57.3662
12826902 10.0326 12.1744 17.7973 17.3897 0.755364 3.39232 57.3941
12826914 10.0326 12.1744 17.7973 17.3897 0.755364 3.39232 57.3941
12826922 9.97979 12.1744 17.8269 17.5066 0.815111 3.4388 57.4877
12826936 9.97979 12.1744 17.8269 17.5066 0.815111 3.4388 57.4877
12826942 10.015 12.1008 17.8072 17.4579 0.756541 3.43737 57.3808
12826952 10.0238 12.1468 17.817 17.4579 0.767606 3.42174 57.4455
12826972 10.0679 12.156 17.7284 17.4384 0.783271 3.38285 57.3907
12826984 10.0415 12.1652 17.7875 17.4287 0.768393 3.39834 57.4228
12826992 10.0415 12.1652 17.7875 17.4287 0.768393 3.39834 57.4228
12827004 10.0503 12.2021 17.8072 17.4287 0.771147 3.3877 57.4882
12827012 10.0503 12.2021 17.8072 17.4287 0.771147 3.3877 57.4882
12827025 10.0238 12.1652 17.7973 17.4092 0.763658 3.40204 57.3956
12827032 9.9886 12.156 17.8662 17.4481 0.76111 3.43804 57.459
12827052 10.0062 12.1376 17.7875 17.5261 0.813627 3.43814 57.4574
12827063 9.96218 12.1192 17.8564 17.5358 0.79881 3.47399 57.4736
12827076 9.96218 12.1192 17.8564 17.5358 0.79881 3.47399 57.4736
12827083 9.9886 12.11 17.8564 17.5163 0.774866 3.46455 57.4713
12827093 9.9886 12.11 17.8564 17.5163 0.774866 3.46455 57.4713
12827103 9.90933 12.0731 17.8761 17.5066 0.781968 3.50393 57.3651
12827113 9.9886 12.1376 17.8367 17.6138 0.836295 3.47127 57.5767
12827133 9.9886 12.1376 17.8564 17.5261 0.790608 3.45764 57.5087
12827144 9.91813 12.1652 17.8269 17.4676 0.822547 3.45372 57.3778
12827164 10.0238 12.1744 17.8662 17.5456 0.794095 3.44042 57.6101
12827176 10.0238 12.1744 17.8662 17.5456 0.794095 3.44042 57.6101
12827190 9.94456 12.0915 17.8072 17.5066 0.80488 3.4728 57.3499
12827196 9.97098 12.1008 17.817 17.4871 0.784239 3.4594 57.3759
12827206 9.97098 12.1008 17.817 17.4871 0.784239 3.4594 57.3759
12827216 10.015 12.1744 17.7383 17.4384 0.810376 3.39587 57.3661
12827226 9.95337 12.1284 17.817 17.4871 0.803813 3.45617 57.3859
12827237 9.95337 12.1284 17.817 17.4871 0.803813 3.45617 57.3859
12827246 10.0062 12.1376 17.7383 17.4676 0.81113 3.41643 57.3497
12827256 10.0062 12.1376 17.7383 17.4676 0.81113 3.41643 57.3497
12827266 9.97098 12.156 17.758 17.4384 0.813571 3.41991 57.3233
12827279 10.0238 12.2205 17.7678 17.4871 0.833032 3.39412 57.4992
12827285 10.0238 12.2205 17.7678 17.4871 0.833032 3.39412 57.4992
12827301 10.0415 12.1928 17.7186 17.4287 0.811002 3.37555 57.3815
12827306 10.0503 12.2113 17.7284 17.4189 0.806272 3.36685 57.4089
12827316 10.0503 12.2113 17.7284 17.4189 0.806272 3.36685 57.4089
12827326 10.0503 12.2573 17.7186 17.4287 0.834185 3.35211 57.4548
12827336 10.0503 12.2573 17.7186 17.4287 0.834185 3.35211 57.4548
12827347 10.0679 12.1928 17.7087 17.4287 0.803548 3.36509 57.3981
12827357 10.1383 12.3034 17.6694 17.3994 0.823796 3.29342 57.5105
12827367 10.1383 12.3034 17.6694 17.3994 0.823796 3.29342 57.5105
12827392 10.1031 12.3034 17.6595 17.3312 0.81535 3.28874 57.3972
12827394 10.1207 12.3218 17.6202 17.2728 0.80826 3.25726 57.3354
12827397 10.1207 12.3218 17.6202 17.2728 0.80826 3.25726 57.3354
12827408 10.1383 12.3586 17.6497 17.3507 0.835389 3.26192 57.4974
12827417 10.1383 12.3586 17.6497 17.3507 0.835389 3.26192 57.4974
12827431 10.1119 12.331 17.6497 17.3215 0.823352 3.27314 57.4141
12827437 10.2 12.3678 17.6103 17.2436 0.784141 3.20942 57.4217
12827447 10.2 12.3678 17.6103 17.2436 0.784141 3.20942 57.4217
12827457 10.1824 12.3678 17.6103 17.2241 0.783834 3.21101 57.3846
12827467 10.1648 12.3034 17.5611 17.1851 0.770178 3.21897 57.2143
12827477 10.1648 12.3034 17.5611 17.1851 0.770178 3.21897 57.2143
12827498 10.1824 12.3402 17.6202 17.2338 0.771862 3.2238 57.3765
12827499 10.1824 12.3402 17.6103 17.2338 0.776282 3.22178 57.3667
12827508 10.1031 12.3034 17.6103 17.1851 0.775781 3.24874 57.2019
12827521 10.1472 12.2665 17.6398 17.2825 0.768301 3.27247 57.336
12827538 10.0855 12.2665 17.6595 17.2728 0.783062 3.29417 57.2843
12827548 10.1295 12.2113 17.7186 17.3312 0.738093 3.32172 57.3906
12827559 10.1295 12.2113 17.7186 17.3312 0.738093 3.32172 57.3906
12827570 10.1119 12.2665 17.6891 17.341 0.786698 3.30568 57.4085
12827579 10.1295 12.2389 17.7383 17.3897 0.765601 3.32878 57.4964
12827594 10.1295 12.2389 17.7383 17.3897 0.765601 3.32878 57.4964
12827599 10.1207 12.2849 17.63 17.3799 0.833467 3.2929 57.4156
12827610 10.1207 12.2849 17.63 17.3799 0.833467 3.2929 57.4156
12827619 10.1031 12.2205 17.6694 17.3507 0.784183 3.32116 57.3437
12827629 10.1207 12.3034 17.6792 17.341 0.80269 3.28913 57.4443
12827652 10.1207 12.2481 17.6202 17.3312 0.801837 3.2927 57.3202
12827659 10.1207 12.2481 17.6202 17.3312 0.801837 3.2927 57.3202
12827675 10.1383 12.2757 17.5808 17.2728 0.798616 3.25825 57.2676
12827679 10.1031 12.3218 17.63 17.3799 0.856891 3.28678 57.4348
12827690 10.1031 12.3218 17.63 17.3799 0.856891 3.28678 57.4348
12827699 10.0767 12.3126 17.6103 17.341 0.857401 3.28617 57.3405
12827711 10.1207 12.331 17.5512 17.3994 0.896499 3.26614 57.4024
12827721 10.1207 12.331 17.5512 17.3994 0.896499 3.26614 57.4024
12827731 10.0943 12.3126 17.5512 17.4189 0.908872 3.2844 57.377
12827742 10.1295 12.3126 17.5709 17.4189 0.884098 3.27721 57.4319
12827751 10.1295 12.3218 17.5709 17.4189 0.887963 3.27427 57.4412
12827764 10.1295 12.3954 17.5316 17.3507 0.90802 3.22885 57.4073
12827771 10.1295 12.3954 17.5316 17.3507 0.90802 3.22885 57.4073
12827781 10.156 12.4047 17.4922 17.3117 0.901371 3.20145 57.3645
12827791 10.156 12.4047 17.443 17.3605 0.944057 3.20135 57.364
12827801 10.156 12.4047 17.443 17.3605 0.944057 3.20135 57.364
12827811 10.2264 12.506 17.4823 17.2728 0.900185 3.13705 57.4875
12827831 10.1472 12.4139 17.5119 17.302 0.896233 3.20337 57.3749
12827841 10.1824 12.4875 17.4725 17.2436 0.904498 3.14871 57.386
12827852 10.1824 12.4875 17.4725 17.2436 0.904498 3.14871 57.386
12827861 10.1648 12.3954 17.502 17.341 0.901353 3.20961 57.4032
12827876 10.1207 12.4231 17.4627 17.2923 0.930196 3.1967 57.2987
12827891 10.1912 12.4691 17.4725 17.2825 0.909144 3.15979 57.4153
12827901 10.1912 12.4691 17.4725 17.2825 0.909144 3.15979 57.4153
12827911 10.1295 12.4323 17.4528 17.302 0.938621 3.19096 57.3166
12827922 10.1648 12.4507 17.5217 17.3215 0.907487 3.19214 57.4587
12827932 10.1648 12.4507 17.5217 17.3215 0.907487 3.19214 57.4587
12827942 10.1824 12.4323 17.4725 17.3215 0.914016 3.18227 57.4087
12827952 10.1824 12.4047 17.443 17.2825 0.89938 3.17691 57.3125
12827972 10.1824 12.4691 17.5119 17.3507 0.923944 3.18472 57.5141
12827986 10.1824 12.4691 17.5119 17.3507 0.923944 3.18472 57.5141
12827992 10.1119 12.4047 17.4823 17.3605 0.946167 3.22342 57.3594
12828002 10.1736 12.4507 17.5709 17.3897 0.909907 3.21343 57.5849
12828026 10.1736 12.4507 17.5709 17.3897 0.909907 3.21343 57.5849
12828029 10.1295 12.4047 17.5611 17.3994 0.918981 3.24195 57.4947
12828032 10.1383 12.3586 17.5512 17.4384 0.916484 3.25972 57.4866
12828042 10.1383 12.3586 17.5512 17.4384 0.916484 3.25972 57.4866
12828052 10.1383 12.4047 17.5414 17.3215 0.8912 3.21915 57.4059
12828062 10.1383 12.4047 17.5414 17.3215 0.8912 3.21915 57.4059
12828072 10.1031 12.331 17.5414 17.341 0.884324 3.25778 57.3165
12828082 10.1031 12.3586 17.5316 17.3994 0.924933 3.25893 57.3927
12828094 10.1031 12.3586 17.5316 17.3994 0.924933 3.25893 57.3927
12828107 10.1383 12.331 17.6005 17.4676 0.894982 3.28449 57.5374
12828113 10.0503 12.3494 17.6005 17.4092 0.917906 3.29475 57.4093
12828127 10.0503 12.3494 17.6005 17.4092 0.917906 3.29475 57.4093
12828133 10.1119 12.3218 17.6103 17.4481 0.890422 3.29387 57.4921
12828143 10.1119 12.3218 17.6103 17.4481 0.890422 3.29387 57.4921
12828153 10.0326 12.2941 17.6595 17.4092 0.876006 3.33003 57.3955
12828164 10.0591 12.2849 17.6497 17.4579 0.885126 3.33243 57.4516
12828173 10.0591 12.2849 17.6497 17.4579 0.885126 3.33243 57.4516
12828185 10.0679 12.3126 17.6103 17.341 0.861371 3.28897 57.3317
12828198 10.0855 12.2389 17.6497 17.3215 0.796402 3.31093 57.2956
12828205 10.0855 12.2389 17.6497 17.3215 0.796402 3.31093 57.2956
12828222 10.0767 12.2113 17.6694 17.3897 0.808629 3.34048 57.347
12828224 10.0767 12.2113 17.6694 17.3897 0.808629 3.34048 57.347
12828236 10.0238 12.2021 17.6595 17.4092 0.841209 3.36231 57.2946
12828244 10.0415 12.2297 17.6792 17.3897 0.827828 3.34786 57.34
12828268 10.0326 12.2481 17.7087 17.4287 0.842667 3.35869 57.4181
12828276 10.0591 12.2573 17.7087 17.4384 0.838748 3.34928 57.4635
12828286 10.0591 12.2573 17.7087 17.4384 0.838748 3.34928 57.4635
12828296 10.0767 12.1836 17.6595 17.4189 0.813735 3.35326 57.3388
12828306 10.0767 12.1836 17.6595 17.4189 0.813735 3.35326 57.3388
12828316 10.0062 12.2113 17.6891 17.4579 0.860235 3.38087 57.3644
12828326 10.0238 12.1928 17.6989 17.4676 0.84421 3.38509 57.3832
12828342 10.0238 12.1928 17.6989 17.4676 0.84421 3.38509 57.3832
12828346 10.0062 12.2389 17.6792 17.4384 0.8681 3.36608 57.3627
12828356 10.0503 12.2941 17.758 17.4384 0.836071 3.35031 57.5408
12828367 10.0503 12.2941 17.758 17.4384 0.836071 3.35031 57.5408
12828376 9.99741 12.2113 17.7284 17.5163 0.871035 3.40348 57.4534
12828389 9.99741 12.2113 17.7284 17.5163 0.871035 3.40348 57.4534
12828396 9.97098 12.1744 17.758 17.5163 0.854158 3.42971 57.4197
12828406 9.95337 12.1468 17.7087 17.5456 0.884959 3.44022 57.3545
12828416 9.95337 12.1468 17.7087 17.5456 0.884959 3.44022 57.3545
12828426 10.0062 12.1468 17.7186 17.565 0.864881 3.42915 57.4367
12828440 9.97979 12.1192 17.7481 17.5943 0.86416 3.45833 57.4414
12828448 9.97979 12.1192 17.7481 17.5943 0.86416 3.45833 57.4414
12828462 9.92694 12.0823 17.7284 17.604 0.885469 3.4852 57.3417
12828467 9.92694 12.0823 17.7284 17.604 0.885469 3.4852 57.3417
12828477 9.91813 12.0915 17.8367 17.5456 0.819916 3.49507 57.392
12828488 9.92694 12.0455 17.8564 17.6527 0.832826 3.53244 57.4816
12828497 9.92694 12.0455 17.8564 17.6527 0.832826 3.53244 57.4816
12828509 9.91813 12.0179 17.8269 17.6625 0.842544 3.54025 57.4253
12828517 9.92694 12.0455 17.8662 17.6917 0.844774 3.54217 57.5304
12828538 9.99741 12.0823 17.8859 17.6917 0.819796 3.51157 57.6574
12828548 9.99741 12.0823 17.8859 17.6917 0.819796 3.51157 57.6574
12828559 9.87409 12.0455 17.8859 17.6722 0.851497 3.55926 57.4777
12828567 9.90052 12.0179 17.8859 17.6527 0.819808 3.55577 57.457
12828587 9.90052 12.0547 17.8269 17.6332 0.853676 3.52821 57.4153
12828597 9.93575 12.0271 17.817 17.604 0.818312 3.51794 57.3839
12828608 9.93575 12.0271 17.817 17.604 0.818312 3.51794 57.3839
12828617 9.90933 12.0179 17.8072 17.6138 0.834867 3.52943 57.3481
12828628 9.90933 12.0179 17.8072 17.6138 0.834867 3.52943 57.3481
12828638 9.94456 12.0731 17.7875 17.6235 0.855222 3.49824 57.4287
12828652 9.89171 11.9902 17.8072 17.6819 0.859889 3.55767 57.3711
12828658 9.89171 11.9902 17.8072 17.6819 0.859889 3.55767 57.3711
12828668 9.90933 12.0455 17.8662 17.6138 0.819924 3.53231 57.4348
12828678 9.87409 12.0179 17.8564 17.643 0.840878 3.55648 57.3913
12828688 9.87409 12.0179 17.8564 17.643 0.840878 3.55648 57.3913
12828698 9.97098 12.0731 17.8662 17.6527 0.820243 3.51132 57.5631
12828709 9.97098 12.0731 17.8662 17.6527 0.820243 3.51132 57.5631
12828720 9.91813 12.0087 17.9155 17.6527 0.794762 3.55893 57.495
12828728 9.86528 12.0087 17.8958 17.6819 0.839645 3.5779 57.4517
12828754 9.86528 12.0363 17.8761 17.6235 0.835532 3.55341 57.4012
12828774 9.92694 12.0363 17.8859 17.6332 0.807491 3.53741 57.4824
12828776 9.92694 12.0363 17.8859 17.6332 0.807491 3.53741 57.4824
12828778 9.93575 12.0363 17.9253 17.5748 0.76125 3.53077 57.4721
12828798 9.89171 12.1192 17.8564 17.5748 0.846878 3.50448 57.4421
12828812 9.8829 11.9995 17.8466 17.6332 0.829485 3.55568 57.3622
12828819 9.8829 11.9995 17.8466 17.6332 0.829485 3.55568 57.3622
12828831 9.97098 12.0823 17.8761 17.5748 0.786924 3.49476 57.5042
12828840 9.90052 12.0455 17.9351 17.565 0.772411 3.53918 57.4462
12828853 9.90052 12.0455 17.9351 17.565 0.772411 3.53918 57.4462
12828861 9.89171 12.0731 17.9056 17.5261 0.784835 3.51942 57.3965
12828879 9.87409 11.9718 17.8367 17.4968 0.768578 3.53824 57.1795
12828889 9.89171 12.0455 17.8958 17.5553 0.789937 3.53222 57.3883
12828911 9.93575 12.0547 17.8564 17.5845 0.804043 3.51301 57.4314
12828921 9.92694 12.0455 17.9351 17.6138 0.781089 3.54037 57.5213
12828931 9.92694 12.0455 17.9351 17.6138 0.781089 3.54037 57.5213
12828941 9.94456 12.0823 17.9647 17.5748 0.759077 3.52095 57.5664
12828951 9.94456 12.0823 17.9647 17.5748 0.759077 3.52095 57.5664
12828962 9.90052 11.9718 17.8859 17.6332 0.792199 3.56677 57.3915
12828972 9.85648 12.0179 17.945 17.6235 0.800756 3.57594 57.4428
12828992 9.90933 11.9626 17.945 17.5748 0.733158 3.56702 57.3917
12829003 9.8829 11.981 17.9155 17.5553 0.757822 3.55984 57.3347
12829012 9.8829 11.981 17.9155 17.5553 0.757822 3.55984 57.3347
12829024 9.93575 12.0363 17.8859 17.6138 0.795335 3.53068 57.4717
12829032 9.93575 12.0363 17.8859 17.6138 0.795335 3.53068 57.4717
12829046 9.83886 11.981 17.9844 17.6625 0.791883 3.60911 57.4667
12829052 9.91813 11.9902 18.0237 17.7112 0.763118 3.59795 57.6433
12829069 9.91813 11.9902 18.0237 17.7112 0.763118 3.59795 57.6433
12829072 9.89171 11.8982 17.9745 17.7112 0.758192 3.62654 57.4756
12829082 9.8829 11.9718 17.9745 17.7209 0.797272 3.60747 57.5502
12829103 9.90052 12.0087 17.8564 17.6819 0.841504 3.55868 57.4475
12829113 9.86528 12.0087 17.8466 17.6625 0.853604 3.56423 57.383
12829123 9.86528 11.9995 17.8466 17.6625 0.84973 3.56721 57.3738
12829137 9.87409 12.0179 17.8662 17.7209 0.869212 3.57396 57.4791
12829143 9.87409 12.0179 17.8662 17.7209 0.869212 3.57396 57.4791
12829158 9.83005 11.935 17.8761 17.6819 0.833353 3.60928 57.3231
12829166 9.8829 11.9442 17.8958 17.6625 0.796366 3.58919 57.3853
12829174 9.8829 11.9442 17.8958 17.6625 0.796366 3.58919 57.3853
12829183 9.89171 11.9626 17.8859 17.7014 0.821012 3.58617 57.4417
12829203 9.86528 11.9166 17.9056 17.7794 0.83746 3.62899 57.4668
12829213 9.85648 11.9718 17.8662 17.7501 0.870076 3.60035 57.4447
12829224 9.85648 11.9718 17.8662 17.7501 0.870076 3.60035 57.4447
12829235 9.83005 11.9718 17.9548 17.7404 0.838014 3.62453 57.4971
12829244 9.89171 11.9995 17.8662 17.7989 0.886247 3.58969 57.5563
12829257 9.89171 11.9995 17.8662 17.7989 0.886247 3.58969 57.5563
12829264 9.89171 11.9718 17.9056 17.7209 0.82424 3.59097 57.4901
12829277 9.86528 12.0455 17.8564 17.6332 0.85237 3.54845 57.4004
12829285 9.86528 12.0455 17.8564 17.6332 0.85237 3.54845 57.4004
12829294 9.86528 11.9626 17.817 17.7404 0.880328 3.58877 57.3853
12829304 9.86528 11.9626 17.817 17.7404 0.880328 3.58877 57.3853
12829314 9.90052 12.0271 17.8466 17.6819 0.853679 3.55077 57.4561
12829325 9.85648 12.0271 17.7973 17.6917 0.899804 3.55713 57.3726
12829347 9.87409 12.0087 17.7678 17.6917 0.897443 3.5515 57.3423
12829354 9.86528 12.0455 17.8466 17.7307 0.89772 3.5659 57.488
12829364 9.86528 12.0455 17.8466 17.7307 0.89772 3.5659 57.488
12829376 9.89171 12.0455 17.817 17.7404 0.903201 3.55343 57.4946
12829386 9.89171 12.0455 17.817 17.7404 0.903201 3.55343 57.4946
12829395 9.85648 11.9995 17.8367 17.7599 0.899071 3.58748 57.4525
12829417 9.94456 12.0363 17.8662 17.7696 0.865686 3.55496 57.6167
12829418 9.94456 12.0363 17.8662 17.7696 0.865686 3.55496 57.6167
12829427 9.86528 12.0179 17.8367 17.7209 0.886476 3.57093 57.4408
12829440 9.90052 12.0179 17.8269 17.7696 0.89547 3.56728 57.5149
12829447 9.90052 12.0179 17.8269 17.7696 0.89547 3.56728 57.5149
12829457 9.8829 12.0179 17.817 17.8086 0.924161 3.57875 57.5264
12829467 9.8829 12.0179 17.817 17.8086 0.924161 3.57875 57.5264
12829477 9.83005 12.0179 17.7678 17.8183 0.974318 3.588 57.4341
12829488 9.83005 11.9902 17.758 17.8086 0.963128 3.59305 57.3869
12829497 9.83005 11.9902 17.758 17.8086 0.963128 3.59305 57.3869
12829510 9.84767 12.0087 17.7481 17.7501 0.942829 3.56779 57.3546
12829517 9.83005 11.9902 17.7678 17.7599 0.938255 3.58532 57.348
12829537 9.85648 12.0547 17.7776 17.7891 0.961107 3.56369 57.478
12829548 9.85648 12.0547 17.7776 17.7891 0.961107 3.56369 57.478
12829558 9.81244 11.9534 17.7186 17.7307 0.94077 3.58736 57.2151
12829568 9.85648 12.0087 17.8269 17.8086 0.927782 3.59222 57.5006
12829588 9.79482 11.9534 17.8466 17.7891 0.915393 3.63014 57.3839
12829598 9.81244 11.9718 17.7875 17.8573 0.97042 3.62026 57.4291
12829609 9.81244 11.9718 17.7875 17.8573 0.97042 3.62026 57.4291
12829618 9.82124 12.0179 17.8269 17.8183 0.951612 3.60257 57.4843
12829631 9.82124 12.0179 17.8269 17.8183 0.951612 3.60257 57.4843
12829638 9.79482 11.9534 17.7875 17.7891 0.942093 3.61843 57.3248
12829651 9.83005 12.0271 17.7284 17.8378 1.00413 3.58106 57.4234
12829668 9.87409 12.0363 17.7087 17.7989 0.980663 3.55216 57.418
12829680 9.8829 12.0179 17.758 17.7891 0.94265 3.56314 57.4478
12829689 9.8829 12.0179 17.758 17.7891 0.94265 3.56314 57.4478
12829702 9.84767 12.0179 17.7678 17.8086 0.962275 3.58036 57.4419
12829709 9.84767 12.0179 17.7678 17.8086 0.962275 3.58036 57.4419
12829719 9.8829 11.9902 17.758 17.7891 0.931075 3.57207 57.4202
12829729 9.82124 12.0087 17.8269 17.8183 0.947759 3.60555 57.4751
12829740 9.82124 12.0087 17.8269 17.8183 0.947759 3.60555 57.4751
12829751 9.85648 11.9718 17.7383 17.8573 0.972763 3.59622 57.4239
12829763 9.83005 12.0547 17.6989 17.8183 1.02091 3.56237 57.402
12829771 9.83005 12.0547 17.6989 17.8183 1.02091 3.56237 57.402
12829785 9.89171 12.0271 17.7678 17.8086 0.946239 3.56315 57.4952
12829801 9.86528 12.0455 17.7383 17.8378 0.991428 3.56568 57.4869
12829812 9.83886 12.0547 17.7875 17.8573 0.993106 3.58488 57.5384
12829831 9.83886 12.0271 17.7481 17.867 1.00344 3.58793 57.4811
12829842 9.86528 11.981 17.8269 17.8573 0.932634 3.60796 57.5305
12829862 9.78601 12.0087 17.758 17.867 1.01522 3.61296 57.4197
12829872 9.81244 12.0087 17.817 17.9158 0.996879 3.62574 57.5539
12829882 9.81244 12.0087 17.817 17.9158 0.996879 3.62574 57.5539
12829894 9.82124 12.0179 17.7678 17.9158 1.01898 3.61017 57.5227
12829902 9.82124 12.0179 17.7678 17.9158 1.01898 3.61017 57.5227
12829915 9.75959 11.9442 17.7973 17.9255 1.00684 3.66182 57.4266
12829922 9.75959 11.9902 17.7875 17.945 1.03865 3.64877 57.4823
12829938 9.75959 11.9902 17.7875 17.945 1.03865 3.64877 57.4823
12829942 9.76839 11.9995 17.7973 17.984 1.05027 3.65256 57.5491
12829952 9.79482 11.9995 17.7776 17.9255 1.02287 3.62856 57.4974
12829963 9.79482 11.9534 17.7776 17.9255 1.00365 3.64349 57.4514
12829972 9.80363 11.9718 17.7973 17.8476 0.965875 3.62313 57.4204
12829985 9.80363 11.9718 17.7973 17.8476 0.965875 3.62313 57.4204
12829992 9.80363 12.0179 17.7875 17.8086 0.97329 3.59853 57.4176
12830002 9.78601 12.0547 17.7284 17.8476 1.0397 3.58831 57.4167
12830013 9.78601 12.0547 17.7284 17.8476 1.0397 3.58831 57.4167
12830023 9.82124 12.0271 17.6891 17.8183 1.01783 3.5722 57.3557
12830041 9.82124 12.0271 17.6891 17.8183 1.01783 3.5722 57.3557
12830043 9.80363 11.9902 17.7383 17.7794 0.971758 3.59189 57.3115
12830057 9.84767 12.0179 17.7481 17.867 0.995612 3.58806 57.4807
12830063 9.84767 12.0179 17.7481 17.867 0.995612 3.58806 57.4807
12830073 9.81244 12.0639 17.7186 17.8183 1.02382 3.56901 57.4133
12830083 9.86528 12.1008 17.7875 17.7794 0.967857 3.54601 57.5329
12830093 9.86528 12.1008 17.7875 17.7794 0.967857 3.54601 57.5329
12830109 9.93575 12.1376 17.6103 17.7599 1.02336 3.47215 57.4435
12830128 9.89171 12.0823 17.6989 17.6917 0.951555 3.50823 57.3646
12830134 9.92694 12.1376 17.7383 17.7014 0.945067 3.48892 57.5042
12830154 9.90933 12.0363 17.7875 17.6332 0.859699 3.52343 57.3664
12830164 9.84767 12.1192 17.8564 17.6722 0.907603 3.53813 57.4954
12830177 9.84767 12.1192 17.8564 17.6722 0.907603 3.53813 57.4954
12830184 9.85648 12.0823 17.7875 17.7112 0.935602 3.5412 57.4375
12830199 9.90052 12.0823 17.8564 17.7112 0.884703 3.54073 57.5504
12830204 9.90052 12.0731 17.8564 17.7112 0.880843 3.5437 57.5412
12830214 9.89171 12.0547 17.8859 17.6722 0.847447 3.5506 57.5046
12830227 9.89171 12.0547 17.8859 17.6722 0.847447 3.5506 57.5046
12830235 9.91813 12.0639 17.7875 17.6722 0.883725 3.51947 57.4418
12830258 9.91813 12.0547 17.8269 17.6138 0.837553 3.51863 57.4135
12830260 9.91813 12.0547 17.8269 17.6138 0.837553 3.51863 57.4135
12830264 9.91813 12.0731 17.8072 17.643 0.866446 3.5146 57.4414
12830276 9.8829 12.0639 17.8564 17.5358 0.811157 3.51734 57.339
12830286 9.8829 12.0639 17.8564 17.5358 0.811157 3.51734 57.339
12830296 9.93575 12.0547 17.8072 17.5845 0.826174 3.50316 57.3822
12830306 9.93575 12.0547 17.8072 17.5845 0.826174 3.50316 57.3822
12830319 9.96218 12.0639 17.817 17.6138 0.826043 3.4995 57.4569
12830326 9.92694 12.0547 17.8958 17.6332 0.81082 3.53344 57.5107
12830341 9.92694 12.0547 17.8958 17.6332 0.81082 3.53344 57.5107
12830348 9.97098 12.0915 17.8859 17.6235 0.806871 3.5035 57.572
12830366 9.90052 12.0179 17.8466 17.6138 0.821105 3.54014 57.3787
12830376 9.92694 12.0271 17.9155 17.6917 0.814947 3.5579 57.5612
12830390 9.92694 12.0271 17.9155 17.6917 0.814947 3.5579 57.5612
12830396 9.89171 12.0547 17.9155 17.6819 0.838271 3.55841 57.5438
12830406 9.8829 11.9902 17.8761 17.7307 0.853309 3.58393 57.4799
12830416 9.8829 11.9902 17.8761 17.7307 0.853309 3.58393 57.4799
12830426 9.93575 12.0455 17.8466 17.7014 0.853753 3.53735 57.5292
12830437 9.84767 11.9995 17.7973 17.6527 0.875774 3.56115 57.2972
12830464 9.90933 12.0363 17.8466 17.6722 0.849491 3.54301 57.4644
12830467 9.90933 12.0363 17.8466 17.6722 0.849491 3.54301 57.4644
12830477 9.83005 12.0271 17.8072 17.6819 0.903201 3.56571 57.3463
12830488 9.90933 12.0271 17.8367 17.643 0.837755 3.53819 57.4161
12830497 9.90933 12.0271 17.8367 17.643 0.837755 3.53819 57.4161
12830509 9.94456 12.0179 17.7875 17.6722 0.852472 3.5258 57.4221
12830517 9.94456 12.0179 17.7875 17.6722 0.852472 3.5258 57.4221
12830534 9.93575 12.0087 17.8958 17.6625 0.799793 3.55127 57.5027
12830537 9.94456 12.0639 17.7776 17.643 0.863972 3.50314 57.4291
12830547 9.94456 12.0639 17.7776 17.643 0.863972 3.50314 57.4291
12830558 9.90052 12.0271 17.8761 17.7112 0.852674 3.56247 57.5149
12830568 10.0062 12.0547 17.8269 17.5845 0.785661 3.48441 57.4723
12830583 10.0062 12.0547 17.8269 17.5845 0.785661 3.48441 57.4723
12830587 10.0238 12.1652 17.817 17.5748 0.824559 3.43936 57.5809
12830597 10.0238 12.1652 17.817 17.5748 0.824559 3.43936 57.5809
12830607 9.96218 12.1284 17.758 17.5456 0.85105 3.45322 57.3941
12830617 10.0238 12.0731 17.7481 17.4579 0.76744 3.43151 57.303
12830637 10.0503 12.1652 17.7383 17.4384 0.79065 3.38753 57.3922
12830647 10.0238 12.1468 17.6694 17.4189 0.817564 3.38401 57.2589
12830673 10.0503 12.1468 17.6694 17.4287 0.809768 3.3775 57.2951
12830693 10.0503 12.1468 17.6694 17.4287 0.809768 3.3775 57.2951
12830694 10.0591 12.11 17.7186 17.4384 0.772208 3.39844 57.326
12830698 10.0238 12.156 17.7481 17.4871 0.814757 3.41079 57.4151
12830718 10.0679 12.1192 17.7186 17.4579 0.780371 3.39661 57.3635
12830731 10.0855 12.1192 17.7481 17.4384 0.750971 3.39299 57.3912
12830739 10.0855 12.1192 17.7481 17.4384 0.750971 3.39299 57.3912
12830749 10.1119 12.2205 17.7481 17.4384 0.781846 3.35215 57.5189
12830759 10.1119 12.2205 17.7481 17.4384 0.781846 3.35215 57.5189
12830769 10.1383 12.2205 17.7678 17.4676 0.773492 3.35362 57.5942
12830779 10.1295 12.2389 17.6694 17.3799 0.792408 3.31279 57.4177
12830789 10.1295 12.2389 17.6694 17.3799 0.792408 3.31279 57.4177
12830800 10.1207 12.3218 17.6694 17.3702 0.827163 3.28722 57.4821
12830809 10.2 12.2665 17.7383 17.3312 0.721064 3.28568 57.536
12830829 10.1383 12.2849 17.6005 17.3702 0.83473 3.27928 57.3939
12830856 10.1295 12.2389 17.6497 17.3312 0.780702 3.29886 57.3493
12830867 10.1736 12.2481 17.6202 17.302 0.765723 3.26987 57.3438
12830873 10.1736 12.2481 17.6202 17.302 0.765723 3.26987 57.3438
12830879 10.1207 12.2757 17.6595 17.3799 0.816309 3.30185 57.4359
12830891 10.1207 12.2849 17.63 17.3117 0.804731 3.27898 57.3474
12830901 10.1207 12.2849 17.63 17.3117 0.804731 3.27898 57.3474
12830913 10.1648 12.2849 17.6103 17.2923 0.785553 3.25694 57.3523
12830921 10.1648 12.2849 17.6103 17.2923 0.785553 3.25694 57.3523
12830939 10.1295 12.1836 17.6103 17.3117 0.766811 3.30449 57.2352
12830942 10.1472 12.2389 17.6202 17.3799 0.806612 3.29715 57.3861
12830952 10.1472 12.2389 17.6202 17.3799 0.806612 3.29715 57.3861
12830966 10.1031 12.3034 17.63 17.4189 0.865528 3.30059 57.4554
12830971 10.1383 12.2297 17.5808 17.4481 0.853139 3.30877 57.3969
12830991 10.1383 12.2941 17.5808 17.4189 0.867954 3.28227 57.4322
12831002 10.1472 12.2297 17.5414 17.4189 0.854614 3.29197 57.3371
12831013 10.1472 12.2297 17.5414 17.4189 0.854614 3.29197 57.3371
12831022 10.1648 12.2757 17.5217 17.4189 0.874922 3.26766 57.3811
12831042 10.156 12.3218 17.502 17.3117 0.862059 3.22981 57.2915
12831052 10.2528 12.3954 17.4725 17.2728 0.846297 3.16158 57.3936
12831064 10.2528 12.3954 17.4725 17.2728 0.846297 3.16158 57.3936
12831072 10.2176 12.4507 17.443 17.3117 0.915083 3.1572 57.423
12831082 10.2176 12.4507 17.443 17.3117 0.915083 3.1572 57.423
12831092 10.1824 12.4231 17.4627 17.263 0.890037 3.17111 57.3312
12831102 10.2617 12.4139 17.4233 17.3215 0.892729 3.15287 57.4203
12831122 10.2528 12.4691 17.3544 17.302 0.942823 3.11992 57.3784
12831132 10.2617 12.4599 17.3741 17.2533 0.905636 3.11404 57.3489
12831152 10.2705 12.5704 17.3741 17.2241 0.93576 3.07036 57.439
12831173 10.2528 12.4691 17.2953 17.2825 0.961384 3.10364 57.2998
12831184 10.2617 12.5244 17.3544 17.263 0.945669 3.09164 57.4034
12831206 10.2793 12.5428 17.3347 17.2436 0.946158 3.07215 57.4003
12831213 10.3057 12.506 17.2559 17.1948 0.93393 3.04889 57.2624
12831227 10.3057 12.506 17.2559 17.1948 0.93393 3.04889 57.2624
12831233 10.3145 12.5612 17.2855 17.2436 0.960198 3.04503 57.4047
12831243 10.3145 12.5612 17.2855 17.2436 0.960198 3.04503 57.4047
12831256 10.2881 12.5336 17.2855 17.1559 0.923771 3.04376 57.263
12831263 10.3585 12.5796 17.2658 17.1656 0.924236 3.00505 57.3696
12831282 10.3585 12.5796 17.2658 17.1656 0.924236 3.00505 57.3696
12831283 10.3233 12.5888 17.2658 17.1754 0.948116 3.01526 57.3533
12831296 10.3497 12.6257 17.2559 17.1461 0.943807 2.98723 57.3775
12831304 10.3497 12.6257 17.2559 17.1461 0.943807 2.98723 57.3775
12831318 10.3497 12.6073 17.315 17.0974 0.888953 2.99517 57.3694
12831333 10.3497 12.6073 17.315 17.0974 0.888953 2.99517 57.3694
12831335 10.3145 12.5612 17.2658 17.1266 0.920045 3.01652 57.2682
12831347 10.3938 12.6717 17.315 17.0585 0.879803 2.95304 57.439
12831354 10.3938 12.6717 17.315 17.0585 0.879803 2.95304 57.439
12831372 10.3762 12.6717 17.3052 17.0097 0.871709 2.94625 57.3628
12831375 10.4026 12.727 17.2461 17 0.905564 2.90625 57.3757
12831384 10.4026 12.727 17.2461 17 0.905564 2.90625 57.3757
12831398 10.3938 12.6809 17.2756 17.0682 0.905508 2.94394 57.4185
12831417 10.3674 12.6257 17.2461 17.0195 0.887075 2.95306 57.2586
12831424 10.4202 12.7454 17.2756 17.0097 0.896114 2.90328 57.451
12831437 10.4202 12.7454 17.2756 17.0097 0.896114 2.90328 57.451
12831444 10.4026 12.6901 17.3248 16.9619 0.838554 2.92632 57.3795
12831454 10.429 12.6994 17.2658 16.9429 0.849125 2.89873 57.337
12831483 10.4642 12.6165 17.2953 16.9905 0.805083 2.92986 57.3665
12831484 10.4642 12.6165 17.2953 16.9905 0.805083 2.92986 57.3665
12831494 10.4554 12.6717 17.3052 16.981 0.823891 2.91543 57.4133
12831508 10.4907 12.6901 17.2855 16.9524 0.812632 2.88854 57.4187
12831514 10.4907 12.6901 17.2855 16.9524 0.812632 2.88854 57.4187
12831525 10.4907 12.7178 17.2067 16.8858 0.83164 2.84918 57.3009
12831535 10.5523 12.7178 17.2362 16.8763 0.786582 2.83424 57.3826
12831544 10.5523 12.7546 17.2362 16.8763 0.802118 2.8228 57.4194
12831559 10.5171 12.7914 17.2264 16.8477 0.825879 2.81415 57.3826
12831577 10.5435 12.7454 17.1673 16.7525 0.780934 2.78741 57.2088
12831588 10.5435 12.7362 17.1575 16.7144 0.765333 2.78003 57.1517
12831596 10.5435 12.7362 17.1575 16.7144 0.765333 2.78003 57.1517
12831606 10.5876 12.773 17.1575 16.7335 0.769165 2.75898 57.2516
12831616 10.4995 12.7362 17.2166 16.7525 0.774699 2.81447 57.2048
12831626 10.4995 12.7362 17.2166 16.7525 0.774699 2.81447 57.2048
12831644 10.5964 12.7914 17.2559 16.7716 0.744876 2.77966 57.4153
12831655 10.5347 12.6809 17.315 16.8477 0.731516 2.86181 57.3783
12831666 10.5523 12.7362 17.2461 16.8858 0.793943 2.83262 57.4204
12831686 10.5171 12.8006 17.2953 16.8858 0.814804 2.83397 57.4988
12831696 10.5083 12.6717 17.2461 16.8858 0.786537 2.86638 57.3119
12831708 10.5083 12.6717 17.2461 16.8858 0.786537 2.86638 57.3119
12831716 10.4819 12.6901 17.2953 16.8763 0.780046 2.87728 57.3436
12831729 10.4819 12.6901 17.2953 16.8763 0.780046 2.87728 57.3436
12831736 10.4819 12.6441 17.1477 16.8191 0.802958 2.84822 57.0928
12831746 10.4642 12.6625 17.2264 16.9048 0.819397 2.88286 57.258
12831756 10.4642 12.6625 17.2264 16.9048 0.819397 2.88286 57.258
12831766 10.4995 12.727 17.2559 16.9143 0.821429 2.86004 57.3967
12831776 10.4995 12.727 17.2559 16.9143 0.821429 2.86004 57.3967
12831787 10.4554 12.5981 17.2855 16.9905 0.805706 2.93631 57.3294
12831797 10.429 12.6441 17.2953 16.9714 0.824562 2.92824 57.3399
12831807 10.429 12.6441 17.2953 16.9714 0.824562 2.92824 57.3399
12831817 10.4026 12.5704 17.315 16.981 0.800517 2.96573 57.269
12831827 10.4731 12.5888 17.3544 17.0779 0.799799 2.96649 57.4942
12831837 10.4731 12.5888 17.3544 17.0779 0.799799 2.96649 57.4942
12831847 10.4554 12.5796 17.3347 17.0682 0.808567 2.96872 57.438
12831878 10.4554 12.5796 17.3347 17.0682 0.808567 2.96872 57.438
12831881 10.4026 12.552 17.3445 17.0877 0.824475 3.00007 57.3868
12831882 10.3938 12.5704 17.3052 17.0292 0.8293 2.97656 57.2986
12831897 10.3938 12.5704 17.3052 17.0292 0.8293 2.97656 57.2986
12831898 10.429 12.6349 17.2855 17.0195 0.845358 2.93915 57.3689
12831907 10.4026 12.552 17.3347 16.9905 0.787893 2.97764 57.2798
12831927 10.3938 12.5612 17.3052 17.039 0.829527 2.98149 57.2991
12831938 10.3938 12.5612 17.3052 17.039 0.829527 2.98149 57.2991
12831949 10.3762 12.5704 17.315 17 0.820473 2.97802 57.2616
12831965 10.3938 12.5704 17.4233 17.0487 0.784382 3.00536 57.4362
12831992 10.3057 12.5612 17.3937 17.0779 0.845724 3.03585 57.3386
12831993 10.3674 12.552 17.3937 17.1072 0.826392 3.02547 57.4203
12831998 10.3674 12.552 17.3937 17.1072 0.826392 3.02547 57.4203
12832008 10.385 12.5704 17.3642 17.2046 0.88042 3.02831 57.5242
12832019 10.385 12.5704 17.3642 17.2046 0.88042 3.02831 57.5242
12832028 10.3497 12.5612 17.315 17.1656 0.898254 3.02387 57.3916
12832048 10.3321 12.5888 17.3248 17.1266 0.896999 3.01465 57.3725
12832050 10.3321 12.5888 17.3248 17.1266 0.896999 3.01465 57.3725
12832058 10.3321 12.5704 17.3052 17.0487 0.865343 3.00001 57.2564
12832076 10.3585 12.5981 17.3052 17.1364 0.90192 3.00139 57.3981
12832079 10.3585 12.5981 17.3052 17.1364 0.90192 3.00139 57.3981
12832088 10.385 12.5888 17.3347 17.1072 0.860542 2.99605 57.4157
12832103 10.385 12.5888 17.3347 17.1072 0.860542 2.99605 57.4157
12832108 10.3409 12.552 17.3347 17.0487 0.840268 3.00921 57.2763
12832118 10.3409 12.552 17.3839 17.0779 0.830403 3.02562 57.3548
12832129 10.3409 12.552 17.3839 17.0779 0.830403 3.02562 57.3548
12832138 10.3233 12.5796 17.3937 17.0779 0.845543 3.02453 57.3746
12832153 10.3497 12.5796 17.2953 17.0682 0.87392 2.9936 57.2929
12832158 10.3497 12.5796 17.2953 17.0682 0.87392 2.9936 57.2929
12832168 10.3585 12.5888 17.3839 17.1461 0.866655 3.02275 57.4774
12832179 10.3585 12.5888 17.3839 17.1461 0.866655 3.02275 57.4774
12832191 10.3057 12.552 17.3741 17.0974 0.858927 3.03871 57.3292
12832200 10.2969 12.5152 17.3642 17.1169 0.860032 3.05509 57.2932
12832208 10.2969 12.5152 17.3642 17.1169 0.860032 3.05509 57.2932
12832222 10.2617 12.5704 17.4627 17.1754 0.879359 3.08141 57.4701
12832228 10.2617 12.5704 17.4627 17.1754 0.879359 3.08141 57.4701
12832238 10.2176 12.4783 17.4528 17.2436 0.893614 3.13642 57.3923
12832248 10.2793 12.552 17.4725 17.2436 0.887871 3.09782 57.5473
12832268 10.2705 12.5428 17.502 17.1754 0.846076 3.09549 57.4906
12832278 10.2793 12.5428 17.3839 17.2436 0.923929 3.08237 57.4495
12832288 10.2793 12.5428 17.3839 17.2436 0.923929 3.08237 57.4495
12832298 10.2617 12.5152 17.3642 17.1461 0.888258 3.07229 57.2872
12832308 10.2617 12.5152 17.3642 17.1461 0.888258 3.07229 57.2872
12832318 10.2352 12.4599 17.3052 17.1461 0.903669 3.08579 57.1464
12832328 10.2264 12.4783 17.3839 17.1559 0.883871 3.10118 57.2445
12832348 10.2528 12.4507 17.3741 17.1559 0.864732 3.09951 57.2335
12832359 10.2705 12.4783 17.4528 17.1948 0.849313 3.10965 57.3965
12832370 10.2705 12.4783 17.4528 17.1948 0.849313 3.10965 57.3965
12832379 10.2705 12.4139 17.4823 17.2143 0.817078 3.14015 57.381
12832411 10.2 12.4599 17.502 17.1754 0.842926 3.14389 57.3373
12832413 10.2528 12.4507 17.502 17.1851 0.819352 3.1321 57.3907
12832440 10.244 12.4599 17.4627 17.2241 0.861329 3.13189 57.3907
12832443 10.2617 12.4139 17.4528 17.2338 0.842547 3.14086 57.3621
12832466 10.2528 12.4323 17.5217 17.2046 0.810951 3.14602 57.4114
12832481 10.1824 12.4415 17.502 17.263 0.880012 3.17339 57.3889
12832491 10.2352 12.3126 17.5217 17.2825 0.801253 3.20558 57.352
12832515 10.2352 12.3126 17.5217 17.2825 0.801253 3.20558 57.352
12832516 10.2352 12.2941 17.6103 17.2923 0.757799 3.23161 57.432
12832522 10.1736 12.331 17.5709 17.3702 0.851536 3.24739 57.4457
12832532 10.1736 12.331 17.5709 17.3702 0.851536 3.24739 57.4457
12832542 10.1472 12.331 17.63 17.2923 0.804046 3.25192 57.4004
12832552 10.1824 12.2757 17.6103 17.4092 0.823021 3.27816 57.4776
12832563 10.1824 12.2757 17.6103 17.4092 0.823021 3.27816 57.4776
12832572 10.1295 12.2389 17.6005 17.4287 0.843918 3.30868 57.3975
12832600 10.156 12.2297 17.6005 17.3799 0.807622 3.29326 57.3661
12832602 10.1648 12.1836 17.6103 17.4189 0.796247 3.31509 57.3776
12832625 10.1472 12.2297 17.6792 17.4968 0.825405 3.33586 57.5529
12832633 10.1295 12.156 17.6202 17.4774 0.820667 3.34906 57.3831
12832643 10.1295 12.156 17.6202 17.4774 0.820667 3.34906 57.3831
12832653 10.0679 12.1744 17.6891 17.5163 0.841564 3.38475 57.4477
12832667 10.0679 12.1744 17.6891 17.5163 0.841564 3.38475 57.4477
12832673 10.0415 12.1192 17.6694 17.5553 0.855473 3.41482 57.3853
12832683 10.0855 12.1008 17.7383 17.6332 0.829703 3.43618 57.5578
12832693 10.0855 12.1008 17.7383 17.6332 0.829703 3.43618 57.5578
12832703 10.0943 12.1744 17.7186 17.5261 0.820512 3.38424 57.5134
12832715 10.015 12.1744 17.7284 17.5358 0.855815 3.41356 57.4537
12832723 10.015 12.0915 17.7284 17.5358 0.820935 3.44017 57.3708
12832733 10.0503 12.0731 17.7087 17.5943 0.830802 3.44257 57.4264
12832743 10.0503 12.0731 17.7087 17.5943 0.830802 3.44257 57.4264
12832757 10.0238 12.0547 17.758 17.4774 0.763464 3.44335 57.3139
12832763 10.0062 12.0547 17.7087 17.565 0.830558 3.45677 57.3347
12832773 10.0062 12.0547 17.7087 17.565 0.830558 3.45677 57.3347
12832783 10.0679 12.1468 17.7186 17.5748 0.841242 3.41136 57.508
12832793 10.0679 12.1468 17.7186 17.5748 0.841242 3.41136 57.508
12832804 10.0415 12.1284 17.7186 17.6235 0.865841 3.43553 57.5119
12832813 10.0415 12.11 17.7383 17.565 0.824687 3.43363 57.4547
12832833 10.0062 12.0639 17.7383 17.5163 0.800598 3.44994 57.3247
12832848 10.0591 12.0731 17.7383 17.5748 0.805363 3.44176 57.4453
12832854 10.0591 12.0731 17.7383 17.5748 0.805363 3.44176 57.4453
12832864 10.0591 12.1376 17.7087 17.565 0.841659 3.41318 57.4705
12832874 10.0591 12.1376 17.7087 17.565 0.841659 3.41318 57.4705
12832884 10.0503 12.1192 17.6989 17.4774 0.805372 3.40221 57.3457
12832895 10.0679 12.1928 17.7284 17.5163 0.831604 3.38682 57.5055
12832907 10.0679 12.1928 17.7284 17.5163 0.831604 3.38682 57.5055
12832915 10.0855 12.1928 17.7186 17.4287 0.791207 3.36145 57.4256
12832926 10.0855 12.2021 17.6891 17.4871 0.832966 3.36437 57.4637
12832940 10.0855 12.2021 17.6891 17.4871 0.832966 3.36437 57.4637
12832945 10.1031 12.2113 17.6398 17.4579 0.83876 3.33989 57.4121
12832964 10.0591 12.1928 17.6103 17.4579 0.864163 3.35387 57.3201
12832976 10.0855 12.1836 17.6792 17.5163 0.841939 3.37418 57.4647
12832986 10.0855 12.1836 17.6792 17.5163 0.841939 3.37418 57.4647
12832996 10.0503 12.1652 17.6989 17.4774 0.824782 3.38745 57.3917
12833007 10.0767 12.1744 17.6694 17.4774 0.830057 3.37006 57.3978
12833029 10.0943 12.1836 17.6595 17.4287 0.809914 3.3496 57.3661
12833037 10.1031 12.1376 17.6694 17.3605 0.753257 3.34966 57.2705
12833050 10.1031 12.1376 17.6694 17.3605 0.753257 3.34966 57.2705
12833057 10.0767 12.2757 17.6202 17.4579 0.886631 3.32375 57.4304
12833067 10.0767 12.2757 17.6202 17.4579 0.886631 3.32375 57.4304
12833077 10.0591 12.1928 17.5709 17.3897 0.853196 3.33197 57.2125
12833087 10.0943 12.1836 17.6497 17.4676 0.830767 3.35551 57.3952
12833107 10.1119 12.1652 17.6694 17.4871 0.814435 3.36371 57.4336
12833121 10.0943 12.1376 17.6202 17.4579 0.820547 3.36228 57.3099
12833127 10.0943 12.1376 17.6202 17.4579 0.820547 3.36228 57.3099
12833138 10.015 12.156 17.6398 17.565 0.900286 3.40749 57.3759
12833149 10.015 12.156 17.6398 17.565 0.900286 3.40749 57.3759
12833158 10.0767 12.156 17.5906 17.4579 0.849575 3.35602 57.2812
12833170 10.0767 12.1192 17.6202 17.5066 0.841263 3.38371 57.3226
12833178 10.0767 12.1192 17.6202 17.5066 0.841263 3.38371 57.3226
12833195 10.0943 12.1836 17.6595 17.5456 0.859112 3.37329 57.483
12833198 10.0415 12.156 17.6398 17.565 0.888363 3.39901 57.4023
12833208 10.0415 12.156 17.6398 17.565 0.888363 3.39901 57.4023
12833222 10.0591 12.1652 17.6989 17.5553 0.853607 3.40038 57.4785
12833228 10.0591 12.1652 17.6989 17.5553 0.853607 3.40038 57.4785
12833238 10.0326 12.1284 17.6891 17.5553 0.854445 3.41867 57.4054
12833249 10.0855 12.1284 17.6005 17.6138 0.895113 3.39564 57.4281
12833261 10.0855 12.1284 17.6005 17.6138 0.895113 3.39564 57.4281
12833275 10.1648 12.2389 17.5414 17.4579 0.866947 3.29137 57.4029
12833278 10.1031 12.1652 17.5906 17.4676 0.845644 3.34659 57.3266
12833301 10.1472 12.2297 17.5906 17.4968 0.865221 3.31788 57.4643
12833309 10.1472 12.2297 17.5906 17.4968 0.865221 3.31788 57.4643
12833326 10.1295 12.2665 17.5414 17.4481 0.890347 3.29181 57.3856
12833331 10.1472 12.2849 17.5709 17.4384 0.87274 3.28436 57.4414
12833341 10.1472 12.2849 17.5709 17.4384 0.87274 3.28436 57.4414
12833350 10.1383 12.2849 17.5808 17.3897 0.851795 3.27923 57.3937
12833359 10.0767 12.2665 17.4823 17.4092 0.924554 3.28864 57.2347
12833379 10.156 12.331 17.4823 17.4968 0.952533 3.26077 57.4661
12833389 10.156 12.331 17.4823 17.4968 0.952533 3.26077 57.4661
12833399 10.1648 12.2941 17.4627 17.3702 0.888839 3.23972 57.2918
12833409 10.1736 12.3402 17.4823 17.4092 0.911698 3.2343 57.4053
12833421 10.1736 12.3402 17.4823 17.4092 0.911698 3.2343 57.4053
12833429 10.1824 12.3126 17.4331 17.4384 0.930622 3.23619 57.3665
12833445 10.156 12.3034 17.4922 17.4092 0.899741 3.25363 57.3607
12833451 10.156 12.3034 17.4922 17.4092 0.899741 3.25363 57.3607
12833461 10.1472 12.3034 17.5512 17.4579 0.897518 3.27846 57.4596
12833471 10.1472 12.3034 17.5512 17.4579 0.897518 3.27846 57.4596
12833481 10.0943 12.2665 17.5709 17.4774 0.905192 3.31501 57.4091
12833495 10.1031 12.2665 17.5217 17.4871 0.927529 3.30416 57.3784
12833511 10.156 12.331 17.502 17.4676 0.931409 3.25882 57.4566
12833523 10.0767 12.2205 17.5119 17.4287 0.900009 3.31338 57.2377
12833531 10.0767 12.2205 17.5119 17.4287 0.900009 3.31338 57.2377
12833545 10.1295 12.2389 17.5611 17.4384 0.865754 3.30264 57.3679
12833561 10.0943 12.2481 17.5808 17.4968 0.901201 3.32686 57.42
12833571 10.0767 12.1836 17.5512 17.4481 0.874898 3.33718 57.2597
12833581 10.0767 12.1836 17.5512 17.4481 0.874898 3.33718 57.2597
12833593 10.0767 12.2021 17.6989 17.5358 0.852969 3.37903 57.5135
12833601 10.0679 12.1928 17.6497 17.6138 0.907898 3.39059 57.5242
12833617 10.0679 12.1928 17.6497 17.6138 0.907898 3.39059 57.5242
12833621 10.0591 12.2021 17.6891 17.5456 0.869408 3.38464 57.4957
12833632 10.0591 12.2021 17.6891 17.5456 0.869408 3.38464 57.4957
12833642 10.0855 12.1376 17.6694 17.5748 0.851581 3.39874 57.4672
12833652 10.0767 12.1836 17.7087 17.604 0.869426 3.40066 57.5731
12833665 10.0767 12.1836 17.7087 17.604 0.869426 3.40066 57.5731
12833672 10.0503 12.11 17.6891 17.6235 0.867432 3.43267 57.4728
12833684 10.0679 12.156 17.6595 17.5748 0.871676 3.39649 57.4582
12833705 10.0503 12.1192 17.6891 17.604 0.863117 3.42579 57.4625
12833712 10.0503 12.1192 17.6891 17.604 0.863117 3.42579 57.4625
12833722 10.0238 12.0915 17.7284 17.6625 0.870231 3.4628 57.5063
12833732 10.0767 12.0915 17.6989 17.6138 0.839287 3.43012 57.4809
12833753 10.1031 12.1468 17.7481 17.5845 0.816265 3.40799 57.5826
12833763 10.0591 12.1376 17.7087 17.5261 0.825271 3.40532 57.4315
12833773 10.0591 12.1376 17.7087 17.5261 0.825271 3.40532 57.4315
12833783 10.1119 12.1468 17.6891 17.4579 0.785512 3.36767 57.4057
