888601 9.53616 12.4012 24.2351 27.3851 2.04433 6.05299 73.5575
888610 9.54494 12.4287 24.1957 27.3072 2.03985 6.02829 73.4765
888619 9.53616 12.4563 24.1662 27.2779 2.05342 6.01575 73.4365
888641 9.55372 12.4195 24.0776 27.2585 2.06205 6.00799 73.3093
888662 9.50103 12.5113 24.0185 27.2195 2.11987 5.98474 73.2504
888671 9.5625 12.5297 23.9693 27.2097 2.11803 5.95462 73.2713
888681 9.5625 12.5297 23.9693 27.2097 2.11803 5.95462 73.2713
888691 9.5625 12.5481 24.0185 27.1805 2.09643 5.95184 73.3096
888702 9.54494 12.493 23.989 27.2877 2.13011 5.98218 73.3146
888711 9.54494 12.493 23.989 27.2877 2.13011 5.98218 73.3146
888721 9.58006 12.5205 24.0382 27.2682 2.10145 5.96793 73.407
888731 9.58006 12.5205 24.0382 27.2682 2.10145 5.96793 73.407
888741 9.57128 12.5664 24.0185 27.3072 2.1384 5.9597 73.4634
888751 9.53616 12.5022 24.117 27.4046 2.12535 6.01209 73.5599
888761 9.53616 12.5022 24.117 27.4046 2.12535 6.01209 73.5599
888771 9.57128 12.5297 24.117 27.4728 2.14214 6.00254 73.6907
888781 9.57128 12.5297 24.117 27.4728 2.14214 6.00254 73.6907
888791 9.50981 12.4012 24.1071 27.5507 2.15273 6.0651 73.5688
888802 9.51859 12.4287 24.2252 27.5605 2.11755 6.07022 73.733
888811 9.51859 12.4287 24.2252 27.5605 2.11755 6.07022 73.733
888821 9.49225 12.3737 24.1071 27.5994 2.16579 6.08393 73.5724
888831 9.46591 12.4471 24.1268 27.6384 2.20308 6.07755 73.6782
888852 9.45713 12.3645 24.0579 27.6676 2.21527 6.09893 73.5471
888872 9.36054 12.3645 24.0776 27.6579 2.24074 6.12788 73.4605
888882 9.35176 12.291 24.0973 27.7066 2.22903 6.15979 73.4467
888892 9.35176 12.291 24.0973 27.7066 2.22903 6.15979 73.4467
888902 9.29907 12.3094 24.1957 27.7163 2.22079 6.18268 73.5205
888915 9.33419 12.2727 24.1957 27.7261 2.19943 6.18431 73.5287
888922 9.33419 12.2727 24.1957 27.7261 2.19943 6.18431 73.5287
888933 9.27273 12.2084 24.2252 27.7261 2.19131 6.22412 73.4325
888943 9.26395 12.1442 24.2548 27.8235 2.19392 6.26037 73.4864
888953 9.26395 12.1442 24.2548 27.8235 2.19392 6.26037 73.4864
888964 9.25517 12.1533 24.3138 27.8235 2.17818 6.26728 73.5458
888974 9.25517 12.1533 24.3138 27.8235 2.17818 6.26728 73.5458
888985 9.1937 12.0707 24.2745 27.804 2.18378 6.30205 73.3429
888993 9.17614 12.0891 24.3532 27.8625 2.18499 6.31806 73.4809
889004 9.17614 12.0891 24.3532 27.8625 2.18499 6.31806 73.4809
889013 9.20248 12.0799 24.3434 27.8819 2.18209 6.31422 73.5077
889024 9.20248 12.0799 24.3434 27.8819 2.18209 6.31422 73.5077
889033 9.15857 11.9881 24.4024 27.8819 2.14795 6.36059 73.4311
889044 9.17614 11.9422 24.491 27.9307 2.10964 6.38496 73.54
889053 9.17614 11.9422 24.491 27.9307 2.10964 6.38496 73.54
889065 9.15857 11.9055 24.4615 27.9014 2.10647 6.39387 73.427
889073 9.16736 11.8871 24.5206 27.9599 2.09394 6.41041 73.5349
889093 9.17614 11.8688 24.6485 27.9794 2.044 6.43038 73.6728
889104 9.17614 11.8688 24.6485 27.9794 2.044 6.43038 73.6728
889114 9.17614 11.8321 24.6781 27.9696 2.01868 6.44337 73.6559
889126 9.1937 11.7311 24.747 28.0378 1.97677 6.48355 73.7096
889135 9.1937 11.7311 24.747 28.0378 1.97677 6.48355 73.7096
889144 9.14101 11.7219 24.7666 28.0086 1.97685 6.5005 73.6382
889155 9.16736 11.6118 24.8257 28.0476 1.92331 6.53627 73.6524
889164 9.16736 11.6118 24.8257 28.0476 1.92331 6.53627 73.6524
889175 9.18492 11.6026 24.8552 27.9891 1.8849 6.5305 73.6319
889187 9.17614 11.5016 24.8848 27.9501 1.83331 6.56155 73.5127
889196 9.17614 11.5016 24.8848 27.9501 1.83331 6.56155 73.5127
889205 9.22004 11.4741 24.9931 27.9112 1.75689 6.56471 73.5983
889215 9.22004 11.4741 24.9931 27.9112 1.75689 6.56471 73.5983
889226 9.14979 11.4006 25.0915 27.9014 1.72034 6.61701 73.5434
889235 9.20248 11.3639 25.121 27.8625 1.66652 6.61124 73.5499
889245 9.20248 11.3639 25.121 27.8625 1.66652 6.61124 73.5499
889256 9.22882 11.2905 25.249 27.804 1.56876 6.633 73.5723
889276 9.22882 11.263 25.2195 27.7358 1.5489 6.62998 73.4471
889286 9.28151 11.2813 25.3179 27.7163 1.49403 6.61808 73.597
889296 9.28151 11.2813 25.3179 27.7163 1.49403 6.61808 73.597
889306 9.33419 11.2538 25.4557 27.6481 1.395 6.61862 73.6918
889316 9.38688 11.2721 25.5148 27.7163 1.38274 6.61227 73.8901
889326 9.38688 11.2721 25.5148 27.7163 1.38274 6.61227 73.8901
889336 9.39566 11.2721 25.623 27.6676 1.32542 6.61646 73.9585
889357 9.34298 11.1528 25.7313 27.6579 1.26426 6.67796 73.885
889367 9.39566 11.1344 25.7215 27.6092 1.22747 6.66129 73.8608
889387 9.38688 11.0886 25.7805 27.5702 1.18228 6.67961 73.8262
889398 9.39566 11.0518 25.8101 27.5605 1.1537 6.69004 73.818
889408 9.39566 11.0518 25.8101 27.5605 1.1537 6.69004 73.818
889418 9.422 11.1528 25.7412 27.3754 1.14158 6.62392 73.6913
889428 9.43079 11.0794 25.7116 27.2779 1.0935 6.62848 73.4997
889454 9.43079 11.0702 25.6723 27.2292 1.08865 6.62113 73.4025
889466 9.43079 11.0702 25.6723 27.2292 1.08865 6.62113 73.4025
889471 9.422 11.0518 25.5443 27.1415 1.10275 6.60446 73.1597
889478 9.45713 11.0977 25.5345 27.1123 1.09918 6.57607 73.2016
889490 9.45713 11.0977 25.5345 27.1123 1.09918 6.57607 73.2016
889499 9.46591 11.0977 25.564 27.0246 1.05686 6.56678 73.1523
889510 9.50981 11.0886 25.4852 27.0149 1.06309 6.54633 73.0985
889520 9.50981 11.0886 25.4852 27.0149 1.06309 6.54633 73.0985
889533 9.57128 11.1436 25.564 27.0149 1.03121 6.52115 73.2938
889551 9.52738 11.0886 25.5246 27.0539 1.05556 6.5502 73.1944
889560 9.58006 11.1987 25.5049 27.0539 1.0798 6.50008 73.3376
889570 9.58006 11.1987 25.5049 27.0539 1.0798 6.50008 73.3376
889580 9.53616 11.1895 25.4655 27.1221 1.12868 6.51899 73.3133
889590 9.57128 11.1987 25.4459 27.1708 1.14201 6.50936 73.3866
889600 9.57128 11.1987 25.4459 27.1708 1.14201 6.50936 73.3866
889610 9.62397 11.2721 25.4852 27.2195 1.14891 6.48266 73.6008
889621 9.62397 11.2721 25.4852 27.2195 1.14891 6.48266 73.6008
889631 9.58884 11.2721 25.4951 27.2195 1.15789 6.49406 73.5755
889642 9.58884 11.318 25.436 27.2195 1.19377 6.47382 73.5624
889661 9.63275 11.3089 25.3376 27.2487 1.21968 6.45565 73.5279
889671 9.65909 11.3364 25.3671 27.2 1.19293 6.43771 73.5626
889681 9.65909 11.3364 25.3671 27.2 1.19293 6.43771 73.5626
889692 9.7469 11.3915 25.2884 27.1805 1.20121 6.38466 73.6072
889701 9.7469 11.3915 25.2884 27.1805 1.20121 6.38466 73.6072
889711 9.75568 11.4098 25.1801 27.0831 1.21109 6.35263 73.4287
889721 9.72056 11.419 25.1998 27.0441 1.20695 6.3579 73.3835
889731 9.72056 11.419 25.1998 27.0441 1.20695 6.3579 73.3835
889742 9.73812 11.3272 25.1013 26.9759 1.18389 6.35989 73.1426
889752 9.75568 11.4282 25.1112 26.9272 1.19108 6.32073 73.2223
889762 9.75568 11.4282 25.1112 26.9272 1.19108 6.32073 73.2223
889772 9.79959 11.4098 25.0521 26.9272 1.19053 6.30628 73.1888
889782 9.79959 11.4098 25.0521 26.9272 1.19053 6.30628 73.1888
889792 9.80837 11.3823 25.1506 26.859 1.12104 6.31533 73.2002
889802 9.75568 11.3548 25.1801 26.937 1.14573 6.35143 73.2275
889812 9.75568 11.3548 25.1801 26.937 1.14573 6.35143 73.2275
889822 9.78202 11.3548 25.2785 26.9662 1.11077 6.35881 73.3815
889832 9.76446 11.3639 25.3474 27.0149 1.11135 6.37508 73.4907
889842 9.76446 11.3639 25.3474 27.0149 1.11135 6.37508 73.4907
889853 9.78202 11.3272 25.5148 27.0831 1.05605 6.40819 73.7071
889862 9.78202 11.3272 25.5148 27.0831 1.05605 6.40819 73.7071
889872 9.72934 11.2262 25.623 27.1026 1.0099 6.46774 73.6812
889882 9.76446 11.2997 25.6723 27.1026 1.00405 6.44186 73.839
889892 9.76446 11.2997 25.6723 27.1026 1.00405 6.44186 73.839
889902 9.77324 11.2905 25.6723 27.0831 0.991642 6.43972 73.8191
889912 9.72934 11.1987 25.6624 27.1415 0.999734 6.48482 73.732
889932 9.72056 11.1712 25.6723 27.0149 0.949064 6.48191 73.5789
889954 9.703 11.162 25.6723 26.937 0.926748 6.48069 73.4742
889964 9.703 11.2171 25.6723 26.9175 0.938404 6.46234 73.5098
889974 9.703 11.2171 25.6723 26.9175 0.938404 6.46234 73.5098
889983 9.77324 11.1253 25.5541 26.8395 0.899631 6.44581 73.2922
889994 9.69421 11.1803 25.4459 26.6934 0.936016 6.42304 73.0138
890003 9.69421 11.1803 25.4459 26.6934 0.936016 6.42304 73.0138
890014 9.72056 11.1712 25.5148 26.6934 0.899199 6.42609 73.0999
890034 9.73812 11.1712 25.5541 26.635 0.859752 6.41871 73.0984
890048 9.72056 11.1344 25.5935 26.7226 0.868857 6.4495 73.1712
890055 9.72056 11.1344 25.5935 26.7226 0.868857 6.4495 73.1712
890065 9.73812 11.2171 25.5443 26.6155 0.871953 6.40182 73.115
890075 9.71178 11.162 25.5837 26.635 0.855595 6.43258 73.0924
890091 9.71178 11.162 25.5837 26.635 0.855595 6.43258 73.0924
890095 9.72056 11.1895 25.5837 26.5862 0.845492 6.41622 73.08
890105 9.72056 11.1895 25.5837 26.5862 0.845492 6.41622 73.08
890115 9.78202 11.2171 25.5443 26.596 0.849998 6.38668 73.1394
890125 9.81715 11.2171 25.5837 26.6252 0.833341 6.38449 73.2431
890135 9.81715 11.2171 25.5837 26.6252 0.833341 6.38449 73.2431
890145 9.83471 11.2813 25.6427 26.5862 0.814688 6.363 73.345
890156 9.8874 11.2354 25.8396 26.6057 0.71843 6.38643 73.5682
890166 9.8874 11.2354 25.8396 26.6057 0.71843 6.38643 73.5682
890176 9.89618 11.2813 25.9577 26.6447 0.702128 6.38892 73.7799
890186 9.89618 11.2813 25.9577 26.6447 0.702128 6.38892 73.7799
890196 9.94886 11.2079 25.8396 26.557 0.671768 6.37086 73.5534
890206 9.94886 11.263 25.8691 26.4304 0.63777 6.34345 73.5113
890226 9.99277 11.2721 25.8691 26.294 0.580236 6.31194 73.428
890236 10.0279 11.3456 25.8101 26.255 0.600031 6.26884 73.4386
890257 10.142 11.3915 25.879 26.216 0.53868 6.22615 73.6285
890267 10.1947 11.3915 25.8987 26.216 0.513601 6.21333 73.7009
890277 10.1947 11.4006 25.8987 26.0991 0.477758 6.19672 73.5932
890287 10.2211 11.4098 25.9479 25.9822 0.415677 6.17839 73.561
890297 10.2211 11.4098 25.9479 25.9822 0.415677 6.17839 73.561
890307 10.2211 11.4465 25.8691 25.8751 0.419348 6.14545 73.4118
890317 10.2562 11.3639 25.8494 25.8653 0.38304 6.15559 73.3349
890339 10.4143 11.52 25.7018 25.7289 0.386038 6.03077 73.365
890348 10.3967 11.4833 25.7805 25.612 0.313231 6.04168 73.2725
890360 10.3967 11.4833 25.7805 25.612 0.313231 6.04168 73.2725
890369 10.4143 11.52 25.8002 25.5926 0.306177 6.02613 73.327
890389 10.5021 11.5383 25.751 25.5049 0.269499 5.97892 73.2963
890399 10.5548 11.5751 25.8494 25.4367 0.206879 5.95708 73.4159
890420 10.6162 11.5567 25.8593 25.3782 0.156453 5.93879 73.4104
890430 10.6865 11.5383 25.9184 25.3295 0.0894994 5.92528 73.4727
890440 10.6865 11.5383 25.9184 25.3295 0.0894994 5.92528 73.4727
890449 10.7392 11.6026 25.938 25.2711 0.0667781 5.88723 73.5508
890460 10.7392 11.6026 25.938 25.2711 0.0667781 5.88723 73.5508
890469 10.7128 11.4924 25.9971 25.1834 -0.0116155 5.92252 73.3857
890479 10.7655 11.5751 25.9873 25.1834 0.00193119 5.8828 73.5112
890499 10.7918 11.5475 26.0463 25.0567 -0.0796258 5.87474 73.4424
890510 10.8006 11.5475 25.9873 25.0762 -0.0558987 5.86733 73.4116
890519 10.8006 11.5016 25.9873 25.0762 -0.0715747 5.88038 73.3657
890531 10.8006 11.52 26.1546 25.0665 -0.12536 5.89472 73.5417
890540 10.8006 11.52 26.1546 25.0665 -0.12536 5.89472 73.5417
890550 10.7392 11.5108 26.1349 25.1054 -0.0877082 5.91719 73.4903
890561 10.7743 11.4465 26.2924 25.0373 -0.198129 5.9365 73.5505
890581 10.7392 11.4098 26.3318 25.047 -0.208806 5.96301 73.5278
890590 10.7392 11.4098 26.3318 25.047 -0.208806 5.96301 73.5278
890600 10.704 11.2997 26.381 25.047 -0.251378 6.01054 73.4317
890610 10.7216 11.3548 26.3909 25.1249 -0.214955 6.00053 73.5921
890620 10.7216 11.3548 26.3909 25.1249 -0.214955 6.00053 73.5921
890630 10.6865 11.2905 26.4696 25.1347 -0.248332 6.03971 73.5812
890641 10.6513 11.2721 26.4302 25.1931 -0.209494 6.05734 73.5468
890650 10.6513 11.2721 26.4302 25.1931 -0.209494 6.05734 73.5468
890660 10.5987 11.2079 26.4401 25.1931 -0.217089 6.09207 73.4397
890673 10.5987 11.2079 26.4401 25.1931 -0.217089 6.09207 73.4397
890680 10.5021 11.162 26.4499 25.2223 -0.193506 6.13779 73.3363
890691 10.5635 11.1528 26.4893 25.3198 -0.197291 6.13925 73.5254
890701 10.5635 11.1528 26.4893 25.3198 -0.197291 6.13925 73.5254
890711 10.3967 11.1253 26.4105 25.3782 -0.103579 6.19284 73.3107
890723 10.4143 11.061 26.4105 25.4172 -0.118203 6.21103 73.303
890741 10.3879 11.0427 26.4302 25.4562 -0.108884 6.23099 73.317
890752 10.3616 11.0243 26.4007 25.5438 -0.0661805 6.25089 73.3304
890761 10.3616 11.0243 26.4007 25.5438 -0.0661805 6.25089 73.3304
890771 10.2913 11.0335 26.3318 25.6315 0.0142872 6.27083 73.2881
890782 10.2913 11.0335 26.3318 25.6315 0.0142872 6.27083 73.2881
890792 10.1772 11.0702 26.2137 25.6997 0.129536 6.28739 73.1607
890802 10.2211 11.1344 26.253 25.7971 0.155801 6.27226 73.4057
890822 10.2299 11.1161 26.194 25.8653 0.1899 6.27612 73.4053
890834 10.1772 11.162 26.1448 25.9822 0.27982 6.28613 73.4662
890843 10.1772 11.162 26.1448 25.9822 0.27982 6.28613 73.4662
890854 10.1508 11.1069 26.2038 26.0699 0.279534 6.32709 73.5315
890864 10.1508 11.1069 26.2038 26.0699 0.279534 6.32709 73.5315
890873 10.1245 11.1895 26.1054 26.1966 0.392652 6.31411 73.616
890886 10.0806 11.2446 26.0266 26.255 0.472918 6.30848 73.6068
890894 10.0806 11.2446 26.0266 26.255 0.472918 6.30848 73.6068
890905 10.0542 11.2079 25.938 26.3037 0.516751 6.32204 73.5039
890915 10.0015 11.2171 25.8888 26.3427 0.568202 6.33346 73.4501
890935 9.97521 11.2721 25.751 26.333 0.640538 6.30766 73.3313
890946 9.9313 11.2905 25.6624 26.4011 0.71567 6.31267 73.2854
890966 9.92252 11.3272 25.6526 26.4109 0.73759 6.30454 73.3132
890978 9.92252 11.3272 25.6526 26.4109 0.73759 6.30454 73.3132
890990 9.90496 11.3639 25.5837 26.4888 0.805864 6.30005 73.3414
890997 9.92252 11.3823 25.5837 26.5278 0.818583 6.29424 73.4163
891017 9.82593 11.3456 25.564 26.5473 0.853866 6.33296 73.2828
891027 9.84349 11.4098 25.6329 26.6252 0.870159 6.32652 73.5114
891047 9.87862 11.4741 25.5738 26.7226 0.931537 6.30226 73.6492
891067 9.80837 11.3823 25.5935 26.8006 0.94482 6.36071 73.5847
891078 9.73812 11.4465 25.7018 26.8103 0.955585 6.37628 73.6968
891098 9.78202 11.3823 25.623 26.859 0.962794 6.37868 73.6464
891108 9.78202 11.4649 25.6132 26.7908 0.970966 6.34556 73.651
891119 9.78202 11.4649 25.6132 26.7908 0.970966 6.34556 73.651
891129 9.79081 11.3915 25.564 26.8103 0.967619 6.36082 73.5566
891139 9.79081 11.3915 25.564 26.8103 0.967619 6.36082 73.5566
891149 9.71178 11.3364 25.623 26.8201 0.959849 6.40789 73.4913
891158 9.73812 11.3823 25.5738 26.7811 0.9702 6.37653 73.4753
891169 9.73812 11.3823 25.5738 26.7811 0.9702 6.37653 73.4753
891178 9.72056 11.318 25.5837 26.8006 0.958276 6.4038 73.4228
891188 9.68543 11.3364 25.5935 26.8006 0.973228 6.40984 73.4159
891208 9.72934 11.3364 25.7116 26.8493 0.931963 6.41653 73.6267
891228 9.66787 11.3089 25.6723 26.859 0.961712 6.439 73.508
891238 9.71178 11.2538 25.6624 26.8883 0.941235 6.44452 73.5162
891250 9.71178 11.2538 25.6624 26.8883 0.941235 6.44452 73.5162
891260 9.71178 11.2538 25.7018 26.8785 0.924158 6.44797 73.5459
891270 9.72934 11.2262 25.751 26.9077 0.901192 6.45999 73.6143
891290 9.66787 11.2262 25.6723 26.8688 0.937861 6.46426 73.4351
891302 9.66787 11.2262 25.6723 26.8688 0.937861 6.46426 73.4351
891311 9.67665 11.1528 25.692 26.8785 0.90692 6.48659 73.3999
891321 9.703 11.1712 25.7805 26.8785 0.872439 6.48378 73.5332
891331 9.703 11.1712 25.7805 26.8785 0.872439 6.48378 73.5332
891341 9.59762 11.0977 25.7707 26.9175 0.901732 6.53951 73.3835
891351 9.65031 11.1436 25.8396 26.8785 0.861159 6.51407 73.5121
891362 9.65031 11.1436 25.8396 26.8785 0.861159 6.51407 73.5121
891374 9.69421 11.0886 25.8298 26.8883 0.834289 6.51733 73.5008
891391 9.65909 11.061 25.8298 26.8785 0.834376 6.53457 73.4284
891405 9.65909 11.0702 25.8494 26.859 0.824061 6.5319 73.4378
891411 9.65909 11.0702 25.8494 26.859 0.824061 6.5319 73.4378
891421 9.72056 11.1069 25.879 26.7421 0.765669 6.49304 73.4486
891431 9.72056 11.0335 25.8593 26.7908 0.764418 6.5179 73.4042
891441 9.72056 11.0335 25.8593 26.7908 0.764418 6.5179 73.4042
891451 9.76446 11.1161 25.9085 26.8201 0.768647 6.48996 73.6091
891461 9.76446 11.1161 25.9085 26.8201 0.768647 6.48996 73.6091
891471 9.78202 11.0794 25.8987 26.7032 0.715268 6.48088 73.4632
891481 9.77324 11.0977 25.9085 26.6544 0.704858 6.47357 73.4339
891491 9.77324 11.0977 25.9085 26.6544 0.704858 6.47357 73.4339
891501 9.80837 11.0794 25.8593 26.6057 0.687581 6.45728 73.3528
891513 9.83471 11.1895 25.9184 26.5375 0.67161 6.41636 73.4801
891521 9.83471 11.1895 25.9184 26.5375 0.67161 6.41636 73.4801
891534 9.83471 11.1436 25.9184 26.4693 0.633773 6.42178 73.366
891542 9.83471 11.1436 25.9184 26.4693 0.633773 6.42178 73.366
891552 9.8874 11.1712 25.8593 26.4109 0.62573 6.38459 73.3288
891562 9.87862 11.1712 25.8593 26.4109 0.628802 6.38716 73.32
891572 9.87862 11.1712 25.8593 26.4109 0.628802 6.38716 73.32
891582 9.89618 11.2079 25.8298 26.4596 0.661349 6.37359 73.3934
891592 9.9313 11.2262 25.8002 26.4011 0.646091 6.34766 73.3589
891603 9.9313 11.2262 25.8002 26.4011 0.646091 6.34766 73.3589
891612 9.94886 11.318 25.9184 26.4791 0.654966 6.339 73.6643
891633 9.86105 11.2446 25.8593 26.4304 0.665784 6.37316 73.3953
891642 9.9313 11.3272 25.9282 26.4986 0.667122 6.34487 73.6853
891653 9.9313 11.3272 25.9282 26.4986 0.667122 6.34487 73.6853
891662 9.86983 11.2997 25.8691 26.4888 0.696859 6.36261 73.5275
891673 9.90496 11.2813 25.879 26.4986 0.678304 6.36004 73.5638
891694 9.87862 11.2997 25.9085 26.5278 0.692913 6.36926 73.6146
891704 9.87862 11.2997 25.9085 26.5278 0.692913 6.36926 73.6146
891714 9.83471 11.2905 25.8691 26.4693 0.699663 6.3732 73.4637
891726 9.86983 11.2813 25.8494 26.4499 0.68478 6.36105 73.4505
891737 9.86983 11.2813 25.8494 26.4499 0.68478 6.36105 73.4505
891744 9.84349 11.2997 25.8593 26.4109 0.683722 6.35995 73.4134
891753 9.87862 11.2354 25.8987 26.4596 0.652537 6.37878 73.4723
891763 9.87862 11.2354 25.8987 26.4596 0.652537 6.37878 73.4723
891774 9.82593 11.2171 25.8691 26.4693 0.67842 6.39715 73.3815
891784 9.82593 11.2171 25.8691 26.4693 0.67842 6.39715 73.3815
891794 9.78202 11.2079 25.9184 26.5473 0.699329 6.42751 73.4555
891804 9.82593 11.1528 25.9676 26.6155 0.671127 6.44444 73.5618
891814 9.82593 11.1528 25.9676 26.6155 0.671127 6.44444 73.5618
891824 9.79081 11.1528 26.0168 26.5862 0.656542 6.45701 73.5467
891835 9.79959 11.162 26.0069 26.5473 0.64705 6.4461 73.5158
891845 9.79959 11.162 26.0069 26.5473 0.64705 6.4461 73.5158
891855 9.80837 11.0886 26.0759 26.5765 0.605318 6.47636 73.5493
891865 9.80837 11.0886 26.0759 26.5765 0.605318 6.47636 73.5493
891875 9.7469 11.0977 26.0463 26.5668 0.636852 6.48709 73.4577
891885 9.81715 11.1161 26.0365 26.5473 0.615415 6.4578 73.517
891895 9.81715 11.1161 26.0365 26.5473 0.615415 6.4578 73.517
891906 9.85227 11.0886 26.1251 26.4693 0.537342 6.45682 73.5352
891915 9.85227 11.0427 26.0168 26.4791 0.562969 6.45877 73.3908
891935 9.80837 11.0794 26.0365 26.4304 0.567415 6.45749 73.3546
891945 9.80837 11.0794 26.0365 26.4304 0.567415 6.45749 73.3546
891955 9.83471 11.0794 26.0069 26.333 0.536034 6.43497 73.254
891965 9.87862 11.061 26.1054 26.3817 0.496644 6.44468 73.4267
891993 9.8874 11.0518 26.1349 26.3524 0.470525 6.44483 73.4266
892005 9.86983 11.061 26.1546 26.333 0.466344 6.4473 73.4184
892017 9.8874 11.0243 26.1349 26.3817 0.471088 6.45628 73.4283
892026 9.8874 11.0243 26.1349 26.3817 0.471088 6.45628 73.4283
892036 9.9313 11.0243 26.1448 26.333 0.436172 6.43893 73.4333
892046 9.87862 11.0151 26.2235 26.3622 0.433856 6.46956 73.4794
892056 9.87862 11.0151 26.2235 26.3622 0.433856 6.46956 73.4794
892066 9.90496 11.0427 26.2137 26.3524 0.434092 6.45155 73.5137
892076 9.94008 10.9876 26.3121 26.3817 0.379321 6.47218 73.6214
892086 9.94008 10.9876 26.3121 26.3817 0.379321 6.47218 73.6214
892096 9.94008 10.9692 26.3023 26.3914 0.379837 6.47753 73.603
892117 9.92252 10.96 26.2235 26.3037 0.380653 6.46603 73.4098
892127 9.96643 10.9692 26.2629 26.3037 0.35497 6.4551 73.5023
892138 9.96643 10.9692 26.2629 26.3037 0.35497 6.4551 73.5023
892148 9.94886 11.0151 26.3023 26.2745 0.353032 6.44801 73.5407
892157 9.97521 10.9325 26.2629 26.1966 0.303602 6.45079 73.3672
892177 9.96643 10.9233 26.3416 26.2063 0.279686 6.46634 73.4377
892187 9.96643 10.9233 26.3416 26.2063 0.279686 6.46634 73.4377
892197 9.95764 10.8866 26.3416 26.1479 0.250626 6.47285 73.3337
892207 10.0367 10.905 26.3712 26.1673 0.226071 6.45008 73.4801
892217 10.0367 10.905 26.3712 26.1673 0.226071 6.45008 73.4801
892227 10.0191 10.905 26.4696 26.0894 0.172031 6.45759 73.4831
892237 9.99277 10.804 26.4794 26.1576 0.166607 6.50387 73.4338
892248 9.99277 10.804 26.4794 26.1576 0.166607 6.50387 73.4338
892258 10.0191 10.8683 26.6369 26.2258 0.148469 6.50346 73.7501
892278 10.0279 10.7673 26.6566 26.1284 0.0717342 6.52142 73.5802
892289 9.97521 10.7673 26.6468 26.2063 0.119433 6.54467 73.5956
892309 9.98399 10.7581 26.6271 26.1868 0.11346 6.54029 73.556
892320 9.9313 10.703 26.696 26.1868 0.0892758 6.57979 73.5172
892330 9.9313 10.703 26.696 26.1868 0.0892758 6.57979 73.5172
892340 9.97521 10.6571 26.696 26.1771 0.0554353 6.57926 73.5054
892353 9.97521 10.6571 26.696 26.1771 0.0554353 6.57926 73.5054
892360 9.89618 10.6755 26.7157 26.1186 0.0620693 6.59265 73.406
892370 9.96643 10.7214 26.7551 26.1186 0.0402778 6.56306 73.5615
892380 9.96643 10.7214 26.7551 26.1186 0.0402778 6.56306 73.5615
892390 10.0367 10.6388 26.7157 26.0894 -0.00823289 6.55881 73.4805
892400 9.94886 10.6204 26.7551 26.0407 -0.0145957 6.58893 73.365
892421 9.96643 10.6388 26.7649 26.0504 -0.0143453 6.58062 73.4205
892431 9.96643 10.6388 26.7649 26.0504 -0.0143453 6.58062 73.4205
892441 9.98399 10.6571 26.7846 26.0991 -0.00419021 6.5779 73.5249
892453 9.98399 10.6571 26.7649 26.0699 -0.00743717 6.57229 73.4759
892462 9.98399 10.6571 26.7649 26.0699 -0.00743717 6.57229 73.4759
892472 9.97521 10.6755 26.696 26.0504 0.0186324 6.55933 73.3971
892483 9.94886 10.6204 26.7748 26.0797 -0.0080198 6.59565 73.4237
892493 9.94886 10.6204 26.7748 26.0797 -0.0080198 6.59565 73.4237
892502 9.97521 10.6571 26.7157 26.0797 0.0156254 6.57035 73.4277
892513 9.94886 10.6021 26.7157 26.0991 0.0124842 6.59652 73.3657
892532 9.94008 10.6571 26.7058 26.0115 0.00772476 6.57171 73.3145
892544 9.94008 10.6571 26.7058 26.0115 0.00772476 6.57171 73.3145
892554 9.90496 10.6296 26.7058 26.1479 0.0567645 6.60579 73.3882
892565 9.98399 10.6388 26.7255 26.1381 0.022912 6.58099 73.4864
892574 9.98399 10.6388 26.7255 26.1381 0.022912 6.58099 73.4864
892584 9.97521 10.7214 26.7748 26.1479 0.0405014 6.56609 73.6192
892594 9.99277 10.7122 26.7058 26.1381 0.051564 6.55461 73.5489
892605 9.99277 10.7122 26.7058 26.1381 0.051564 6.55461 73.5489
892614 10.063 10.7489 26.5877 26.1673 0.0902265 6.51307 73.567
892625 10.063 10.7489 26.5877 26.1673 0.0902265 6.51307 73.567
892636 10.0191 10.703 26.5779 26.1673 0.093025 6.53823 73.4674
892648 10.0015 10.6479 26.6074 26.1284 0.0570118 6.55846 73.3853
892658 10.0015 10.6479 26.6074 26.1284 0.0570118 6.55846 73.3853
892666 10.0455 10.7306 26.5483 26.0504 0.063777 6.50552 73.3748
892676 10.0718 10.6938 26.5483 26.0991 0.0588566 6.5142 73.4131
892685 10.0718 10.6938 26.5483 26.0991 0.0588566 6.5142 73.4131
892695 9.99277 10.7397 26.509 26.1186 0.121534 6.52162 73.3601
892716 9.95764 10.7489 26.4401 26.1771 0.180119 6.52802 73.3237
892726 10.0015 10.7581 26.5287 26.2355 0.157571 6.52942 73.5238
892737 10.0015 10.7581 26.5287 26.2355 0.157571 6.52942 73.5238
892746 9.99277 10.7214 26.5385 26.2258 0.141504 6.54277 73.4784
892756 9.98399 10.6663 26.4893 26.3232 0.175679 6.56704 73.4628
892766 9.98399 10.6663 26.4893 26.3232 0.175679 6.56704 73.4628
892777 9.99277 10.7673 26.4794 26.3135 0.206834 6.53261 73.553
892787 10.0103 10.7214 26.5188 26.3719 0.191569 6.55215 73.6225
892807 9.95764 10.7489 26.4893 26.3914 0.235566 6.55836 73.5873
892827 9.90496 10.7306 26.4794 26.4109 0.257406 6.5803 73.5259
892838 9.91374 10.7214 26.4696 26.4791 0.277621 6.5871 73.5838
892858 9.87862 10.804 26.4204 26.4986 0.340876 6.56977 73.6016
892869 9.85227 10.7122 26.4007 26.5765 0.352094 6.61109 73.5417
892889 9.86105 10.7948 26.3416 26.5668 0.393835 6.5764 73.5643
892908 9.80837 10.7397 26.2826 26.5668 0.414038 6.6013 73.3974
892920 9.81715 10.7122 26.2924 26.6155 0.414675 6.61351 73.4372
892930 9.81715 10.7122 26.2924 26.6155 0.414675 6.61351 73.4372
892940 9.84349 10.703 26.2235 26.6544 0.439385 6.60504 73.4245
892950 9.78202 10.7581 26.3219 26.7129 0.464499 6.62482 73.575
892960 9.78202 10.7581 26.3219 26.7129 0.464499 6.62482 73.575
892970 9.7469 10.7397 26.2826 26.7811 0.506917 6.64382 73.5503
892990 9.71178 10.6938 26.253 26.7908 0.517315 6.66545 73.4495
893000 9.703 10.7489 26.2629 26.898 0.570905 6.66507 73.6128
893010 9.703 10.7489 26.2629 26.898 0.570905 6.66507 73.6128
893020 9.71178 10.6663 26.2924 27.0149 0.56898 6.70334 73.6854
893031 9.66787 10.6112 26.2629 27.0052 0.572976 6.72812 73.5471
893040 9.66787 10.6112 26.2629 27.0052 0.572976 6.72812 73.5471
893050 9.66787 10.6663 26.3121 26.9857 0.567687 6.71521 73.632
893060 9.66787 10.6663 26.3121 26.9857 0.567687 6.71521 73.632
893070 9.59762 10.5286 26.2727 27.0441 0.579494 6.77884 73.4431
893082 9.53616 10.5837 26.3219 27.1026 0.621453 6.79277 73.5444
893100 9.55372 10.5837 26.3416 27.1318 0.618166 6.79302 73.6109
893110 9.51859 10.5103 26.3219 27.161 0.622603 6.82627 73.5118
893120 9.51859 10.5103 26.3219 27.161 0.622603 6.82627 73.5118
893130 9.49225 10.4735 26.3712 27.2 0.615379 6.85479 73.537
893151 9.49225 10.4919 26.3909 27.2292 0.624293 6.85475 73.6042
893161 9.34298 10.4827 26.4105 27.3072 0.692236 6.91266 73.5434
893171 9.34298 10.4827 26.4105 27.3072 0.692236 6.91266 73.5434
893181 9.36054 10.4552 26.4302 27.3656 0.689441 6.92421 73.6116
893191 9.40444 10.4644 26.4696 27.3851 0.669873 6.91487 73.7235
893201 9.40444 10.4644 26.4696 27.3851 0.669873 6.91487 73.7235
893211 9.34298 10.3726 26.509 27.4338 0.663343 6.97014 73.6583
893221 9.34298 10.3726 26.509 27.4338 0.663343 6.97014 73.6583
893231 9.29029 10.3634 26.568 27.4241 0.65487 6.99397 73.6458
893241 9.2376 10.3817 26.6468 27.502 0.677586 7.02121 73.7681
893251 9.2376 10.3817 26.6468 27.502 0.677586 7.02121 73.7681
893261 9.26395 10.345 26.5779 27.5312 0.689936 7.02001 73.7181
893271 9.21126 10.2808 26.6271 27.5702 0.682804 7.06451 73.6893
893291 9.18492 10.2808 26.6665 27.6481 0.703955 7.085 73.7803
893301 9.18492 10.2808 26.6665 27.6481 0.703955 7.085 73.7803
893311 9.13223 10.2165 26.6763 27.7163 0.720188 7.1284 73.7414
893321 9.08833 10.2441 26.6862 27.7358 0.747547 7.13644 73.7544
893331 9.08833 10.2441 26.6862 27.7358 0.747547 7.13644 73.7544
893341 9.10589 10.1798 26.6763 27.7553 0.730118 7.15149 73.7173
893351 9.07955 10.0972 26.7452 27.7456 0.684828 7.19056 73.6675
893372 9.07955 10.0788 26.6665 27.7943 0.722328 7.1929 73.6191
893392 9.0532 10.088 26.696 27.7456 0.708172 7.19605 73.5828
893403 9.00052 10.0421 26.7452 27.8917 0.742427 7.24644 73.6796
893412 9.00052 10.0421 26.7452 27.8917 0.742427 7.24644 73.6796
893422 8.96539 9.96868 26.6665 27.9112 0.764501 7.27304 73.5117
893434 8.96539 9.99622 26.7846 27.9307 0.738662 7.27915 73.6769
893442 8.96539 9.99622 26.7846 27.9307 0.738662 7.27915 73.6769
893453 8.97417 9.96868 26.8338 28.0086 0.735 7.29812 73.7853
893465 8.97417 9.96868 26.8338 28.0086 0.735 7.29812 73.7853
893473 8.86002 9.91361 26.8633 28.1158 0.781667 7.36355 73.7527
893484 8.8688 9.85853 26.8929 28.2229 0.785375 7.39171 73.8431
893493 8.8688 9.85853 26.8929 28.2229 0.785375 7.39171 73.8431
893504 8.86002 9.86771 26.8732 28.2327 0.801522 7.39056 73.8336
893514 8.85124 9.76674 26.9224 28.2814 0.770256 7.43395 73.8218
893535 8.81612 9.80346 27.0012 28.3106 0.776663 7.44452 73.9313
893544 8.81612 9.80346 27.0012 28.3106 0.776663 7.44452 73.9313
893555 8.81612 9.68412 26.9421 28.3009 0.754908 7.47379 73.7432
893564 8.81612 9.64741 26.9224 28.408 0.784922 7.49389 73.794
893585 8.76343 9.63823 26.9323 28.3788 0.787294 7.51079 73.7127
893595 8.74587 9.57397 26.9618 28.3203 0.742733 7.53287 73.602
893615 8.77221 9.58315 26.8338 28.3496 0.790974 7.51196 73.5388
893625 8.77221 9.58315 26.8338 28.3496 0.790974 7.51196 73.5388
893635 8.71074 9.52808 26.8437 28.3496 0.790951 7.54869 73.4321
893645 8.78099 9.64741 26.9126 28.2814 0.759017 7.4907 73.6223
893655 8.78099 9.64741 26.9126 28.2814 0.759017 7.4907 73.6223
893667 8.8249 9.64741 26.8437 28.2034 0.742081 7.46227 73.5194
893675 8.77221 9.63823 26.824 28.2327 0.774059 7.48217 73.4671
893696 8.83368 9.67495 26.8633 28.2521 0.75725 7.4582 73.6241
893708 8.83368 9.67495 26.8633 28.2521 0.75725 7.4582 73.6241
893716 8.84246 9.61987 26.8633 28.2716 0.742453 7.47432 73.5973
893726 8.93027 9.64741 26.9519 28.3203 0.706005 7.45321 73.85
893736 8.93027 9.64741 26.9519 28.3203 0.706005 7.45321 73.85
893746 8.89514 9.6933 26.9224 28.2716 0.727606 7.44193 73.7825
893756 8.88636 9.72084 26.8929 28.2229 0.734004 7.4282 73.723
893766 8.88636 9.72084 26.8929 28.2229 0.734004 7.4282 73.723
893777 8.93905 9.7392 26.8535 28.2034 0.728989 7.40054 73.7352
893786 8.93905 9.7392 26.8535 28.2034 0.728989 7.40054 73.7352
893796 8.98295 9.7392 26.8043 28.1547 0.7148 7.37709 73.6812
893806 9.03564 9.77592 26.7354 28.067 0.703654 7.3337 73.614
893818 9.03564 9.77592 26.7354 28.067 0.703654 7.3337 73.614
893828 9.07076 9.85853 26.7157 27.9599 0.690159 7.28476 73.6049
893839 9.09711 9.85853 26.6566 27.9696 0.704801 7.27162 73.5819
893847 9.09711 9.85853 26.6566 27.9696 0.704801 7.27162 73.5819
893858 9.14101 9.91361 26.6271 27.843 0.676125 7.22522 73.5247
893867 9.14101 9.91361 26.6271 27.843 0.676125 7.22522 73.5247
893879 9.18492 9.96868 26.5877 27.7358 0.657299 7.17977 73.4771
893887 9.21126 9.98704 26.6369 27.8138 0.662804 7.17981 73.649
893897 9.21126 9.98704 26.6369 27.8138 0.662804 7.17981 73.649
893917 9.28151 10.0513 26.5582 27.7748 0.674117 7.12682 73.6658
893919 9.29907 10.088 26.509 27.6481 0.655425 7.09166 73.5442
893928 9.29907 10.088 26.509 27.6481 0.655425 7.09166 73.5442
893938 9.33419 10.1247 26.5385 27.6774 0.6547 7.07643 73.6748
893949 9.3781 10.1431 26.4696 27.6384 0.656596 7.04615 73.6292
893959 9.3781 10.1431 26.4696 27.6384 0.656596 7.04615 73.6292
893969 9.3781 10.2073 26.4991 27.6189 0.661105 7.02801 73.7035
893990 9.44835 10.2257 26.4302 27.5605 0.64739 6.98773 73.6647
894000 9.47469 10.2532 26.3712 27.5117 0.651786 6.95991 73.6108
894010 9.47469 10.2532 26.3712 27.5117 0.651786 6.95991 73.6108
894020 9.51859 10.3542 26.3023 27.4241 0.664896 6.89958 73.5991
894031 9.50103 10.3542 26.2727 27.4241 0.681329 6.90155 73.552
894040 9.50103 10.3726 26.2727 27.4241 0.687394 6.89609 73.5704
894050 9.53616 10.4735 26.2432 27.3169 0.683397 6.84053 73.5698
894060 9.53616 10.4735 26.2432 27.3169 0.683397 6.84053 73.5698
894070 9.57128 10.4644 26.1152 27.2585 0.693476 6.81209 73.4093
894080 9.58884 10.5011 26.1054 27.1708 0.67389 6.78506 73.3661
894100 9.63275 10.547 26.0266 27.2292 0.720635 6.75615 73.4356
894110 9.63275 10.547 26.0266 27.2292 0.720635 6.75615 73.4356
894121 9.64153 10.5562 26.0463 27.2292 0.713703 6.75304 73.4732
894131 9.65031 10.5929 26.0562 27.1805 0.703225 6.73521 73.4799
894141 9.65031 10.5929 26.0562 27.1805 0.703225 6.73521 73.4799
894151 9.65909 10.6296 26.1152 27.2292 0.707731 6.73388 73.6331
894163 9.68543 10.5745 26.066 27.3072 0.723261 6.74558 73.6331
894182 9.65031 10.6479 26.0365 27.239 0.747591 6.7233 73.5737
894191 9.61519 10.6112 26.066 27.239 0.737441 6.74784 73.5314
894201 9.61519 10.6112 26.066 27.239 0.737441 6.74784 73.5314
894211 9.703 10.6204 26.0759 27.2585 0.712761 6.72249 73.6577
894221 9.703 10.6204 26.0759 27.2585 0.712761 6.72249 73.6577
894232 9.63275 10.6021 25.9873 27.3072 0.778332 6.74418 73.5292
894241 9.703 10.6388 26.0069 27.2292 0.733253 6.70603 73.5779
894251 9.703 10.6388 26.0069 27.2292 0.733253 6.70603 73.5779
894261 9.68543 10.6847 25.9184 27.1903 0.772718 6.68326 73.4787
894271 9.68543 10.6847 25.9184 27.1903 0.772718 6.68326 73.4787
894299 9.72056 10.6847 25.938 27.1318 0.734219 6.66851 73.4751
894300 9.69421 10.703 25.8888 27.1123 0.760341 6.66307 73.3984
894303 9.69421 10.703 25.8888 27.1123 0.760341 6.66307 73.3984
894313 9.75568 10.7397 25.8888 27.0441 0.728384 6.62636 73.4284
894323 9.7469 10.6938 25.9184 27.0441 0.705934 6.64584 73.4032
894332 9.7469 10.6938 25.9184 27.0441 0.705934 6.64584 73.4032
894342 9.81715 10.7581 25.879 27.0149 0.706714 6.59841 73.4691
894352 9.78202 10.7581 25.8987 27.0344 0.718561 6.61322 73.4732
894364 9.78202 10.7581 25.8987 27.0344 0.718561 6.61322 73.4732
894373 9.79959 10.7673 25.9479 27.0052 0.688577 6.60763 73.5199
894394 9.79959 10.7948 25.9479 27.0344 0.707331 6.60288 73.5767
894404 9.76446 10.804 25.8987 27.0636 0.749511 6.60822 73.5307
894413 9.76446 10.804 25.8987 27.0636 0.749511 6.60822 73.5307
894423 9.80837 10.804 25.8888 26.9759 0.708634 6.58417 73.4771
894433 9.77324 10.7673 25.8593 26.9175 0.699773 6.59522 73.3173
894445 9.77324 10.7673 25.8593 26.9175 0.699773 6.59522 73.3173
894454 9.86983 10.8499 25.8888 26.9467 0.692657 6.54932 73.5553
894464 9.86983 10.8499 25.8888 26.9467 0.692657 6.54932 73.5553
894473 9.8874 10.8224 25.879 26.8785 0.658283 6.54327 73.4672
894484 9.90496 10.9325 25.8593 26.8493 0.685805 6.50024 73.546
894495 9.90496 10.9325 25.8593 26.8493 0.685805 6.50024 73.546
894503 9.85227 10.905 25.8199 26.8298 0.702447 6.51692 73.407
894513 9.85227 10.905 25.8199 26.8298 0.702447 6.51692 73.407
894524 9.84349 10.905 25.7904 26.8298 0.715867 6.51608 73.3687
894533 9.91374 10.9417 25.8101 26.8688 0.709412 6.49155 73.5343
894554 9.91374 10.9417 25.8101 26.8688 0.709412 6.49155 73.5343
894554 9.89618 10.9141 25.8396 26.8395 0.686461 6.50477 73.4895
894565 9.90496 10.9692 25.7805 26.8493 0.725472 6.48039 73.504
894575 9.90496 10.9692 25.7805 26.8493 0.725472 6.48039 73.504
894586 9.92252 10.9876 25.7805 26.8688 0.731814 6.47216 73.5594
894597 9.86105 11.0059 25.8298 26.7713 0.709993 6.47916 73.4681
894617 9.92252 10.9876 25.8002 26.8395 0.715286 6.47105 73.5499
894626 9.92252 10.9876 25.8002 26.8395 0.715286 6.47105 73.5499
894636 9.92252 10.9692 25.8002 26.8298 0.706005 6.47528 73.5218
894646 9.89618 10.96 25.8494 26.8395 0.698194 6.49249 73.5452
894656 9.89618 10.96 25.8494 26.8395 0.698194 6.49249 73.5452
894666 9.95764 10.9692 25.7609 26.7616 0.684938 6.45253 73.4493
894676 9.9313 10.9509 25.751 26.7811 0.69797 6.46671 73.4143
894686 9.9313 10.9509 25.751 26.7811 0.69797 6.46671 73.4143
894698 9.98399 10.9784 25.7805 26.7421 0.665438 6.44218 73.4851
894709 9.98399 10.9784 25.7805 26.7421 0.665438 6.44218 73.4851
894717 9.97521 10.9784 25.7412 26.7324 0.679043 6.43902 73.4272
894728 10.0455 11.0243 25.8002 26.7421 0.652316 6.4132 73.6121
894748 10.0367 11.0886 25.7116 26.7421 0.707525 6.38671 73.579
894758 10.0806 11.0794 25.7904 26.7129 0.652054 6.38242 73.6632
894768 10.0806 11.0794 25.7904 26.7129 0.652054 6.38242 73.6632
894777 10.0279 11.0427 25.7412 26.5765 0.630245 6.38668 73.3882
894788 10.0279 11.0427 25.7412 26.5765 0.630245 6.38668 73.3882
894797 9.99277 11.1253 25.6821 26.5765 0.690582 6.3659 73.3766
894810 10.0279 11.0886 25.623 26.5181 0.667396 6.35252 73.2575
894817 10.0279 11.0886 25.623 26.5181 0.667396 6.35252 73.2575
894827 10.063 11.0335 25.6526 26.4693 0.610238 6.35607 73.2184
894853 10.0806 11.0794 25.5837 26.4401 0.633761 6.32596 73.1837
894858 10.0806 11.0794 25.5837 26.4401 0.633761 6.32596 73.1837
894860 10.0718 11.1528 25.6624 26.5278 0.662804 6.32684 73.4148
894868 10.0718 11.1528 25.6624 26.5278 0.662804 6.32684 73.4148
894878 10.1772 11.1436 25.6526 26.4791 0.610247 6.292 73.4525
894888 10.186 11.2171 25.6821 26.4791 0.621256 6.2717 73.5642
894899 10.186 11.2171 25.6821 26.4791 0.621256 6.2717 73.5642
894909 10.142 11.1987 25.6723 26.4596 0.627443 6.28624 73.4726
894918 10.1333 11.1712 25.7116 26.4596 0.607637 6.30143 73.4757
894929 10.1333 11.1712 25.7116 26.4596 0.607637 6.30143 73.4757
894939 10.1157 11.2538 25.7018 26.5083 0.660712 6.2872 73.5796
894959 10.142 11.162 25.6034 26.4888 0.649014 6.29218 73.3962
894973 10.142 11.162 25.751 26.5181 0.607213 6.31312 73.5731
894990 10.2035 11.1528 25.6526 26.4693 0.600877 6.28055 73.4782
895000 10.1772 11.1344 25.6427 26.3817 0.578231 6.28193 73.336
895011 10.1772 11.1344 25.6427 26.3817 0.578231 6.28193 73.336
895020 10.186 11.2354 25.5935 26.4401 0.645319 6.25123 73.455
895040 10.1596 11.2171 25.6132 26.4693 0.651243 6.26998 73.4592
895050 10.1596 11.2171 25.5345 26.4791 0.681999 6.26177 73.3902
895060 10.1596 11.2171 25.5345 26.4791 0.681999 6.26177 73.3902
895073 10.0981 11.1895 25.564 26.4304 0.667888 6.28531 73.282
895081 10.1157 11.1712 25.6427 26.4304 0.628102 6.2949 73.36
895091 10.1157 11.1712 25.6427 26.4304 0.628102 6.2949 73.36
895101 10.1596 11.1528 25.6723 26.4693 0.609317 6.29561 73.454
895121 10.1245 11.162 25.7018 26.4401 0.604612 6.30317 73.4284
895131 10.1069 11.1161 25.7805 26.5668 0.610095 6.34583 73.5703
895151 10.0981 11.1436 25.7018 26.596 0.6594 6.33455 73.5396
895162 10.0894 11.1344 25.7313 26.6252 0.658795 6.34668 73.5804
895181 10.0455 11.0794 25.8298 26.6544 0.63124 6.39039 73.609
895192 10.0455 11.0794 25.8298 26.6544 0.63124 6.39039 73.609
895203 9.97521 11.061 25.8298 26.6642 0.652874 6.41731 73.5302
895215 9.99277 11.0427 25.9184 26.6642 0.609809 6.42787 73.618
895228 9.99277 11.0427 25.9184 26.6642 0.609809 6.42787 73.618
895231 10.0103 10.9784 25.8101 26.635 0.610399 6.42544 73.4338
895243 9.95764 10.9968 25.9184 26.6544 0.603586 6.45035 73.5272
895261 9.90496 10.96 25.9873 26.7324 0.611609 6.49347 73.5846
895271 9.90496 10.96 25.9873 26.7324 0.611609 6.49347 73.5846
895282 9.87862 10.8591 26.0069 26.6837 0.564218 6.52737 73.4283
895293 9.84349 10.8224 26.0266 26.7713 0.586537 6.56081 73.4638
895303 9.84349 10.8224 26.0266 26.7713 0.586537 6.56081 73.4638
895313 9.82593 10.804 26.1152 26.7908 0.562194 6.58374 73.536
895323 9.75568 10.804 26.253 26.8493 0.558141 6.62675 73.662
895342 9.75568 10.7765 26.2826 26.8785 0.548461 6.64151 73.6932
895362 9.76446 10.7397 26.3023 26.8785 0.526407 6.65195 73.685
895372 9.703 10.6847 26.4007 26.9662 0.524431 6.70722 73.7545
895382 9.703 10.6847 26.4007 26.9662 0.524431 6.70722 73.7545
895392 9.61519 10.6296 26.4105 26.9077 0.513712 6.74391 73.563
895402 9.61519 10.6296 26.4794 26.9077 0.489834 6.75164 73.632
895413 9.60641 10.6021 26.4794 26.8395 0.460961 6.75473 73.5275
895422 9.54494 10.5929 26.4991 26.9272 0.501609 6.78765 73.5642
895432 9.54494 10.5929 26.4991 26.9272 0.501609 6.78765 73.5642
895443 9.58884 10.5562 26.5385 26.9272 0.460541 6.78992 73.6107
895452 9.5625 10.5378 26.4991 26.9077 0.470671 6.7966 73.5072
895463 9.5625 10.5378 26.4991 26.9077 0.470671 6.7966 73.5072
895472 9.58006 10.547 26.4893 26.8883 0.464556 6.7854 73.5046
895492 9.5625 10.5378 26.5385 26.8785 0.447276 6.79773 73.5173
895504 9.57128 10.5011 26.5582 26.9077 0.434923 6.81147 73.5383
895515 9.57128 10.5011 26.5582 26.9077 0.434923 6.81147 73.5383
895523 9.57128 10.5103 26.5188 26.8201 0.422302 6.79457 73.4204
895534 9.60641 10.5378 26.4696 26.8103 0.433135 6.76938 73.4241
895555 9.60641 10.5562 26.5483 26.8201 0.415289 6.77385 73.531
895566 9.58884 10.4919 26.5483 26.8103 0.396594 6.79702 73.4394
895575 9.58884 10.4919 26.5483 26.8103 0.396594 6.79702 73.4394
895585 9.5625 10.5378 26.5483 26.8883 0.447124 6.79991 73.5369
895596 9.5625 10.5378 26.5483 26.8883 0.447124 6.79991 73.5369
895605 9.57128 10.4644 26.5385 26.859 0.413164 6.81474 73.4332
895615 9.61519 10.5194 26.568 26.8201 0.393167 6.78432 73.5227
895626 9.61519 10.5194 26.568 26.8201 0.393167 6.78432 73.5227
895635 9.59762 10.5378 26.5483 26.9077 0.441477 6.79168 73.5915
895644 9.54494 10.5103 26.6468 26.9662 0.435981 6.83289 73.6682
895665 9.5625 10.5378 26.6566 26.8883 0.409707 6.81197 73.6452
895676 9.5625 10.5378 26.6566 26.8883 0.409707 6.81197 73.6452
895685 9.61519 10.547 26.4499 26.8883 0.466028 6.77058 73.5003
895695 9.58884 10.5745 26.4696 26.859 0.467771 6.76916 73.492
895706 9.58884 10.5745 26.4696 26.859 0.467771 6.76916 73.492
895715 9.61519 10.5745 26.4794 26.9272 0.477982 6.7701 73.5964
895726 9.65909 10.6021 26.3712 26.8006 0.467217 6.72258 73.4329
895746 9.66787 10.5837 26.381 26.8493 0.470898 6.73201 73.4819
895767 9.65031 10.5929 26.4499 26.8298 0.449672 6.74005 73.5229
895777 9.65031 10.5378 26.4204 26.9175 0.470781 6.76286 73.526
895787 9.65031 10.5378 26.4204 26.9175 0.470781 6.76286 73.526
895797 9.65031 10.547 26.4302 27.0149 0.502881 6.77215 73.6424
895807 9.67665 10.6479 26.4696 26.9759 0.500754 6.73462 73.7701
895827 9.62397 10.6112 26.4696 27.0246 0.522959 6.76644 73.7294
895839 9.62397 10.6112 26.4696 27.0246 0.522959 6.76644 73.7294
895850 9.58006 10.4644 26.4302 27.0734 0.519195 6.82394 73.548
895861 9.57128 10.5378 26.3909 27.1221 0.576499 6.80581 73.622
895867 9.57128 10.5378 26.3909 27.1221 0.576499 6.80581 73.622
895879 9.64153 10.5378 26.381 27.1026 0.549069 6.78176 73.6629
895889 9.57128 10.5194 26.3613 27.0734 0.564498 6.80254 73.5254
895899 9.57128 10.5194 26.3613 27.0734 0.564498 6.80254 73.5254
895908 9.61519 10.5378 26.4105 27.0441 0.528544 6.78632 73.6077
895922 9.61519 10.5378 26.4105 27.0441 0.528544 6.78632 73.6077
895929 9.57128 10.5286 26.2826 27.1123 0.607896 6.79538 73.4948
895938 9.63275 10.5837 26.3219 27.0831 0.581384 6.76201 73.6215
895952 9.63275 10.5837 26.3219 27.0831 0.581384 6.76201 73.6215
895958 9.59762 10.5562 26.2334 27.0636 0.608841 6.76845 73.4507
895970 9.5625 10.5653 26.2629 27.1415 0.639686 6.78816 73.5323
895989 9.59762 10.5653 26.194 27.2195 0.677264 6.77877 73.5764
896009 9.53616 10.5653 26.2629 27.2097 0.671446 6.80358 73.5741
896020 9.5625 10.5286 26.2432 27.239 0.666645 6.80771 73.5733
896030 9.5625 10.5286 26.2432 27.239 0.666645 6.80771 73.5733
896040 9.50981 10.5837 26.2432 27.2974 0.722528 6.81351 73.6341
896051 9.50103 10.5745 26.2137 27.3072 0.736102 6.81663 73.5964
896060 9.50103 10.5745 26.2137 27.3072 0.736102 6.81663 73.5964
896070 9.50981 10.5653 26.194 27.3072 0.736889 6.81456 73.5763
896090 9.48347 10.5378 26.194 27.3072 0.737023 6.83055 73.5224
896101 9.52738 10.5837 26.1054 27.3559 0.783858 6.79947 73.5723
896111 9.52738 10.5837 26.1054 27.3559 0.783858 6.79947 73.5723
896121 9.52738 10.5562 26.1152 27.3559 0.771341 6.80873 73.5546
896131 9.5625 10.5653 26.0562 27.4338 0.808391 6.7977 73.6178
896151 9.52738 10.6663 26.0562 27.3266 0.818676 6.76625 73.5765
896161 9.47469 10.6296 26.0463 27.2974 0.818944 6.78836 73.448
896171 9.47469 10.6296 26.0463 27.2974 0.818944 6.78836 73.448
896181 9.54494 10.6388 25.9873 27.4338 0.862843 6.77348 73.6048
896191 9.54494 10.6388 25.9873 27.4338 0.862843 6.77348 73.6048
896203 9.51859 10.6204 25.9676 27.4143 0.866613 6.78234 73.5209
896211 9.58884 10.6663 25.9282 27.4046 0.867617 6.74247 73.5879
896221 9.58884 10.6663 25.9282 27.4046 0.867617 6.74247 73.5879
896232 9.58884 10.6388 25.938 27.2974 0.819904 6.73968 73.4631
896242 9.58884 10.6388 25.938 27.2974 0.819904 6.73968 73.4631
896252 9.5625 10.6755 25.938 27.3266 0.850853 6.7399 73.5027
896262 9.58884 10.6479 25.9282 27.3851 0.855201 6.74571 73.5501
896273 9.58884 10.6479 25.9282 27.3851 0.855201 6.74571 73.5501
896282 9.54494 10.6388 25.9774 27.3461 0.83752 6.76256 73.5073
896293 9.54494 10.6663 25.9577 27.4825 0.898203 6.76748 73.6515
896303 9.54494 10.6663 25.9577 27.4825 0.898203 6.76748 73.6515
896315 9.57128 10.6296 25.9971 27.3948 0.834337 6.76514 73.5928
896323 9.53616 10.6755 25.9479 27.463 0.90138 6.76409 73.6226
896335 9.53616 10.6755 25.9479 27.463 0.90138 6.76409 73.6226
896345 9.58006 10.6296 26.0463 27.4436 0.82998 6.7735 73.6995
896355 9.58006 10.6296 26.0463 27.4436 0.82998 6.7735 73.6995
896365 9.59762 10.6479 26.0365 27.4436 0.833294 6.76179 73.7256
896375 9.54494 10.6479 26.0365 27.4338 0.848573 6.77626 73.6632
896385 9.54494 10.6479 26.0365 27.4338 0.848573 6.77626 73.6632
896395 9.55372 10.6021 25.9774 27.4338 0.851169 6.78065 73.567
896405 9.57128 10.6571 25.9184 27.4338 0.883827 6.75255 73.5806
896415 9.57128 10.6571 25.9184 27.4338 0.883827 6.75255 73.5806
896425 9.60641 10.5837 25.9971 27.4241 0.816539 6.7716 73.6113
896435 9.60641 10.5837 25.9971 27.4241 0.816539 6.7716 73.6113
896445 9.58884 10.6021 25.8987 27.3461 0.837699 6.7516 73.4357
896455 9.5625 10.5286 25.9282 27.3169 0.802749 6.78123 73.3362
896474 9.62397 10.547 25.879 27.3072 0.801286 6.75092 73.3571
896486 9.59762 10.6021 25.9184 27.3559 0.830886 6.75231 73.4739
896506 9.65031 10.5837 25.8494 27.3656 0.833759 6.7355 73.4491
896516 9.65031 10.5837 25.8494 27.3656 0.833759 6.7355 73.4491
896526 9.61519 10.6112 25.938 27.3559 0.820819 6.7466 73.5203
896536 9.65031 10.5837 25.9577 27.502 0.840527 6.76293 73.6937
896549 9.65031 10.5837 25.9577 27.502 0.840527 6.76293 73.6937
896556 9.64153 10.5745 25.9577 27.4046 0.808606 6.75734 73.5784
896568 9.65031 10.6388 25.8987 27.4436 0.860143 6.73351 73.6313
896587 9.66787 10.6571 25.8298 27.3851 0.865039 6.70858 73.5399
896606 9.69421 10.6296 25.9085 27.4046 0.825486 6.71999 73.6369
896616 9.63275 10.6571 25.8298 27.3656 0.871003 6.71676 73.4853
896636 9.73812 10.703 25.8002 27.2877 0.833803 6.65997 73.5291
896647 9.69421 10.6479 25.879 27.3072 0.809866 6.70027 73.5283
896656 9.69421 10.6479 25.879 27.3072 0.809866 6.70027 73.5283
896666 9.71178 10.703 25.879 27.2974 0.818604 6.67775 73.5912
896676 9.71178 10.703 25.879 27.2974 0.818604 6.67775 73.5912
896686 9.69421 10.6388 25.8396 27.3072 0.820673 6.69854 73.4798
896696 9.703 10.7397 25.8101 27.2585 0.845149 6.65731 73.5113
896716 9.79081 10.6847 25.8987 27.3266 0.787589 6.66543 73.7008
896726 9.7469 10.6847 25.8002 27.2487 0.811863 6.65837 73.4805
896750 9.77324 10.7214 25.8888 27.3169 0.806043 6.65759 73.7004
896767 9.72934 10.6663 25.9085 27.3072 0.793228 6.68784 73.6113
896777 9.76446 10.6755 25.9774 27.3072 0.759846 6.68257 73.7245
896787 9.76446 10.6755 25.9774 27.3072 0.759846 6.68257 73.7245
896798 9.72934 10.6938 25.9577 27.3266 0.791445 6.68748 73.7076
896807 9.71178 10.6938 26.0168 27.3266 0.776932 6.6993 73.7491
896817 9.71178 10.6204 26.0168 27.3656 0.765607 6.72531 73.7146
896827 9.72056 10.5745 26.0857 27.2779 0.694486 6.73414 73.6587
896837 9.72056 10.5745 26.0857 27.2779 0.694486 6.73414 73.6587
896850 9.68543 10.6112 26.0365 27.2292 0.719979 6.72267 73.5624
896857 9.72934 10.6204 25.9774 27.1708 0.709009 6.69375 73.4979
896868 9.72934 10.6204 25.9774 27.1708 0.709009 6.69375 73.4979
896878 9.72934 10.6021 25.9971 27.1415 0.686386 6.69809 73.47
896888 9.7469 10.547 25.9676 27.0344 0.636762 6.69371 73.2958
896899 9.7469 10.547 25.9676 27.0344 0.636762 6.69371 73.2958
896908 9.69421 10.6296 25.9971 27.0928 0.691667 6.69483 73.4137
896930 9.77324 10.5562 25.9676 27.1026 0.653246 6.69093 73.3996
896940 9.72056 10.5286 25.9971 27.1708 0.67482 6.72569 73.4171
896950 9.72056 10.5286 25.9971 27.1708 0.67482 6.72569 73.4171
896961 9.78202 10.5562 26.0168 27.2 0.665262 6.70491 73.555
896971 9.76446 10.5011 26.0463 27.2 0.642854 6.72969 73.5119
896991 9.76446 10.5286 26.1349 27.239 0.634006 6.73589 73.667
897014 9.73812 10.4185 26.0955 27.2877 0.636554 6.77727 73.5398
897022 9.71178 10.446 26.1152 27.3754 0.676987 6.78891 73.6484
897032 9.71178 10.446 26.1152 27.3754 0.676987 6.78891 73.6484
897042 9.68543 10.4368 26.0759 27.3169 0.677565 6.78851 73.515
897051 9.79959 10.4185 26.1251 27.3559 0.627443 6.77002 73.699
897072 9.7469 10.4368 26.1251 27.2974 0.632513 6.77363 73.6062
897081 9.7469 10.4368 26.1251 27.2974 0.632513 6.77363 73.6062
897092 9.703 10.3817 26.0955 27.2487 0.623703 6.79422 73.429
897101 9.72056 10.3542 26.0857 27.3364 0.640962 6.80587 73.4969
897112 9.72056 10.3542 26.0857 27.3364 0.640962 6.80587 73.4969
897124 9.76446 10.3634 26.1448 27.2585 0.582278 6.78802 73.5311
897135 9.7469 10.345 26.2038 27.2585 0.56175 6.80525 73.5542
897152 9.76446 10.2991 26.2235 27.2097 0.517336 6.81042 73.4969
897162 9.76446 10.2991 26.2235 27.2097 0.517336 6.81042 73.4969
897172 9.75568 10.3175 26.2137 27.2 0.526673 6.8054 73.4868
897182 9.75568 10.2441 26.2432 27.1903 0.48869 6.82941 73.4332
897192 9.75568 10.2441 26.2432 27.1903 0.48869 6.82941 73.4332
897202 9.77324 10.29 26.3416 27.1708 0.457305 6.81935 73.5756
897212 9.75568 10.29 26.4302 27.161 0.429499 6.83332 73.6369
897222 9.75568 10.29 26.4302 27.161 0.429499 6.83332 73.6369
897232 9.79959 10.2624 26.4598 27.1123 0.378698 6.82634 73.6341
897242 9.79959 10.2624 26.4598 27.1123 0.378698 6.82634 73.6341
897252 9.76446 10.1706 26.4696 27.0734 0.343612 6.8608 73.478
897262 9.79959 10.2441 26.5582 27.0539 0.319102 6.83621 73.6557
897273 9.79959 10.2441 26.5582 27.0539 0.319102 6.83621 73.6557
897282 9.85227 10.1982 26.5976 26.937 0.232819 6.8256 73.585
897292 9.80837 10.2257 26.7255 26.8493 0.18377 6.83493 73.6089
897303 9.80837 10.2257 26.7255 26.8493 0.18377 6.83493 73.6089
897314 9.86983 10.1614 26.8535 26.7519 0.0644952 6.83914 73.6367
897333 9.80837 10.1339 26.9323 26.6837 0.0261515 6.86674 73.5582
897344 9.86983 10.0605 27.0012 26.6642 -0.0497073 6.87575 73.5956
897359 9.86983 10.0605 27.0012 26.6642 -0.0497073 6.87575 73.5956
897365 9.85227 10.1431 27.0405 26.5083 -0.0820622 6.84353 73.5442
897373 9.89618 10.0788 27.1193 26.4791 -0.155471 6.85506 73.5734
897393 9.92252 10.0329 27.1094 26.3622 -0.21683 6.84682 73.4271
897404 9.92252 10.0329 27.1094 26.3622 -0.21683 6.84682 73.4271
897414 9.87862 10.088 27.1783 26.3622 -0.206365 6.85115 73.5072
897425 9.94008 10.1614 27.1783 26.333 -0.211927 6.80787 73.6128
897433 9.94008 10.1614 27.1783 26.333 -0.211927 6.80787 73.6128
897443 9.96643 10.1431 27.2276 26.333 -0.243637 6.81098 73.67
897454 9.92252 10.0697 27.3162 26.3622 -0.273803 6.85881 73.6705
897475 9.94008 10.0972 27.3162 26.4011 -0.2569 6.84975 73.7546
897488 9.94008 10.0972 27.3162 26.4011 -0.2569 6.84975 73.7546
897495 9.87862 10.0054 27.326 26.3622 -0.284427 6.89204 73.5722
897506 9.8874 10.1064 27.3162 26.3914 -0.239404 6.86157 73.7013
897516 9.8874 10.1064 27.3162 26.3914 -0.239404 6.86157 73.7013
897526 9.85227 10.088 27.3063 26.3232 -0.253965 6.86883 73.5698
897536 9.81715 10.0329 27.2276 26.294 -0.244573 6.88375 73.3716
897557 9.85227 10.0972 27.2177 26.2842 -0.23436 6.85198 73.4514
897576 9.77324 9.99622 27.2177 26.255 -0.252493 6.90243 73.2422
897586 9.80837 10.0697 27.2768 26.3427 -0.228854 6.88624 73.4975
897597 9.80837 10.0697 27.2768 26.3427 -0.228854 6.88624 73.4975
897609 9.82593 10.0238 27.2276 26.4011 -0.213867 6.89571 73.4784
897617 9.80837 10.0788 27.1882 26.4693 -0.152415 6.88771 73.5447
897637 9.82593 10.0972 27.1094 26.5473 -0.0988379 6.87694 73.5798
897648 9.76446 10.0513 27.0701 26.5668 -0.0736758 6.90671 73.4526
897659 9.76446 10.0513 27.0701 26.5668 -0.0736758 6.90671 73.4526
897667 9.80837 10.1431 27.0405 26.6837 -0.00751615 6.87596 73.6757
897678 9.80837 10.1431 27.0405 26.6837 -0.00751615 6.87596 73.6757
897687 9.76446 10.1247 26.9618 26.635 0.0113755 6.88041 73.4859
897698 9.82593 10.2165 26.9126 26.6837 0.0548929 6.83481 73.6387
897719 9.77324 10.2441 26.9027 26.6837 0.0855118 6.84118 73.6037
897728 9.80837 10.2349 26.8141 26.596 0.0709206 6.81389 73.4534
897738 9.80837 10.2349 26.8141 26.596 0.0709206 6.81389 73.4534
897748 9.83471 10.2808 26.824 26.6837 0.103828 6.80333 73.6231
897778 9.79959 10.1982 26.8043 26.6447 0.0813514 6.83173 73.4467
897780 9.85227 10.2624 26.7354 26.6934 0.125155 6.79478 73.5435
897791 9.85227 10.2624 26.7354 26.6934 0.125155 6.79478 73.5435
897803 9.81715 10.3542 26.7551 26.6155 0.135118 6.77148 73.5419
897813 9.85227 10.3817 26.6763 26.557 0.139579 6.73755 73.4674
897820 9.85227 10.3817 26.6763 26.557 0.139579 6.73755 73.4674
897831 9.87862 10.4093 26.6665 26.5083 0.126767 6.71502 73.4627
897852 9.86983 10.4276 26.5976 26.5181 0.162879 6.70551 73.4131
897861 9.87862 10.5286 26.5779 26.5473 0.210586 6.67419 73.5324
897881 9.8874 10.5562 26.509 26.5375 0.237215 6.65456 73.4901
897891 9.91374 10.6021 26.4991 26.4888 0.230604 6.62663 73.5037
897902 9.91374 10.6021 26.4991 26.4888 0.230604 6.62663 73.5037
897911 9.97521 10.6663 26.4302 26.5278 0.26789 6.58629 73.5995
897922 9.91374 10.6755 26.3318 26.4109 0.286657 6.57697 73.3319
897933 9.91374 10.6755 26.3318 26.4109 0.286657 6.57697 73.3319
897943 9.95764 10.7306 26.3613 26.4596 0.296289 6.55688 73.5091
897964 9.95764 10.7765 26.2727 26.4011 0.322592 6.52649 73.408
897972 9.95764 10.8958 26.2727 26.4206 0.36917 6.49381 73.5468
897982 9.95764 10.8958 26.2727 26.4206 0.36917 6.49381 73.5468
897992 10.0015 10.8958 26.253 26.3817 0.34776 6.47419 73.532
898002 9.99277 10.9509 26.1546 26.3914 0.406483 6.45037 73.4896
898015 9.99277 10.9509 26.1546 26.3914 0.406483 6.45037 73.4896
898023 9.98399 10.9692 26.194 26.4011 0.405315 6.45329 73.5483
898032 9.98399 10.9692 26.194 26.4011 0.405315 6.45329 73.5483
898042 10.0103 10.9509 26.1546 26.3719 0.393894 6.44298 73.4877
898055 9.97521 10.9784 26.1546 26.4206 0.431541 6.45086 73.5288
898063 9.97521 10.9784 26.1546 26.4206 0.431541 6.45086 73.5288
898074 10.0015 11.061 26.1349 26.4499 0.466549 6.42023 73.6473
898084 10.0015 10.9876 26.0463 26.4888 0.485736 6.43584 73.5243
898104 10.0279 11.0518 26.0365 26.4499 0.488448 6.40376 73.5661
898116 10.0279 11.0518 26.0365 26.4499 0.488448 6.40376 73.5661
898124 9.97521 11.1161 25.8987 26.4206 0.56628 6.38082 73.4106
898135 10.0103 11.0702 25.8298 26.4011 0.556272 6.37357 73.3114
898156 10.0279 11.1069 25.7609 26.4401 0.599393 6.35423 73.3358
898165 9.97521 11.0886 25.751 26.4499 0.618368 6.37493 73.2646
898185 9.99277 11.1161 25.751 26.4888 0.634342 6.36636 73.3487
898196 9.99277 11.1161 25.751 26.4888 0.634342 6.36636 73.3487
898206 10.0015 11.0794 25.6624 26.5668 0.675952 6.37325 73.3101
898216 10.0455 11.1436 25.6526 26.6252 0.704673 6.34749 73.4669
898227 10.0455 11.1436 25.6526 26.6252 0.704673 6.34749 73.4669
898236 10.0455 11.1161 25.5738 26.7032 0.748914 6.3554 73.4385
898246 10.0455 11.1528 25.5935 26.7519 0.77019 6.35278 73.5436
898272 10.0279 11.2079 25.5443 26.8785 0.85333 6.351 73.6586
898277 9.99277 11.2721 25.4754 26.8688 0.907749 6.33331 73.6091
898297 10.0015 11.2813 25.4951 26.8298 0.887981 6.32583 73.6077
898307 10.0015 11.2813 25.4951 26.8298 0.887981 6.32583 73.6077
898317 9.98399 11.263 25.4262 26.8493 0.918797 6.33042 73.5224
898329 9.94886 11.2905 25.4852 26.8883 0.932124 6.34416 73.6128
898338 9.94886 11.2905 25.4852 26.8883 0.932124 6.34416 73.6128
898348 9.98399 11.2905 25.4557 26.7908 0.89826 6.31902 73.521
898358 9.99277 11.2813 25.3868 26.7129 0.890866 6.30176 73.3738
898378 10.0015 11.2997 25.3671 26.7519 0.913534 6.29617 73.4202
898402 9.94886 11.2905 25.4065 26.6837 0.892824 6.31072 73.3295
898412 9.95764 11.3089 25.4655 26.6544 0.865316 6.30637 73.3865
898433 9.94008 11.3364 25.3573 26.7421 0.947574 6.30103 73.3759
898440 9.96643 11.2997 25.377 26.7811 0.932044 6.31099 73.4241
898450 9.96643 11.2997 25.377 26.7811 0.932044 6.31099 73.4241
898461 9.92252 11.3272 25.3966 26.8688 0.978306 6.32843 73.5151
898470 9.92252 11.3272 25.3966 26.8688 0.978306 6.32843 73.5151
898480 9.94008 11.3456 25.4852 26.8785 0.950029 6.3296 73.6494
898490 9.8874 11.2446 25.5345 26.9954 0.956452 6.39365 73.6619
898511 9.83471 11.1987 25.4065 26.9272 0.982973 6.39938 73.3671
898521 9.79959 11.2262 25.4655 26.9467 0.989887 6.41079 73.4381
898531 9.79959 11.2262 25.4655 26.9467 0.989887 6.41079 73.4381
898541 9.83471 11.2813 25.4951 26.9954 1.00091 6.39369 73.6065
898564 9.73812 11.1712 25.3868 26.9077 1.00882 6.43107 73.2038
898571 9.78202 11.2721 25.3868 27.0539 1.07395 6.40586 73.4948
898588 9.78202 11.2721 25.3868 27.0539 1.07395 6.40586 73.4948
898591 9.79081 11.1803 25.3474 27.1026 1.07077 6.43116 73.4212
898603 9.75568 11.1895 25.4459 27.0734 1.04178 6.44679 73.4644
898611 9.75568 11.1895 25.4459 27.0734 1.04178 6.44679 73.4644
898622 9.73812 11.2079 25.436 27.1415 1.07969 6.45335 73.5236
898647 9.703 11.1253 25.436 27.1221 1.05889 6.4855 73.3863
898651 9.703 11.0702 25.4557 27.2097 1.06253 6.51406 73.4386
898662 9.703 11.0702 25.4557 27.2097 1.06253 6.51406 73.4386
898671 9.67665 11.0886 25.5345 27.239 1.05945 6.52886 73.5386
898682 9.69421 11.1528 25.4951 27.3072 1.11022 6.50826 73.6493
898704 9.69421 11.1069 25.5148 27.3169 1.09151 6.52506 73.6328
898712 9.69421 11.1069 25.5148 27.3169 1.09151 6.52506 73.6328
898722 9.703 11.0886 25.4951 27.2195 1.05772 6.51436 73.5061
898732 9.66787 11.1436 25.436 27.1903 1.09957 6.49831 73.4378
898745 9.66787 11.1436 25.436 27.1903 1.09957 6.49831 73.4378
898754 9.64153 11.1436 25.3671 27.161 1.12395 6.49466 73.3133
898764 9.66787 11.1253 25.4065 27.1513 1.0914 6.49576 73.3509
898787 9.65031 11.1528 25.4262 27.1903 1.1123 6.49963 73.4195
898792 9.65031 11.1528 25.4262 27.1903 1.1123 6.49963 73.4195
898805 9.61519 11.1344 25.3868 27.1805 1.12968 6.50962 73.3169
898813 9.59762 11.0794 25.4163 27.2585 1.13285 6.54336 73.3518
898824 9.59762 11.0794 25.4163 27.2585 1.13285 6.54336 73.3518
898833 9.703 11.1895 25.436 27.2487 1.12101 6.48139 73.5772
898846 9.69421 11.0794 25.4459 27.2877 1.0975 6.52181 73.5071
898853 9.69421 11.0794 25.4459 27.2877 1.0975 6.52181 73.5071
898864 9.67665 11.1712 25.4951 27.2487 1.10343 6.50128 73.5916
898877 9.67665 11.1528 25.4557 27.3559 1.14621 6.51446 73.641
898897 9.69421 11.162 25.4557 27.3266 1.13348 6.50328 73.6385
898905 9.69421 11.162 25.4557 27.3266 1.13348 6.50328 73.6385
898915 9.67665 11.2079 25.4852 27.3559 1.15356 6.50179 73.7256
898925 9.72934 11.2171 25.2982 27.2974 1.18536 6.45534 73.542
898935 9.72934 11.2171 25.2982 27.2974 1.18536 6.45534 73.542
898945 9.75568 11.2262 25.3179 27.1513 1.12455 6.43025 73.4511
898965 9.73812 11.2538 25.249 27.1903 1.17693 6.42385 73.4311
898976 9.72934 11.2446 25.2687 27.1903 1.17007 6.43138 73.4329
898985 9.72934 11.2446 25.2687 27.1903 1.17007 6.43138 73.4329
898995 9.76446 11.2079 25.2195 27.2 1.16633 6.42724 73.3918
899006 9.78202 11.2354 25.2293 27.1903 1.16234 6.41409 73.437
899015 9.78202 11.2354 25.2293 27.1903 1.16234 6.41409 73.437
899025 9.79081 11.2354 25.1702 27.239 1.19607 6.41032 73.4354
899035 9.79081 11.2354 25.1702 27.239 1.19607 6.41032 73.4354
899054 9.73812 11.1987 25.1998 27.2779 1.20506 6.44441 73.4145
899061 9.79081 11.1987 25.2785 27.2682 1.15507 6.43707 73.5362
899066 9.79081 11.1987 25.2785 27.2682 1.15507 6.43707 73.5362
899076 9.703 11.2171 25.2588 27.2974 1.20878 6.45845 73.4763
899086 9.7469 11.2354 25.3179 27.2974 1.17804 6.44715 73.5976
899096 9.7469 11.2354 25.3179 27.2974 1.17804 6.44715 73.5976
899106 9.75568 11.2262 25.249 27.3754 1.22168 6.44831 73.6063
899126 9.73812 11.1987 25.308 27.3656 1.19485 6.46719 73.6105
899136 9.72934 11.1436 25.2884 27.2779 1.15874 6.47338 73.4393
899146 9.72934 11.1436 25.2884 27.2779 1.15874 6.47338 73.4393
899156 9.69421 11.162 25.2293 27.3364 1.21723 6.47821 73.4219
899168 9.68543 11.1712 25.308 27.3266 1.19209 6.48609 73.4913
899178 9.68543 11.1712 25.308 27.3266 1.19209 6.48609 73.4913
899189 9.71178 11.1803 25.3179 27.3266 1.18217 6.47685 73.5367
899199 9.66787 11.1803 25.3474 27.3072 1.18098 6.49085 73.5028
899209 9.66787 11.1161 25.3474 27.3072 1.16014 6.50965 73.4386
899219 9.68543 11.1528 25.377 27.3559 1.17108 6.50281 73.5711
899229 9.68543 11.1528 25.377 27.3559 1.17108 6.50281 73.5711
899238 9.64153 11.0518 25.3671 27.4338 1.18275 6.55307 73.4943
899250 9.63275 11.1528 25.3868 27.4533 1.21784 6.53058 73.6256
899258 9.63275 11.1528 25.3868 27.4533 1.21784 6.53058 73.6256
899269 9.63275 11.1069 25.3573 27.4338 1.20722 6.53837 73.5307
899279 9.67665 11.162 25.3179 27.502 1.24542 6.51274 73.6585
899291 9.67665 11.162 25.3179 27.502 1.24542 6.51274 73.6585
899301 9.63275 11.0977 25.3376 27.4825 1.22702 6.5444 73.5506
899310 9.63275 11.0977 25.3376 27.4825 1.22702 6.5444 73.5506
899320 9.63275 11.0794 25.3179 27.4338 1.21235 6.54191 73.4638
899330 9.58006 11.1253 25.1998 27.3559 1.26306 6.52127 73.261
899350 9.58884 11.1712 25.2293 27.3656 1.26734 6.50977 73.3549
899361 9.61519 11.0794 25.2096 27.3656 1.23523 6.5267 73.2698
899370 9.61519 11.0794 25.2096 27.3656 1.23523 6.5267 73.2698
899380 9.63275 11.0886 25.2785 27.3754 1.21044 6.52794 73.3752
899390 9.63275 11.0886 25.2785 27.3754 1.21044 6.52794 73.3752
899400 9.59762 11.0794 25.2785 27.4533 1.24526 6.54992 73.4088
899410 9.55372 11.0702 25.3474 27.5215 1.25541 6.58125 73.4928
899421 9.55372 11.0702 25.3474 27.5215 1.25541 6.58125 73.4928
899431 9.57128 11.0794 25.377 27.5605 1.25414 6.58125 73.5881
899442 9.59762 11.0518 25.4163 27.5507 1.21868 6.58499 73.6165
899463 9.66787 11.1069 25.4655 27.6092 1.21282 6.56062 73.8495
899471 9.66787 11.1069 25.4655 27.6092 1.21282 6.56062 73.8495
899482 9.59762 11.0794 25.4459 27.5117 1.20447 6.57584 73.6346
899491 9.59762 11.0794 25.4951 27.4533 1.16806 6.57478 73.6254
899501 9.59762 11.0794 25.4951 27.4533 1.16806 6.57478 73.6254
899511 9.60641 11.0243 25.4557 27.463 1.16426 6.58496 73.5494
899521 9.58884 11.0243 25.4852 27.3461 1.12206 6.58012 73.4445
899532 9.58884 11.0243 25.4852 27.3461 1.12206 6.58012 73.4445
899541 9.61519 11.0518 25.4655 27.3656 1.13496 6.56427 73.4982
899564 9.55372 10.9784 25.5443 27.2974 1.08275 6.60513 73.3738
899573 9.55372 10.9784 25.5246 27.3072 1.09292 6.604 73.3639
899583 9.55372 10.9784 25.5246 27.3072 1.09292 6.604 73.3639
899594 9.54494 10.9692 25.5738 27.3559 1.09142 6.62047 73.4439
899604 9.57128 10.9233 25.623 27.4143 1.06869 6.63849 73.532
899614 9.57128 10.9233 25.623 27.4143 1.06869 6.63849 73.532
899623 9.57128 10.9784 25.6132 27.3754 1.07743 6.61674 73.5382
899633 9.58884 10.9692 25.7116 27.3364 1.02068 6.62105 73.6061
899643 9.58884 10.9692 25.7116 27.3364 1.02068 6.62105 73.6061
899654 9.60641 10.9141 25.7116 27.3461 0.999692 6.63318 73.5783
899665 9.60641 10.9141 25.7116 27.3461 0.999692 6.63318 73.5783
899677 9.5625 10.9233 25.7707 27.3656 1.00368 6.65231 73.6221
899693 9.57128 10.9233 25.7707 27.3559 0.997406 6.64862 73.6212
899702 9.57128 10.9233 25.7707 27.3559 0.997406 6.64862 73.6212
899710 9.57128 10.9325 25.7904 27.2779 0.968021 6.63931 73.5721
899716 9.60641 10.8958 25.7805 27.3169 0.959837 6.64309 73.5996
899727 9.60641 10.8958 25.7805 27.3169 0.959837 6.64309 73.5996
899736 9.57128 10.9325 25.7609 27.2974 0.984812 6.63817 73.5621
899746 9.57128 10.9325 25.7609 27.2974 0.984812 6.63817 73.5621
899756 9.58884 10.8774 25.7609 27.2585 0.947869 6.64478 73.4856
899766 9.58006 10.8591 25.8002 27.2585 0.931057 6.65725 73.4978
899778 9.58006 10.8591 25.8002 27.2585 0.931057 6.65725 73.4978
899786 9.5625 10.8866 25.8199 27.2779 0.945696 6.65875 73.547
899796 9.61519 10.8315 25.8396 27.2877 0.905353 6.6628 73.574
899806 9.61519 10.8315 25.8396 27.2877 0.905353 6.6628 73.574
899816 9.57128 10.8407 25.8494 27.3364 0.936294 6.67965 73.5978
899837 9.52738 10.7948 25.8987 27.3364 0.919408 6.71168 73.5573
899847 9.58006 10.7948 25.879 27.3266 0.904596 6.69282 73.5805
899857 9.58006 10.7948 25.879 27.3266 0.904596 6.69282 73.5805
899868 9.52738 10.7397 25.9184 27.2974 0.881645 6.72578 73.4829
899878 9.5625 10.7856 25.938 27.3072 0.880605 6.70517 73.5933
899889 9.5625 10.7856 25.938 27.3072 0.880605 6.70517 73.5933
899899 9.59762 10.7673 25.8888 27.2487 0.86036 6.68807 73.5024
899909 9.60641 10.7397 25.9282 27.2195 0.82477 6.69475 73.4938
899928 9.58884 10.7397 25.8888 27.2682 0.860804 6.70099 73.4856
899950 9.57128 10.7214 25.938 27.239 0.834027 6.71386 73.4697
899961 9.65909 10.7581 25.9479 27.2097 0.802198 6.67493 73.5748
899980 9.62397 10.703 25.8494 27.1805 0.821367 6.68709 73.357
899991 9.60641 10.7765 25.879 27.2 0.847748 6.67614 73.4618
900000 9.60641 10.7765 25.879 27.2 0.847748 6.67614 73.4618
900011 9.62397 10.8224 25.9577 27.2195 0.83538 6.66857 73.6235
900022 9.62397 10.8224 25.9577 27.2195 0.83538 6.66857 73.6235
900031 9.65909 10.7581 25.9184 27.2097 0.81256 6.67158 73.5453
900041 9.703 10.7765 25.9971 27.239 0.785223 6.66548 73.7155
900051 9.703 10.7765 25.9971 27.239 0.785223 6.66548 73.7155
900063 9.64153 10.7489 25.9774 27.2292 0.80139 6.68835 73.5971
900071 9.64153 10.7765 26.0069 27.2292 0.800094 6.68357 73.6542
900091 9.68543 10.8315 25.9774 27.1903 0.800347 6.64671 73.6846
900102 9.68543 10.8315 25.9479 27.1903 0.810692 6.64336 73.6551
900111 9.67665 10.7856 25.9479 27.1415 0.78266 6.65392 73.5517
900121 9.63275 10.8499 25.9184 27.1708 0.839168 6.64789 73.5718
900142 9.65909 10.7765 25.9184 27.0831 0.776896 6.6518 73.437
900153 9.68543 10.7489 25.8987 27.1903 0.800791 6.66209 73.5233
900172 9.68543 10.7765 25.938 27.0831 0.760746 6.64628 73.483
900183 9.66787 10.7765 25.9085 27.0734 0.774053 6.64699 73.4262
900192 9.66787 10.8224 25.9085 27.0734 0.789183 6.63347 73.4721
900204 9.67665 10.7856 25.9577 27.0636 0.753525 6.64618 73.4836
900212 9.67665 10.7856 25.9577 27.0636 0.753525 6.64618 73.4836
900225 9.7469 10.7765 25.9676 27.0734 0.725672 6.63044 73.5643
900235 9.703 10.7673 25.9774 26.9954 0.708809 6.63831 73.4431
900245 9.703 10.7673 25.9774 26.9954 0.708809 6.63831 73.4431
900265 9.77324 10.8407 25.9676 26.9564 0.699076 6.59049 73.538
900275 9.77324 10.8407 25.9676 26.9564 0.699076 6.59049 73.538
900285 9.79959 10.8407 26.0168 26.8785 0.646913 6.57947 73.5356
900311 9.72934 10.8591 25.9577 26.8006 0.672346 6.579 73.3467
900323 9.79081 10.8591 25.9479 26.8103 0.65752 6.56092 73.4081
900325 9.79081 10.8591 25.9479 26.8103 0.65752 6.56092 73.4081
900335 9.86105 10.9233 25.9873 26.7421 0.617957 6.51817 73.5138
900345 9.86983 10.8866 26.0168 26.7324 0.589192 6.52863 73.5056
900366 9.94008 10.8683 26.0562 26.7616 0.554696 6.52135 73.6261
900376 9.94008 10.8683 26.0562 26.7616 0.554696 6.52135 73.6261
900386 9.90496 10.8774 25.9676 26.7226 0.587818 6.51423 73.4726
900396 9.91374 10.9417 26.0857 26.6642 0.545627 6.49976 73.6053
900406 9.91374 10.9417 26.0857 26.6642 0.545627 6.49976 73.6053
900417 10.0191 10.9692 26.0365 26.5278 0.489929 6.43946 73.5526
900426 10.0015 10.9692 26.0463 26.4011 0.450328 6.43097 73.4182
900439 10.0015 10.9692 26.0463 26.4011 0.450328 6.43097 73.4182
900447 10.0806 11.0151 25.9676 26.3135 0.436252 6.37505 73.3767
900457 10.0894 11.0335 25.9479 26.216 0.413537 6.35335 73.2868
900468 10.0894 11.0335 25.9479 26.216 0.413537 6.35335 73.2868
900477 10.1596 11.1069 25.8987 26.1186 0.398198 6.29418 73.2838
900487 10.1596 11.1069 25.8987 26.1186 0.398198 6.29418 73.2838
900497 10.1596 11.0702 25.938 26.1284 0.3755 6.31068 73.2962
900507 10.186 11.061 25.9971 26.0504 0.316665 6.30345 73.2945
900527 10.2562 11.1069 25.9774 26.0504 0.314659 6.26741 73.391
900537 10.2386 11.0977 25.9971 26.0309 0.304282 6.27518 73.3644
900559 10.2211 11.1895 26.0168 26.0115 0.327864 6.2537 73.4389
900569 10.2211 11.1895 26.0168 26.0115 0.327864 6.2537 73.4389
900579 10.2738 11.1803 25.9873 26.0699 0.336424 6.24457 73.5113
900590 10.265 11.2079 25.9774 26.0797 0.355345 6.23913 73.5299
900609 10.2825 11.1987 26.0168 26.0115 0.309768 6.23328 73.5095
900618 10.3001 11.2354 25.938 26.0212 0.346446 6.20937 73.4948
900630 10.3001 11.2354 25.938 26.0212 0.346446 6.20937 73.4948
900638 10.3352 11.2079 25.9282 25.9725 0.312126 6.20017 73.4438
900649 10.3352 11.2079 25.9282 25.9725 0.312126 6.20017 73.4438
900658 10.2913 11.2079 25.8396 25.9725 0.357869 6.20223 73.3113
900669 10.3177 11.2171 25.8593 25.953 0.338498 6.19198 73.347
900679 10.3177 11.2171 25.8593 25.953 0.338498 6.19198 73.347
900689 10.3528 11.2538 25.8298 25.953 0.348905 6.1677 73.3893
900699 10.3528 11.2721 25.8199 25.9627 0.361741 6.16239 73.4076
900708 10.3528 11.2721 25.8199 25.9627 0.361741 6.16239 73.4076
900721 10.3264 11.2997 25.7609 25.8751 0.371078 6.14434 73.2621
900729 10.3264 11.2997 25.7609 25.8751 0.371078 6.14434 73.2621
900738 10.3177 11.4098 25.751 25.8848 0.417769 6.11511 73.3633
900748 10.3089 11.4557 25.751 25.8751 0.43292 6.10325 73.3907
900769 10.3791 11.4374 25.7609 25.8946 0.405574 6.0919 73.4719
900779 10.3791 11.4374 25.7609 25.8946 0.405574 6.0919 73.4719
900789 10.2825 11.5016 25.7215 25.8848 0.470909 6.09523 73.3905
900798 10.3616 11.5659 25.692 25.7971 0.445911 6.03985 73.4165
900820 10.4143 11.5842 25.7412 25.7192 0.390697 6.016 73.4589
900831 10.4494 11.676 25.6821 25.7679 0.445953 5.97848 73.5754
900840 10.4494 11.676 25.6821 25.7679 0.445953 5.97848 73.5754
900850 10.3616 11.6577 25.6329 25.7679 0.487304 6.00277 73.42
900860 10.3616 11.6577 25.6329 25.7679 0.487304 6.00277 73.42
900870 10.3879 11.6393 25.5837 25.7582 0.485861 5.99325 73.3691
900880 10.3352 11.7127 25.623 25.6802 0.488982 5.98258 73.3512
900890 10.3352 11.7127 25.623 25.6802 0.488982 5.98258 73.3512
900900 10.3704 11.7311 25.5738 25.6705 0.49676 5.96003 73.3458
900910 10.2738 11.8229 25.6624 25.7289 0.549632 5.97949 73.488
900920 10.2738 11.8229 25.6624 25.7289 0.549632 5.97949 73.488
900934 10.2913 11.8321 25.6132 25.7777 0.579891 5.9718 73.5142
900941 10.2913 11.8321 25.6132 25.7777 0.579891 5.9718 73.5142
900954 10.265 11.7495 25.6427 25.8264 0.567511 6.0125 73.4835
900960 10.2562 11.777 25.6034 25.8264 0.59343 6.00232 73.4629
900971 10.2562 11.777 25.6034 25.8264 0.59343 6.00232 73.4629
900982 10.2562 11.8137 25.6132 25.7679 0.582778 5.98587 73.451
900991 10.2123 11.7678 25.5345 25.8069 0.623265 6.00668 73.3214
901000 10.2123 11.7678 25.5345 25.8069 0.623265 6.00668 73.3214
901012 10.2123 11.7403 25.5541 25.8946 0.636369 6.02771 73.4013
901021 10.2123 11.7403 25.5541 25.8946 0.636369 6.02771 73.4013
901032 10.1508 11.7495 25.5049 25.9238 0.68782 6.04026 73.329
901041 10.0894 11.6944 25.6132 26.0017 0.679013 6.0964 73.3987
901053 10.0894 11.6944 25.6132 26.0017 0.679013 6.0964 73.3987
901061 10.0103 11.7403 25.5541 26.0602 0.761938 6.10585 73.3649
901071 9.97521 11.7219 25.5049 26.0797 0.791961 6.11765 73.2817
901081 9.97521 11.7219 25.5049 26.0797 0.791961 6.11765 73.2817
901092 9.99277 11.7127 25.5443 26.1479 0.791416 6.12825 73.3977
901101 9.99277 11.7127 25.5443 26.1479 0.791416 6.12825 73.3977
901113 9.94886 11.7036 25.5443 26.1868 0.816673 6.14825 73.3835
901121 9.92252 11.7586 25.4852 26.294 0.900102 6.14577 73.4604
901147 9.8874 11.7862 25.4852 26.3817 0.950229 6.15851 73.5405
901161 9.8874 11.7678 25.5443 26.4206 0.936142 6.17556 73.6201
901172 9.85227 11.6944 25.4754 26.5278 0.983861 6.21141 73.5498
901181 9.85227 11.6944 25.4754 26.5278 0.983861 6.21141 73.5498
901192 9.81715 11.7678 25.3277 26.5083 1.06619 6.18033 73.421
901201 9.79959 11.7495 25.3376 26.5473 1.07565 6.19655 73.4339
901212 9.79959 11.7495 25.3376 26.5473 1.07565 6.19655 73.4339
901222 9.79959 11.7678 25.2588 26.6155 1.13181 6.18999 73.4417
901233 9.79959 11.7678 25.2588 26.6155 1.13181 6.18999 73.4417
901241 9.72934 11.7586 25.1998 26.6642 1.19074 6.21169 73.3519
901261 9.703 11.7495 25.2293 26.8103 1.23397 6.24295 73.4921
901272 9.67665 11.7036 25.1604 26.8395 1.26262 6.25913 73.3802
901281 9.65031 11.6485 25.1702 26.9662 1.29166 6.29894 73.4352
901292 9.65031 11.6485 25.1702 26.9662 1.29166 6.29894 73.4352
901301 9.66787 11.6393 25.2195 27.0636 1.29623 6.31386 73.5902
901311 9.66787 11.6393 25.2195 27.0636 1.29623 6.31386 73.5902
901321 9.59762 11.6577 25.1899 27.1415 1.3629 6.3346 73.5868
901331 9.51859 11.676 25.2293 27.2097 1.40488 6.36484 73.6337
901341 9.51859 11.676 25.2293 27.2097 1.40488 6.36484 73.6337
901352 9.52738 11.6118 25.2096 27.2682 1.40693 6.38548 73.617
901363 9.44835 11.5934 25.1899 27.3559 1.46459 6.42175 73.5876
901372 9.44835 11.5934 25.1899 27.3559 1.46459 6.42175 73.5876
901382 9.39566 11.5842 25.2293 27.4533 1.49756 6.45567 73.6625
901394 9.39566 11.5842 25.2293 27.4533 1.49756 6.45567 73.6625
901403 9.31663 11.4649 25.2588 27.4923 1.48971 6.52151 73.5326
901414 9.29907 11.4282 25.2293 27.4923 1.49494 6.534 73.4488
901424 9.29907 11.4282 25.2293 27.4923 1.49494 6.534 73.4488
901433 9.28151 11.419 25.2293 27.541 1.51392 6.54745 73.4708
901443 9.29907 11.4374 25.2785 27.5605 1.50194 6.54483 73.5754
901454 9.29907 11.4374 25.2785 27.5605 1.50194 6.54483 73.5754
901463 9.28151 11.3915 25.2293 27.5605 1.51135 6.55777 73.4627
901473 9.27273 11.3915 25.2687 27.5605 1.50031 6.56487 73.4933
901483 9.27273 11.3639 25.2687 27.5605 1.49151 6.57295 73.4658
901493 9.26395 11.3639 25.3179 27.6287 1.49873 6.58897 73.5744
901516 9.21126 11.318 25.3376 27.5507 1.47101 6.61129 73.4176
901526 9.25517 11.263 25.4163 27.5702 1.41544 6.62579 73.5047
901536 9.25517 11.263 25.4163 27.5702 1.41544 6.62579 73.5047
901545 9.24638 11.1987 25.4852 27.6287 1.39199 6.66176 73.559
901556 9.24638 11.2079 25.4951 27.6384 1.39453 6.66127 73.5877
901565 9.24638 11.2079 25.4951 27.6384 1.39453 6.66127 73.5877
901575 9.29029 11.2079 25.5541 27.5897 1.34201 6.64953 73.642
901595 9.20248 11.1253 25.5541 27.5799 1.34376 6.69865 73.4618
901606 9.22882 11.1803 25.623 27.5605 1.3211 6.68022 73.5927
901618 9.22882 11.1803 25.623 27.5605 1.3211 6.68022 73.5927
901625 9.2376 11.0702 25.6723 27.6676 1.29941 6.72772 73.6477
901635 9.2376 11.0702 25.6723 27.6676 1.29941 6.72772 73.6477
901645 9.14979 11.0059 25.692 27.6774 1.30621 6.77597 73.5251
901656 9.18492 10.9876 25.8101 27.7845 1.28008 6.79614 73.7671
901665 9.18492 10.9876 25.8101 27.7845 1.28008 6.79614 73.7671
901683 9.22882 10.8407 25.7805 27.843 1.2465 6.82981 73.6931
901686 9.18492 10.8224 25.879 27.8332 1.21803 6.85808 73.7195
901696 9.18492 10.8224 25.879 27.8332 1.21803 6.85808 73.7195
901707 9.14979 10.7489 25.9085 27.9307 1.22775 6.90428 73.7379
901717 9.13223 10.7122 25.9676 27.8722 1.18228 6.92048 73.6842
901727 9.13223 10.7122 25.9676 27.8722 1.18228 6.92048 73.6842
901739 9.10589 10.6388 25.9577 27.9501 1.1966 6.95765 73.6525
901747 9.10589 10.6388 25.9577 27.9501 1.1966 6.95765 73.6525
901760 9.07955 10.5653 26.0168 27.9599 1.16436 6.99492 73.6216
901767 9.07955 10.547 25.9774 28.0086 1.18819 7.00142 73.6125
901777 9.07955 10.547 25.9774 28.0086 1.18819 7.00142 73.6125
901787 9.07076 10.4093 26.0168 28.0865 1.15796 7.05797 73.5834
901799 9.04442 10.3909 26.0463 28.0768 1.14772 7.07351 73.5585
901807 9.04442 10.3909 26.0463 28.0768 1.14772 7.07351 73.5585
901818 8.99174 10.3542 26.0955 28.1547 1.16231 7.11402 73.5962
901829 8.99174 10.3542 26.0955 28.1547 1.16231 7.11402 73.5962
901839 9.02686 10.2991 26.0562 28.0865 1.12383 7.10848 73.4687
901849 9.0093 10.2532 26.1644 28.1158 1.08619 7.14231 73.5427
901859 9.0093 10.2532 26.1644 28.1158 1.08619 7.14231 73.5427
901873 9.04442 10.2349 26.1448 28.1547 1.08742 7.13932 73.5788
901879 9.01808 10.2624 26.0759 28.1742 1.1365 7.13368 73.5306
901889 9.01808 10.2624 26.0759 28.1742 1.1365 7.13368 73.5306
901899 9.06198 10.2349 26.253 28.1645 1.04604 7.14664 73.7144
901909 9.06198 10.2349 26.253 28.1645 1.04604 7.14664 73.7144
901919 8.96539 10.1982 26.253 28.1547 1.06511 7.18573 73.5713
901929 9.04442 10.1614 26.2137 28.2327 1.06447 7.17707 73.6522
901950 9.0532 10.2165 26.253 28.145 1.03684 7.15271 73.6678
901960 9.07076 10.189 26.2235 28.184 1.04479 7.15672 73.6672
901970 9.07076 10.189 26.2235 28.184 1.04479 7.15672 73.6672
901980 9.13223 10.2257 26.2137 28.1255 1.01948 7.11993 73.6971
902000 9.0532 10.2073 26.1644 28.1352 1.06203 7.14499 73.5602
902010 9.11467 10.2165 26.1546 28.1352 1.04674 7.12269 73.621
902020 9.11467 10.2165 26.1546 28.1352 1.04674 7.12269 73.621
902032 9.08833 10.2716 26.1251 28.067 1.06226 7.10358 73.552
902040 9.13223 10.2624 26.1251 28.0281 1.03103 7.08896 73.5478
902060 9.10589 10.2716 26.1349 28.0378 1.04303 7.09622 73.5502
902071 9.10589 10.2716 26.1349 28.0378 1.04303 7.09622 73.5502
902082 9.12345 10.3175 26.0168 28.0378 1.09363 7.06444 73.4956
902091 9.14979 10.3817 26.0168 27.9891 1.08933 7.032 73.5374
902101 9.14979 10.3817 26.0168 27.9891 1.08933 7.032 73.5374
902111 9.11467 10.4276 26.0069 28.0183 1.1297 7.03087 73.5676
902121 9.12345 10.345 25.9873 27.9599 1.08771 7.04455 73.4156
902131 9.12345 10.345 25.9873 27.9599 1.08771 7.04455 73.4156
902141 9.16736 10.4552 25.9873 27.9794 1.11427 7.0005 73.5892
902151 9.16736 10.4552 25.9873 27.9794 1.11427 7.0005 73.5892
902161 9.18492 10.4552 26.0168 27.9599 1.09125 6.99635 73.6168
902171 9.22004 10.5103 25.9676 27.9891 1.12359 6.96725 73.687
902184 9.22004 10.5103 25.9676 27.9891 1.12359 6.96725 73.687
902192 9.25517 10.5653 25.9774 27.9404 1.10972 6.93615 73.7383
902204 9.22004 10.5653 25.8987 27.9599 1.15641 6.94012 73.6439
902212 9.22004 10.5653 25.8987 27.9599 1.15641 6.94012 73.6439
902224 9.29907 10.6204 25.9085 27.9014 1.12379 6.8949 73.7294
902232 9.29907 10.6204 25.9085 27.9014 1.12379 6.8949 73.7294
902243 9.27273 10.5929 25.8691 27.8819 1.13186 6.90444 73.6167
902252 9.29029 10.6479 25.8199 27.8332 1.14517 6.87205 73.5914
902263 9.29029 10.6479 25.8199 27.8332 1.14517 6.87205 73.5914
902272 9.24638 10.6388 25.751 27.804 1.17285 6.877 73.4402
902285 9.31663 10.6847 25.8396 27.7845 1.12494 6.85011 73.6254
902292 9.31663 10.6847 25.8396 27.7845 1.12494 6.85011 73.6254
902303 9.29029 10.6388 25.7904 27.7358 1.12106 6.86074 73.4553
902314 9.29029 10.6388 25.7904 27.7358 1.12106 6.86074 73.4553
902324 9.26395 10.6755 25.7609 27.7261 1.14971 6.85329 73.4264
902333 9.27273 10.7122 25.7904 27.7163 1.14483 6.84196 73.4917
902344 9.27273 10.7122 25.7904 27.7163 1.14483 6.84196 73.4917
902353 9.28151 10.6296 25.8199 27.7163 1.10436 6.8672 73.4473
902363 9.31663 10.6296 25.8494 27.7066 1.07823 6.85894 73.5023
902373 9.31663 10.6296 25.8494 27.7066 1.07823 6.85894 73.5023
902386 9.29907 10.6663 25.8593 27.7261 1.09924 6.85649 73.5508
902395 9.29907 10.6663 25.8593 27.7261 1.09924 6.85649 73.5508
902405 9.33419 10.6663 25.9085 27.7748 1.08517 6.85689 73.6838
902415 9.26395 10.547 26.0069 27.7943 1.04275 6.92623 73.6121
902425 9.26395 10.547 26.0069 27.7943 1.04275 6.92623 73.6121
902435 9.36054 10.6021 26.0562 27.7553 0.996506 6.88227 73.7741
902445 9.31663 10.6296 26.0069 27.7163 1.02564 6.87742 73.6695
902455 9.31663 10.6296 26.0069 27.7163 1.02564 6.87742 73.6695
902465 9.32541 10.6021 26.0857 27.7066 0.982618 6.89059 73.7197
902485 9.32541 10.6112 26.0365 27.6871 0.996619 6.8803 73.6602
902495 9.35176 10.5653 26.0857 27.7553 0.977242 6.89902 73.7581
902516 9.35176 10.5378 26.0069 27.7163 0.983328 6.89426 73.6128
902526 9.32541 10.4919 26.0562 27.6968 0.953907 6.91903 73.5703
902536 9.32541 10.4919 26.0562 27.6968 0.953907 6.91903 73.5703
902546 9.35176 10.5562 25.9971 27.5799 0.948235 6.87266 73.485
902566 9.35176 10.5011 25.9774 27.5507 0.927565 6.88366 73.381
902576 9.35176 10.5011 25.9971 27.5605 0.923806 6.88691 73.4104
902587 9.35176 10.5011 25.9971 27.5605 0.923806 6.88691 73.4104
902598 9.3781 10.4735 25.938 27.463 0.894314 6.86994 73.2527
902607 9.36932 10.4827 26.0365 27.541 0.891298 6.88935 73.4295
902627 9.422 10.5194 26.0562 27.5117 0.868264 6.86167 73.5094
902637 9.38688 10.5194 26.1251 27.5117 0.856382 6.87974 73.5431
902650 9.38688 10.5011 26.1251 27.5702 0.869533 6.89165 73.5832
902657 9.40444 10.4644 26.1644 27.6189 0.853467 6.90704 73.6522
902680 9.40444 10.4827 26.1546 27.502 0.824571 6.88762 73.5438
902689 9.48347 10.5378 26.1546 27.5507 0.830922 6.85317 73.7266
902709 9.45713 10.5378 26.1546 27.5117 0.827372 6.85667 73.6613
902718 9.46591 10.4735 26.1743 27.5605 0.812295 6.88069 73.6742
902729 9.46591 10.4735 26.1743 27.5605 0.812295 6.88069 73.6742
902737 9.54494 10.547 26.1841 27.4728 0.776514 6.82689 73.7488
902758 9.50981 10.5011 26.0955 27.3948 0.779086 6.83243 73.5013
902769 9.53616 10.5745 26.0759 27.3656 0.791317 6.79738 73.5521
902779 9.53616 10.5745 26.0759 27.3656 0.791317 6.79738 73.5521
902789 9.54494 10.5286 26.066 27.3169 0.760511 6.80186 73.4565
902798 9.50103 10.5378 26.066 27.2779 0.766084 6.80782 73.3828
902810 9.50103 10.5378 26.066 27.2779 0.766084 6.80782 73.3828
902819 9.5625 10.5562 26.0168 27.239 0.754973 6.77425 73.3744
902829 9.5625 10.5562 26.0168 27.239 0.754973 6.77425 73.3744
902839 9.5625 10.5745 26.0759 27.2292 0.737107 6.77433 73.4421
902850 9.60641 10.4644 26.0857 27.1903 0.668919 6.79073 73.3467
902869 9.62397 10.5194 26.1054 27.2195 0.68382 6.77465 73.4683
902880 9.62397 10.5194 26.1349 27.2195 0.673503 6.77796 73.4978
902891 9.62397 10.5837 26.1349 27.2097 0.691533 6.75784 73.5523
902903 9.65909 10.5929 26.194 27.1903 0.65527 6.74918 73.6362
902908 9.65909 10.5929 26.194 27.1903 0.65527 6.74918 73.6362
902920 9.69421 10.5745 26.1644 27.1708 0.640801 6.73873 73.604
902930 9.66787 10.6388 26.2137 27.161 0.650865 6.73197 73.6813
902940 9.66787 10.6388 26.2137 27.161 0.650865 6.73197 73.6813
902950 9.7469 10.6755 26.1743 27.1415 0.642762 6.69126 73.7382
902970 9.72056 10.5929 26.1251 27.0734 0.619149 6.71014 73.5119
902980 9.73812 10.6663 26.1152 27.0831 0.644013 6.68329 73.6028
903000 9.78202 10.6847 26.1349 27.0344 0.611827 6.66168 73.636
903010 9.75568 10.6479 26.1152 26.9467 0.586584 6.66809 73.4656
903021 9.75568 10.6479 26.1152 26.9467 0.586584 6.66809 73.4656
903031 9.85227 10.6755 26.1054 26.9467 0.565553 6.63042 73.5798
903041 9.78202 10.6204 26.0857 26.8298 0.539598 6.6518 73.3179
903051 9.78202 10.6204 26.0857 26.8298 0.539598 6.6518 73.3179
903061 9.83471 10.6847 26.1251 26.7908 0.516 6.61736 73.4353
903081 9.82593 10.6847 26.0857 26.7616 0.522998 6.61211 73.3579
903091 9.87862 10.6755 26.1251 26.6642 0.455385 6.59266 73.3434
903101 9.87862 10.6755 26.1251 26.6642 0.455385 6.59266 73.3434
903111 9.8874 10.6847 26.1152 26.5765 0.429457 6.57617 73.2638
903121 9.8874 10.6847 26.1152 26.5765 0.429457 6.57617 73.2638
903134 9.9313 10.6847 26.1152 26.635 0.433815 6.56997 73.3661
903142 10.0015 10.7122 26.0857 26.6057 0.419143 6.53449 73.4052
903165 9.96643 10.7673 26.0857 26.5862 0.443223 6.52639 73.4056
903172 9.97521 10.7397 26.1841 26.5765 0.393635 6.54211 73.4756
903184 9.97521 10.7397 26.1841 26.5765 0.393635 6.54211 73.4756
903192 10.0191 10.8224 26.194 26.557 0.396198 6.50397 73.5925
903204 10.0103 10.8315 26.1448 26.4596 0.386688 6.48689 73.4462
903212 10.0103 10.8315 26.1448 26.4596 0.386688 6.48689 73.4462
903225 10.1157 10.8591 26.1841 26.4401 0.339457 6.45039 73.599
903244 10.186 10.8315 26.1546 26.3232 0.276953 6.42089 73.4953
903253 10.2562 10.905 26.0857 26.255 0.278252 6.36301 73.5019
903265 10.2562 10.905 26.0857 26.255 0.278252 6.36301 73.5019
903273 10.2738 10.9692 26.0463 26.1186 0.261474 6.31852 73.4079
903285 10.3001 10.9692 26.1152 26.1186 0.228739 6.31902 73.5032
903293 10.3001 10.8683 26.1152 26.1089 0.191367 6.3472 73.3925
903305 10.3352 10.8866 26.0463 26.0894 0.202587 6.32121 73.3576
903314 10.3352 10.8866 26.0463 26.0894 0.202587 6.32121 73.3576
903326 10.3704 10.9141 25.9971 26.0407 0.200275 6.29139 73.3223
903334 10.4318 10.9417 26.0562 25.9335 0.131953 6.25985 73.3632
903347 10.4318 10.9417 26.0562 25.9335 0.131953 6.25985 73.3632
903353 10.4845 10.9233 26.066 25.8848 0.0877976 6.24527 73.3587
903366 10.4933 10.9233 26.0955 25.8848 0.0747025 6.24625 73.397
903373 10.4933 10.9233 26.0955 25.7874 0.0415713 6.23462 73.2995
903386 10.5723 10.905 26.1644 25.8556 0.00809431 6.23344 73.4973
903396 10.5723 10.905 26.1644 25.8556 0.00809431 6.23344 73.4973
903404 10.5899 10.96 26.1251 25.8264 0.0243038 6.20428 73.5014
903415 10.5548 10.9233 26.194 25.7874 -0.0129387 6.2286 73.4594
903427 10.5548 10.9233 26.194 25.7874 -0.0129387 6.2286 73.4594
903435 10.6689 10.96 26.1152 25.7192 -0.0357002 6.16746 73.4634
903447 10.6601 10.9141 26.1251 25.7971 -0.0251412 6.19375 73.4965
903456 10.6601 10.9141 26.1251 25.7971 -0.0251412 6.19375 73.4965
903467 10.7216 10.905 26.1349 25.6802 -0.0923559 6.16583 73.4417
903487 10.7392 10.9141 26.1054 25.6218 -0.105143 6.14752 73.3805
903497 10.7304 10.9876 26.1743 25.612 -0.103748 6.13605 73.5043
903507 10.7304 10.9876 26.1743 25.612 -0.103748 6.13605 73.5043
903517 10.7128 10.9233 26.1546 25.5438 -0.136447 6.149 73.3346
903527 10.7655 10.9692 26.1251 25.4951 -0.145258 6.11114 73.3549
903537 10.7655 10.9692 26.1251 25.4951 -0.145258 6.11114 73.3549
903550 10.7655 10.9784 26.1644 25.5049 -0.152111 6.11445 73.4132
903559 10.7655 10.9417 26.1644 25.4659 -0.178067 6.1203 73.3375
903579 10.8094 11.0243 26.1349 25.3782 -0.184669 6.06968 73.3468
903599 10.8006 10.9876 26.0069 25.4172 -0.137545 6.07192 73.2123
903608 10.7655 11.0059 26.0857 25.3685 -0.162776 6.0804 73.2256
903619 10.7655 11.0059 26.0857 25.3685 -0.162776 6.0804 73.2256
903628 10.7743 11.0151 26.1054 25.3685 -0.169274 6.07763 73.2633
903638 10.7918 11.0059 26.0857 25.349 -0.178407 6.07044 73.2325
903650 10.7918 11.0059 26.0857 25.349 -0.178407 6.07044 73.2325
903661 10.8094 10.9968 26.1054 25.3295 -0.200881 6.06806 73.2411
903668 10.8094 10.9968 26.1054 25.3295 -0.200881 6.06806 73.2411
903681 10.7479 11.0794 26.1448 25.3198 -0.168352 6.06559 73.2918
903688 10.8094 11.0977 26.1743 25.3587 -0.179471 6.05103 73.4402
903698 10.8094 11.0977 26.1743 25.3587 -0.179471 6.05103 73.4402
903709 10.8182 11.1161 26.1743 25.3977 -0.162798 6.048 73.5063
903722 10.8006 11.1161 26.0759 25.3198 -0.150251 6.03151 73.3123
903730 10.8006 11.1161 26.0759 25.3198 -0.150251 6.03151 73.3123
903742 10.8709 11.1895 26.1152 25.3295 -0.158851 5.99639 73.5051
903750 10.8709 11.1895 26.1152 25.3295 -0.158851 5.99639 73.5051
903761 10.8533 11.162 26.0955 25.4074 -0.129019 6.0164 73.5183
903770 10.8445 11.1895 26.0463 25.349 -0.119954 5.99786 73.4294
903782 10.8445 11.1895 26.0463 25.349 -0.119954 5.99786 73.4294
903791 10.8533 11.2262 26.0168 25.31 -0.113693 5.97644 73.4064
903802 10.8533 11.2354 25.9676 25.31 -0.0938565 5.96777 73.3663
903812 10.8533 11.2354 25.9676 25.31 -0.0938565 5.96777 73.3663
903821 10.8533 11.2079 25.938 25.2418 -0.116611 5.9636 73.2411
903831 10.8533 11.2079 25.938 25.2418 -0.116611 5.9636 73.2411
903841 10.8884 11.1987 25.8298 25.3295 -0.0648394 5.95363 73.2464
903854 10.8357 11.1895 25.879 25.3685 -0.0534728 5.98221 73.2727
903861 10.8357 11.1895 25.879 25.3685 -0.0534728 5.98221 73.2727
903871 10.8357 11.263 25.8593 25.3977 -0.0117138 5.96238 73.3557
903881 10.7918 11.1895 25.879 25.4367 -0.0152171 6.00317 73.297
903902 10.7655 11.2538 25.9085 25.5146 0.0321299 6.00549 73.4424
903912 10.7655 11.2538 25.9085 25.5146 0.0321299 6.00549 73.4424
903922 10.7128 11.2446 25.8494 25.6023 0.096935 6.0267 73.4091
903932 10.6865 11.2813 25.8888 25.6218 0.111532 6.03092 73.4784
903953 10.6777 11.2538 25.8593 25.6997 0.141689 6.04722 73.4905
903962 10.6513 11.2721 25.8593 25.6802 0.150326 6.04713 73.463
903973 10.6513 11.2721 25.8593 25.6802 0.150326 6.04713 73.463
903983 10.6777 11.3089 25.7707 25.6413 0.170895 6.01349 73.3985
903994 10.6777 11.3089 25.7707 25.6413 0.170895 6.01349 73.3985
904002 10.6162 11.2446 25.7707 25.7095 0.193322 6.05787 73.341
904015 10.5811 11.2721 25.7215 25.7387 0.241509 6.05761 73.3134
904034 10.5899 11.3548 25.7018 25.69 0.256711 6.02303 73.3364
904042 10.5021 11.2721 25.692 25.8264 0.308517 6.08741 73.2925
904053 10.5021 11.2721 25.692 25.8264 0.308517 6.08741 73.2925
904064 10.5899 11.4374 25.6034 25.7582 0.341436 5.99566 73.3888
904074 10.5899 11.4374 25.6034 25.7582 0.341436 5.99566 73.3888
904085 10.5635 11.4465 25.623 25.7387 0.340268 6.0006 73.3718
904093 10.625 11.3915 25.5443 25.7679 0.33755 5.99269 73.3287
904105 10.625 11.3915 25.5443 25.7679 0.33755 5.99269 73.3287
904115 10.5723 11.4282 25.4655 25.8069 0.408471 5.99237 73.2729
904125 10.5899 11.4924 25.4262 25.7192 0.408173 5.95329 73.2277
904135 10.5899 11.4924 25.4262 25.7192 0.408173 5.95329 73.2277
904144 10.625 11.5475 25.4065 25.7192 0.421301 5.92508 73.2982
904165 10.5899 11.5567 25.3671 25.7192 0.450245 5.92761 73.2329
904175 10.625 11.6852 25.308 25.6997 0.495058 5.87118 73.318
904186 10.625 11.6852 25.308 25.6997 0.495058 5.87118 73.318
904196 10.6689 11.7036 25.2588 25.6315 0.480241 5.83882 73.2628
904206 10.6689 11.7219 25.2293 25.5828 0.480354 5.8238 73.2029
904218 10.6689 11.7219 25.2293 25.5828 0.480354 5.8238 73.2029
904226 10.7128 11.7219 25.2588 25.5828 0.454819 5.81502 73.2764
904238 10.7392 11.777 25.1309 25.6218 0.521627 5.78073 73.2688
904248 10.7392 11.777 25.1309 25.6218 0.521627 5.78073 73.2688
904256 10.7655 11.8504 25.1309 25.5926 0.527215 5.74879 73.3393
904267 10.7655 11.8504 25.1309 25.5926 0.527215 5.74879 73.3393
904277 10.7655 11.878 25.0718 25.5731 0.550476 5.73108 73.2883
904287 10.8357 11.9606 25.0423 25.5244 0.547594 5.678 73.363
904298 10.8357 11.9606 25.0423 25.5244 0.547594 5.678 73.363
904308 10.8182 11.9789 24.9734 25.4854 0.570869 5.66404 73.2559
904320 10.8094 11.9606 25.0324 25.4172 0.524431 5.67054 73.2196
904329 10.8094 11.9606 25.0324 25.4172 0.524431 5.67054 73.2196
904339 10.8621 12.0065 25.0423 25.3782 0.504968 5.63903 73.2891
904349 10.8621 12.0065 25.0423 25.3782 0.504968 5.63903 73.2891
904359 10.827 12.0248 25.0029 25.4367 0.556564 5.64618 73.2914
904369 10.8533 12.0248 24.9241 25.4074 0.565103 5.62496 73.2097
904380 10.8533 12.0248 24.9241 25.4074 0.565103 5.62496 73.2097
904390 10.827 12.0524 24.9832 25.3685 0.549865 5.6272 73.231
904400 10.8884 12.0707 24.9931 25.349 0.524631 5.6035 73.3012
904410 10.8884 12.0707 24.9931 25.349 0.524631 5.6035 73.3012
904420 10.8884 12.0616 24.9045 25.4172 0.575206 5.60346 73.2716
904430 10.8796 12.0065 24.8651 25.4562 0.586656 5.62138 73.2074
904440 10.8796 12.0065 24.8651 25.4562 0.586656 5.62138 73.2074
904450 10.8796 12.0891 24.8848 25.4756 0.613779 5.60316 73.3292
904460 10.8796 12.0891 24.8848 25.4756 0.613779 5.60316 73.3292
904470 10.7918 12.0799 25.0029 25.5049 0.609863 5.64926 73.3795
904482 10.8445 12.0524 24.8946 25.4659 0.607154 5.62338 73.2574
904491 10.8445 12.0524 24.8946 25.4659 0.607154 5.62338 73.2574
904500 10.8445 12.0891 24.8749 25.5633 0.658616 5.62299 73.3719
904511 10.8972 12.0707 24.8749 25.5341 0.624412 5.60961 73.377
904521 10.8972 12.0707 24.8749 25.5341 0.624412 5.60961 73.377
904531 10.8972 12.1442 24.8848 25.5341 0.645345 5.59027 73.4603
904551 10.827 11.9881 24.8356 25.612 0.661197 5.65755 73.2627
904561 10.8621 12.0983 24.7962 25.6413 0.708899 5.61538 73.3978
904571 10.8621 12.0983 24.7962 25.6413 0.708899 5.61538 73.3978
904584 10.7743 12.0616 24.7863 25.6607 0.737444 5.65164 73.2829
904591 10.7655 12.0432 24.8454 25.7192 0.733066 5.67425 73.3733
904601 10.7655 12.0432 24.8454 25.7192 0.733066 5.67425 73.3733
904611 10.7655 12.0065 24.7765 25.7387 0.751555 5.67832 73.2872
904621 10.7655 12.0065 24.7765 25.7387 0.751555 5.67832 73.2872
904632 10.7918 11.9789 24.7765 25.7874 0.749308 5.68485 73.3347
904642 10.7392 11.9881 24.7076 25.7387 0.778994 5.68218 73.1735
904652 10.7392 11.9881 24.7076 25.7387 0.778994 5.68218 73.1735
904662 10.7743 11.9881 24.7076 25.7971 0.785956 5.67969 73.2671
904673 10.7304 11.9514 24.7273 25.8556 0.801665 5.71239 73.2646
904682 10.7304 11.9514 24.7273 25.8556 0.801665 5.71239 73.2646
904695 10.7216 11.9055 24.6977 25.8556 0.799996 5.72412 73.1804
904702 10.7216 11.9055 24.6977 25.8556 0.799996 5.72412 73.1804
904715 10.6952 11.933 24.7174 25.8264 0.801787 5.72257 73.1721
904722 10.6074 11.8688 24.7666 25.9043 0.819924 5.78178 73.1472
904742 10.6426 11.8963 24.7666 25.9725 0.839135 5.77259 73.278
904754 10.5987 11.8963 24.7568 26.0212 0.874153 5.78993 73.273
904763 10.5987 11.8963 24.7568 26.0212 0.874153 5.78993 73.273
904775 10.6338 11.8688 24.7962 26.0504 0.848427 5.79639 73.3492
904792 10.6338 11.8688 24.7962 26.0504 0.848427 5.79639 73.3492
904801 10.6162 11.8504 24.7371 26.1284 0.895059 5.80895 73.3321
904813 10.6074 11.8413 24.8159 26.1284 0.867358 5.8239 73.3929
904815 10.6074 11.8413 24.8159 26.1284 0.867358 5.8239 73.3929
904824 10.6426 11.8137 24.8159 26.1186 0.842723 5.82053 73.3908
904834 10.5987 11.8137 24.8454 26.1186 0.847784 5.83668 73.3764
904854 10.6162 11.7862 24.8552 26.1284 0.832272 5.84196 73.386
904863 10.6162 11.7862 24.8552 26.1284 0.832272 5.84196 73.386
904873 10.5548 11.7954 24.7765 26.0797 0.868699 5.8409 73.2063
904884 10.5899 11.8229 24.806 26.0407 0.842106 5.8219 73.2595
904894 10.5899 11.8229 24.806 26.0407 0.842106 5.8219 73.2595
904904 10.6074 11.7403 24.747 26.0991 0.848782 5.84033 73.1938
904915 10.5548 11.777 24.8257 26.0797 0.845268 5.85228 73.2371
904924 10.5548 11.777 24.8257 26.0797 0.845268 5.85228 73.2371
904935 10.6162 11.7586 24.8159 26.1284 0.837067 5.84487 73.3191
904945 10.6162 11.7586 24.8159 26.1284 0.837067 5.84487 73.3191
904955 10.5987 11.7403 24.7863 26.1576 0.857252 5.85505 73.2829
904965 10.5723 11.7036 24.8848 26.1771 0.826162 5.88769 73.3377
904975 10.5723 11.7036 24.8848 26.1771 0.826162 5.88769 73.3377
904985 10.5548 11.7311 24.9045 26.255 0.860131 5.89696 73.4453
904995 10.4933 11.6852 24.8848 26.216 0.860813 5.92029 73.2793
905016 10.5811 11.6485 24.934 26.3135 0.832528 5.92387 73.477
905026 10.5811 11.6485 24.934 26.3135 0.832528 5.92387 73.477
905036 10.5196 11.6393 24.9438 26.294 0.84126 5.94281 73.3968
905046 10.5372 11.6118 24.9241 26.294 0.832942 5.94323 73.3671
905056 10.5372 11.6118 24.9241 26.294 0.832942 5.94323 73.3671
905067 10.5284 11.6852 24.9241 26.2648 0.850585 5.92118 73.4025
905077 10.5021 11.6485 24.8749 26.3232 0.884369 5.94031 73.3487
905088 10.5021 11.6485 24.8749 26.3232 0.884369 5.94031 73.3487
905097 10.5108 11.6852 24.8651 26.3232 0.896817 5.92611 73.3843
905117 10.5548 11.621 24.806 26.3135 0.877833 5.9234 73.2952
905127 10.4933 11.5934 24.7962 26.3622 0.910002 5.95364 73.2451
905149 10.5284 11.6393 24.7765 26.3914 0.929227 5.93167 73.3356
905160 10.5548 11.6668 24.7863 26.3817 0.922278 5.91631 73.3896
905168 10.5548 11.6668 24.7863 26.3817 0.922278 5.91631 73.3896
905177 10.5284 11.7311 24.7666 26.3427 0.946838 5.89825 73.3689
905189 10.5284 11.7311 24.7666 26.3427 0.946838 5.89825 73.3689
905197 10.5196 11.6485 24.7371 26.3622 0.939682 5.92307 73.2674
905208 10.5021 11.6577 24.747 26.4986 0.990123 5.94354 73.4053
905220 10.5021 11.6577 24.747 26.4986 0.990123 5.94354 73.4053
905228 10.4845 11.6577 24.7076 26.5278 1.01985 5.9473 73.3775
905245 10.5196 11.6118 24.6977 26.557 1.00544 5.95276 73.3862
905258 10.5372 11.5659 24.7371 26.5668 0.973457 5.96691 73.4069
905269 10.5372 11.5659 24.619 26.5668 1.01532 5.95234 73.2888
905278 10.5372 11.621 24.619 26.4986 1.01102 5.92818 73.2757
905289 10.5196 11.621 24.5895 26.5278 1.03731 5.93316 73.2578
905310 10.4757 11.676 24.5599 26.4791 1.06552 5.92027 73.1908
905320 10.4757 11.676 24.4713 26.5181 1.10985 5.91411 73.1411
905331 10.4757 11.676 24.4713 26.5181 1.10985 5.91411 73.1411
905341 10.5021 11.6944 24.5304 26.5278 1.08857 5.90988 73.2546
905351 10.4933 11.6944 24.491 26.5473 1.11209 5.90992 73.226
905361 10.4933 11.6944 24.491 26.5473 1.11209 5.90992 73.226
905372 10.4757 11.7036 24.5009 26.5862 1.13054 5.91837 73.2664
905382 10.4582 11.7219 24.432 26.6544 1.18958 5.91805 73.2665
905392 10.4582 11.7219 24.432 26.6544 1.18958 5.91805 73.2665
905402 10.4845 11.7862 24.5402 26.6544 1.16241 5.90564 73.4654
905412 10.4845 11.7862 24.5402 26.6544 1.16241 5.90564 73.4654
905422 10.5284 11.7954 24.491 26.7324 1.19253 5.8941 73.5472
905440 10.4933 11.777 24.5402 26.6837 1.16579 5.90937 73.4942
905452 10.4933 11.8137 24.4418 26.7226 1.2254 5.89156 73.4714
905478 10.4669 11.7862 24.4123 26.6837 1.22381 5.8984 73.3491
905483 10.4582 11.8321 24.4221 26.6739 1.23515 5.88785 73.3863
905504 10.4669 11.8321 24.3631 26.6057 1.23103 5.86952 73.2678
905514 10.5196 11.9239 24.4123 26.557 1.20857 5.82851 73.4128
905523 10.5196 11.9239 24.4123 26.557 1.20857 5.82851 73.4128
905533 10.5108 11.9055 24.3434 26.5181 1.21774 5.82272 73.2778
905546 10.5108 11.9055 24.3434 26.5181 1.21774 5.82272 73.2778
905554 10.546 11.9055 24.3729 26.5083 1.19147 5.81522 73.3327
905566 10.5284 11.8413 24.4418 26.5668 1.17126 5.85437 73.3782
905574 10.5284 11.8413 24.4418 26.5668 1.17126 5.85437 73.3782
905583 10.5021 11.8413 24.4615 26.557 1.17047 5.8631 73.3618
905593 10.546 11.8963 24.4713 26.5765 1.1755 5.83865 73.4901
905614 10.5196 11.878 24.491 26.557 1.1656 5.85136 73.4456
905623 10.5196 11.878 24.491 26.557 1.1656 5.85136 73.4456
905634 10.4757 11.8045 24.5206 26.5473 1.1437 5.88718 73.3481
905645 10.5372 11.8229 24.5402 26.5765 1.13027 5.87055 73.4768
905655 10.5372 11.8229 24.5402 26.5765 1.13027 5.87055 73.4768
905665 10.4318 11.8229 24.5993 26.5473 1.13726 5.90423 73.4013
905675 10.4055 11.7954 24.5895 26.4791 1.11899 5.90991 73.2694
905687 10.4055 11.7954 24.5895 26.4791 1.11899 5.90991 73.2694
905695 10.5021 11.7495 24.6288 26.5278 1.07152 5.90638 73.4082
905708 10.5021 11.7495 24.6288 26.5278 1.07152 5.90638 73.4082
905715 10.4845 11.7678 24.6288 26.4791 1.06787 5.90011 73.3602
905725 10.4318 11.7495 24.6485 26.5181 1.08632 5.92764 73.3479
905735 10.4318 11.7495 24.6485 26.5181 1.08632 5.92764 73.3479
905747 10.4494 11.6668 24.6879 26.4596 1.02001 5.94386 73.2637
905757 10.4669 11.6852 24.6781 26.4011 1.00413 5.92514 73.2313
905765 10.4669 11.6852 24.6781 26.4011 1.00413 5.92514 73.2313
905775 10.4582 11.676 24.7863 26.4499 0.981796 5.94968 73.3704
905785 10.4582 11.676 24.7863 26.4499 0.981796 5.94968 73.3704
905795 10.4318 11.5934 24.8257 26.4888 0.962883 5.99047 73.3398
905805 10.4669 11.6301 24.806 26.5181 0.979018 5.9711 73.4211
905826 10.4318 11.6393 24.8257 26.4596 0.968349 5.97375 73.3564
905836 10.4582 11.6301 24.8552 26.4109 0.929603 5.96648 73.3544
905846 10.4582 11.6301 24.8552 26.4109 0.929603 5.96648 73.3544
905858 10.4757 11.5842 24.8552 26.4693 0.927514 5.98177 73.3845
905867 10.4845 11.6118 24.8946 26.4206 0.903565 5.97024 73.4115
905887 10.5372 11.621 24.8946 26.3817 0.875202 5.94778 73.4344
905897 10.5372 11.621 24.8946 26.3817 0.875202 5.94778 73.4344
905907 10.5021 11.5567 24.8946 26.2648 0.827926 5.96176 73.2181
905918 10.4933 11.5842 24.9143 26.2258 0.820306 5.95401 73.2176
905928 10.4933 11.5842 24.9143 26.2258 0.820306 5.95401 73.2176
905940 10.5548 11.5934 24.9241 26.1381 0.769231 5.92418 73.2104
905948 10.5548 11.5934 24.9241 26.1381 0.769231 5.92418 73.2104
905957 10.5284 11.5934 24.9931 26.1479 0.75748 5.94144 73.2627
905968 10.5811 11.5842 25.0423 26.1576 0.72189 5.9363 73.3652
905979 10.5811 11.5842 25.0423 26.1576 0.72189 5.9363 73.3652
905987 10.6162 11.5567 25.1112 26.1089 0.660208 5.93663 73.393
905999 10.625 11.5475 25.1702 26.0212 0.604343 5.93321 73.364
906007 10.625 11.5475 25.1702 26.0212 0.604343 5.93321 73.364
906018 10.6777 11.5751 25.2588 26.0407 0.570759 5.9237 73.5523
906027 10.6777 11.5751 25.2588 26.0407 0.570759 5.9237 73.5523
906038 10.6338 11.52 25.249 26.0797 0.584111 5.95549 73.4824
906048 10.704 11.4924 25.3179 26.0309 0.510389 5.9458 73.5453
906068 10.704 11.4649 25.2785 26.0212 0.511634 5.9476 73.4687
906079 10.6689 11.419 25.3179 26.0602 0.507849 5.98035 73.466
906088 10.6689 11.419 25.3179 26.0602 0.507849 5.98035 73.466
906100 10.6865 11.3731 25.2982 25.992 0.470492 5.97765 73.3498
906119 10.6689 11.3639 25.2982 25.9335 0.453949 5.97811 73.2646
906128 10.6513 11.3548 25.4163 25.9822 0.432298 6.00625 73.4047
906139 10.6513 11.3548 25.4163 25.9822 0.432298 6.00625 73.4047
906148 10.6338 11.2446 25.4163 25.953 0.39165 6.03929 73.2477
906159 10.6777 11.1895 25.5049 26.0309 0.353482 6.06282 73.4031
906175 10.6777 11.1895 25.5049 26.0309 0.353482 6.06282 73.4031
906180 10.625 11.2262 25.5541 25.953 0.340831 6.06391 73.3584
906190 10.625 11.2262 25.5541 25.953 0.340831 6.06391 73.3584
906200 10.5899 11.1712 25.5935 25.9627 0.324112 6.09581 73.3173
906210 10.5899 11.1436 25.6132 25.9822 0.314605 6.10849 73.3289
906220 10.5899 11.1436 25.6132 25.9822 0.314605 6.10849 73.3289
906230 10.5987 11.1528 25.7018 25.9725 0.280845 6.11287 73.4258
906240 10.6338 11.0977 25.7904 25.953 0.213191 6.12696 73.4749
906260 10.6513 11.1253 25.8593 25.9433 0.189558 6.12115 73.5792
906271 10.6074 11.0243 25.8691 25.8848 0.147349 6.15697 73.3857
906283 10.6074 11.0243 25.8691 25.8848 0.147349 6.15697 73.3857
906291 10.6074 10.9692 25.9479 25.9043 0.108334 6.18466 73.4288
906316 10.6338 11.0059 25.9774 25.8848 0.0950843 6.16769 73.502
906323 10.625 10.9417 25.9873 25.9043 0.0795424 6.19227 73.4582
906343 10.5987 10.96 26.0463 25.8556 0.0580728 6.19581 73.4606
906357 10.5987 10.8499 26.0562 25.8264 0.00730753 6.22532 73.3311
906368 10.5987 10.8499 26.0562 25.8264 0.00730753 6.22532 73.3311
906374 10.5899 10.8407 26.1152 25.8166 -0.016278 6.23642 73.3624
906383 10.5987 10.804 26.1546 25.8751 -0.0252575 6.25617 73.4323
906403 10.5899 10.804 26.2826 25.9238 -0.0491381 6.2797 73.6002
906413 10.5899 10.804 26.2826 25.9238 -0.0491381 6.2797 73.6002
906426 10.6074 10.7765 26.2629 25.9627 -0.0445291 6.28487 73.6095
906436 10.5372 10.7122 26.3613 25.9725 -0.0726432 6.33659 73.5832
906445 10.5372 10.7122 26.3613 25.9725 -0.0726432 6.33659 73.5832
906456 10.5284 10.8132 26.381 26.0504 -0.0155255 6.32139 73.773
906465 10.5021 10.804 26.4598 26.0212 -0.046289 6.33748 73.787
906477 10.5021 10.804 26.4598 26.0212 -0.046289 6.33748 73.787
906485 10.5196 10.6663 26.3712 26.1089 -0.0392333 6.37216 73.666
906497 10.5196 10.6663 26.3712 26.1089 -0.0392333 6.37216 73.666
906505 10.4582 10.6938 26.4007 26.0115 -0.0521824 6.37406 73.5642
906515 10.4143 10.6296 26.3909 26.0309 -0.0491962 6.40666 73.4656
906525 10.4143 10.6296 26.3909 26.0309 -0.0491962 6.40666 73.4656
906537 10.3879 10.6479 26.2924 25.9335 -0.0337332 6.38602 73.2618
906557 10.3177 10.5653 26.2924 25.953 -0.031364 6.43302 73.1284
906565 10.3001 10.547 26.2924 26.1479 0.0348985 6.4663 73.2873
906585 10.1772 10.446 26.3909 26.1966 0.0254571 6.5491 73.2106
906595 10.1333 10.4368 26.4105 26.2648 0.0538528 6.57486 73.2454
906605 10.1333 10.4368 26.4105 26.2648 0.0538528 6.57486 73.2454
906615 10.0718 10.2624 26.5385 26.4693 0.0413984 6.68245 73.3421
906625 10.0718 10.2624 26.5385 26.4693 0.0413984 6.68245 73.3421
906635 9.96643 10.2073 26.5385 26.7226 0.144705 6.75851 73.4349
906646 9.87862 10.0972 26.7255 26.9662 0.155845 6.86515 73.6675
906655 9.87862 10.0972 26.7255 26.9662 0.155845 6.86515 73.6675
906666 9.87862 10.0513 26.7551 27.1513 0.192621 6.90239 73.8363
906676 9.80837 9.97786 26.8633 27.2195 0.177893 6.96434 73.8691
906686 9.80837 9.97786 26.8633 27.2195 0.177893 6.96434 73.8691
906696 9.72934 9.98704 26.8043 27.2779 0.24775 6.98506 73.7986
906706 9.72934 9.98704 26.8043 27.2779 0.24775 6.98506 73.7986
906716 9.73812 9.90443 26.8338 27.3169 0.220004 7.01449 73.7933
906726 9.65031 9.90443 26.7649 27.2779 0.260589 7.02906 73.5976
906737 9.65031 9.90443 26.7649 27.2779 0.260589 7.02906 73.5976
906752 9.62397 9.83099 26.7354 27.3072 0.264913 7.05893 73.4975
906759 9.60641 9.84017 26.7058 27.3072 0.284195 7.05825 73.4596
906768 9.60641 9.84017 26.7058 27.3072 0.284195 7.05825 73.4596
906778 9.58006 9.79428 26.6862 27.4143 0.320649 7.0894 73.4748
906787 9.60641 9.79428 26.696 27.4143 0.308183 7.08254 73.511
906798 9.60641 9.79428 26.696 27.4143 0.308183 7.08254 73.511
906809 9.58006 9.7851 26.7748 27.4436 0.296888 7.10482 73.5835
906819 9.58006 9.7851 26.7748 27.4436 0.296888 7.10482 73.5835
906830 9.51859 9.82181 26.7649 27.4338 0.330478 7.11016 73.5391
906839 9.58006 9.7392 26.7551 27.4533 0.291511 7.11755 73.5276
906848 9.58006 9.7392 26.7551 27.4533 0.291511 7.11755 73.5276
906859 9.58006 9.82181 26.6862 27.4923 0.356025 7.08951 73.5803
906868 9.50103 9.77592 26.7157 27.5117 0.364244 7.13233 73.5044
906890 9.53616 9.80346 26.7748 27.5702 0.360572 7.12605 73.6846
906900 9.53616 9.80346 26.7748 27.5702 0.360572 7.12605 73.6846
906911 9.53616 9.84017 26.7452 27.6384 0.405774 7.11917 73.7599
906920 9.51859 9.75756 26.7354 27.6189 0.381124 7.14612 73.6304
906940 9.51859 9.79428 26.7944 27.5897 0.363287 7.13827 73.697
906950 9.48347 9.80346 26.7649 27.5897 0.388622 7.14291 73.6415
906960 9.48347 9.80346 26.7649 27.5897 0.388622 7.14291 73.6415
906970 9.48347 9.82181 26.7452 27.6481 0.421059 7.14153 73.6986
906990 9.422 9.70248 26.7157 27.5507 0.379986 7.18248 73.3909
907000 9.49225 9.7851 26.6763 27.6287 0.423056 7.1405 73.5823
907020 9.50103 9.84017 26.6862 27.5605 0.412241 7.11505 73.5878
907030 9.50103 9.86771 26.7255 27.6481 0.437087 7.12038 73.7424
907040 9.50103 9.86771 26.7255 27.6481 0.437087 7.12038 73.7424
907050 9.50981 9.80346 26.7748 27.6579 0.398925 7.14332 73.7459
907060 9.50981 9.80346 26.7748 27.6579 0.398925 7.14332 73.7459
907070 9.50981 9.80346 26.824 27.6481 0.378737 7.14752 73.7854
907080 9.53616 9.85853 26.7157 27.6384 0.422066 7.11051 73.7488
907091 9.53616 9.85853 26.7157 27.6384 0.422066 7.11051 73.7488
907102 9.53616 9.91361 26.6862 27.541 0.418133 7.08038 73.6769
907111 9.58006 9.94114 26.6271 27.4143 0.390249 7.03894 73.5626
907122 9.58006 9.94114 26.6271 27.4143 0.390249 7.03894 73.5626
907131 9.58006 9.90443 26.5483 27.3948 0.398645 7.03931 73.4277
907153 9.60641 9.96868 26.5287 27.2974 0.385225 6.99941 73.4012
907162 9.57128 9.96868 26.4991 27.3266 0.417402 7.00991 73.3657
907185 9.64153 9.98704 26.4991 27.1805 0.350201 6.96738 73.3082
907193 9.65031 9.97786 26.5385 27.2877 0.366461 6.98352 73.4544
907202 9.65031 9.97786 26.5385 27.2877 0.366461 6.98352 73.4544
907213 9.67665 10.0238 26.5287 27.2292 0.356552 6.95445 73.4583
907234 9.72056 10.0972 26.4991 27.1805 0.359884 6.91084 73.4974
907243 9.82593 10.1247 26.4794 27.0928 0.310174 6.85941 73.5229
907263 9.79959 10.1982 26.3909 27.0734 0.367901 6.83342 73.462
907274 9.94008 10.2165 26.3712 27.1318 0.351983 6.79064 73.6596
907294 9.95764 10.3267 26.2235 26.9857 0.384796 6.71995 73.4935
907304 9.95764 10.3267 26.2235 26.9857 0.384796 6.71995 73.4935
907314 10.0279 10.3542 26.1644 26.9175 0.367308 6.6767 73.464
907325 10.0279 10.4093 26.1448 26.7421 0.333712 6.63828 73.3241
907345 10.0981 10.4735 26.0463 26.7324 0.361779 6.58627 73.3504
907356 10.1684 10.6021 25.9971 26.6837 0.381282 6.51664 73.4512
907369 10.1684 10.6021 25.9971 26.6837 0.381282 6.51664 73.4512
907378 10.2825 10.6847 25.879 26.557 0.367886 6.43067 73.4032
907385 10.2562 10.6847 25.8494 26.4499 0.351197 6.42239 73.2402
907395 10.2562 10.7489 25.8494 26.4499 0.372803 6.40361 73.3044
907407 10.344 10.8499 25.7116 26.4499 0.423998 6.33238 73.3554
907415 10.344 10.8499 25.7116 26.4499 0.423998 6.33238 73.3554
907428 10.3967 10.9692 25.6132 26.3622 0.450465 6.26035 73.3413
907435 10.4669 11.0059 25.564 26.3135 0.439152 6.21767 73.3503
907447 10.4669 11.0059 25.564 26.3135 0.439152 6.21767 73.3503
907456 10.5284 11.1436 25.4754 26.1966 0.45552 6.13545 73.344
907466 10.5548 11.2262 25.4459 26.2063 0.487497 6.10171 73.4332
907477 10.5548 11.2262 25.4459 26.2063 0.487497 6.10171 73.4332
907487 10.5987 11.3548 25.4065 26.1479 0.509286 6.04037 73.5077
907506 10.5899 11.318 25.3573 26.1381 0.513941 6.04622 73.4033
907516 10.5987 11.3915 25.249 26.0991 0.560063 6.00464 73.3383
907526 10.5987 11.3915 25.249 26.0991 0.560063 6.00464 73.3383
907536 10.6601 11.4006 25.2785 26.0407 0.511959 5.98088 73.38
907546 10.6338 11.419 25.2195 26.0212 0.541309 5.9735 73.2934
907566 10.6865 11.419 25.2391 26.0407 0.522614 5.96326 73.3853
907577 10.6865 11.419 25.2391 26.0407 0.522614 5.96326 73.3853
907587 10.6426 11.3915 25.2884 26.0602 0.518078 5.99212 73.3826
907600 10.6074 11.3915 25.3474 25.992 0.486985 6.00106 73.3383
907607 10.6074 11.3915 25.3474 25.992 0.486985 6.00106 73.3383
907619 10.6601 11.419 25.2884 26.0212 0.508159 5.97444 73.3887
907627 10.6338 11.4282 25.2982 26.0309 0.520208 5.98176 73.3911
907647 10.6338 11.3823 25.2982 26.0504 0.511396 5.99728 73.3647
907667 10.5899 11.3639 25.3277 26.0602 0.513515 6.01992 73.3417
907679 10.625 11.3639 25.3474 26.0602 0.494462 6.01227 73.3965
907689 10.625 11.3639 25.3474 26.0602 0.494462 6.01227 73.3965
907698 10.6689 11.3272 25.3376 26.0699 0.473627 6.0102 73.4036
907709 10.7128 11.4006 25.3573 26.0212 0.459838 5.97311 73.4919
907719 10.7128 11.4006 25.3573 26.0212 0.459838 5.97311 73.4919
907729 10.6865 11.419 25.3277 25.9627 0.465813 5.96457 73.396
907757 10.7567 11.4374 25.2293 25.9433 0.475222 5.92473 73.3666
907759 10.7304 11.4374 25.1998 25.8264 0.455499 5.9141 73.1939
907769 10.7304 11.4374 25.1998 25.8264 0.455499 5.9141 73.1939
907778 10.7831 11.4282 25.2195 25.9043 0.453389 5.91379 73.335
907791 10.7567 11.4557 25.0816 25.8264 0.493613 5.88664 73.1204
907802 10.7567 11.4557 25.0816 25.8264 0.493613 5.88664 73.1204
907810 10.8094 11.4924 25.1309 25.8069 0.463906 5.86484 73.2396
907819 10.8094 11.4924 25.1309 25.8069 0.463906 5.86484 73.2396
907829 10.8709 11.5108 25.1309 25.7971 0.44544 5.84091 73.3097
907838 10.906 11.5108 25.0816 25.7679 0.440541 5.82111 73.2663
907849 10.906 11.5108 25.0816 25.7679 0.440541 5.82111 73.2663
907858 10.9148 11.5292 25.0915 25.7484 0.433695 5.81219 73.2838
907880 10.9762 11.5383 24.9635 25.6705 0.433728 5.76623 73.1486
907890 11.0289 11.5842 25.0718 25.7095 0.406355 5.75686 73.3944
907900 11.0289 11.5842 25.0718 25.7095 0.406355 5.75686 73.3944
907910 11.0553 11.5751 24.9931 25.7582 0.437745 5.74822 73.3815
907921 11.0904 11.621 25.0127 25.7192 0.421077 5.7229 73.4433
907930 11.0904 11.621 25.0127 25.7192 0.421077 5.7229 73.4433
907940 11.0816 11.6485 24.9537 25.6997 0.447276 5.70768 73.3835
907953 11.0816 11.6026 24.9045 25.6705 0.439197 5.7107 73.2591
907961 11.0816 11.6026 24.9045 25.6705 0.439197 5.7107 73.2591
907971 11.0816 11.6301 24.8848 25.6315 0.442204 5.69547 73.228
907991 11.0553 11.621 24.8159 25.612 0.465724 5.69428 73.1041
908001 11.0904 11.676 24.8257 25.612 0.468537 5.67003 73.2042
908021 11.0904 11.7036 24.7863 25.5731 0.478414 5.65226 73.1534
908033 11.0904 11.7586 24.7174 25.5731 0.520885 5.6279 73.1395
908043 11.0904 11.7586 24.7174 25.5731 0.520885 5.6279 73.1395
908052 11.2045 11.7311 24.8257 25.612 0.44733 5.62236 73.3734
908064 11.2045 11.7311 24.8257 25.612 0.44733 5.62236 73.3734
908073 11.0904 11.7586 24.7371 25.5633 0.510752 5.62917 73.1495
908083 11.1167 11.7403 24.7371 25.6413 0.521499 5.6369 73.2354
908093 11.1167 11.7403 24.7371 25.6413 0.521499 5.6369 73.2354
908102 11.108 11.7586 24.7863 25.612 0.503781 5.63675 73.265
908112 11.1343 11.7495 24.747 25.6802 0.528035 5.63561 73.3109
908134 11.1606 11.8504 24.7371 25.6218 0.536478 5.59108 73.37
908144 11.1606 11.8504 24.7371 25.6218 0.536478 5.59108 73.37
908156 11.1343 11.8596 24.6288 25.6413 0.592971 5.5845 73.264
908163 11.1606 11.9055 24.6387 25.6218 0.589132 5.56298 73.3266
908175 11.1606 11.9055 24.6387 25.6218 0.589132 5.56298 73.3266
908183 11.1431 11.9147 24.6682 25.6315 0.591254 5.57038 73.3575
908196 11.0816 11.9422 24.5796 25.612 0.646392 5.566 73.2155
908216 11.108 11.9422 24.5993 25.612 0.630277 5.56114 73.2615
908225 11.0465 11.9055 24.5698 25.6218 0.653175 5.58618 73.1435
908236 11.0465 11.9055 24.5698 25.6218 0.653175 5.58618 73.1435
908246 11.0992 11.9698 24.5304 25.651 0.679585 5.55202 73.2503
908256 11.0992 11.9698 24.5304 25.651 0.679585 5.55202 73.2503
908266 11.0553 11.933 24.5304 25.7387 0.711891 5.58594 73.2574
908276 11.0289 11.8871 24.6485 25.7874 0.680655 5.62762 73.352
908286 11.0289 11.8871 24.6485 25.7874 0.680655 5.62762 73.352
908296 11.0377 11.9514 24.6288 25.7777 0.702533 5.60334 73.3956
908306 10.9938 11.8963 24.6387 25.8166 0.709134 5.6374 73.3454
908316 10.9938 11.8963 24.6387 25.8166 0.709134 5.6374 73.3454
908326 11.0201 11.8871 24.6584 25.8361 0.696421 5.63757 73.4018
908336 11.0201 11.8871 24.6584 25.8361 0.696421 5.63757 73.4018
908346 11.0201 11.8688 24.6682 25.8946 0.706246 5.65144 73.4517
908356 10.9762 11.878 24.7568 25.8946 0.693649 5.67246 73.5056
908368 10.9762 11.878 24.7568 25.8946 0.693649 5.67246 73.5056
908376 10.9411 11.8229 24.747 25.8653 0.681472 5.6929 73.3763
908388 10.827 11.7403 24.7371 25.8848 0.704005 5.74976 73.1892
908397 10.827 11.7403 24.7371 25.8848 0.704005 5.74976 73.1892
908407 10.8709 11.7586 24.8159 25.8848 0.667092 5.74208 73.3302
908417 10.8709 11.7586 24.8159 25.8848 0.667092 5.74208 73.3302
908427 10.8621 11.7127 24.8159 25.8069 0.629005 5.74771 73.1976
908437 10.8533 11.7127 24.8946 25.8361 0.614259 5.76383 73.2968
908457 10.8445 11.7127 24.8651 25.7582 0.6017 5.75276 73.1805
908471 10.8006 11.6393 24.9438 25.8653 0.600752 5.80947 73.2491
908478 10.8006 11.6393 24.9438 25.8653 0.600752 5.80947 73.2491
908489 10.8533 11.6577 24.9537 25.8653 0.585032 5.79055 73.33
908499 10.8533 11.6577 24.9537 25.8653 0.585032 5.79055 73.33
908509 10.8094 11.6668 25.0127 25.8264 0.56982 5.80292 73.3153
908519 10.8094 11.6668 25.0324 25.8653 0.575939 5.81027 73.374
908529 10.8094 11.6668 25.0324 25.8653 0.575939 5.81027 73.374
908538 10.7918 11.6118 25.0915 25.9433 0.569084 5.84799 73.4384
908548 10.827 11.6118 25.0718 25.9335 0.560471 5.83436 73.4441
908569 10.8533 11.6668 25.1702 25.9627 0.545141 5.82721 73.6531
908580 10.8533 11.6668 25.1702 25.9627 0.545141 5.82721 73.6531
908588 10.8357 11.5475 25.1112 25.9335 0.522321 5.85501 73.428
908598 10.7743 11.5934 25.121 25.9725 0.568533 5.86551 73.4612
908608 10.7743 11.5934 25.121 25.9725 0.568533 5.86551 73.4612
908629 10.7918 11.6301 25.1112 25.8848 0.548887 5.83795 73.418
908630 10.7743 11.5842 25.0423 25.9043 0.570214 5.84981 73.3051
908638 10.7743 11.5842 25.0423 25.9043 0.570214 5.84981 73.3051
908650 10.7128 11.52 25.1013 25.8458 0.530091 5.88571 73.18
908668 10.6865 11.5292 25.0226 25.8556 0.573128 5.88201 73.0938
908679 10.6513 11.52 25.1112 25.9335 0.577396 5.91538 73.216
908699 10.7304 11.5475 25.0718 25.8848 0.556487 5.87402 73.2345
908709 10.6777 11.5016 25.1407 25.9335 0.551766 5.91676 73.2535
908720 10.6777 11.5016 25.1407 25.9335 0.551766 5.91676 73.2535
908729 10.6952 11.6026 25.1702 25.9822 0.585204 5.89268 73.4503
908750 10.6601 11.5016 25.2195 25.9335 0.53044 5.93153 73.3147
908760 10.6689 11.5383 25.1801 25.9725 0.566334 5.9185 73.3598
908780 10.6689 11.5567 25.1998 26.0017 0.575313 5.91932 73.4271
908791 10.6865 11.5475 25.1702 26.0407 0.589386 5.9181 73.4449
908800 10.6865 11.5475 25.1702 26.0407 0.589386 5.9181 73.4449
908810 10.6865 11.5108 25.1702 26.0797 0.590134 5.93337 73.4472
908826 10.6865 11.5108 25.1702 26.0797 0.590134 5.93337 73.4472
908830 10.6865 11.5567 25.1407 25.9627 0.576809 5.90217 73.3466
908840 10.6865 11.6301 25.1013 26.0017 0.627917 5.88122 73.4196
908860 10.6952 11.6301 25.062 25.8751 0.596488 5.85805 73.2624
908871 10.704 11.6026 25.062 25.8458 0.574493 5.85974 73.2144
908881 10.704 11.6026 25.062 25.8458 0.574493 5.85974 73.2144
908894 10.7216 11.621 25.062 25.8166 0.564736 5.84586 73.2211
908901 10.7216 11.621 25.062 25.8166 0.564736 5.84586 73.2211
908914 10.704 11.621 25.062 25.8653 0.587112 5.85695 73.2523
908923 10.7128 11.6301 25.0915 25.953 0.605977 5.86644 73.3874
908935 10.7128 11.6301 25.0915 25.953 0.605977 5.86644 73.3874
908942 10.704 11.6668 25.0915 25.8556 0.588846 5.84636 73.3179
908955 10.6865 11.6485 25.0324 25.8556 0.609505 5.8492 73.223
908964 10.6865 11.6485 25.0324 25.8556 0.609505 5.8492 73.223
908976 10.7479 11.676 25.0816 25.8361 0.573531 5.82761 73.3417
908984 10.7216 11.6485 25.1309 25.8556 0.562873 5.8515 73.3565
908995 10.7216 11.6485 25.1309 25.8556 0.562873 5.8515 73.3565
909005 10.7743 11.6852 25.1309 25.8069 0.540531 5.82003 73.3972
909015 10.7743 11.6852 25.1309 25.8069 0.540531 5.82003 73.3972
909025 10.7479 11.7127 25.0816 25.7874 0.569534 5.81109 73.3297
909035 10.7655 11.6577 25.1112 25.8556 0.557494 5.83396 73.3899
909057 10.7743 11.6485 25.1112 25.7289 0.509116 5.81823 73.2629
909066 10.7831 11.6577 25.0718 25.7484 0.529349 5.81063 73.261
909076 10.7831 11.6577 25.0718 25.7484 0.529349 5.81063 73.261
909086 10.8182 11.676 25.0816 25.6705 0.493774 5.78689 73.2463
909106 10.7743 11.6026 25.0915 25.6705 0.481042 5.82148 73.1388
909118 10.7216 11.6118 25.2195 25.7289 0.477496 5.8572 73.2818
909136 10.7655 11.5934 25.0915 25.7192 0.497344 5.83271 73.1696
909146 10.704 11.6026 25.2293 25.6997 0.467321 5.86239 73.2356
909156 10.704 11.6026 25.2293 25.6997 0.467321 5.86239 73.2356
909166 10.7392 11.6026 25.2785 25.7777 0.464106 5.86824 73.3979
909187 10.6865 11.5016 25.3277 25.8653 0.460866 5.92897 73.3811
909197 10.704 11.4924 25.3966 25.8361 0.418046 5.93148 73.4292
909207 10.704 11.4924 25.3966 25.8361 0.418046 5.93148 73.4292
909219 10.6689 11.4924 25.3573 25.914 0.46992 5.94626 73.4327
909227 10.6513 11.4465 25.5049 25.8751 0.396496 5.97774 73.4779
909237 10.6513 11.4465 25.5049 25.8751 0.396496 5.97774 73.4779
909247 10.625 11.4465 25.4459 25.953 0.452116 5.98758 73.4704
909257 10.625 11.4465 25.4951 25.953 0.435078 5.99361 73.5196
909267 10.6162 11.4557 25.4951 25.9238 0.431418 5.98992 73.4908
909287 10.5372 11.419 25.5345 25.953 0.442645 6.03141 73.4437
909290 10.5372 11.419 25.5345 25.953 0.442645 6.03141 73.4437
909299 10.5723 11.4006 25.564 25.8848 0.391287 6.02189 73.4218
909311 10.5196 11.4282 25.6329 25.8458 0.381848 6.03275 73.4265
909319 10.5196 11.4282 25.6329 25.8458 0.381848 6.03275 73.4265
909332 10.4845 11.4374 25.6034 25.8751 0.417089 6.04014 73.4003
909340 10.4582 11.3639 25.6132 25.914 0.411251 6.07473 73.3493
909352 10.4582 11.3639 25.6132 25.914 0.411251 6.07473 73.3493
909360 10.4494 11.3731 25.6723 25.8751 0.383857 6.07706 73.3698
909372 10.4494 11.3731 25.6723 25.8751 0.383857 6.07706 73.3698
909380 10.3264 11.3089 25.7018 25.9725 0.427336 6.14633 73.3096
909391 10.4143 11.3272 25.7215 25.9627 0.392988 6.11695 73.4257
909400 10.4143 11.3272 25.7215 25.9627 0.392988 6.11695 73.4257
909410 10.3616 11.2905 25.7018 26.0309 0.42859 6.14855 73.3848
909420 10.344 11.2905 25.7707 26.0407 0.414073 6.16308 73.4459
909431 10.344 11.2905 25.7707 26.0407 0.414073 6.16308 73.4459
909440 10.3177 11.3272 25.7904 26.0699 0.438431 6.16598 73.5052
909460 10.2211 11.2538 25.8199 26.0504 0.430575 6.21626 73.3452
909470 10.2474 11.2446 25.8199 26.0991 0.434679 6.21712 73.4111
909492 10.3001 11.2079 25.8593 26.1479 0.406832 6.22304 73.5151
909501 10.2474 11.2171 25.8593 26.0991 0.411826 6.22979 73.4229
909511 10.2474 11.2171 25.8593 26.0991 0.411826 6.22979 73.4229
909521 10.1596 11.1253 26.0069 26.1381 0.373426 6.30401 73.4299
909532 10.1596 11.1253 26.0069 26.1381 0.373426 6.30401 73.4299
909541 10.1508 11.0977 25.9676 26.2063 0.403702 6.31796 73.4224
909551 10.1508 11.1161 25.9971 26.2063 0.39964 6.31612 73.4703
909563 10.1508 11.1161 25.9971 26.2063 0.39964 6.31612 73.4703
909572 10.142 11.0427 25.9971 26.2842 0.404182 6.34919 73.466
909582 10.0718 11.0518 26.0463 26.3524 0.437334 6.38073 73.5224
909602 10.1333 11.0427 26.0365 26.3622 0.41967 6.36553 73.5746
909623 10.1069 11.0243 26.0069 26.3719 0.436112 6.3762 73.5101
909633 10.1069 11.0243 26.0857 26.4109 0.421908 6.38998 73.6278
909644 10.1069 11.0243 26.0857 26.4109 0.421908 6.38998 73.6278
909655 10.0191 11.0059 25.9873 26.3719 0.467229 6.40481 73.3842
909662 10.1069 10.9417 25.9479 26.4011 0.438711 6.39675 73.3976
909674 10.1069 10.9417 25.9479 26.4011 0.438711 6.39675 73.3976
909687 10.0455 10.96 26.0069 26.4206 0.452206 6.41852 73.4331
909695 10.0455 10.96 26.0069 26.4206 0.452206 6.41852 73.4331
909703 10.0279 10.9141 25.9676 26.3719 0.440288 6.42675 73.2815
909714 10.0279 10.8958 26.0463 26.4109 0.419888 6.44586 73.3809
909734 10.0279 10.96 25.9971 26.4109 0.458452 6.42135 73.3959
909747 10.0191 10.905 26.0463 26.5473 0.471592 6.46161 73.5177
909766 9.99277 10.8958 26.066 26.4791 0.448054 6.46635 73.4337
909775 9.94886 10.8683 26.1349 26.5473 0.45298 6.50314 73.4993
909786 9.94886 10.8683 26.1349 26.5473 0.45298 6.50314 73.4993
909796 9.95764 10.8683 26.2038 26.5278 0.419596 6.50628 73.5575
909806 9.95764 10.8683 26.2038 26.5278 0.419596 6.50628 73.5575
909816 9.9313 10.8132 26.1251 26.5083 0.431028 6.51877 73.3779
909826 9.83471 10.7581 26.1841 26.635 0.467977 6.58468 73.4119
909836 9.83471 10.7581 26.1841 26.635 0.467977 6.58468 73.4119
909854 9.89618 10.8132 26.2432 26.5765 0.425106 6.55054 73.5291
909858 9.86105 10.7581 26.2924 26.7226 0.450629 6.59936 73.6342
909867 9.86105 10.7581 26.2924 26.7226 0.450629 6.59936 73.6342
909877 9.89618 10.7948 26.3318 26.7032 0.430647 6.58058 73.7259
909887 9.85227 10.7581 26.3318 26.7421 0.446555 6.60864 73.6843
909907 9.80837 10.7122 26.4007 26.7616 0.429118 6.64504 73.6829
909919 9.80837 10.7122 26.4007 26.7616 0.429118 6.64504 73.6829
909930 9.81715 10.6755 26.3613 26.7519 0.424176 6.64768 73.6058
909941 9.7469 10.6755 26.3909 26.7324 0.431743 6.6695 73.5456
909947 9.7469 10.6755 26.3909 26.7324 0.431743 6.6695 73.5456
909957 9.71178 10.6479 26.4302 26.8493 0.460088 6.70562 73.6392
909967 9.71178 10.6479 26.4302 26.8493 0.460088 6.70562 73.6392
909978 9.64153 10.5378 26.4499 26.8103 0.427788 6.75676 73.4396
909987 9.65031 10.6204 26.5779 26.898 0.437382 6.7539 73.7466
909997 9.65031 10.6204 26.5779 26.898 0.437382 6.7539 73.7466
910007 9.5625 10.5286 26.6369 26.859 0.403669 6.80925 73.5871
910018 9.5625 10.5103 26.5976 26.8883 0.420907 6.81356 73.5586
910027 9.5625 10.5103 26.5976 26.8883 0.420907 6.81356 73.5586
910038 9.50103 10.4827 26.7255 27.0149 0.431016 6.86817 73.7242
910047 9.50103 10.4827 26.7255 27.0149 0.431016 6.86817 73.7242
910060 9.46591 10.3909 26.7157 26.9467 0.393105 6.89729 73.5192
910067 9.422 10.4276 26.7748 26.9954 0.416431 6.91129 73.6198
910080 9.422 10.4276 26.7748 26.9954 0.416431 6.91129 73.6198
910088 9.36932 10.4093 26.8141 27.0441 0.431159 6.9421 73.6369
910100 9.34298 10.2716 26.9027 27.0344 0.360385 6.99967 73.5517
910120 9.27273 10.29 26.9815 27.1318 0.39618 7.0343 73.676
910128 9.27273 10.29 26.9815 27.1318 0.39618 7.0343 73.676
910140 9.22882 10.2441 26.9716 27.1123 0.392869 7.05802 73.5568
910148 9.26395 10.1982 27.0504 27.1805 0.361073 7.07708 73.693
