7784055 15.4938 17.8364 22.1679 19.4063 -0.139849 1.65092 74.9044
7784066 15.4938 17.8364 22.1679 19.4063 -0.139849 1.65092 74.9044
7784076 15.5202 17.8461 22.1975 19.3673 -0.168225 1.6412 74.9311
7784086 15.5466 17.8169 22.0793 19.3284 -0.160711 1.61375 74.7713
7784096 15.5466 17.8169 22.0793 19.3284 -0.160711 1.61375 74.7713
7784108 15.5114 17.8753 22.1285 19.3186 -0.149009 1.61568 74.8339
7784116 15.5114 17.8753 22.1285 19.3186 -0.149009 1.61568 74.8339
7784126 15.529 17.8558 22.0793 19.4063 -0.115602 1.62296 74.8705
7784136 15.4674 17.9725 22.099 19.4258 -0.0560388 1.61774 74.9647
7784147 15.4674 17.9725 22.099 19.4258 -0.0560388 1.61774 74.9647
7784156 15.4585 17.9434 22.0892 19.2894 -0.105296 1.60001 74.7805
7784168 15.4762 17.9142 22.0892 19.2991 -0.117685 1.60433 74.7787
7784188 15.485 17.9336 22.0006 19.3089 -0.0813067 1.58391 74.7281
7784198 15.485 17.885 21.9415 19.2797 -0.0877529 1.57884 74.5912
7784209 15.485 17.885 21.9415 19.2797 -0.0877529 1.57884 74.5912
7784217 15.5378 17.9531 21.9514 19.3089 -0.0759915 1.55904 74.7512
7784239 15.529 17.9823 21.9514 19.2407 -0.0861466 1.54225 74.7033
7784251 15.5642 17.9531 21.9809 19.2309 -0.120802 1.54448 74.7292
7784262 15.5642 17.9531 21.9809 19.2309 -0.120802 1.54448 74.7292
7784272 15.6083 18.0698 21.8332 19.2699 -0.0340402 1.48936 74.7812
7784284 15.6435 18.0892 21.8923 19.2894 -0.0524536 1.49149 74.9145
7784289 15.6435 18.0892 21.8923 19.2894 -0.0524536 1.49149 74.9145
7784299 15.7052 18.1768 21.8135 19.192 -0.0500679 1.42685 74.8875
7784309 15.7052 18.1768 21.8135 19.192 -0.0500679 1.42685 74.8875
7784319 15.6876 18.1379 21.8135 19.1725 -0.0637442 1.43573 74.8115
7784330 15.6964 18.2059 21.7742 19.1043 -0.0535876 1.39932 74.7808
7784340 15.6964 18.2059 21.7742 19.1043 -0.0535876 1.39932 74.7808
7784350 15.7845 18.2351 21.725 19.0556 -0.0730932 1.35581 74.8001
7784360 15.7404 18.2643 21.6364 19.0264 -0.0288323 1.33753 74.6674
7784372 15.7404 18.2643 21.6364 19.0264 -0.0288323 1.33753 74.6674
7784380 15.7404 18.2351 21.6954 19.0556 -0.0485525 1.36005 74.7266
7784391 15.7404 18.2351 21.6954 19.0556 -0.0485525 1.36005 74.7266
7784400 15.7052 18.099 21.7742 19.0653 -0.105523 1.41379 74.6437
7784410 15.6964 18.1379 21.9514 19.1433 -0.122313 1.45346 74.9289
7784423 15.6964 18.1379 21.9514 19.1433 -0.122313 1.45346 74.9289
7784433 15.6964 18.1087 21.9021 19.2115 -0.0928849 1.46329 74.9187
7784441 15.6964 18.1087 22.0498 19.2115 -0.141878 1.48992 75.0663
7784450 15.5995 17.9725 22.0498 19.2602 -0.139074 1.55003 74.882
7784460 15.5554 17.9628 22.0892 19.2991 -0.127712 1.57597 74.9066
7784471 15.5554 17.9628 22.0892 19.2991 -0.127712 1.57597 74.9066
7784480 15.5114 17.8753 22.1581 19.3284 -0.15554 1.6227 74.8731
7784491 15.4145 17.778 22.2467 19.3868 -0.165826 1.69212 74.826
7784500 15.4145 17.778 22.2467 19.3868 -0.165826 1.69212 74.826
7784510 15.4145 17.71 22.286 19.5135 -0.159207 1.73677 74.924
7784520 15.4145 17.71 22.286 19.5135 -0.159207 1.73677 74.924
7784531 15.3 17.6516 22.3451 19.6109 -0.127698 1.8031 74.9076
7784540 15.2031 17.5738 22.4632 19.7083 -0.128165 1.88022 74.9484
7784551 15.2031 17.5738 22.4632 19.7083 -0.128165 1.88022 74.9484
7784560 15.1855 17.5154 22.5124 19.7765 -0.135349 1.91786 74.9899
7784572 15.115 17.496 22.6109 19.8447 -0.128292 1.96717 75.0666
7784581 15.115 17.496 22.6109 19.8447 -0.128292 1.96717 75.0666
7784591 15.0622 17.4863 22.5912 19.9713 -0.0651553 1.99986 75.111
7784601 14.9212 17.4863 22.6699 19.9519 -0.0510007 2.04206 75.0293
7784612 14.9212 17.3015 22.6699 19.9519 -0.112849 2.08414 74.8445
7784624 14.8772 17.2918 22.7389 20.059 -0.0884637 2.12672 74.9668
7784632 14.8772 17.2918 22.7389 20.059 -0.0884637 2.12672 74.9668
7784642 14.8508 17.2431 22.7389 20.1077 -0.0796512 2.15224 74.9405
7784653 14.7187 17.0875 22.7979 20.2052 -0.0748158 2.24509 74.8092
7784662 14.7187 17.0875 22.7979 20.2052 -0.0748158 2.24509 74.8092
7784673 14.701 17.0875 22.8471 20.3513 -0.0364542 2.28237 74.987
7784683 14.6041 17.0875 22.9554 20.4195 -0.0175014 2.33457 75.0666
7784693 14.6041 16.9724 22.9554 20.4195 -0.055939 2.36121 74.9514
7784702 14.5601 16.9355 23.0735 20.5754 -0.0408351 2.42598 75.1445
7784713 14.5601 16.9355 23.0735 20.5754 -0.0408351 2.42598 75.1445
7784725 14.5513 16.8895 23.0637 20.5656 -0.0532448 2.43543 75.0701
7784733 14.5425 16.8803 23.1228 20.6533 -0.0437737 2.46413 75.1988
7784744 14.5425 16.8803 23.1228 20.6533 -0.0437737 2.46413 75.1988
7784754 14.5073 16.8619 23.1031 20.6338 -0.0381649 2.47006 75.106
7784764 14.4368 16.825 23.044 20.6046 -0.0170797 2.48032 74.9104
7784785 14.4984 16.8158 23.044 20.6533 -0.0244409 2.47623 75.0116
7784795 14.4984 16.8158 23.044 20.6533 -0.0244409 2.47623 75.0116
7784805 14.4632 16.8619 22.9554 20.6241 0.022465 2.454 74.9046
7784815 14.4016 16.7882 23.0539 20.6338 -0.011152 2.50367 74.8774
7784828 14.4016 16.7882 23.0539 20.6338 -0.011152 2.50367 74.8774
7784835 14.4544 16.8527 22.9849 20.5364 -0.0168055 2.44846 74.8284
7784845 14.3663 16.8066 22.9259 20.5559 0.0235319 2.47315 74.6547
7784856 14.3663 16.8066 22.9259 20.5559 0.0235319 2.47315 74.6547
7784865 14.428 16.779 23.0046 20.6241 -0.00987351 2.4898 74.8357
7784876 14.428 16.779 23.0046 20.6241 -0.00987351 2.4898 74.8357
7784885 14.3399 16.6869 23.0145 20.7215 0.0180572 2.5499 74.7628
7784895 14.3575 16.7514 23.0539 20.8189 0.0529826 2.5534 74.9816
7784912 14.3575 16.7514 23.0539 20.8189 0.0529826 2.5534 74.9816
7784917 14.3487 16.779 23.0932 20.8092 0.0487208 2.55392 75.0301
7784926 14.4016 16.7606 23.044 20.9358 0.0834495 2.5587 75.1419
7784940 14.4016 16.7606 23.044 20.9358 0.0834495 2.5587 75.1419
7784946 14.3839 16.8434 23.0932 20.9456 0.103578 2.55322 75.2662
7784956 14.3839 16.8434 23.0932 20.9456 0.103578 2.55322 75.2662
7784966 14.3311 16.779 23.0735 20.8481 0.0741333 2.56124 75.0317
7784982 14.3663 16.8711 22.9259 20.8481 0.142312 2.50694 75.0114
7784986 14.3663 16.8711 22.9259 20.8481 0.142312 2.50694 75.0114
7784996 14.428 16.8619 22.8964 20.6825 0.0734836 2.46212 74.8687
7785006 14.3751 16.8987 22.9062 20.741 0.119573 2.47728 74.921
7785017 14.3751 16.8987 22.9062 20.741 0.119573 2.47728 74.921
7785026 14.4016 16.9632 22.916 20.7117 0.11912 2.45286 74.9925
7785038 14.4016 16.9632 22.916 20.7117 0.11912 2.45286 74.9925
7785048 14.3927 16.9908 22.9554 20.7605 0.134185 2.4632 75.0994
7785058 14.4104 17.0875 22.9259 20.7897 0.179812 2.4366 75.2135
7785069 14.4104 17.0875 22.9259 20.7897 0.179812 2.4366 75.2135
7785077 14.4104 17.0195 22.8964 20.7897 0.167218 2.44747 75.1158
7785088 14.3839 16.9816 22.8176 20.8092 0.196424 2.4525 74.9923
7785098 14.3839 16.9816 22.8176 20.8092 0.196424 2.4525 74.9923
7785120 14.3135 16.9447 22.8668 20.7799 0.181696 2.48085 74.905
7785130 14.3135 16.9447 22.8668 20.7799 0.181696 2.48085 74.905
7785140 14.3311 16.9447 22.8274 20.7605 0.182554 2.4669 74.8637
7785153 14.3311 16.9447 22.8274 20.7605 0.182554 2.4669 74.8637
7785159 14.3663 16.9447 22.8078 20.7994 0.190234 2.46191 74.9183
7785169 14.3575 16.9908 22.7684 20.8189 0.228128 2.4499 74.9356
7785179 14.3575 16.9908 22.7684 20.8189 0.228128 2.4499 74.9356
7785189 14.3751 17.0584 22.6896 20.7605 0.251737 2.40706 74.8836
7785199 14.3751 17.0584 22.6896 20.7605 0.251737 2.40706 74.8836
7785209 14.3839 17.0195 22.8176 20.7897 0.202501 2.44043 75.0107
7785219 14.4016 17.0097 22.8865 20.8579 0.192782 2.46151 75.1557
7785229 14.4016 17.0097 22.8865 20.8579 0.192782 2.46151 75.1557
7785240 14.3751 16.954 22.916 20.9261 0.195837 2.4969 75.1712
7785250 14.3487 16.8895 22.9554 20.8481 0.144419 2.51167 75.0417
7785260 14.3487 16.8895 22.9554 20.8481 0.144419 2.51167 75.0417
7785270 14.3047 16.8527 23.0342 20.8871 0.133505 2.55012 75.0786
7785280 14.2782 16.8527 23.0834 20.9066 0.132328 2.56768 75.1209
7785290 14.2782 16.8342 23.0834 20.9066 0.126228 2.57199 75.1024
7785300 14.2342 16.7882 23.0539 20.9553 0.15175 2.59626 75.0315
7785310 14.2342 16.7882 23.0539 20.9553 0.15175 2.59626 75.0315
7785321 14.2342 16.7514 23.1326 20.9066 0.0970185 2.60987 75.0247
7785330 14.1109 16.5948 23.2704 21.0527 0.0887096 2.72245 75.0288
7785343 14.1109 16.5948 23.2704 21.0527 0.0887096 2.72245 75.0288
7785351 14.0845 16.604 23.3885 21.1014 0.0773013 2.75375 75.1784
7785364 14.0845 16.604 23.4082 21.1014 0.0707328 2.75696 75.1981
7785371 14.0756 16.4843 23.4082 21.1891 0.0630438 2.8016 75.1573
7785386 14.0668 16.4382 23.4574 21.306 0.0730664 2.8415 75.2685
7785391 14.0668 16.4382 23.4574 21.306 0.0730664 2.8415 75.2685
7785401 14.0052 16.3369 23.4673 21.345 0.0696778 2.88808 75.1544
7785411 13.9435 16.3369 23.5263 21.3645 0.0770062 2.91541 75.1713
7785421 13.9435 16.3369 23.5263 21.3645 0.0770062 2.91541 75.1713
7785431 13.9171 16.3277 23.5263 21.3158 0.0666052 2.91607 75.0869
7785441 13.9171 16.3277 23.5263 21.3158 0.0666052 2.91607 75.0869
7785452 13.8466 16.1712 23.5756 21.4034 0.05081 2.99237 74.9968
7785461 13.8378 16.0975 23.6346 21.5009 0.0419319 3.03716 75.0708
7785471 13.8378 16.0975 23.6346 21.5009 0.0419319 3.03716 75.0708
7785481 13.785 16.0238 23.7134 21.5203 0.0152707 3.08323 75.0425
7785492 13.7938 15.9686 23.8118 21.5885 -0.0161245 3.12083 75.1627
7785501 13.7938 15.9686 23.8118 21.5885 -0.0161245 3.12083 75.1627
7785512 13.7497 15.9686 23.8315 21.5983 -0.00478178 3.1361 75.1481
7785521 13.7497 15.9686 23.8315 21.5983 -0.00478178 3.1361 75.1481
7785536 13.7674 15.8765 23.9398 21.6567 -0.0577822 3.18034 75.2404
7785545 13.7585 15.9225 23.9595 21.6275 -0.0557899 3.16985 75.2681
7785555 13.7585 15.9225 23.9595 21.6275 -0.0557899 3.16985 75.2681
7785561 13.7145 15.8765 23.9004 21.608 -0.0434101 3.17927 75.0994
7785571 13.6705 15.7199 23.9693 21.647 -0.0909388 3.24489 75.0067
7785582 13.6705 15.7199 23.9693 21.647 -0.0909388 3.24489 75.0067
7785593 13.6969 15.7291 24.0677 21.686 -0.116232 3.25773 75.1797
7785613 13.6352 15.6831 24.0874 21.7444 -0.0981897 3.2961 75.1502
7785623 13.6088 15.6831 24.2056 21.7347 -0.131792 3.31939 75.2321
7785633 13.6088 15.6831 24.2056 21.7347 -0.131792 3.31939 75.2321
7785643 13.5912 15.6555 24.2449 21.7542 -0.141701 3.33954 75.2458
7785652 13.556 15.5634 24.2942 21.7834 -0.167345 3.38276 75.1969
7785664 13.556 15.5634 24.2942 21.7834 -0.167345 3.38276 75.1969
7785673 13.5383 15.591 24.3729 21.8126 -0.168502 3.39697 75.3149
7785684 13.5383 15.591 24.3729 21.8126 -0.168502 3.39697 75.3149
7785694 13.4767 15.4989 24.4024 21.8516 -0.175668 3.44513 75.2296
7785704 13.5295 15.4713 24.4123 21.7834 -0.228448 3.42998 75.1965
7785714 13.5295 15.4713 24.4123 21.7834 -0.228448 3.42998 75.1965
7785724 13.415 15.3608 24.4517 21.8126 -0.230974 3.49582 75.0401
7785734 13.415 15.3239 24.432 21.7931 -0.243425 3.4989 74.9641
7785745 13.415 15.3239 24.432 21.7931 -0.243425 3.4989 74.9641
7785754 13.4415 15.3516 24.4812 21.8516 -0.239426 3.50207 75.1258
7785767 13.4415 15.3516 24.4812 21.8516 -0.239426 3.50207 75.1258
7785774 13.3622 15.2779 24.5009 21.8223 -0.25439 3.53836 74.9633
7785784 13.3534 15.3055 24.5501 21.8418 -0.251861 3.5442 75.0508
7785794 13.3534 15.3055 24.5501 21.8418 -0.251861 3.5442 75.0508
7785805 13.3974 15.3332 24.5796 21.8613 -0.260256 3.53399 75.1715
7785815 13.4238 15.3239 24.619 21.9003 -0.271897 3.54169 75.2671
7785825 13.4238 15.3239 24.619 21.9003 -0.271897 3.54169 75.2671
7785835 13.4503 15.3884 24.5796 21.9295 -0.236222 3.51778 75.3478
7785845 13.4503 15.3884 24.5796 21.9295 -0.236222 3.51778 75.3478
7785855 13.415 15.3792 24.4615 21.8223 -0.224757 3.49429 75.0781
7785866 13.5207 15.4897 24.3237 21.7639 -0.196676 3.41097 75.098
7785876 13.5207 15.4897 24.3237 21.7639 -0.196676 3.41097 75.098
7785885 13.6088 15.5726 24.2449 21.6567 -0.20791 3.34035 75.0831
7785897 13.6529 15.6739 24.1465 21.5398 -0.195174 3.27135 75.0131
7785905 13.6529 15.6739 24.1465 21.5398 -0.195174 3.27135 75.0131
7785918 13.7762 15.7476 24.0185 21.4814 -0.188529 3.19423 75.0236
7785925 13.7762 15.7476 24.0185 21.4814 -0.188529 3.19423 75.0236
7785938 13.7938 15.8397 24.0481 21.4229 -0.192821 3.16311 75.1044
7785945 13.8202 15.8949 23.9496 21.4229 -0.150491 3.12783 75.0877
7785955 13.8202 15.8949 23.9496 21.4229 -0.150491 3.12783 75.0877
7785965 13.8907 16.0423 23.8413 21.2963 -0.131036 3.03808 75.0705
7785976 13.9347 16.0515 23.7921 21.3158 -0.119723 3.02055 75.0941
7785996 13.9523 16.162 23.7626 21.1307 -0.14075 2.95549 75.0076
7786006 13.9523 16.162 23.7626 21.1307 -0.14075 2.95549 75.0076
7786016 13.9435 16.1896 23.7626 21.1209 -0.131837 2.94942 75.0166
7786026 13.9611 16.1712 23.7528 21.1501 -0.130795 2.95273 75.0352
7786036 13.9611 16.1712 23.7528 21.1501 -0.130795 2.95273 75.0352
7786046 13.9435 16.2633 23.7331 21.2281 -0.0616074 2.94428 75.1679
7786056 13.9788 16.2541 23.6346 21.1696 -0.0632018 2.91285 75.0371
7786070 13.9788 16.2541 23.6346 21.1696 -0.0632018 2.91285 75.0371
7786078 13.9699 16.2633 23.6445 21.1696 -0.0604674 2.91434 75.0473
7786089 13.9699 16.2633 23.6445 21.1696 -0.0604674 2.91434 75.0473
7786102 13.9611 16.2817 23.6051 21.2086 -0.0252947 2.91198 75.0565
7786111 14.0052 16.2541 23.6642 21.1404 -0.0915483 2.90659 75.0638
7786128 13.8995 16.2633 23.6051 21.1599 -0.0271663 2.92326 74.9277
7786138 13.9964 16.3646 23.5756 21.1404 -0.0222981 2.86806 75.0769
7786148 13.9964 16.3646 23.5756 21.1404 -0.0222981 2.86806 75.0769
7786158 14.0052 16.383 23.5263 21.1307 -0.00595748 2.85205 75.0452
7786176 14.0052 16.383 23.5263 21.1307 -0.00595748 2.85205 75.0452
7786186 14.0316 16.3646 23.4673 21.0819 -0.0174716 2.83267 74.9454
7786187 14.058 16.5119 23.4378 21.1112 0.042367 2.79137 75.1189
7786212 14.0668 16.429 23.4082 21.1404 0.0314385 2.80888 75.0445
7786219 14.0316 16.3554 23.4673 21.1112 -0.0107899 2.83961 74.9654
7786232 14.0316 16.3554 23.4673 21.1112 -0.0107899 2.83961 74.9654
7786239 14.0933 16.4198 23.4279 21.1014 2.68221e-05 2.80167 75.0424
7786250 14.0492 16.3554 23.5165 21.1599 -0.016807 2.85128 75.081
7786260 14.0492 16.3554 23.5165 21.1599 -0.016807 2.85128 75.081
7786270 14.0845 16.4014 23.4771 21.1989 0.0128686 2.83191 75.1618
7786281 14.0845 16.4014 23.4771 21.1989 0.0128686 2.83191 75.1618
7786290 14.1109 16.3554 23.4279 21.1696 -0.00459403 2.82386 75.0638
7786300 14.1461 16.4106 23.4181 21.0332 -0.0401065 2.77861 75.008
7786310 14.1461 16.4106 23.4181 21.0332 -0.0401065 2.77861 75.008
7786320 14.199 16.3738 23.3196 21.004 -0.0469983 2.75398 74.8964
7786330 14.1902 16.3738 23.3984 21.004 -0.0702783 2.76893 74.9663
7786340 14.1902 16.3738 23.3984 21.004 -0.0702783 2.76893 74.9663
7786350 14.1902 16.3646 23.4082 21.004 -0.0766322 2.77272 74.967
7786370 14.2342 16.3462 23.3688 21.004 -0.084345 2.76022 74.9532
7786382 14.3047 16.4751 23.2606 20.9845 -0.0351951 2.69218 75.0248
7786391 14.3047 16.4751 23.2606 20.9845 -0.0351951 2.69218 75.0248
7786401 14.4368 16.4659 23.2606 20.8968 -0.111455 2.64883 75.0601
7786411 14.3663 16.5395 23.2409 20.8189 -0.0829518 2.63199 74.9657
7786422 14.3663 16.5395 23.2409 20.8189 -0.0829518 2.63199 74.9657
7786431 14.4368 16.5672 23.231 20.7702 -0.110143 2.59928 75.0052
7786442 14.4368 16.5672 23.231 20.7702 -0.110143 2.59928 75.0052
7786451 14.4104 16.5764 23.1818 20.7897 -0.0754148 2.5984 74.9583
7786462 14.472 16.6501 23.0932 20.7507 -0.0548497 2.54553 74.966
7786471 14.472 16.6501 23.0932 20.7507 -0.0548497 2.54553 74.966
7786481 14.5777 16.6685 23.1129 20.702 -0.106633 2.5117 75.0611
7786493 14.5777 16.6685 23.0342 20.5461 -0.132735 2.47254 74.8265
7786502 14.5777 16.7329 23.0342 20.5461 -0.1111 2.4575 74.891
7786511 14.613 16.7514 23.044 20.5851 -0.106844 2.45317 74.9934
7786521 14.613 16.7514 23.044 20.5851 -0.106844 2.45317 74.9934
7786531 14.6394 16.8803 22.9653 20.6143 -0.0366285 2.4088 75.0992
7786542 14.7098 16.825 22.9062 20.4585 -0.111003 2.36913 74.8995
7786551 14.7098 16.825 22.9062 20.4585 -0.111003 2.36913 74.8995
7786562 14.8067 16.9355 22.9456 20.3318 -0.161615 2.30642 75.0197
7786571 14.8067 16.9355 22.9456 20.3318 -0.161615 2.30642 75.0197
7786583 14.7715 16.9816 22.8471 20.3026 -0.111638 2.28228 74.9028
7786591 14.8067 17.1167 22.7684 20.1467 -0.104126 2.20307 74.8385
7786604 14.8067 17.1167 22.7684 20.1467 -0.104126 2.20307 74.8385
7786613 14.9124 17.1556 22.7881 20.0201 -0.175236 2.15157 74.8762
7786626 14.9653 17.1556 22.5912 19.9129 -0.163479 2.08708 74.625
7786633 14.9653 17.1556 22.5912 19.9129 -0.163479 2.08708 74.625
7786643 15.0358 17.214 22.5321 19.8544 -0.167307 2.03725 74.6363
7786653 15.0358 17.214 22.5321 19.8544 -0.167307 2.03725 74.6363
7786663 15.0269 17.2723 22.4731 19.7375 -0.164463 1.99531 74.5099
7786672 15.1591 17.4376 22.5124 19.8155 -0.139607 1.9482 74.9246
7786683 15.1591 17.4376 22.5124 19.8155 -0.139607 1.9482 74.9246
7786693 15.115 17.4474 22.4239 19.8155 -0.092259 1.94052 74.8017
7786702 15.1679 17.5154 22.4534 19.7862 -0.106634 1.91323 74.923
7786726 15.1679 17.5154 22.4534 19.7862 -0.106634 1.91323 74.923
7786727 15.1855 17.5252 22.4731 19.796 -0.112501 1.9122 74.9797
7786733 15.1855 17.5252 22.4731 19.796 -0.112501 1.9122 74.9797
7786742 15.2031 17.5057 22.4829 19.7668 -0.137924 1.90922 74.9585
7786753 15.2472 17.5446 22.4239 19.7083 -0.1395 1.86998 74.9239
7786763 15.2472 17.5446 22.4239 19.7083 -0.1395 1.86998 74.9239
7786773 15.256 17.6516 22.3943 19.6791 -0.106561 1.83363 74.981
7786783 15.344 17.6419 22.2762 19.6791 -0.0998378 1.79528 74.9412
7786793 15.344 17.6419 22.2762 19.6791 -0.0998378 1.79528 74.9412
7786802 15.3705 17.7002 22.227 19.5427 -0.118427 1.74351 74.8404
7786812 15.3705 17.7002 22.227 19.5427 -0.118427 1.74351 74.8404
7786824 15.2736 17.7002 22.1679 19.5622 -0.059934 1.7582 74.7039
7786833 15.3352 17.6905 22.1975 19.5037 -0.113231 1.74143 74.7269
7786842 15.3352 17.6905 22.1975 19.5037 -0.113231 1.74143 74.7269
7786854 15.3 17.6711 22.1975 19.5914 -0.0785828 1.76922 74.7599
7786864 15.2648 17.7002 22.2171 19.6499 -0.0440389 1.7844 74.832
7786884 15.3 17.7391 22.2368 19.7083 -0.0298023 1.78158 74.9843
7786895 15.3 17.7391 22.2368 19.7083 -0.0298023 1.78158 74.9843
7786904 15.2912 17.6711 22.2171 19.6401 -0.0658825 1.78329 74.8195
7786915 15.2648 17.7489 22.2467 19.6206 -0.0473931 1.77355 74.8809
7786924 15.2648 17.7489 22.2467 19.6206 -0.0473931 1.77355 74.8809
7786935 15.2824 17.7683 22.2073 19.6206 -0.0336334 1.75829 74.8786
7786944 15.2736 17.7586 22.2171 19.6304 -0.0339746 1.7659 74.8797
7786956 15.2736 17.7586 22.2171 19.6304 -0.0339746 1.7659 74.8797
7786964 15.2119 17.7294 22.2073 19.6693 -0.00683963 1.79141 74.818
7786984 15.1591 17.71 22.2073 19.7668 0.0368595 1.82483 74.8431
7786994 15.1679 17.6711 22.2073 19.8057 0.0339359 1.83845 74.852
7787005 15.1679 17.6711 22.2073 19.8057 0.0339359 1.83845 74.852
7787018 15.1679 17.6905 22.1876 19.7473 0.0275075 1.82032 74.7933
7787025 15.2295 17.7197 22.0892 19.7668 0.0560582 1.78598 74.8051
7787045 15.2207 17.778 22.0596 19.7278 0.0753701 1.76276 74.7862
7787055 15.2207 17.778 22.0596 19.7278 0.0753701 1.76276 74.7862
7787067 15.2824 17.7975 22.0104 19.6986 0.0679404 1.7307 74.7888
7787075 15.2912 17.885 21.9514 19.7473 0.130132 1.70734 74.8748
7787085 15.2912 17.885 21.9514 19.7473 0.130132 1.70734 74.8748
7787095 15.3617 17.9628 21.9514 19.6401 0.0967443 1.65526 74.9159
7787105 15.3617 18.0212 22.0301 19.5524 0.0606388 1.6407 74.9654
7787115 15.3617 18.0212 22.0301 19.5524 0.0606388 1.6407 74.9654
7787133 15.4233 18.0795 21.9021 19.4745 0.0763088 1.5773 74.8795
7787146 15.4321 18.099 21.9021 19.455 0.0733525 1.56755 74.8882
7787157 15.5114 18.1476 21.8135 19.3381 0.0537217 1.50232 74.8107
7787166 15.5114 18.1476 21.8135 19.3381 0.0537217 1.50232 74.8107
7787177 15.485 18.1865 21.6856 19.2602 0.0925094 1.46232 74.6172
7787186 15.5114 18.2254 21.7151 19.3576 0.119129 1.47092 74.8095
7787208 15.5819 18.1865 21.7446 19.3186 0.0596702 1.46226 74.8316
7787220 15.5819 18.1865 21.7446 19.3186 0.0596702 1.46226 74.8316
7787226 15.6083 18.2254 21.7545 19.2797 0.0475109 1.44263 74.8678
7787238 15.5819 18.274 21.7742 19.3186 0.0789255 1.44837 74.9487
7787246 15.5819 18.274 21.7742 19.3186 0.0789255 1.44837 74.9487
7787256 15.6347 18.2838 21.725 19.2407 0.0550091 1.41162 74.8841
7787268 15.5731 18.274 21.6856 19.2017 0.0726283 1.41305 74.7344
7787278 15.5731 18.274 21.6856 19.2017 0.0726283 1.41305 74.7344
7787288 15.6259 18.3032 21.7545 19.3186 0.0804722 1.42876 75.0022
7787308 15.6083 18.2254 21.6561 19.3089 0.0902236 1.43009 74.7986
7787318 15.5995 18.2351 21.725 19.2894 0.0668287 1.43885 74.849
7787338 15.5378 18.1962 21.7643 19.3868 0.093773 1.4857 74.8852
7787349 15.4585 18.0503 21.7643 19.5232 0.11721 1.55996 74.7964
7787358 15.4585 18.0503 21.7643 19.5232 0.11721 1.55996 74.7964
7787371 15.3793 17.9725 21.9218 19.5817 0.0845283 1.63349 74.8553
7787388 15.3088 17.7878 21.971 19.757 0.0885159 1.73035 74.8246
7787398 15.3176 17.7197 22.1384 19.8447 0.0361115 1.78867 75.0204
7787408 15.3176 17.7197 22.1384 19.8447 0.0361115 1.78867 75.0204
7787418 15.2295 17.71 22.1187 19.8544 0.0721365 1.80884 74.9126
7787428 15.2912 17.71 22.0793 19.8252 0.0549525 1.78292 74.9057
7787445 15.2912 17.71 22.0793 19.8252 0.0549525 1.78292 74.9057
7787454 15.2648 17.7878 22.0793 19.8155 0.0864416 1.7697 74.9473
7787471 15.3088 17.7489 22.0104 19.7278 0.052616 1.74085 74.7959
7787478 15.2912 17.7197 22.0203 19.6791 0.0292152 1.74444 74.7102
7787498 15.2472 17.7586 21.9907 19.6401 0.0538647 1.73342 74.6366
7787510 15.2472 17.7586 21.9907 19.6401 0.0538647 1.73342 74.6366
7787519 15.2648 17.71 21.9317 19.6693 0.0612974 1.73507 74.5757
7787534 15.3088 17.7878 21.9317 19.6109 0.0529766 1.69737 74.6391
7787539 15.3088 17.7878 21.9317 19.6109 0.0529766 1.69737 74.6391
7787549 15.3969 17.8267 21.9218 19.6109 0.0397384 1.66725 74.7563
7787559 15.4145 17.992 21.8628 19.5524 0.0892639 1.60556 74.8217
7787569 15.4145 17.992 21.8628 19.5524 0.0892639 1.60556 74.8217
7787582 15.5202 18.1087 21.8431 19.3966 0.0474066 1.52482 74.8685
7787589 15.5202 18.1087 21.8431 19.3966 0.0474066 1.52482 74.8685
7787599 15.5731 18.2157 21.784 19.3576 0.0721306 1.47194 74.9303
7787609 15.6347 18.2838 21.6954 19.2504 0.068137 1.40803 74.8643
7787630 15.6611 18.274 21.6364 19.0946 0.0238001 1.36523 74.6661
7787639 15.7052 18.4588 21.5379 19.0458 0.0874758 1.28829 74.7478
7787652 15.7052 18.4588 21.5379 19.0458 0.0874758 1.28829 74.7478
7787659 15.7933 18.4588 21.4493 18.9971 0.0714034 1.24388 74.6985
7787669 15.7933 18.4588 21.4493 18.9971 0.0714034 1.24388 74.6985
7787679 15.758 18.5658 21.3607 18.9095 0.119472 1.19575 74.594
7787689 15.7845 18.5366 21.4001 18.9289 0.0941008 1.20723 74.6501
7787700 15.7845 18.5366 21.4001 18.9289 0.0941008 1.20723 74.6501
7787709 15.8197 18.595 21.4592 18.9484 0.0883818 1.20144 74.8223
7787719 15.8109 18.6047 21.4395 18.9971 0.117379 1.20659 74.8522
7787729 15.8109 18.6047 21.4395 18.9971 0.117379 1.20659 74.8522
7787743 15.7845 18.6728 21.4887 19.0264 0.142041 1.21202 74.9723
7787759 15.7845 18.663 21.4592 19.0361 0.151953 1.21048 74.9428
7787769 15.8285 18.6436 21.3509 19.0361 0.167081 1.18521 74.8591
7787779 15.8285 18.6436 21.3509 19.0361 0.167081 1.18521 74.8591
7787789 15.8021 18.6047 21.4001 19.0166 0.140035 1.20483 74.8235
7787811 15.7052 18.5463 21.3411 18.9582 0.153679 1.21683 74.5507
7787819 15.6876 18.4977 21.4493 19.0166 0.126398 1.262 74.6512
7787835 15.6876 18.4977 21.4493 19.0166 0.126398 1.262 74.6512
7787840 15.6611 18.4588 21.4789 19.114 0.144836 1.29956 74.7129
7787850 15.5466 18.3421 21.6364 19.2309 0.130445 1.40027 74.756
7787861 15.5466 18.3421 21.6364 19.2309 0.130445 1.40027 74.756
7787870 15.5554 18.2643 21.7545 19.3479 0.100848 1.45804 74.9221
7787880 15.5114 18.1476 21.8431 19.4745 0.0892341 1.5322 74.9766
7787890 15.5114 18.1476 21.8431 19.4745 0.0892341 1.5322 74.9766
7787901 15.4409 18.0892 21.9809 19.5719 0.0796884 1.60275 75.083
7787921 15.3528 18.0114 21.9514 19.6206 0.10938 1.64294 74.9363
7787931 15.3088 17.9725 22.0498 19.6596 0.0911891 1.68582 74.9907
7787941 15.3088 17.9725 22.0498 19.6596 0.0911891 1.68582 74.9907
7787951 15.2824 18.0017 22.0301 19.6499 0.113082 1.67998 74.9641
7787962 15.2472 17.8267 21.9809 19.7083 0.102633 1.72854 74.763
7787973 15.2472 17.8267 21.9809 19.7083 0.102633 1.72854 74.763
7787983 15.1326 17.8558 22.0104 19.7375 0.15063 1.75807 74.7364
7787992 15.1326 17.8558 22.0104 19.7375 0.15063 1.75807 74.7364
7788003 15.1238 17.7586 22.099 19.8447 0.127104 1.81647 74.8261
7788013 15.0886 17.6711 22.2368 19.9324 0.0927538 1.8837 74.9289
7788023 15.0886 17.6711 22.2368 19.9324 0.0927538 1.8837 74.9289
7788032 14.9917 17.6808 22.3156 20.0103 0.127938 1.93072 74.9984
7788043 14.9829 17.5543 22.3845 20.0395 0.0755399 1.97838 74.9613
7788053 14.9829 17.5543 22.3845 20.0395 0.0755399 1.97838 74.9613
7788063 14.9212 17.496 22.6109 20.1759 0.0464737 2.06829 75.2041
7788085 14.7627 17.3793 22.6207 20.2734 0.0896931 2.14938 75.0361
7788092 14.7363 17.2237 22.7389 20.3903 0.0462204 2.23118 75.0891
7788102 14.7363 17.2237 22.7389 20.3903 0.0462204 2.23118 75.0891
7788118 14.6041 17.1945 22.8176 20.4487 0.0737578 2.29155 75.065
7788123 14.5865 17.0195 22.8274 20.4877 0.0310838 2.3443 74.9211
7788143 14.5689 16.9447 22.8668 20.5169 0.00865161 2.37727 74.8974
7788153 14.5689 16.9447 22.8668 20.5169 0.00865161 2.37727 74.8974
7788164 14.472 16.8895 22.9948 20.6338 0.0188321 2.45374 74.9901
7788176 14.4896 16.8803 23.044 20.6143 -0.0130087 2.45676 75.0283
7788184 14.4896 16.8803 23.044 20.6143 -0.0130087 2.45676 75.0283
7788200 14.4192 16.7145 23.1917 20.741 -0.0517368 2.55753 75.0663
7788204 14.3047 16.7053 23.172 20.8871 0.0385553 2.60742 75.0691
7788214 14.3047 16.7053 23.172 20.8871 0.0385553 2.60742 75.0691
7788225 14.3399 16.6316 23.3196 20.8871 -0.0468165 2.64076 75.1783
7788247 14.2606 16.5856 23.3196 20.9845 -0.00337064 2.6862 75.1504
7788255 14.2782 16.5948 23.2803 20.9261 -0.0125244 2.66384 75.0794
7788270 14.2782 16.5948 23.2803 20.9261 -0.0125244 2.66384 75.0794
7788275 14.2959 16.604 23.172 20.8287 -0.0117362 2.62363 74.9005
7788285 14.3047 16.6132 23.2212 20.8481 -0.0215039 2.63074 74.9872
7788305 14.3135 16.6777 23.172 20.8871 0.0264317 2.61184 75.0502
7788315 14.3135 16.6777 23.172 20.8871 0.0264317 2.61184 75.0502
7788325 14.3575 16.7053 23.1031 20.8384 0.0277072 2.57558 75.0043
7788338 14.3839 16.7237 23.1031 20.8481 0.0282615 2.56669 75.0589
7788345 14.3839 16.7237 23.1031 20.8481 0.0282615 2.56669 75.0589
7788361 14.3575 16.779 23.1129 20.7215 0.0100195 2.54057 74.9709
7788365 14.4016 16.7698 23.0145 20.7799 0.0445813 2.52577 74.9657
7788378 14.4016 16.7698 23.0145 20.7799 0.0445813 2.52577 74.9657
7788387 14.3839 16.779 23.0342 20.7117 0.0242412 2.51966 74.9088
7788396 14.3839 16.779 23.0342 20.7117 0.0242412 2.51966 74.9088
7788407 14.3223 16.6777 22.9357 20.741 0.0537813 2.54632 74.6767
7788416 14.3575 16.7698 22.9948 20.741 0.052911 2.52631 74.8631
7788430 14.3575 16.7698 22.9948 20.741 0.052911 2.52631 74.8631
7788437 14.3135 16.779 22.9751 20.7215 0.0708312 2.52794 74.789
7788447 14.3663 16.8342 23.0637 20.7215 0.041911 2.5174 74.9857
7788467 14.3751 16.8987 23.0637 20.8189 0.0927389 2.51651 75.1564
7788478 14.3751 16.8987 23.0637 20.8189 0.0927389 2.51651 75.1564
7788487 14.3663 16.825 23.0539 20.7702 0.058341 2.52602 75.0154
7788500 14.428 16.8987 23.1129 20.8481 0.0683874 2.51722 75.2877
7788506 14.428 16.8987 23.1129 20.8481 0.0683874 2.51722 75.2877
7788516 14.2694 16.7698 23.1424 20.965 0.107434 2.60855 75.1467
7788526 14.243 16.7145 23.1031 21.0527 0.140178 2.63567 75.1133
7788537 14.243 16.7145 23.1031 21.0527 0.140178 2.63567 75.1133
7788546 14.2166 16.5856 23.1917 21.1404 0.105727 2.70114 75.1342
7788569 14.0756 16.5027 23.1326 21.2281 0.174323 2.75871 74.939
7788576 14.0404 16.4659 23.3492 21.2476 0.107804 2.81422 75.103
7788594 14.0404 16.4659 23.3492 21.2476 0.107804 2.81422 75.103
7788598 14.0316 16.3277 23.3885 21.4424 0.116372 2.88699 75.1903
7788608 13.9611 16.3646 23.4181 21.4229 0.135794 2.89662 75.1667
7788628 13.9171 16.3277 23.4771 21.5106 0.147581 2.93947 75.2326
7788641 13.9171 16.3277 23.4771 21.5106 0.147581 2.93947 75.2326
7788648 13.829 16.2449 23.4968 21.5203 0.146276 2.98503 75.091
7788658 13.829 16.1988 23.4673 21.5788 0.160277 3.00069 75.0739
7788672 13.829 16.1988 23.4673 21.5788 0.160277 3.00069 75.0739
7788677 13.8114 16.2172 23.5067 21.5496 0.149411 3.00212 75.0849
7788691 13.7409 16.1896 23.5263 21.5106 0.144371 3.02259 74.9675
7788710 13.7233 16.162 23.5953 21.5983 0.147071 3.05843 75.0788
7788719 13.7233 16.162 23.5953 21.5983 0.147071 3.05843 75.0788
7788734 13.6793 16.1896 23.6051 21.6372 0.18056 3.07014 75.1112
7788743 13.7321 16.2541 23.6543 21.6372 0.167668 3.04978 75.2778
7788752 13.7321 16.2541 23.6543 21.6372 0.167668 3.04978 75.2778
7788759 13.6881 16.1804 23.6642 21.6178 0.148341 3.07652 75.1504
7788769 13.644 16.1343 23.6543 21.6957 0.176927 3.109 75.1284
7788791 13.6969 16.1804 23.6445 21.7444 0.193793 3.09135 75.2662
7788799 13.6969 16.1804 23.6445 21.7444 0.193793 3.09135 75.2662
7788815 13.6088 16.0607 23.6248 21.8808 0.235412 3.15985 75.1751
7788820 13.556 16.0607 23.7331 21.7639 0.178248 3.17126 75.1136
7788830 13.556 16.0607 23.7331 21.7639 0.178248 3.17126 75.1136
7788840 13.5912 15.987 23.7626 21.8711 0.16762 3.20205 75.2118
7788850 13.556 16.0238 23.7429 21.8711 0.198168 3.19857 75.1938
7788861 13.556 16.0238 23.7429 21.8711 0.198168 3.19857 75.1938
7788870 13.4767 16.0423 23.7232 21.8029 0.214943 3.19951 75.045
7788885 13.4767 16.0423 23.7232 21.8029 0.214943 3.19951 75.045
7788890 13.4943 16.0238 23.7331 21.8418 0.212505 3.20737 75.093
7788900 13.5736 16.033 23.7724 21.8613 0.182199 3.19519 75.2404
7788910 13.5736 16.033 23.7724 21.8613 0.182199 3.19519 75.2404
7788920 13.5383 16.033 23.7528 21.949 0.229481 3.21437 75.2731
7788933 13.5383 16.033 23.7921 21.949 0.21629 3.22053 75.3125
7788940 13.5383 15.9962 23.7921 21.9587 0.207371 3.23097 75.2854
7788955 13.5383 15.9962 23.8118 21.9295 0.191152 3.22947 75.2759
7788960 13.5383 15.9962 23.8118 21.9295 0.191152 3.22947 75.2759
7788970 13.4591 15.9686 23.7724 21.9295 0.221816 3.24925 75.1296
7788981 13.415 15.9502 23.7724 21.91 0.224102 3.26138 75.0477
7788990 13.415 15.9502 23.7724 21.91 0.224102 3.26138 75.0477
7789003 13.4503 15.9778 23.7626 21.988 0.250372 3.25675 75.1786
7789011 13.4503 15.9778 23.7626 21.988 0.250372 3.25675 75.1786
7789023 13.4503 15.9041 23.8217 22.0269 0.219119 3.28994 75.203
7789030 13.4503 15.8857 23.8315 22.0172 0.206539 3.29444 75.1846
7789040 13.4503 15.8857 23.8315 22.0172 0.206539 3.29444 75.1846
7789050 13.4062 15.8581 23.861 22.0367 0.208718 3.31951 75.162
7789060 13.3886 15.8581 23.8807 22.0562 0.214446 3.32989 75.1835
7789080 13.3886 15.8304 23.9398 22.0659 0.188756 3.3473 75.2247
7789090 13.3886 15.8304 23.9398 22.0659 0.188756 3.3473 75.2247
7789101 13.3622 15.812 23.9693 22.0172 0.165558 3.35527 75.1607
7789111 13.3798 15.8028 23.9004 22.0269 0.182915 3.34404 75.1099
7789121 13.3798 15.8028 23.9004 22.0269 0.182915 3.34404 75.1099
7789131 13.4062 15.766 23.989 22.0172 0.129011 3.35881 75.1784
7789141 13.3534 15.7844 23.9988 22.0367 0.155929 3.37176 75.1733
7789152 13.3534 15.7844 23.9988 22.0367 0.155929 3.37176 75.1733
7789161 13.4062 15.812 23.9792 21.9782 0.134644 3.34001 75.1756
7789173 13.4062 15.812 23.9792 21.9782 0.134644 3.34001 75.1756
7789181 13.3974 15.8304 23.9595 21.9977 0.156707 3.33763 75.185
7789194 13.4767 15.8489 23.9595 22.0367 0.149158 3.31988 75.3217
7789201 13.4767 15.8489 23.9595 22.0367 0.149158 3.31988 75.3217
7789215 13.4415 15.8949 23.9693 21.9685 0.150323 3.30819 75.2742
7789221 13.5119 15.9041 23.8906 21.9198 0.140047 3.26899 75.2264
7789231 13.5119 15.9041 23.8906 21.9198 0.140047 3.26899 75.2264
7789241 13.4503 15.9225 23.9102 21.988 0.18267 3.29318 75.271
7789251 13.4503 15.9225 23.9102 21.988 0.18267 3.29318 75.271
7789261 13.4679 15.8212 23.8217 21.8808 0.13752 3.28304 74.9916
7789271 13.415 15.9317 23.8413 21.8905 0.188443 3.27359 75.0787
7789281 13.415 15.9317 23.8413 21.8905 0.188443 3.27359 75.0787
7789291 13.5472 15.8857 23.7921 21.7931 0.113153 3.2297 75.0181
7789301 13.5295 15.8489 23.7528 21.7834 0.116786 3.23523 74.9145
7789321 13.5031 15.9502 23.802 21.8711 0.17176 3.2385 75.1263
7789331 13.5031 15.9502 23.802 21.8711 0.17176 3.2385 75.1263
7789342 13.5383 15.8304 23.8512 21.8905 0.110325 3.26977 75.1105
7789351 13.5295 15.8489 23.9102 21.8711 0.0931829 3.27361 75.1597
7789362 13.5295 15.8489 23.9102 21.8711 0.0931829 3.27361 75.1597
7789376 13.5295 15.8397 23.9693 21.9198 0.0865608 3.29264 75.2583
7789385 13.5207 15.8397 23.9398 21.9198 0.099349 3.29019 75.2199
7789394 13.5207 15.766 23.9398 21.9393 0.0813961 3.31115 75.1657
7789403 13.5824 15.8857 23.9595 21.9685 0.10356 3.27468 75.396
7789412 13.5824 15.8857 23.9595 21.9685 0.10356 3.27468 75.396
7789425 13.556 15.766 23.9299 21.949 0.0761569 3.30255 75.2009
7789433 13.5648 15.766 23.9004 21.8808 0.0604451 3.28519 75.112
7789445 13.5648 15.766 23.9004 21.8808 0.0604451 3.28519 75.112
7789453 13.5648 15.766 23.9398 21.91 0.0570178 3.29588 75.1806
7789466 13.4855 15.6923 24.0284 21.9782 0.0520945 3.35751 75.1844
7789472 13.4855 15.6923 24.0284 21.9782 0.0520945 3.35751 75.1844
7789483 13.4943 15.7107 24.1071 22.0269 0.0452071 3.37057 75.3391
7789493 13.4943 15.7107 24.1071 22.0269 0.0452071 3.37057 75.3391
7789503 13.4503 15.6371 24.1662 22.0464 0.0222564 3.41142 75.2999
7789513 13.3974 15.5726 24.0874 22.0367 0.0414222 3.42652 75.0941
7789524 13.3974 15.5726 24.0874 22.0367 0.0414222 3.42652 75.0941
7789534 13.3798 15.6923 24.2252 22.0659 0.05081 3.42721 75.3633
7789544 13.371 15.6923 24.1367 22.0562 0.0800043 3.41425 75.2561
7789554 13.371 15.5634 24.1367 22.0562 0.037238 3.44585 75.1272
7789564 13.3622 15.6186 24.1957 22.0854 0.048539 3.44802 75.2619
7789574 13.3622 15.6186 24.1957 22.0854 0.048539 3.44802 75.2619
7789584 13.3181 15.5542 24.1268 22.0659 0.0583261 3.46108 75.065
7789594 13.3622 15.6278 24.0973 22.0367 0.0682414 3.42313 75.124
7789604 13.3622 15.6278 24.0973 22.0367 0.0682414 3.42313 75.124
7789614 13.3974 15.6278 24.0973 22.0659 0.066188 3.419 75.1884
7789624 13.3974 15.6278 24.0973 22.0659 0.066188 3.419 75.1884
7789634 13.3269 15.6739 24.0481 22.0659 0.121412 3.4174 75.1148
7789644 13.3974 15.7107 24.0185 22.0464 0.113472 3.38355 75.1731
7789654 13.3974 15.7107 24.0185 22.0464 0.113472 3.38355 75.1731
7789664 13.3974 15.7015 23.9693 22.0464 0.126877 3.3782 75.1147
7789674 13.4943 15.7107 23.9595 22.0756 0.11051 3.35527 75.2401
7789684 13.4943 15.7107 23.9595 22.0756 0.11051 3.35527 75.2401
7789694 13.4679 15.7476 23.8709 22.1341 0.180438 3.34807 75.2204
7789704 13.4679 15.7476 23.8709 22.1341 0.180438 3.34807 75.2204
7789716 13.4415 15.6923 23.861 22.0269 0.138882 3.34987 75.0217
7789724 13.556 15.941 23.7823 21.9198 0.1737 3.23245 75.199
7789736 13.556 15.941 23.7823 21.9198 0.1737 3.23245 75.199
7789744 13.644 15.941 23.6937 21.7931 0.131989 3.17732 75.0718
7789757 13.6176 15.9133 23.6543 21.7736 0.138423 3.18115 74.9589
7789764 13.6176 15.9133 23.6543 21.7736 0.138423 3.18115 74.9589
7789774 13.6705 16.0515 23.5756 21.8418 0.215355 3.13327 75.1393
7789794 13.7057 15.9686 23.5854 21.7542 0.14385 3.13248 75.0138
7789804 13.6793 16.0883 23.5953 21.7931 0.201878 3.11768 75.156
7789815 13.6793 16.0883 23.5953 21.7931 0.201878 3.11768 75.156
7789826 13.7233 16.1067 23.5756 21.7249 0.177279 3.08871 75.1305
7789838 13.7497 16.1804 23.5263 21.7347 0.212452 3.05838 75.1911
7789845 13.7497 16.1804 23.5263 21.7347 0.212452 3.05838 75.1911
7789855 13.7762 16.1528 23.546 21.7444 0.191098 3.06334 75.2194
7789865 13.7762 16.1528 23.546 21.7444 0.191098 3.06334 75.2194
7789875 13.7762 16.208 23.4574 21.647 0.206888 3.02048 75.0886
7789885 13.829 16.2449 23.3196 21.6762 0.257239 2.98162 75.0697
7789907 13.8731 16.3093 23.2803 21.4911 0.21584 2.9196 74.9537
7789915 13.9171 16.3738 23.1917 21.4619 0.242484 2.87467 74.9444
7789935 14.014 16.4751 23.1228 21.4327 0.256845 2.8116 75.0445
7789955 14.0404 16.5211 23.0539 21.2768 0.23489 2.75778 74.8922
7789966 14.0845 16.6777 23.0834 21.2378 0.248945 2.7088 75.0833
7789976 14.0845 16.6777 23.0834 21.2378 0.248945 2.7088 75.0833
7789986 14.1285 16.7421 22.9948 21.1014 0.240204 2.64629 74.9669
7789996 14.1197 16.6593 22.9259 21.1696 0.261542 2.66778 74.8745
7790009 14.1197 16.6593 22.9259 21.1696 0.261542 2.66778 74.8745
7790016 14.1461 16.7145 23.044 21.1891 0.237539 2.67116 75.0938
7790032 14.1461 16.7145 23.044 21.1891 0.237539 2.67116 75.0938
7790038 14.1373 16.6593 22.9751 21.1404 0.229356 2.66691 74.9121
7790052 14.1549 16.7329 22.9849 21.1989 0.263724 2.65665 75.0717
7790057 14.1549 16.7329 22.9849 21.1989 0.263724 2.65665 75.0717
7790067 14.2959 16.779 23.0046 21.1794 0.218534 2.61282 75.2588
7790078 14.2166 16.7514 23.0046 21.0722 0.200665 2.62022 75.0448
7790087 14.2166 16.7514 23.0046 21.0722 0.200665 2.62022 75.0448
7790098 14.2694 16.7882 22.9948 21.0625 0.195178 2.59595 75.1149
7790117 14.2518 16.7882 22.9554 21.0917 0.223958 2.5984 75.0871
7790128 14.243 16.7053 23.0243 21.1404 0.192505 2.6393 75.113
7790139 14.243 16.7053 23.0243 21.1404 0.192505 2.6393 75.113
7790148 14.2166 16.6685 23.0342 21.0819 0.166556 2.64617 75.0012
7790160 14.2254 16.5856 22.9653 21.1404 0.178644 2.66189 74.9166
7790169 14.2254 16.5856 22.9653 21.1404 0.178644 2.66189 74.9166
7790181 14.199 16.5488 23.0145 21.1014 0.145844 2.67851 74.8636
7790189 14.199 16.5488 23.0145 21.1014 0.145844 2.67851 74.8636
7790203 14.1197 16.4935 23.044 21.1599 0.16363 2.72479 74.8171
7790209 14.0756 16.4198 23.1031 21.1891 0.143817 2.76718 74.7877
7790219 14.0756 16.4198 23.1031 21.1891 0.143817 2.76718 74.7877
7790229 14.1197 16.4843 23.1228 21.2183 0.153506 2.74944 74.9451
7790239 14.1461 16.383 23.2507 21.2281 0.0714004 2.78965 75.0079
7790249 14.1461 16.383 23.2507 21.2281 0.0714004 2.78965 75.0079
7790261 14.2166 16.3738 23.3098 21.3158 0.0542372 2.79898 75.2159
7790269 14.2166 16.3738 23.3098 21.3158 0.0542372 2.79898 75.2159
7790279 14.1021 16.4475 23.2212 21.2281 0.117427 2.77999 74.9988
7790289 14.1725 16.4106 23.2704 21.3352 0.100717 2.79746 75.1888
7790299 14.1725 16.4106 23.2704 21.3352 0.100717 2.79746 75.1888
7790309 14.1902 16.3922 23.231 21.2865 0.0857323 2.78333 75.0999
7790329 14.199 16.4014 23.231 21.306 0.0923067 2.78224 75.1374
7790339 14.2254 16.3922 23.1523 21.2476 0.0873417 2.75581 75.0174
7790351 14.2254 16.3922 23.1523 21.2476 0.0873417 2.75581 75.0174
7790359 14.2166 16.4567 23.1129 21.1891 0.105461 2.72666 74.9753
7790374 14.3047 16.4843 23.0735 21.1989 0.101563 2.69448 75.0613
7790379 14.3047 16.4843 23.0735 21.1989 0.101563 2.69448 75.0613
7790389 14.3135 16.4935 23.0243 21.1209 0.092268 2.66935 74.9522
7790399 14.3135 16.4935 23.0243 21.1209 0.092268 2.66935 74.9522
7790409 14.3399 16.5303 23.0342 21.1307 0.0955999 2.65768 75.0351
7790419 14.4104 16.5856 22.9948 21.0722 0.0841439 2.61202 75.063
7790429 14.4104 16.5856 22.9948 21.0722 0.0841439 2.61202 75.063
7790439 14.4544 16.7421 22.857 20.8968 0.109273 2.51312 74.9504
7790449 14.4984 16.8158 22.7585 20.8384 0.132564 2.45945 74.9112
7790459 14.4984 16.8158 22.7585 20.8384 0.132564 2.45945 74.9112
7790469 14.6041 16.9171 22.6699 20.6923 0.111938 2.37188 74.8835
7790479 14.6041 16.9171 22.6699 20.6923 0.111938 2.37188 74.8835
7790489 14.5953 17.0973 22.5715 20.5851 0.172183 2.29742 74.8492
7790500 14.6834 17.107 22.5026 20.4682 0.130129 2.24322 74.7612
7790523 14.7627 17.2918 22.414 20.3415 0.152588 2.14566 74.81
7790529 14.8067 17.3307 22.4337 20.2928 0.127921 2.12168 74.8639
7790543 14.8067 17.3307 22.4337 20.2928 0.127921 2.12168 74.8639
7790550 14.8684 17.4863 22.3746 20.3123 0.185084 2.06531 75.0416
7790560 14.8684 17.4863 22.3746 20.3123 0.185084 2.06531 75.0416
7790570 14.8508 17.5738 22.2368 20.1759 0.22119 2.00198 74.8373
7790581 15.0005 17.5933 22.2467 20.1954 0.180405 1.96872 75.0359
7790590 15.0005 17.5933 22.2467 20.1954 0.180405 1.96872 75.0359
7790600 14.9741 17.6711 22.2073 20.1564 0.215346 1.94349 75.0089
7790610 14.9741 17.6808 22.1975 20.0298 0.179961 1.91749 74.8821
7790620 14.9741 17.6808 22.1975 20.0298 0.179961 1.91749 74.8821
7790631 15.0534 17.7002 22.1187 19.9129 0.147438 1.86093 74.7852
7790656 15.0534 17.7197 22.0793 19.8155 0.134748 1.83247 74.6679
7790665 15.1238 17.7878 22.1089 19.7668 0.10758 1.79791 74.7872
7790673 15.1238 17.7878 22.1089 19.7668 0.10758 1.79791 74.7872
7790681 15.1415 17.8072 22.099 19.7862 0.117925 1.79129 74.8339
7790691 15.1415 17.7878 22.0892 19.757 0.105032 1.78875 74.7754
7790701 15.1415 17.7878 22.0892 19.757 0.105032 1.78875 74.7754
7790711 15.1679 17.8364 22.0892 19.8155 0.131762 1.78224 74.9089
7790721 15.1679 17.8364 22.0892 19.8155 0.131762 1.78224 74.9089
7790732 15.1415 17.8072 22.1384 19.7278 0.0852644 1.78792 74.8148
7790741 15.1415 17.8656 22.1581 19.7668 0.111032 1.78519 74.9319
7790752 15.1415 17.8656 22.1581 19.7668 0.111032 1.78519 74.9319
7790761 15.1679 17.8558 22.1187 19.6888 0.0862241 1.76073 74.8312
7790774 15.1415 17.8558 22.099 19.7375 0.117895 1.77178 74.8338
7790781 15.1415 17.7975 22.099 19.7375 0.0984788 1.78487 74.7755
7790794 15.0534 17.7197 22.1975 19.8544 0.108019 1.86011 74.8249
7790801 15.0534 17.7197 22.1975 19.8544 0.108019 1.86011 74.8249
7790814 15.0181 17.7975 22.2073 19.7668 0.113255 1.83684 74.7897
7790821 14.9124 17.7294 22.3549 19.9324 0.131589 1.93092 74.9292
7790835 14.9124 17.7294 22.3549 19.9324 0.131589 1.93092 74.9292
7790841 14.9212 17.7975 22.3353 19.9032 0.148129 1.90503 74.9571
7790851 14.9301 17.7975 22.3451 19.9032 0.141871 1.90476 74.9758
7790861 14.9301 17.7586 22.3451 19.8739 0.119263 1.90843 74.9077
7790871 14.9829 17.7975 22.227 19.8252 0.13791 1.85851 74.8326
7790881 14.9829 17.7975 22.227 19.8252 0.13791 1.85851 74.8326
7790891 14.9741 17.8267 22.2073 19.7765 0.140998 1.8419 74.7846
7790903 15.0446 17.9239 22.286 19.7181 0.103825 1.80779 74.9726
7790913 15.0446 17.9239 22.286 19.7181 0.103825 1.80779 74.9726
7790923 15.1062 17.9434 22.1581 19.6791 0.119564 1.76017 74.8867
7790933 15.1062 17.9434 22.1581 19.6791 0.119564 1.76017 74.8867
7790942 15.0886 18.0017 22.1679 19.5914 0.112426 1.73728 74.8496
7790952 15.1503 18.0601 22.1187 19.6206 0.137338 1.70695 74.9497
7790962 15.1503 18.0601 22.1187 19.6206 0.137338 1.70695 74.9497
7790973 15.1415 18.0795 22.0301 19.533 0.147396 1.67324 74.784
7790982 15.1943 18.1087 22.0596 19.5037 0.119704 1.65502 74.8664
7790992 15.1943 18.1087 22.0596 19.5037 0.119704 1.65502 74.8664
7791004 15.2207 18.1476 22.0498 19.4648 0.114122 1.6318 74.8829
7791012 15.2207 18.1476 22.0498 19.4648 0.114122 1.6318 74.8829
7791022 15.2119 18.1476 22.0793 19.5524 0.13628 1.65464 74.9913
7791032 15.2031 18.1476 22.1285 19.5524 0.122741 1.66535 75.0317
7791052 15.2031 18.1865 22.1187 19.455 0.106621 1.63762 74.9633
7791062 15.256 18.2254 22.1187 19.4842 0.111532 1.62249 75.0843
7791072 15.256 18.2254 22.1187 19.4842 0.111532 1.62249 75.0843
7791083 15.2736 18.2546 21.9415 19.2894 0.109982 1.54552 74.7591
7791093 15.2736 18.2546 21.9415 19.2894 0.109982 1.54552 74.7591
7791104 15.256 18.2449 21.9218 19.3089 0.125766 1.55153 74.7315
7791113 15.3 18.3324 21.8628 19.153 0.108048 1.48364 74.6482
7791123 15.3 18.3324 21.8628 19.153 0.108048 1.48364 74.6482
7791133 15.3617 18.4102 21.7446 19.0458 0.11726 1.41197 74.5623
7791146 15.3705 18.4199 21.725 19.0653 0.130668 1.40785 74.5807
7791169 15.4409 18.4588 21.8037 19.0556 0.0902086 1.3964 74.759
7791173 15.4409 18.4588 21.8037 19.0556 0.0902086 1.3964 74.759
7791184 15.4233 18.4685 21.7742 19.1628 0.144929 1.41224 74.8288
7791195 15.4938 18.5269 21.8825 19.1725 0.107607 1.40544 75.0756
7791204 15.4938 18.5269 21.8825 19.1725 0.107607 1.40544 75.0756
7791217 15.4762 18.5366 21.8628 19.1335 0.110388 1.39653 75.0091
7791224 15.485 18.5755 21.8037 19.1335 0.140125 1.37539 74.9977
7791234 15.485 18.5755 21.8037 19.1335 0.140125 1.37539 74.9977
7791244 15.5114 18.6339 21.725 19.153 0.183451 1.34612 75.0232
7791254 15.5114 18.6339 21.725 19.153 0.183451 1.34612 75.0232
7791264 15.4409 18.5366 21.7348 19.0556 0.139251 1.3668 74.7679
7791274 15.4674 18.5658 21.7446 19.0361 0.130284 1.35288 74.8139
7791288 15.4674 18.5658 21.7446 19.0361 0.130284 1.35288 74.8139
7791294 15.5026 18.6047 21.7545 19.0848 0.144246 1.34736 74.9466
7791314 15.3705 18.5074 21.8529 19.1433 0.142679 1.42605 74.8741
7791316 15.3705 18.5074 21.8529 19.1433 0.142679 1.42605 74.8741
7791325 15.3617 18.4685 21.8726 19.1433 0.126103 1.44009 74.8461
7791336 15.3617 18.4685 21.8726 19.1433 0.126103 1.44009 74.8461
7791345 15.344 18.3907 21.9514 19.2115 0.102404 1.48764 74.8976
7791358 15.3 18.3227 22.0301 19.3576 0.116697 1.5528 75.0104
7791375 15.2383 18.2643 22.04 19.3381 0.108209 1.57759 74.8807
7791385 15.1855 18.1379 22.0892 19.494 0.119212 1.65402 74.9065
7791396 15.1855 18.1379 22.0892 19.494 0.119212 1.65402 74.9065
7791406 15.0798 18.0017 22.1482 19.5232 0.0992924 1.72366 74.753
7791418 15.0798 18.0017 22.1482 19.5232 0.0992924 1.72366 74.753
7791432 15.0358 17.9628 22.2073 19.6011 0.107247 1.76652 74.807
7791437 15.0534 17.9628 22.2368 19.6693 0.114107 1.77984 74.9223
7791447 15.0534 17.9628 22.2368 19.6693 0.114107 1.77984 74.9223
7791456 15.0534 17.8461 22.2565 19.6596 0.065434 1.80777 74.8156
7791466 14.9565 17.7586 22.3254 19.8057 0.0943333 1.88709 74.8462
7791486 15.0269 17.7683 22.3549 19.9324 0.106144 1.89633 75.0826
7791504 15.0269 17.7683 22.3549 19.9324 0.106144 1.89633 75.0826
7791508 14.9301 17.6613 22.4435 19.8642 0.0507087 1.94589 74.8991
7791520 14.9301 17.6127 22.5026 20.0298 0.0698775 1.99593 75.0752
7791538 14.9301 17.5835 22.4632 20.059 0.0830501 2.00078 75.0358
7791550 14.842 17.5543 22.5026 20.0785 0.0961244 2.03757 74.9774
7791558 14.842 17.5543 22.5026 20.0785 0.0961244 2.03757 74.9774
7791567 14.7979 17.5154 22.4632 20.0883 0.114387 2.05132 74.8649
7791578 14.7979 17.5154 22.4632 20.0883 0.114387 2.05132 74.8649
7791587 14.8244 17.3209 22.5223 20.2441 0.0728905 2.12673 74.9117
7791598 14.7979 17.3307 22.601 20.3221 0.0845253 2.15742 75.0517
7791608 14.7979 17.3307 22.601 20.3221 0.0845253 2.15742 75.0517
7791617 14.6834 17.3501 22.601 20.3318 0.132546 2.18084 74.9664
7791630 14.7803 17.3112 22.6798 20.3513 0.0673562 2.18434 75.1226
7791640 14.7803 17.3112 22.6798 20.3513 0.0673562 2.18434 75.1226
7791649 14.7187 17.3112 22.7093 20.3805 0.0877768 2.20847 75.1197
7791659 14.7187 17.3112 22.7093 20.3805 0.0877768 2.20847 75.1197
7791669 14.657 17.282 22.6207 20.3708 0.125143 2.21254 74.9305
7791683 14.6482 17.282 22.5912 20.3805 0.141242 2.21119 74.9019
7791689 14.6482 17.282 22.5912 20.3805 0.141242 2.21119 74.9019
7791699 14.5865 17.2529 22.601 20.4195 0.161895 2.24041 74.8599
7791709 14.5689 17.1751 22.6109 20.4682 0.154847 2.27238 74.8231
7791719 14.5689 17.1751 22.6109 20.4682 0.154847 2.27238 74.8231
7791730 14.5865 17.1264 22.7093 20.4779 0.102979 2.29792 74.9002
7791739 14.5865 17.1264 22.7093 20.4779 0.102979 2.29792 74.9002
7791754 14.4896 17.1459 22.7979 20.6143 0.157452 2.35385 75.0478
7791759 14.5249 17.0875 22.7684 20.5851 0.126517 2.34929 74.9659
7791769 14.5249 17.0875 22.7684 20.5851 0.126517 2.34929 74.9659
7791779 14.4984 17.1653 22.7389 20.5851 0.171071 2.33242 74.9877
7791789 14.4984 17.0778 22.7093 20.6143 0.161672 2.35262 74.8999
7791800 14.4984 17.0778 22.7093 20.6143 0.161672 2.35262 74.8999
7791809 14.5249 17.1362 22.729 20.6143 0.165522 2.33633 75.0044
7791819 14.5249 17.1362 22.729 20.6143 0.165522 2.33633 75.0044
7791829 14.4984 17.0875 22.6995 20.6436 0.177884 2.35364 74.929
7791841 14.5073 17.1556 22.6896 20.5266 0.16205 2.31442 74.8791
7791849 14.5073 17.1556 22.6896 20.5266 0.16205 2.31442 74.8791
7791859 14.6306 17.2918 22.6306 20.5364 0.188777 2.24625 75.0893
7791869 14.6394 17.2918 22.542 20.5364 0.215569 2.22916 75.0095
7791879 14.6394 17.1945 22.542 20.4779 0.164017 2.24158 74.8538
7791890 14.6041 17.214 22.6306 20.5266 0.168684 2.26857 74.9753
7791915 14.613 17.214 22.542 20.5266 0.195497 2.25148 74.8955
7791919 14.5953 17.1945 22.601 20.6338 0.210577 2.28825 75.0247
7791939 14.5953 17.1945 22.601 20.6338 0.210577 2.28825 75.0247
7791948 14.5601 17.1751 22.6503 20.5656 0.176886 2.29764 74.951
7791963 14.5601 17.1751 22.5912 20.5656 0.19674 2.28763 74.892
7791965 14.5425 17.2042 22.5912 20.5754 0.215551 2.28661 74.9133
7791971 14.5865 17.1653 22.6207 20.6338 0.197276 2.30034 75.0064
7791987 14.5865 17.1653 22.6207 20.6338 0.197276 2.30034 75.0064
7791990 14.5425 17.1751 22.6306 20.5656 0.189421 2.29837 74.9137
7792000 14.5777 17.1362 22.6503 20.7117 0.206435 2.32727 75.0759
7792010 14.5777 17.1362 22.6503 20.7117 0.206435 2.32727 75.0759
7792020 14.5425 17.1751 22.7487 20.663 0.181991 2.33481 75.1293
7792040 14.4544 17.0681 22.7782 20.741 0.192031 2.39801 75.0417
7792054 14.4192 17.0195 22.8373 20.7702 0.177619 2.43228 75.0461
7792061 14.4192 17.0195 22.8373 20.7702 0.177619 2.43228 75.0461
7792071 14.3487 16.9447 22.8176 20.8481 0.208974 2.47581 74.9592
7792081 14.2694 16.8619 22.8176 20.9066 0.227579 2.52344 74.8555
7792091 14.2694 16.8619 22.8176 20.9066 0.227579 2.52344 74.8555
7792102 14.2959 16.8987 22.9456 20.965 0.20715 2.53965 75.1052
7792111 14.2959 16.8987 22.9456 20.965 0.20715 2.53965 75.1052
7792121 14.2518 16.779 22.9554 20.9553 0.175822 2.57799 74.9415
7792131 14.2254 16.7237 22.9948 20.9553 0.153154 2.60369 74.8992
7792151 14.1813 16.7329 23.0243 21.0138 0.180456 2.62643 74.9524
7792164 14.1725 16.7053 23.1031 21.1307 0.186509 2.66721 75.1116
7792185 14.1637 16.7145 23.1031 21.267 0.237471 2.68947 75.2484
7792191 14.1637 16.7145 23.1031 21.267 0.237471 2.68947 75.2484
7792206 14.0668 16.6316 23.1917 21.1989 0.190437 2.73516 75.089
7792211 14.0756 16.5948 23.1917 21.2963 0.207484 2.75767 75.1584
7792231 14.0404 16.604 23.1621 21.2573 0.219402 2.75266 75.0639
7792241 14.0404 16.5303 23.1523 21.2963 0.211251 2.77485 75.0193
7792252 14.0404 16.5303 23.1523 21.2963 0.211251 2.77485 75.0193
7792262 13.9964 16.4567 23.2409 21.3645 0.194475 2.82826 75.0584
7792273 13.9964 16.4567 23.2409 21.3645 0.194475 2.82826 75.0584
7792283 13.9876 16.4659 23.2606 21.3742 0.197086 2.83294 75.0882
7792293 13.9523 16.4382 23.3196 21.3937 0.186402 2.86059 75.1039
7792303 13.9523 16.4382 23.3196 21.3937 0.186402 2.86059 75.1039
7792317 13.9435 16.4014 23.3295 21.5106 0.212479 2.89189 75.185
7792323 13.9347 16.3554 23.3688 21.5106 0.187045 2.91129 75.1695
7792333 13.9347 16.3554 23.3688 21.5106 0.187045 2.91129 75.1695
7792342 13.8995 16.3277 23.3787 21.4814 0.176772 2.92317 75.0873
7792359 13.8995 16.3277 23.3787 21.4814 0.176772 2.92317 75.0873
7792363 13.8642 16.2909 23.2803 21.4132 0.186899 2.91354 74.8486
7792373 13.9259 16.3185 23.2999 21.4034 0.165486 2.8938 74.9478
7792383 13.9259 16.3185 23.2999 21.4034 0.165486 2.8938 74.9478
7792393 13.9611 16.3462 23.2409 21.3645 0.169733 2.86295 74.9126
7792403 13.9523 16.429 23.231 21.3547 0.200221 2.84213 74.9671
7792424 14.0404 16.429 23.2507 21.2963 0.144693 2.81489 75.0164
7792433 14.0404 16.429 23.2507 21.2963 0.144693 2.81489 75.0164
7792444 13.9788 16.429 23.2901 21.3158 0.15862 2.8391 75.0136
7792453 14.014 16.5211 23.2409 21.3352 0.200203 2.80404 75.1112
7792467 14.014 16.5211 23.2409 21.3352 0.200203 2.80404 75.1112
7792473 14.058 16.4935 23.3393 21.4034 0.16588 2.82715 75.2943
7792489 14.0228 16.4198 23.3098 21.3547 0.147113 2.84032 75.1071
7792494 14.0228 16.4198 23.3098 21.3547 0.147113 2.84032 75.1071
7792504 14.0668 16.5119 23.2507 21.3645 0.185794 2.80005 75.194
7792515 14.0668 16.5119 23.2507 21.3645 0.185794 2.80005 75.194
7792524 14.014 16.4935 23.2606 21.3255 0.181258 2.81221 75.0936
7792534 14.058 16.5303 23.1818 21.2768 0.188974 2.77231 75.047
7792544 14.058 16.5303 23.1818 21.2768 0.188974 2.77231 75.047
7792554 14.0845 16.5303 23.1621 21.306 0.196373 2.76761 75.0829
7792564 14.0228 16.5303 23.1031 21.2865 0.230512 2.76941 74.9427
7792573 14.0228 16.5211 23.1031 21.2865 0.227466 2.77159 74.9335
7792593 14.058 16.4935 23.172 21.2865 0.183317 2.78102 75.01
7792594 14.058 16.4935 23.172 21.2865 0.183317 2.78102 75.01
7792604 13.9876 16.4014 23.2704 21.306 0.149888 2.8388 74.9654
7792615 14.0316 16.4014 23.2409 21.3645 0.164378 2.83302 75.0384
7792637 13.9788 16.4567 23.2901 21.4132 0.199959 2.8483 75.1387
7792645 13.9611 16.3922 23.3196 21.3937 0.168225 2.86945 75.0667
7792661 13.9611 16.3922 23.3196 21.3937 0.168225 2.86945 75.0667
7792667 14.014 16.4014 23.3885 21.384 0.127295 2.86424 75.1879
7792675 14.014 16.4014 23.3885 21.384 0.127295 2.86424 75.1879
7792686 13.9611 16.4198 23.359 21.3255 0.141603 2.85821 75.0655
7792695 13.9699 16.3462 23.3393 21.3645 0.13375 2.87677 75.0199
7792716 13.9611 16.4106 23.3885 21.306 0.122213 2.86203 75.0663
7792726 13.9876 16.4106 23.3688 21.3158 0.123188 2.85414 75.0828
7792738 13.9876 16.4106 23.3688 21.3158 0.123188 2.85414 75.0828
7792746 14.0316 16.4106 23.3885 21.4034 0.130898 2.86102 75.2342
7792766 14.014 16.4106 23.4082 21.2476 0.0785708 2.84319 75.0804
7792778 14.0316 16.4935 23.2606 21.1989 0.133419 2.78744 74.9845
7792786 14.0316 16.4935 23.2606 21.1989 0.133419 2.78744 74.9845
7792799 14.1021 16.4659 23.231 21.1599 0.0976026 2.76611 74.9589
7792806 14.1021 16.4198 23.2507 21.1794 0.0821859 2.78342 74.952
7792821 14.1021 16.4198 23.2507 21.1794 0.0821859 2.78342 74.952
7792826 14.1197 16.5488 23.2507 21.1112 0.0964642 2.73758 75.0303
7792836 14.1197 16.5488 23.2507 21.1112 0.0964642 2.73758 75.0303
7792846 14.1549 16.5211 23.2409 21.1404 0.0885069 2.73895 75.0573
7792856 14.1109 16.4935 23.2606 21.1501 0.0907123 2.76071 75.0151
7792868 14.1109 16.4935 23.2606 21.1501 0.0907123 2.76071 75.0151
7792876 14.1461 16.5027 23.2803 21.1891 0.088343 2.75976 75.1182
7792887 14.1197 16.4843 23.2606 21.0917 0.065279 2.75126 74.9562
7792896 14.1197 16.4843 23.2606 21.0917 0.065279 2.75126 74.9562
7792908 14.1813 16.5303 23.2803 21.1014 0.0566512 2.7306 75.0934
7792916 14.1813 16.5303 23.2803 21.1014 0.0566512 2.7306 75.0934
7792929 14.1725 16.5856 23.2606 21.1014 0.0845015 2.71642 75.1201
7792936 14.243 16.6408 23.2015 21.043 0.0796318 2.66756 75.1283
7792956 14.2518 16.6501 23.1228 21.0332 0.10283 2.64878 75.0579
7792977 14.243 16.6961 23.1523 20.9261 0.0756115 2.62724 75.0175
7792987 14.2959 16.6869 23.044 20.8968 0.0813752 2.59427 74.9236
7792998 14.2959 16.6869 23.044 20.8968 0.0813752 2.59427 74.9236
7793007 14.3047 16.6961 23.0637 20.8189 0.0489593 2.58038 74.8834
7793018 14.287 16.7421 23.0046 20.7702 0.0737488 2.55581 74.804
7793027 14.287 16.7421 23.0046 20.7702 0.0737488 2.55581 74.804
7793040 14.3047 16.7974 22.9357 20.8287 0.128785 2.53698 74.8664
7793047 14.3047 16.7974 22.9357 20.8287 0.128785 2.53698 74.8664
7793058 14.3223 16.7421 22.916 20.6923 0.0656486 2.51977 74.6727
7793067 14.3399 16.7514 22.9357 20.7312 0.0692099 2.52328 74.7582
7793089 14.4104 16.7882 22.916 20.7312 0.0644743 2.49487 74.8458
7793100 14.4632 16.8342 23.0145 20.7215 0.0259995 2.4866 75.0334
7793109 14.4632 16.8342 23.0145 20.7215 0.0259995 2.4866 75.0334
7793120 14.472 16.825 22.9653 20.7507 0.0461459 2.48335 75.013
7793129 14.472 16.825 22.9653 20.7507 0.0461459 2.48335 75.013
7793140 14.4368 16.9263 22.9948 20.7312 0.0752389 2.46965 75.0891
7793149 14.5161 16.9355 22.9653 20.7312 0.0616938 2.44415 75.1481
7793162 14.5161 16.9355 22.9653 20.7312 0.0616938 2.44415 75.1481
7793169 14.472 16.8987 22.9259 20.6825 0.0611246 2.44822 74.9791
7793179 14.4456 16.8803 22.857 20.6728 0.0836581 2.44548 74.8556
7793189 14.4456 16.8803 22.857 20.6728 0.0836581 2.44548 74.8556
7793199 14.428 16.8803 22.916 20.6338 0.0568002 2.45296 74.8581
7793209 14.428 16.8803 22.916 20.6338 0.0568002 2.45296 74.8581
7793219 14.4368 16.9632 22.8865 20.6046 0.0816017 2.42175 74.891
7793229 14.5073 16.954 22.8865 20.5754 0.045231 2.4026 74.9231
7793255 14.5425 16.9447 22.9259 20.6241 0.033465 2.41135 75.0372
7793260 14.5865 16.9171 22.9062 20.5851 0.00316501 2.39769 74.9949
7793270 14.5865 16.9171 22.9062 20.5851 0.00316501 2.39769 74.9949
7793283 14.5865 16.9908 22.8668 20.6338 0.0570238 2.38219 75.078
7793292 14.5073 16.8895 22.8767 20.6046 0.036779 2.42084 74.878
7793300 14.5073 16.8895 22.8767 20.6046 0.036779 2.42084 74.878
7793313 14.4632 16.9263 22.8767 20.5656 0.050804 2.41597 74.8318
7793320 14.4632 16.9263 22.8767 20.5656 0.050804 2.41597 74.8318
7793330 14.4544 16.8987 22.916 20.6046 0.0443548 2.43761 74.8737
7793340 14.4808 16.8895 22.8767 20.6728 0.0683308 2.43843 74.9198
7793350 14.4808 16.8895 22.8767 20.6728 0.0683308 2.43843 74.9198
7793360 14.3839 16.8711 22.9456 20.7507 0.0974894 2.48987 74.9513
7793370 14.3839 16.8711 22.9456 20.7507 0.0974894 2.48987 74.9513
7793381 14.3487 16.8342 22.9653 20.7117 0.0774831 2.50349 74.8599
7793391 14.3751 16.7606 23.0637 20.8287 0.0501126 2.55038 75.028
7793411 14.3839 16.825 23.1031 20.8092 0.0489861 2.53656 75.1212
7793421 14.3663 16.825 23.1523 20.8384 0.0481546 2.55367 75.182
7793431 14.3663 16.825 23.1523 20.8384 0.0481546 2.55367 75.182
7793442 14.3751 16.7974 23.172 20.9358 0.061807 2.57742 75.2803
7793451 14.3751 16.7974 23.172 20.9358 0.061807 2.57742 75.2803
7793463 14.3311 16.7329 23.1917 20.8287 0.0129312 2.58835 75.0843
7793471 14.3047 16.7606 23.044 20.8871 0.0996709 2.5733 74.9963
7793485 14.3047 16.7606 23.044 20.8871 0.0996709 2.5733 74.9963
7793493 14.3135 16.7237 23.0243 20.7507 0.0456631 2.55396 74.8122
7793501 14.3047 16.6961 23.0637 20.8092 0.0457168 2.57877 74.8736
7793511 14.3047 16.6961 23.0637 20.8092 0.0457168 2.57877 74.8736
7793521 14.3135 16.6777 22.9849 20.8579 0.0792235 2.57604 74.834
7793531 14.3135 16.6777 22.9849 20.8579 0.0792235 2.57604 74.834
7793541 14.2959 16.7053 23.0243 20.8871 0.0908524 2.58506 74.9126
7793551 14.3839 16.779 23.0735 20.8774 0.066188 2.55372 75.1138
7793571 14.3399 16.8342 22.9751 20.8384 0.11923 2.52829 74.9876
7793581 14.4016 16.8342 22.9554 20.7702 0.0825346 2.49925 74.9614
7793593 14.4016 16.8342 22.9554 20.7702 0.0825346 2.49925 74.9614
7793602 14.472 16.8803 22.8373 20.7702 0.113785 2.45235 74.9598
7793623 14.4104 16.9724 22.8274 20.6241 0.119808 2.4191 74.8343
7793633 14.5425 17.0973 22.7093 20.5559 0.133944 2.32804 74.9049
7793642 14.5425 17.0973 22.7093 20.5559 0.133944 2.32804 74.9049
7793653 14.6394 17.2529 22.601 20.4974 0.169975 2.24152 74.9907
7793662 14.7187 17.3209 22.4239 20.3903 0.189933 2.15912 74.8537
7793673 14.7187 17.3209 22.4239 20.3903 0.189933 2.15912 74.8537
7793682 14.7539 17.3696 22.4042 20.3026 0.171751 2.12146 74.8302
7793694 14.7539 17.3696 22.4042 20.3026 0.171751 2.12146 74.8302
7793702 14.7098 17.4085 22.3353 20.2246 0.196847 2.09732 74.6782
7793714 14.8244 17.5154 22.3353 20.2734 0.209871 2.05518 74.9484
7793726 14.8244 17.5154 22.3353 20.2734 0.209871 2.05518 74.9484
7793736 14.8155 17.5252 22.2959 20.1954 0.203508 2.03468 74.832
7793744 14.886 17.6322 22.2959 20.1175 0.189418 1.98085 74.9315
7793764 14.9212 17.6419 22.2762 20.1662 0.203526 1.97571 75.0055
7793777 14.9212 17.6419 22.2762 20.1662 0.203526 1.97571 75.0055
7793784 14.8772 17.6224 22.2368 20.059 0.189656 1.9646 74.7955
7793798 14.9036 17.6613 22.2762 20.1662 0.215873 1.97529 75.0073
7793804 14.9036 17.6613 22.2762 20.1662 0.215873 1.97529 75.0073
7793818 14.8684 17.6322 22.2467 20.137 0.218353 1.97967 74.8842
7793824 14.8596 17.5933 22.2762 20.1662 0.208175 2.00071 74.8952
7793834 14.8596 17.5933 22.2762 20.1662 0.208175 2.00071 74.8952
7793844 14.9477 17.5933 22.3353 20.3026 0.203815 2.01458 75.1788
7793872 14.9477 17.5933 22.3353 20.3026 0.203815 2.01458 75.1788
7793874 14.7979 17.5543 22.3648 20.2539 0.215247 2.05407 74.9709
7793875 14.7891 17.496 22.4239 20.2441 0.175825 2.07787 74.9531
7793895 14.7187 17.4474 22.5026 20.2928 0.173071 2.12698 74.9615
7793907 14.6922 17.3307 22.4337 20.3318 0.17935 2.1546 74.7884
7793915 14.6922 17.3307 22.4337 20.3318 0.17935 2.1546 74.7884
7793925 14.6922 17.3598 22.4337 20.2636 0.166395 2.13619 74.7494
7793948 14.6746 17.389 22.4731 20.2149 0.152579 2.13193 74.7516
7793955 14.7539 17.4182 22.3746 20.2344 0.175196 2.0935 74.7811
7793970 14.7539 17.4182 22.3746 20.2344 0.175196 2.0935 74.7811
7793976 14.7098 17.4474 22.3549 20.2441 0.209582 2.09518 74.7563
7793997 14.7098 17.4376 22.4337 20.3221 0.205651 2.1244 74.9033
7793998 14.7098 17.4376 22.4337 20.3221 0.205651 2.1244 74.9033
7794014 14.7275 17.4863 22.4534 20.3221 0.209191 2.11265 74.9892
7794017 14.7275 17.4863 22.4534 20.3221 0.209191 2.11265 74.9892
7794026 14.7275 17.4668 22.414 20.3123 0.21278 2.10864 74.9206
7794042 14.7891 17.4863 22.414 20.3415 0.208142 2.09517 75.031
7794057 14.7715 17.6224 22.3845 20.2928 0.252849 2.05473 75.0713
7794068 14.7715 17.6613 22.3549 20.2831 0.272396 2.03912 75.0709
7794078 14.7715 17.6613 22.3549 20.2831 0.272396 2.03912 75.0709
7794092 14.8244 17.6613 22.2664 20.1857 0.252306 1.99493 74.9377
7794098 14.8244 17.6613 22.2664 20.1857 0.252306 1.99493 74.9377
7794108 14.8684 17.7489 22.2073 20.0688 0.247663 1.93451 74.8933
7794119 14.9036 17.6905 22.1482 20.098 0.246072 1.93454 74.8404
7794128 14.9036 17.6905 22.1482 20.098 0.246072 1.93454 74.8404
7794139 14.9212 17.6613 22.1778 20.1077 0.223747 1.944 74.8681
7794147 14.9124 17.6711 22.1876 20.1175 0.229838 1.94721 74.8886
7794159 14.9124 17.6711 22.1876 20.1175 0.229838 1.94721 74.8886
7794168 14.9653 17.6516 22.2073 20.1175 0.19899 1.94309 74.9417
7794188 14.842 17.6322 22.2565 20.1272 0.220713 1.98569 74.8579
7794198 14.8684 17.5641 22.2959 20.1272 0.17601 2.00198 74.8556
7794211 14.8684 17.5641 22.2959 20.1272 0.17601 2.00198 74.8556
7794219 14.842 17.6127 22.3451 20.1564 0.194135 2.01055 74.9562
7794229 14.842 17.4668 22.4239 20.2344 0.145191 2.0708 74.967
7794240 14.842 17.4668 22.4239 20.2344 0.145191 2.0708 74.967
7794249 14.7803 17.389 22.4928 20.3415 0.15249 2.13289 75.0036
7794262 14.7803 17.389 22.4928 20.3415 0.15249 2.13289 75.0036
7794269 14.7715 17.3793 22.5814 20.3415 0.122541 2.15231 75.0737
7794279 14.7627 17.282 22.6306 20.4292 0.105849 2.19995 75.1045
7794289 14.7627 17.282 22.6306 20.4292 0.105849 2.19995 75.1045
7794299 14.6922 17.2431 22.6306 20.4292 0.11653 2.22503 74.9952
7794309 14.6394 17.1264 22.729 20.3903 0.0495106 2.27418 74.8851
7794319 14.6394 17.1264 22.729 20.3903 0.0495106 2.27418 74.8851
7794329 14.6834 17.0875 22.7389 20.4682 0.0444978 2.28789 74.978
7794340 14.6834 17.0875 22.7389 20.4682 0.0444978 2.28789 74.978
7794351 14.5953 16.9908 22.8078 20.4682 0.0186622 2.34227 74.8621
7794360 14.5601 16.9724 22.8964 20.5559 0.0239372 2.38444 74.9847
7794380 14.5073 16.9447 22.9456 20.5851 0.0256807 2.41629 74.9827
7794394 14.5073 17 22.9751 20.5364 0.0180095 2.40025 75.0187
7794410 14.5513 16.9355 23.0145 20.5364 -0.0312671 2.41159 75.0377
7794420 14.5513 16.9355 23.0145 20.5364 -0.0312671 2.41159 75.0377
7794431 14.6218 16.9447 22.9653 20.5851 -0.0190288 2.39304 75.1169
7794440 14.5689 16.954 23.0046 20.5461 -0.0244617 2.40322 75.0736
7794451 14.5689 16.954 23.0046 20.5461 -0.0244617 2.40322 75.0736
7794461 14.5337 16.8803 22.916 20.5169 -0.0175446 2.40871 74.8469
7794471 14.5337 16.9355 22.9357 20.4779 -0.0186726 2.39263 74.8829
7794481 14.5337 16.9355 22.9357 20.4779 -0.0186726 2.39263 74.8829
7794491 14.6306 17.0681 22.8767 20.4487 0.00318587 2.3246 75.024
7794501 14.6306 17.0681 22.8767 20.4487 0.00318587 2.3246 75.024
7794511 14.5601 17.0486 22.8767 20.3513 -0.0123098 2.32892 74.8367
7794521 14.613 17.1167 22.7389 20.361 0.0420719 2.27922 74.8295
7794541 14.6482 17.1556 22.7684 20.2246 -0.0121415 2.24393 74.7968
7794551 14.6482 17.1264 22.7192 20.3221 0.0271142 2.25887 74.8158
7794576 14.7363 17.2431 22.7487 20.2928 0.0169963 2.21181 75.0209
7794582 14.7363 17.2431 22.7487 20.2928 0.0169963 2.21181 75.0209
7794598 14.7363 17.1848 22.7192 20.2636 -0.00234842 2.21519 74.9038
7794601 14.7627 17.214 22.6699 20.2344 0.00523925 2.18901 74.881
7794611 14.7627 17.214 22.6699 20.2344 0.00523925 2.18901 74.881
7794623 14.7979 17.282 22.6404 20.2246 0.0227928 2.1586 74.945
7794631 14.8155 17.2626 22.542 20.2149 0.0400752 2.14046 74.835
7794648 14.8155 17.2626 22.542 20.2149 0.0400752 2.14046 74.835
7794651 14.842 17.3598 22.5223 20.2246 0.0734538 2.11047 74.9487
7794663 14.842 17.3598 22.5223 20.2246 0.0734538 2.11047 74.9487
7794674 14.842 17.3696 22.5223 20.1662 0.0572413 2.09819 74.9
7794683 14.8772 17.4182 22.5814 20.2344 0.0645757 2.10096 75.1111
7794698 14.8772 17.4182 22.5814 20.2344 0.0645757 2.10096 75.1111
7794702 14.886 17.3793 22.5223 20.2052 0.0587225 2.09263 74.9928
7794713 14.8772 17.3793 22.4928 20.1954 0.068298 2.08788 74.9447
7794722 14.8772 17.3793 22.4928 20.1954 0.068298 2.08788 74.9447
7794733 14.9036 17.389 22.5124 20.2149 0.0625938 2.08638 75.02
7794742 14.9036 17.389 22.5124 20.2149 0.0625938 2.08638 75.02
7794753 14.7979 17.3793 22.4337 20.2246 0.124374 2.10083 74.8356
7794763 14.7979 17.4182 22.4731 20.1662 0.10466 2.08866 74.8554
7794782 14.7715 17.3307 22.3648 20.1662 0.120777 2.09602 74.6331
7794793 14.7979 17.3696 22.4534 20.1954 0.104809 2.10141 74.8163
7794812 14.7627 17.4085 22.5026 20.1954 0.113055 2.10905 74.8692
7794823 14.7627 17.4085 22.5026 20.1954 0.113055 2.10905 74.8692
7794832 14.7451 17.3209 22.5814 20.3221 0.105566 2.16836 74.9694
7794844 14.7451 17.2334 22.6207 20.361 0.0762492 2.20182 74.9603
7794854 14.7451 17.2334 22.6207 20.361 0.0762492 2.20182 74.9603
7794864 14.7363 17.214 22.5518 20.4682 0.131404 2.21484 74.9702
7794874 14.7098 17.1945 22.6699 20.4585 0.0910163 2.24383 75.0328
7794887 14.7098 17.1945 22.6699 20.4585 0.0910163 2.24383 75.0328
7794894 14.6834 17.2918 22.6109 20.4195 0.138968 2.21087 75.0056
7794904 14.6834 17.2918 22.6109 20.4195 0.138968 2.21087 75.0056
7794917 14.7275 17.2723 22.6404 20.4585 0.120804 2.2169 75.0986
7794924 14.657 17.2918 22.6109 20.4097 0.144601 2.21528 74.9694
7794937 14.657 17.2918 22.6109 20.4097 0.144601 2.21528 74.9694
7794944 14.7275 17.2626 22.4829 20.3318 0.128338 2.17058 74.8048
7794959 14.7275 17.2626 22.4829 20.3318 0.128338 2.17058 74.8048
7794964 14.657 17.2237 22.4731 20.3708 0.155365 2.20072 74.7245
7794974 14.7627 17.282 22.5223 20.3903 0.129175 2.1748 74.9573
7794984 14.7627 17.282 22.5223 20.3903 0.129175 2.1748 74.9573
7794994 14.7275 17.214 22.5026 20.361 0.115275 2.19014 74.8051
7795004 14.7098 17.2334 22.5124 20.4779 0.163165 2.21138 74.9336
7795014 14.7098 17.2334 22.5124 20.4779 0.163165 2.21138 74.9336
7795024 14.7275 17.3209 22.542 20.5266 0.192416 2.20061 75.117
7795034 14.7275 17.3209 22.542 20.5266 0.192416 2.20061 75.117
7795044 14.7539 17.282 22.542 20.4974 0.161034 2.19849 75.0753
7795055 14.7627 17.3112 22.4829 20.4877 0.184315 2.17804 75.0445
7795074 14.6834 17.2723 22.5026 20.5559 0.214013 2.22013 75.0142
7795086 14.6658 17.2237 22.414 20.5364 0.22724 2.21692 74.8399
7795094 14.6658 17.2237 22.414 20.5364 0.22724 2.21692 74.8399
7795110 14.6922 17.214 22.5026 20.4877 0.16917 2.21988 74.8965
7795134 14.6834 17.2626 22.4928 20.4682 0.185096 2.20573 74.907
7795151 14.7275 17.3112 22.3451 20.4487 0.229633 2.15585 74.8325
7795155 14.7451 17.3209 22.3549 20.4682 0.230041 2.15461 74.8892
7795165 14.7187 17.3501 22.3845 20.439 0.228983 2.15403 74.8922
7795190 14.7539 17.3598 22.3353 20.5364 0.269079 2.152 74.9854
7795195 14.7539 17.3598 22.3353 20.5364 0.269079 2.152 74.9854
7795205 14.701 17.389 22.3451 20.5169 0.286776 2.15577 74.9521
7795216 14.701 17.3793 22.3057 20.5461 0.306496 2.15626 74.9322
7795226 14.701 17.3793 22.3057 20.5461 0.306496 2.15626 74.9322
7795236 14.7627 17.496 22.2565 20.4585 0.311854 2.09199 74.9737
7795246 14.7627 17.4863 22.2171 20.4292 0.312322 2.08239 74.8953
7795257 14.7627 17.4863 22.2171 20.4292 0.312322 2.08239 74.8953
7795268 14.8508 17.6127 22.1089 20.3903 0.347948 2.00813 74.9626
7795280 14.8508 17.6127 22.1089 20.3903 0.347948 2.00813 74.9626
7795286 14.7891 17.6419 22.1285 20.3513 0.358924 2.01216 74.9108
7795296 14.8508 17.6905 22.0203 20.3415 0.387502 1.96665 74.9031
7795316 14.9124 17.7197 22.0203 20.2441 0.344178 1.92912 74.8965
7795328 14.9301 17.7391 22.0203 20.1954 0.328583 1.91224 74.8849
7795338 14.9301 17.7391 22.0203 20.1954 0.328583 1.91224 74.8849
7795351 15.0093 17.9336 21.9021 20.1759 0.399256 1.82651 75.021
7795358 15.0093 17.9336 21.9021 20.1759 0.399256 1.82651 75.021
7795375 15.0005 17.9142 21.8529 20.1564 0.40614 1.82077 74.9241
7795378 15.0622 17.9142 21.8726 20.0103 0.330526 1.78466 74.8593
7795387 15.0622 17.9142 21.8726 20.0103 0.330526 1.78466 74.8593
7795399 15.0622 17.9434 21.8431 20.0201 0.353342 1.77463 74.8687
7795408 15.0798 17.9823 21.8234 19.9713 0.350812 1.74988 74.8568
7795423 15.0798 17.9823 21.8234 19.9713 0.350812 1.74988 74.8568
7795428 15.0974 18.0503 21.784 19.9421 0.37097 1.71857 74.8739
7795449 15.1415 18.0892 21.8135 19.9519 0.362054 1.70703 74.9961
7795458 15.1855 18.1281 21.8431 19.9032 0.333974 1.68517 75.0599
7795474 15.1855 18.1281 21.8431 19.9032 0.333974 1.68517 75.0599
7795479 15.1943 18.1573 21.7348 19.796 0.341937 1.6384 74.8824
7795489 15.2295 18.1476 21.7348 19.6986 0.294688 1.61533 74.8105
7795509 15.2472 18.1184 21.6265 19.6401 0.296411 1.588 74.6322
7795528 15.2472 18.1184 21.6265 19.6401 0.296411 1.588 74.6322
7795530 15.2472 18.0795 21.6364 19.6401 0.28019 1.59842 74.6031
7795539 15.256 18.1865 21.6462 19.6986 0.328565 1.58496 74.7872
7795559 15.2824 18.167 21.597 19.6304 0.307339 1.56232 74.6768
7795575 15.2295 18.167 21.6167 19.5914 0.305694 1.57058 74.6047
7795590 15.2472 18.1573 21.6561 19.7083 0.321802 1.5969 74.7688
7795601 15.2472 18.1573 21.6561 19.7083 0.321802 1.5969 74.7688
7795610 15.1767 18.0601 21.7348 19.796 0.315836 1.66397 74.7675
7795620 15.1943 18.0114 21.8628 19.8155 0.257012 1.69712 74.884
7795630 15.1943 18.0114 21.8628 19.8155 0.257012 1.69712 74.884
7795643 15.1503 17.9531 21.8726 19.8739 0.268587 1.7321 74.8499
7795650 15.1326 18.0017 21.9907 19.9032 0.260398 1.75125 75.0283
7795670 15.115 17.8461 22.0301 19.9811 0.227436 1.81068 74.9723
7795683 15.115 17.8461 22.0301 19.9811 0.227436 1.81068 74.9723
7795690 15.0622 17.7489 22.0793 20.0298 0.21261 1.8616 74.9202
7795700 14.9741 17.7683 22.1679 20.0785 0.23497 1.90109 74.9888
7795710 14.9741 17.7683 22.1679 20.0785 0.23497 1.90109 74.9888
7795720 14.9212 17.6516 22.2171 20.0883 0.200817 1.94968 74.8782
7795730 14.8244 17.5349 22.4042 20.2052 0.17058 2.05087 74.9686
7795743 14.8244 17.5349 22.4042 20.2052 0.17058 2.05087 74.9686
7795750 14.7891 17.5252 22.4829 20.3221 0.191429 2.09481 75.1193
7795776 14.7803 17.4668 22.4731 20.3805 0.197718 2.11845 75.1007
7795787 14.7187 17.3793 22.5026 20.3513 0.169882 2.15257 74.9518
7795801 14.6746 17.3501 22.5814 20.3903 0.161475 2.18949 74.9963
7795814 14.6922 17.282 22.5715 20.361 0.1266 2.19438 74.9068
7795821 14.6922 17.282 22.5715 20.361 0.1266 2.19438 74.9068
7795838 14.6218 17.2626 22.5814 20.4 0.153428 2.22338 74.8657
7795841 14.6218 17.2626 22.5814 20.4 0.153428 2.22338 74.8657
7795851 14.5689 17.1848 22.6306 20.4585 0.148228 2.27183 74.8427
7795863 14.5337 17.1751 22.6896 20.5754 0.175759 2.31206 74.9737
7795871 14.5337 17.1751 22.6896 20.5754 0.175759 2.31206 74.9737
7795885 14.5513 17.1362 22.729 20.6241 0.159886 2.33187 75.0405
7795891 14.5161 17.0681 22.7782 20.663 0.145558 2.37062 75.0254
7795901 14.5161 17.0681 22.7782 20.663 0.145558 2.37062 75.0254
7795911 14.428 17.0389 22.8176 20.7215 0.17159 2.41425 75.006
7795922 14.428 17.0389 22.8176 20.7215 0.17159 2.41425 75.006
7795932 14.4016 16.9724 22.8274 20.7507 0.164804 2.44241 74.9521
7795941 14.4016 17.0097 22.9456 20.7994 0.153688 2.46161 75.1563
7795953 14.4016 17.0097 22.9456 20.7994 0.153688 2.46161 75.1563
7795961 14.3927 16.9632 22.916 20.8579 0.170457 2.47931 75.1298
7795977 14.3927 16.9632 22.916 20.8579 0.170457 2.47931 75.1298
7795981 14.287 16.9263 22.9554 20.8287 0.170848 2.51422 74.9974
7795992 14.3047 16.8619 23.0145 20.8871 0.143147 2.5447 75.0681
7796003 14.3047 16.8619 23.0145 20.8871 0.143147 2.5447 75.0681
7796013 14.2078 16.779 23.1228 20.9845 0.144148 2.62082 75.094
7796023 14.1813 16.7882 23.1917 20.9748 0.129753 2.63461 75.136
7796031 14.1813 16.7882 23.1917 20.9748 0.129753 2.63461 75.136
7796046 14.0933 16.7329 23.2507 21.0819 0.156632 2.69558 75.1589
7796051 14.0933 16.7329 23.2507 21.0819 0.156632 2.69558 75.1589
7796061 13.9611 16.6132 23.3295 21.1112 0.144565 2.77271 75.015
7796071 13.9083 16.5119 23.4181 21.2378 0.140986 2.84425 75.0761
7796081 13.9083 16.5119 23.4181 21.2378 0.140986 2.84425 75.0761
7796091 13.8731 16.4659 23.5362 21.3255 0.127035 2.8968 75.2006
7796101 13.7585 16.4475 23.5953 21.3255 0.139484 2.93798 75.1268
7796122 13.7057 16.4106 23.6346 21.3937 0.154364 2.97666 75.1446
7796149 13.7057 16.4106 23.6346 21.3937 0.154364 2.97666 75.1446
7796152 13.7321 16.3093 23.6346 21.3645 0.102291 2.98992 75.0405
7796154 13.6793 16.3462 23.7134 21.4034 0.118756 3.01256 75.1422
7796163 13.6793 16.3462 23.7134 21.4034 0.118756 3.01256 75.1422
7796173 13.6264 16.2817 23.7035 21.4327 0.128058 3.04382 75.0443
7796182 13.6793 16.3369 23.7035 21.4132 0.122222 3.01475 75.1329
7796193 13.6793 16.3369 23.7035 21.4132 0.122222 3.01475 75.1329
7796203 13.6705 16.4382 23.674 21.4814 0.191045 2.99877 75.2641
7796215 13.6705 16.4382 23.674 21.4814 0.191045 2.99877 75.2641
7796223 13.6881 16.3277 23.6149 21.3255 0.116804 2.98666 74.9563
7796233 13.7057 16.4198 23.6838 21.4619 0.163466 2.99322 75.2713
7796243 13.7057 16.4198 23.6838 21.4619 0.163466 2.99322 75.2713
7796253 13.7145 16.4567 23.6346 21.4424 0.182709 2.97134 75.2482
7796263 13.6793 16.3738 23.6248 21.4619 0.176877 3.00113 75.1397
7796273 13.6793 16.3738 23.6248 21.4619 0.176877 3.00113 75.1397
7796283 13.7057 16.383 23.6149 21.4327 0.164706 2.98636 75.1363
7796293 13.7057 16.383 23.6149 21.4327 0.164706 2.98636 75.1363
7796303 13.6352 16.3369 23.6149 21.3742 0.153744 3.00494 74.9613
7796313 13.7321 16.3277 23.5362 21.3352 0.131676 2.96503 74.9313
7796323 13.7321 16.3277 23.5362 21.3352 0.131676 2.96503 74.9313
7796334 13.7585 16.4198 23.4378 21.2963 0.17347 2.91454 74.9124
7796342 13.8026 16.4475 23.3885 21.267 0.174677 2.88474 74.9056
7796355 13.8026 16.4475 23.3885 21.267 0.174677 2.88474 74.9056
7796363 13.8026 16.5395 23.4378 21.1794 0.159609 2.85655 74.9593
7796373 13.8026 16.5395 23.4378 21.1794 0.159609 2.85655 74.9593
7796383 13.9171 16.6224 23.3885 21.1112 0.142586 2.79058 75.0392
7796393 13.9788 16.6501 23.2901 21.1404 0.173733 2.75816 75.0593
7796420 14.0492 16.7237 23.3393 21.0819 0.138685 2.72261 75.1942
7796429 14.0492 16.7237 23.3393 21.0819 0.138685 2.72261 75.1942
7796438 13.9788 16.7145 23.359 21.0625 0.146183 2.74144 75.1147
7796442 13.9964 16.6869 23.2999 21.0819 0.157368 2.73735 75.0652
7796465 14.0228 16.6501 23.3295 21.0625 0.119978 2.74145 75.0648
7796473 14.0316 16.6777 23.359 21.1404 0.142097 2.75037 75.2087
7796489 14.0316 16.6777 23.359 21.1404 0.142097 2.75037 75.2087
7796494 13.9699 16.6593 23.4082 21.1404 0.140169 2.7773 75.1778
7796504 13.9699 16.6593 23.4082 21.1404 0.140169 2.7773 75.1778
7796514 13.9788 16.5948 23.4181 21.1307 0.109366 2.79048 75.1223
7796524 13.9435 16.5948 23.4574 21.1307 0.10798 2.80523 75.1264
7796535 13.9435 16.5948 23.4574 21.1307 0.10798 2.80523 75.1264
7796544 13.9083 16.558 23.5263 21.1696 0.0974417 2.8398 75.1622
7796557 13.8554 16.5119 23.4771 21.1599 0.113073 2.85377 75.0044
7796578 13.8466 16.5395 23.487 21.1891 0.131574 2.85561 75.0623
7796584 13.8466 16.5395 23.487 21.1891 0.131574 2.85561 75.0623
7796600 13.829 16.5395 23.4279 21.1404 0.141126 2.84234 74.9369
7796605 13.8466 16.4751 23.487 21.1307 0.0907838 2.8615 74.9393
7796615 13.8466 16.4751 23.487 21.1307 0.0907838 2.8615 74.9393
7796625 13.8114 16.429 23.4574 21.1501 0.103655 2.87926 74.848
7796638 13.8466 16.4751 23.5756 21.1794 0.07734 2.8837 75.0766
7796645 13.8466 16.4751 23.5756 21.1794 0.07734 2.8837 75.0766
7796655 13.7674 16.383 23.5953 21.2476 0.0893235 2.93876 74.9932
7796665 13.7674 16.383 23.5953 21.2476 0.0893235 2.93876 74.9932
7796675 13.7762 16.3922 23.6445 21.2865 0.0859201 2.94862 75.0994
7796685 13.785 16.4475 23.7035 21.4229 0.126684 2.96462 75.3589
7796695 13.785 16.4475 23.7035 21.4229 0.126684 2.96462 75.3589
7796705 13.7674 16.4475 23.6149 21.384 0.14928 2.94842 75.2137
7796715 13.785 16.3738 23.6543 21.345 0.0929624 2.96186 75.1581
7796725 13.785 16.3738 23.6543 21.345 0.0929624 2.96186 75.1581
7796735 13.8378 16.3369 23.6346 21.306 0.0567496 2.94864 75.1154
7796746 13.8378 16.3369 23.6346 21.306 0.0567496 2.94864 75.1154
7796756 13.8114 16.3277 23.5953 21.3352 0.0853658 2.95553 75.0696
7796765 13.8026 16.3185 23.5657 21.2963 0.0821859 2.94884 74.9831
7796775 13.8026 16.3185 23.5657 21.2963 0.0821859 2.94884 74.9831
7796785 13.8114 16.3277 23.5657 21.2768 0.0758231 2.9414 74.9816
7796795 13.785 16.2449 23.5657 21.306 0.0668138 2.97228 74.9016
7796805 13.785 16.2449 23.5657 21.306 0.0668138 2.97228 74.9016
7796815 13.7762 16.3093 23.6543 21.3937 0.0906795 2.98719 75.1335
7796826 13.7762 16.3093 23.6543 21.3937 0.0906795 2.98719 75.1335
7796835 13.7409 16.1988 23.7134 21.4716 0.0719249 3.04399 75.1247
7796849 13.7321 16.2264 23.7528 21.4814 0.0741214 3.04728 75.1927
7796855 13.7321 16.2264 23.7528 21.4814 0.0741214 3.04728 75.1927
7796866 13.6969 16.2356 23.7724 21.5301 0.0984907 3.06439 75.2351
7796876 13.6881 16.1159 23.7528 21.5496 0.074783 3.09527 75.1063
7796886 13.6881 16.1159 23.7528 21.5496 0.074783 3.09527 75.1063
7796896 13.7409 16.2264 23.7429 21.5398 0.0938296 3.05289 75.2501
7796906 13.7409 16.2264 23.7429 21.5398 0.0938296 3.05289 75.2501
7796916 13.6881 16.1896 23.7921 21.5788 0.0957429 3.08841 75.2486
7796930 13.7409 16.1896 23.7626 21.4911 0.0589192 3.05713 75.1842
7796946 13.7057 16.208 23.7035 21.5106 0.102952 3.05488 75.1279
7796958 13.6881 16.162 23.7724 21.4619 0.0543863 3.0734 75.0844
7796967 13.6881 16.162 23.7724 21.4619 0.0543863 3.0734 75.0844
7796978 13.7057 16.1896 23.7823 21.4716 0.0576347 3.06562 75.1492
7797000 13.6969 16.1804 23.6937 21.5496 0.112945 3.06826 75.1205
7797008 13.7321 16.1988 23.7429 21.5496 0.0908434 3.06318 75.2234
7797022 13.7321 16.1988 23.7429 21.5496 0.0908434 3.06318 75.2234
7797028 13.7145 16.1436 23.7134 21.5203 0.0785738 3.07137 75.0918
7797038 13.7057 16.1528 23.8217 21.4814 0.0355184 3.08228 75.1615
7797056 13.7057 16.1528 23.8217 21.4814 0.0355184 3.08228 75.1615
7797057 13.7497 16.2264 23.6838 21.5009 0.097692 3.0352 75.1609
7797073 13.7497 16.2264 23.6838 21.5009 0.097692 3.0352 75.1609
7797079 13.8378 16.2356 23.6248 21.4229 0.0652164 2.99002 75.1212
7797089 13.8026 16.3277 23.546 21.3352 0.104767 2.94973 75.0116
7797099 13.8026 16.3277 23.546 21.3352 0.104767 2.94973 75.0116
7797110 13.8819 16.4106 23.5067 21.2573 0.0930607 2.89212 75.0564
7797119 13.8466 16.429 23.3984 21.1599 0.114891 2.86286 74.8339
7797139 13.9259 16.4751 23.3492 21.1794 0.126582 2.82817 74.9295
7797149 13.9259 16.4751 23.3492 21.1794 0.126582 2.82817 74.9295
7797159 13.9347 16.4198 23.3393 21.1989 0.115049 2.84079 74.8927
7797169 13.9435 16.4751 23.3984 21.2183 0.117117 2.83828 75.0353
7797190 13.9611 16.5488 23.4279 21.1404 0.0999302 2.80875 75.0782
7797203 13.9699 16.5672 23.4279 21.1891 0.11923 2.8102 75.1541
7797220 14.0316 16.5948 23.4574 21.2086 0.104374 2.79702 75.2924
7797230 14.0316 16.5948 23.4574 21.2086 0.104374 2.79702 75.2924
7797240 14.0668 16.6685 23.3393 21.0819 0.114515 2.73149 75.1566
7797250 14.1109 16.7329 23.2704 21.043 0.131264 2.68828 75.1572
7797261 14.1109 16.7329 23.2704 21.043 0.131264 2.68828 75.1572
7797271 14.1637 16.7145 23.2015 20.965 0.10471 2.65607 75.0448
7797281 14.1813 16.6961 23.1129 20.9456 0.115898 2.63846 74.9359
7797291 14.1813 16.6961 23.1129 20.9456 0.115898 2.63846 74.9359
7797301 14.1637 16.8158 23.1523 20.8871 0.128937 2.61131 75.0189
7797311 14.1637 16.8158 23.1523 20.8871 0.128937 2.61131 75.0189
7797321 14.1902 16.6869 23.0834 20.8968 0.103599 2.62563 74.8573
7797331 14.243 16.7974 23.0932 20.8968 0.11929 2.58888 75.0305
7797341 14.243 16.7974 23.0932 20.8968 0.11929 2.58888 75.0305
7797351 14.2694 16.8527 23.044 20.8481 0.129092 2.55353 75.0142
7797363 14.2959 16.8895 23.1031 20.7799 0.0900865 2.53722 75.0684
7797374 14.2959 16.8895 23.1031 20.7799 0.0900865 2.53722 75.0684
7797383 14.3047 16.9355 23.0342 20.7507 0.115767 2.5081 75.0251
7797396 14.3047 16.9355 23.0342 20.7507 0.115767 2.5081 75.0251
7797403 14.2959 16.9447 23.0046 20.702 0.115505 2.49496 74.9472
7797413 14.3223 16.9724 23.0046 20.702 0.115821 2.48235 75.0013
7797423 14.3223 16.9724 23.0046 20.702 0.115821 2.48235 75.0013
7797432 14.2606 16.9355 22.916 20.7215 0.160477 2.4938 74.8337
7797443 14.2342 16.9355 22.9751 20.7215 0.149509 2.50985 74.8663
7797453 14.2342 16.9355 22.9751 20.7215 0.149509 2.50985 74.8663
7797464 14.2782 16.8895 22.9554 20.7507 0.135747 2.51191 74.8739
7797473 14.2782 16.8895 22.9554 20.7507 0.135747 2.51191 74.8739
7797483 14.2518 16.9171 23.0046 20.8287 0.163105 2.5328 75.0022
7797493 14.3047 16.954 23.1424 20.8481 0.117937 2.53796 75.2492
7797503 14.3047 16.954 23.1424 20.8481 0.117937 2.53796 75.2492
7797513 14.2166 16.8342 23.0145 20.8871 0.163534 2.57178 74.9524
7797523 14.243 16.8527 23.0834 20.8579 0.127986 2.56786 75.0369
7797533 14.243 16.8527 23.0834 20.8579 0.127986 2.56786 75.0369
7797543 14.2254 16.8342 23.1031 20.9163 0.140557 2.58923 75.079
7797564 14.1549 16.7882 23.1424 20.9163 0.135714 2.62307 75.0019
7797574 14.1813 16.7974 23.1129 20.8774 0.126886 2.60338 74.969
7797594 14.1902 16.7145 23.0932 20.8676 0.0997633 2.61592 74.8655
7797604 14.2518 16.8066 23.0539 20.8287 0.109953 2.56684 74.9409
7797616 14.2518 16.8066 23.0539 20.8287 0.109953 2.56684 74.9409
7797624 14.2782 16.8434 22.9751 20.8481 0.146186 2.54218 74.9449
7797634 14.2782 16.8434 22.9751 20.8481 0.146186 2.54218 74.9449
7797644 14.287 16.8711 22.9554 20.7702 0.133145 2.5174 74.8837
7797657 14.3311 16.9724 22.9554 20.8092 0.164863 2.48997 75.068
7797664 14.3311 16.9724 22.9554 20.8092 0.164863 2.48997 75.068
7797680 14.3839 17.0097 22.9456 20.8189 0.166026 2.46896 75.1581
7797685 14.4104 17.0292 22.8668 20.6728 0.14163 2.42068 74.9791
7797713 14.4456 17.1556 22.7487 20.6728 0.211301 2.36334 75.0227
7797715 14.4456 17.1556 22.7487 20.6728 0.211301 2.36334 75.0227
7797725 14.4632 17.1362 22.7389 20.5948 0.176468 2.34896 74.9331
7797735 14.5073 17.1556 22.7192 20.5072 0.145668 2.31612 74.8892
7797747 14.5073 17.1556 22.7192 20.5072 0.145668 2.31612 74.8892
7797755 14.5249 17.214 22.6798 20.4779 0.162634 2.28693 74.8966
7797770 14.5865 17.3112 22.5912 20.4487 0.194228 2.23029 74.9377
7797775 14.5865 17.3112 22.5912 20.4487 0.194228 2.23029 74.9377
7797786 14.6218 17.3307 22.5814 20.439 0.188905 2.21439 74.9727
7797805 14.613 17.4085 22.542 20.3415 0.198615 2.17518 74.9049
7797816 14.6922 17.4474 22.4435 20.3805 0.230816 2.13793 74.9637
7797826 14.6922 17.4474 22.4435 20.3805 0.230816 2.13793 74.9637
7797841 14.7098 17.5446 22.3943 20.2636 0.234964 2.08313 74.9124
7797846 14.7275 17.4863 22.286 20.2831 0.252685 2.0771 74.7829
7797856 14.7275 17.4863 22.286 20.2831 0.252685 2.0771 74.7829
7797866 14.8244 17.6127 22.2664 20.2052 0.242677 2.00934 74.9086
7797879 14.8244 17.6127 22.2664 20.2052 0.242677 2.00934 74.9086
7797889 14.8244 17.7002 22.2565 20.1662 0.262034 1.98102 74.9473
7797901 14.8332 17.7197 22.2959 20.2441 0.277907 1.99496 75.0929
7797907 14.8332 17.7197 22.2959 20.2441 0.277907 1.99496 75.0929
7797919 14.886 17.7391 22.2762 20.059 0.212091 1.94304 74.9604
7797927 14.9477 17.7489 22.2171 20.0688 0.217655 1.91832 74.9824
7797938 14.9477 17.7489 22.2171 20.0688 0.217655 1.91832 74.9824
7797948 14.9829 17.7683 22.2073 20.0785 0.218764 1.90598 75.037
7797960 14.9389 17.7878 22.0695 19.9129 0.231671 1.85836 74.709
7797968 14.9389 17.7878 22.0695 19.9129 0.231671 1.85836 74.709
7797982 14.9829 17.8558 22.0104 19.8739 0.246388 1.81583 74.7231
7797997 15.0093 17.8753 21.9317 19.7862 0.241458 1.77607 74.6025
7798008 15.0886 17.8947 21.9514 19.7765 0.211239 1.75567 74.7112
7798028 15.1415 18.0309 21.9317 19.6888 0.216126 1.69431 74.7928
7798038 15.1415 18.0309 21.9317 19.6888 0.216126 1.69431 74.7928
7798052 15.1943 18.1087 21.8135 19.6596 0.254241 1.63892 74.7761
7798059 15.2383 18.1379 21.8234 19.7083 0.261807 1.6331 74.9079
7798073 15.2383 18.1379 21.8234 19.7083 0.261807 1.6331 74.9079
7798079 15.2736 18.1768 21.8431 19.6206 0.227177 1.60451 74.9141
7798089 15.2912 18.1768 21.8332 19.7278 0.259948 1.61799 75.029
7798101 15.2912 18.1768 21.8332 19.7278 0.259948 1.61799 75.029
7798109 15.3705 18.167 21.8529 19.6499 0.197729 1.5922 75.0403
7798120 15.3705 18.167 21.8529 19.6499 0.197729 1.5922 75.0403
7798129 15.3881 18.1962 21.7545 19.5817 0.211996 1.55202 74.9205
7798139 15.4233 18.3129 21.7348 19.533 0.229239 1.50622 75.004
7798149 15.4233 18.3129 21.7348 19.533 0.229239 1.50622 75.004
7798159 15.3969 18.3227 21.6167 19.4648 0.258633 1.47629 74.801
7798169 15.4233 18.4005 21.5478 19.4648 0.298691 1.4409 74.8363
7798189 15.3969 18.4685 21.5182 19.4063 0.320801 1.41579 74.79
7798204 15.3969 18.4685 21.5182 19.4063 0.320801 1.41579 74.79
7798209 15.4674 18.3616 21.5871 19.4258 0.244796 1.43984 74.8419
7798219 15.5114 18.3907 21.6068 19.3966 0.2233 1.42204 74.9055
7798229 15.5114 18.3907 21.6068 19.3966 0.2233 1.42204 74.9055
7798239 15.5642 18.3907 21.5576 19.3381 0.20273 1.39092 74.8507
7798250 15.5466 18.4588 21.469 19.2504 0.232047 1.34775 74.7249
7798259 15.5466 18.4588 21.469 19.2504 0.232047 1.34775 74.7249
7798275 15.6347 18.5074 21.5182 19.2212 0.192198 1.32154 74.8816
7798279 15.6347 18.5074 21.5182 19.2212 0.192198 1.32154 74.8816
7798289 15.6611 18.5658 21.3509 19.1043 0.220284 1.25095 74.6821
7798300 15.6523 18.6728 21.4001 19.0556 0.225961 1.22971 74.7808
7798309 15.6523 18.6728 21.4001 19.0556 0.225961 1.22971 74.7808
7798324 15.6876 18.6339 21.3411 18.9776 0.195238 1.20524 74.6401
7798336 15.7052 18.6241 21.3804 19.0458 0.195429 1.22338 74.7556
7798347 15.7052 18.6241 21.3804 19.0458 0.195429 1.22338 74.7556
7798354 15.7228 18.6922 21.3115 19.0653 0.241747 1.19569 74.7919
7798360 15.7228 18.6922 21.3115 19.0653 0.241747 1.19569 74.7919
7798372 15.7316 18.663 21.3115 19.0556 0.225884 1.1983 74.7618
7798380 15.7933 18.7214 21.3804 19.0751 0.207675 1.18864 74.9702
7798400 15.7668 18.7117 21.3411 19.0458 0.216931 1.1838 74.8654
7798410 15.7845 18.6436 21.3312 19.0069 0.178823 1.18571 74.7661
7798421 15.7845 18.6436 21.3312 19.0069 0.178823 1.18571 74.7661
7798431 15.8197 18.8089 21.3509 18.9095 0.18287 1.12802 74.889
7798444 15.8197 18.8089 21.3509 18.9095 0.18287 1.12802 74.889
7798450 15.8373 18.6825 21.2525 18.9289 0.174585 1.13685 74.7012
7798460 15.7933 18.7895 21.2525 18.9679 0.237846 1.13049 74.8031
7798470 15.7933 18.7895 21.2525 18.9679 0.237846 1.13049 74.8031
7798480 15.8549 18.7603 21.2426 19.0069 0.223616 1.12889 74.8647
7798492 15.8549 18.7603 21.2426 19.0069 0.223616 1.12889 74.8647
7798500 15.8197 18.6436 21.282 18.8705 0.138175 1.1437 74.6158
7798517 15.8373 18.6922 21.3017 18.9776 0.177413 1.1529 74.8089
7798520 15.8373 18.6922 21.3017 18.9776 0.177413 1.1529 74.8089
7798533 15.8461 18.7311 21.3214 18.9192 0.161338 1.13542 74.8178
7798542 15.8637 18.6533 21.3115 19.0166 0.165236 1.16462 74.8452
7798551 15.8637 18.6533 21.3115 19.0166 0.165236 1.16462 74.8452
7798567 15.8109 18.7019 21.3115 18.9679 0.182989 1.15653 74.7923
7798571 15.7933 18.663 21.4001 18.9874 0.152671 1.18872 74.8438
7798592 15.8197 18.7019 21.3903 18.9776 0.156775 1.17098 74.8896
7798601 15.8197 18.7019 21.3903 18.9776 0.156775 1.17098 74.8896
7798614 15.7228 18.6144 21.3509 18.9387 0.160602 1.19643 74.6268
7798623 15.7933 18.6825 21.3903 19.0264 0.175357 1.18988 74.8924
7798642 15.7756 18.663 21.4395 19.0166 0.155061 1.20517 74.8948
7798653 15.7933 18.6047 21.4395 19.0361 0.136241 1.21758 74.8736
7798662 15.7933 18.6047 21.4395 19.0361 0.136241 1.21758 74.8736
7798673 15.7404 18.5561 21.4789 19.0264 0.12137 1.24504 74.8017
7798693 15.7404 18.5463 21.4887 19.0264 0.114828 1.24896 74.8018
7798705 15.714 18.5172 21.5084 19.0458 0.113866 1.26825 74.7854
7798727 15.7228 18.5269 21.4789 18.9679 0.0981063 1.24445 74.6965
7798733 15.6964 18.5269 21.5478 19.0848 0.122756 1.28433 74.8558
7798743 15.6964 18.4783 21.5478 19.0848 0.106582 1.29492 74.8072
7798753 15.7052 18.5366 21.5871 19.1628 0.135693 1.30176 74.9917
7798773 15.6435 18.4588 21.6364 19.1628 0.114042 1.34112 74.9014
7798784 15.6788 18.4394 21.6364 19.1725 0.0990093 1.33945 74.927
7798804 15.6435 18.4296 21.6561 19.1433 0.0912637 1.34752 74.8725
7798816 15.5819 18.3227 21.6954 19.2309 0.0923127 1.40754 74.8309
7798824 15.5819 18.3227 21.6954 19.2309 0.0923127 1.40754 74.8309
7798838 15.6171 18.3129 21.725 19.192 0.0543952 1.40024 74.847
7798844 15.6171 18.3129 21.725 19.192 0.0543952 1.40024 74.847
7798855 15.5642 18.2449 21.7053 19.1822 0.0527352 1.42143 74.6966
7798864 15.5995 18.2449 21.725 19.2602 0.0603318 1.43141 74.8295
7798884 15.5907 18.1962 21.6462 19.1628 0.0409186 1.41202 74.5959
7798895 15.5731 18.2059 21.6462 19.2407 0.07613 1.42794 74.6659
7798905 15.5731 18.2059 21.6462 19.2407 0.07613 1.42794 74.6659
7798915 15.5466 18.2059 21.7151 19.2699 0.0716239 1.45157 74.7376
7798935 15.5554 18.1573 21.725 19.3186 0.0653952 1.47094 74.7563
7798949 15.5907 18.1476 21.7545 19.3576 0.0534475 1.47771 74.8504
7798956 15.5907 18.1476 21.7545 19.3576 0.0534475 1.47771 74.8504
7798972 15.6171 18.1865 21.7348 19.3771 0.0706375 1.46331 74.9155
7798976 15.5642 18.1865 21.7446 19.416 0.098002 1.48374 74.9114
7798997 15.5642 18.1865 21.7446 19.416 0.098002 1.48374 74.9114
7798998 15.6611 18.1281 21.8332 19.4355 0.0230819 1.49474 75.0581
7799013 15.6611 18.1281 21.8332 19.4355 0.0230819 1.49474 75.0581
7799017 15.5819 18.0892 21.6757 19.3479 0.0600755 1.47651 74.6947
7799026 15.6611 18.1184 21.7446 19.416 0.0429332 1.4774 74.9402
7799038 15.6611 18.1184 21.7446 19.416 0.0429332 1.4774 74.9402
7799048 15.5907 18.0892 21.6265 19.3673 0.0801474 1.46918 74.6738
7799057 15.6788 18.167 21.5871 19.3284 0.0767499 1.41846 74.7613
7799069 15.6788 18.167 21.5871 19.3284 0.0767499 1.41846 74.7613
7799079 15.6611 18.3032 21.597 19.3381 0.127897 1.39602 74.8994
7799088 15.6611 18.3032 21.597 19.3381 0.127897 1.39602 74.8994
7799103 15.6347 18.2059 21.597 19.3186 0.0979424 1.4196 74.7563
7799108 15.6876 18.2254 21.597 19.3381 0.093174 1.40728 74.8481
7799117 15.6876 18.2254 21.597 19.3381 0.093174 1.40728 74.8481
7799128 15.7228 18.3227 21.5379 19.2699 0.110829 1.35513 74.8533
7799138 15.6611 18.3421 21.4789 19.153 0.11895 1.33221 74.6351
7799150 15.6611 18.3421 21.4789 19.153 0.11895 1.33221 74.6351
7799159 15.7228 18.3324 21.469 19.1822 0.108021 1.3244 74.7064
7799171 15.7228 18.3324 21.469 19.1822 0.108021 1.3244 74.7064
7799179 15.7845 18.4491 21.4493 19.1335 0.11656 1.27298 74.8164
7799193 15.8549 18.4977 21.3312 19.0264 0.113082 1.20565 74.7102
7799199 15.8549 18.4977 21.3312 19.0264 0.113082 1.20565 74.7102
7799216 15.8197 18.595 21.2229 18.8802 0.145125 1.14506 74.5178
7799219 15.9078 18.6825 21.154 18.9387 0.187251 1.10516 74.683
7799229 15.9078 18.6825 21.154 18.9387 0.187251 1.10516 74.683
7799239 15.9342 18.7506 21.1737 18.9387 0.194308 1.08847 74.7972
7799260 15.9254 18.7214 21.1442 18.8997 0.18461 1.08389 74.6907
7799269 15.9518 18.7603 21.1147 18.8997 0.198573 1.06433 74.7265
7799282 15.9518 18.7603 21.1147 18.8997 0.198573 1.06433 74.7265
7799290 15.9518 18.8673 21.0851 18.9095 0.247213 1.03768 74.8137
7799305 15.9959 18.8186 21.0753 18.9095 0.219578 1.03682 74.7992
7799310 15.9959 18.8186 21.0753 18.9095 0.219578 1.03682 74.7992
7799320 15.9959 18.877 21.0359 18.9192 0.2554 1.01879 74.828
7799330 15.9959 18.877 21.0359 18.9192 0.2554 1.01879 74.828
7799340 15.9518 18.877 21.0162 18.8607 0.257584 1.0136 74.7058
7799350 15.9078 18.8576 21.0359 18.9192 0.278732 1.04184 74.7204
7799373 15.9078 18.8284 21.095 18.9776 0.268444 1.07002 74.8088
7799381 15.8725 18.7603 21.095 18.9776 0.257829 1.09225 74.7054
7799394 15.8725 18.7603 21.095 18.9776 0.257829 1.09225 74.7054
7799401 15.8902 18.7408 21.1343 19.1043 0.274026 1.12348 74.8696
7799416 15.8902 18.7408 21.1343 19.1043 0.274026 1.12348 74.8696
7799421 15.8461 18.663 21.1245 19.1238 0.272956 1.15155 74.7574
7799431 15.8021 18.6825 21.2426 19.1238 0.254369 1.17871 74.851
7799441 15.8021 18.6825 21.2426 19.1238 0.254369 1.17871 74.851
7799451 15.7492 18.5463 21.2131 19.1725 0.253254 1.2232 74.6811
7799461 15.7668 18.6533 21.2426 19.1822 0.275937 1.20342 74.845
7799471 15.7668 18.6533 21.2426 19.1822 0.275937 1.20342 74.845
7799483 15.7492 18.6922 21.2426 19.2309 0.310794 1.20779 74.915
7799491 15.7492 18.6922 21.2426 19.2309 0.310794 1.20779 74.915
7799504 15.7492 18.6144 21.2721 19.2115 0.268716 1.22649 74.8473
7799514 15.6964 18.5366 21.2623 19.2309 0.270614 1.25664 74.7262
7799521 15.6964 18.5366 21.2623 19.2309 0.270614 1.25664 74.7262
7799531 15.7052 18.5463 21.2918 19.2894 0.280201 1.26877 74.8327
7799541 15.6435 18.4685 21.3706 19.2797 0.245473 1.31179 74.7623
7799551 15.6435 18.4685 21.3706 19.2797 0.245473 1.31179 74.7623
7799561 15.6171 18.3907 21.3804 19.3771 0.257567 1.35417 74.7653
7799581 15.529 18.381 21.4493 19.4453 0.283381 1.40057 74.8046
7799594 15.5907 18.3324 21.4493 19.5719 0.288314 1.4207 74.9443
7799602 15.5907 18.3324 21.4493 19.5719 0.288314 1.4207 74.9443
7799616 15.5378 18.3129 21.4986 19.533 0.270259 1.43841 74.8823
7799631 15.485 18.3129 21.5379 19.6109 0.300521 1.47123 74.9467
7799632 15.485 18.3129 21.5379 19.6109 0.300521 1.47123 74.9467
7799642 15.5202 18.2935 21.5576 19.6206 0.278792 1.47307 74.9919
7799653 15.5202 18.2935 21.5576 19.6206 0.278792 1.47307 74.9919
7799663 15.5026 18.167 21.5576 19.5817 0.230089 1.49774 74.8089
7799673 15.4057 18.1962 21.5281 19.6206 0.295338 1.51439 74.7506
7799683 15.4057 18.1962 21.5281 19.6206 0.295338 1.51439 74.7506
7799693 15.4057 18.2157 21.5478 19.6499 0.304756 1.51892 74.819
7799703 15.4145 18.167 21.5675 19.7181 0.301582 1.54353 74.8671
7799713 15.4145 18.167 21.5675 19.7181 0.301582 1.54353 74.8671
7799725 15.4057 18.2157 21.6167 19.757 0.316793 1.55057 74.9951
7799734 15.4057 18.2157 21.6167 19.757 0.316793 1.55057 74.9951
7799747 15.4145 18.167 21.6068 19.7473 0.297919 1.55585 74.9357
7799754 15.4233 18.1865 21.6462 19.7181 0.278437 1.55142 74.9741
7799764 15.4233 18.1865 21.6462 19.7181 0.278437 1.55142 74.9741
7799774 15.4585 18.2254 21.5379 19.6693 0.299859 1.50685 74.8912
7799786 15.3881 18.2449 21.5478 19.6693 0.326765 1.51987 74.8501
7799794 15.3881 18.2449 21.5478 19.6693 0.326765 1.51987 74.8501
7799804 15.4145 18.2449 21.4887 19.5817 0.30888 1.48756 74.7297
7799816 15.4145 18.2449 21.4887 19.5817 0.30888 1.48756 74.7297
7799824 15.3969 18.2059 21.4592 19.5914 0.315219 1.49646 74.6534
7799839 15.3793 18.1865 21.5478 19.6206 0.294405 1.52593 74.7342
7799844 15.3793 18.1865 21.5478 19.6206 0.294405 1.52593 74.7342
7799854 15.3705 18.2254 21.4789 19.6401 0.340024 1.51037 74.7148
7799864 15.3617 18.1768 21.6167 19.6986 0.299588 1.5584 74.8537
7799874 15.3617 18.1768 21.6167 19.6986 0.299588 1.5584 74.8537
7799885 15.3617 18.2449 21.5478 19.7862 0.374186 1.54673 74.9405
7799906 15.3352 18.1281 21.6068 19.8447 0.343981 1.59944 74.9149
7799915 15.2912 18.1379 21.6757 19.9129 0.361192 1.63153 75.0177
7799935 15.3352 18.167 21.7151 19.8155 0.310588 1.60496 75.0329
7799945 15.2736 18.0698 21.6659 19.8155 0.316006 1.63141 74.8247
7799955 15.2736 18.0698 21.6659 19.8155 0.316006 1.63141 74.8247
7799965 15.2207 18.0601 21.7348 19.8642 0.323427 1.66631 74.8798
7799975 15.2207 18.0601 21.7348 19.8642 0.323427 1.66631 74.8798
7799985 15.2207 17.9628 21.7446 19.9616 0.320154 1.70705 74.8898
7799997 15.2119 18.0017 21.8135 19.9908 0.322282 1.71774 75.018
7800005 15.2119 18.0017 21.8135 19.9908 0.322282 1.71774 75.018
7800017 15.1238 17.9628 21.784 20.0006 0.352451 1.74258 74.8712
7800031 15.1326 17.885 21.9021 20.1175 0.322407 1.7995 75.0373
7800040 15.1326 17.885 21.9021 20.1175 0.322407 1.7995 75.0373
7800046 15.0446 17.7975 21.9021 20.1175 0.323349 1.83891 74.8617
7800063 14.9741 17.7975 21.912 20.1857 0.36633 1.86847 74.8692
7800068 14.9741 17.8072 21.912 20.1857 0.369528 1.86628 74.879
7800078 14.9829 17.7294 22.0203 20.2344 0.320348 1.90931 74.967
7800088 14.9829 17.7294 22.0203 20.2344 0.320348 1.90931 74.967
7800105 14.9124 17.6711 22.0301 20.3026 0.34408 1.95202 74.9162
7800120 14.8772 17.5933 22.0892 20.2539 0.294313 1.97944 74.8135
7800127 14.8332 17.4571 22.1975 20.3026 0.243703 2.04768 74.7903
7800138 14.8332 17.4571 22.1975 20.3026 0.243703 2.04768 74.7903
7800148 14.8155 17.4571 22.1975 20.3805 0.275421 2.06518 74.8506
7800158 14.7627 17.4085 22.4239 20.4877 0.23627 2.14571 75.0827
7800178 14.6306 17.3112 22.4239 20.6436 0.300077 2.22485 75.0092
7800189 14.6922 17.2626 22.5124 20.6533 0.236687 2.23859 75.1206
7800200 14.6922 17.2626 22.5124 20.6533 0.236687 2.23859 75.1206
7800210 14.657 17.214 22.6207 20.7117 0.215408 2.2861 75.2034
7800219 14.657 17.214 22.6207 20.7117 0.215408 2.2861 75.2034
7800254 14.5513 17.1751 22.6404 20.7507 0.244305 2.32931 75.1175
7800255 14.4808 17.0584 22.6404 20.741 0.226265 2.37095 74.9206
7800264 14.4368 17 22.6995 20.741 0.201899 2.40467 74.8772
7800275 14.4104 16.9355 22.7585 20.8871 0.217935 2.46023 74.9915
7800280 14.4104 16.9355 22.7585 20.8871 0.217935 2.46023 74.9915
7800292 14.3575 16.8987 22.8373 20.9456 0.216374 2.50402 75.0391
7800300 14.3399 16.8895 22.8865 20.9261 0.196278 2.51523 75.042
7800321 14.3663 16.8987 22.9062 20.9553 0.193503 2.51505 75.1265
7800333 14.3663 16.8987 22.9062 20.9553 0.193503 2.51505 75.1265
7800341 14.3135 16.8066 22.916 20.9748 0.183937 2.55378 75.0109
7800351 14.3311 16.8158 22.916 20.965 0.177845 2.54588 75.028
7800365 14.3311 16.8158 22.916 20.965 0.177845 2.54588 75.028
7800371 14.3487 16.8527 22.9062 20.9358 0.17775 2.52667 75.0434
7800381 14.3047 16.8895 22.8471 20.9163 0.218132 2.51528 74.9576
7800391 14.3047 16.8895 22.8471 20.9163 0.218132 2.51528 74.9576
7800401 14.3751 16.9171 22.8865 20.9066 0.187144 2.49733 75.0853
7800412 14.3751 16.9171 22.8865 20.9066 0.187144 2.49733 75.0853
7800421 14.3399 16.8527 22.7487 20.8774 0.214326 2.49273 74.8186
7800437 14.3927 16.8803 22.8964 20.9066 0.165758 2.50345 75.076
7800441 14.3927 16.8803 22.8964 20.9066 0.165758 2.50345 75.076
7800451 14.4104 16.9355 22.8078 20.8481 0.188512 2.46194 75.0018
7800461 14.4016 16.8987 22.8767 20.8481 0.156155 2.48408 75.0251
7800471 14.4016 16.8987 22.8767 20.8481 0.156155 2.48408 75.0251
7800484 14.3927 16.9447 22.8964 20.7994 0.151622 2.47056 75.0333
7800491 14.3927 16.9447 22.8964 20.7994 0.151622 2.47056 75.0333
7800507 14.3311 16.9447 22.9456 20.7605 0.142881 2.48664 74.9819
7800511 14.3751 16.9079 22.916 20.741 0.119334 2.47678 74.94
7800523 14.3751 16.9079 22.916 20.741 0.119334 2.47678 74.94
7800531 14.4104 16.9816 22.916 20.7507 0.135195 2.45304 75.0587
7800541 14.4104 16.9816 22.916 20.7507 0.135195 2.45304 75.0587
7800554 14.3839 16.9355 22.8767 20.6923 0.122583 2.45354 74.8884
7800561 14.4632 17.0195 22.8668 20.7312 0.140065 2.42047 75.0807
7800577 14.4632 17.0195 22.8668 20.7312 0.140065 2.42047 75.0807
7800581 14.4368 16.9816 22.8373 20.702 0.136581 2.42555 74.9577
7800591 14.4808 16.9447 22.8767 20.7215 0.102884 2.43375 75.0237
7800602 14.4808 16.9447 22.8767 20.7215 0.102884 2.43375 75.0237
7800612 14.4456 16.9632 22.9357 20.8092 0.130069 2.46218 75.1537
7800625 14.4456 16.9632 22.9357 20.8092 0.130069 2.46218 75.1537
7800631 14.4104 16.8711 22.9456 20.7702 0.0951171 2.48696 74.9972
7800642 14.4016 16.8434 23.0243 20.7312 0.0496 2.50209 75.0005
7800655 14.4016 16.8434 23.0243 20.7312 0.0496 2.50209 75.0005
7800663 14.4104 16.8987 22.9456 20.7312 0.0913501 2.47402 74.9859
7800673 14.4192 16.9079 22.9948 20.7507 0.0814766 2.48128 75.0726
7800692 14.4368 16.9447 23.044 20.6533 0.039041 2.46057 75.0788
7800704 14.3663 16.9171 22.9456 20.5656 0.0571012 2.45226 74.7946
7800714 14.3663 16.9171 22.9456 20.5656 0.0571012 2.45226 74.7946
7800725 14.3663 16.9171 22.9653 20.6046 0.0634998 2.4621 74.8533
7800736 14.3663 16.9171 22.9653 20.6046 0.0634998 2.4621 74.8533
7800744 14.428 16.8711 22.916 20.5169 0.0147074 2.43548 74.732
7800756 14.4192 16.8803 22.9456 20.5948 0.0368714 2.45343 74.8399
7800778 14.4016 16.9632 22.9948 20.6533 0.0733584 2.45625 75.0128
7800785 14.3663 16.954 22.9948 20.663 0.0853151 2.46823 74.9781
7800800 14.3663 16.954 22.9948 20.663 0.0853151 2.46823 74.9781
7800805 14.4016 16.8803 23.0637 20.7215 0.0454664 2.49844 75.067
7800815 14.4016 16.8803 23.0637 20.7215 0.0454664 2.49844 75.067
7800825 14.3663 16.8711 23.0243 20.7117 0.0640839 2.50062 74.9735
7800840 14.3839 16.8987 23.0145 20.6728 0.0577122 2.48192 74.9699
7800849 14.3839 16.8987 23.0145 20.6728 0.0577122 2.48192 74.9699
7800855 14.4016 16.9355 23.0145 20.663 0.0608355 2.4676 75.0146
7800865 14.4016 16.9355 23.0145 20.663 0.0608355 2.4676 75.0146
7800875 14.428 16.8527 23.0243 20.6923 0.0308752 2.48728 74.9972
7800885 14.4896 16.9263 22.9554 20.6143 0.0318736 2.43122 74.9857
7800895 14.4896 16.9263 22.9554 20.6143 0.0318736 2.43122 74.9857
7800913 14.4192 16.9908 22.8964 20.5461 0.0739455 2.41125 74.8524
7800915 14.4808 17.0292 22.8078 20.5364 0.0925064 2.37144 74.8542
7800926 14.4808 17.0292 22.8078 20.5364 0.0925064 2.37144 74.8542
7800936 14.5161 17.0584 22.8767 20.4974 0.0543833 2.36155 74.9485
7800948 14.5513 17.1264 22.7585 20.4 0.0723541 2.30119 74.8363
7800956 14.5513 17.1264 22.7585 20.4 0.0723541 2.30119 74.8363
7800966 14.5777 17.1653 22.7684 20.3805 0.0666738 2.28446 74.892
7800986 14.6306 17.1362 22.7684 20.3123 0.0165433 2.26741 74.8474
7800999 14.613 17.1459 22.7585 20.3903 0.0549495 2.2808 74.9076
7801009 14.613 17.1459 22.7585 20.3903 0.0549495 2.2808 74.9076
7801018 14.6746 17.1945 22.6896 20.3026 0.0443637 2.22874 74.8613
7801027 14.657 17.214 22.6798 20.3123 0.0632793 2.2283 74.8631
7801037 14.657 17.214 22.6798 20.3123 0.0632793 2.2283 74.8631
7801049 14.7803 17.2723 22.6503 20.2928 0.0448614 2.17822 74.9957
7801057 14.7803 17.2723 22.6503 20.2928 0.0448614 2.17822 74.9957
7801068 14.7363 17.1945 22.5814 20.2246 0.0339627 2.18271 74.7368
7801078 14.7539 17.2431 22.6306 20.2734 0.0440657 2.18426 74.9009
7801098 14.7979 17.2431 22.6503 20.3123 0.0357538 2.1842 75.0036
7801107 14.7891 17.1264 22.5814 20.2734 0.009799 2.19455 74.7703
7801117 14.7891 17.1264 22.5814 20.2734 0.009799 2.19455 74.7703
7801127 14.7979 17.1945 22.6207 20.2928 0.022921 2.18697 74.906
7801148 14.7627 17.2431 22.5912 20.2441 0.0445485 2.1705 74.8412
7801160 14.842 17.3209 22.6207 20.2149 0.0243783 2.13459 74.9985
7801169 14.842 17.3209 22.6207 20.2149 0.0243783 2.13459 74.9985
7801179 14.9124 17.282 22.542 20.2052 0.0109345 2.11218 74.9416
7801189 14.8332 17.3015 22.5518 20.2539 0.056836 2.13591 74.9403
7801202 14.8332 17.3015 22.5518 20.2539 0.056836 2.13591 74.9403
7801209 14.8244 17.282 22.5715 20.2831 0.0564545 2.15076 74.961
7801219 14.8244 17.282 22.5715 20.2831 0.0564545 2.15076 74.961
7801229 14.8596 17.2626 22.5715 20.1857 0.00572801 2.13043 74.8794
7801239 14.842 17.2237 22.542 20.2246 0.0215083 2.14499 74.8323
7801255 14.842 17.2237 22.542 20.2246 0.0215083 2.14499 74.8323
7801269 14.9124 17.3015 22.6306 20.2441 0.000867248 2.12964 75.0886
7801271 14.8155 17.2723 22.5814 20.2831 0.0528663 2.15669 74.9523
7801289 14.842 17.2723 22.5518 20.3513 0.076586 2.15727 75.0174
7801306 14.842 17.2723 22.5518 20.3513 0.076586 2.15727 75.0174
7801309 14.7627 17.2334 22.6306 20.2539 0.0313878 2.18114 74.8805
7801319 14.7627 17.2042 22.6306 20.3318 0.047636 2.20117 74.9293
7801334 14.7627 17.2042 22.6306 20.3318 0.047636 2.20117 74.9293
7801339 14.7539 17.1459 22.6306 20.4 0.0538588 2.22823 74.9303
7801360 14.7363 17.1653 22.6798 20.3805 0.0432819 2.23287 74.9619
7801369 14.701 17.107 22.7782 20.4195 0.0157326 2.27777 75.0057
7801389 14.6041 17.1362 22.7782 20.439 0.0642866 2.29668 74.9575
7801399 14.613 17.0486 22.7093 20.4877 0.0714809 2.31144 74.8586
7801415 14.613 17.0486 22.7093 20.4877 0.0714809 2.31144 74.8586
7801420 14.657 17.0973 22.7979 20.4877 0.0433177 2.30505 75.0398
7801430 14.657 17.0973 22.7979 20.4877 0.0433177 2.30505 75.0398
7801443 14.5777 17.0681 22.7093 20.5656 0.115675 2.32829 74.9207
7801450 14.6394 17.0292 22.8176 20.5169 0.029698 2.33309 75.0031
7801469 14.6394 17.0292 22.8176 20.5169 0.029698 2.33309 75.0031
7801471 14.5249 17.0584 22.8767 20.6338 0.0967532 2.38247 75.0937
7801480 14.5249 17.0195 22.857 20.6241 0.0871956 2.38654 75.0254
7801493 14.5249 17.0195 22.857 20.6241 0.0871956 2.38654 75.0254
7801501 14.5425 17 22.9062 20.663 0.0713438 2.40177 75.1117
7801515 14.5513 16.9632 22.8373 20.6143 0.0629991 2.38851 74.9661
7801521 14.5513 16.9632 22.8373 20.6143 0.0629991 2.38851 74.9661
7801536 14.4896 16.9724 22.8668 20.6338 0.0832826 2.40892 74.9626
7801545 14.4896 16.9724 22.8668 20.6338 0.0832826 2.40892 74.9626
7801558 14.5073 16.8987 22.8964 20.6241 0.0397593 2.42527 74.9264
7801563 14.5513 16.9447 22.8865 20.6241 0.0436664 2.40269 75.0066
7801574 14.5513 16.9447 22.8865 20.6241 0.0436664 2.40269 75.0066
7801583 14.5425 16.9171 22.8373 20.6046 0.0473708 2.3996 74.9015
7801593 14.4896 16.8987 22.7979 20.5851 0.0656158 2.40627 74.7714
7801602 14.4896 16.8987 22.7979 20.5851 0.0656158 2.40627 74.7714
7801613 14.5513 16.9079 22.8964 20.6143 0.024873 2.41126 74.9699
7801623 14.5513 16.9079 22.8964 20.6143 0.024873 2.41126 74.9699
7801632 14.4896 16.8342 22.8471 20.6046 0.0341177 2.43285 74.7756
7801644 14.5425 16.8711 22.916 20.6241 0.012213 2.42681 74.9537
7801667 14.5513 16.9079 22.916 20.6436 0.0280321 2.41947 75.0188
7801674 14.5513 16.8527 22.8964 20.6923 0.0324249 2.43717 74.9926
7801688 14.5513 16.8527 22.8964 20.6923 0.0324249 2.43717 74.9926
7801694 14.6218 16.9355 22.8767 20.6728 0.0365794 2.39502 75.1067
7801704 14.6218 16.9355 22.8767 20.6728 0.0365794 2.39502 75.1067
7801714 14.5513 16.9171 22.857 20.702 0.070259 2.41723 75.0274
7801724 14.5337 16.8434 22.8668 20.7117 0.0515938 2.44173 74.9557
7801736 14.5337 16.8434 22.8668 20.7117 0.0515938 2.44173 74.9557
7801744 14.4632 16.8342 22.8668 20.7117 0.0721037 2.46029 74.876
7801754 14.3839 16.8158 22.9653 20.7702 0.0790089 2.50931 74.9352
7801766 14.3839 16.8158 22.9653 20.7702 0.0790089 2.50931 74.9352
7801774 14.3839 16.7974 23.0243 20.8287 0.0725657 2.53317 75.0343
7801785 14.3839 16.7974 23.0243 20.8287 0.0725657 2.53317 75.0343
7801795 14.3663 16.7329 23.044 20.8579 0.0601619 2.56049 75.0011
7801808 14.4016 16.6869 23.0834 20.965 0.0555634 2.58727 75.1369
7801815 14.4016 16.6869 23.0834 20.965 0.0555634 2.58727 75.1369
7801825 14.4016 16.6408 23.0342 20.8774 0.0275135 2.57541 74.9539
7801835 14.3487 16.6777 23.044 20.8481 0.0444144 2.57595 74.9185
7801845 14.3487 16.6777 23.044 20.8481 0.0444144 2.57595 74.9185
7801858 14.3839 16.7053 23.044 20.9261 0.0677615 2.57413 75.0593
7801865 14.3839 16.7053 23.044 20.9261 0.0677615 2.57413 75.0593
7801881 14.3223 16.7053 23.0932 20.9358 0.0751525 2.59833 75.0566
7801885 14.3575 16.6869 23.0735 20.965 0.0735462 2.59596 75.083
7801896 14.3575 16.6869 23.0735 20.965 0.0735462 2.59596 75.083
7801907 14.3839 16.6777 23.044 20.9358 0.061816 2.58221 75.0414
7801915 14.3047 16.6501 23.0243 20.8871 0.0695199 2.59597 74.8661
7801935 14.3751 16.6777 22.9554 20.965 0.104097 2.57445 74.9733
7801956 14.2782 16.6316 22.9849 20.9163 0.0951648 2.60484 74.8112
7801966 14.287 16.6869 22.9653 21.0527 0.162455 2.60909 74.9919
7801978 14.287 16.6869 22.9653 21.0527 0.162455 2.60909 74.9919
7801986 14.2959 16.7514 22.9554 21.0235 0.174463 2.58544 75.0261
7802002 14.2694 16.6869 23.0145 21.1014 0.167978 2.62939 75.0722
7802008 14.2694 16.6869 23.0145 21.1014 0.167978 2.62939 75.0722
7802018 14.2518 16.7237 23.0243 21.0722 0.173101 2.62168 75.0721
7802028 14.2518 16.7237 23.0243 21.0722 0.173101 2.62168 75.0721
7802038 14.199 16.7145 23.0243 21.1307 0.207108 2.64588 75.0685
7802048 14.2166 16.7237 22.9849 21.1014 0.207803 2.62828 75.0267
7802072 14.2166 16.7053 22.9751 21.1599 0.224334 2.64062 75.0569
7802078 14.1813 16.6961 22.9554 21.1891 0.24941 2.65264 75.022
7802088 14.1813 16.6961 22.9554 21.1891 0.24941 2.65264 75.022
7802098 14.1637 16.7421 22.857 21.1794 0.300503 2.62812 74.9422
7802109 14.1637 16.7421 22.857 21.1794 0.300503 2.62812 74.9422
7802121 14.1813 16.6961 22.8373 21.1989 0.292444 2.63478 74.9136
7802128 14.1549 16.7606 22.8767 21.267 0.331745 2.64356 75.0592
7802148 14.1549 16.7053 22.8471 21.384 0.361961 2.67092 75.0913
7802158 14.1637 16.6685 22.9062 21.2865 0.294927 2.67122 75.0249
7802183 14.0756 16.6869 22.9357 21.4132 0.362357 2.71324 75.1115
7802203 14.0404 16.6408 23.0046 21.4229 0.339082 2.74528 75.1088
7802208 14.0492 16.6316 22.9456 21.3352 0.324196 2.72138 74.9617
7802218 14.0492 16.6316 22.9456 21.3352 0.324196 2.72138 74.9617
7802228 14.1021 16.6777 22.9849 21.384 0.324228 2.71245 75.1487
7802238 14.0933 16.6685 22.8668 21.3352 0.348043 2.68936 74.9638
7802248 14.0933 16.6685 22.8668 21.3352 0.348043 2.68936 74.9638
7802258 14.0933 16.7145 22.9062 21.3937 0.369057 2.69455 75.1077
7802295 14.0845 16.6408 22.8373 21.3255 0.34872 2.69151 74.8881
7802297 14.0492 16.6869 22.8865 21.3937 0.381538 2.70823 75.0163
7802298 14.0492 16.6869 22.8865 21.3937 0.381538 2.70823 75.0163
7802309 14.0668 16.6316 22.857 21.4034 0.370622 2.71388 74.9589
7802319 14.058 16.6132 22.8865 21.4424 0.370359 2.73153 75.0002
7802329 14.058 16.6132 22.8865 21.4424 0.370359 2.73153 75.0002
7802343 14.058 16.6685 22.9653 21.3937 0.345898 2.72339 75.0855
7802349 14.058 16.6685 22.9653 21.3937 0.345898 2.72339 75.0855
7802359 14.0316 16.6316 22.857 21.4229 0.388953 2.7254 74.9431
7802369 14.0316 16.6869 22.857 21.4327 0.410277 2.71393 75.0081
7802380 14.0316 16.6869 22.857 21.4327 0.410277 2.71393 75.0081
7802392 14.1197 16.779 22.857 21.4716 0.423369 2.67787 75.2273
7802399 14.0845 16.7053 22.8373 21.4424 0.408277 2.69549 75.0695
7802415 14.0845 16.7053 22.8373 21.4424 0.408277 2.69549 75.0695
7802419 14.1285 16.7514 22.7881 21.5203 0.450581 2.67899 75.1883
7802430 14.1285 16.7514 22.7881 21.5203 0.450581 2.67899 75.1883
7802440 14.0933 16.7329 22.8373 21.5106 0.436649 2.69808 75.1741
7802450 14.058 16.7329 22.7585 21.4034 0.440213 2.67588 74.9529
7802470 14.1109 16.7514 22.7192 21.3352 0.419319 2.64137 74.9166
7802480 14.0756 16.7974 22.6896 21.3255 0.453216 2.63234 74.8882
7802500 14.1021 16.7329 22.6798 21.345 0.432828 2.64289 74.8598
7802511 14.1021 16.7329 22.6798 21.345 0.432828 2.64289 74.8598
7802521 14.0845 16.7698 22.601 21.2768 0.455317 2.61406 74.7321
7802536 14.058 16.8619 22.6404 21.345 0.503436 2.61641 74.9053
7802551 14.1461 16.8895 22.6207 21.3937 0.505111 2.59403 75.05
7802562 14.1197 16.9263 22.6601 21.4327 0.525427 2.60453 75.1388
7802571 14.1197 16.9263 22.6601 21.4327 0.525427 2.60453 75.1388
7802582 14.2518 16.9079 22.6306 21.4132 0.478271 2.56984 75.2035
7802591 14.2518 16.9079 22.6306 21.4132 0.478271 2.56984 75.2035
7802606 14.2342 16.9263 22.5912 21.4034 0.500423 2.56152 75.1552
7802614 14.199 16.8987 22.601 21.4132 0.503206 2.57946 75.1119
7802623 14.199 16.8987 22.601 21.4132 0.503206 2.57946 75.1119
7802632 14.2694 16.954 22.4928 21.3352 0.508654 2.5192 75.0514
7802643 14.2694 16.9724 22.414 21.2768 0.522375 2.49204 74.9326
7802655 14.2694 16.9724 22.414 21.2768 0.522375 2.49204 74.9326
7802663 14.3575 17.0973 22.3353 21.2768 0.559926 2.42929 75.0668
7802679 14.3575 17.0973 22.3353 21.2768 0.559926 2.42929 75.0668
7802683 14.3575 17.0584 22.3451 21.1599 0.505742 2.42038 74.9209
7802694 14.4104 17.1362 22.2565 21.0917 0.521055 2.36366 74.8947
7802713 14.3751 17.2042 22.2171 21.1112 0.575086 2.35269 74.9077
7802728 14.4456 17.1848 22.1482 21.0527 0.549129 2.31933 74.8313
7802734 14.4456 17.1848 22.1482 21.0527 0.549129 2.31933 74.8313
7802744 14.5161 17.2042 22.2467 21.0819 0.507483 2.32015 75.0489
7802754 14.5161 17.2042 22.2467 21.0819 0.507483 2.32015 75.0489
7802764 14.5073 17.1751 22.2073 21.0138 0.492057 2.31073 74.9034
7802775 14.5249 17.214 22.1975 21.0332 0.508496 2.29931 74.9695
7802798 14.5425 17.282 22.1778 20.9748 0.512347 2.2663 74.9771
7802804 14.5161 17.2042 22.2664 21.0138 0.478521 2.31195 75.0004
7802822 14.5161 17.2042 22.2664 21.0138 0.478521 2.31195 75.0004
7802830 14.5249 17.2334 22.2565 21.004 0.485224 2.29987 75.0188
7802845 14.5249 17.2334 22.2565 21.004 0.485224 2.29987 75.0188
7802847 14.5513 17.1556 22.2664 20.9845 0.441077 2.3101 74.9578
7802855 14.5689 17.2042 22.2467 20.9456 0.444943 2.28487 74.9654
7802871 14.5689 17.2042 22.2467 20.9456 0.444943 2.28487 74.9654
7802875 14.5337 17.2042 22.2959 20.9943 0.456139 2.30959 75.0281
7802885 14.5337 17.2529 22.2073 20.9261 0.479835 2.27179 74.9199
7802896 14.5337 17.2529 22.2073 20.9261 0.479835 2.27179 74.9199
7802905 14.5513 17.1945 22.2171 20.9845 0.470528 2.29278 74.9475
7802925 14.5689 17.2237 22.2467 20.9358 0.448123 2.27874 74.9751
7802935 14.5337 17.1459 22.2565 20.9553 0.437629 2.3098 74.8914
7802946 14.5337 17.1459 22.2565 20.9553 0.437629 2.3098 74.8914
7802955 14.5513 17.0973 22.3451 20.9261 0.376046 2.32702 74.9197
7802971 14.5425 17.0681 22.4239 20.965 0.355592 2.35568 74.9995
7802985 14.5161 17.0778 22.4435 20.8676 0.329024 2.34643 74.905
7803000 14.5161 17.0778 22.4435 20.8676 0.329024 2.34643 74.905
7803005 14.5337 17.0292 22.4435 20.9456 0.332716 2.36677 74.952
7803015 14.5073 17.0097 22.5518 20.9553 0.301889 2.39726 75.0241
7803026 14.5073 17.0097 22.5518 20.9553 0.301889 2.39726 75.0241
7803035 14.5249 17.0681 22.5124 20.9845 0.338021 2.37796 75.0899
7803051 14.5073 16.9908 22.5814 20.9261 0.276065 2.4017 75.0055
7803056 14.5073 16.9908 22.5814 20.9261 0.276065 2.4017 75.0055
7803066 14.4896 16.9724 22.6404 20.9748 0.272089 2.42814 75.0772
7803076 14.4896 16.9724 22.6404 20.9748 0.272089 2.42814 75.0772
7803086 14.5249 17.0195 22.5223 20.8774 0.283429 2.37284 74.944
7803097 14.4544 16.9632 22.6109 20.8384 0.24586 2.41062 74.8669
7803106 14.4544 16.9632 22.6109 20.8384 0.24586 2.41062 74.8669
7803117 14.4984 16.9263 22.5518 20.7605 0.212917 2.38587 74.7371
7803129 14.4632 16.9263 22.6306 20.7702 0.201476 2.40898 74.7903
7803139 14.4632 16.9447 22.6306 20.7702 0.207582 2.4047 74.8087
7803146 14.5161 16.954 22.7192 20.7215 0.146914 2.39698 74.9107
7803166 14.5249 16.9171 22.6699 20.7507 0.157961 2.40013 74.8627
7803176 14.5249 16.9263 22.6798 20.7507 0.157708 2.39965 74.8817
7803199 14.6306 16.9908 22.7487 20.7215 0.110871 2.36688 75.0915
7803208 14.5953 16.9908 22.729 20.741 0.135705 2.37499 75.0561
7803219 14.5953 16.9908 22.729 20.741 0.135705 2.37499 75.0561
7803228 14.6482 16.9724 22.6995 20.6825 0.102404 2.35221 75.0026
7803246 14.6482 16.9724 22.6995 20.6825 0.102404 2.35221 75.0026
7803249 14.6482 17 22.6896 20.6143 0.0922263 2.33264 74.9521
7803258 14.7187 17.0195 22.6699 20.6046 0.0784665 2.3069 75.0126
7803278 14.701 17.0681 22.6109 20.5266 0.0943869 2.27652 74.9066
7803288 14.7275 17.0097 22.601 20.5072 0.0629276 2.2789 74.8454
7803300 14.7275 17.0097 22.601 20.5072 0.0629276 2.2789 74.8454
7803313 14.7891 17.1362 22.6109 20.4292 0.0551522 2.22399 74.9654
7803318 14.7891 17.1362 22.6109 20.4292 0.0551522 2.22399 74.9654
7803328 14.842 17.0778 22.542 20.439 0.044331 2.21517 74.9007
7803338 14.8948 17.1945 22.5124 20.3415 0.042963 2.15456 74.9433
7803351 14.8948 17.1945 22.5124 20.3415 0.042963 2.15456 74.9433
7803359 14.9917 17.282 22.4042 20.1857 0.0239879 2.06698 74.8636
7803369 14.9653 17.3015 22.3648 20.0785 0.0167012 2.0432 74.7101
7803379 14.9653 17.3015 22.3648 20.0785 0.0167012 2.0432 74.7101
7803389 15.0446 17.3987 22.3353 20.0006 0.00652075 1.98435 74.7791
7803401 15.0446 17.3987 22.3353 20.0006 0.00652075 1.98435 74.7791
7803410 15.0798 17.4765 22.2959 19.8934 -0.00191331 1.93315 74.7456
7803425 15.1326 17.4376 22.3353 19.8739 -0.0522643 1.93347 74.7795
7803429 15.1326 17.4376 22.3353 19.8739 -0.0522643 1.93347 74.7795
7803439 15.1503 17.4765 22.3156 19.8739 -0.0385493 1.91724 74.8163
7803449 15.1503 17.4765 22.3156 19.8739 -0.0385493 1.91724 74.8163
7803459 15.1503 17.4474 22.3156 19.8934 -0.0417918 1.92724 74.8066
7803471 15.1767 17.5154 22.3254 19.8544 -0.0441477 1.90079 74.872
7803479 15.1767 17.5154 22.3254 19.8544 -0.0441477 1.90079 74.872
7803489 15.2383 17.5057 22.3845 19.9226 -0.0647798 1.9113 75.0512
7803499 15.256 17.4571 22.3451 19.8544 -0.0966221 1.89951 74.9126
7803510 15.256 17.4571 22.3451 19.8544 -0.0966221 1.89951 74.9126
7803520 15.2736 17.5349 22.4435 19.8252 -0.118878 1.89011 75.0772
7803530 15.2736 17.5349 24.8848 19.8252 -0.902443 2.30297 77.5185
7803543 15.2295 17.5057 22.3648 19.7473 -0.114007 1.87919 74.8473
7803551 15.2207 17.4571 22.4435 19.7473 -0.153567 1.90594 74.8686
7803566 15.2207 17.4571 22.4435 19.7473 -0.153567 1.90594 74.8686
7803570 15.2383 17.4376 22.3648 19.8057 -0.120167 1.9028 74.8465
7803580 15.2119 17.3987 22.414 19.7765 -0.150627 1.92106 74.8012
7803600 15.1943 17.3598 22.3943 19.796 -0.144757 1.93382 74.7445
7803613 15.1679 17.389 22.3943 19.7668 -0.135987 1.92809 74.718
7803621 15.1679 17.389 22.3943 19.7668 -0.135987 1.92809 74.718
7803637 15.115 17.4085 22.4928 19.8544 -0.115156 1.96814 74.8707
7803641 15.115 17.4085 22.4928 19.8544 -0.115156 1.96814 74.8707
7803654 15.0358 17.3404 22.5617 19.8544 -0.134569 2.01357 74.7923
7803666 15.0622 17.3404 22.601 19.8934 -0.143337 2.02115 74.897
7803671 15.0622 17.3404 22.601 19.8934 -0.143337 2.02115 74.897
7803684 15.0093 17.3307 22.6699 19.8544 -0.165021 2.04057 74.8644
7803691 15.0358 17.3307 22.7684 20.0006 -0.157349 2.07676 75.1354
7803708 15.0358 17.2431 22.7684 20.0006 -0.186692 2.09668 75.0478
7803724 15.0622 17.2529 22.7585 19.9713 -0.198719 2.08173 75.0449
7803731 15.0622 17.2529 22.7585 19.9713 -0.198719 2.08173 75.0449
7803733 14.9565 17.2723 22.7487 20.0395 -0.13108 2.11141 75.017
7803741 14.9477 17.2042 22.7881 19.9616 -0.190216 2.12234 74.9016
7803763 14.9917 17.2431 22.7192 20.0103 -0.152549 2.09993 74.9643
7803779 14.9301 17.2042 22.7192 19.9908 -0.1517 2.11954 74.8443
7803793 14.9917 17.2334 22.6798 19.9908 -0.149293 2.09201 74.8957
7803813 14.9565 17.2431 22.601 19.9908 -0.10815 2.08425 74.7915
7803827 14.9565 17.2529 22.5321 20.0006 -0.0786632 2.0718 74.742
7803833 14.9565 17.2529 22.5321 20.0006 -0.0786632 2.0718 74.742
7803843 15.0093 17.3793 22.542 19.9519 -0.0735 2.02422 74.8825
7803854 15.0446 17.3598 22.5518 19.9226 -0.104804 2.01727 74.8789
7803863 15.0446 17.3598 22.5518 19.9226 -0.104804 2.01727 74.8789
7803874 15.1062 17.4571 22.4534 19.8837 -0.073047 1.95735 74.9004
7803883 15.1062 17.4571 22.4534 19.8837 -0.073047 1.95735 74.9004
7803899 15.1326 17.5057 22.3746 19.8447 -0.0523865 1.91984 74.8577
7803903 15.1767 17.5446 22.3156 19.6888 -0.0865877 1.86343 74.7257
7803931 15.256 17.6516 22.3057 19.5914 -0.106509 1.80261 74.8047
7803950 15.2736 17.6613 22.1975 19.5817 -0.0763059 1.77561 74.714
7803954 15.4145 17.7586 22.1285 19.494 -0.0970945 1.69451 74.7956
7803965 15.4145 17.7586 22.1285 19.494 -0.0970945 1.69451 74.7956
7803978 15.4674 17.8072 22.0498 19.3479 -0.121227 1.63175 74.6722
7803985 15.5554 17.9239 21.9021 19.2602 -0.0916034 1.54397 74.6417
7804004 15.5907 18.0601 21.9021 19.1628 -0.0903443 1.48847 74.7156
7804015 15.6699 18.0892 21.8726 19.0653 -0.129853 1.44157 74.6971
7804025 15.6699 18.0892 21.8726 19.0653 -0.129853 1.44157 74.6971
7804039 15.7404 18.1865 21.8135 19.0946 -0.0911728 1.39932 74.835
7804046 15.7404 18.1865 21.8135 19.0946 -0.0911728 1.39932 74.835
7804055 15.7668 18.1379 21.784 19.0458 -0.122815 1.38995 74.7346
7804067 15.8021 18.2254 21.8628 19.1043 -0.111723 1.38802 74.9945
7804091 15.8197 18.2157 21.8234 19.0751 -0.117548 1.37383 74.9338
7804100 15.8197 18.2157 21.8234 19.0751 -0.117548 1.37383 74.9338
7804111 15.7756 18.1573 21.784 19.0946 -0.102854 1.39262 74.8115
7804123 15.758 18.1865 21.8628 19.1628 -0.0905514 1.41676 74.97
7804135 15.758 18.1573 21.8529 19.0848 -0.123182 1.40723 74.8531
7804145 15.6964 18.099 21.9612 19.2115 -0.115764 1.47609 74.968
7804158 15.6964 18.099 21.9612 19.2115 -0.115764 1.47609 74.968
7804166 15.6876 18.0698 21.9514 19.2309 -0.11282 1.48618 74.9397
7804180 15.5554 17.9531 21.9612 19.3186 -0.0818759 1.55866 74.7884
7804186 15.5554 17.9531 21.9612 19.3186 -0.0818759 1.55866 74.7884
7804196 15.5202 17.9045 22.0006 19.3284 -0.0963017 1.58607 74.7536
7804206 15.5202 17.9045 22.0006 19.3284 -0.0963017 1.58607 74.7536
7804216 15.4938 17.8364 21.9907 19.3966 -0.0841737 1.61752 74.7175
7804226 15.4762 17.8072 22.099 19.3479 -0.140546 1.63859 74.7302
7804236 15.4762 17.8072 22.099 19.3479 -0.140546 1.63859 74.7302
7804250 15.4674 17.7391 22.0892 19.3966 -0.140859 1.66267 74.6922
7804256 15.3881 17.6516 22.1384 19.494 -0.127521 1.72608 74.6721
7804266 15.3881 17.6516 22.1384 19.494 -0.127521 1.72608 74.6721
7804278 15.3881 17.7391 22.1975 19.6011 -0.0818327 1.736 74.9258
7804296 15.3264 17.6322 22.3156 19.6888 -0.107063 1.81006 74.963
