10706143 12.0145 12.6717 28.6943 24.3358 -1.19062 5.47064 77.7163
10706164 12.0409 12.7638 28.7238 24.3553 -1.17021 5.44549 77.8839
10706174 12.0409 12.7638 28.7238 24.3553 -1.17021 5.44549 77.8839
10706185 11.9617 12.6901 28.7238 24.2871 -1.19369 5.47736 77.6627
10706193 12.0145 12.7546 28.6746 24.3748 -1.14359 5.4512 77.8185
10706205 12.0145 12.7546 28.6746 24.3748 -1.14359 5.4512 77.8185
10706213 12.0585 12.7638 28.6451 24.3261 -1.16131 5.42759 77.7935
10706223 11.9881 12.7914 28.6746 24.3261 -1.13948 5.44248 77.7802
10706233 11.9881 12.7914 28.6746 24.3261 -1.13948 5.44248 77.7802
10706243 12.0497 12.773 28.6451 24.3358 -1.15224 5.42869 77.8036
10706265 11.9793 12.7178 28.6254 24.2968 -1.15629 5.45454 77.6192
10706273 12.0585 12.7362 28.714 24.3261 -1.19171 5.44332 77.8348
10706284 12.0585 12.7362 28.714 24.3261 -1.19171 5.44332 77.8348
10706293 12.085 12.6994 28.6647 24.3943 -1.17418 5.44838 77.8433
10706303 12.0497 12.6809 28.7041 24.3456 -1.19804 5.46134 77.7803
10706314 12.0497 12.6809 28.7041 24.3456 -1.19804 5.46134 77.7803
10706324 12.0409 12.6901 28.7632 24.4527 -1.17427 5.48158 77.947
10706334 12.0409 12.6901 28.7632 24.4527 -1.17427 5.48158 77.947
10706345 11.9969 12.6625 28.6844 24.3163 -1.19188 5.47411 77.6602
10706357 11.9969 12.6625 28.7336 24.3456 -1.19711 5.48372 77.7386
10706363 11.9969 12.6625 28.7336 24.3456 -1.19711 5.48372 77.7386
10706374 12.0145 12.6994 28.7336 24.2968 -1.2065 5.46341 77.7444
10706385 12.0145 12.6073 28.7041 24.2774 -1.23513 5.48167 77.6032
10706394 12.0145 12.6073 28.7041 24.2774 -1.23513 5.48167 77.6032
10706404 12.0762 12.6349 28.8124 24.2579 -1.2843 5.46903 77.7813
10706424 12.0233 12.5612 28.7533 24.2384 -1.28165 5.49276 77.5763
10706434 12.0233 12.6717 28.7927 24.3358 -1.22344 5.48037 77.8236
10706445 12.0233 12.6717 28.7927 24.3358 -1.22344 5.48037 77.8236
10706455 12.0497 12.6441 28.901 24.3261 -1.27712 5.49273 77.9209
10706466 11.9969 12.5981 28.8911 24.3358 -1.27026 5.51876 77.8219
10706485 11.9528 12.6717 28.8715 24.3748 -1.21284 5.5133 77.8708
10706495 11.9528 12.6717 28.8715 24.3748 -1.21284 5.5133 77.8708
10706505 11.9705 12.5796 28.8518 24.3553 -1.24982 5.52816 77.7572
10706525 11.9793 12.6073 28.8518 24.3456 -1.24648 5.51736 77.7839
10706535 12.0057 12.6165 28.9207 24.3358 -1.27573 5.51518 77.8787
10706546 12.0057 12.6165 28.9207 24.3358 -1.27573 5.51518 77.8787
10706555 11.9176 12.5796 28.8911 24.3163 -1.25886 5.54218 77.7047
10706565 12.0057 12.5612 28.8616 24.3066 -1.28626 5.51899 77.7351
10706575 12.0057 12.5612 28.8616 24.3066 -1.28626 5.51899 77.7351
10706586 11.9705 12.5888 28.8518 24.2092 -1.29612 5.5079 77.6202
10706595 11.9969 12.5888 28.901 24.3261 -1.27966 5.5212 77.8128
10706606 11.9969 12.5888 28.901 24.3261 -1.27966 5.5212 77.8128
10706615 12.0145 12.6717 28.9207 24.2579 -1.28607 5.48881 77.8648
10706626 12.0057 12.6441 28.901 24.2579 -1.28672 5.496 77.8087
10706635 12.0057 12.6441 28.901 24.2579 -1.28672 5.496 77.8087
10706648 11.9793 12.6165 28.9502 24.3163 -1.28325 5.52337 77.8623
10706669 11.9793 12.6165 28.8715 24.2092 -1.29547 5.50068 77.6764
10706676 12.0409 12.6441 28.9305 24.2676 -1.30315 5.49152 77.8832
10706689 12.0409 12.6441 28.9305 24.2676 -1.30315 5.49152 77.8832
10706697 12.085 12.6257 28.8518 24.2189 -1.31527 5.46918 77.7813
10706710 12.085 12.6257 28.8518 24.2189 -1.31527 5.46918 77.7813
10706717 12.0233 12.6257 28.9207 24.1799 -1.33067 5.48909 77.7496
10706727 12.0585 12.6165 28.901 24.2481 -1.31544 5.48816 77.8241
10706737 12.0585 12.6165 28.901 24.2481 -1.31544 5.48816 77.8241
10706747 12.0321 12.6165 28.8222 24.1897 -1.30318 5.47833 77.6605
10706757 12.0585 12.6625 28.8025 24.2092 -1.28306 5.45921 77.7328
10706777 12.1114 12.6717 28.8321 24.141 -1.32812 5.43814 77.7562
10706803 12.0321 12.6625 28.7927 24.1799 -1.28187 5.46138 77.6673
10706806 12.129 12.7178 28.8518 24.1702 -1.31401 5.42744 77.8687
10706816 12.129 12.7178 28.8518 24.1702 -1.31401 5.42744 77.8687
10706826 12.1026 12.6625 28.8321 24.102 -1.34176 5.43808 77.6992
10706836 12.085 12.6625 28.7632 24.1312 -1.30548 5.43784 77.6419
10706856 12.1202 12.7638 28.8419 24.1312 -1.30594 5.41167 77.8572
10706878 12.1378 12.6625 28.7632 24.141 -1.3183 5.42513 77.7045
10706888 12.1731 12.6809 28.8222 24.1897 -1.32429 5.42431 77.8659
10706898 12.1731 12.6809 28.8222 24.1897 -1.32429 5.42431 77.8659
10706909 12.1554 12.727 28.7238 24.1799 -1.27668 5.40353 77.7862
10706918 12.1466 12.7546 28.7927 24.1215 -1.30541 5.39989 77.8154
10706939 12.1907 12.7546 28.7336 24.0728 -1.31731 5.37502 77.7517
10706959 12.1378 12.7546 28.7238 24.1117 -1.28502 5.39248 77.728
10706970 12.1819 12.7822 28.7336 24.0923 -1.29869 5.3725 77.79
10706980 12.1819 12.7822 28.7336 24.0923 -1.29869 5.3725 77.79
10706989 12.1995 12.8283 28.6352 24.063 -1.26836 5.34001 77.726
10707002 12.1907 12.7546 28.6746 24.102 -1.28942 5.37133 77.7219
10707009 12.1907 12.7546 28.6746 24.102 -1.28942 5.37133 77.7219
10707022 12.1642 12.7822 28.7041 24.0338 -1.3041 5.36622 77.6844
10707029 12.1642 12.7822 28.7041 24.0338 -1.3041 5.36622 77.6844
10707039 12.1819 12.7914 28.7041 24.0825 -1.28987 5.36523 77.7599
10707049 12.1642 12.7362 28.7238 24.0825 -1.3092 5.38677 77.7068
10707069 12.1907 12.7914 28.6155 24.0143 -1.2886 5.34345 77.612
10707079 12.1731 12.8006 28.6943 24.0728 -1.28436 5.3627 77.7408
10707090 12.1731 12.8006 28.6943 24.0728 -1.28436 5.3627 77.7408
10707100 12.2171 12.8559 28.6549 24.0533 -1.2737 5.32941 77.7812
10707120 12.2259 12.8375 28.6647 24.0436 -1.2889 5.33193 77.7717
10707132 12.2347 12.8835 28.6844 24.063 -1.27545 5.32247 77.8657
10707159 12.2259 12.8743 28.6155 24.0338 -1.26473 5.31497 77.7496
10707160 12.2523 12.8651 28.6549 24.0241 -1.2912 5.31416 77.7964
10707172 12.2523 12.8651 28.6549 24.0241 -1.2912 5.31416 77.7964
10707180 12.2611 12.8283 28.6352 24.063 -1.28717 5.32388 77.7877
10707191 12.2611 12.8283 28.6352 24.063 -1.28717 5.32388 77.7877
10707200 12.2347 12.8375 28.6254 24.0825 -1.26641 5.32958 77.7801
10707213 12.2523 12.8927 28.5565 24.0825 -1.23211 5.30197 77.784
10707221 12.2523 12.8927 28.5565 24.0825 -1.23211 5.30197 77.784
10707230 12.2523 12.8283 28.5761 24.0825 -1.25988 5.32126 77.7393
10707240 12.2083 12.7914 28.5368 24.0143 -1.26991 5.32903 77.5508
10707250 12.2083 12.7914 28.5368 24.0143 -1.26991 5.32903 77.5508
10707260 12.3316 12.8743 28.586 24.063 -1.27809 5.28735 77.8549
10707270 12.3316 12.8743 28.586 24.063 -1.27809 5.28735 77.8549
10707282 12.2259 12.8375 28.5958 24.0923 -1.25142 5.32942 77.7515
10707292 12.2171 12.9112 28.5368 24.1312 -1.19269 5.30997 77.7963
10707301 12.2171 12.9112 28.5368 24.1312 -1.19269 5.30997 77.7963
10707311 12.2347 12.9112 28.5368 24.0728 -1.21778 5.29809 77.7554
10707321 12.2171 12.8651 28.5663 24.102 -1.22709 5.32204 77.7505
10707331 12.2171 12.8651 28.5663 24.102 -1.22709 5.32204 77.7505
10707343 12.2259 12.8651 28.5761 24.0825 -1.23937 5.31854 77.7497
10707352 12.2259 12.8651 28.5761 24.0825 -1.23937 5.31854 77.7497
10707362 12.1642 12.8283 28.5565 24.0825 -1.22692 5.34186 77.6315
10707372 12.1907 12.8283 28.6451 24.1312 -1.24565 5.352 77.7952
10707382 12.1907 12.8283 28.6451 24.1312 -1.24565 5.352 77.7952
10707392 12.1907 12.8559 28.5958 24.1312 -1.22129 5.33866 77.7736
10707402 12.1907 12.8651 28.5958 24.1799 -1.20177 5.3423 77.8316
10707412 12.1907 12.8651 28.5958 24.1799 -1.20177 5.3423 77.8316
10707423 12.1554 12.8559 28.6155 24.1312 -1.21654 5.35033 77.7581
10707432 12.1554 12.8559 28.6155 24.1312 -1.21654 5.35033 77.7581
10707444 12.129 12.8006 28.5761 24.1312 -1.21503 5.36684 77.637
10707451 12.1378 12.8375 28.6647 24.1507 -1.22584 5.36827 77.7908
10707463 12.1378 12.8375 28.6647 24.1507 -1.22584 5.36827 77.7908
10707472 12.1026 12.8191 28.6057 24.1994 -1.18678 5.38105 77.7268
10707483 12.085 12.8191 28.5466 26.6252 -0.37068 5.66983 80.0759
10707492 12.085 12.8375 28.5466 24.1312 -1.18004 5.36507 77.6003
10707502 12.129 12.8927 28.586 24.1994 -1.16404 5.3524 77.8072
10707511 12.129 12.8927 28.586 24.1994 -1.16404 5.3524 77.8072
10707522 12.0762 12.8467 28.6352 24.1994 -1.17842 5.38439 77.7575
10707532 12.0674 12.8283 28.6451 24.2676 -1.16199 5.40117 77.8083
10707543 12.0674 12.8283 28.6451 24.2676 -1.16199 5.40117 77.8083
10707551 12.085 12.8099 28.6844 24.2287 -1.19875 5.40143 77.8079
10707562 12.085 12.8099 28.6844 24.2287 -1.19875 5.40143 77.8079
10707572 12.0497 12.7454 28.6451 24.1994 -1.20749 5.41914 77.6396
10707581 12.0585 12.7638 28.6647 24.2384 -1.19687 5.41922 77.7255
10707592 12.0585 12.7638 28.6647 24.2384 -1.19687 5.41922 77.7255
10707602 12.0762 12.7822 28.6451 24.2579 -1.18346 5.40973 77.7613
10707613 12.0497 12.8006 28.6352 24.1994 -1.18584 5.4034 77.685
10707633 12.0938 12.8099 28.6155 24.1994 -1.1902 5.387 77.7186
10707644 12.0938 12.8099 28.6155 24.1994 -1.1902 5.387 77.7186
10707654 12.0762 12.7914 28.6155 24.2481 -1.17459 5.40247 77.7313
10707663 12.0674 12.8283 28.6451 24.2384 -1.17182 5.39756 77.7791
10707673 12.0674 12.8283 28.6451 24.2384 -1.17182 5.39756 77.7791
10707683 12.129 12.8283 28.586 24.1994 -1.18574 5.36927 77.7427
10707693 12.1114 12.8283 28.6057 24.2579 -1.1667 5.38356 77.8032
10707704 12.1114 12.8283 28.6057 24.2579 -1.1667 5.38356 77.8032
10707714 12.129 12.8743 28.6254 24.1702 -1.19213 5.35847 77.7989
10707734 12.1202 12.8191 28.5958 24.1994 -1.18916 5.37521 77.7345
10707744 12.1378 12.8835 28.6746 24.1994 -1.19694 5.36347 77.8954
10707756 12.1378 12.8835 28.6746 24.1994 -1.19694 5.36347 77.8954
10707764 12.0585 12.8283 28.5565 24.1799 -1.16163 5.38168 77.6232
10707774 12.1114 12.8835 28.5958 24.2384 -1.15166 5.36546 77.8292
10707789 12.1114 12.8835 28.5958 24.2384 -1.15166 5.36546 77.8292
10707801 12.129 12.8927 28.5269 24.2579 -1.1263 5.35232 77.8066
10707806 12.129 12.8927 28.5269 24.2579 -1.1263 5.35232 77.8066
10707814 12.1202 12.8283 28.6155 24.2579 -1.17241 5.38247 77.8219
10707824 12.1202 12.8283 28.6844 24.2189 -1.2066 5.38617 77.8518
10707834 12.1202 12.8283 28.6844 24.2189 -1.2066 5.38617 77.8518
10707844 12.0497 12.8099 28.6352 24.2384 -1.16961 5.4058 77.7332
10707855 12.129 12.8283 28.7041 24.2092 -1.21859 5.38509 77.8706
10707865 12.129 12.8283 28.7041 24.2092 -1.21859 5.38509 77.8706
10707874 12.0497 12.8191 28.6451 24.2287 -1.1728 5.40339 77.7425
10707907 12.085 12.7822 28.6155 24.2092 -1.19353 5.39776 77.6919
10707909 12.085 12.8099 28.6549 24.1702 -1.20941 5.39056 77.7199
10707915 12.085 12.8099 28.6549 24.1702 -1.20941 5.39056 77.7199
10707928 12.085 12.8375 28.5761 24.1702 -1.17597 5.37356 77.6688
10707935 12.0938 12.8283 28.5958 24.1117 -1.20752 5.36886 77.6296
10707955 12.1114 12.773 28.6254 24.1215 -1.23734 5.38361 77.6313
10707969 12.1114 12.773 28.6254 24.1215 -1.23734 5.38361 77.6313
10707975 12.0762 12.7822 28.6254 24.1312 -1.22014 5.39165 77.615
10707985 12.1731 12.7822 28.6746 24.1117 -1.27141 5.36991 77.7416
10707995 12.1731 12.7822 28.6746 24.1117 -1.27141 5.36991 77.7416
10708005 12.1378 12.8467 28.6057 24.0728 -1.23097 5.34887 77.663
10708015 12.1378 12.8375 28.6746 24.063 -1.25844 5.35863 77.7129
10708025 12.1378 12.8375 28.6746 24.063 -1.25844 5.35863 77.7129
10708035 12.1907 12.8743 28.6943 24.0728 -1.26485 5.33881 77.832
10708045 12.1907 12.8743 28.6943 24.0728 -1.26485 5.33881 77.832
10708055 12.1554 12.7914 28.6647 24.0825 -1.26979 5.36727 77.6941
10708065 12.1378 12.8375 28.6057 24.0436 -1.24396 5.34765 77.6245
10708075 12.1378 12.8375 28.6057 24.0436 -1.24396 5.34765 77.6245
10708087 12.2083 12.8927 28.6254 24.0046 -1.26601 5.31234 77.731
10708113 12.2083 12.8191 28.6451 23.9754 -1.30683 5.33043 77.6478
10708114 12.2083 12.8191 28.6451 23.9754 -1.30683 5.33043 77.6478
10708117 12.2083 12.8283 28.5958 24.0338 -1.2689 5.32916 77.6662
10708127 12.2083 12.8283 28.5958 24.0338 -1.2689 5.32916 77.6662
10708137 12.1731 12.8559 28.6647 24.0436 -1.26655 5.34094 77.7373
10708147 12.2171 12.8191 28.714 24.0825 -1.29427 5.35 77.8326
10708157 12.2171 12.8191 28.714 24.0825 -1.29427 5.35 77.8326
10708169 12.2259 12.8651 28.7238 24.0046 -1.31073 5.32721 77.8194
10708176 12.2259 12.7822 28.6746 24.0143 -1.32049 5.34398 77.697
10708186 12.2259 12.7822 28.6746 24.0143 -1.32049 5.34398 77.697
10708198 12.2699 12.8006 28.6943 24.063 -1.31718 5.33614 77.8279
10708206 12.2699 12.8006 28.6943 24.063 -1.31718 5.33614 77.8279
10708220 12.1642 12.8467 28.7238 24.0436 -1.285 5.35299 77.7783
10708228 12.1907 12.7362 28.7041 24.0241 -1.33106 5.37016 77.655
10708248 12.2347 12.8099 28.7632 24.0825 -1.31772 5.3539 77.8903
10708261 12.1731 12.7546 28.773 24.0825 -1.32064 5.38571 77.7832
10708270 12.1731 12.7546 28.773 24.0825 -1.32064 5.38571 77.7832
10708278 12.1731 12.773 28.7829 24.063 -1.324 5.3797 77.792
10708288 12.1731 12.773 28.7829 24.063 -1.324 5.3797 77.792
10708298 12.129 12.7086 28.7533 24.0825 -1.31682 5.40692 77.6734
10708309 12.1466 12.7178 28.8222 24.1312 -1.32356 5.41439 77.8179
10708319 12.1466 12.7178 28.8222 24.1312 -1.32356 5.41439 77.8179
10708329 12.1642 12.6809 28.7927 24.1117 -1.339 5.41339 77.7496
10708340 12.129 12.6533 28.8813 24.1507 -1.35139 5.44559 77.8143
10708351 12.129 12.6533 28.8813 24.1507 -1.35139 5.44559 77.8143
10708360 12.1378 12.6994 28.8321 24.1702 -1.31692 5.42754 77.8394
10708371 12.085 12.6901 28.9108 24.141 -1.3378 5.44992 77.8269
10708390 12.1114 12.6809 28.8419 24.1117 -1.3379 5.43333 77.746
10708400 12.1114 12.6809 28.8419 24.1117 -1.3379 5.43333 77.746
10708410 12.0233 12.6073 28.8911 24.141 -1.34113 5.48556 77.6627
10708420 12.0057 12.6073 28.8813 24.1799 -1.31955 5.49377 77.6742
10708447 12.0674 12.6533 28.9305 24.2189 -1.32453 5.47619 77.8701
10708452 12.0233 12.5888 28.9404 24.2676 -1.31946 5.51191 77.8201
10708460 12.0233 12.5888 28.9404 24.2676 -1.31946 5.51191 77.8201
10708473 12.0321 12.5428 28.9994 24.2968 -1.34578 5.53247 77.8712
10708480 12.0321 12.5428 28.9994 24.2968 -1.34578 5.53247 77.8712
10708493 11.944 12.4967 29.0093 24.3943 -1.30462 5.5809 77.8443
10708500 11.9705 12.5336 29.029 24.365 -1.31608 5.56303 77.898
10708514 11.9705 12.5336 29.029 24.365 -1.31608 5.56303 77.898
10708522 11.9 12.5888 29.0486 24.4138 -1.26555 5.57532 77.9512
10708532 11.9 12.5888 29.0782 24.4138 -1.27454 5.57889 77.9808
10708541 11.8295 12.4783 29.0782 24.4917 -1.26406 5.63614 77.8777
10708551 11.8031 12.506 29.0979 24.4625 -1.26254 5.63468 77.8694
10708562 11.8031 12.506 29.0979 24.4625 -1.26254 5.63468 77.8694
10708571 11.8207 12.4875 29.0782 24.5501 -1.23858 5.64306 77.9366
10708582 11.7855 12.4139 29.0585 24.5404 -1.24993 5.66842 77.7982
10708602 11.7767 12.4507 29.0585 24.4819 -1.25454 5.65395 77.7678
10708612 11.7767 12.4507 29.0585 24.4819 -1.25454 5.65395 77.7678
10708622 11.7591 12.3954 29.0683 24.5404 -1.25109 5.68152 77.7632
10708632 11.7415 12.4139 29.1865 24.5599 -1.26895 5.69776 77.9017
10708642 11.7415 12.4139 29.1865 24.5599 -1.26895 5.69776 77.9017
10708652 11.6886 12.4599 29.1766 24.5696 -1.23104 5.69956 77.8947
10708662 11.6798 12.4231 29.0979 24.5891 -1.21014 5.70462 77.7898
10708671 11.6798 12.4231 29.0979 24.5891 -1.21014 5.70462 77.7898
10708682 11.6798 12.4415 29.0979 24.6183 -1.1941 5.70321 77.8375
10708692 11.6798 12.4415 29.0979 24.6183 -1.1941 5.70321 77.8375
10708702 11.7062 12.4047 29.1274 24.667 -1.2072 5.71531 77.9053
10708714 11.6798 12.3678 29.1175 24.5989 -1.2315 5.72285 77.764
10708724 11.6798 12.3678 29.1175 24.5989 -1.2315 5.72285 77.764
10708732 11.6534 12.377 29.0782 24.6963 -1.17545 5.73436 77.8048
10708745 11.6005 12.3402 29.1668 24.7255 -1.18895 5.77227 77.833
10708751 11.6005 12.3402 29.1668 24.7255 -1.18895 5.77227 77.833
10708762 11.6181 12.3218 29.2652 24.8034 -1.20439 5.79335 78.0085
10708772 11.6181 12.3218 29.2652 24.8034 -1.20439 5.79335 78.0085
10708782 11.6269 12.3126 29.1372 24.745 -1.19074 5.7714 77.8217
10708791 11.6269 12.2941 29.2357 24.8229 -1.20081 5.79718 77.9797
10708804 11.6269 12.2941 29.2357 24.8229 -1.20081 5.79718 77.9797
10708812 11.5741 12.3494 29.2061 24.784 -1.17017 5.78845 77.9136
10708822 11.5741 12.3494 29.2061 24.784 -1.17017 5.78845 77.9136
10708833 11.6005 12.2941 29.2357 24.7547 -1.21567 5.79618 77.8851
10708842 11.5829 12.3402 29.216 24.8229 -1.16588 5.79432 77.962
10708852 11.5829 12.3402 29.216 24.8229 -1.16588 5.79432 77.962
10708861 11.5741 12.2481 29.1471 24.745 -1.19929 5.80393 77.7143
10708873 11.5741 12.2849 29.1372 24.8034 -1.16419 5.79982 77.7997
10708882 11.5741 12.2849 29.1372 24.8034 -1.16419 5.79982 77.7997
10708892 11.5565 12.2941 29.1963 24.7937 -1.17706 5.8079 77.8406
10708901 11.5565 12.2941 29.1963 24.7937 -1.17706 5.8079 77.8406
10708913 11.4948 12.2389 29.2061 24.9009 -1.14375 5.85297 77.8407
10708933 11.4508 12.2113 29.2652 24.9009 -1.15763 5.87911 77.8281
10708936 11.4508 12.2113 29.2652 24.9009 -1.15763 5.87911 77.8281
10708943 11.486 12.1192 29.3046 24.9301 -1.20161 5.9024 77.8398
10708955 11.4684 12.1836 29.3144 24.9691 -1.16446 5.89554 77.9355
10708963 11.4684 12.1836 29.3144 24.9691 -1.16446 5.89554 77.9355
10708978 11.486 12.1836 29.3046 24.9788 -1.16357 5.8908 77.953
10708983 11.486 12.1836 29.3046 24.9788 -1.16357 5.8908 77.953
10708993 11.4332 12.156 29.3538 24.8911 -1.20122 5.9079 77.8341
10709006 11.4772 12.156 29.3046 24.9496 -1.17997 5.89716 77.8874
10709015 11.4772 12.156 29.3046 24.9496 -1.17997 5.89716 77.8874
10709027 11.4508 12.1468 29.2849 24.9496 -1.16896 5.90442 77.832
10709033 11.4684 12.2205 29.3439 24.8716 -1.19384 5.87772 77.9044
10709044 11.4684 12.2205 29.3439 24.8716 -1.19384 5.87772 77.9044
10709054 11.5124 12.1836 29.3439 24.9398 -1.19676 5.88377 77.9799
10709071 11.5124 12.1836 29.3439 24.9398 -1.19676 5.88377 77.9799
10709078 11.4244 12.0915 29.3046 24.9009 -1.20189 5.923 77.7213
10709087 11.4596 12.1652 29.3538 24.9788 -1.17672 5.90857 77.9574
10709104 11.442 12.1928 29.3439 24.9691 -1.16232 5.9036 77.9478
10709119 11.3979 12.1284 29.403 24.9983 -1.17874 5.94301 77.9276
10709134 11.4332 12.1468 29.3439 24.9788 -1.17182 5.91946 77.9027
10709144 11.4332 12.1468 29.3439 24.9788 -1.17182 5.91946 77.9027
10709154 11.4244 12.0639 29.3636 24.9593 -1.20958 5.94413 77.8112
10709164 11.4067 12.1008 29.3932 24.9788 -1.19426 5.94466 77.8795
10709174 11.4067 12.1008 29.3932 24.9788 -1.19426 5.94466 77.8795
10709187 11.4155 12.0547 29.4719 25.047 -1.21355 5.97172 77.9892
10709194 11.4067 12.0455 29.4227 24.9885 -1.21861 5.96409 77.8635
10709204 11.4067 12.0455 29.4227 24.9885 -1.21861 5.96409 77.8635
10709214 11.442 12.0455 29.3833 24.9983 -1.21406 5.95117 77.8691
10709224 11.442 12.0455 29.3833 24.9983 -1.21406 5.95117 77.8691
10709234 11.3891 12.0271 29.4325 24.9788 -1.22572 5.97381 77.8275
10709244 11.3891 11.9718 29.4227 25.0665 -1.21179 5.99772 77.8501
10709255 11.3891 11.9718 29.4227 25.0665 -1.21179 5.99772 77.8501
10709264 11.4244 12.0087 29.403 25.086 -1.19759 5.97828 77.922
10709278 11.3803 11.8797 29.5113 25.0762 -1.2639 6.03631 77.8476
10709284 11.3803 11.8797 29.5113 25.0762 -1.2639 6.03631 77.8476
10709294 11.3891 11.981 29.4719 25.1639 -1.19097 6.01216 78.006
10709305 11.3891 11.981 29.4719 25.1639 -1.19097 6.01216 78.006
10709314 11.3451 11.8521 29.4916 25.0178 -1.27621 6.04431 77.7066
10709335 11.3891 11.8982 29.4916 25.1639 -1.22483 6.03678 77.9428
10709338 11.3891 11.8982 29.4916 25.1639 -1.22483 6.03678 77.9428
10709349 11.3627 11.8889 29.531 25.1444 -1.23844 6.04869 77.927
10709355 11.3803 11.8153 29.5113 25.1542 -1.25935 6.0627 77.861
10709375 11.3363 11.8429 29.5802 25.1931 -1.24449 6.0795 77.9525
10709385 11.3363 11.8429 29.5802 25.1931 -1.24449 6.0795 77.9525
10709395 11.2834 11.8429 29.5605 25.2808 -1.19287 6.10157 77.9676
10709405 11.3187 11.8337 29.5999 25.2223 -1.23838 6.09235 77.9746
10709417 11.3187 11.8337 29.5999 25.2223 -1.23838 6.09235 77.9746
10709429 11.2746 11.8153 29.4424 25.2418 -1.17645 6.09348 77.7741
10709441 11.3627 11.8521 29.5014 25.2223 -1.2156 6.06419 77.9386
10709447 11.3627 11.8521 29.5014 25.2223 -1.2156 6.06419 77.9386
10709457 11.3187 11.8521 29.5605 25.2029 -1.22674 6.08064 77.9341
10709467 11.3187 11.8521 29.5605 25.2029 -1.22674 6.08064 77.9341
10709477 11.3098 11.8429 29.5704 25.2418 -1.21704 6.09109 77.9649
10709489 11.3451 11.935 29.5507 25.1736 -1.21375 6.04663 78.0044
10709498 11.3451 11.935 29.5507 25.1736 -1.21375 6.04663 78.0044
10709510 11.4155 11.935 29.4621 25.1152 -1.22788 6.0107 77.9278
10709518 11.3539 11.9074 29.4325 25.047 -1.23232 6.02353 77.7408
10709533 11.3539 11.9074 29.4325 25.047 -1.23232 6.02353 77.7408
10709540 11.4155 11.9995 29.4424 25.008 -1.23625 5.97866 77.8654
10709548 11.442 11.9442 29.4129 25.047 -1.24079 5.98753 77.846
10709558 11.442 11.9442 29.4129 25.047 -1.24079 5.98753 77.846
10709569 11.4596 12.0363 29.4129 25.0275 -1.22171 5.95573 77.9362
10709580 11.4596 12.0363 29.4129 25.0275 -1.22171 5.95573 77.9362
10709589 11.486 12.0271 29.403 24.9593 -1.25284 5.94203 77.8754
10709602 11.4596 12.0363 29.4227 24.9983 -1.23456 5.95348 77.9169
10709610 11.4596 12.0363 29.4227 24.9983 -1.23456 5.95348 77.9169
10709620 11.4948 12.0639 29.403 24.9203 -1.25625 5.92523 77.8821
10709630 11.5124 12.0731 29.3833 24.8716 -1.26894 5.91004 77.8405
10709642 11.5124 12.0731 29.3833 24.8716 -1.26894 5.91004 77.8405
10709651 11.5477 12.0915 29.3833 24.8521 -1.28004 5.89336 77.8747
10709660 11.5477 12.0915 29.3833 24.8521 -1.28004 5.89336 77.8747
10709672 11.5212 12.0455 29.3341 24.8911 -1.25936 5.91163 77.792
10709680 11.5477 12.11 29.3144 24.8814 -1.24296 5.88378 77.8534
10709696 11.5477 12.11 29.3144 24.8814 -1.24296 5.88378 77.8534
10709700 11.5477 12.1192 29.3046 24.8132 -1.25985 5.87216 77.7846
10709712 11.5477 12.1008 29.275 24.7937 -1.26364 5.87135 77.7172
10709724 11.5477 12.1008 29.275 24.7937 -1.26364 5.87135 77.7172
10709735 11.6093 12.156 29.3833 24.7742 -1.30335 5.85044 77.9229
10709742 11.6093 12.156 29.3833 24.7742 -1.30335 5.85044 77.9229
10709752 11.6093 12.156 29.3439 24.7742 -1.29137 5.84581 77.8835
10709764 11.6358 12.2021 29.3932 24.8132 -1.28571 5.8368 78.0442
10709770 11.6358 12.2021 29.3932 24.8132 -1.28571 5.8368 78.0442
10709786 11.6005 12.1928 29.3341 24.6963 -1.29957 5.82798 77.8237
10709790 11.6358 12.2205 29.3439 24.784 -1.27438 5.82266 77.9841
10709801 11.6358 12.2205 29.3439 24.784 -1.27438 5.82266 77.9841
10709811 11.6886 12.2113 29.3341 24.745 -1.3037 5.80526 77.979
10709820 11.6886 12.2113 29.3341 24.745 -1.3037 5.80526 77.979
10709833 11.6358 12.156 29.2652 24.706 -1.29847 5.82143 77.763
10709840 11.6798 12.2021 29.3046 24.667 -1.32147 5.79739 77.8535
10709856 11.6798 12.2021 29.3046 24.667 -1.32147 5.79739 77.8535
10709860 11.715 12.1928 29.2947 24.7645 -1.29941 5.80078 77.9671
10709870 11.715 12.1928 29.2947 24.7645 -1.29941 5.80078 77.9671
10709882 11.6622 12.2205 29.2849 24.706 -1.29074 5.79945 77.8736
10709890 11.6622 12.2021 29.3636 24.6963 -1.3242 5.81251 77.9241
10709903 11.6622 12.2021 29.3636 24.6963 -1.3242 5.81251 77.9241
10709911 11.6798 12.1744 29.2947 24.7645 -1.29491 5.8151 77.9134
10709926 11.6622 12.2021 29.3243 24.7255 -1.30236 5.81132 77.914
10709932 11.6622 12.2021 29.3243 24.7255 -1.30236 5.81132 77.914
10709949 11.6974 12.1652 29.3735 24.745 -1.33388 5.81984 77.9811
10709951 11.6974 12.1652 29.3735 24.745 -1.33388 5.81984 77.9811
10709962 11.671 12.1836 29.2849 24.6573 -1.32233 5.80118 77.7968
10709972 11.6798 12.1284 29.2455 24.6378 -1.33834 5.80665 77.6915
10709982 11.6798 12.1284 29.2455 24.6378 -1.33834 5.80665 77.6915
10709998 11.6446 12.2297 29.275 24.6768 -1.28913 5.79708 77.8261
10710001 11.7238 12.2297 29.2357 24.5891 -1.33093 5.76085 77.7783
10710012 11.7238 12.2297 29.2357 24.5891 -1.33093 5.76085 77.7783
10710022 11.7238 12.1928 29.2652 24.6865 -1.31942 5.78573 77.8684
10710032 11.7238 12.1928 29.2652 24.6865 -1.31942 5.78573 77.8684
10710044 11.6974 12.2113 29.2061 24.6476 -1.30034 5.77626 77.7624
10710053 11.6798 12.2021 29.2357 24.5891 -1.32688 5.77999 77.7066
10710066 11.6798 12.2021 29.2357 24.5891 -1.32688 5.77999 77.7066
10710072 11.715 12.2757 29.2455 24.5599 -1.32555 5.74861 77.7962
10710082 11.6798 12.1836 29.216 24.6086 -1.32052 5.7849 77.688
10710092 11.6798 12.1836 29.216 24.6086 -1.32052 5.7849 77.688
10710106 11.7767 12.2665 29.2652 24.6183 -1.33363 5.74392 77.9267
10710122 11.7415 12.2665 29.1569 24.5307 -1.31964 5.72998 77.6956
10710134 11.7591 12.2941 29.1766 24.5599 -1.31176 5.72375 77.7897
10710142 11.7591 12.2941 29.1766 24.5599 -1.31176 5.72375 77.7897
10710157 11.8471 12.2757 29.1372 24.5696 -1.32951 5.70167 77.8297
10710162 11.7591 12.2757 29.0979 24.5307 -1.30388 5.71577 77.6633
10710172 11.7591 12.3218 29.0979 24.5307 -1.28829 5.7035 77.7094
10710183 11.7943 12.3402 29.1865 24.5891 -1.30004 5.70679 77.9101
10710193 11.7943 12.3402 29.1865 24.5891 -1.30004 5.70679 77.9101
10710203 11.8207 12.3494 29.1471 24.5599 -1.30286 5.68912 77.8771
10710213 11.7855 12.3678 29.1471 24.5307 -1.29578 5.6901 77.8311
10710225 11.7855 12.3678 29.1471 24.5307 -1.29578 5.6901 77.8311
10710233 11.8207 12.3954 29.1274 24.5404 -1.2879 5.67221 77.884
10710248 11.8207 12.3954 29.1274 24.5404 -1.2879 5.67221 77.884
10710251 11.7855 12.377 29.1569 24.5209 -1.29896 5.68766 77.8404
10710263 11.8119 12.3494 29.0782 24.4235 -1.32534 5.66686 77.663
10710273 11.8119 12.3494 29.0782 24.4235 -1.32534 5.66686 77.663
10710283 11.8207 12.3586 29.088 24.4332 -1.3246 5.66442 77.7006
10710295 11.856 12.331 29.0979 24.4625 -1.33779 5.66709 77.7473
10710303 11.856 12.331 29.0979 24.4625 -1.33779 5.66709 77.7473
10710317 11.856 12.4323 29.1077 24.4722 -1.30322 5.64255 77.8681
10710323 11.856 12.4323 29.1077 24.4722 -1.30322 5.64255 77.8681
10710333 11.8648 12.3862 29.088 24.4138 -1.33525 5.64303 77.7528
10710354 11.9088 12.5152 29.088 24.4625 -1.28863 5.60308 77.9745
10710364 11.9 12.4507 29.029 24.3845 -1.31607 5.60594 77.7642
10710373 11.8648 12.4599 29.0093 24.3748 -1.29951 5.60929 77.7087
10710385 11.8648 12.4599 29.0093 24.3748 -1.29951 5.60929 77.7087
10710393 11.9352 12.4967 29.0191 24.365 -1.31481 5.58088 77.8161
10710403 11.9352 12.4967 29.0191 24.365 -1.31481 5.58088 77.8161
10710413 11.9176 12.4323 29.0191 24.3748 -1.32797 5.60379 77.7438
10710423 11.9352 12.552 29.0388 24.3066 -1.32188 5.56158 77.8326
10710433 11.9352 12.552 29.0388 24.3066 -1.32188 5.56158 77.8326
10710443 11.9528 12.5612 28.9699 24.3358 -1.29328 5.54968 77.8198
10710455 11.9705 12.5152 29.0191 24.3261 -1.33248 5.56198 77.8308
10710463 11.9705 12.5152 29.0191 24.3261 -1.33248 5.56198 77.8308
10710478 12.0409 12.6073 28.9502 24.3163 -1.30513 5.50955 77.9147
10710483 12.0409 12.6073 28.9502 24.3163 -1.30513 5.50955 77.9147
10710494 11.9617 12.5612 28.901 24.3163 -1.28154 5.5366 77.7402
10710504 11.9088 12.6073 28.8715 24.3163 -1.24082 5.53481 77.7038
10710524 11.9705 12.5244 28.9207 24.2579 -1.32249 5.53929 77.6734
10710534 11.9705 12.552 28.9207 24.2871 -1.30323 5.53555 77.7302
10710545 11.9705 12.552 28.9207 24.2871 -1.30323 5.53555 77.7302
10710555 11.9528 12.5981 28.8813 24.3066 -1.26369 5.52562 77.7388
10710564 11.9528 12.5981 28.8813 24.3066 -1.26369 5.52562 77.7388
10710575 11.9352 12.4875 28.9404 24.3066 -1.31372 5.56668 77.6697
10710586 12.0057 12.5981 28.96 24.2774 -1.31368 5.51771 77.8412
10710595 12.0057 12.5981 28.96 24.2774 -1.31368 5.51771 77.8412
10710605 11.9617 12.5428 28.8616 24.365 -1.25929 5.54261 77.7311
10710615 11.9793 12.5244 28.9108 24.3456 -1.29249 5.54643 77.76
10710635 11.9617 12.5704 28.9404 24.404 -1.26084 5.54962 77.8764
10710649 11.9617 12.5704 28.9404 24.404 -1.26084 5.54962 77.8764
10710655 11.9793 12.552 28.9207 24.3748 -1.27628 5.54389 77.8267
10710665 11.9617 12.5888 28.9207 24.3748 -1.25848 5.53882 77.846
10710675 11.9617 12.5888 28.9207 24.3748 -1.25848 5.53882 77.846
10710685 11.9264 12.5244 28.9305 24.3261 -1.28897 5.56044 77.7074
10710697 11.944 12.5704 28.8911 24.3456 -1.26017 5.54118 77.7512
10710717 12.0497 12.5888 28.8715 24.3845 -1.26704 5.5108 77.8946
10710727 12.0497 12.5888 28.8715 24.3845 -1.26704 5.5108 77.8946
10710738 11.9617 12.5428 28.9305 24.3748 -1.27702 5.55217 77.8098
10710746 11.944 12.5612 28.9207 24.443 -1.23943 5.55904 77.8689
10710760 11.944 12.5612 28.9207 24.443 -1.23943 5.55904 77.8689
10710767 11.9617 12.552 28.9108 24.3943 -1.26133 5.54971 77.8188
10710776 11.9264 12.5152 28.9207 24.404 -1.26273 5.57113 77.7663
10710788 11.9264 12.5152 28.9207 24.404 -1.26273 5.57113 77.7663
10710798 11.9352 12.552 28.96 24.365 -1.27815 5.55912 77.8123
10710808 11.9352 12.552 28.96 24.365 -1.27815 5.55912 77.8123
10710818 11.8824 12.5244 28.9797 24.3943 -1.26749 5.58632 77.7808
10710828 11.8736 12.5336 28.901 24.3748 -1.24422 5.57432 77.6829
10710838 11.8736 12.5336 28.901 24.3748 -1.24422 5.57432 77.6829
10710851 11.9352 12.4967 28.9797 24.4138 -1.28636 5.58201 77.8255
10710858 11.9 12.5244 28.9502 24.4235 -1.254 5.58162 77.7981
10710868 11.9 12.5244 28.9502 24.4235 -1.254 5.58162 77.7981
10710880 11.856 12.4783 28.96 24.4722 -1.24265 5.61256 77.7665
10710888 11.856 12.4783 28.96 24.4722 -1.24265 5.61256 77.7665
10710898 11.8383 12.4691 29.0388 24.4332 -1.27758 5.62447 77.7795
10710908 11.7943 12.4599 29.1175 24.5112 -1.26496 5.65743 77.8829
10710921 11.7943 12.4599 29.1175 24.5112 -1.26496 5.65743 77.8829
10710928 11.7943 12.4415 29.0683 24.5209 -1.25288 5.65758 77.825
10710938 11.7591 12.4139 29.1569 24.5209 -1.27847 5.6849 77.8508
10710948 11.7591 12.4139 29.1569 24.5209 -1.27847 5.6849 77.8508
10710958 11.7238 12.4415 29.0979 24.5014 -1.24696 5.67751 77.7646
10710968 11.7238 12.4415 29.0979 24.5014 -1.24696 5.67751 77.7646
10710979 11.7415 12.3586 29.1175 24.5404 -1.27318 5.7019 77.758
10710998 11.7767 12.4415 29.1372 24.5891 -1.24554 5.67869 77.9445
10711000 11.7767 12.4415 29.1372 24.5891 -1.24554 5.67869 77.9445
10711015 11.7415 12.3862 29.0782 24.5014 -1.26499 5.68516 77.7073
10711019 11.7238 12.3678 29.1372 24.6865 -1.22142 5.72392 77.9154
10711029 11.7238 12.3678 29.1372 24.6865 -1.22142 5.72392 77.9154
10711039 11.8031 12.3402 29.1569 24.6086 -1.28716 5.70325 77.9088
10711049 11.7238 12.3402 29.1569 24.5404 -1.28604 5.7162 77.7614
10711059 11.7238 12.3126 29.1569 24.5404 -1.29538 5.72356 77.7337
10711069 11.6974 12.3862 29.1963 24.6476 -1.2383 5.72844 77.9275
10711079 11.6974 12.3862 29.1963 24.6476 -1.2383 5.72844 77.9275
10711090 11.6886 12.3126 29.1372 24.6378 -1.2457 5.74222 77.7762
10711101 11.6269 12.331 29.2554 24.6281 -1.26001 5.76663 77.8414
10711110 11.6269 12.331 29.2554 24.6281 -1.26001 5.76663 77.8414
10711120 11.7238 12.3586 29.2061 24.5794 -1.28165 5.72182 77.868
10711130 11.7238 12.3586 29.2061 24.5794 -1.28165 5.72182 77.868
10711140 11.6798 12.3126 29.1963 24.5599 -1.28736 5.74233 77.7485
10711150 11.715 12.3402 29.1766 24.6378 -1.25646 5.73251 77.8696
10711160 11.715 12.3402 29.1766 24.6378 -1.25646 5.73251 77.8696
10711173 11.671 12.3678 29.1766 24.5501 -1.26329 5.72643 77.7656
10711184 11.7062 12.3494 29.1865 24.5307 -1.28985 5.7208 77.7727
10711193 11.7062 12.3494 29.1865 24.5307 -1.28985 5.7208 77.7727
10711200 11.7415 12.2849 29.1963 24.5794 -1.30891 5.73557 77.802
10711211 11.7415 12.2849 29.1963 24.5794 -1.30891 5.73557 77.802
10711221 11.6798 12.2297 29.216 24.6086 -1.30493 5.77259 77.7341
10711232 11.7062 12.2849 29.2652 24.5891 -1.31586 5.75431 77.8455
10711242 11.7062 12.2849 29.2652 24.5891 -1.31586 5.75431 77.8455
10711250 11.6886 12.3218 29.2258 24.5794 -1.28936 5.74335 77.8156
10711262 11.671 12.2665 29.2258 24.5989 -1.29608 5.76511 77.7622
10711272 11.671 12.2665 29.2258 24.5989 -1.29608 5.76511 77.7622
10711282 11.7415 12.331 29.2652 24.6086 -1.30445 5.73498 77.9462
10711292 11.7415 12.331 29.2652 24.6086 -1.30445 5.73498 77.9462
10711300 11.6798 12.377 29.2652 24.6086 -1.27016 5.73914 77.9306
10711310 11.6534 12.3034 29.2849 24.6378 -1.2831 5.77161 77.8794
10711321 11.6534 12.3034 29.2849 24.6378 -1.2831 5.77161 77.8794
10711332 11.7238 12.3034 29.3144 24.5891 -1.32996 5.75056 77.9307
10711342 11.6974 12.3126 29.3439 24.5891 -1.32779 5.75864 77.943
10711352 11.6974 12.3126 29.3439 24.5891 -1.32779 5.75864 77.943
10711362 11.7238 12.2849 29.3341 24.5696 -1.34875 5.75549 77.9125
10711388 11.6798 12.2665 29.3046 24.6476 -1.30628 5.77787 77.8985
10711392 11.7062 12.2573 29.3243 24.5891 -1.34316 5.76869 77.8769
10711402 11.7062 12.2573 29.3243 24.5891 -1.34316 5.76869 77.8769
10711413 11.6622 12.2481 29.3439 24.5501 -1.35207 5.78062 77.8044
10711422 11.6446 12.2941 29.2554 24.5404 -1.30745 5.76135 77.7345
10711431 11.6446 12.2941 29.2554 24.5404 -1.30745 5.76135 77.7345
10711441 11.7062 12.2849 29.2357 24.5112 -1.33325 5.74153 77.738
10711451 11.7062 12.2849 29.2357 24.5112 -1.33325 5.74153 77.738
10711461 11.671 12.2205 29.275 24.5404 -1.34645 5.77632 77.7069
10711472 11.6181 12.2665 29.275 24.5696 -1.30486 5.78161 77.7293
10711483 11.6181 12.2665 29.275 24.5696 -1.30486 5.78161 77.7293
10711493 11.7415 12.2021 29.3144 24.5696 -1.37618 5.77055 77.8276
10711503 11.6534 12.2297 29.3439 24.5989 -1.33913 5.79366 77.8259
10711523 11.6534 12.2757 29.3341 24.6183 -1.31398 5.7825 77.8815
10711533 11.6534 12.2757 29.3341 24.6183 -1.31398 5.7825 77.8815
10711544 11.6534 12.2573 29.3538 24.6476 -1.31632 5.7932 77.912
10711553 11.7238 12.2665 29.4129 24.6281 -1.3591 5.77664 78.0313
10711567 11.7238 12.2665 29.4129 24.6281 -1.3591 5.77664 78.0313
10711573 11.671 12.1744 29.3144 24.5794 -1.36083 5.79792 77.7392
10711593 11.6798 12.2113 29.3833 24.6963 -1.33242 5.80767 77.9707
10711595 11.6798 12.2113 29.3833 24.6963 -1.33242 5.80767 77.9707
10711603 11.6358 12.2113 29.3636 24.6281 -1.33611 5.80907 77.8387
10711613 11.6358 12.2113 29.3636 24.6281 -1.33611 5.80907 77.8387
10711628 11.6974 12.2113 29.3144 24.5891 -1.35308 5.78216 77.8122
10711637 11.6269 12.2205 29.3243 24.6086 -1.32493 5.80201 77.7803
10711645 11.6269 12.2205 29.3243 24.6086 -1.32493 5.80201 77.7803
10711654 11.6622 12.2849 29.2947 24.6378 -1.29499 5.77534 77.8797
10711663 11.6622 12.2849 29.2947 24.6378 -1.29499 5.77534 77.8797
10711676 11.6269 12.1744 29.4522 24.6086 -1.37941 5.82942 77.8622
10711684 11.6622 12.1928 29.3833 24.6086 -1.36295 5.80695 77.8469
10711697 11.6622 12.1928 29.3833 24.6086 -1.36295 5.80695 77.8469
10711704 11.6798 12.156 29.3243 24.6476 -1.34964 5.80972 77.8076
10711714 11.6358 12.2205 29.3341 24.6378 -1.32072 5.80427 77.8282
10711741 11.6446 12.2573 29.3144 24.5696 -1.32802 5.78167 77.7859
10711744 11.6446 12.2573 29.3144 24.5696 -1.32802 5.78167 77.7859
10711754 11.5917 12.2021 29.3341 24.5501 -1.34324 5.81062 77.678
10711764 11.6446 12.2113 29.3636 24.5794 -1.35528 5.80096 77.7988
10711774 11.6446 12.2113 29.3636 24.5794 -1.35528 5.80096 77.7988
10711789 11.6269 12.2481 29.3341 24.5989 -1.32187 5.79463 77.808
10711793 11.6622 12.2113 29.3439 24.5891 -1.35135 5.79507 77.8065
10711814 11.6534 12.2113 29.3341 24.6281 -1.33249 5.80087 77.8268
10711825 11.6534 12.2113 29.3341 24.6281 -1.33249 5.80087 77.8268
10711834 11.6798 12.1928 29.3144 24.6768 -1.32429 5.80216 77.8639
10711844 11.6534 12.2573 29.3636 24.6573 -1.31602 5.79552 77.9316
10711866 11.6358 12.2297 29.2947 24.6378 -1.30562 5.79715 77.798
10711875 11.6269 12.2941 29.3439 24.667 -1.28628 5.79156 77.9321
10711887 11.6269 12.2941 29.3439 24.667 -1.28628 5.79156 77.9321
10711896 11.6446 12.2297 29.3243 24.667 -1.30741 5.80174 77.8656
10711915 11.6534 12.2205 29.3046 24.6476 -1.3138 5.79722 77.826
10711926 11.6358 12.2021 29.403 24.6768 -1.33471 5.82192 77.9176
10711935 11.6358 12.2021 29.403 24.6768 -1.33471 5.82192 77.9176
10711947 11.6446 12.2297 29.275 24.706 -1.27926 5.80053 77.8553
10711957 11.6093 12.1652 29.3636 24.667 -1.33047 5.83305 77.8052
10711967 11.6093 12.1652 29.3636 24.667 -1.33047 5.83305 77.8052
10711976 11.6269 12.2573 29.3439 24.6768 -1.29542 5.80254 77.905
10711991 11.6005 12.2573 29.4129 24.6768 -1.30834 5.81773 77.9475
10712003 11.6005 12.1376 29.4129 24.6963 -1.34221 5.85204 77.8472
10712006 11.5917 12.2297 29.3833 24.7352 -1.28628 5.83087 77.94
10712017 11.5917 12.2297 29.3833 24.7352 -1.28628 5.83087 77.94
10712027 11.6358 12.1744 29.3932 24.7158 -1.32789 5.83273 77.9191
10712036 11.6005 12.1468 29.4227 24.745 -1.32562 5.85645 77.915
10712048 11.6005 12.1468 29.4227 24.745 -1.32562 5.85645 77.915
10712057 11.6093 12.156 29.3538 24.7158 -1.31411 5.8401 77.8349
10712067 11.6181 12.11 29.4424 24.6963 -1.36588 5.85819 77.8668
10712088 11.5301 12.1008 29.4325 24.7937 -1.30628 5.89454 77.857
10712098 11.5301 12.1008 29.4325 24.7937 -1.30628 5.89454 77.857
10712109 11.5741 12.0915 29.403 24.784 -1.3171 5.8806 77.8526
10712118 11.5301 12.0823 29.4621 24.8327 -1.30833 5.90748 77.9071
10712131 11.5301 12.0823 29.4621 24.8327 -1.30833 5.90748 77.9071
10712138 11.5565 12.0915 29.4424 24.8424 -1.30398 5.89677 77.9328
10712152 11.5124 12.0455 29.4522 24.8521 -1.30584 5.92323 77.8623
10712159 11.5124 12.0455 29.4522 24.8521 -1.30584 5.92323 77.8623
10712169 11.5477 12.1008 29.4227 24.8521 -1.28892 5.8955 77.9233
10712189 11.4772 12.0455 29.3833 24.8327 -1.28069 5.92239 77.7387
10712208 11.6005 12.11 29.403 24.7937 -1.31563 5.86972 77.9072
10712209 11.6005 12.11 29.403 24.7937 -1.31563 5.86972 77.9072
10712220 11.5741 12.1376 29.3538 24.8229 -1.27341 5.86705 77.8884
10712230 11.5301 12.1652 29.4325 24.7937 -1.28452 5.87725 77.9215
10712240 11.5301 12.1652 29.4325 24.7937 -1.28452 5.87725 77.9215
10712251 11.5741 12.1744 29.3735 24.8034 -1.27356 5.85721 77.9254
10712261 11.5741 12.1744 29.3735 24.8034 -1.27356 5.85721 77.9254
10712270 11.5829 12.1468 29.3636 24.7937 -1.28585 5.85995 77.887
10712287 11.6005 12.1376 29.3735 24.7547 -1.31048 5.85428 77.8663
10712291 11.6005 12.1376 29.3735 24.7547 -1.31048 5.85428 77.8663
10712304 11.5389 12.2389 29.3341 24.7158 -1.25865 5.83445 77.8276
10712310 11.6886 12.2297 29.3243 24.7352 -1.29779 5.79804 77.9778
10712330 11.6886 12.2573 29.2554 24.7158 -1.27407 5.78022 77.917
10712340 11.6886 12.2573 29.2554 24.7158 -1.27407 5.78022 77.917
10712350 11.6181 12.2481 29.2455 24.6378 -1.27902 5.79111 77.7496
10712362 11.6534 12.2665 29.2061 24.6573 -1.26495 5.77442 77.7833
10712372 11.6534 12.2665 29.2061 24.6573 -1.26495 5.77442 77.7833
10712381 11.6798 12.2573 29.1766 24.667 -1.26382 5.76747 77.7808
10712392 11.6622 12.2297 29.216 24.5989 -1.30285 5.77614 77.7067
10712402 11.6622 12.2297 29.216 24.5989 -1.30285 5.77614 77.7067
10712413 11.6798 12.3126 29.216 24.6281 -1.27033 5.75278 77.8364
10712422 11.6798 12.3126 29.216 24.6281 -1.27033 5.75278 77.8364
10712431 11.6622 12.2481 29.216 24.6183 -1.29003 5.77353 77.7446
10712442 11.6534 12.2849 29.2357 24.7158 -1.24803 5.77992 77.8897
10712451 11.6534 12.2849 29.2357 24.7158 -1.24803 5.77992 77.8897
10712464 11.6534 12.2389 29.216 24.6865 -1.26741 5.78643 77.7948
10712472 11.6358 12.3402 29.2554 24.6476 -1.25302 5.76414 77.8789
10712492 11.6798 12.3218 29.2554 24.6963 -1.25623 5.76308 77.9532
10712502 11.6798 12.3218 29.2554 24.6963 -1.25623 5.76308 77.9532
10712515 11.6622 12.2481 29.1963 24.6476 -1.27414 5.77466 77.7541
10712522 11.671 12.3126 29.2258 24.6183 -1.27394 5.75514 77.8277
10712532 11.671 12.3126 29.2258 24.6183 -1.27394 5.75514 77.8277
10712542 11.7062 12.3034 29.1471 24.6086 -1.26706 5.73767 77.7653
10712552 11.6093 12.2573 29.2455 24.6281 -1.27651 5.78985 77.7402
10712562 11.6093 12.2573 29.2455 24.6281 -1.27651 5.78985 77.7402
10712577 11.6886 12.2573 29.2455 24.667 -1.28751 5.77329 77.8585
10712583 11.6886 12.2573 29.2455 24.667 -1.28751 5.77329 77.8585
10712593 11.6622 12.2573 29.275 24.5989 -1.3115 5.77576 77.7934
10712603 11.6534 12.2389 29.2652 24.667 -1.289 5.78995 77.8245
10712612 11.6534 12.2389 29.2652 24.667 -1.289 5.78995 77.8245
10712621 11.6269 12.2021 29.2849 24.6378 -1.30928 5.80573 77.7517
10712633 11.6358 12.2113 29.2849 24.6476 -1.30555 5.80206 77.7795
10712643 11.6358 12.2113 29.2849 24.6476 -1.30555 5.80206 77.7795
10712653 11.6974 12.2113 29.3439 24.6573 -1.33897 5.79373 77.9099
10712673 11.6005 12.1744 29.3243 24.6865 -1.30609 5.8306 77.7857
10712685 11.6005 12.156 29.3439 24.7352 -1.30185 5.84359 77.8357
10712693 11.6005 12.156 29.3439 24.7352 -1.30185 5.84359 77.8357
10712703 11.5741 12.2021 29.3439 24.8132 -1.25197 5.8475 77.9333
10712713 11.5653 12.156 29.403 24.7937 -1.28936 5.86682 77.918
10712723 11.5653 12.156 29.403 24.7937 -1.28936 5.86682 77.918
10712733 11.6005 12.1468 29.403 24.8911 -1.27035 5.87127 78.0415
10712753 11.5477 12.1192 29.4129 24.9009 -1.26329 5.8951 77.9806
10712764 11.486 12.0547 29.5113 24.9009 -1.29621 5.9404 77.9529
10712774 11.486 12.0547 29.5113 24.9009 -1.29621 5.9404 77.9529
10712785 11.5301 12.0179 29.531 24.8521 -1.34446 5.93509 77.9311
10712797 11.4948 11.9902 29.4916 24.9398 -1.30151 5.9576 77.9165
10712804 11.4948 11.9902 29.4916 24.9398 -1.30151 5.9576 77.9165
10712814 11.486 12.0731 29.5014 24.8814 -1.29358 5.93204 77.942
10712834 11.4155 11.9902 29.5113 24.8327 -1.31959 5.9688 77.7497
10712845 11.5124 11.9902 29.5507 24.8814 -1.34455 5.95294 77.9347
10712855 11.5124 11.9902 29.5507 24.8814 -1.34455 5.95294 77.9347
10712871 11.4332 12.0087 29.5408 24.9009 -1.30466 5.97043 77.8835
10712875 11.3891 11.9258 29.6491 24.9788 -1.32586 6.02615 77.9428
10712896 11.442 11.9902 29.5999 25.0178 -1.29207 5.99337 78.0499
10712907 11.442 11.9902 29.5999 25.0178 -1.29207 5.99337 78.0499
10712918 11.442 11.9442 29.6688 24.9691 -1.34494 6.00809 78.024
10712925 11.3627 11.935 29.6786 24.9593 -1.33027 6.03195 77.9356
10712945 11.3891 11.8982 29.6688 24.9983 -1.33459 6.03811 77.9543
10712955 11.3715 11.8521 29.6097 24.9983 -1.32685 6.04852 77.8316
10712966 11.3715 11.8521 29.6097 24.9983 -1.32685 6.04852 77.8316
10712975 11.3803 11.8613 29.718 24.9983 -1.3593 6.05608 77.9579
10712991 11.3803 11.8613 29.718 24.9983 -1.3593 6.05608 77.9579
10712995 11.3187 11.8613 29.6786 25.0178 -1.32203 6.07047 77.8764
10713005 11.3803 11.8153 29.6589 25.0373 -1.34376 6.06623 77.8918
10713026 11.3451 11.8613 29.7475 25.0567 -1.33782 6.07568 78.0107
10713035 11.3451 11.8613 29.6885 25.0567 -1.31989 6.06892 77.9516
10713045 11.3098 11.7784 29.6885 25.0275 -1.34709 6.09755 77.8043
10713055 11.2746 11.7692 29.7672 25.1249 -1.33048 6.12971 77.936
10713075 11.2746 11.7324 29.7771 25.1152 -1.34921 6.13971 77.8993
10713085 11.3539 11.714 29.7475 25.1347 -1.36394 6.12206 77.9501
10713106 11.3275 11.7784 29.7869 25.0957 -1.35925 6.11181 77.9885
10713117 11.2922 11.7784 29.7771 25.0957 -1.34558 6.12023 77.9434
10713127 11.2922 11.714 29.7771 25.1639 -1.34431 6.14546 77.9472
10713138 11.2746 11.6956 29.8066 25.1444 -1.36075 6.15638 77.9212
10713147 11.2746 11.6956 29.8066 25.1444 -1.36075 6.15638 77.9212
10713161 11.213 11.6679 29.7771 25.1249 -1.349 6.17509 77.7829
10713167 11.2482 11.6587 29.7672 25.2126 -1.33016 6.17684 77.8867
10713177 11.2482 11.6587 29.7672 25.2126 -1.33016 6.17684 77.8867
10713188 11.2746 11.76 29.7279 25.2418 -1.28218 6.14102 78.0043
10713199 11.2746 11.76 29.7279 25.2418 -1.28218 6.14102 78.0043
10713208 11.213 11.6863 29.7771 25.1834 -1.32299 6.17671 77.8598
10713218 11.2746 11.7048 29.7771 25.2418 -1.31576 6.16158 77.9983
10713231 11.2746 11.7048 29.7771 25.2418 -1.31576 6.16158 77.9983
10713236 11.2922 11.6956 29.7771 25.2029 -1.33737 6.15488 77.9677
10713247 11.257 11.714 29.8164 25.2321 -1.32255 6.16722 78.0195
10713259 11.257 11.714 29.8164 25.2321 -1.32255 6.16722 78.0195
10713268 11.2834 11.7232 29.7968 25.2321 -1.32148 6.15532 78.0355
10713279 11.2834 11.7232 29.7968 25.2321 -1.32148 6.15532 78.0355
10713288 11.2218 11.714 29.6688 25.1931 -1.28007 6.15562 77.7977
10713301 11.2394 11.7416 29.718 25.2321 -1.27795 6.15334 77.9311
10713308 11.2394 11.7416 29.718 25.2321 -1.27795 6.15334 77.9311
10713323 11.213 11.7508 29.6294 25.1249 -1.27597 6.13575 77.7181
10713328 11.2482 11.7324 29.6983 25.1639 -1.30077 6.14347 77.8428
10713338 11.2482 11.7324 29.6983 25.1639 -1.30077 6.14347 77.8428
10713348 11.257 11.7232 29.6491 25.1347 -1.30145 6.13464 77.7639
10713358 11.257 11.7232 29.6491 25.1347 -1.30145 6.13464 77.7639
10713368 11.2746 11.7048 29.6885 25.1834 -1.30857 6.14489 77.8512
10713378 11.2394 11.6956 29.6885 25.1444 -1.31413 6.15254 77.7678
10713389 11.2394 11.6956 29.6885 25.1444 -1.31413 6.15254 77.7678
10713398 11.2218 11.714 29.7869 25.2029 -1.31274 6.17013 77.9255
10713410 11.1777 11.7324 29.7377 25.2029 -1.27814 6.17151 77.8507
10713431 11.2482 11.76 29.7869 25.2126 -1.30194 6.15157 78.0077
10713439 11.2482 11.76 29.7869 25.2126 -1.30194 6.15157 78.0077
10713454 11.2394 11.7232 29.7869 25.2808 -1.2887 6.17167 78.0303
10713459 11.257 11.7969 29.7771 25.1736 -1.30235 6.13365 78.0046
10713469 11.257 11.7969 29.7771 25.1736 -1.30235 6.13365 78.0046
10713479 11.2746 11.7692 29.6983 25.1834 -1.2898 6.12851 77.9255
10713489 11.257 11.8153 29.6688 25.2516 -1.23695 6.12521 77.9926
10713499 11.257 11.8153 29.6688 25.2516 -1.23695 6.12521 77.9926
10713509 11.2482 11.8061 29.7082 25.1931 -1.26904 6.12792 77.9555
10713529 11.2394 11.7048 29.7279 25.2029 -1.30325 6.16115 77.8749
10713539 11.2218 11.7692 29.7279 25.2321 -1.26627 6.15175 77.9509
10713549 11.2218 11.7692 29.7279 25.2321 -1.26627 6.15175 77.9509
10713566 11.257 11.7784 29.7279 25.2029 -1.28375 6.13637 77.9662
10713569 11.2658 11.7416 29.7377 25.2418 -1.2887 6.14952 77.9869
10713581 11.2658 11.7416 29.7377 25.2418 -1.2887 6.14952 77.9869
10713589 11.301 11.7692 29.7869 25.2223 -1.3116 6.13586 78.0795
10713605 11.301 11.7692 29.7869 25.2223 -1.3116 6.13586 78.0795
10713609 11.2394 11.7692 29.718 25.1736 -1.28835 6.1392 77.9003
10713619 11.2746 11.7969 29.7082 25.1152 -1.30648 6.11437 77.8948
10713630 11.2746 11.7969 29.7082 25.1152 -1.30648 6.11437 77.8948
10713640 11.2394 11.7692 29.7279 25.1249 -1.3078 6.13478 77.8614
10713650 11.2658 11.7692 29.6786 25.1249 -1.30086 6.122 77.8386
10713671 11.2746 11.7876 29.6885 25.0567 -1.32336 6.10795 77.8075
10713680 11.2746 11.7876 29.6885 25.0567 -1.32336 6.10795 77.8075
10713694 11.2041 11.7876 29.6688 25.0665 -1.2926 6.12595 77.7271
10713702 11.2658 11.8613 29.718 25.1444 -1.2752 6.10376 77.9895
10713729 11.2834 11.8337 29.7475 25.047 -1.33173 6.09872 77.9116
10713732 11.301 11.8153 29.7672 25.047 -1.34928 6.10118 77.9305
10713741 11.301 11.8153 29.7672 25.047 -1.34928 6.10118 77.9305
10713752 11.3451 11.8429 29.6885 25.0567 -1.32611 6.0739 77.9332
10713765 11.3451 11.8429 29.6885 25.0567 -1.32611 6.0739 77.9332
10713772 11.2922 11.8797 29.718 24.9983 -1.32633 6.07492 77.8883
10713782 11.3539 11.9074 29.7082 24.9983 -1.33273 6.04966 77.9677
10713792 11.3539 11.9074 29.7082 24.9983 -1.33273 6.04966 77.9677
10713802 11.3451 11.8613 29.718 25.0178 -1.34202 6.06784 77.9422
10713812 11.3187 11.8797 29.718 24.9691 -1.34424 6.06442 77.8855
10713822 11.3187 11.8797 29.718 24.9691 -1.34424 6.06442 77.8855
10713838 11.3187 11.9074 29.7475 25.008 -1.3307 6.06481 77.9816
10713842 11.3187 11.9074 29.7475 25.008 -1.3307 6.06481 77.9816
10713852 11.3627 11.8429 29.7377 24.9983 -1.36615 6.06808 77.9416
10713862 11.3539 11.8521 29.7082 24.9496 -1.36789 6.059 77.8637
10713873 11.3539 11.8521 29.7082 24.9496 -1.36789 6.059 77.8637
10713886 11.3275 11.9074 29.7672 24.9106 -1.37228 6.05351 77.9127
10713893 11.3627 11.8705 29.7475 24.9398 -1.37957 6.05504 77.9206
10713913 11.3803 11.8705 29.7082 25.008 -1.3499 6.05359 77.967
10713923 11.3803 11.8705 29.7082 25.008 -1.3499 6.05359 77.967
10713935 11.3451 11.9166 29.6688 24.9203 -1.34133 6.03606 77.8508
10713943 11.3539 11.8797 29.7377 24.9398 -1.3708 6.0538 77.9111
10713958 11.3539 11.8797 29.7377 24.9398 -1.3708 6.0538 77.9111
10713963 11.3715 11.8797 29.7082 24.9496 -1.36389 6.04676 77.909
10713974 11.4155 11.9074 29.6491 24.8911 -1.36976 6.01388 77.8631
10713984 11.4155 11.9074 29.6491 24.8911 -1.36976 6.01388 77.8631
10713994 11.4596 11.9534 29.6589 24.8521 -1.38371 5.98623 77.9241
10714014 11.4155 11.8705 29.6786 24.7937 -1.42427 6.01599 77.7584
10714025 11.4772 11.935 29.6589 24.7937 -1.4151 5.97968 77.8648
10714046 11.4772 11.935 29.6589 24.7937 -1.4151 5.97968 77.8648
10714048 11.4508 11.9902 29.6196 24.7937 -1.37642 5.96735 77.8543
10714055 11.5389 11.981 29.6294 24.7255 -1.43234 5.93934 77.8748
10714067 11.5389 11.981 29.6294 24.7255 -1.43234 5.93934 77.8748
10714075 11.5389 12.0639 29.6196 24.706 -1.40786 5.91366 77.9284
10714089 11.5653 12.0179 29.5507 24.745 -1.39739 5.91544 77.8788
10714105 11.6269 12.0455 29.531 24.7352 -1.40404 5.88805 77.9387
10714115 11.6269 12.0455 29.531 24.7352 -1.40404 5.88805 77.9387
10714125 11.5741 12.0823 29.5014 24.6768 -1.3864 5.88204 77.8347
10714135 11.6534 12.11 29.5408 24.7255 -1.3965 5.86373 78.0297
10714145 11.6534 12.11 29.5408 24.7255 -1.3965 5.86373 78.0297
10714157 11.6181 12.0823 29.4818 24.6378 -1.40701 5.86336 77.8201
10714167 11.6534 12.156 29.4621 24.5794 -1.40655 5.825 77.8508
10714177 11.6534 12.156 29.4621 24.5794 -1.40655 5.825 77.8508
10714186 11.6886 12.156 29.3735 24.5599 -1.39698 5.80282 77.778
10714198 11.6886 12.156 29.3735 24.5599 -1.39698 5.80282 77.778
10714209 11.6622 12.1468 29.3932 24.5501 -1.40137 5.81353 77.7523
10714218 11.715 12.1652 29.3538 24.4917 -1.41906 5.78288 77.7257
10714227 11.715 12.1652 29.3538 24.4917 -1.41906 5.78288 77.7257
10714239 11.715 12.1744 29.403 24.5112 -1.42424 5.78856 77.8036
10714247 11.715 12.1744 29.403 24.5112 -1.42424 5.78856 77.8036
10714261 11.6534 12.156 29.4129 24.5307 -1.40816 5.81344 77.7529
10714266 11.7326 12.1928 29.403 24.4917 -1.42993 5.77663 77.8202
10714277 11.7326 12.1928 29.403 24.4917 -1.42993 5.77663 77.8202
10714288 11.6358 12.1928 29.2947 24.5112 -1.36101 5.79201 77.6345
10714298 11.715 12.1468 29.3538 24.5404 -1.40877 5.79358 77.756
10714308 11.715 12.1468 29.3538 24.5404 -1.40877 5.79358 77.756
10714318 11.7591 12.2297 29.3735 24.5891 -1.38348 5.7678 77.9513
10714329 11.7591 12.2297 29.3243 24.5891 -1.36856 5.76196 77.9021
10714338 11.715 12.2297 29.3243 24.5112 -1.3816 5.76446 77.7802
10714348 11.7855 12.2849 29.3932 24.5501 -1.39193 5.74377 78.0137
10714360 11.7855 12.2849 29.3932 24.5501 -1.39193 5.74377 78.0137
10714368 11.7679 12.2113 29.3243 24.4917 -1.41049 5.75296 77.7951
10714379 11.7503 12.3126 29.3243 24.4722 -1.3774 5.72834 77.8593
10714389 11.7503 12.3126 29.3243 24.4722 -1.3774 5.72834 77.8593
10714399 11.7943 12.331 29.2652 24.4819 -1.36331 5.70584 77.8724
10714410 11.8119 12.2573 29.2554 24.4917 -1.38733 5.72075 77.8163
10714419 11.8119 12.2573 29.2554 24.4917 -1.38733 5.72075 77.8163
10714433 11.8207 12.3126 29.2554 24.4722 -1.37788 5.70138 77.8609
10714439 11.8207 12.3126 29.2554 24.4722 -1.37788 5.70138 77.8609
10714456 11.8207 12.2757 29.1766 24.3845 -1.39622 5.69127 77.6576
10714459 11.7767 12.2389 29.2947 24.4527 -1.40806 5.73509 77.763
10714470 11.7767 12.2389 29.2947 24.4527 -1.40806 5.73509 77.763
10714479 11.8383 12.3402 29.1963 24.5209 -1.33946 5.68812 77.8957
10714490 11.7855 12.3126 29.1569 24.4917 -1.33065 5.70132 77.7467
10714501 11.7855 12.3126 29.1569 24.4917 -1.33065 5.70132 77.7467
10714510 11.8295 12.3586 29.2554 24.4138 -1.38475 5.67981 77.8573
10714521 11.8295 12.3586 29.2554 24.4138 -1.38475 5.67981 77.8573
10714530 11.8031 12.2757 29.1865 24.4332 -1.37731 5.70297 77.6985
10714543 11.8119 12.3954 29.1865 24.3943 -1.3526 5.66411 77.7881
10714550 11.8119 12.3954 29.1865 24.3943 -1.3526 5.66411 77.7881
10714560 11.8383 12.3862 29.1668 24.404 -1.35447 5.65834 77.7954
10714572 11.8383 12.3678 29.1766 24.4527 -1.3472 5.67026 77.8355
10714590 11.8207 12.3954 29.2258 24.4527 -1.34745 5.6735 77.8947
10714600 11.8207 12.3954 29.2258 24.4527 -1.34745 5.6735 77.8947
10714610 11.7943 12.3402 29.1865 24.4138 -1.35937 5.68582 77.7347
10714620 11.8383 12.3954 29.1963 24.3943 -1.36362 5.65827 77.8244
10714633 11.8383 12.3954 29.1963 24.3943 -1.36362 5.65827 77.8244
10714640 11.8471 12.3586 29.1372 24.404 -1.35753 5.6598 77.747
10714655 11.8471 12.3954 29.1175 24.3456 -1.35887 5.64061 77.7057
10714660 11.8471 12.3954 29.1175 24.3456 -1.35887 5.64061 77.7057
10714671 11.8736 12.4599 29.1372 24.443 -1.3181 5.6306 77.9137
10714681 11.8736 12.4599 29.1372 24.443 -1.3181 5.6306 77.9137
10714690 11.8295 12.4047 29.1569 24.4235 -1.33596 5.65695 77.8146
10714701 11.856 12.4231 29.1274 24.5014 -1.30245 5.65087 77.9079
10714712 11.856 12.4231 29.1274 24.5014 -1.30245 5.65087 77.9079
10714727 11.8736 12.3954 29.1372 24.4332 -1.34318 5.64651 77.8395
10714732 11.8119 12.3402 29.1077 24.4722 -1.32095 5.6787 77.732
10714754 11.8471 12.4047 29.1077 24.4332 -1.32305 5.64753 77.7927
10714762 11.8471 12.4047 29.1077 24.4332 -1.32305 5.64753 77.7927
10714776 11.8912 12.377 29.088 24.4138 -1.34641 5.63846 77.77
10714782 11.8648 12.377 29.0585 24.4625 -1.31289 5.64779 77.7627
10714792 11.8648 12.377 29.0585 24.4625 -1.31289 5.64779 77.7627
10714802 11.9176 12.4323 29.0782 24.4235 -1.32945 5.6168 77.8516
10714811 11.9176 12.4599 29.0782 24.4138 -1.32341 5.60831 77.8695
10714827 11.9176 12.4599 29.0782 24.4138 -1.32341 5.60831 77.8695
10714835 11.944 12.4783 29.0486 24.4332 -1.30966 5.59524 77.9043
10714851 11.944 12.4783 29.0486 24.4332 -1.30966 5.59524 77.9043
10714855 11.8736 12.4691 29.029 24.3748 -1.30508 5.60689 77.7464
10714863 11.9176 12.4967 29.0683 24.3456 -1.33102 5.58914 77.8283
10714874 11.9176 12.4967 29.0683 24.3456 -1.33102 5.58914 77.8283
10714884 11.8912 12.4691 29.029 24.365 -1.31375 5.60104 77.7543
10714899 11.9 12.4967 28.9797 24.3261 -1.30527 5.58072 77.7026
10714903 11.9 12.4967 28.9797 24.3261 -1.30527 5.58072 77.7026
10714913 11.9617 12.5244 28.96 24.3943 -1.28566 5.56298 77.8404
10714923 11.9617 12.5244 28.96 24.3943 -1.28566 5.56298 77.8404
10714933 11.944 12.4967 28.9994 24.3261 -1.32469 5.57144 77.7663
10714943 11.944 12.4967 29.0388 24.3358 -1.33337 5.5774 77.8154
10714953 11.944 12.4967 29.0388 24.3358 -1.33337 5.5774 77.8154
10714966 11.9881 12.506 29.0683 24.3456 -1.34932 5.56808 77.9079
10714987 11.9705 12.5612 28.9994 24.3358 -1.30763 5.54861 77.8669
10714994 11.9617 12.506 29.0585 24.3456 -1.3383 5.57387 77.8717
10715004 11.9617 12.506 29.0585 24.3456 -1.3383 5.57387 77.8717
10715014 12.0145 12.5152 28.901 24.2968 -1.31983 5.53244 77.7275
10715024 11.9969 12.5428 28.9108 24.2676 -1.318 5.52743 77.7181
10715034 11.9969 12.5428 28.9108 24.2676 -1.318 5.52743 77.7181
10715044 12.0233 12.5612 28.9896 24.3066 -1.33059 5.52993 77.8807
10715055 11.9969 12.6165 28.9994 24.3066 -1.30688 5.52353 77.9194
10715064 11.9969 12.6165 28.9994 24.3066 -1.30688 5.52353 77.9194
10715074 11.9881 12.5428 28.9699 24.3358 -1.31024 5.54524 77.8366
10715094 12.0145 12.552 28.96 24.2384 -1.34513 5.52278 77.765
10715106 11.9793 12.6165 28.96 24.2871 -1.29612 5.52101 77.8429
10715124 12.0585 12.552 28.9108 24.2189 -1.35016 5.50278 77.7403
10715137 12.0585 12.552 28.9108 24.2189 -1.35016 5.50278 77.7403
10715145 12.0057 12.5704 28.901 24.1702 -1.34134 5.50471 77.6473
10715157 12.0145 12.5796 28.8518 24.1799 -1.32259 5.49512 77.6258
10715180 12.0145 12.5796 28.8518 24.102 -1.34905 5.48557 77.5479
10715185 12.0409 12.5428 28.9305 24.1215 -1.38698 5.50036 77.6357
10715201 12.0409 12.5428 28.9305 24.1215 -1.38698 5.50036 77.6357
10715207 12.0233 12.5796 28.8715 24.1702 -1.33459 5.49402 77.6446
10715217 12.1114 12.6257 28.9108 24.1507 -1.36437 5.46111 77.7986
10715229 12.1114 12.6257 28.9108 24.1507 -1.36437 5.46111 77.7986
10715237 12.0762 12.6257 28.9699 24.1702 -1.365 5.48 77.8419
10715246 12.0762 12.6257 28.9699 24.1702 -1.365 5.48 77.8419
10715257 12.0938 12.6257 28.9305 24.1215 -1.3749 5.46458 77.7715
10715266 12.129 12.5888 28.9699 24.1117 -1.41335 5.46863 77.7995
10715277 12.129 12.5888 28.9699 24.1117 -1.41335 5.46863 77.7995
10715286 12.1466 12.5796 28.9305 24.0728 -1.42312 5.45681 77.7296
10715297 12.1202 12.6073 28.7829 24.0533 -1.36743 5.43593 77.5636
10715307 12.1202 12.6073 28.7829 24.0533 -1.36743 5.43593 77.5636
10715318 12.129 12.6349 28.8616 24.0533 -1.38469 5.43604 77.6788
10715327 12.129 12.6349 28.8616 24.0533 -1.38469 5.43604 77.6788
10715339 12.1202 12.5981 28.8518 24.0046 -1.40811 5.44085 77.5746
10715347 12.1819 12.6257 28.9305 24.1215 -1.40163 5.44143 77.8596
10715357 12.1819 12.6257 28.9305 24.1215 -1.40163 5.44143 77.8596
10715366 12.1819 12.6994 28.901 24.0338 -1.39743 5.40767 77.816
10715376 12.1819 12.6994 28.901 24.0338 -1.39743 5.40767 77.816
10715386 12.2259 12.5981 28.9108 24.0046 -1.45811 5.42032 77.7394
10715396 12.2347 12.6717 28.8813 23.9656 -1.44003 5.39022 77.7533
10715407 12.2347 12.6717 28.8813 23.9656 -1.44003 5.39022 77.7533
10715417 12.2611 12.6441 28.8715 23.9072 -1.47435 5.38208 77.6839
10715428 12.2259 12.6809 28.8813 23.9461 -1.44085 5.3877 77.7343
10715437 12.2259 12.6809 28.8813 23.9461 -1.44085 5.3877 77.7343
10715451 12.2788 12.6901 28.8419 23.8877 -1.4617 5.35931 77.6985
10715457 12.2788 12.6901 28.8419 23.8877 -1.4617 5.35931 77.6985
10715466 12.1995 12.6717 28.8419 23.8877 -1.44393 5.38494 77.6008
10715485 12.2964 12.6809 28.8715 23.8292 -1.49903 5.35352 77.678
10715488 12.2964 12.6809 28.8715 23.8292 -1.49903 5.35352 77.678
10715498 12.2964 12.7178 28.8715 23.8682 -1.4732 5.34871 77.7538
10715508 12.3052 12.6994 28.7927 23.8195 -1.47489 5.33538 77.6167
10715520 12.3052 12.6994 28.7927 23.8195 -1.47489 5.33538 77.6167
10715528 12.3668 12.7086 28.8518 23.8 -1.51493 5.32176 77.7272
10715543 12.3668 12.7086 28.8518 23.8 -1.51493 5.32176 77.7272
10715548 12.3316 12.773 28.7927 23.8195 -1.4578 5.30919 77.7168
10715558 12.3845 12.8099 28.8222 23.8195 -1.47019 5.28947 77.836
10715570 12.3845 12.8099 28.8222 23.8195 -1.47019 5.28947 77.836
10715579 12.3492 12.7914 28.8025 23.7903 -1.46979 5.29736 77.7335
10715590 12.3668 12.8375 28.7927 23.839 -1.43992 5.2856 77.836
10715599 12.3668 12.8375 28.7927 23.839 -1.43992 5.2856 77.836
10715613 12.3845 12.8375 28.7927 23.761 -1.47175 5.27127 77.7757
10715622 12.3845 12.8375 28.7927 23.761 -1.47175 5.27127 77.7757
10715629 12.3492 12.773 28.7533 23.8682 -1.43463 5.30575 77.7438
10715640 12.314 12.773 28.7632 23.8877 -1.42031 5.31861 77.7379
10715660 12.3316 12.7546 28.7632 23.9072 -1.42529 5.32125 77.7565
10715669 12.2523 12.727 28.7829 23.9364 -1.40666 5.3553 77.6986
10715679 12.2523 12.727 28.7829 23.9364 -1.40666 5.3553 77.6986
10715689 12.2788 12.7086 28.8419 23.9559 -1.43223 5.36294 77.7851
10715699 12.2611 12.7086 28.8124 23.9559 -1.41793 5.3639 77.738
10715711 12.2611 12.7086 28.8124 23.9948 -1.4047 5.36873 77.7769
10715720 12.2259 12.7362 28.8321 23.9656 -1.40053 5.36954 77.7598
10715734 12.2259 12.7362 28.8321 23.9656 -1.40053 5.36954 77.7598
10715741 12.2083 12.6717 28.8025 24.0046 -1.39487 5.39223 77.6871
10715750 12.2259 12.6809 28.8616 24.0436 -1.40179 5.3973 77.812
10715760 12.2259 12.6809 28.8616 24.0436 -1.40179 5.3973 77.812
10715770 12.1907 12.7086 28.8518 24.063 -1.37213 5.40048 77.814
10715780 12.1907 12.7086 28.8518 24.063 -1.37213 5.40048 77.814
10715790 12.1378 12.6257 28.8813 24.0533 -1.39648 5.43857 77.6981
10715800 12.1026 12.6165 28.8911 24.1117 -1.37204 5.45866 77.7219
10715810 12.1026 12.6165 28.8911 24.1117 -1.37204 5.45866 77.7219
10715820 12.1026 12.552 28.9207 24.2384 -1.35994 5.49476 77.8137
10715833 12.0585 12.5612 28.901 24.2481 -1.33414 5.50272 77.7689
10715840 12.0585 12.5612 28.901 24.2481 -1.33414 5.50272 77.7689
10715850 12.0497 12.5612 28.9502 24.2968 -1.32995 5.51699 77.858
10715861 12.0497 12.5612 28.9502 24.2968 -1.32995 5.51699 77.858
10715870 11.9793 12.552 28.96 24.2676 -1.32451 5.53564 77.7589
10715882 11.9793 12.5796 28.9404 24.2968 -1.29928 5.52951 77.7961
10715891 11.9793 12.5796 28.9404 24.2968 -1.29928 5.52951 77.7961
10715904 11.9793 12.5612 28.9404 24.3261 -1.29563 5.53793 77.8069
10715911 11.944 12.5981 28.9207 24.3553 -1.25657 5.53866 77.8181
10715925 11.944 12.5981 28.9207 24.3553 -1.25657 5.53866 77.8181
10715932 11.9352 12.5981 28.8616 24.3748 -1.22927 5.53618 77.7697
10715952 11.944 12.5336 28.9305 24.3456 -1.28464 5.55571 77.7537
10715962 11.856 12.5336 28.9699 24.4527 -1.23359 5.59676 77.8122
10715972 11.856 12.5336 28.9699 24.4527 -1.23359 5.59676 77.8122
10715983 11.8824 12.5152 28.9108 24.4722 -1.22326 5.58986 77.7806
10715991 11.8648 12.5428 28.9896 24.4527 -1.23919 5.59437 77.8499
10716001 11.8648 12.5428 28.9896 24.4527 -1.23919 5.59437 77.8499
10716011 11.9881 12.552 28.9699 24.5209 -1.24472 5.56524 78.0309
10716021 11.9881 12.552 28.9699 24.5209 -1.24472 5.56524 78.0309
10716031 11.8295 12.5336 28.9305 24.4332 -1.22005 5.59664 77.7269
10716041 11.8031 12.4967 28.9699 24.5599 -1.19375 5.63344 77.8296
10716053 11.8031 12.4967 28.9699 24.5599 -1.19375 5.63344 77.8296
10716061 11.8295 12.506 28.9207 24.5014 -1.20336 5.61102 77.7576
10716072 11.8119 12.4967 28.9108 24.4819 -1.20463 5.61459 77.7014
10716082 11.8119 12.4967 28.9108 24.4819 -1.20463 5.61459 77.7014
10716091 11.8383 12.4875 28.9404 24.5404 -1.20515 5.62064 77.8066
10716115 11.7591 12.4691 28.9699 24.4527 -1.22572 5.63956 77.6508
10716124 11.7503 12.4783 29.029 24.4917 -1.22483 5.65126 77.7492
10716133 11.7503 12.4783 29.029 24.4917 -1.22483 5.65126 77.7492
10716143 11.7503 12.4691 28.9896 24.5404 -1.19947 5.65482 77.7494
10716155 11.7767 12.4507 29.029 24.5404 -1.2258 5.65743 77.7967
10716163 11.7767 12.4507 29.029 24.5404 -1.2258 5.65743 77.7967
10716174 11.8119 12.4231 29.088 24.6378 -1.23108 5.67416 77.9608
10716183 11.8119 12.4231 29.088 24.6378 -1.23108 5.67416 77.9608
10716195 11.8207 12.4047 29.0486 24.5501 -1.2575 5.66149 77.8242
10716203 11.8119 12.4507 29.0782 24.5599 -1.24502 5.65632 77.9007
10716218 11.8119 12.4507 29.0782 24.5599 -1.24502 5.65632 77.9007
10716223 11.8471 12.4783 29.0782 24.5501 -1.24973 5.6385 77.9538
10716233 11.8119 12.4139 29.0585 24.5014 -1.27115 5.65672 77.7857
10716253 11.7855 12.506 29.0093 24.4527 -1.23341 5.62751 77.7534
10716264 11.7855 12.506 29.0093 24.4527 -1.23341 5.62751 77.7534
10716274 11.8031 12.4323 29.029 24.4527 -1.26969 5.64476 77.7171
10716285 11.7943 12.4875 29.1077 24.5209 -1.24937 5.6501 77.9105
10716294 11.7943 12.4875 29.1077 24.5209 -1.24937 5.6501 77.9105
10716304 11.8031 12.4599 29.088 24.4527 -1.27837 5.64453 77.8038
10716314 11.8119 12.4323 29.1766 24.4722 -1.31078 5.6625 77.893
10716334 11.8207 12.4323 29.0979 24.5014 -1.27962 5.65422 77.8523
10716354 11.856 12.3494 29.0782 24.4722 -1.32226 5.661 77.7557
10716365 11.8736 12.4691 29.0782 24.404 -1.31019 5.61636 77.8249
10716375 11.8736 12.4691 29.0782 24.404 -1.31019 5.61636 77.8249
10716385 11.856 12.4323 29.1175 24.404 -1.32927 5.63553 77.8098
10716396 11.8383 12.4967 29.0486 24.3553 -1.29759 5.60893 77.739
10716405 11.8383 12.4967 29.0486 24.3553 -1.29759 5.60893 77.739
10716417 11.8648 12.4875 29.1274 24.404 -1.31626 5.61974 77.8837
10716427 11.8648 12.4875 29.1274 24.404 -1.31626 5.61974 77.8837
10716439 11.8736 12.4599 29.1668 24.3553 -1.35672 5.6236 77.8556
10716447 11.8912 12.4599 29.2455 24.3553 -1.38595 5.62841 77.9519
10716473 11.8383 12.4599 29.1569 24.3943 -1.32984 5.63644 77.8494
10716477 11.8295 12.4323 29.1569 24.3748 -1.3431 5.64376 77.7935
10716486 11.8295 12.4323 29.1569 24.3748 -1.3431 5.64376 77.7935
10716496 11.8912 12.4323 29.1766 24.4138 -1.35462 5.63447 77.9138
10716508 11.8912 12.4323 29.1766 24.4138 -1.35462 5.63447 77.9138
10716516 11.8031 12.4047 29.1766 24.404 -1.34051 5.66399 77.7884
10716527 11.8471 12.4415 29.1668 24.3748 -1.34833 5.63783 77.8302
10716537 11.8471 12.4415 29.1668 24.3748 -1.34833 5.63783 77.8302
10716550 11.8031 12.4691 29.1668 24.4332 -1.30583 5.64921 77.8722
10716557 11.8031 12.3954 29.3144 24.3943 -1.38877 5.68178 77.9072
10716567 11.8031 12.3954 29.3144 24.3943 -1.38877 5.68178 77.9072
10716578 11.7855 12.4139 29.2554 24.4722 -1.33291 5.68382 77.9269
10716597 11.7503 12.3586 29.2258 24.5112 -1.31873 5.709 77.8459
10716607 11.715 12.3586 29.1372 24.5404 -1.27112 5.71129 77.7513
10716628 11.8031 12.3678 29.1963 24.5404 -1.31283 5.69247 77.9076
10716638 11.7503 12.4047 29.2061 24.5112 -1.29718 5.6944 77.8722
10716648 11.7503 12.4047 29.2061 24.5112 -1.29718 5.6944 77.8722
10716659 11.7943 12.3862 29.1865 24.5404 -1.30094 5.68874 77.9074
10716668 11.7943 12.3862 29.1865 24.5404 -1.30094 5.68874 77.9074
10716681 11.7062 12.3402 29.2061 24.5891 -1.27921 5.73257 77.8417
10716688 11.6974 12.3494 29.1963 24.667 -1.24414 5.74056 77.9102
10716703 11.6974 12.3494 29.1963 24.667 -1.24414 5.74056 77.9102
10716708 11.6446 12.3218 29.2554 24.6768 -1.25206 5.77016 77.8985
10716719 11.6534 12.2573 29.2455 24.667 -1.27678 5.7827 77.8232
10716729 11.6534 12.2573 29.2455 24.667 -1.27678 5.7827 77.8232
10716739 11.6269 12.2297 29.3243 24.667 -1.30205 5.80645 77.8479
10716768 11.6005 12.2573 29.3341 24.6281 -1.30083 5.80269 77.82
10716770 11.6181 12.2389 29.2357 24.7547 -1.23966 5.80624 77.8474
10716791 11.6181 12.2941 29.3243 24.7352 -1.25462 5.79964 77.9718
10716799 11.6005 12.2113 29.275 24.7255 -1.26548 5.81953 77.8123
10716815 11.6005 12.2113 29.275 24.7255 -1.26548 5.81953 77.8123
10716820 11.6093 12.2665 29.2258 24.6865 -1.24765 5.79198 77.7882
10716831 11.6093 12.2665 29.2258 24.6865 -1.24765 5.79198 77.7882
10716841 11.5565 12.2113 29.2652 24.6963 -1.2589 5.82671 77.7292
10716850 11.5301 12.2205 29.3439 24.7547 -1.25203 5.84749 77.8492
10716863 11.5301 12.2205 29.3439 24.7547 -1.25203 5.84749 77.8492
10716870 11.5565 12.1468 29.3144 24.8034 -1.25951 5.8624 77.8211
10716880 11.6005 12.2573 29.3341 24.7352 -1.26466 5.81534 77.9272
10716901 11.5653 12.1652 29.3833 24.8229 -1.27041 5.86547 77.9368
10716917 11.5653 12.1652 29.3833 24.8229 -1.27041 5.86547 77.9368
10716920 11.5301 12.1744 29.3833 24.7645 -1.27629 5.86559 77.8523
10716937 11.5389 12.1192 29.4325 24.8521 -1.28302 5.89407 77.9427
10716940 11.5389 12.1192 29.4325 24.8521 -1.28302 5.89407 77.9427
10716950 11.5477 12.1192 29.4522 24.8521 -1.29168 5.89401 77.9712
10716962 11.5036 12.1652 29.4719 24.8716 -1.2622 5.89804 78.0124
10716986 11.5565 12.0823 29.4818 24.8424 -1.31905 5.90383 77.963
10716992 11.5565 12.0823 29.4818 24.8424 -1.31905 5.90383 77.963
10717001 11.5212 12.0731 29.4621 24.8327 -1.30876 5.91232 77.8891
10717011 11.4772 12.0915 29.4719 24.8327 -1.29213 5.92035 77.8733
10717024 11.4772 12.0915 29.4719 24.8327 -1.29213 5.92035 77.8733
10717032 11.4948 12.1192 29.4325 24.8327 -1.27618 5.90361 77.8792
10717044 11.4772 12.1192 29.4916 24.7937 -1.30195 5.91068 77.8817
10717052 11.4772 12.1192 29.4916 24.7937 -1.30195 5.91068 77.8817
10717063 11.5124 12.0547 29.403 24.8229 -1.29761 5.9116 77.7931
10717072 11.5124 12.0547 29.403 24.8229 -1.29761 5.9116 77.7931
10717083 11.4684 12.0823 29.4818 24.7937 -1.30872 5.9218 77.8262
10717092 11.4772 12.0547 29.4916 24.8229 -1.31386 5.93141 77.8464
10717103 11.4772 12.0547 29.4916 24.8229 -1.31386 5.93141 77.8464
10717114 11.4772 12.0915 29.4325 24.7742 -1.29989 5.90893 77.7755
10717125 11.5389 12.1008 29.4916 24.784 -1.33021 5.89794 77.9152
10717132 11.5389 12.1008 29.4916 24.784 -1.33021 5.89794 77.9152
10717142 11.5565 12.156 29.4621 24.8327 -1.29151 5.88066 78.0072
10717151 11.5565 12.156 29.4621 24.8327 -1.29151 5.88066 78.0072
10717162 11.5124 12.0271 29.5014 24.7742 -1.3534 5.92483 77.8152
10717171 11.5829 12.1008 29.5014 24.8229 -1.33341 5.89184 78.008
10717191 11.5565 12.1468 29.403 24.745 -1.30624 5.86594 77.8513
10717203 11.5477 12.0731 29.4325 24.7255 -1.34406 5.88925 77.7788
10717213 11.5477 12.0731 29.4325 24.7255 -1.34406 5.88925 77.7788
10717223 11.6269 12.1284 29.4325 24.706 -1.35604 5.85089 77.8939
10717233 11.6269 12.1284 29.4325 24.706 -1.35604 5.85089 77.8939
10717243 11.5741 12.1284 29.4522 24.6963 -1.34926 5.86621 77.851
10717253 11.6005 12.1744 29.4129 24.6963 -1.32975 5.84218 77.8841
10717263 11.6005 12.1744 29.4129 24.6963 -1.32975 5.84218 77.8841
10717273 11.6005 12.1652 29.4227 24.667 -1.34574 5.84237 77.8555
10717283 11.5653 12.1192 29.403 24.7255 -1.32485 5.8687 77.813
10717293 11.5653 12.1192 29.403 24.7255 -1.32485 5.8687 77.813
10717304 11.5741 12.1468 29.4916 24.7158 -1.3484 5.86818 77.9283
10717314 11.5741 12.1468 29.4916 24.7158 -1.3484 5.86818 77.9283
10717323 11.5565 12.1376 29.5113 24.6865 -1.36203 5.87425 77.8919
10717333 11.5741 12.1376 29.4818 24.667 -1.36501 5.86378 77.8605
10717343 11.5741 12.1376 29.4818 24.667 -1.36501 5.86378 77.8605
10717354 11.5653 12.1744 29.4719 24.667 -1.34688 5.85512 77.8787
10717363 11.6181 12.1192 29.4129 24.6476 -1.3703 5.84653 77.7977
10717381 11.6181 12.1192 29.4129 24.6476 -1.3703 5.84653 77.7977
10717389 11.5829 12.1376 29.4325 24.6378 -1.36264 5.8522 77.7909
10717407 11.5829 12.1376 29.4325 24.6378 -1.36264 5.8522 77.7909
10717410 11.6534 12.1008 29.4424 24.5989 -1.41273 5.83977 77.7954
10717414 11.6446 12.1652 29.4719 24.6281 -1.38724 5.83179 77.9098
10717430 11.6446 12.1652 29.4719 24.6281 -1.38724 5.83179 77.9098
10717434 11.6534 12.1928 29.4424 24.6573 -1.36171 5.82201 77.9459
10717444 11.6798 12.1468 29.4621 24.6963 -1.37808 5.83416 77.9849
10717454 11.6798 12.1468 29.4621 24.6963 -1.37808 5.83416 77.9849
10717464 11.6534 12.1652 29.4424 24.706 -1.35459 5.83512 77.967
10717481 11.6534 12.1652 29.4424 24.706 -1.35459 5.83512 77.967
10717484 11.6622 12.1744 29.4621 24.6476 -1.37988 5.82575 77.9462
10717494 11.6358 12.2297 29.4719 24.6573 -1.35287 5.82036 77.9947
10717506 11.6358 12.2297 29.4719 24.6573 -1.35287 5.82036 77.9947
10717514 11.6534 12.156 29.4424 24.5989 -1.39398 5.82498 77.8506
10717532 11.6534 12.156 29.4424 24.6086 -1.39068 5.82612 77.8604
10717534 11.6534 12.1836 29.4424 24.6086 -1.38132 5.81874 77.888
10717544 11.6446 12.2021 29.3735 24.5989 -1.35479 5.80689 77.819
10717556 11.6446 12.2021 29.3735 24.5989 -1.35479 5.80689 77.819
10717565 11.6534 12.2205 29.3735 24.5989 -1.35123 5.79961 77.8462
10717580 11.6886 12.2205 29.3735 24.5696 -1.37182 5.78674 77.8522
10717585 11.6886 12.2205 29.3735 24.5696 -1.37182 5.78674 77.8522
10717597 11.6886 12.2389 29.403 24.6573 -1.34489 5.79568 77.9878
10717606 11.6622 12.2389 29.3833 24.6183 -1.34407 5.7958 77.9027
10717617 11.6622 12.2389 29.3833 24.6183 -1.34407 5.7958 77.9027
10717631 11.6974 12.2757 29.275 24.5696 -1.32588 5.75798 77.8178
10717637 11.6974 12.2757 29.275 24.5696 -1.32588 5.75798 77.8178
10717647 11.7062 12.2665 29.2849 24.5112 -1.35447 5.7523 77.7688
10717657 11.7326 12.2205 29.2947 24.5112 -1.3811 5.75871 77.759
10717680 11.7238 12.2849 29.2849 24.5404 -1.34369 5.74617 77.8341
10717687 11.715 12.2573 29.3636 24.5014 -1.38748 5.76061 77.8374
10717697 11.715 12.2573 29.3636 24.5014 -1.38748 5.76061 77.8374
10717709 11.7415 12.3034 29.3144 24.5112 -1.36167 5.7366 77.8704
10717718 11.7415 12.3034 29.3144 24.5112 -1.36167 5.7366 77.8704
10717731 11.7679 12.2573 29.3046 24.5501 -1.36909 5.74529 77.8799
10717738 11.7415 12.331 29.3538 24.5404 -1.35438 5.73741 77.9666
10717749 11.7415 12.331 29.3538 24.5404 -1.35438 5.73741 77.9666
10717760 11.7767 12.2757 29.2652 24.4332 -1.3932 5.71943 77.7509
10717769 11.7326 12.3034 29.3046 24.5501 -1.34281 5.74241 77.8907
10717789 11.7767 12.2757 29.3144 24.4235 -1.41145 5.72414 77.7903
10717803 11.7679 12.3034 29.3144 24.4332 -1.39609 5.72029 77.8189
10717819 11.7943 12.3678 29.2258 24.4235 -1.35867 5.68436 77.8114
10717829 11.7943 12.3678 29.2258 24.4235 -1.35867 5.68436 77.8114
10717839 11.8031 12.3402 29.275 24.404 -1.39226 5.69292 77.8224
10717849 11.8383 12.3494 29.2061 24.3845 -1.38552 5.67052 77.7784
10717859 11.8383 12.3494 29.2061 24.3845 -1.38552 5.67052 77.7784
10717872 11.9088 12.3678 29.216 24.3456 -1.41685 5.64342 77.8382
10717879 11.9088 12.3678 29.216 24.3456 -1.41685 5.64342 77.8382
10717889 11.8471 12.331 29.2357 24.404 -1.39679 5.67895 77.8178
10717899 11.9088 12.377 29.2455 24.3845 -1.40946 5.64921 77.9159
10717909 11.9088 12.377 29.2455 24.3845 -1.40946 5.64921 77.9159
10717920 11.8648 12.3402 29.2061 24.3358 -1.41321 5.66009 77.7469
10717930 11.8912 12.3954 29.2357 24.3553 -1.4048 5.6443 77.8776
10717950 11.8912 12.3678 29.1372 24.2871 -1.40747 5.63158 77.6833
10717961 11.8912 12.377 29.1274 24.2384 -1.41792 5.62207 77.634
10717985 11.8824 12.3862 29.2258 24.2676 -1.43204 5.63735 77.7621
10717991 11.8824 12.3862 29.2258 24.2676 -1.43204 5.63735 77.7621
10718001 11.8824 12.4047 29.1668 24.2481 -1.41449 5.623 77.7019
10718011 11.9264 12.4231 29.1865 24.2579 -1.42425 5.60999 77.7938
10718047 11.9617 12.4507 29.0979 24.3261 -1.37556 5.59088 77.8363
10718054 11.9793 12.4875 29.1372 24.3261 -1.38037 5.58125 77.9301
10718055 11.9793 12.4875 29.1372 24.3261 -1.38037 5.58125 77.9301
10718063 12.0145 12.4231 29.0782 24.2774 -1.41151 5.57593 77.7931
10718077 12.0145 12.4231 29.0782 24.2774 -1.41151 5.57593 77.7931
10718083 12.0057 12.377 29.1471 24.2189 -1.46525 5.59172 77.7487
10718093 12.0145 12.4323 29.0585 24.2384 -1.41565 5.56638 77.7437
10718103 12.0145 12.4323 29.0585 24.2384 -1.41565 5.56638 77.7437
10718113 12.0233 12.4507 29.0683 24.2092 -1.42498 5.55683 77.7515
10718122 12.0057 12.5244 29.088 24.1994 -1.4039 5.54323 77.8175
10718133 12.0057 12.5244 29.088 24.1994 -1.4039 5.54323 77.8175
10718141 11.9969 12.5428 29.0388 24.2189 -1.37344 5.53708 77.7974
10718153 11.9969 12.5428 29.0388 24.2189 -1.37344 5.53708 77.7974
10718163 11.9617 12.506 29.1077 24.2384 -1.38954 5.56685 77.8137
10718173 11.9793 12.5152 29.088 24.2481 -1.38249 5.55855 77.8306
10718186 11.9793 12.5152 29.088 24.2481 -1.38249 5.55855 77.8306
10718193 11.9793 12.5152 29.0979 24.2189 -1.39538 5.5562 77.8112
10718203 11.9793 12.5152 29.0388 24.2189 -1.37745 5.54903 77.7522
10718213 11.9881 12.5152 29.0388 24.1897 -1.39005 5.54315 77.7317
10718225 12.0409 12.5704 29.0585 24.2092 -1.38671 5.51939 77.879
10718233 12.0409 12.5704 29.0585 24.2092 -1.38671 5.51939 77.879
10718243 11.9969 12.5612 28.9797 24.1994 -1.35584 5.52265 77.7373
10718253 12.0233 12.552 28.9896 24.1702 -1.37991 5.51574 77.7351
10718263 12.0233 12.552 28.9896 24.1702 -1.37991 5.51574 77.7351
10718277 12.0585 12.5152 28.9699 24.2287 -1.3773 5.52089 77.7723
10718293 11.9793 12.5428 29.0093 24.2092 -1.36241 5.53695 77.7405
10718303 12.0409 12.5796 28.9797 24.2676 -1.3399 5.51449 77.8679
10718323 12.0674 12.6073 28.9797 24.2189 -1.35506 5.49432 77.8733
10718334 12.0057 12.5981 29.0782 24.2189 -1.36934 5.52497 77.9008
10718344 12.0057 12.5981 29.0782 24.2189 -1.36934 5.52497 77.9008
10718354 12.0321 12.5612 28.9502 24.1897 -1.36088 5.50856 77.7332
10718365 12.0321 12.5244 28.9797 24.2481 -1.36253 5.52901 77.7844
10718374 12.0321 12.5244 28.9797 24.2481 -1.36253 5.52901 77.7844
10718389 11.9969 12.6349 28.9699 24.2189 -1.3213 5.5044 77.8206
10718394 11.9969 12.6349 28.9699 24.2189 -1.3213 5.5044 77.8206
10718405 11.9969 12.5796 28.9108 24.1702 -1.33853 5.50581 77.6575
10718415 12.0233 12.5612 28.9404 24.1799 -1.35851 5.50849 77.7048
10718425 12.0233 12.5612 28.9404 24.1799 -1.35851 5.50849 77.7048
10718436 12.0057 12.5888 28.9404 24.1702 -1.34708 5.50466 77.7051
10718447 12.0409 12.5612 29.0093 24.2287 -1.3683 5.51819 77.8401
10718457 12.0409 12.5612 29.0093 24.2287 -1.3683 5.51819 77.8401
10718465 12.0497 12.5612 28.9502 24.2871 -1.33324 5.5158 77.8483
10718475 12.0497 12.5612 28.9502 24.2871 -1.33324 5.5158 77.8483
10718486 12.0057 12.4875 28.901 24.2092 -1.35625 5.53138 77.6034
10718495 12.0409 12.5796 28.9699 24.2871 -1.33032 5.51566 77.8776
10718515 12.0409 12.5888 28.901 24.2676 -1.31284 5.50246 77.7984
10718527 12.0145 12.5152 28.9305 24.2287 -1.35193 5.52772 77.6888
10718538 12.0145 12.5152 28.9305 24.2287 -1.35193 5.52772 77.6888
10718549 12.0409 12.5981 28.9305 24.2676 -1.31871 5.50364 77.8371
10718556 12.0409 12.5981 28.9305 24.2676 -1.31871 5.50364 77.8371
10718572 12.0409 12.5796 28.9404 24.2287 -1.34112 5.50494 77.7896
10718577 12.0497 12.6165 28.9502 24.3066 -1.30799 5.50362 77.923
10718587 12.0497 12.6165 28.9502 24.3066 -1.30799 5.50362 77.923
10718597 11.9969 12.6073 28.9207 24.2968 -1.28931 5.51518 77.8217
10718607 11.9881 12.6073 28.9404 24.2579 -1.3058 5.51515 77.7936
10718619 11.9881 12.6073 28.9404 24.2579 -1.3058 5.51515 77.7936
10718627 12.0057 12.6165 28.9108 24.2189 -1.31223 5.49972 77.7519
10718647 12.085 12.5796 28.9305 24.2092 -1.35811 5.48975 77.8043
10718657 12.0409 12.5428 28.901 24.2481 -1.33502 5.51223 77.7328
10718666 12.0409 12.5428 28.901 24.2481 -1.33502 5.51223 77.7328
10718685 12.0321 12.5704 28.9797 24.2092 -1.36013 5.51211 77.7915
10718688 11.9881 12.6257 28.9404 24.2384 -1.30615 5.50792 77.7925
10718698 11.9881 12.6257 28.9404 24.2384 -1.30615 5.50792 77.7925
10718708 12.0585 12.6533 28.96 24.2676 -1.31437 5.48807 77.9395
10718718 12.0585 12.6533 28.96 24.2676 -1.31437 5.48807 77.9395
10718728 12.0321 12.5981 28.8813 24.2384 -1.31093 5.49638 77.7499
10718738 12.085 12.6349 28.9305 24.2189 -1.33611 5.4764 77.8693
10718749 12.085 12.6349 28.9305 24.2189 -1.33611 5.4764 77.8693
10718758 12.085 12.5888 28.9502 24.1994 -1.36427 5.48854 77.8234
10718770 12.085 12.6625 28.9305 24.1897 -1.33666 5.46556 77.8677
10718778 12.085 12.6625 28.9305 24.1897 -1.33666 5.46556 77.8677
10718795 12.0762 12.6165 28.9502 24.1897 -1.35554 5.4824 77.8325
10718798 12.0762 12.6165 28.9502 24.1897 -1.35554 5.4824 77.8325
10718808 12.1026 12.6349 28.8715 24.1312 -1.3532 5.45379 77.7402
10718822 12.1026 12.6809 28.8616 24.141 -1.33131 5.44167 77.7861
10718845 12.1202 12.5981 28.8715 24.1799 -1.35453 5.46482 77.7697
10718849 12.0762 12.6533 28.8124 24.0728 -1.34075 5.44144 77.6146
10718859 12.0762 12.6533 28.8124 24.0728 -1.34075 5.44144 77.6146
10718871 12.085 12.6349 28.8616 24.1312 -1.34485 5.45721 77.7127
10718894 12.0762 12.6257 28.7927 24.0825 -1.34082 5.4475 77.5771
10718899 12.129 12.6533 28.8616 24.102 -1.36191 5.43719 77.7459
10718919 12.129 12.6165 28.8025 24.1312 -1.34652 5.44321 77.6793
10718929 12.1114 12.6625 28.8222 24.1312 -1.33154 5.43815 77.7274
10718942 12.1114 12.6625 28.8222 24.1312 -1.33154 5.43815 77.7274
10718952 12.1114 12.6533 28.8124 24.1312 -1.33166 5.43936 77.7083
10718970 12.1026 12.6625 28.7927 24.1312 -1.31986 5.43684 77.689
10718980 12.1378 12.6994 28.7927 24.1312 -1.31812 5.4179 77.7611
10718991 12.1378 12.6994 28.7927 24.1312 -1.31812 5.4179 77.7611
10719001 12.1819 12.6901 28.7435 24.102 -1.32956 5.39907 77.7175
10719011 12.1554 12.6717 28.7829 24.1702 -1.31665 5.42411 77.7802
10719022 12.1554 12.6717 28.7829 24.1702 -1.31665 5.42411 77.7802
10719032 12.1554 12.7638 28.7927 24.1799 -1.28524 5.40237 77.8919
10719052 12.1642 12.6901 28.7829 24.1117 -1.33289 5.40976 77.749
10719060 12.1466 12.7822 28.8616 24.2189 -1.28417 5.41313 78.0094
10719071 12.1466 12.7822 28.8616 24.2189 -1.28417 5.41313 78.0094
10719082 12.1466 12.6901 28.8715 24.1507 -1.34128 5.43009 77.8589
10719092 12.1554 12.7178 28.8222 24.1702 -1.31307 5.41687 77.8656
10719116 12.1819 12.6994 28.8124 24.1702 -1.32433 5.41356 77.8638
10719122 12.1819 12.6994 28.8124 24.1702 -1.32433 5.41356 77.8638
10719132 12.1819 12.6809 28.7829 24.0923 -1.34797 5.40515 77.7379
10719142 12.1554 12.6625 28.8124 24.0728 -1.36177 5.41816 77.7031
10719152 12.1554 12.6625 28.8124 24.0728 -1.36177 5.41816 77.7031
10719170 12.1466 12.6533 28.7336 24.1215 -1.3217 5.4192 77.6551
10719172 12.1642 12.6901 28.8025 24.0241 -1.36861 5.40136 77.681
10719184 12.1642 12.6901 28.8025 24.0241 -1.36861 5.40136 77.681
10719192 12.1731 12.727 28.8025 24.1605 -1.31261 5.40622 77.863
10719206 12.1731 12.727 28.8025 24.1605 -1.31261 5.40622 77.863
10719213 12.1642 12.6809 28.8518 24.0728 -1.37017 5.41587 77.7697
10719229 12.1642 12.6994 28.8813 24.141 -1.3498 5.42306 77.8859
10719243 12.1378 12.6901 28.8222 24.0825 -1.34673 5.41795 77.7327
10719253 12.2083 12.727 28.7927 24.0923 -1.3434 5.38736 77.8202
10719264 12.2083 12.727 28.7927 24.0923 -1.3434 5.38736 77.8202
10719273 12.1642 12.6994 28.8715 24.1117 -1.35671 5.41826 77.8468
10719283 12.1642 12.6994 28.8715 24.1117 -1.35671 5.41826 77.8468
10719297 12.1378 12.6625 28.8518 24.0923 -1.36178 5.43004 77.7444
10719313 12.1642 12.7178 28.8222 24.0923 -1.34211 5.40496 77.7965
10719314 12.1642 12.7178 28.8222 24.0923 -1.34211 5.40496 77.7965
10719324 12.1202 12.6901 28.8321 24.0728 -1.34767 5.42259 77.7152
10719334 12.1378 12.6533 28.8419 24.1312 -1.34869 5.43605 77.7643
10719345 12.1378 12.6533 28.8419 24.1312 -1.34869 5.43605 77.7643
10719355 12.1819 12.7454 28.8813 24.1117 -1.34946 5.40279 77.9203
10719366 12.1554 12.6717 28.8419 24.0728 -1.36763 5.41939 77.7419
10719377 12.1554 12.6717 28.8419 24.0728 -1.36763 5.41939 77.7419
10719388 12.1466 12.6809 28.9108 24.0728 -1.38275 5.42776 77.8112
10719397 12.1466 12.6809 28.9108 24.0728 -1.38275 5.42776 77.8112
10719411 12.1466 12.6533 28.8025 24.063 -1.36252 5.42048 77.6655
10719417 12.1731 12.7086 28.7632 24.102 -1.32664 5.39898 77.7468
10719437 12.1642 12.7546 28.8616 24.1117 -1.33502 5.40256 77.8922
10719446 12.1466 12.6994 28.8222 24.1312 -1.32979 5.41922 77.7995
10719459 12.1466 12.6994 28.8222 24.1312 -1.32979 5.41922 77.7995
10719468 12.1819 12.6994 28.8518 24.0825 -1.36597 5.40761 77.8155
10719482 12.1819 12.6994 28.8518 24.0825 -1.36597 5.40761 77.8155
10719488 12.1642 12.6901 28.8124 24.063 -1.35838 5.40739 77.7298
10719498 12.1731 12.7362 28.8813 24.0728 -1.36309 5.40271 77.8633
10719508 12.1731 12.7362 28.8813 24.0728 -1.36309 5.40271 77.8633
10719518 12.1642 12.7362 28.8616 24.0338 -1.36764 5.39778 77.7959
10719528 12.129 12.6901 28.9207 24.0533 -1.38388 5.42879 77.7931
10719539 12.129 12.6901 28.9207 24.0533 -1.38388 5.42879 77.7931
10719552 12.1819 12.727 28.8124 24.0825 -1.34465 5.39551 77.8038
10719559 12.1731 12.727 28.8911 24.0825 -1.3659 5.40753 77.8737
10719580 12.1731 12.6625 28.8911 24.0338 -1.40427 5.41844 77.7605
10719581 12.1554 12.6809 28.9207 24.0338 -1.40163 5.42187 77.7909
10719589 12.1554 12.6809 28.9207 24.0338 -1.40163 5.42187 77.7909
10719599 12.1202 12.6717 28.8222 24.0143 -1.37076 5.41901 77.6285
10719609 12.1378 12.6625 28.9502 24.0241 -1.41481 5.43377 77.7746
10719629 12.1202 12.6441 28.96 24.0143 -1.42202 5.44325 77.7387
10719642 12.1466 12.6165 28.9896 23.9948 -1.455 5.4448 77.7475
10719650 12.1466 12.6165 28.9896 23.9948 -1.455 5.4448 77.7475
10719660 12.1731 12.6441 28.9305 23.9851 -1.43902 5.42213 77.7328
10719670 12.1731 12.6441 28.9305 23.9851 -1.43902 5.42213 77.7328
10719680 12.1466 12.6717 28.8813 24.0046 -1.40006 5.41815 77.7042
10719692 12.1466 12.6625 28.9502 24.102 -1.39104 5.44103 77.8614
10719712 12.1907 12.6717 28.8813 24.0143 -1.41012 5.40778 77.758
10719720 12.1554 12.6257 28.9404 23.9851 -1.44293 5.43281 77.7066
10719735 12.1554 12.6257 28.9404 23.9851 -1.44293 5.43281 77.7066
10719740 12.1731 12.6441 28.9699 23.9948 -1.44764 5.42818 77.7819
10719750 12.1731 12.6441 28.9699 23.9948 -1.44764 5.42818 77.7819
10719760 12.1202 12.6165 28.9502 23.9364 -1.45496 5.43972 77.6233
10719781 12.1026 12.6717 28.8813 23.9461 -1.40655 5.42252 77.6017
10719782 12.1026 12.6717 28.8813 23.9461 -1.40655 5.42252 77.6017
10719792 12.2171 12.6441 28.8813 23.8877 -1.47063 5.39245 77.6302
10719803 12.1554 12.6533 28.9108 23.9364 -1.44116 5.4159 77.656
10719810 12.1554 12.6533 28.9108 23.9364 -1.44116 5.4159 77.656
10719825 12.1378 12.6994 28.9699 24.0143 -1.41158 5.42532 77.8214
10719832 12.1378 12.6994 28.9699 24.0143 -1.41158 5.42532 77.8214
10719842 12.1731 12.6533 28.9502 23.9948 -1.43855 5.42333 77.7714
10719851 12.1819 12.6717 28.9502 23.9559 -1.44821 5.41138 77.7597
10719862 12.1819 12.6717 28.9502 23.9559 -1.44821 5.41138 77.7597
10719873 12.1907 12.6994 28.9502 24.0143 -1.42163 5.40903 77.8546
10719880 12.1907 12.6994 28.9502 24.0143 -1.42163 5.40903 77.8546
10719892 12.0938 12.6717 28.9404 23.9559 -1.41851 5.43332 77.6617
10719902 12.1819 12.7638 28.9404 23.9656 -1.41063 5.38723 77.8517
10719912 12.1819 12.7638 28.9404 23.9656 -1.41063 5.38723 77.8517
10719922 12.1466 12.7086 28.9108 23.9461 -1.41637 5.4049 77.7122
10719933 12.1378 12.6717 28.9305 23.9851 -1.41895 5.42413 77.7252
10719947 12.1378 12.6717 28.9305 23.9851 -1.41895 5.42413 77.7252
10719956 12.1642 12.7362 28.8911 23.9072 -1.4196 5.38578 77.6987
10719964 12.1642 12.7362 28.8911 23.9072 -1.4196 5.38578 77.6987
10719972 12.1378 12.7086 28.9207 23.9461 -1.41668 5.40843 77.7132
10719983 12.1731 12.6717 28.901 24.0338 -1.40413 5.41724 77.7796
10719993 12.1731 12.6717 28.901 24.0338 -1.40413 5.41724 77.7796
10720004 12.1114 12.6809 28.9797 23.9851 -1.42273 5.43471 77.7572
10720013 12.1554 12.727 28.8911 24.0143 -1.38366 5.40374 77.7879
10720023 12.1554 12.727 28.8911 24.0143 -1.38366 5.40374 77.7879
10720033 12.129 12.7086 29.0093 24.1117 -1.3847 5.44201 77.9586
10720043 12.129 12.7086 29.0093 24.1117 -1.3847 5.44201 77.9586
10720053 12.1114 12.6625 28.9699 24.0533 -1.40284 5.44672 77.7971
10720063 12.129 12.6809 28.9994 24.0728 -1.40428 5.44327 77.8821
10720073 12.129 12.6809 28.9994 24.0728 -1.40428 5.44327 77.8821
10720083 12.1114 12.6349 28.9502 24.0436 -1.40956 5.45037 77.74
10720093 12.1114 12.6349 28.96 24.0241 -1.41917 5.44919 77.7304
10720109 12.1114 12.6349 28.96 24.0241 -1.41917 5.44919 77.7304
10720129 12.085 12.6165 28.9994 24.063 -1.41611 5.4706 77.7639
10720134 12.0057 12.5796 29.0093 24.0825 -1.40093 5.5048 77.6771
10720144 12.0057 12.6441 29.0585 24.1215 -1.38077 5.49857 77.8298
10720154 12.0057 12.6441 29.0585 24.1215 -1.38077 5.49857 77.8298
10720164 12.085 12.5796 29.0486 24.2579 -1.37747 5.5101 77.9711
10720181 12.0585 12.5796 29.0979 24.2481 -1.38766 5.52185 77.9842
10720184 12.0585 12.5796 29.0979 24.2481 -1.38766 5.52185 77.9842
10720194 11.9881 12.6073 29.0683 24.2481 -1.348 5.52955 77.9118
10720207 11.9881 12.6073 29.0683 24.2481 -1.348 5.52955 77.9118
10720215 11.9705 12.506 29.0388 24.1994 -1.38451 5.55142 77.7146
10720232 11.9705 12.5428 29.0585 24.2579 -1.35818 5.55118 77.8296
10720235 11.9705 12.5428 29.0585 24.2579 -1.35818 5.55118 77.8296
10720245 11.9264 12.4691 29.0585 24.2481 -1.37308 5.58113 77.7022
10720257 11.9 12.4967 29.1077 24.2871 -1.35742 5.59149 77.7915
10720265 11.9 12.4967 29.1077 24.2871 -1.35742 5.59149 77.7915
10720275 11.9352 12.4691 29.1175 24.2871 -1.38048 5.59067 77.809
10720286 11.9352 12.4691 29.1175 24.2871 -1.38048 5.59067 77.809
10720296 11.9 12.4231 29.0782 24.3553 -1.3503 5.61568 77.7565
10720309 11.8736 12.4599 29.0585 24.404 -1.30731 5.61642 77.796
10720315 11.8736 12.4599 29.0585 24.404 -1.30731 5.61642 77.796
10720326 11.8383 12.4599 29.1668 24.365 -1.34272 5.63411 77.8301
10720337 11.8119 12.4783 29.1766 24.4625 -1.29853 5.64912 77.9293
10720345 11.8119 12.4783 29.1766 24.4625 -1.29853 5.64912 77.9293
10720359 11.8207 12.4047 29.1668 24.5501 -1.29348 5.67565 77.9423
10720365 11.8207 12.4047 29.1668 24.5501 -1.29348 5.67565 77.9423
10720375 11.7503 12.3494 29.1372 24.5112 -1.29486 5.70086 77.7481
10720385 11.7591 12.3862 29.1372 24.4917 -1.29168 5.68639 77.7742
10720394 11.7591 12.3862 29.1372 24.4917 -1.29168 5.68639 77.7742
10720409 11.7503 12.331 29.1569 24.5014 -1.31039 5.70696 77.7396
10720415 11.6798 12.3034 29.216 24.6086 -1.28002 5.75292 77.8077
10720436 11.715 12.331 29.2554 24.6378 -1.28356 5.74432 77.9392
10720445 11.715 12.331 29.2554 24.6378 -1.28356 5.74432 77.9392
10720457 11.6798 12.2941 29.1865 24.6378 -1.26426 5.75534 77.7982
10720467 11.7238 12.2941 29.2455 24.7255 -1.26611 5.76101 77.989
10720478 11.7238 12.2941 29.2455 24.7255 -1.26611 5.76101 77.989
10720487 11.6886 12.2757 29.216 24.667 -1.2723 5.76488 77.8474
10720501 11.6358 12.2849 29.275 24.6865 -1.26451 5.78583 77.8823
10720507 11.6358 12.2849 29.275 24.6865 -1.26451 5.78583 77.8823
10720517 11.671 12.2665 29.2258 24.6768 -1.26975 5.77436 77.8401
10720528 11.671 12.2665 29.2258 24.6768 -1.26975 5.77436 77.8401
10720537 11.6358 12.2481 29.2554 24.6768 -1.27423 5.79218 77.816
10720547 11.6446 12.3034 29.2947 24.6963 -1.2637 5.78204 77.9389
10720557 11.6446 12.3034 29.2947 24.6963 -1.2637 5.78204 77.9389
10720569 11.6358 12.2205 29.2652 24.6865 -1.28327 5.80188 77.808
10720577 11.6269 12.2941 29.2947 24.7742 -1.2352 5.7984 77.99
10720586 11.6269 12.2941 29.2947 24.7742 -1.2352 5.7984 77.99
10720605 11.5917 12.2941 29.2947 24.8327 -1.2048 5.81469 78.0133
10720608 11.5917 12.2941 29.2947 24.8327 -1.2048 5.81469 78.0133
10720618 11.5829 12.2665 29.3144 24.7937 -1.23051 5.82215 77.9575
10720629 11.5741 12.2941 29.403 24.8619 -1.22261 5.83555 78.1331
10720648 11.5917 12.2389 29.275 24.8034 -1.22721 5.82369 77.9091
10720658 11.5477 12.2297 29.3243 24.7352 -1.25487 5.83569 77.8369
10720668 11.5477 12.2297 29.3243 24.7352 -1.25487 5.83569 77.8369
10720678 11.5477 12.2297 29.275 24.8034 -1.21686 5.83793 77.8558
10720688 11.5477 12.2297 29.275 24.8034 -1.21686 5.83793 77.8558
10720699 11.5301 12.1744 29.3046 24.7547 -1.25555 5.8552 77.7638
10720709 11.5301 12.1652 29.3243 24.7937 -1.25152 5.86456 77.8132
10720720 11.5301 12.1652 29.3243 24.7937 -1.25152 5.86456 77.8132
10720729 11.4684 12.1192 29.3636 24.7937 -1.26026 5.89809 77.7449
10720740 11.5477 12.11 29.3932 24.8521 -1.27682 5.88957 77.903
10720749 11.5477 12.11 29.3932 24.8521 -1.27682 5.88957 77.903
10720763 11.5124 12.156 29.3833 24.8229 -1.25741 5.8821 77.8747
10720769 11.5124 12.156 29.3833 24.8229 -1.25741 5.8821 77.8747
10720782 11.4948 12.0363 29.403 24.9301 -1.26228 5.93379 77.8642
10720789 11.5124 12.0823 29.3833 24.9203 -1.24941 5.91325 77.8984
10720806 11.5124 12.0823 29.3833 24.9203 -1.24941 5.91325 77.8984
10720809 11.4684 12.0823 29.4325 24.9203 -1.25098 5.93082 77.9036
10720819 11.4684 12.1008 29.4719 24.9398 -1.25022 5.93272 77.9809
10720831 11.4684 12.1008 29.4719 24.9398 -1.25022 5.93272 77.9809
10720840 11.4684 12.0179 29.4621 24.9106 -1.28501 5.95045 77.8589
10720860 11.4772 11.9258 29.4129 24.8521 -1.32362 5.96037 77.668
10720870 11.4772 12.0363 29.4129 24.8619 -1.28293 5.93173 77.7882
10720881 11.4772 12.0363 29.4129 24.8619 -1.28293 5.93173 77.7882
10720890 11.4684 12.0915 29.531 24.9203 -1.27785 5.93979 78.0113
10720906 11.486 12.0547 29.4719 24.8619 -1.29738 5.93129 77.8745
10720910 11.486 12.0547 29.4719 24.8619 -1.29738 5.93129 77.8745
10720920 11.486 12.1284 29.5014 24.8619 -1.28151 5.91495 77.9777
10720930 11.486 12.1284 29.5014 24.8619 -1.28151 5.91495 77.9777
10720940 11.4684 12.0179 29.4916 24.8521 -1.31375 5.94709 77.83
10720952 11.5212 12.0271 29.5211 24.8132 -1.34886 5.9293 77.8826
10720960 11.5212 12.0271 29.5211 24.8132 -1.34886 5.9293 77.8826
10720973 11.4948 11.9902 29.4916 24.7937 -1.35092 5.94061 77.7704
10720980 11.5565 12.0639 29.5113 24.8034 -1.34741 5.90767 77.9351
10720997 11.5565 12.0639 29.5113 24.8034 -1.34741 5.90767 77.9351
10721000 11.4772 12.0731 29.4719 24.7645 -1.32141 5.91734 77.7867
10721021 11.5124 11.9995 29.4818 24.6963 -1.38321 5.92087 77.6899
10721030 11.5653 12.0639 29.4916 24.7352 -1.36718 5.89504 77.8561
10721050 11.5829 12.1192 29.5408 24.667 -1.39183 5.87328 77.91
10721065 11.6181 12.1376 29.4916 24.745 -1.35499 5.86228 77.9923
10721072 11.6181 12.1376 29.4916 24.745 -1.35499 5.86228 77.9923
10721081 11.5917 12.1008 29.5605 24.667 -1.4067 5.87816 77.92
10721092 11.5917 12.1008 29.5605 24.667 -1.4067 5.87816 77.92
10721102 11.6005 12.0271 29.4916 24.667 -1.41349 5.88749 77.7863
10721111 11.6093 12.1008 29.5014 24.6573 -1.39745 5.86538 77.8688
10721122 11.6093 12.1008 29.5014 24.6573 -1.39745 5.86538 77.8688
10721131 11.6886 12.1928 29.4818 24.5794 -1.4107 5.80806 77.9426
10721142 11.6446 12.1836 29.4719 24.4917 -1.42725 5.81078 77.7918
10721155 11.6446 12.1836 29.4719 24.4917 -1.42725 5.81078 77.7918
10721163 11.7591 12.1928 29.3833 24.4819 -1.43528 5.76608 77.8172
10721172 11.7591 12.1928 29.3833 24.4819 -1.43528 5.76608 77.8172
10721181 11.6974 12.2021 29.4424 24.5209 -1.41814 5.7917 77.8628
10721192 11.6886 12.2021 29.4325 24.5307 -1.40918 5.79404 77.8539
10721212 11.8295 12.1744 29.4129 24.4722 -1.4751 5.75455 77.889
10721223 11.7679 12.2573 29.4325 24.4332 -1.44749 5.74661 77.891
10721234 11.7679 12.2573 29.4325 24.4332 -1.44749 5.74661 77.891
10721247 11.7503 12.2389 29.4621 24.4235 -1.46066 5.75856 77.8747
10721263 11.7767 12.2849 29.4227 24.365 -1.46096 5.72762 77.8494
10721273 11.8119 12.2297 29.403 24.2774 -1.51433 5.72015 77.722
10721283 11.8119 12.2297 29.403 24.2774 -1.51433 5.72015 77.722
10721294 11.8471 12.2849 29.3735 24.2676 -1.50054 5.69136 77.7732
10721304 11.8471 12.2665 29.4129 24.3261 -1.49879 5.70795 77.8526
10721315 11.8471 12.2665 29.4129 24.3261 -1.49879 5.70795 77.8526
10721324 11.856 12.2573 29.4916 24.2481 -1.55489 5.70816 77.853
10721337 11.856 12.2573 29.4916 24.2481 -1.55489 5.70816 77.853
10721344 11.8295 12.2573 29.4522 24.2676 -1.52841 5.71281 77.8067
10721359 11.856 12.3218 29.4522 24.2189 -1.53101 5.68282 77.8489
10721363 11.856 12.3218 29.4522 24.2189 -1.53101 5.68282 77.8489
10721374 11.8912 12.3034 29.4522 24.2092 -1.55123 5.67719 77.8559
10721384 11.9088 12.331 29.4522 24.2384 -1.53716 5.66868 77.9304
10721405 11.9088 12.3954 29.403 24.2189 -1.50702 5.64335 77.9262
10721414 11.9088 12.3954 29.403 24.2189 -1.50702 5.64335 77.9262
10721427 11.9088 12.3678 29.3243 24.1215 -1.52587 5.62948 77.7224
10721434 11.8648 12.331 29.4621 24.1799 -1.54678 5.67455 77.8378
10721444 11.8648 12.331 29.4621 24.1799 -1.54678 5.67455 77.8378
10721454 11.9528 12.4047 29.3538 24.1507 -1.52554 5.61512 77.862
10721464 11.944 12.377 29.3636 24.1507 -1.53527 5.62596 77.8354
10721475 11.944 12.377 29.3636 24.1507 -1.53527 5.62596 77.8354
10721484 11.9793 12.3586 29.3735 24.1605 -1.55181 5.62387 77.8718
10721497 11.9793 12.3586 29.3735 24.1605 -1.55181 5.62387 77.8718
10721504 11.9264 12.377 29.3538 24.1702 -1.52035 5.63179 77.8275
10721519 11.9969 12.4047 29.3833 24.1507 -1.5477 5.60703 77.9356
10721524 11.9969 12.4047 29.3833 24.1507 -1.5477 5.60703 77.9356
10721534 11.9617 12.4139 29.3341 24.0923 -1.53905 5.60093 77.8019
10721544 11.9617 12.4139 29.3341 24.0923 -1.53905 5.60093 77.8019
10721554 11.9088 12.3862 29.2455 24.1312 -1.49245 5.61626 77.6718
10721565 11.9088 12.4047 29.2554 24.1605 -1.47919 5.6161 77.7293
10721574 11.9088 12.4047 29.2554 24.1605 -1.47919 5.6161 77.7293
10721587 11.9176 12.4139 29.2357 24.1897 -1.46281 5.61247 77.7568
10721595 11.9176 12.3862 29.2061 24.1215 -1.48652 5.60799 77.6315
10721610 11.9176 12.3862 29.2061 24.1215 -1.48652 5.60799 77.6315
10721615 11.9528 12.4323 29.2357 24.1799 -1.47052 5.59708 77.8008
10721625 11.9528 12.4323 29.2357 24.1799 -1.47052 5.59708 77.8008
10721635 11.9352 12.4323 29.2357 24.1507 -1.47513 5.59821 77.7539
10721645 11.9264 12.4599 29.275 24.2189 -1.45179 5.60622 77.8803
10721655 11.9264 12.4599 29.275 24.2189 -1.45179 5.60622 77.8803
10721665 11.8736 12.4047 29.216 24.2579 -1.42344 5.63245 77.7521
10721679 11.8912 12.4875 29.1569 24.2287 -1.39264 5.59515 77.7643
10721685 11.8912 12.4875 29.1569 24.2287 -1.39264 5.59515 77.7643
10721695 11.8736 12.4139 29.2455 24.2189 -1.44251 5.62887 77.7519
10721705 11.8736 12.4139 29.2455 24.2189 -1.44251 5.62887 77.7519
10721717 11.9088 12.4323 29.2652 24.2384 -1.44625 5.61936 77.8447
10721727 11.9264 12.4691 29.2061 24.1897 -1.43774 5.59193 77.7914
10721736 11.9264 12.4691 29.2061 24.1897 -1.43774 5.59193 77.7914
10721746 11.9264 12.4323 29.1668 24.1799 -1.44165 5.59575 77.7054
10721757 11.9176 12.4691 29.1175 24.1605 -1.41814 5.57999 77.6647
10721769 11.9176 12.4691 29.1175 24.1605 -1.41814 5.57999 77.6647
10721777 11.9264 12.506 29.1372 24.1994 -1.40103 5.57502 77.769
10721795 11.9264 12.506 29.1372 24.1994 -1.40103 5.57502 77.769
10721797 11.9617 12.4967 29.0979 24.1994 -1.4029 5.56336 77.7557
10721807 11.9528 12.5612 29.0782 24.2676 -1.34928 5.55454 77.8599
10721822 11.9528 12.5612 29.0782 24.2676 -1.34928 5.55454 77.8599
10721827 11.9617 12.5704 29.0979 24.1799 -1.38451 5.54153 77.8099
10721837 11.9528 12.5888 29.0683 24.2092 -1.35672 5.53896 77.8192
10721848 11.9528 12.5888 29.0683 24.2092 -1.35672 5.53896 77.8192
10721857 11.9705 12.5612 29.029 24.2092 -1.35947 5.53681 77.7698
10721872 11.9705 12.5612 29.029 24.2092 -1.35947 5.53681 77.7698
10721885 11.9617 12.5336 29.0486 24.1507 -1.39199 5.54172 77.6946
10721889 11.9881 12.5428 28.9896 24.2481 -1.34589 5.53697 77.7686
10721898 11.9881 12.5428 28.9896 24.2481 -1.34589 5.53697 77.7686
10721908 11.9881 12.5612 29.0585 24.2189 -1.37049 5.53694 77.8267
10721922 11.9352 12.5612 29.0782 24.2384 -1.35382 5.55565 77.813
10721941 11.9793 12.6257 29.029 24.2287 -1.33373 5.51985 77.8626
10721949 11.9705 12.6257 29.0388 24.2384 -1.33075 5.52456 77.8733
10721963 11.9705 12.6257 29.0388 24.2384 -1.33075 5.52456 77.8733
10721969 12.0057 12.6257 29.0486 24.2189 -1.35103 5.5141 77.8989
10721979 12.0057 12.6257 29.0486 24.2189 -1.35103 5.5141 77.8989
10721991 11.9528 12.6533 28.9502 24.2092 -1.29896 5.50756 77.7655
10721999 12.0145 12.6165 28.9404 24.2384 -1.31731 5.50338 77.8097
10722009 12.0145 12.6165 28.9404 24.2384 -1.31731 5.50338 77.8097
10722019 11.9969 12.6533 28.9502 24.2092 -1.31238 5.49595 77.8096
10722038 11.9793 12.6257 28.9699 24.1994 -1.32565 5.50909 77.7743
10722039 11.9793 12.6257 28.9699 24.1994 -1.32565 5.50909 77.7743
10722049 12.0145 12.6533 28.9305 24.2579 -1.29529 5.49486 77.8562
10722059 12.0145 12.6533 28.9305 24.2579 -1.29529 5.49486 77.8562
10722071 12.0321 12.6257 28.9305 24.1799 -1.33635 5.48797 77.7683
10722081 12.0057 12.6073 28.96 24.2384 -1.32374 5.51053 77.8114
10722093 12.0057 12.6073 28.96 24.2384 -1.32374 5.51053 77.8114
10722101 12.0585 12.6073 28.8715 24.2579 -1.30627 5.48817 77.7951
10722110 12.0145 12.6625 28.901 24.2579 -1.28318 5.48883 77.8359
10722120 12.0145 12.6625 28.901 24.2579 -1.28318 5.48883 77.8359
10722130 12.0409 12.6441 28.9404 24.1994 -1.32919 5.48439 77.8248
10722141 12.0409 12.6441 28.9404 24.1994 -1.32919 5.48439 77.8248
10722151 11.9969 12.6073 28.8813 24.2189 -1.30367 5.50086 77.7044
10722161 12.0409 12.6717 28.8813 24.1994 -1.30187 5.46989 77.7934
10722174 12.0409 12.6717 28.8813 24.1994 -1.30187 5.46989 77.7934
10722181 12.0409 12.6533 28.8715 24.1897 -1.30839 5.47234 77.7554
10722191 12.0145 12.6625 28.8025 24.2481 -1.25644 5.47559 77.7277
10722213 12.0674 12.727 28.8616 24.2481 -1.26882 5.45198 77.9041
10722231 12.0145 12.6349 28.8616 24.2968 -1.26735 5.49605 77.8079
10722241 12.0145 12.6809 28.8419 24.3066 -1.24252 5.48271 77.8439
10722253 12.0145 12.6809 28.8419 24.3066 -1.24252 5.48271 77.8439
10722261 11.9969 12.6809 28.8025 24.2287 -1.25142 5.47299 77.709
10722273 12.0497 12.6717 28.8616 24.2579 -1.27881 5.47232 77.841
10722281 12.0497 12.6717 28.8616 24.2579 -1.27881 5.47232 77.841
10722294 11.9881 12.6533 28.8616 24.2968 -1.25307 5.49816 77.7999
10722301 11.9881 12.6533 28.8616 24.2968 -1.25307 5.49816 77.7999
10722314 11.9705 12.6165 28.8518 24.2871 -1.26041 5.51013 77.7258
10722323 12.0497 12.6717 28.901 24.2774 -1.28423 5.47952 77.8998
10722333 12.0497 12.6717 28.901 24.2774 -1.28423 5.47952 77.8998
10722343 11.9969 12.6717 28.8616 24.2968 -1.24954 5.49099 77.8271
10722353 11.9705 12.6441 28.901 24.3456 -1.24639 5.51597 77.8611
10722363 11.9705 12.6441 28.901 24.3456 -1.24639 5.51597 77.8611
10722373 11.9352 12.552 28.9404 24.404 -1.25899 5.56145 77.8316
10722383 11.9352 12.552 28.9404 24.404 -1.25899 5.56145 77.8316
10722393 11.9352 12.6073 28.96 24.404 -1.24637 5.54926 77.9066
10722403 11.9528 12.552 28.9207 24.365 -1.27151 5.54968 77.7906
10722416 11.9528 12.552 28.9207 24.365 -1.27151 5.54968 77.7906
10722424 11.9 12.5244 28.9994 24.365 -1.28875 5.58051 77.7888
10722439 11.8824 12.4967 28.9699 24.3456 -1.2903 5.58655 77.6946
10722443 11.8824 12.4967 28.9699 24.3456 -1.2903 5.58655 77.6946
10722455 11.8736 12.4507 28.9797 24.3845 -1.29301 5.607 77.6885
10722473 11.8648 12.4415 28.9207 24.3553 -1.2853 5.6011 77.5822
10722483 11.8824 12.4415 29.029 24.3845 -1.31382 5.61305 77.7374
10722509 11.9088 12.4875 29.0191 24.3943 -1.3 5.59384 77.8097
10722519 11.9088 12.4875 29.0191 24.3943 -1.3 5.59384 77.8097
10722528 11.856 12.4507 29.0782 24.404 -1.31106 5.62591 77.7888
10722533 11.8207 12.4507 29.1274 24.4332 -1.30543 5.64469 77.8321
10722543 11.8207 12.4507 29.1274 24.4332 -1.30543 5.64469 77.8321
10722553 11.8207 12.4691 29.0979 24.4625 -1.28034 5.63977 77.8502
10722564 11.8471 12.4323 29.0979 24.404 -1.3206 5.6355 77.7813
10722584 11.856 12.4507 29.1471 24.4625 -1.31226 5.64123 77.9162
10722594 11.8207 12.4323 29.1274 24.443 -1.30836 5.65075 77.8234
10722605 11.8207 12.4323 29.1274 24.443 -1.30836 5.65075 77.8234
10722617 11.7943 12.4323 29.1471 24.4625 -1.29973 5.66247 77.8361
10722653 11.8119 12.4507 29.1175 24.4332 -1.29975 5.64584 77.8134
10722654 11.7679 12.4047 29.2061 24.5014 -1.30583 5.68856 77.8801
10722657 11.7679 12.4047 29.2061 24.5014 -1.30583 5.68856 77.8801
10722666 11.8119 12.4047 29.2061 24.5209 -1.31264 5.67919 77.9436
10722685 11.6798 12.377 29.2061 24.4235 -1.31471 5.71003 77.6865
10722696 11.7591 12.3402 29.1963 24.4332 -1.34504 5.69871 77.7288
10722706 11.7591 12.3402 29.1963 24.4332 -1.34504 5.69871 77.7288
10722716 11.6974 12.3678 29.2357 24.4722 -1.3157 5.71714 77.7731
10722726 11.715 12.3402 29.2455 24.5404 -1.31034 5.72911 77.8411
10722746 11.7238 12.3034 29.3046 24.4917 -1.35992 5.73781 77.8235
10722758 11.6974 12.2941 29.3046 24.5112 -1.34841 5.74963 77.8073
10722766 11.6974 12.2941 29.3046 24.5112 -1.34841 5.74963 77.8073
10722778 11.6622 12.2665 29.3046 24.5112 -1.34706 5.7664 77.7444
10722786 11.6622 12.2665 29.3046 24.5112 -1.34706 5.7664 77.7444
10722798 11.671 12.2757 29.3341 24.5501 -1.3424 5.76972 77.831
10722806 11.6886 12.2665 29.3046 24.5989 -1.32542 5.76975 77.8586
10722816 11.6886 12.2665 29.3046 24.5989 -1.32542 5.76975 77.8586
10722826 11.715 12.2941 29.3046 24.5794 -1.33069 5.75303 77.8931
10722839 11.715 12.2941 29.3932 24.5794 -1.35759 5.76353 77.9817
10722846 11.715 12.2481 29.3932 24.4917 -1.40286 5.76541 77.848
10722856 11.6358 12.2297 29.3439 24.5307 -1.35688 5.79029 77.74
10722866 11.6358 12.2297 29.3439 24.5307 -1.35688 5.79029 77.74
10722877 11.6622 12.2481 29.3144 24.5501 -1.34309 5.77712 77.7748
10722886 11.7062 12.2849 29.3439 24.5209 -1.36287 5.75557 77.856
10722898 11.7062 12.2849 29.3439 24.5209 -1.36287 5.75557 77.856
10722909 11.671 12.3034 29.4325 24.5404 -1.36623 5.77286 77.9473
10722919 11.6974 12.2665 29.3735 24.5307 -1.3721 5.76749 77.8681
10722928 11.6974 12.2665 29.3735 24.5307 -1.3721 5.76749 77.8681
10722940 11.715 12.2297 29.3735 24.5501 -1.38332 5.77492 77.8683
10722948 11.715 12.2297 29.3735 24.5501 -1.38332 5.77492 77.8683
10722960 11.6798 12.2205 29.3243 24.5891 -1.3476 5.78557 77.8136
10722968 11.6534 12.2389 29.3833 24.5209 -1.37438 5.78663 77.7965
10722980 11.6534 12.2389 29.3833 24.5209 -1.37438 5.78663 77.7965
10722988 11.6622 12.2481 29.3833 24.5501 -1.36403 5.78528 77.8438
10723000 11.671 12.2481 29.3636 24.6281 -1.33436 5.78982 77.9108
10723008 11.671 12.2389 29.3636 24.6281 -1.33747 5.79227 77.9016
10723020 11.6093 12.2573 29.3439 24.5989 -1.31639 5.79804 77.8094
10723028 11.6093 12.2573 29.3439 24.5989 -1.31639 5.79804 77.8094
10723042 11.6269 12.2113 29.3341 24.5599 -1.34754 5.79987 77.7322
10723048 11.6534 12.2481 29.3439 24.6378 -1.31973 5.79334 77.8832
10723065 11.6534 12.2481 29.3439 24.6378 -1.31973 5.79334 77.8832
10723069 11.671 12.2389 29.3439 24.6378 -1.3282 5.7911 77.8916
10723079 11.6358 12.2389 29.3735 24.5501 -1.35613 5.79363 77.7983
10723090 11.6358 12.2941 29.3735 24.5501 -1.33743 5.77887 77.8535
10723099 11.6886 12.2113 29.3932 24.5891 -1.37432 5.79383 77.8821
10723111 11.6886 12.2113 29.3932 24.5891 -1.37432 5.79383 77.8821
10723119 11.6269 12.1652 29.403 24.6086 -1.36759 5.82609 77.8038
10723133 11.671 12.2205 29.3735 24.6281 -1.34669 5.79836 77.893
10723139 11.671 12.2205 29.3735 24.6281 -1.34669 5.79836 77.893
10723149 11.6622 12.1652 29.3932 24.6573 -1.3588 5.82125 77.8779
10723168 11.6622 12.1652 29.3932 24.6573 -1.3588 5.82125 77.8779
10723170 11.5829 12.2205 29.403 24.6768 -1.31243 5.83112 77.8832
10723181 11.671 12.2205 29.4227 24.6476 -1.35504 5.80647 77.9617
10723189 11.671 12.2205 29.4227 24.6476 -1.35504 5.80647 77.9617
10723205 11.5124 12.1744 29.3932 24.6573 -1.31014 5.85889 77.7373
10723209 11.6358 12.1744 29.403 24.6768 -1.34406 5.8293 77.89
10723219 11.6358 12.1744 29.403 24.6768 -1.34406 5.8293 77.89
10723229 11.5741 12.2297 29.4621 24.6865 -1.3213 5.83911 77.9524
10723239 11.5741 12.2297 29.4621 24.6865 -1.3213 5.83911 77.9524
10723251 11.5917 12.156 29.3932 24.6768 -1.33391 5.84486 77.8177
10723259 11.6181 12.1928 29.4129 24.667 -1.33876 5.8291 77.8909
10723269 11.6181 12.1928 29.4129 24.667 -1.33876 5.8291 77.8909
10723280 11.6181 12.156 29.4227 24.706 -1.34103 5.8447 77.9029
10723289 11.6181 12.1468 29.3636 24.6768 -1.33608 5.83677 77.8054
10723299 11.6181 12.1468 29.3636 24.6768 -1.33608 5.83677 77.8054
10723309 11.5829 12.1928 29.4227 24.7158 -1.31458 5.84541 77.9142
10723323 11.5829 12.1928 29.4227 24.7158 -1.31458 5.84541 77.9142
10723329 11.5917 12.1192 29.4818 24.7742 -1.34034 5.87655 77.9669
10723339 11.5653 12.1008 29.4621 24.7352 -1.34574 5.8817 77.8634
10723349 11.5653 12.1008 29.4621 24.7352 -1.34574 5.8817 77.8634
10723360 11.6005 12.1652 29.4621 24.745 -1.33136 5.85614 77.9728
10723371 11.5565 12.1008 29.4129 24.7742 -1.31492 5.88286 77.8443
10723379 11.5565 12.1008 29.4129 24.7742 -1.31492 5.88286 77.8443
10723390 11.5301 12.0915 29.4916 24.7547 -1.34053 5.89936 77.8679
10723399 11.5301 12.0915 29.4916 24.7547 -1.34053 5.89936 77.8679
10723413 11.5565 12.0547 29.4719 24.784 -1.34515 5.90327 77.8671
10723419 11.4684 12.0915 29.5408 24.7645 -1.33346 5.9228 77.8652
10723435 11.4684 12.0915 29.5408 24.7645 -1.33346 5.9228 77.8652
10723440 11.5036 12.0087 29.5802 24.8132 -1.36767 5.94586 77.9057
10723450 11.5036 12.0087 29.5802 24.8132 -1.36767 5.94586 77.9057
10723463 11.4508 11.9718 29.5999 24.8521 -1.35688 5.9768 77.8746
10723472 11.4596 11.9626 29.6097 24.8327 -1.37226 5.97579 77.8646
10723483 11.4596 11.9626 29.6097 24.8327 -1.37226 5.97579 77.8646
10723490 11.4596 11.9534 29.6589 24.8521 -1.38371 5.98623 77.9241
10723507 11.4684 11.9166 29.6885 24.8619 -1.4045 5.99832 77.9353
10723510 11.4684 11.9166 29.6885 24.8619 -1.4045 5.99832 77.9353
10723520 11.5212 11.9258 29.6786 24.9106 -1.39791 5.9861 78.0363
10723540 11.4244 11.9442 29.6885 24.8034 -1.40161 5.99599 77.8605
10723554 11.4596 11.8889 29.6097 24.8619 -1.38732 5.99904 77.8202
10723578 11.4244 11.8613 29.7082 24.9496 -1.38614 6.03747 77.9434
10723582 11.4508 11.9166 29.7475 24.9203 -1.39725 6.01662 78.0352
10723592 11.4508 11.9166 29.7475 24.9203 -1.39725 6.01662 78.0352
10723603 11.486 11.8613 29.7279 24.8521 -1.44378 6.01188 77.9273
10723612 11.486 11.8613 29.7279 24.8521 -1.44378 6.01188 77.9273
10723625 11.4155 11.7969 29.7869 24.9203 -1.43907 6.06295 77.9197
10723632 11.442 11.8613 29.8066 24.9788 -1.41136 6.04737 78.0887
10723642 11.442 11.8613 29.8066 24.9788 -1.41136 6.04737 78.0887
10723652 11.3715 11.7416 29.7574 24.9398 -1.42894 6.08867 77.8103
10723677 11.3715 11.7416 29.8755 25.008 -1.44153 6.10996 77.9966
10723682 11.3803 11.6956 29.7771 25.008 -1.43005 6.10882 77.861
10723702 11.3363 11.6679 29.8164 24.9691 -1.45126 6.12831 77.7897
10723713 11.3803 11.6495 29.8361 25.0567 -1.44701 6.13359 77.9227
10723723 11.3803 11.6495 29.8361 25.0567 -1.44701 6.13359 77.9227
10723733 11.3187 11.6863 29.8361 25.0178 -1.42908 6.13589 77.8589
10723744 11.2922 11.6679 29.8558 25.0665 -1.41676 6.15584 77.8825
10723753 11.2922 11.6679 29.8558 25.0665 -1.41676 6.15584 77.8825
10723768 11.3891 11.7232 29.905 25.0567 -1.4455 6.11909 78.0741
10723777 11.3891 11.7232 29.905 25.0567 -1.4455 6.11909 78.0741
10723792 11.3627 11.714 29.7968 25.086 -1.39801 6.11973 77.9594
10723805 11.301 11.6679 29.8558 25.0665 -1.41943 6.15345 77.8913
10723807 11.301 11.6679 29.8558 25.0665 -1.41943 6.15345 77.8913
10723815 11.3275 11.6679 29.846 25.086 -1.41784 6.14737 77.9273
10723823 11.3715 11.6495 29.905 25.086 -1.45524 6.14713 78.012
10723840 11.3715 11.6495 29.905 25.086 -1.45524 6.14713 78.012
10723844 11.2834 11.6403 29.8853 25.0762 -1.4291 6.1702 77.8853
10723854 11.3275 11.6771 29.8361 25.0275 -1.43157 6.1371 77.8682
10723867 11.3275 11.6771 29.8361 25.0275 -1.43157 6.1371 77.8682
10723874 11.3715 11.7324 29.8164 25.0373 -1.41689 6.10905 77.9576
10723887 11.3715 11.7324 29.8164 25.0373 -1.41689 6.10905 77.9576
10723894 11.3275 11.7232 29.8066 25.008 -1.41361 6.11903 77.8653
10723904 11.3715 11.6863 29.8361 24.9691 -1.46161 6.116 77.863
10723915 11.3715 11.6863 29.8361 24.9691 -1.46161 6.116 77.863
10723924 11.3803 11.7692 29.8164 24.9885 -1.42358 6.09114 77.9545
10723939 11.3627 11.7324 29.7574 25.0373 -1.39634 6.1047 77.8897
10723944 11.3627 11.7324 29.7574 25.0373 -1.39634 6.1047 77.8897
10723954 11.3098 11.7416 29.8361 25.0178 -1.40767 6.12328 77.9053
10723966 11.3098 11.7416 29.8361 25.0178 -1.40767 6.12328 77.9053
10723974 11.3363 11.76 29.7672 24.9983 -1.39516 6.10104 77.8618
10723995 11.3627 11.7876 29.7279 25.008 -1.37857 6.08301 77.8862
10723998 11.3627 11.7876 29.7279 25.008 -1.37857 6.08301 77.8862
10724005 11.3803 11.7508 29.7574 24.9983 -1.40865 6.09048 77.8868
10724020 11.3803 11.7508 29.7574 24.9983 -1.40865 6.09048 77.8868
10724025 11.3451 11.7048 29.7574 25.0762 -1.38716 6.12141 77.8834
10724035 11.3275 11.7232 29.718 25.0665 -1.36693 6.11559 77.8351
10724045 11.3275 11.7232 29.718 25.0665 -1.36693 6.11559 77.8351
10724055 11.3451 11.7784 29.718 25.1054 -1.3404 6.10029 77.947
10724065 11.2922 11.8337 29.7377 25.1249 -1.30509 6.10411 77.9885
10724080 11.2922 11.8337 29.7377 25.1249 -1.30509 6.10411 77.9885
10724085 11.3098 11.7784 29.7869 25.1152 -1.34732 6.11879 77.9904
10724095 11.3098 11.7784 29.7869 25.1152 -1.34732 6.11879 77.9904
10724105 11.3275 11.7508 29.7082 25.0957 -1.3447 6.11031 77.8821
10724115 11.3363 11.7692 29.7672 25.0762 -1.36565 6.10745 77.9489
10724125 11.3363 11.7692 29.7672 25.0762 -1.36565 6.10745 77.9489
10724135 11.3539 11.7876 29.7279 25.0665 -1.35612 6.09209 77.9359
10724145 11.3539 11.8153 29.7574 25.086 -1.34915 6.09021 78.0125
10724165 11.3275 11.8521 29.7082 25.086 -1.31376 6.08177 77.9737
10724175 11.3275 11.8521 29.7082 25.086 -1.31376 6.08177 77.9737
10724187 11.3187 11.8153 29.718 25.1639 -1.30021 6.10414 78.0158
10724195 11.3451 11.8337 29.6786 25.0665 -1.32294 6.07638 77.9239
10724207 11.3451 11.8337 29.6786 25.0665 -1.32294 6.07638 77.9239
10724215 11.3627 11.8061 29.59 25.0178 -1.32717 6.06334 77.7766
10724229 11.3363 11.8153 29.6589 25.0567 -1.32379 6.08038 77.8672
10724238 11.3363 11.8153 29.6589 25.0567 -1.32379 6.08038 77.8672
10724256 11.3803 11.8705 29.6786 25.1542 -1.29165 6.06695 78.0836
10724267 11.3275 11.8153 29.6294 25.1444 -1.28252 6.08942 77.9166
10724283 11.3187 11.8245 29.6885 25.1054 -1.30785 6.09161 77.9371
10724288 11.3187 11.8245 29.6885 25.1054 -1.30785 6.09161 77.9371
10724297 11.3627 11.7969 29.6688 25.1931 -1.295 6.09493 78.0215
10724310 11.3891 11.8797 29.6196 25.1249 -1.28312 6.05197 78.0134
10724317 11.3891 11.8797 29.6196 25.1249 -1.28312 6.05197 78.0134
10724327 11.3451 11.8521 29.5605 25.0762 -1.27748 6.05897 77.8339
10724337 11.3451 11.8521 29.5605 25.0762 -1.27748 6.05897 77.8339
10724347 11.2746 11.8521 29.4916 25.0957 -1.22835 6.07237 77.714
10724363 11.3098 11.9074 29.4719 25.0567 -1.22761 6.04111 77.7459
10724367 11.3098 11.9074 29.4719 25.0567 -1.22761 6.04111 77.7459
10724378 11.3539 11.9442 29.4522 25.008 -1.23906 6.01135 77.7583
10724387 11.3363 11.9166 29.5113 25.1054 -1.22819 6.04162 77.8696
10724398 11.3363 11.9166 29.5113 25.1054 -1.22819 6.04162 77.8696
10724408 11.3803 11.8705 29.531 25.086 -1.26972 6.04218 77.8678
10724418 11.3803 11.8705 29.531 25.086 -1.26972 6.04218 77.8678
10724429 11.3363 11.9166 29.5014 25.086 -1.23175 6.03824 77.8403
10724445 11.3627 11.9442 29.4818 25.0665 -1.23106 6.01913 77.8551
10724450 11.3627 11.9442 29.4818 25.0665 -1.23106 6.01913 77.8551
10724458 11.4332 11.981 29.5211 25.0762 -1.24886 5.99587 78.0116
10724474 11.3803 11.9902 29.4424 25.0178 -1.22531 5.99177 77.8307
10724482 11.3803 11.9902 29.4424 25.0178 -1.22531 5.99177 77.8307
10724489 11.3979 12.0363 29.4424 24.9788 -1.22831 5.9701 77.8554
10724509 11.3803 12.0363 29.3735 25.008 -1.19202 5.97024 77.7981
10724519 11.4244 12.0455 29.3932 25.047 -1.1953 5.96271 77.91
10724539 11.4332 11.9995 29.3538 25.0178 -1.21129 5.96477 77.8042
10724550 11.4067 12.0271 29.4227 24.9691 -1.23138 5.96679 77.8256
10724561 11.4067 12.0271 29.4227 24.9691 -1.23138 5.96679 77.8256
10724570 11.4596 12.0271 29.5014 25.008 -1.25837 5.96622 77.9961
10724590 11.4244 12.0455 29.4129 25.0567 -1.19804 5.96612 77.9394
10724606 11.3803 12.0639 29.4522 25.008 -1.20679 5.97193 77.9045
10724610 11.3803 12.0639 29.4522 25.008 -1.20679 5.97193 77.9045
10724620 11.4684 12.0915 29.4522 24.8814 -1.26702 5.9261 77.8935
10724632 11.4772 12.0179 29.4227 24.9398 -1.26584 5.9469 77.8576
10724642 11.4772 12.0179 29.4227 24.9398 -1.26584 5.9469 77.8576
10724660 11.4772 12.0823 29.4621 24.9301 -1.25939 5.93302 77.9517
10724662 11.4508 12.0915 29.4621 24.9009 -1.25808 5.93425 77.9053
10724672 11.4508 12.0915 29.4621 24.9009 -1.25808 5.93425 77.9053
10724685 11.4772 12.0179 29.4621 24.9593 -1.27126 5.95374 77.9165
10724695 11.4772 12.0179 29.4621 24.9593 -1.27126 5.95374 77.9165
10724702 11.4244 12.0363 29.4818 24.9106 -1.27137 5.95964 77.853
10724712 11.4772 12.0547 29.4916 24.8911 -1.29083 5.93935 77.9146
10724722 11.4772 12.0547 29.4916 24.8911 -1.29083 5.93935 77.9146
10724732 11.486 12.0823 29.4621 24.9203 -1.26535 5.92952 77.9508
10724741 11.486 12.0823 29.4621 24.9203 -1.26535 5.92952 77.9508
10724754 11.4684 12.0639 29.5113 24.9203 -1.28118 5.94492 77.964
10724762 11.4596 12.0271 29.5014 24.8424 -1.31425 5.947 77.8305
10724772 11.4596 12.0271 29.5014 24.8424 -1.31425 5.947 77.8305
10724782 11.4508 12.11 29.4818 24.8034 -1.29073 5.92024 77.8459
10724792 11.5301 11.9995 29.4916 24.8132 -1.35192 5.93092 77.8343
10724802 11.5301 11.9995 29.4916 24.8132 -1.35192 5.93092 77.8343
10724812 11.5565 12.0547 29.4522 24.7645 -1.34577 5.89869 77.8279
10724823 11.5565 12.0547 29.4522 24.7645 -1.34577 5.89869 77.8279
10724832 11.5389 12.0455 29.4424 24.7547 -1.34383 5.90361 77.7815
10724844 11.5212 12.0731 29.4818 24.7742 -1.3345 5.9078 77.8503
10724853 11.5212 12.0731 29.4818 24.7742 -1.3345 5.9078 77.8503
10724865 11.5212 12.0731 29.4818 24.8034 -1.32462 5.91121 77.8796
10724873 11.6005 12.0639 29.4325 24.7645 -1.35005 5.8821 77.8615
10724893 11.6446 12.1468 29.5113 24.6768 -1.38891 5.84706 77.9794
10724903 11.6446 12.1468 29.5113 24.6768 -1.38891 5.84706 77.9794
10724913 11.5917 12.0271 29.5014 24.7158 -1.39727 5.89671 77.836
10724926 11.5829 12.0363 29.5408 24.6476 -1.42655 5.89323 77.8076
10724933 11.5829 12.0363 29.5408 24.6476 -1.42655 5.89323 77.8076
10724943 11.6269 12.1008 29.4916 24.6768 -1.3932 5.86179 77.8961
10724953 11.6534 12.0915 29.4522 24.667 -1.3957 5.85141 77.8642
10724966 11.6534 12.0915 29.4522 24.667 -1.3957 5.85141 77.8642
10724973 11.6974 12.1284 29.5014 24.667 -1.41146 5.83556 77.9943
10724989 11.6974 12.1284 29.5014 24.667 -1.41146 5.83556 77.9943
10724993 11.6358 12.1192 29.4916 24.443 -1.46905 5.82698 77.6895
10725003 11.6622 12.1284 29.531 24.5209 -1.45931 5.83127 77.8425
10725014 11.6622 12.1284 29.531 24.5209 -1.45931 5.83127 77.8425
10725024 11.7062 12.1284 29.4424 24.4917 -1.45577 5.80558 77.7687
10725035 11.671 12.1192 29.5211 24.5112 -1.46544 5.82906 77.8225
10725044 11.671 12.1192 29.5211 24.5112 -1.46544 5.82906 77.8225
10725057 11.7679 12.2205 29.5704 24.4625 -1.49167 5.77621 78.0212
10725064 11.7679 12.2205 29.5704 24.4625 -1.49167 5.77621 78.0212
10725073 11.7415 12.156 29.4621 24.4235 -1.48619 5.78303 77.783
10725084 11.7591 12.1836 29.531 24.404 -1.50955 5.7768 77.8777
10725106 11.7503 12.1836 29.5014 24.3163 -1.52785 5.76525 77.7517
10725125 11.7503 12.2297 29.5211 24.3261 -1.51478 5.75646 77.8272
10725135 11.7855 12.2481 29.5704 24.3748 -1.51739 5.75379 77.9787
10725147 11.7855 12.2481 29.5704 24.3748 -1.51739 5.75379 77.9787
10725155 11.7503 12.1652 29.5211 24.3358 -1.53343 5.77482 77.7724
10725170 11.8207 12.2021 29.5999 24.3358 -1.56581 5.75555 77.9585
10725175 11.8207 12.2021 29.5999 24.3358 -1.56581 5.75555 77.9585
10725185 11.8119 12.2297 29.5605 24.2384 -1.57513 5.73428 77.8405
10725195 11.8648 12.2113 29.5211 24.2189 -1.59213 5.7181 77.8161
10725205 11.8648 12.2113 29.5211 24.2189 -1.59213 5.7181 77.8161
10725216 11.856 12.2573 29.531 24.2287 -1.57339 5.71053 77.8729
10725236 11.8207 12.2205 29.4129 24.1702 -1.55972 5.70863 77.6243
10725247 11.8295 12.2665 29.4621 24.141 -1.57148 5.6964 77.6991
10725267 11.8295 12.2481 29.5014 24.1312 -1.59298 5.70485 77.7103
10725280 11.8295 12.2849 29.4818 24.2092 -1.54783 5.702 77.8054
10725288 11.8295 12.2849 29.4818 24.2092 -1.54783 5.702 77.8054
10725301 11.8736 12.3034 29.5014 24.1312 -1.58735 5.67843 77.8096
10725308 11.8736 12.2389 29.531 24.1605 -1.60827 5.7026 77.8039
10725323 11.8736 12.2389 29.531 24.1605 -1.60827 5.7026 77.8039
10725328 11.9088 12.3218 29.5014 24.1799 -1.57502 5.67001 77.912
10725338 11.9088 12.3218 29.5014 24.1799 -1.57502 5.67001 77.912
10725348 11.8295 12.3034 29.531 24.1117 -1.58964 5.69134 77.7756
10725359 11.9352 12.2481 29.5014 24.1215 -1.62811 5.67556 77.8063
10725370 11.9352 12.2481 29.5014 24.1215 -1.62811 5.67556 77.8063
10725379 11.9088 12.3494 29.403 24.0533 -1.57922 5.63564 77.7145
10725392 11.9264 12.2757 29.403 24.0728 -1.60307 5.65289 77.6779
10725399 11.9264 12.2757 29.403 24.0728 -1.60307 5.65289 77.6779
10725419 11.9528 12.3586 29.531 24.1117 -1.60783 5.64394 77.9542
10725421 11.9528 12.3586 29.531 24.1117 -1.60783 5.64394 77.9542
10725429 11.9528 12.3034 29.4719 24.1117 -1.60896 5.6515 77.8399
10725447 11.944 12.3218 29.4621 24.102 -1.60039 5.6466 77.8299
10725459 11.9705 12.3586 29.4325 24.0923 -1.5902 5.6251 77.8539
10725476 11.9264 12.3586 29.3538 24.102 -1.54989 5.62846 77.7408
10725489 11.944 12.3402 29.3932 24.102 -1.57336 5.63342 77.7794
10725503 11.944 12.3402 29.3932 24.102 -1.57336 5.63342 77.7794
10725509 11.9264 12.3862 29.3046 24.0533 -1.54224 5.60931 77.6705
10725519 11.9617 12.3954 29.3833 24.0825 -1.56349 5.61057 77.823
10725532 11.9617 12.3954 29.3833 24.0825 -1.56349 5.61057 77.823
10725540 11.9969 12.4139 29.3243 24.0533 -1.56 5.5857 77.7883
10725554 11.9 12.3494 29.3341 24.0923 -1.54245 5.63438 77.6758
10725562 11.9 12.3494 29.3341 24.0923 -1.54245 5.63438 77.6758
10725570 11.9352 12.4415 29.3932 24.1312 -1.52619 5.61243 77.9011
10725580 11.9352 12.4415 29.3932 24.1312 -1.52619 5.61243 77.9011
10725590 11.9617 12.3862 29.2849 24.1312 -1.52033 5.60701 77.764
10725602 11.9264 12.4415 29.2947 24.141 -1.49051 5.60407 77.8036
10725610 11.9264 12.4415 29.2947 24.141 -1.49051 5.60407 77.8036
10725626 11.9352 12.5244 29.2554 24.0923 -1.46964 5.56915 77.8072
10725630 11.9705 12.4967 29.2061 24.102 -1.4715 5.56235 77.7754
10725640 11.9705 12.4967 29.2061 24.102 -1.4715 5.56235 77.7754
10725650 11.9793 12.5336 29.2061 24.1702 -1.43846 5.55856 77.8892
10725662 11.9793 12.5336 29.2061 24.1702 -1.43846 5.55856 77.8892
10725675 11.9617 12.4507 29.2061 24.1702 -1.4613 5.58513 77.7887
10725682 11.9617 12.4691 29.2061 24.2092 -1.44179 5.58497 77.8461
10725691 11.9617 12.4691 29.2061 24.2092 -1.44179 5.58497 77.8461
10725707 11.9969 12.4875 29.1569 24.1605 -1.44785 5.55892 77.8018
10725724 11.9793 12.506 29.1175 24.1507 -1.42763 5.55275 77.7535
10725733 11.9793 12.552 29.088 24.2189 -1.37991 5.54528 77.8382
10725746 11.9793 12.552 29.088 24.2189 -1.37991 5.54528 77.8382
10725752 11.9528 12.5336 29.0388 24.2676 -1.34667 5.55706 77.7929
10725769 11.9793 12.506 29.0683 24.2189 -1.38954 5.55505 77.7725
10725773 11.9793 12.506 29.0683 24.2189 -1.38954 5.55505 77.7725
10725783 11.9528 12.5152 29.0388 24.1897 -1.37934 5.55246 77.6965
10725793 11.9352 12.5981 28.9797 24.2871 -1.29493 5.53988 77.8001
10725818 11.9705 12.6349 29.0388 24.2287 -1.33093 5.52094 77.8728
10725833 11.9705 12.5888 29.0191 24.3066 -1.31416 5.54017 77.885
10725843 11.9528 12.6073 28.9797 24.3261 -1.28402 5.53754 77.8659
10725853 11.9528 12.6073 28.9797 24.3261 -1.28402 5.53754 77.8659
10725866 11.9528 12.5981 28.96 24.2871 -1.29429 5.53284 77.798
10725874 11.9528 12.5888 28.9305 24.3066 -1.28182 5.53404 77.7788
10725894 11.9176 12.6165 28.9108 24.2481 -1.27548 5.52653 77.6931
10725904 11.9528 12.6165 28.8813 24.2481 -1.27722 5.51363 77.6988
10725915 11.9528 12.6349 28.8813 24.3261 -1.24467 5.51827 77.7951
10725924 11.9705 12.5428 28.96 24.3553 -1.29529 5.55106 77.8286
10725938 11.9705 12.5428 28.96 24.3553 -1.29529 5.55106 77.8286
10725944 11.9617 12.5888 28.9404 24.3553 -1.27106 5.53884 77.8462
10725954 11.9705 12.6165 28.8813 24.3553 -1.24641 5.52204 77.8235
10725964 11.9705 12.6165 28.8813 24.3553 -1.24641 5.52204 77.8235
10725975 11.944 12.6349 28.8616 24.3748 -1.21955 5.52413 77.8153
10725986 11.944 12.6349 28.8616 24.3748 -1.21955 5.52413 77.8153
10725994 11.9528 12.6073 28.9108 24.404 -1.23673 5.53864 77.8749
10726004 11.9264 12.5796 28.9404 24.3943 -1.25027 5.5553 77.8407
10726014 11.9264 12.5796 28.9404 24.3943 -1.25027 5.5553 77.8407
10726024 11.9264 12.6165 28.9305 24.3358 -1.25456 5.53728 77.8092
10726034 11.9176 12.5888 28.96 24.3261 -1.2735 5.54931 77.7926
10726044 11.9176 12.5888 28.96 24.3261 -1.2735 5.54931 77.7926
