2740328 14.5161 14.8451 25.5837 22.2315 -0.979298 3.58673 77.1763
2740339 14.5777 14.8174 25.5148 22.2315 -0.986345 3.56834 77.1414
2740348 14.4368 14.7254 25.5541 22.29 -0.966026 3.63905 77.0062
2740358 14.4368 14.7254 25.5541 22.29 -0.966026 3.63905 77.0062
2740367 14.428 14.7346 25.5541 22.3582 -0.937203 3.64901 77.0748
2740394 14.3663 14.7254 25.6034 22.29 -0.959392 3.66337 76.985
2740405 14.4368 14.7069 25.6329 22.3874 -0.96397 3.66944 77.164
2740416 14.4368 14.7069 25.6329 22.3874 -0.96397 3.66944 77.164
2740424 14.3751 14.6885 25.6526 22.4166 -0.947255 3.696 77.1328
2740429 14.3047 14.6425 25.6427 22.4264 -0.934401 3.72427 77.0162
2740439 14.3047 14.6425 25.6427 22.4264 -0.934401 3.72427 77.0162
2740449 14.3223 14.6425 25.751 22.5822 -0.921303 3.75854 77.298
2740469 14.2342 14.5964 25.7609 22.514 -0.935271 3.78266 77.1055
2740479 14.287 14.5688 25.7412 22.5335 -0.948359 3.77649 77.1305
2740489 14.287 14.5688 25.7412 22.5335 -0.948359 3.77649 77.1305
2740500 14.3135 14.6241 25.7412 22.4069 -0.980635 3.73815 77.0856
2740510 14.428 14.6977 25.6329 22.3387 -0.980729 3.66664 77.0973
2740520 14.428 14.6977 25.6329 22.3387 -0.980729 3.66664 77.0973
2740530 14.4808 14.6701 25.5738 22.3289 -0.991392 3.65041 77.0537
2740550 14.5161 14.6793 25.436 22.1341 -1.02216 3.59043 76.7655
2740560 14.5953 14.7161 25.3868 22.1731 -1.00588 3.56083 76.8713
2740570 14.5953 14.7161 25.3868 22.1731 -1.00588 3.56083 76.8713
2740580 14.5601 14.8174 25.377 22.1926 -0.951 3.54633 76.9471
2740590 14.5601 14.8174 25.377 22.1926 -0.951 3.54633 76.9471
2740600 14.613 14.799 25.377 22.1633 -0.983582 3.53368 76.9523
2740610 14.6218 14.8727 25.4163 22.1926 -0.963916 3.52405 77.1033
2740621 14.6218 14.8727 25.4163 22.1926 -0.963916 3.52405 77.1033
2740630 14.5777 14.8359 25.3573 22.2607 -0.921176 3.54486 77.0316
2740641 14.5777 14.8359 25.3376 22.2802 -0.908464 3.54483 77.0314
2740661 14.5777 14.8543 25.3966 22.3484 -0.897825 3.55929 77.1771
2740670 14.5777 14.8543 25.3966 22.3484 -0.897825 3.55929 77.1771
2740681 14.4984 14.799 25.4655 22.2218 -0.955771 3.58315 76.9848
2740690 14.5689 14.7714 25.4655 22.2607 -0.973937 3.57859 77.0666
2740701 14.5689 14.7714 25.4655 22.2607 -0.973937 3.57859 77.0666
2740710 14.5601 14.9095 25.2982 22.1536 -0.908455 3.50659 76.9214
2740723 14.6041 14.9187 25.2982 22.1438 -0.922422 3.49234 76.9649
2740738 14.6041 14.9187 25.2982 22.1438 -0.922422 3.49234 76.9649
2740742 14.701 14.9187 25.3277 22.0756 -0.984894 3.46329 77.0232
2740751 14.701 14.9187 25.3277 22.0756 -0.984894 3.46329 77.0232
2740764 14.6834 14.9648 25.2588 22.0562 -0.948925 3.44323 76.9632
2740772 14.6658 14.9464 25.2982 22.1049 -0.945516 3.46507 77.0153
2740784 14.6658 14.9464 25.2982 22.1049 -0.945516 3.46507 77.0153
2740791 14.613 14.8819 25.3376 22.1438 -0.9499 3.50496 76.9763
2740804 14.6041 14.8359 25.4163 22.1731 -0.977403 3.53425 77.0294
2740811 14.6041 14.8359 25.4163 22.1731 -0.977403 3.53425 77.0294
2740825 14.5513 14.7806 25.4852 22.2997 -0.958356 3.5893 77.1169
2740844 14.4192 14.6517 25.6132 22.3679 -0.977516 3.68133 77.052
2740853 14.3047 14.5688 25.8494 22.4848 -1.00395 3.78087 77.2077
2740865 14.3047 14.5688 25.8494 22.4848 -1.00395 3.78087 77.2077
2740872 14.2959 14.4399 25.8593 22.6991 -0.975539 3.84687 77.2942
2740886 14.1725 14.3478 25.938 22.8355 -0.946799 3.93044 77.2939
2740907 14.1197 14.2281 26.0562 22.9524 -0.968041 4.0063 77.3564
2740922 14.0052 14.0347 26.194 23.0011 -1.02393 4.10862 77.235
2740958 13.8907 13.9334 26.3613 23.0986 -1.04163 4.19929 77.2839
2740963 13.8907 13.9334 26.3613 23.0986 -1.04163 4.19929 77.2839
2740965 13.7233 13.8321 26.4598 23.2057 -1.01827 4.29484 77.2209
2740967 13.6264 13.6663 26.568 23.4201 -1.00545 4.40511 77.2808
2740974 13.6264 13.6663 26.568 23.4201 -1.00545 4.40511 77.2808
2740984 13.5824 13.6939 26.5779 23.459 -0.972441 4.41592 77.3132
2740995 13.5824 13.6939 26.5779 23.459 -0.972441 4.41592 77.3132
2741004 13.6529 13.5374 26.5188 23.4395 -1.03526 4.42681 77.1486
2741014 13.6969 13.565 26.4598 23.4395 -1.02127 4.40067 77.1612
2741024 13.6969 13.565 26.4598 23.4395 -1.02127 4.40067 77.1612
2741035 13.7409 13.5466 26.4991 23.3616 -1.0797 4.38893 77.1483
2741046 13.785 13.5005 26.4598 23.3811 -1.09013 4.3867 77.1264
2741058 13.785 13.5005 26.4598 23.3811 -1.09013 4.3867 77.1264
2741065 13.7057 13.5282 26.4204 23.3811 -1.04395 4.39427 77.0353
2741085 13.7497 13.5005 26.5582 23.3519 -1.1196 4.40507 77.1603
2741095 13.7233 13.5834 26.4991 23.4298 -1.03878 4.39347 77.2357
2741106 13.7233 13.5834 26.4991 23.4298 -1.03878 4.39347 77.2357
2741115 13.7497 13.6203 26.4696 23.3421 -1.05497 4.36147 77.1817
2741126 13.829 13.6479 26.4401 23.3129 -1.07093 4.32658 77.2299
2741135 13.829 13.6479 26.4401 23.3129 -1.07093 4.32658 77.2299
2741146 13.8554 13.7768 26.3515 23.196 -1.04759 4.25925 77.1797
2741156 13.8995 13.786 26.2334 23.1278 -1.0445 4.21997 77.0467
2741166 13.8995 13.786 26.2334 23.1278 -1.0445 4.21997 77.0467
2741176 13.9876 13.8413 26.1841 23.0693 -1.05766 4.16917 77.0823
2741189 13.9876 13.8413 26.1841 23.0693 -1.05766 4.16917 77.0823
2741198 13.9876 13.9334 26.2038 23.0206 -1.04912 4.14221 77.1454
2741208 13.9611 13.8689 26.2334 23.1083 -1.04225 4.18125 77.1717
2741218 13.9611 13.8689 26.2334 23.1083 -1.04225 4.18125 77.1717
2741228 13.9171 13.9057 26.2137 23.2155 -0.97394 4.19529 77.252
2741237 13.8731 13.8413 26.1841 23.2447 -0.962892 4.22225 77.1432
2741248 13.8731 13.8413 26.1841 23.2447 -0.962892 4.22225 77.1432
2741257 13.9964 14.007 26.1054 23.2252 -0.927632 4.1367 77.334
2741267 13.9964 14.007 26.1054 23.2252 -0.927632 4.1367 77.334
2741278 14.0492 14.007 25.9676 23.0596 -0.956807 4.08082 77.0834
2741288 14.0933 14.0623 25.9971 22.9817 -0.987369 4.04941 77.1343
2741298 14.0933 14.0623 25.9971 22.9817 -0.987369 4.04941 77.1343
2741307 14.0933 14.1728 25.8691 23.0109 -0.90047 4.0081 77.1461
2741317 14.0933 14.1728 25.8691 23.0109 -0.90047 4.0081 77.1461
2741327 14.0845 14.1636 25.938 22.9232 -0.951795 4.00986 77.1093
2741338 14.0845 14.1636 25.9184 22.9135 -0.948934 4.00567 77.0799
2741347 14.0845 14.1636 25.9184 22.9135 -0.948934 4.00567 77.0799
2741357 14.0492 14.136 25.8593 22.9524 -0.915655 4.01832 76.9969
2741367 14.0316 14.1544 25.879 22.9524 -0.910108 4.02092 77.0174
2741377 14.0316 14.1544 25.879 22.9524 -0.910108 4.02092 77.0174
2741389 14.0668 14.2189 25.8691 22.9524 -0.896376 3.99493 77.1073
2741397 14.0668 14.2189 25.8691 22.9524 -0.896376 3.99493 77.1073
2741408 14.1197 14.2557 25.8396 22.9427 -0.89457 3.96725 77.1577
2741417 14.0756 14.2281 25.8593 22.9817 -0.883152 3.99326 77.1447
2741427 14.0756 14.2281 25.8593 22.9817 -0.883152 3.99326 77.1447
2741438 14.0845 14.2373 25.7904 22.9037 -0.887431 3.96783 77.0158
2741448 14.0668 14.136 25.8298 22.9622 -0.90865 4.01114 76.9948
2741459 14.0668 14.136 25.8298 22.9622 -0.90865 4.01114 76.9948
2741469 14.0316 14.2281 25.8691 22.9719 -0.875725 4.00412 77.1007
2741495 14.014 14.2096 25.8298 22.9914 -0.857523 4.01017 77.0448
2741499 14.0404 14.2373 25.8298 22.9524 -0.869605 3.99128 77.0599
2741509 14.0404 14.2373 25.8298 22.9524 -0.869605 3.99128 77.0599
2741519 14.1021 14.3294 25.7609 22.9427 -0.839721 3.9422 77.135
2741529 14.199 14.357 25.6329 22.8745 -0.84358 3.88345 77.0633
2741549 14.2959 14.4767 25.623 22.7868 -0.860097 3.81641 77.1824
2741569 14.3927 14.4583 25.5049 22.6504 -0.905427 3.76027 77.0064
2741579 14.4456 14.5228 25.4065 22.553 -0.902249 3.70305 76.9278
2741593 14.4456 14.5228 25.4065 22.553 -0.902249 3.70305 76.9278
2741600 14.4984 14.5596 25.436 22.5725 -0.90908 3.68846 77.0665
2741611 14.4192 14.4951 25.4065 22.5725 -0.896709 3.71906 76.8933
2741631 14.4192 14.5504 25.3868 22.5822 -0.868665 3.70415 76.9386
2741640 14.4192 14.5504 25.3868 22.5822 -0.868665 3.70415 76.9386
2741652 14.428 14.5688 25.4065 22.514 -0.894348 3.69041 76.9173
2741660 14.4368 14.6425 25.4951 22.514 -0.900058 3.68341 77.0884
2741675 14.4368 14.6425 25.4951 22.514 -0.900058 3.68341 77.0884
2741684 14.5513 14.5412 25.4557 22.5043 -0.960879 3.67299 77.0525
2741692 14.5425 14.6056 25.4262 22.5725 -0.904293 3.6652 77.1468
2741715 14.5161 14.5228 25.4065 22.5725 -0.917743 3.68879 77.0178
2741721 14.5161 14.5228 25.3671 22.5725 -0.905424 3.68301 76.9784
2741731 14.5249 14.578 25.3671 22.5725 -0.889602 3.66747 77.0425
2741741 14.5337 14.6148 25.4262 22.6309 -0.878841 3.67368 77.2056
2741762 14.4808 14.6333 25.377 22.5822 -0.85707 3.66763 77.0733
2741772 14.4984 14.6333 25.3966 22.6212 -0.855684 3.67199 77.1496
2741782 14.4984 14.6333 25.3966 22.6212 -0.855684 3.67199 77.1496
2741792 14.5073 14.6701 25.3573 22.4946 -0.876248 3.63651 77.0292
2741804 14.5073 14.6701 25.3573 22.4946 -0.876248 3.63651 77.0292
2741812 14.5425 14.6517 25.2293 22.4458 -0.869744 3.60631 76.8693
2741822 14.5337 14.7622 25.2687 22.3777 -0.865102 3.57745 76.9422
2741832 14.5337 14.7622 25.2687 22.3777 -0.865102 3.57745 76.9422
2741842 14.5161 14.7161 25.2096 22.2997 -0.882776 3.57247 76.7415
2741854 14.5249 14.6793 25.2391 22.3095 -0.903958 3.5851 76.7528
2741862 14.5249 14.6793 25.2391 22.3095 -0.903958 3.5851 76.7528
2741874 14.5865 14.8174 25.2982 22.3971 -0.865819 3.55867 77.0993
2741884 14.5161 14.7438 25.3277 22.4556 -0.858106 3.60645 77.0432
2741894 14.5161 14.7438 25.3277 22.4556 -0.858106 3.60645 77.0432
2741905 14.5425 14.799 25.4065 22.5335 -0.846393 3.60988 77.2815
2741914 14.5425 14.799 25.4065 22.5335 -0.846393 3.60988 77.2815
2741924 14.4808 14.7714 25.3868 22.4458 -0.859566 3.61558 77.0849
2741934 14.4896 14.7622 25.4459 22.4946 -0.867561 3.63157 77.1922
2741954 14.4544 14.7806 25.3868 22.5238 -0.822085 3.63123 77.1456
2741964 14.4456 14.7806 25.4459 22.5238 -0.837825 3.64206 77.1958
2741976 14.4456 14.7622 25.4459 22.4556 -0.866847 3.63646 77.1092
2741988 14.3927 14.7069 25.4065 22.4458 -0.859775 3.65539 76.952
2742011 14.3927 14.6977 25.4459 22.3679 -0.901437 3.65194 76.9042
2742015 14.4456 14.6977 25.4459 22.3289 -0.931117 3.63337 76.9181
2742035 14.472 14.8082 25.4163 22.4264 -0.860234 3.61029 77.1229
2742055 14.5249 14.8174 25.2687 22.29 -0.873242 3.55321 76.901
2742065 14.5689 14.8727 25.4065 22.3582 -0.888701 3.55989 77.2063
2742075 14.5689 14.8727 25.4065 22.3582 -0.888701 3.55989 77.2063
2742085 14.5777 14.8727 25.3671 22.3484 -0.88242 3.55049 77.166
2742095 14.5513 14.8635 25.3573 22.2802 -0.897066 3.54747 77.0523
2742107 14.5513 14.8635 25.3573 22.2802 -0.897066 3.54747 77.0523
2742116 14.6218 14.9095 25.2687 22.2315 -0.892292 3.499 77.0315
2742126 14.6041 14.8451 25.2391 22.1633 -0.922196 3.50414 76.8517
2742136 14.6041 14.8451 25.2391 22.1633 -0.922196 3.50414 76.8517
2742146 14.7187 14.8911 25.1702 22.1049 -0.940661 3.44645 76.8849
2742157 14.7187 14.8911 25.1702 22.1049 -0.940661 3.44645 76.8849
2742166 14.7627 14.9556 25.0324 22.0464 -0.909254 3.39086 76.7971
2742176 14.9124 15.0569 24.9438 21.9685 -0.920542 3.30567 76.8816
2742186 14.9124 15.0569 24.9438 21.9685 -0.920542 3.30567 76.8816
2742196 14.9389 15.0937 24.9045 21.9685 -0.904073 3.28462 76.9055
2742216 14.9653 15.0937 24.9143 21.9685 -0.915432 3.27984 76.9418
2742226 14.9565 15.1306 24.8946 21.9782 -0.890827 3.27167 76.9599
2742236 14.9565 15.1306 24.8946 21.9782 -0.890827 3.27167 76.9599
2742246 14.9389 15.0569 24.9537 21.9587 -0.935179 3.29939 76.9082
2742257 14.9389 15.0569 24.9931 22.0172 -0.927795 3.31426 77.006
2742266 14.9389 15.0569 24.9931 22.0172 -0.927795 3.31426 77.006
2742276 14.9477 15.1213 24.9832 22.1146 -0.873083 3.31013 77.1668
2742287 14.9477 15.1213 24.9832 22.1146 -0.873083 3.31013 77.1668
2742297 14.9477 15.0477 24.9931 22.0172 -0.933652 3.31435 77.0056
2742312 14.8948 15.0845 24.9734 22.0659 -0.882182 3.32256 77.0186
2742321 14.8948 15.0845 24.9734 22.0659 -0.882182 3.32256 77.0186
2742330 14.9212 15.0845 24.9734 22.0464 -0.897001 3.31332 77.0255
2742337 14.842 15.0108 25.0127 22.0854 -0.896183 3.36162 76.9509
2742357 14.8155 14.9832 25.0521 22.2023 -0.870231 3.3981 77.0532
2742369 14.7891 14.9372 25.1998 22.2802 -0.897431 3.44928 77.2063
2742379 14.7891 14.9372 25.1998 22.2802 -0.897431 3.44928 77.2063
2742389 14.6658 14.8267 25.2195 22.3095 -0.892332 3.51262 77.0214
2742399 14.6658 14.8267 25.2195 22.3095 -0.892332 3.51262 77.0214
2742411 14.6394 14.8359 25.3179 22.3679 -0.892128 3.54011 77.161
2742419 14.6041 14.6977 25.3966 22.4751 -0.916114 3.60936 77.1736
2742430 14.6041 14.6977 25.3966 22.4751 -0.916114 3.60936 77.1736
2742439 14.5513 14.7069 25.3376 22.4166 -0.897689 3.60253 77.0124
2742449 14.5513 14.7069 25.3376 22.4166 -0.897689 3.60253 77.0124
2742459 14.4544 14.6425 25.3376 22.4946 -0.862795 3.65309 76.929
2742469 14.4368 14.7069 25.3868 22.514 -0.844516 3.65187 77.0446
2742489 14.4456 14.6333 25.3966 22.5335 -0.86855 3.6719 77.009
2742499 14.428 14.5872 25.4852 22.5043 -0.91608 3.69607 77.0047
2742519 14.4544 14.6517 25.436 22.6115 -0.851315 3.68254 77.1536
2742530 14.4544 14.6517 25.436 22.6115 -0.851315 3.68254 77.1536
2742540 14.4104 14.6241 25.4557 22.5238 -0.882383 3.68993 77.0139
2742550 14.4896 14.6701 25.4852 22.5725 -0.884604 3.67106 77.2175
2742560 14.4896 14.6701 25.4852 22.5725 -0.884604 3.67106 77.2175
2742571 14.428 14.6425 25.436 22.5335 -0.872275 3.67973 77.04
2742580 14.5161 14.6609 25.3474 22.4848 -0.882292 3.63371 77.0092
2742590 14.5161 14.6609 25.3474 22.4848 -0.882292 3.63371 77.0092
2742600 14.5161 14.6793 25.3376 22.4653 -0.879568 3.62493 76.9983
2742610 14.5161 14.6793 25.3376 22.4653 -0.879568 3.62493 76.9983
2742621 14.5337 14.6885 25.2687 22.3777 -0.889891 3.59526 76.8685
2742633 14.5513 14.7898 25.3573 22.4069 -0.879274 3.584 77.1053
2742640 14.5513 14.7898 25.3573 22.4069 -0.879274 3.584 77.1053
2742650 14.5601 14.7714 25.2588 22.3387 -0.88031 3.5616 76.929
2742662 14.5249 14.7254 25.308 22.2997 -0.913325 3.58275 76.858
2742671 14.5249 14.7254 25.308 22.2997 -0.913325 3.58275 76.858
2742681 14.5953 14.7069 25.377 22.3387 -0.949998 3.58618 77.0179
2742691 14.5953 14.7069 25.377 22.3387 -0.949998 3.58618 77.0179
2742701 14.5073 14.6977 25.3671 22.2802 -0.942199 3.59957 76.8523
2742711 14.5337 14.6148 25.3868 22.3387 -0.964874 3.62482 76.874
2742722 14.5337 14.6148 25.3868 22.3387 -0.964874 3.62482 76.874
2742731 14.5513 14.7161 25.4065 22.2997 -0.955498 3.5932 76.9736
2742742 14.6041 14.7622 25.2982 22.2607 -0.935784 3.54746 76.9253
2742751 14.6041 14.7622 25.2982 22.2607 -0.935784 3.54746 76.9253
2742761 14.7098 14.8082 25.3179 22.1244 -1.00543 3.49352 76.9603
2742775 14.7098 14.8082 25.3179 22.1244 -1.00543 3.49352 76.9603
2742786 14.8155 14.8267 25.2588 22.0269 -1.04669 3.44028 76.928
2742791 14.7803 14.8727 25.2195 22.0269 -1.00785 3.43177 76.8994
2742802 14.7803 14.8727 25.2195 22.0269 -1.00785 3.43177 76.8994
2742813 14.842 14.9187 25.1309 22.0172 -0.987175 3.39116 76.9088
2742823 14.9565 14.8819 25.0915 21.8905 -1.06596 3.34748 76.8204
2742835 14.9565 14.8819 25.0915 21.8905 -1.06596 3.34748 76.8204
2742842 15.0358 14.9464 25.1013 21.8126 -1.09827 3.30287 76.8961
2742853 15.0358 14.9464 25.1013 21.8126 -1.09827 3.30287 76.8961
2742863 15.0534 14.9372 25.0324 21.7444 -1.10862 3.27997 76.7674
2742875 15.115 15.0108 25.0423 21.7542 -1.10251 3.25079 76.9223
2742885 15.115 15.0108 25.0423 21.7542 -1.10251 3.25079 76.9223
2742893 15.0886 14.9924 25.0029 21.7054 -1.10485 3.24797 76.7894
2742906 15.0358 15.0293 25.1112 21.7542 -1.09304 3.27575 76.9303
2742923 15.0358 15.0385 25.2096 21.8418 -1.09077 3.30187 77.1257
2742932 15.0358 15.0385 25.2096 21.8418 -1.09077 3.30187 77.1257
2742942 15.0181 15.0108 25.1407 21.8418 -1.07327 3.30215 77.0115
2742971 14.9653 15.0477 25.1604 21.8613 -1.04391 3.3119 77.0347
2742973 14.9653 15.0477 25.1604 21.8613 -1.04391 3.3119 77.0347
2742976 14.9829 15.0385 25.0915 21.8223 -1.04425 3.29351 76.9352
2742984 14.9565 15.0753 25.121 21.7444 -1.05914 3.28367 76.8972
2742994 14.9565 15.0753 25.121 21.7444 -1.05914 3.28367 76.8972
2743004 15.0534 15.0293 25.1702 21.7931 -1.10364 3.28649 77.046
2743014 15.0534 15.0293 25.1702 21.7931 -1.10364 3.28649 77.046
2743024 14.9124 15.0108 25.2096 21.8126 -1.07173 3.33332 76.9455
2743034 14.9301 15.0108 25.1899 21.8711 -1.0513 3.335 77.0019
2743054 14.8596 14.9556 25.2588 21.9198 -1.05303 3.38276 76.9938
2743064 14.842 14.8819 25.3474 22.0075 -1.07034 3.4311 77.0788
2743074 14.842 14.8819 25.3474 22.0075 -1.07034 3.4311 77.0788
2743084 14.7627 14.8911 25.377 21.9977 -1.05507 3.45084 77.0285
2743094 14.7627 14.8911 25.377 21.9977 -1.05507 3.45084 77.0285
2743104 14.7451 14.8451 25.3573 22.0756 -1.03269 3.47482 77.0231
2743114 14.6922 14.8174 25.5148 22.0269 -1.09103 3.51039 77.0514
2743124 14.6922 14.8174 25.5148 22.0269 -1.09103 3.51039 77.0514
2743134 14.6482 14.753 25.5148 22.1341 -1.06291 3.55244 77.05
2743144 14.5777 14.6701 25.4951 22.2315 -1.02995 3.60096 76.9744
2743165 14.5865 14.6885 25.5837 22.2607 -1.04414 3.61181 77.1195
2743175 14.5865 14.6885 25.5837 22.2607 -1.04414 3.61181 77.1195
2743185 14.4808 14.6056 25.5935 22.3192 -1.02258 3.66749 76.9992
2743196 14.3751 14.5043 25.7116 22.4361 -1.02118 3.75224 77.0272
2743205 14.3751 14.5043 25.7116 22.4361 -1.02118 3.75224 77.0272
2743216 14.3663 14.4399 25.7609 22.4751 -1.04236 3.78294 77.0421
2743225 14.287 14.4215 25.8298 22.4556 -1.05196 3.81398 76.9939
2743235 14.287 14.4215 25.8298 22.4556 -1.05196 3.81398 76.9939
2743245 14.4016 14.5412 25.7412 22.3777 -1.04588 3.73262 77.0615
2743255 14.4016 14.5412 25.7412 22.3777 -1.04588 3.73262 77.0615
2743266 14.3135 14.5872 25.7609 22.3484 -1.01892 3.74145 77.01
2743276 14.3663 14.5872 25.7412 22.3095 -1.04242 3.72001 77.0042
2743286 14.3663 14.5872 25.7412 22.3095 -1.04242 3.72001 77.0042
2743297 14.428 14.6701 25.751 22.2705 -1.0498 3.68067 77.1196
2743306 14.4368 14.6517 25.6723 22.251 -1.04087 3.66856 77.0117
2743326 14.4544 14.6609 25.6624 22.2802 -1.0303 3.66491 77.0579
2743338 14.4544 14.6609 25.6624 22.2802 -1.0303 3.66491 77.0579
2743348 14.4544 14.6425 25.6624 22.2023 -1.06289 3.6579 76.9616
2743361 14.4456 14.6701 25.6624 22.29 -1.02116 3.66625 77.0681
2743369 14.4456 14.6701 25.6624 22.29 -1.02116 3.66625 77.0681
2743385 14.5337 14.6885 25.623 22.3192 -1.02023 3.63899 77.1644
2743388 14.3751 14.6793 25.6329 22.3289 -0.973746 3.68248 77.0163
2743398 14.3751 14.6793 25.6329 22.3289 -0.973746 3.68248 77.0163
2743409 14.428 14.6701 25.623 22.4166 -0.96072 3.68333 77.1377
2743419 14.3311 14.6425 25.6526 22.4848 -0.926061 3.72784 77.1109
2743439 14.2959 14.5964 25.7805 22.5043 -0.963911 3.7691 77.1771
2743460 14.2166 14.5228 25.8396 22.514 -0.97914 3.81636 77.093
2743476 14.1813 14.4675 25.9085 22.5822 -0.985269 3.85831 77.1396
2743480 14.1813 14.4675 25.9085 22.5822 -0.985269 3.85831 77.1396
2743490 14.1109 14.5043 25.8593 22.5822 -0.935546 3.85942 77.0567
2743500 14.1109 14.4491 25.8888 22.553 -0.973228 3.873 77.0018
2743511 14.1109 14.4491 25.8888 22.553 -0.973228 3.873 77.0018
2743521 14.0756 14.4307 25.9282 22.6212 -0.957742 3.90168 77.0557
2743531 14.0756 14.4307 25.9282 22.6212 -0.957742 3.90168 77.0557
2743544 14.0756 14.4307 25.9479 22.6115 -0.967167 3.90311 77.0657
2743552 14.0316 14.4951 25.9774 22.592 -0.947495 3.89955 77.0961
2743568 14.0316 14.4951 25.9774 22.592 -0.947495 3.89955 77.0961
2743575 13.9699 14.4307 26.0463 22.6017 -0.968182 3.94182 77.0486
2743585 13.9876 14.403 25.9971 22.6991 -0.934823 3.95119 77.0868
2743594 13.9876 14.403 25.9971 22.6991 -0.934823 3.95119 77.0868
2743611 13.9611 14.357 25.9873 22.7868 -0.909494 3.98016 77.0922
2743613 13.9611 14.357 25.9873 22.7868 -0.909494 3.98016 77.0922
2743623 13.9435 14.3754 25.9479 22.6991 -0.91497 3.96177 76.966
2743633 14.0668 14.4399 26.0266 22.7771 -0.93019 3.93808 77.3104
2743644 14.0668 14.4399 26.0266 22.7771 -0.93019 3.93808 77.3104
2743653 14.0228 14.3754 25.9971 22.7673 -0.932173 3.95909 77.1626
2743662 14.0316 14.3846 25.9873 22.7673 -0.928755 3.95325 77.1708
2743673 14.0316 14.3846 25.9873 22.7673 -0.928755 3.95325 77.1708
2743682 14.0316 14.3938 25.9577 22.7673 -0.916448 3.94676 77.1505
2743703 14.0052 14.3478 25.8987 22.6797 -0.934736 3.94352 76.9313
2743713 14.0492 14.4215 25.9577 22.6991 -0.935583 3.92587 77.1275
2743722 14.0492 14.4215 25.9577 22.6991 -0.935583 3.92587 77.1275
2743732 14.0933 14.3846 26.0168 22.7381 -0.966989 3.93816 77.2328
2743742 14.0668 14.2925 25.9873 22.7673 -0.97072 3.96723 77.114
2743754 14.0668 14.2925 25.9873 22.7673 -0.97072 3.96723 77.114
2743764 14.014 14.2741 25.9873 22.8063 -0.947319 3.99034 77.0817
2743774 14.014 14.2741 25.9873 22.8063 -0.947319 3.99034 77.0817
2743784 13.9347 14.2189 26.0857 22.855 -0.955501 4.04449 77.0943
2743806 13.9347 14.1912 26.1251 22.8842 -0.967236 4.06106 77.1353
2743809 13.9347 14.1912 26.1251 22.8842 -0.967236 4.06106 77.1353
2743814 13.9611 14.2281 26.1152 22.855 -0.969838 4.03989 77.1594
2743826 13.9259 14.2096 26.0857 22.8355 -0.962417 4.04617 77.0568
2743834 13.9259 14.2096 26.0857 22.8355 -0.962417 4.04617 77.0568
2743846 13.9788 14.1912 26.0562 22.8355 -0.975898 4.03347 77.0617
2743854 13.9788 14.1912 26.0562 22.8355 -0.975898 4.03347 77.0617
2743864 13.9788 14.2189 26.0365 22.7868 -0.976865 4.0169 77.0209
2743874 14.0756 14.2465 26.0365 22.7284 -1.01745 3.97786 77.087
2743894 14.1197 14.3386 25.938 22.7089 -0.976029 3.92749 77.1052
2743904 14.1197 14.3386 25.938 22.7089 -0.976029 3.92749 77.1052
2743914 14.1285 14.3386 25.9184 22.7186 -0.969359 3.9239 77.104
2743924 14.1373 14.403 25.9282 22.7186 -0.953478 3.90735 77.1872
2743934 14.1373 14.403 25.9282 22.7186 -0.953478 3.90735 77.1872
2743947 14.1725 14.3386 25.8691 22.7284 -0.964464 3.90742 77.1086
2743955 14.1637 14.357 25.9085 22.6699 -0.987476 3.90232 77.0991
2743964 14.1637 14.357 25.9085 22.6699 -0.987476 3.90232 77.0991
2743974 14.1461 14.3938 25.9282 22.6017 -0.998694 3.89062 77.0699
2743984 14.1461 14.3938 25.9282 22.6017 -0.998694 3.89062 77.0699
2743995 14.1637 14.2925 25.938 22.6212 -1.03487 3.91538 77.0155
2744005 14.1373 14.3109 26.0463 22.6407 -1.04751 3.9357 77.1353
2744015 14.1373 14.3109 26.0463 22.6407 -1.04751 3.9357 77.1353
2744025 14.1813 14.3017 25.8888 22.6504 -1.01205 3.90592 77.0223
2744035 14.2518 14.403 25.9085 22.6309 -1.01249 3.86388 77.1943
2744045 14.2518 14.403 25.9085 22.6309 -1.01249 3.86388 77.1943
2744055 14.287 14.3846 25.8593 22.6309 -1.01435 3.85266 77.1619
2744067 14.287 14.3846 25.8593 22.6309 -1.01435 3.85266 77.1619
2744075 14.2254 14.3662 25.8494 22.6017 -1.00818 3.8666 77.0428
2744086 14.2959 14.357 25.9184 22.7089 -1.01848 3.87701 77.2801
2744097 14.2959 14.357 25.9184 22.7089 -1.01848 3.87701 77.2801
2744105 14.2606 14.3754 25.879 22.6212 -1.01865 3.86281 77.1362
2744115 14.2342 14.357 25.9479 22.7089 -1.00851 3.89633 77.248
2744125 14.2342 14.357 25.9479 22.7089 -1.00851 3.89633 77.248
2744135 14.243 14.3662 25.9282 22.7089 -1.00203 3.8891 77.2463
2744145 14.243 14.3662 25.9282 22.7089 -1.00203 3.8891 77.2463
2744155 14.199 14.3294 25.8593 22.6017 -1.01546 3.88353 76.9893
2744167 14.199 14.3202 25.8298 22.6894 -0.979766 3.89418 77.0383
2744176 14.199 14.3202 25.8298 22.6894 -0.979766 3.89418 77.0383
2744189 14.243 14.3846 25.8987 22.6212 -1.01619 3.86771 77.1475
2744196 14.3487 14.4122 25.8002 22.5822 -1.02227 3.81527 77.1434
2744217 14.3487 14.4491 25.7018 22.5725 -0.982498 3.79058 77.0721
2744239 14.3487 14.4215 25.7609 22.6115 -0.997066 3.81155 77.1425
2744247 14.3223 14.4399 25.751 22.5822 -0.989419 3.80784 77.0954
2744260 14.3223 14.4399 25.751 22.5822 -0.989419 3.80784 77.0954
2744266 14.2959 14.3846 25.7904 22.6407 -0.992373 3.84196 77.1115
2744282 14.2959 14.4122 25.8002 22.7186 -0.959906 3.8479 77.227
2744288 14.2959 14.4122 25.8002 22.7186 -0.959906 3.8479 77.227
2744298 14.243 14.3294 25.8298 22.7673 -0.964136 3.89236 77.1695
2744308 14.243 14.3294 25.8298 22.7673 -0.964136 3.89236 77.1695
2744318 14.0845 14.3109 25.9676 22.816 -0.947486 3.96252 77.179
2744328 14.1197 14.2281 25.9774 22.8842 -0.966464 3.98538 77.2094
2744337 14.1197 14.2281 25.9774 22.8842 -0.966464 3.98538 77.2094
2744351 14.0492 14.2281 26.0168 22.855 -0.966616 4.00417 77.1491
2744358 14.0492 14.2189 25.9873 22.9037 -0.944121 4.00917 77.1591
2744369 14.0492 14.2189 25.9873 22.9037 -0.944121 4.00917 77.1591
2744379 14.0492 14.2189 26.0955 22.8648 -0.990944 4.01903 77.2284
2744400 14.0228 14.1268 26.0365 22.8355 -1.00524 4.03571 77.0216
2744410 14.0228 14.1176 26.0562 22.8648 -1.00461 4.04494 77.0613
2744422 14.0228 14.1176 26.0562 22.8648 -1.00461 4.04494 77.0613
2744430 13.8995 14.1083 26.0759 22.8842 -0.968829 4.08331 76.9679
2744439 13.9259 14.0347 26.2038 22.8648 -1.0484 4.11039 77.0292
2744449 13.9259 14.0347 26.2038 22.8648 -1.0484 4.11039 77.0292
2744459 13.8995 14.0255 26.2432 22.9232 -1.03579 4.13304 77.0913
2744469 13.8995 14.0255 26.2432 22.9232 -1.03579 4.13304 77.0913
2744479 13.8554 13.9426 26.2137 22.9232 -1.04092 4.16044 76.9349
2744489 13.8819 13.9886 26.2432 23.0401 -1.0033 4.16301 77.1538
2744499 13.8819 13.9886 26.2432 23.0401 -1.0033 4.16301 77.1538
2744509 14.0492 14.0623 26.194 22.9622 -1.04142 4.0854 77.2677
2744519 14.058 14.0991 26.0955 22.8648 -1.03403 4.04639 77.1175
2744540 14.1285 14.2465 26.066 22.8063 -1.01678 3.98021 77.2473
2744550 14.1285 14.2465 26.066 22.8063 -1.01678 3.98021 77.2473
2744560 14.1813 14.1912 25.9282 22.7868 -1.01557 3.95831 77.0876
2744570 14.2254 14.2833 25.8987 22.6894 -1.02188 3.90665 77.0968
2744580 14.2254 14.2833 25.8987 22.6894 -1.02188 3.90665 77.0968
2744590 14.287 14.3109 25.8396 22.553 -1.05945 3.85657 76.9906
2744600 14.2694 14.3109 25.8987 22.553 -1.07233 3.86942 77.0321
2744610 14.2694 14.3109 25.8987 22.553 -1.07233 3.86942 77.0321
2744624 14.3399 14.2925 25.8987 22.5725 -1.09384 3.8595 77.1036
2744641 14.3047 14.3109 25.9184 22.6407 -1.05974 3.87629 77.1747
2744650 14.2959 14.3109 25.8593 22.6309 -1.04195 3.86852 77.097
2744661 14.2959 14.3109 25.8593 22.6309 -1.04195 3.86852 77.097
2744671 14.3487 14.2925 25.8691 22.592 -1.08082 3.85589 77.1023
2744681 14.4104 14.3017 25.8396 22.5238 -1.11075 3.82442 77.0755
2744691 14.4104 14.3017 25.8396 22.5238 -1.11075 3.82442 77.0755
2744701 14.4632 14.3754 25.7609 22.5335 -1.07449 3.78355 77.133
2744711 14.4632 14.3754 25.7609 22.5335 -1.07449 3.78355 77.133
2744722 14.4984 14.3754 25.7609 22.4458 -1.11508 3.7622 77.0806
2744732 14.4808 14.4583 25.7412 22.3971 -1.09195 3.73634 77.0774
2744741 14.4808 14.4583 25.7412 22.3971 -1.09195 3.73634 77.0774
2744752 14.5513 14.4951 25.751 22.3679 -1.11426 3.70746 77.1653
2744761 14.5689 14.4675 25.6427 22.29 -1.12193 3.68257 76.9691
2744771 14.5689 14.4675 25.6427 22.29 -1.12193 3.68257 76.9691
2744781 14.613 14.532 25.564 22.2607 -1.09921 3.64036 76.9697
2744791 14.613 14.532 25.564 22.2607 -1.09921 3.64036 76.9697
2744801 14.5601 14.4951 25.5837 22.251 -1.10471 3.66357 76.8899
2744813 14.472 14.4675 25.6427 22.3874 -1.05882 3.72042 76.9696
2744821 14.472 14.4675 25.6427 22.3874 -1.05882 3.72042 76.9696
2744834 14.472 14.5504 25.6427 22.4556 -1.00777 3.71027 77.1207
2744843 14.4896 14.4859 25.6427 22.5043 -1.01856 3.72877 77.1226
2744856 14.4896 14.4859 25.6427 22.5043 -1.01856 3.72877 77.1226
2744862 14.4016 14.4859 25.7412 22.592 -0.992231 3.7773 77.2206
2744899 14.3839 14.4951 25.6624 22.553 -0.972256 3.76221 77.0945
2744901 14.2694 14.4675 25.7215 22.5822 -0.954424 3.8097 77.0406
2744903 14.2694 14.4675 25.7215 22.5822 -0.954424 3.8097 77.0406
2744913 14.2782 14.4859 25.6624 22.5822 -0.932527 3.79447 77.0088
2744922 14.2518 14.4122 25.7313 22.6602 -0.94436 3.84024 77.0556
2744944 14.1902 14.5412 25.751 22.6407 -0.89445 3.82383 77.123
2744952 14.1902 14.5412 25.751 22.6407 -0.89445 3.82383 77.123
2744963 14.2342 14.4583 25.751 22.6602 -0.929511 3.83614 77.1037
2744974 14.2342 14.5228 25.7313 22.6407 -0.908245 3.81473 77.129
2744983 14.2342 14.5228 25.7313 22.6407 -0.908245 3.81473 77.129
2744992 14.3047 14.5596 25.6329 22.6212 -0.893678 3.77145 77.1183
2745005 14.3047 14.5596 25.6329 22.6212 -0.893678 3.77145 77.1183
2745012 14.3927 14.6148 25.6034 22.4751 -0.942515 3.71095 77.086
2745028 14.4192 14.6425 25.5935 22.4848 -0.935118 3.69783 77.14
2745032 14.4192 14.6425 25.5935 22.4848 -0.935118 3.69783 77.14
2745042 14.4544 14.6425 25.5246 22.3484 -0.970548 3.65912 76.9699
2745053 14.4632 14.6885 25.5148 22.2607 -0.984283 3.63144 76.9272
2745063 14.4632 14.6885 25.5148 22.2607 -0.984283 3.63144 76.9272
2745073 14.4632 14.8082 25.4951 22.3095 -0.921363 3.60678 77.076
2745082 14.4632 14.8082 25.4951 22.3095 -0.921363 3.60678 77.076
2745092 14.4632 14.7161 25.4655 22.3192 -0.939862 3.62612 76.9641
2745105 14.4984 14.8174 25.4951 22.2802 -0.939099 3.59174 77.0912
2745124 14.4192 14.7898 25.5148 22.3387 -0.91012 3.62909 77.0624
2745134 14.4104 14.753 25.4951 22.4458 -0.877585 3.65303 77.1043
2745154 14.4192 14.8359 25.5837 22.4458 -0.880231 3.6439 77.2845
2745165 14.3223 14.8359 25.5148 22.4458 -0.828376 3.65718 77.1188
2745175 14.3223 14.7438 25.5148 22.4751 -0.849451 3.68378 77.0559
2745190 14.2959 14.7346 25.6526 22.5725 -0.854754 3.72685 77.2555
2745195 14.2959 14.7346 25.6526 22.5725 -0.854754 3.72685 77.2555
2745205 14.1902 14.6977 25.6821 22.6309 -0.82369 3.77428 77.2009
2745215 14.1637 14.6333 25.7116 22.6699 -0.833194 3.80635 77.1785
2745225 14.1637 14.6333 25.7116 22.6699 -0.833194 3.80635 77.1785
2745235 14.1109 14.5596 25.7313 22.7186 -0.831166 3.84713 77.1204
2745245 14.1109 14.5596 25.7313 22.7186 -0.831166 3.84713 77.1204
2745256 14.1021 14.4491 25.7805 22.7479 -0.871076 3.88766 77.0795
2745265 14.058 14.5228 25.8888 22.7673 -0.859942 3.89879 77.2369
2745285 13.9611 14.3754 25.8987 22.8355 -0.859232 3.96992 77.0707
2745298 13.8642 14.3202 25.9873 22.855 -0.868639 4.02287 77.0267
2745315 13.785 14.2096 26.0759 22.9037 -0.892334 4.08935 76.9742
2745335 13.6969 14.2465 26.1448 23.0499 -0.824924 4.13245 77.138
2745349 13.5824 14.2649 26.2826 22.9719 -0.852168 4.16473 77.1018
2745356 13.5824 14.2649 26.2826 22.9719 -0.852168 4.16473 77.1018
2745367 13.5824 14.3294 26.2826 23.0109 -0.81753 4.1542 77.2052
2745376 13.5472 14.3478 26.3515 22.9914 -0.828429 4.16531 77.2378
2745386 13.5472 14.3478 26.3515 22.9914 -0.828429 4.16531 77.2378
2745396 13.6352 14.3938 26.3219 22.9622 -0.841115 4.12383 77.3132
2745407 13.6352 14.3938 26.3219 22.9622 -0.841115 4.12383 77.3132
2745416 13.7585 14.4399 26.2432 22.8453 -0.878741 4.05438 77.2869
2745429 13.8642 14.4767 26.1448 22.7673 -0.894776 3.99424 77.2531
2745436 13.8642 14.4767 26.1448 22.7673 -0.894776 3.99424 77.2531
2745446 13.8907 14.5043 26.066 22.7186 -0.885507 3.96276 77.1796
2745456 13.9259 14.4859 26.0266 22.6212 -0.923122 3.93903 77.0597
2745478 13.9523 14.5412 26.0069 22.5628 -0.926305 3.90774 77.0632
2745487 13.9523 14.5412 26.0069 22.5628 -0.926305 3.90774 77.0632
2745497 13.9435 14.578 26.066 22.514 -0.945985 3.90235 77.1016
2745512 13.9171 14.4859 26.0562 22.5335 -0.959125 3.93284 76.9927
2745533 14.0052 14.532 26.1054 22.5238 -0.989689 3.90559 77.1663
2745537 14.0316 14.5412 26.1251 22.5238 -1.00093 3.8997 77.2216
2745548 14.0316 14.5412 26.1251 22.5238 -1.00093 3.8997 77.2216
2745558 14.0316 14.5688 26.1054 22.3874 -1.03148 3.87045 77.0932
2745573 14.0316 14.5688 26.1054 22.3874 -1.03148 3.87045 77.0932
2745578 14.1109 14.578 26.0857 22.3582 -1.05675 3.84175 77.1328
2745589 14.1197 14.6241 26.0759 22.3095 -1.05733 3.81988 77.1291
2745599 14.1197 14.6241 26.0759 22.3095 -1.05733 3.81988 77.1291
2745608 14.2254 14.6977 26.0463 22.2315 -1.0824 3.76059 77.201
2745617 14.2606 14.6701 25.9676 22.1049 -1.12113 3.72875 77.0032
2745627 14.2606 14.6701 25.9676 22.1049 -1.12113 3.72875 77.0032
2745639 14.2959 14.6793 25.9479 22.0562 -1.13936 3.70793 76.9792
2745660 14.287 14.6425 25.938 22.0269 -1.15603 3.71329 76.8945
2745670 14.287 14.5688 26.0463 22.0464 -1.208 3.74995 76.9486
2745684 14.287 14.5688 26.0463 22.0464 -1.208 3.74995 76.9486
2745691 14.2078 14.5504 26.0365 22.0269 -1.19333 3.7695 76.8216
2745699 14.2959 14.5688 26.1152 22.0367 -1.23532 3.75645 77.0166
2745719 14.3135 14.5688 26.1054 22.0464 -1.2344 3.75214 77.0341
2745730 14.3135 14.5688 26.1054 22.0464 -1.2344 3.75214 77.0341
2745744 14.243 14.5688 26.1644 22.0269 -1.23752 3.77509 77.0032
2745750 14.2959 14.6333 26.1743 22.0172 -1.23822 3.74654 77.1206
2745760 14.2959 14.6333 26.1743 22.0172 -1.23822 3.74654 77.1206
2745771 14.2606 14.578 26.1841 22.0172 -1.24921 3.77 77.04
2745780 14.2342 14.5872 26.2038 21.9685 -1.2606 3.76996 76.9937
2745800 14.243 14.6056 26.2235 22.0464 -1.23656 3.77755 77.1186
2745810 14.243 14.6056 26.2235 22.0464 -1.23656 3.77755 77.1186
2745820 14.2518 14.6148 26.253 22.0464 -1.24523 3.77746 77.1661
2745830 14.2518 14.532 26.3121 22.0951 -1.27503 3.81329 77.191
2745840 14.2518 14.532 26.3121 22.0951 -1.27503 3.81329 77.191
2745851 14.2782 14.5964 26.2727 21.9977 -1.28227 3.77129 77.1451
2745861 14.2342 14.5872 26.2334 21.9782 -1.26638 3.77569 77.033
2745872 14.2342 14.5872 26.2334 21.9782 -1.26638 3.77569 77.033
2745881 14.3223 14.6425 26.1644 21.9295 -1.27005 3.72363 77.0587
2745901 14.3839 14.5412 26.0857 21.9295 -1.29937 3.72174 76.9403
2745913 14.472 14.6701 26.1152 21.9198 -1.29487 3.67199 77.1771
2745922 14.472 14.6701 26.1152 21.9198 -1.29487 3.67199 77.1771
2745935 14.5249 14.6609 25.9971 21.8516 -1.30121 3.63401 77.0344
2745943 14.5249 14.6425 26.0069 21.8418 -1.31385 3.63848 77.0161
2745956 14.5249 14.6425 26.0069 21.8418 -1.31385 3.63848 77.0161
2745963 14.5337 14.7438 25.9282 21.7639 -1.28434 3.58869 76.9695
2745974 14.5337 14.7438 25.9282 21.7639 -1.28434 3.58869 76.9695
2745982 14.5073 14.6793 25.9479 21.8516 -1.27434 3.62655 76.986
2745995 14.5777 14.6977 26.0463 21.8321 -1.32664 3.61673 77.1539
2746004 14.5777 14.6977 26.0463 21.8321 -1.32664 3.61673 77.1539
2746013 14.5601 14.7069 25.9577 21.8029 -1.30084 3.60135 77.0276
2746023 14.5073 14.6609 25.9282 21.7931 -1.29454 3.61945 76.8895
2746034 14.5073 14.6609 25.9282 21.7931 -1.29454 3.61945 76.8895
2746044 14.5249 14.6793 25.9479 21.8418 -1.28309 3.62085 76.9939
2746054 14.5601 14.6885 25.9676 21.8613 -1.29021 3.61589 77.0775
2746064 14.5601 14.6885 25.9676 21.8613 -1.29021 3.61589 77.0775
2746074 14.4632 14.6793 26.0463 21.9393 -1.26121 3.66463 77.1281
2746084 14.4632 14.6793 26.0463 21.9393 -1.26121 3.66463 77.1281
2746094 14.4192 14.6425 26.1251 21.949 -1.28111 3.6972 77.1357
2746104 14.3311 14.6701 26.0955 21.988 -1.22222 3.71325 77.0847
2746114 14.3311 14.6701 26.0955 21.988 -1.22222 3.71325 77.0847
2746125 14.2694 14.7622 26.0562 22.0367 -1.14319 3.70723 77.1245
2746134 14.2694 14.7622 26.0562 22.0367 -1.14319 3.70723 77.1245
2746146 14.2342 14.7254 26.0955 22.0464 -1.15366 3.73191 77.1015
2746154 14.2782 14.753 26.1841 22.0367 -1.18855 3.72604 77.252
2746173 14.243 14.7622 26.0266 22.0269 -1.12918 3.70789 77.0588
2746184 14.3663 14.8174 25.9282 21.9782 -1.13466 3.643 77.0902
2746195 14.3663 14.8174 25.9282 21.9782 -1.13466 3.643 77.0902
2746208 14.4104 14.8267 25.8199 21.9782 -1.11164 3.61415 77.0352
2746215 14.4104 14.8267 25.8199 21.9782 -1.11164 3.61415 77.0352
2746225 14.4544 14.8819 25.7609 21.9198 -1.10806 3.57278 77.0169
2746235 14.428 14.8543 25.8002 21.9198 -1.12145 3.59166 77.0023
2746247 14.428 14.8543 25.8002 21.9198 -1.12145 3.59166 77.0023
2746255 14.472 14.8082 25.7018 21.8711 -1.13675 3.5703 76.8531
2746267 14.5073 14.8451 25.692 21.9198 -1.11557 3.55869 76.9641
2746275 14.5073 14.8451 25.692 21.9198 -1.11557 3.55869 76.9641
2746288 14.4896 14.8819 25.6723 21.8711 -1.10802 3.54387 76.9149
2746296 14.4896 14.8819 25.6723 21.8711 -1.10802 3.54387 76.9149
2746309 14.4896 14.8543 25.6329 21.8711 -1.10517 3.54467 76.8479
2746315 14.4984 14.8911 25.6329 21.9198 -1.07888 3.54092 76.9422
2746325 14.4984 14.8911 25.6329 21.9198 -1.07888 3.54092 76.9422
2746335 14.5073 14.9187 25.6132 21.988 -1.04306 3.53937 77.0272
2746345 14.5073 14.9095 25.6821 22.0756 -1.03797 3.56483 77.1745
2746356 14.5073 14.9095 25.6821 22.0756 -1.03797 3.56483 77.1745
2746365 14.4896 14.9648 25.6329 22.0172 -1.01828 3.5398 77.1045
2746375 14.4896 14.9648 25.6329 22.0172 -1.01828 3.5398 77.1045
2746385 14.4808 14.8727 25.6132 22.0562 -1.02735 3.56696 77.0229
2746397 14.4544 14.9187 25.5935 22.0367 -1.00401 3.55641 77.0033
2746405 14.4544 14.9187 25.5935 22.0367 -1.00401 3.55641 77.0033
2746416 14.4984 14.9003 25.5837 21.9003 -1.06705 3.52846 76.8827
2746426 14.4808 14.928 25.5738 22.0172 -1.00958 3.542 76.9998
2746436 14.4808 14.928 25.5738 22.0172 -1.00958 3.542 76.9998
2746446 14.4984 14.9003 25.5443 22.0756 -0.995462 3.54872 77.0187
2746460 14.4984 14.9003 25.5443 22.0756 -0.995462 3.54872 77.0187
2746467 14.4456 14.8451 25.5541 22.1146 -0.987551 3.58203 76.9594
2746479 14.428 14.8543 25.6329 22.1828 -0.980499 3.60582 77.098
2746486 14.428 14.8543 25.6329 22.1828 -0.980499 3.60582 77.098
2746499 14.4192 14.8267 25.6821 22.1828 -1.0024 3.62189 77.1107
2746506 14.3311 14.7806 25.692 22.3095 -0.950868 3.67442 77.1131
2746519 14.3311 14.7806 25.692 22.3095 -0.950868 3.67442 77.1131
2746528 14.3839 14.7898 25.7116 22.2218 -0.999902 3.6494 77.1072
2746541 14.3839 14.7898 25.7116 22.2218 -0.999902 3.6494 77.1072
2746548 14.3135 14.753 25.6723 22.251 -0.96823 3.6739 76.9897
2746558 14.3663 14.799 25.5738 22.2315 -0.945038 3.63255 76.9707
2746567 14.3663 14.799 25.5738 22.2315 -0.945038 3.63255 76.9707
2746581 14.3575 14.8543 25.5049 22.1828 -0.918519 3.60391 76.8995
2746589 14.4104 14.8727 25.5738 22.1438 -0.963514 3.59112 77.0007
2746599 14.4104 14.8727 25.5738 22.1438 -0.963514 3.59112 77.0007
2746609 14.4104 14.8911 25.5935 22.212 -0.940487 3.59969 77.107
2746619 14.4104 14.8911 25.5935 22.212 -0.940487 3.59969 77.107
2746629 14.4192 14.8635 25.5935 22.2315 -0.945978 3.6071 77.1077
2746639 14.5249 14.9003 25.4951 22.1731 -0.955516 3.54952 77.0933
2746649 14.5249 14.9003 25.4951 22.1731 -0.955516 3.54952 77.0933
2746659 14.5601 14.9095 25.4951 22.1633 -0.966679 3.53738 77.128
2746669 14.472 14.9464 25.377 22.1146 -0.906253 3.52487 76.91
2746680 14.472 14.9464 25.377 22.1146 -0.906253 3.52487 76.91
2746690 14.5425 15.0108 25.3966 22.1244 -0.909492 3.49682 77.0743
2746703 14.5425 15.0108 25.3966 22.1244 -0.909492 3.49682 77.0743
2746710 14.5073 15.0016 25.3179 22.1438 -0.87036 3.49864 76.9706
2746720 14.4984 14.974 25.308 22.1438 -0.8738 3.50594 76.9243
2746730 14.4984 14.974 25.308 22.1438 -0.8738 3.50594 76.9243
2746740 14.5337 15.0016 25.2588 22.1049 -0.873227 3.47763 76.899
2746750 14.613 15.0293 25.2588 22.1341 -0.878961 3.45636 77.0351
2746760 14.613 15.0293 25.2588 22.1341 -0.878961 3.45636 77.0351
2746770 14.6746 15.0385 25.1604 22.1438 -0.861074 3.42608 77.0173
2746780 14.6746 15.0385 25.1604 22.1438 -0.861074 3.42608 77.0173
2746795 14.6922 15.1121 25.1407 22.0269 -0.874949 3.38369 76.972
2746804 14.7363 15.0845 25.0915 22.1049 -0.856426 3.3841 77.0171
2746820 14.7275 15.1029 25.0915 22.0951 -0.850752 3.38034 77.017
2746832 14.7187 15.0569 25.0718 22.1341 -0.844188 3.39635 76.9814
2746840 14.7187 15.0569 25.0718 22.1341 -0.844188 3.39635 76.9814
2746852 14.6922 15.0385 25.1702 22.1731 -0.859869 3.42774 77.074
2746860 14.6922 15.0385 25.1702 22.1731 -0.859869 3.42774 77.074
2746873 14.5865 14.9832 25.1801 22.2023 -0.838543 3.47215 76.9521
2746880 14.5337 14.9372 25.2687 22.1926 -0.868508 3.50771 76.9321
2746893 14.5337 14.9372 25.2687 22.1926 -0.868508 3.50771 76.9321
2746900 14.5689 14.9556 25.2785 22.2705 -0.85028 3.50792 77.0735
2746913 14.4984 14.9372 25.2982 22.3192 -0.824203 3.53947 77.053
2746931 14.4632 14.9464 25.2391 22.3582 -0.778446 3.54275 77.0069
2746941 14.4632 14.9464 25.2391 22.3582 -0.778446 3.54275 77.0069
2746951 14.4632 14.9095 25.308 22.3679 -0.80917 3.56331 77.0487
2746961 14.472 14.8819 25.308 22.3874 -0.814663 3.57073 77.0494
2746971 14.472 14.8819 25.308 22.3874 -0.814663 3.57073 77.0494
2746982 14.4808 14.9464 25.3179 22.3874 -0.798936 3.55455 77.1325
2746991 14.4808 14.9464 25.3179 22.3874 -0.798936 3.55455 77.1325
2747001 14.4368 14.8911 25.2785 22.3192 -0.814095 3.5625 76.9256
2747011 14.4456 14.928 25.3179 22.3387 -0.810349 3.56024 77.0301
2747022 14.4456 14.928 25.3179 22.3387 -0.810349 3.56024 77.0301
2747031 14.4544 14.9372 25.2588 22.4069 -0.76865 3.55725 77.0573
2747042 14.5337 14.9003 25.2195 22.3874 -0.800036 3.53829 77.0408
2747051 14.5337 14.9003 25.2195 22.3874 -0.800036 3.53829 77.0408
2747063 14.5865 15.0385 25.1702 22.3582 -0.764754 3.48074 77.1534
2747084 14.5777 15.0385 25.1309 22.3387 -0.756121 3.47406 77.0857
2747092 14.6306 14.9832 25.1309 22.2802 -0.810778 3.46589 77.0249
2747111 14.6482 15.0293 25.0816 22.29 -0.782168 3.44472 77.0491
2747122 14.701 14.9648 25.1506 22.251 -0.855032 3.45199 77.0674
2747143 14.6834 15.0661 25.0521 22.1536 -0.817314 3.40254 76.9552
2747162 14.6394 15.0016 25.1013 22.0951 -0.860241 3.42713 76.8375
2747174 14.657 15.0937 25.062 22.0269 -0.845364 3.38462 76.8396
2747183 14.657 15.0937 25.062 22.0269 -0.845364 3.38462 76.8396
2747194 14.6482 15.0569 25.0816 22.0269 -0.861181 3.39852 76.8136
2747203 14.6482 15.0477 25.121 21.988 -0.889777 3.40079 76.8048
2747214 14.6482 15.0477 25.121 21.988 -0.889777 3.40079 76.8048
2747223 14.6746 15.0937 25.1604 22.0075 -0.888348 3.39233 76.9362
2747235 14.6746 15.0937 25.1604 22.0075 -0.888348 3.39233 76.9362
2747244 14.6394 15.0753 25.1309 22.0172 -0.870952 3.40218 76.8627
2747254 14.7451 15.1121 25.1309 21.9977 -0.898249 3.36517 76.9858
2747264 14.7451 15.1121 25.1309 21.9977 -0.898249 3.36517 76.9858
2747275 14.7098 15.0753 25.1407 22.0367 -0.88958 3.38975 76.9625
2747284 14.7627 15.1306 25.1506 22.0854 -0.874281 3.37279 77.1292
2747297 14.7627 15.1306 25.1506 22.0854 -0.874281 3.37279 77.1292
2747304 14.7627 15.1121 25.1604 22.0659 -0.890081 3.37572 77.1011
2747314 14.7627 15.1121 25.1604 22.0659 -0.890081 3.37572 77.1011
2747326 14.7363 15.1213 25.1407 22.0367 -0.882377 3.37245 77.035
2747334 14.6922 15.149 25.1013 21.9685 -0.869872 3.36011 76.911
2747344 14.6922 15.149 25.1013 21.9685 -0.869872 3.36011 76.911
2747354 14.7187 15.1029 25.1112 21.949 -0.903305 3.36333 76.8818
2747365 14.701 15.0477 25.1506 21.91 -0.941908 3.38082 76.8093
2747385 14.7539 15.0845 25.249 21.9685 -0.957063 3.38308 77.0559
2747395 14.7539 15.0845 25.249 21.9685 -0.957063 3.38308 77.0559
2747405 14.701 15.1582 25.1998 22.0367 -0.877464 3.38097 77.0957
2747415 14.7363 15.1398 25.1604 21.9782 -0.901997 3.3622 77.0146
2747426 14.7363 15.1398 25.1604 21.9782 -0.901997 3.3622 77.0146
2747435 14.7275 15.0937 25.2096 21.988 -0.926849 3.38419 77.0188
2747452 14.7803 15.1398 25.1112 21.9295 -0.91677 3.33688 76.9608
2747455 14.7803 15.1398 25.1112 21.9295 -0.91677 3.33688 76.9608
2747469 14.9389 15.1766 25.1407 21.8613 -0.986044 3.28458 77.1175
2747476 14.9389 15.1766 25.1407 21.8613 -0.986044 3.28458 77.1175
2747490 14.8332 15.1306 25.1309 21.8223 -0.97869 3.31322 76.9169
2747496 14.9036 15.2134 25.0718 21.9295 -0.918227 3.28409 77.1184
2747506 14.9036 15.2134 25.0718 21.9295 -0.918227 3.28409 77.1184
2747516 14.8948 15.2134 25.0324 21.8613 -0.92611 3.26982 77.002
2747526 14.9036 15.2411 25.0226 21.7834 -0.942735 3.24778 76.9507
2747537 14.9036 15.2411 25.0226 21.7834 -0.942735 3.24778 76.9507
2747546 14.9829 15.2226 24.9832 21.8223 -0.948276 3.2333 77.0111
2747566 14.9653 15.2042 24.8946 21.7542 -0.944281 3.21784 76.8183
2747578 15.0534 15.2779 24.934 21.7444 -0.962558 3.18411 77.0097
2747587 15.0534 15.2779 24.934 21.7444 -0.962558 3.18411 77.0097
2747597 15.071 15.2411 24.9241 21.7444 -0.977407 3.18713 76.9806
2747607 15.071 15.2503 24.8848 21.7542 -0.958718 3.18041 76.9602
2747619 15.071 15.2503 24.8848 21.7542 -0.958718 3.18041 76.9602
2747628 15.0622 15.2595 24.9635 21.8223 -0.954469 3.20284 77.1075
2747638 15.0622 15.2595 24.9635 21.8223 -0.954469 3.20284 77.1075
2747648 15.0534 15.1766 24.9241 21.6957 -1.01016 3.19907 76.8498
2747657 15.0181 15.195 24.9241 21.7834 -0.963292 3.2165 76.9207
2747668 15.0181 15.195 24.9241 21.7834 -0.963292 3.2165 76.9207
2747679 15.0269 15.2042 24.8454 21.7639 -0.944884 3.19717 76.8405
2747688 15.1326 15.2319 24.8356 21.7639 -0.965531 3.16414 76.9639
2747700 15.1326 15.2319 24.8356 21.7639 -0.965531 3.16414 76.9639
2747708 15.2119 15.2319 24.8257 21.7152 -1.00364 3.13643 76.9847
2747721 15.2119 15.2319 24.8257 21.7152 -1.00364 3.13643 76.9847
2747728 15.1943 15.2134 24.8651 21.6372 -1.043 3.13898 76.9101
2747742 15.2383 15.2411 24.8749 21.686 -1.03396 3.13112 77.0403
2747748 15.2383 15.2411 24.8749 21.686 -1.03396 3.13112 77.0403
2747757 15.2119 15.2134 24.8946 21.6957 -1.03791 3.14838 77.0157
2747768 15.1679 15.2134 24.9241 21.7542 -1.01364 3.17228 77.0596
2747778 15.1679 15.195 24.9241 21.7542 -1.01986 3.17663 77.0412
2747789 15.1679 15.1029 25.0324 21.7639 -1.08136 3.21645 77.0671
2747798 15.1679 15.1029 25.0324 21.7639 -1.08136 3.21645 77.0671
2747808 15.1062 15.1029 24.9931 21.7542 -1.05326 3.22353 76.9563
2747817 15.0269 15.0569 25.1013 21.7931 -1.06467 3.27572 76.9783
2747830 15.0269 15.0569 25.1013 21.7931 -1.06467 3.27572 76.9783
2747837 14.9917 15.0108 25.1899 21.8029 -1.09355 3.30999 76.9953
2747851 14.9917 15.0108 25.1899 21.8029 -1.09355 3.30999 76.9953
2747857 14.8948 14.9648 25.2195 21.8321 -1.07832 3.35295 76.9112
2747868 14.8596 14.9556 25.2391 21.9393 -1.04031 3.38273 76.9936
2747878 14.8596 14.9556 25.2391 21.9393 -1.04031 3.38273 76.9936
2747887 14.7627 14.8543 25.2588 21.9198 -1.05718 3.4302 76.7956
2747898 14.6746 14.9187 25.377 21.9587 -1.0315 3.45949 76.929
2747909 14.6746 14.9187 25.377 21.9587 -1.0315 3.45949 76.929
2747919 14.6834 14.928 25.4065 22.0367 -1.01398 3.47127 77.0545
2747929 14.6834 14.928 25.4065 22.0367 -1.01398 3.47127 77.0545
2747939 14.701 14.8451 25.4852 22.0464 -1.06866 3.50014 77.0778
2747951 14.6658 14.9464 25.4557 22.0367 -1.0176 3.47843 77.1046
2747959 14.6658 14.9464 25.4557 22.0367 -1.0176 3.47843 77.1046
2747969 14.6746 14.9095 25.4262 22.1341 -0.990722 3.49529 77.1444
2747980 14.7363 14.9003 25.4163 22.1438 -1.00666 3.48271 77.1968
2747989 14.7363 14.9003 25.4163 22.1438 -1.00666 3.48271 77.1968
2748002 14.7627 14.8819 25.4655 22.1049 -1.04949 3.48232 77.215
2748009 14.7627 14.8819 25.4655 22.1049 -1.04949 3.48232 77.215
2748019 14.7275 14.8819 25.436 22.0951 -1.03267 3.4849 77.1405
2748029 14.7715 14.9464 25.4065 21.9782 -1.05489 3.43701 77.1026
2748040 14.7715 14.9464 25.4065 21.9782 -1.05489 3.43701 77.1026
2748050 14.7187 14.928 25.3671 21.9295 -1.04892 3.44085 76.9432
2748061 14.7803 14.928 25.308 21.91 -1.05633 3.41427 76.9263
2748089 14.8155 14.9464 25.2884 21.8516 -1.07473 3.38965 76.9018
2748090 14.8155 14.9464 25.2884 21.8516 -1.07473 3.38965 76.9018
2748100 14.7891 14.9648 25.2982 21.8029 -1.07985 3.3857 76.855
2748110 14.7451 14.9095 25.2785 21.8808 -1.0523 3.41827 76.8139
2748120 14.7451 14.9095 25.2785 21.8808 -1.0523 3.41827 76.8139
2748131 14.7627 14.9372 25.2884 21.8905 -1.04819 3.41038 76.8788
2748140 14.7363 14.8819 25.3573 21.9977 -1.04384 3.45643 76.9731
2748153 14.7363 14.8819 25.3573 21.9977 -1.04384 3.45643 76.9731
2748161 14.6658 14.9003 25.3671 22.0854 -0.989112 3.48352 77.0186
2748170 14.6658 14.9003 25.3671 22.0854 -0.989112 3.48352 77.0186
2748180 14.613 14.8267 25.4557 22.1633 -0.998811 3.53875 77.0586
2748190 14.5777 14.8819 25.4557 22.2705 -0.933146 3.54986 77.1858
2748210 14.5161 14.8451 25.5049 22.3582 -0.912197 3.59381 77.2242
2748221 14.5689 14.8267 25.4065 22.2705 -0.933622 3.55796 77.0725
2748231 14.5689 14.8267 25.4065 22.2705 -0.933622 3.55796 77.0725
2748241 14.5513 14.8543 25.3868 22.3192 -0.896305 3.55986 77.1116
2748251 14.5513 14.8543 25.3868 22.3192 -0.896305 3.55986 77.1116
2748264 14.5073 14.8174 25.377 22.2802 -0.904933 3.5721 76.9819
2748271 14.4984 14.7161 25.4163 22.3777 -0.9158 3.61896 77.0086
2748282 14.4984 14.7161 25.4163 22.3777 -0.9158 3.61896 77.0086
2748291 14.3927 14.7069 25.4655 22.3582 -0.907783 3.65117 76.9234
2748315 14.4016 14.7161 25.4065 22.4848 -0.846358 3.65677 77.009
2748324 14.3751 14.7438 25.5148 22.5238 -0.84967 3.67813 77.1574
2748331 14.3751 14.7438 25.5148 22.5238 -0.84967 3.67813 77.1574
2748346 14.3927 14.7346 25.4459 22.4556 -0.859569 3.65593 77.0288
2748352 14.4368 14.753 25.4262 22.4848 -0.851214 3.64223 77.1008
2748363 14.4368 14.753 25.4262 22.4848 -0.851214 3.64223 77.1008
2748373 14.4808 14.8174 25.3671 22.3777 -0.860831 3.59147 77.043
2748383 14.5073 14.799 25.308 22.3679 -0.860061 3.57933 76.9822
2748402 14.6306 14.8082 25.3179 22.3679 -0.898649 3.54887 77.1246
2748413 14.6306 14.8082 25.3179 22.3679 -0.898649 3.54887 77.1246
2748423 14.5953 14.8451 25.2195 22.2802 -0.873892 3.52078 76.9401
2748434 14.6041 14.8727 25.2195 22.2997 -0.860821 3.51492 76.996
2748443 14.6041 14.8727 25.2195 22.2997 -0.860821 3.51492 76.996
2748456 14.5777 14.8635 25.1998 22.29 -0.852723 3.5191 76.9309
2748463 14.5865 14.8819 25.1998 22.3095 -0.842758 3.51546 76.9777
2748473 14.5865 14.8819 25.1998 22.3095 -0.842758 3.51546 76.9777
2748482 14.6218 14.9003 25.1899 22.3874 -0.818415 3.51272 77.0994
2748502 14.6482 14.8727 25.1702 22.3095 -0.855927 3.49844 77.0006
2748514 14.6041 14.9095 25.2391 22.3387 -0.841558 3.51481 77.0915
2748534 14.5865 14.8819 25.1407 22.3289 -0.817667 3.50955 76.9381
2748544 14.6041 14.8819 25.1801 22.3874 -0.815967 3.51991 77.0535
2748554 14.6041 14.8819 25.1801 22.3874 -0.815967 3.51991 77.0535
2748565 14.6394 14.928 25.1407 22.4361 -0.782961 3.50178 77.1441
2748574 14.6394 14.928 25.1407 22.4361 -0.782961 3.50178 77.1441
2748586 14.7187 14.8911 25.0324 22.3484 -0.815533 3.46232 76.9906
2748595 14.6834 14.8359 25.0226 22.4069 -0.800294 3.49132 76.9487
2748608 14.6834 14.8359 25.0226 22.4069 -0.800294 3.49132 76.9487
2748615 14.657 14.9095 24.9438 22.4166 -0.739232 3.46964 76.927
2748625 14.6834 14.8911 25.0324 22.4751 -0.762063 3.48972 77.082
2748635 14.6834 14.8911 25.0324 22.4751 -0.762063 3.48972 77.082
2748645 14.6482 14.8911 25.062 22.514 -0.747256 3.50839 77.1153
2748655 14.6482 14.8911 25.062 22.514 -0.747256 3.50839 77.1153
2748666 14.613 14.8174 25.062 22.5628 -0.744505 3.54181 77.0551
2748675 14.613 14.8082 25.1309 22.5433 -0.775766 3.55137 77.0953
2748685 14.613 14.8082 25.1309 22.5433 -0.775766 3.55137 77.0953
2748695 14.6218 14.799 25.0718 22.5433 -0.763042 3.54269 77.0359
2748705 14.5601 14.7898 25.1899 22.5628 -0.777361 3.58018 77.1026
2748715 14.5601 14.7898 25.1899 22.5628 -0.777361 3.58018 77.1026
2748739 14.5601 14.7254 25.1702 22.6309 -0.769928 3.60291 77.0866
2748740 14.5601 14.7254 25.1702 22.6309 -0.769928 3.60291 77.0866
2748747 14.4808 14.6977 25.1998 22.5725 -0.78309 3.62447 76.9508
2748760 14.4808 14.7346 25.2588 22.5725 -0.789329 3.62428 77.0467
2748766 14.4808 14.7346 25.2588 22.5725 -0.789329 3.62428 77.0467
2748776 14.4016 14.6977 25.2785 22.6309 -0.763355 3.6639 77.0087
2748786 14.4544 14.7714 25.2391 22.5822 -0.759247 3.6203 77.0472
2748797 14.4544 14.7714 25.2391 22.5822 -0.759247 3.6203 77.0472
2748807 14.4104 14.7346 25.2884 22.6115 -0.763419 3.65143 77.0447
2748816 14.4104 14.7346 25.2884 22.6115 -0.763419 3.65143 77.0447
2748827 14.4104 14.7346 25.249 22.7089 -0.718491 3.65997 77.1028
2748836 14.3487 14.6609 25.2982 22.6991 -0.742427 3.69858 77.0069
2748846 14.3487 14.6609 25.2982 22.6991 -0.742427 3.69858 77.0069
2748856 14.287 14.7069 25.3179 22.7576 -0.694312 3.71383 77.0695
2748869 14.2606 14.6793 25.3376 22.7673 -0.698151 3.73127 77.0448
2748876 14.2606 14.6793 25.3376 22.7673 -0.698151 3.73127 77.0448
2748890 14.2078 14.6333 25.4754 22.816 -0.724033 3.78253 77.1325
2748906 14.1725 14.6701 25.4557 22.8745 -0.674994 3.78778 77.1728
2748918 14.1637 14.6517 25.6034 22.8842 -0.721566 3.81722 77.303
2748938 14.1197 14.6701 25.5246 22.8355 -0.693025 3.805 77.1499
2748948 14.1197 14.6701 25.5443 22.8648 -0.689495 3.81209 77.1988
2748969 14.1373 14.6333 25.5443 22.7771 -0.736541 3.80406 77.0919
2748978 14.1373 14.6333 25.5443 22.7771 -0.736541 3.80406 77.0919
2748988 14.058 14.5964 25.5345 22.6699 -0.75663 3.81542 76.8588
2749001 14.1109 14.6517 25.5935 22.7284 -0.753832 3.80608 77.0844
2749009 14.1109 14.6517 25.5935 22.7284 -0.753832 3.80608 77.0844
2749022 14.1549 14.6148 25.5148 22.7186 -0.758484 3.79146 77.0032
2749029 14.1813 14.6148 25.5541 22.6212 -0.811808 3.77656 76.9715
2749039 14.1813 14.6148 25.5541 22.6212 -0.811808 3.77656 76.9715
2749049 14.1902 14.6148 25.564 22.6212 -0.817668 3.77584 76.9902
2749059 14.1902 14.6148 25.564 22.6212 -0.817668 3.77584 76.9902
2749071 14.1902 14.6333 25.5443 22.6407 -0.798777 3.77132 77.0084
2749079 14.1813 14.6793 25.6427 22.592 -0.827807 3.7695 77.0954
2749089 14.1813 14.6793 25.6427 22.592 -0.827807 3.7695 77.0954
2749099 14.1902 14.6977 25.6723 22.5335 -0.853239 3.75866 77.0937
2749111 14.2254 14.6977 25.6427 22.5822 -0.838698 3.75288 77.1481
2749120 14.2254 14.6977 25.6427 22.5822 -0.838698 3.75288 77.1481
2749131 14.2078 14.6793 25.6427 22.6017 -0.832824 3.76449 77.1315
2749140 14.2078 14.6793 25.6427 22.6017 -0.832824 3.76449 77.1315
2749154 14.1549 14.6241 25.6624 22.5822 -0.847484 3.79085 77.0236
2749160 14.1725 14.5872 25.7018 22.6115 -0.867897 3.80551 77.073
2749170 14.1725 14.5872 25.7018 22.6115 -0.867897 3.80551 77.073
2749181 14.2254 14.5964 25.8396 22.5628 -0.94071 3.80332 77.2242
2749190 14.1285 14.5964 25.8987 22.6602 -0.896232 3.84956 77.2838
2749201 14.1285 14.5964 25.8987 22.6602 -0.896232 3.84956 77.2838
2749211 14.1197 14.5412 25.7805 22.7089 -0.85877 3.85518 77.1503
2749230 14.014 14.4951 25.8396 22.6797 -0.869426 3.89664 77.0284
2749240 14.0404 14.5043 25.8987 22.6991 -0.886542 3.89922 77.1426
2749261 14.0756 14.532 25.8199 22.6699 -0.87347 3.86827 77.0974
2749270 14.1461 14.5412 25.8199 22.6115 -0.912036 3.84033 77.1187
2749284 14.1461 14.5412 25.8199 22.6115 -0.912036 3.84033 77.1187
2749291 14.1902 14.6701 25.692 22.5822 -0.852333 3.77534 77.1344
2749311 14.2254 14.6333 25.6329 22.5043 -0.883397 3.75576 76.9958
2749333 14.2518 14.7069 25.623 22.5043 -0.863846 3.72997 77.0861
2749340 14.2518 14.7069 25.623 22.5043 -0.863846 3.72997 77.0861
2749349 14.3311 14.6517 25.564 22.4458 -0.908384 3.70693 76.9926
2749358 14.3311 14.7254 25.5738 22.4264 -0.893238 3.68763 77.0566
2749375 14.3487 14.7346 25.5246 22.4946 -0.857365 3.68391 77.1024
2749383 14.3487 14.7346 25.5246 22.4946 -0.857365 3.68391 77.1024
2749393 14.3575 14.7254 25.5148 22.4361 -0.879753 3.67398 77.0337
2749403 14.3751 14.7806 25.5049 22.5043 -0.840779 3.66491 77.165
2749423 14.4016 14.8082 25.4754 22.3484 -0.882824 3.62453 77.0336
2749432 14.4456 14.799 25.4655 22.3777 -0.886802 3.61897 77.0878
2749443 14.4456 14.799 25.4655 22.3777 -0.886802 3.61897 77.0878
2749453 14.3575 14.8082 25.4754 22.4361 -0.8396 3.64811 77.0772
2749463 14.3575 14.8082 25.4754 22.4361 -0.8396 3.64811 77.0772
2749473 14.3047 14.7622 25.4754 22.4264 -0.841741 3.67063 76.9686
2749483 14.287 14.753 25.5738 22.4069 -0.876719 3.68875 77.0207
2749494 14.287 14.753 25.5738 22.4069 -0.876719 3.68875 77.0207
2749504 14.3135 14.753 25.5246 22.3971 -0.87285 3.67367 76.9882
2749526 14.3487 14.7806 25.4754 22.3679 -0.869004 3.64688 76.9726
2749534 14.3751 14.8267 25.4951 22.4069 -0.854914 3.63799 77.1037
2749542 14.3751 14.8267 25.4951 22.4069 -0.854914 3.63799 77.1037
2749553 14.4808 14.8635 25.3277 22.3387 -0.846113 3.56874 77.0107
2749563 14.5337 14.8451 25.3376 22.251 -0.901416 3.54888 76.9673
2749582 14.5953 14.8819 25.2982 22.3289 -0.869827 3.53091 77.1044
2749604 14.5513 14.7898 25.3179 22.2802 -0.90953 3.55937 76.9392
2749614 14.5689 14.8543 25.3179 22.3874 -0.857377 3.55551 77.1285
2749624 14.5689 14.8543 25.3179 22.3874 -0.857377 3.55551 77.1285
2749638 14.5249 14.7898 25.3966 22.3874 -0.889866 3.59332 77.0987
2749644 14.472 14.7898 25.3868 22.3484 -0.883339 3.59885 76.9971
2749654 14.472 14.7898 25.3868 22.3484 -0.883339 3.59885 76.9971
2749664 14.4984 14.7346 25.377 22.3582 -0.903839 3.6058 76.9681
2749674 14.4984 14.7346 25.377 22.3582 -0.903839 3.6058 76.9681
2749685 14.4456 14.7622 25.4163 22.4069 -0.873955 3.62492 77.031
2749694 14.3927 14.7714 25.3573 22.4848 -0.809611 3.63826 77.0062
2749714 14.3663 14.6977 25.4163 22.5043 -0.838032 3.67409 76.9847
2749724 14.428 14.6885 25.3868 22.5433 -0.838129 3.66277 77.0466
2749735 14.428 14.6885 25.3868 22.5433 -0.838129 3.66277 77.0466
2749747 14.472 14.6793 25.4852 22.5822 -0.872751 3.67452 77.2188
2749755 14.472 14.6793 25.4852 22.5822 -0.872751 3.67452 77.2188
2749765 14.3575 14.6333 25.4951 22.6894 -0.819543 3.73054 77.1753
2749777 14.3751 14.6333 25.5345 22.7089 -0.830869 3.73486 77.2517
2749785 14.3751 14.6333 25.5345 22.7089 -0.830869 3.73486 77.2517
2749798 14.3135 14.6793 25.5935 22.7089 -0.814669 3.74725 77.2952
2749805 14.3311 14.6148 25.5049 22.6894 -0.820509 3.74287 77.1403
2749818 14.3311 14.6148 25.5049 22.6894 -0.820509 3.74287 77.1403
2749825 14.2959 14.6517 25.5541 22.6991 -0.80931 3.75108 77.2008
2749845 14.2694 14.6517 25.5345 22.592 -0.830728 3.73899 77.0475
2749856 14.2518 14.6241 25.5345 22.5433 -0.850819 3.74288 76.9536
2749865 14.2518 14.6241 25.5345 22.5433 -0.850819 3.74288 76.9536
2749879 14.2078 14.6148 25.6132 22.553 -0.861529 3.76878 76.9888
2749886 14.1813 14.5504 25.6821 22.6602 -0.860506 3.81657 77.074
2749896 14.1813 14.5504 25.6821 22.6602 -0.860506 3.81657 77.074
2749906 14.1109 14.4859 25.7215 22.7089 -0.856051 3.86232 77.0272
2749916 14.1109 14.4859 25.7215 22.7089 -0.856051 3.86232 77.0272
2749926 14.0756 14.4399 25.7904 22.6991 -0.885341 3.89079 77.0051
2749936 14.014 14.3754 25.8593 22.8745 -0.850387 3.95686 77.1232
2749946 14.014 14.3754 25.8593 22.8745 -0.850387 3.95686 77.1232
2749959 13.9523 14.4399 25.8888 22.933 -0.799185 3.96876 77.214
2749966 13.8995 14.357 25.938 22.9524 -0.819248 4.01196 77.1469
2749976 13.8995 14.357 25.938 22.9524 -0.819248 4.01196 77.1469
2749986 13.8642 14.2741 25.9971 23.0206 -0.831632 4.05918 77.1561
2750012 13.8466 14.2465 26.0365 23.0401 -0.841172 4.0787 77.1697
2750018 13.8466 14.2833 26.0365 22.9622 -0.854942 4.05856 77.1286
2750028 13.8466 14.2833 26.0365 22.9622 -0.854942 4.05856 77.1286
2750037 13.8466 14.2649 25.9577 22.9135 -0.852789 4.045 76.9827
2750050 13.9259 14.2833 25.9774 22.8842 -0.887418 4.0195 77.0709
2750058 13.9259 14.2833 25.9774 22.8842 -0.887418 4.0195 77.0709
2750068 13.9259 14.2925 25.938 22.9135 -0.862189 4.01578 77.0699
2750089 13.9171 14.3294 25.938 22.894 -0.85361 4.00609 77.0785
2750098 13.8907 14.3294 25.9774 23.0011 -0.821774 4.03346 77.1986
2750119 13.9876 14.3202 26.0562 23.0304 -0.869964 4.0272 77.3943
2750129 13.9699 14.3202 25.9971 22.9914 -0.859068 4.01762 77.2786
2750143 13.9699 14.3202 25.9971 22.9914 -0.859068 4.01762 77.2786
2750149 14.0228 14.3109 25.9774 22.9135 -0.898613 3.99299 77.2246
2750170 14.0404 14.2925 25.8987 22.8453 -0.908601 3.9722 77.0769
2750179 14.0492 14.3294 25.8593 22.8063 -0.89976 3.94975 77.0442
2750190 14.0492 14.3294 25.8593 22.8063 -0.89976 3.94975 77.0442
2750199 14.0933 14.2741 25.8593 22.8355 -0.922284 3.9567 77.0622
2750215 14.0845 14.3202 25.8396 22.7771 -0.917548 3.93633 77.0213
2750219 14.0845 14.3202 25.8396 22.7771 -0.917548 3.93633 77.0213
2750229 14.1197 14.3202 25.8298 22.8258 -0.909105 3.93325 77.0954
2750250 14.0933 14.2465 25.8888 22.7966 -0.953925 3.96214 77.0251
2750260 14.1021 14.3294 25.8494 22.7576 -0.929591 3.92835 77.0385
2750280 14.1549 14.3017 25.8593 22.7479 -0.961745 3.92217 77.0638
2750294 14.2078 14.3478 25.8494 22.7576 -0.956371 3.8979 77.1626
2750301 14.2078 14.3478 25.8494 22.7576 -0.956371 3.8979 77.1626
2750314 14.243 14.357 25.8002 22.7089 -0.965309 3.87291 77.1091
2750321 14.2694 14.3754 25.8101 22.6017 -1.00652 3.84788 77.0566
2750341 14.3663 14.4122 25.7805 22.6017 -1.01506 3.81094 77.1608
2750364 14.4456 14.4122 25.5935 22.5335 -1.00453 3.75448 76.9849
2750371 14.3927 14.4675 25.623 22.4556 -1.00493 3.74682 76.9389
2750391 14.4456 14.4583 25.7018 22.5433 -1.0194 3.76049 77.1489
2750403 14.3839 14.4767 25.6821 22.4458 -1.02077 3.75393 76.9886
2750413 14.3839 14.4767 25.6821 22.4458 -1.02077 3.75393 76.9886
2750423 14.3839 14.4399 25.7412 22.5628 -1.01212 3.78854 77.1277
2750433 14.3839 14.4399 25.7412 22.5628 -1.01212 3.78854 77.1277
2750443 14.3839 14.357 25.7609 22.5725 -1.04292 3.81303 77.0743
2750456 14.3839 14.3846 25.8396 22.5725 -1.05805 3.81771 77.1807
2750463 14.3839 14.3846 25.8396 22.5725 -1.05805 3.81771 77.1807
2750480 14.3575 14.4307 25.8396 22.5433 -1.04417 3.80869 77.1711
2750483 14.3223 14.4307 25.8199 22.514 -1.03698 3.81019 77.0869
2750493 14.3223 14.3938 25.8199 22.514 -1.04943 3.81918 77.0501
2750504 14.287 14.3754 25.8396 22.5725 -1.03106 3.84361 77.0746
2750513 14.287 14.3754 25.8396 22.5725 -1.03106 3.84361 77.0746
2750528 14.2782 14.3846 25.8494 22.6212 -1.01184 3.85198 77.1335
2750533 14.2518 14.3478 25.8396 22.5335 -1.04262 3.85335 76.9727
2750543 14.2518 14.3478 25.8396 22.5335 -1.04262 3.85335 76.9727
2750554 14.2166 14.3846 25.8199 22.6407 -0.976878 3.86561 77.0618
2750563 14.2166 14.3846 25.8199 22.6407 -0.976878 3.86561 77.0618
2750576 14.199 14.3294 25.8396 22.6894 -0.979728 3.89334 77.0573
2750583 14.2254 14.3938 25.938 22.7868 -0.964127 3.89926 77.3441
2750604 14.1813 14.3662 25.9184 22.8453 -0.933963 3.92235 77.3112
2750613 14.0933 14.3109 25.9184 22.8453 -0.925061 3.9575 77.1678
2750625 14.0933 14.3109 25.9184 22.8453 -0.925061 3.9575 77.1678
2750632 14.1813 14.3386 25.9282 22.8842 -0.933225 3.9361 77.3324
2750653 14.1813 14.3386 25.9282 22.8842 -0.933225 3.9361 77.3324
2750654 14.1461 14.3478 25.9184 22.8453 -0.929172 3.93549 77.2575
2750664 14.1813 14.3662 25.8101 22.7966 -0.916563 3.89981 77.1542
2750674 14.1813 14.3662 25.8101 22.7966 -0.916563 3.89981 77.1542
2750685 14.3047 14.4307 25.7116 22.6602 -0.948508 3.81998 77.1071
2750698 14.2694 14.4491 25.5935 22.553 -0.930481 3.79132 76.865
2750705 14.2694 14.4491 25.5935 22.553 -0.930481 3.79132 76.865
2750720 14.3399 14.5688 25.4163 22.5238 -0.86652 3.71471 76.8488
2750725 14.3399 14.5688 25.4163 22.5238 -0.86652 3.71471 76.8488
2750735 14.3575 14.5504 25.3966 22.5725 -0.85568 3.71917 76.877
2750746 14.4016 14.4951 25.4852 22.6309 -0.896187 3.74343 77.0129
2750755 14.4016 14.4951 25.4852 22.6309 -0.896187 3.74343 77.0129
2750769 14.3575 14.5043 25.4459 22.6212 -0.870229 3.74473 76.9289
2750775 14.3223 14.5504 25.5443 22.7186 -0.841883 3.77069 77.1356
2750796 14.3223 14.5412 25.5148 22.6797 -0.848787 3.76294 77.0579
2750806 14.2959 14.5043 25.4852 22.6991 -0.837055 3.7769 76.9846
2750817 14.2959 14.5043 25.4852 22.6991 -0.837055 3.7769 76.9846
2750826 14.3487 14.5596 25.5935 22.8063 -0.833137 3.78192 77.3081
2750842 14.3487 14.5596 25.5935 22.8063 -0.833137 3.78192 77.3081
2750846 14.287 14.4859 25.4065 22.6991 -0.815727 3.77205 76.8786
2750856 14.2782 14.5596 25.4557 22.9135 -0.732087 3.79461 77.207
2750866 14.2782 14.5596 25.4557 22.9135 -0.732087 3.79461 77.207
2750876 14.3047 14.5872 25.4557 22.8258 -0.76042 3.76871 77.1734
2750896 14.2694 14.4951 25.4163 22.8258 -0.767741 3.794 77.0067
2750906 14.2254 14.5135 25.4262 22.816 -0.75407 3.80027 76.9811
2750916 14.2254 14.5135 25.4262 22.816 -0.75407 3.80027 76.9811
2750926 14.287 14.578 25.4065 22.8063 -0.748992 3.76523 77.0778
2750937 14.3839 14.5688 25.3376 22.8063 -0.76087 3.73385 77.0966
2750946 14.3839 14.5688 25.3376 22.8063 -0.76087 3.73385 77.0966
2750958 14.4104 14.5596 25.3474 22.7576 -0.791633 3.72399 77.075
2750980 14.3311 14.6056 25.3277 22.816 -0.725587 3.73773 77.0805
2750988 14.4016 14.6977 25.2195 22.7771 -0.695956 3.67671 77.0958
2751002 14.4016 14.6977 25.2195 22.7771 -0.695956 3.67671 77.0958
2751007 14.3927 14.6425 25.2293 22.7771 -0.714712 3.69369 77.0416
2751017 14.4016 14.6241 25.1899 22.7966 -0.704715 3.6931 77.0121
2751038 14.472 14.7161 25.2391 22.7966 -0.711718 3.66096 77.2239
2751048 14.472 14.7161 25.2391 22.7966 -0.711718 3.66096 77.2239
2751059 14.4192 14.7069 25.1998 22.6991 -0.71823 3.65585 77.025
2751069 14.4456 14.6793 25.1998 22.7381 -0.722769 3.66188 77.0628
2751079 14.4456 14.6793 25.1998 22.7381 -0.722769 3.66188 77.0628
2751090 14.3927 14.6425 25.1801 22.816 -0.686185 3.69218 77.0313
2751100 14.4016 14.6609 25.2293 22.8453 -0.688608 3.69708 77.137
2751112 14.4016 14.6609 25.2293 22.8453 -0.688608 3.69708 77.137
2751119 14.3927 14.6793 25.2096 22.8258 -0.67998 3.68901 77.1075
2751129 14.3399 14.6517 25.1998 22.8063 -0.675893 3.70424 76.9977
2751139 14.3399 14.6517 25.1998 22.8063 -0.675893 3.70424 76.9977
2751149 14.3751 14.6148 25.2195 22.816 -0.702266 3.70894 77.0255
2751179 14.287 14.6517 25.2785 22.8063 -0.684071 3.72862 77.0235
2751180 14.3575 14.6701 25.3179 22.8063 -0.712557 3.71279 77.1518
2751189 14.3575 14.6701 25.3179 22.8063 -0.712557 3.71279 77.1518
2751200 14.3663 14.6701 25.2293 22.8258 -0.680922 3.70054 77.0915
2751210 14.3663 14.6701 25.2293 22.8258 -0.680922 3.70054 77.0915
2751220 14.3751 14.6425 25.2884 22.8258 -0.711522 3.71375 77.1318
2751230 14.4192 14.5964 25.249 22.7673 -0.747868 3.69991 77.0319
2751240 14.4192 14.5964 25.249 22.7673 -0.747868 3.69991 77.0319
2751250 14.3135 14.6517 25.2884 22.7966 -0.698762 3.72221 77.0501
2751261 14.3047 14.6148 25.2588 22.8453 -0.682706 3.73611 77.0236
2751271 14.3047 14.6148 25.2588 22.8453 -0.682706 3.73611 77.0236
2751280 14.2959 14.6701 25.3179 22.8648 -0.673667 3.7363 77.1486
2751300 14.2959 14.6701 25.3179 22.8648 -0.673667 3.7363 77.1486
2751306 14.2694 14.5504 25.3277 22.8063 -0.727867 3.76477 76.9538
2751310 14.2782 14.5504 25.3868 22.9232 -0.710231 3.78826 77.1386
2751331 14.3223 14.5504 25.3573 22.855 -0.737548 3.76331 77.0849
2751340 14.3047 14.5504 25.3671 22.7868 -0.757892 3.75909 77.009
2751350 14.3047 14.5504 25.3671 22.7868 -0.757892 3.75909 77.009
2751361 14.287 14.532 25.4754 22.7868 -0.792561 3.78365 77.0812
2751372 14.287 14.532 25.4754 22.7868 -0.792561 3.78365 77.0812
2751381 14.2606 14.5135 25.4065 22.7381 -0.785068 3.77745 76.9188
2751395 14.3047 14.6241 25.436 22.7966 -0.751692 3.75263 77.1613
2751401 14.3047 14.6241 25.436 22.7966 -0.751692 3.75263 77.1613
2751416 14.2782 14.5964 25.4163 22.6699 -0.788787 3.74442 76.9609
2751421 14.2694 14.6517 25.4655 22.6504 -0.789513 3.73746 77.0371
2751431 14.2694 14.6517 25.4655 22.6504 -0.789513 3.73746 77.0371
2751441 14.3223 14.6241 25.5246 22.6699 -0.827356 3.7428 77.1409
2751451 14.3223 14.6241 25.5246 22.6699 -0.827356 3.7428 77.1409
2751462 14.2606 14.5688 25.4754 22.6894 -0.804548 3.76691 76.9942
2751471 14.3311 14.6793 25.4951 22.7576 -0.773095 3.73573 77.2631
2751481 14.3311 14.6793 25.4951 22.7576 -0.773095 3.73573 77.2631
2751491 14.4016 14.7161 25.436 22.6309 -0.806662 3.68259 77.1847
2751504 14.4104 14.753 25.3966 22.6309 -0.784767 3.66576 77.1909
2751521 14.428 14.7714 25.4262 22.5433 -0.822707 3.64851 77.1688
2751532 14.428 14.7714 25.4262 22.5433 -0.822707 3.64851 77.1688
2751541 14.4456 14.7346 25.3966 22.5335 -0.834568 3.64737 77.1103
2751551 14.5337 14.7346 25.3671 22.4458 -0.882313 3.6088 77.0812
2751571 14.5689 14.7806 25.308 22.3971 -0.875747 3.57324 77.0547
2751583 14.6218 14.8543 25.2588 22.3095 -0.88159 3.52244 77.0443
2751603 14.613 14.8082 25.2391 22.212 -0.920953 3.51817 76.8724
2751622 14.6394 14.8911 25.2195 22.212 -0.895144 3.48893 76.962
2751637 14.6746 14.9003 25.2195 22.1536 -0.922754 3.46951 76.948
2751653 14.701 14.9187 25.1899 22.1341 -0.92214 3.4514 76.9438
2751662 14.7363 14.8543 25.1998 22.1244 -0.961262 3.45842 76.9147
2751684 14.7715 14.9464 25.1604 22.0367 -0.958475 3.4088 76.9149
2751704 14.8067 14.9556 25.121 22.0562 -0.947502 3.39517 76.9395
2751716 14.8332 15.0385 25.062 22.0075 -0.925773 3.35279 76.941
2751727 14.8332 15.0385 25.062 22.0075 -0.925773 3.35279 76.941
2751735 14.9301 15.1213 25.0718 21.9393 -0.954178 3.30115 77.0625
2751747 15.0005 15.1674 24.9931 21.8613 -0.962338 3.24967 77.0223
2751755 15.0005 15.1674 24.9931 21.8613 -0.962338 3.24967 77.0223
2751768 15.0181 15.195 24.8552 21.7542 -0.951609 3.20145 76.8225
2751790 15.0534 15.1766 24.7765 21.7639 -0.940911 3.18686 76.7704
2751795 15.071 15.1858 24.8749 21.7639 -0.974116 3.19564 76.8956
2751805 15.071 15.1858 24.8749 21.7639 -0.974116 3.19564 76.8956
2751815 15.1326 15.1766 24.8552 21.7736 -0.987044 3.18171 76.9381
2751825 15.1679 15.1121 24.8356 21.8321 -0.993924 3.19457 76.9477
2751835 15.1679 15.1121 24.8356 21.8321 -0.993924 3.19457 76.9477
2751845 15.1062 15.1306 24.8651 21.8516 -0.971098 3.21231 76.9534
2751856 15.1062 15.1306 24.8651 21.8516 -0.971098 3.21231 76.9534
2751865 15.1591 15.1306 24.7666 21.8418 -0.960144 3.18321 76.8981
2751877 15.2736 15.2226 24.7273 21.7249 -0.991988 3.11039 76.9484
2751885 15.2736 15.2226 24.7273 21.7249 -0.991988 3.11039 76.9484
2751898 15.3528 15.1766 24.6485 21.647 -1.0341 3.07831 76.825
2751905 15.3617 15.1766 24.5698 21.647 -1.01226 3.064 76.755
2751915 15.3617 15.2411 24.5698 21.5496 -1.02343 3.03367 76.7221
2751931 15.4233 15.37 24.5304 21.608 -0.966994 2.99196 76.9317
2751936 15.4233 15.37 24.5304 21.608 -0.966994 2.99196 76.9317
2751947 15.4497 15.3055 24.5107 21.5301 -1.01725 2.98561 76.7961
2751957 15.4409 15.3608 24.5009 21.5788 -0.976253 2.98082 76.8814
2751976 15.4321 15.3976 24.5009 21.5106 -0.984098 2.96359 76.8412
2751988 15.485 15.416 24.4713 21.5301 -0.978576 2.94537 76.9024
2751996 15.485 15.416 24.4713 21.5301 -0.978576 2.94537 76.9024
2752009 15.4938 15.4621 24.5009 21.5691 -0.961858 2.94331 77.0258
2752030 15.4321 15.3792 24.4812 21.5496 -0.970997 2.97092 76.8421
2752036 15.4233 15.416 24.491 21.5691 -0.9523 2.96896 76.8994
2752046 15.4233 15.416 24.491 21.5691 -0.9523 2.96896 76.8994
2752056 15.4674 15.4068 24.4713 21.6567 -0.933459 2.97145 77.0023
2752066 15.4938 15.4068 24.3335 21.5788 -0.924872 2.93148 76.8129
2752076 15.4938 15.4068 24.3335 21.5788 -0.924872 2.93148 76.8129
2752086 15.485 15.4713 24.3827 21.5691 -0.919077 2.9247 76.9081
2752098 15.485 15.4713 24.3827 21.5691 -0.919077 2.9247 76.9081
2752107 15.5026 15.4437 24.3138 21.5203 -0.928763 2.90854 76.7804
2752120 15.5114 15.5173 24.3138 21.5983 -0.880425 2.90159 76.9409
2752128 15.5114 15.5173 24.3138 21.5983 -0.880425 2.90159 76.9409
2752138 15.4497 15.5634 24.3532 21.5398 -0.87761 2.90222 76.9062
2752148 15.4057 15.4805 24.304 21.6178 -0.849989 2.93633 76.808
2752159 15.4057 15.4805 24.304 21.6178 -0.849989 2.93633 76.808
2752168 15.4321 15.4437 24.3827 21.6957 -0.869188 2.96332 76.9542
2752179 15.4321 15.4437 24.3827 21.6957 -0.869188 2.96332 76.9542
2752189 15.3705 15.4437 24.3532 21.6567 -0.853668 2.967 76.8241
2752211 15.344 15.4805 24.3335 21.7152 -0.807133 2.97064 76.8733
2752212 15.344 15.4805 24.3335 21.7152 -0.807133 2.97064 76.8733
2752219 15.2912 15.4897 24.3335 21.7931 -0.761268 2.99303 76.9075
2752231 15.3793 15.4621 24.2843 21.6665 -0.825289 2.95136 76.7921
2752239 15.3793 15.4621 24.2843 21.6665 -0.825289 2.95136 76.7921
2752253 15.4233 15.4989 24.2056 21.6762 -0.798702 2.92163 76.804
2752261 15.4233 15.4989 24.2056 21.6762 -0.798702 2.92163 76.804
2752269 15.4321 15.4989 24.2646 21.6665 -0.823343 2.92733 76.8621
2752280 15.4233 15.5265 24.2548 21.7444 -0.782058 2.93363 76.9491
2752290 15.4233 15.5265 24.2548 21.7444 -0.782058 2.93363 76.9491
2752300 15.4762 15.5358 24.176 21.686 -0.790411 2.89762 76.8739
2752310 15.5026 15.5542 24.1268 21.7542 -0.754206 2.89017 76.9377
2752320 15.5026 15.5542 24.1268 21.7542 -0.754206 2.89017 76.9377
2752330 15.5114 15.4989 24.117 21.6762 -0.798541 2.88715 76.8035
2752341 15.5114 15.4989 24.117 21.6762 -0.798541 2.88715 76.8035
2752350 15.5642 15.5173 23.989 21.686 -0.765394 2.85188 76.7565
2752364 15.5466 15.4989 24.0677 21.6665 -0.797407 2.86964 76.7798
2752370 15.5466 15.4989 24.0677 21.6665 -0.797407 2.86964 76.7798
2752380 15.5819 15.5081 23.9398 21.686 -0.758502 2.84213 76.7157
2752390 15.6435 15.6002 23.9595 21.7054 -0.746773 2.81265 76.9087
2752400 15.6435 15.6002 23.9595 21.7054 -0.746773 2.81265 76.9087
2752411 15.6699 15.6555 23.861 21.6665 -0.718592 2.77193 76.8529
2752421 15.6699 15.6555 23.861 21.6665 -0.718592 2.77193 76.8529
2752433 15.7404 15.6463 23.7921 21.7347 -0.699361 2.75767 76.9135
2752441 15.7845 15.7015 23.8217 21.6372 -0.736678 2.72395 76.9449
2752461 15.8197 15.7476 23.7528 21.5788 -0.730206 2.68489 76.8988
2752471 15.8285 15.7844 23.6937 21.5496 -0.71179 2.66023 76.8562
2752481 15.8285 15.7844 23.6937 21.5496 -0.71179 2.66023 76.8562
2752491 15.8549 15.812 23.6543 21.4619 -0.727803 2.62738 76.7832
2752502 15.8549 15.812 23.6543 21.4619 -0.727803 2.62738 76.7832
2752513 15.8461 15.7476 23.5854 21.4034 -0.744464 2.62367 76.5825
2752524 15.8373 15.8304 23.5362 21.4034 -0.698239 2.59868 76.6074
2752533 15.8373 15.8304 23.5362 21.4034 -0.698239 2.59868 76.6074
2752545 15.7933 15.8028 23.5362 21.384 -0.700073 2.61201 76.5162
2752553 15.8197 15.8304 23.5953 21.4327 -0.701581 2.617 76.678
2752562 15.8197 15.8304 23.5953 21.4327 -0.701581 2.617 76.678
2752572 15.8725 15.9133 23.6838 21.4521 -0.712056 2.60332 76.9219
2752589 15.8725 15.9133 23.6838 21.4521 -0.712056 2.60332 76.9219
2752592 15.8725 15.8304 23.6445 21.4814 -0.717564 2.62067 76.8288
2752603 15.8021 15.8397 23.6642 21.5788 -0.665861 2.65356 76.8847
2752614 15.8021 15.8397 23.6642 21.5788 -0.665861 2.65356 76.8847
2752623 15.6964 15.7936 23.7626 21.5593 -0.685456 2.70113 76.8119
2752635 15.6259 15.7752 23.8315 21.7444 -0.629346 2.76215 76.977
2752643 15.6259 15.7752 23.8315 21.7444 -0.629346 2.76215 76.977
2752658 15.5731 15.6923 23.861 21.8029 -0.630096 2.80749 76.9293
2752663 15.5731 15.6923 23.861 21.8029 -0.630096 2.80749 76.9293
2752679 15.4762 15.5726 23.9398 21.8516 -0.648029 2.87791 76.8401
2752683 15.344 15.5173 24.0382 21.988 -0.610293 2.9585 76.8876
2752694 15.344 15.5173 24.0382 21.988 -0.610293 2.9585 76.8876
2752704 15.3088 15.4621 24.1563 22.0075 -0.648479 3.00116 76.9347
2752714 15.1855 15.3424 24.1957 22.1438 -0.616325 3.08552 76.8674
2752724 15.1855 15.3424 24.1957 22.1438 -0.616325 3.08552 76.8674
2752734 15.115 15.3332 24.3631 22.1633 -0.643592 3.13315 76.9746
2752754 15.0446 15.3424 24.3532 22.2413 -0.589153 3.15808 76.9814
2752764 15.0358 15.3332 24.3631 22.1926 -0.608748 3.15635 76.9245
2752775 15.0358 15.3332 24.3631 22.1926 -0.608748 3.15635 76.9245
2752788 15.0534 15.3884 24.4221 22.2413 -0.598474 3.15574 77.1052
2752795 15.1062 15.37 24.4123 22.2218 -0.624666 3.14313 77.1103
2752810 15.1062 15.37 24.4123 22.2218 -0.624666 3.14313 77.1103
2752815 15.1062 15.4529 24.4024 22.1438 -0.619912 3.11013 77.1054
2752825 15.1062 15.4529 24.4024 22.1438 -0.619912 3.11013 77.1054
2752835 15.0181 15.3792 24.2548 22.1244 -0.576137 3.1224 76.7765
2752845 15.1326 15.4621 24.2449 21.9782 -0.630476 3.05172 76.8179
2752856 15.1326 15.4621 24.2449 21.9782 -0.630476 3.05172 76.8179
2752865 15.2383 15.4805 24.0776 21.949 -0.61451 2.99192 76.7454
2752876 15.2383 15.4713 24.0481 21.9003 -0.62447 2.98183 76.658
2752899 15.3176 15.5634 24.0382 21.9295 -0.606041 2.94476 76.8487
2752906 15.3176 15.5634 24.0382 21.9295 -0.606041 2.94476 76.8487
2752919 15.3264 15.5634 24.0481 21.8711 -0.631453 2.93507 76.8089
2752926 15.4321 15.591 24.0382 21.9295 -0.633134 2.91163 76.9909
2752936 15.4321 15.591 24.0382 21.9295 -0.633134 2.91163 76.9909
2752946 15.5114 15.6094 23.9693 21.8808 -0.646503 2.87043 76.9709
2752956 15.5995 15.6278 23.8512 21.8613 -0.637352 2.82399 76.9398
2752967 15.5995 15.6278 23.8512 21.8613 -0.637352 2.82399 76.9398
2752976 15.6611 15.6186 23.7528 21.7542 -0.664538 2.77922 76.7867
2752986 15.6611 15.6186 23.7528 21.7542 -0.664538 2.77922 76.7867
2752997 15.7404 15.6186 23.6937 21.6665 -0.700279 2.73747 76.7192
2753008 15.8197 15.591 23.6642 21.7542 -0.695924 2.73483 76.829
2753017 15.8197 15.591 23.6642 21.7542 -0.695924 2.73483 76.829
2753028 15.7668 15.5726 23.6248 21.7152 -0.685923 2.73878 76.6794
2753037 15.8197 15.6371 23.5953 21.7542 -0.658715 2.71319 76.8062
2753057 15.7933 15.6002 23.6445 21.7639 -0.674991 2.73722 76.8018
2753068 15.7933 15.6002 23.6445 21.7639 -0.674991 2.73722 76.8018
2753078 15.7492 15.6002 23.6445 21.7639 -0.661036 2.74739 76.7578
2753087 15.7316 15.5634 23.674 21.8418 -0.651079 2.77712 76.8108
2753098 15.7316 15.5634 23.674 21.8418 -0.651079 2.77712 76.8108
2753109 15.7228 15.6002 23.7232 21.8223 -0.658089 2.77536 76.8686
2753119 15.6699 15.5265 23.7626 21.9393 -0.639397 2.82946 76.8983
2753139 15.6259 15.5265 23.861 21.988 -0.640389 2.86291 77.0014
2753149 15.6259 15.5265 23.861 21.988 -0.640389 2.86291 77.0014
2753159 15.5466 15.4068 23.8512 22.0269 -0.639077 2.91378 76.8316
2753169 15.5026 15.3884 23.9201 22.0562 -0.643353 2.94376 76.8672
2753179 15.5026 15.3884 23.9201 22.0562 -0.643353 2.94376 76.8672
2753189 15.3881 15.4345 23.9792 22.1828 -0.568289 2.9888 76.9845
2753199 15.3264 15.2871 24.0973 22.2607 -0.609268 3.06824 76.9716
2753216 15.3264 15.2871 24.0973 22.2607 -0.609268 3.06824 76.9716
2753230 15.3 15.1306 24.1859 22.3387 -0.655136 3.13702 76.9551
2753232 15.0974 15.1674 24.2745 22.4264 -0.57757 3.20325 76.9656
2753240 15.0974 15.1674 24.2745 22.4264 -0.57757 3.20325 76.9656
2753252 14.9917 15.0477 24.3335 22.514 -0.573416 3.27914 76.8869
2753261 14.9917 15.0477 24.3335 22.514 -0.573416 3.27914 76.8869
2753273 14.9124 14.9924 24.4517 22.6115 -0.571734 3.34391 76.968
2753281 14.8772 14.8819 24.5796 22.7186 -0.602244 3.41417 77.0574
2753299 14.8772 14.8819 24.5796 22.7186 -0.602244 3.41417 77.0574
2753303 14.8244 14.8359 24.619 22.7673 -0.59709 3.45106 77.0465
2753315 14.6834 14.7346 24.806 22.933 -0.590332 3.56177 77.157
2753334 14.6218 14.6241 24.8848 23.0499 -0.593618 3.63217 77.1804
2753351 14.6218 14.6241 24.8946 23.0499 -0.596729 3.63362 77.1903
2753354 14.5337 14.6517 24.8946 23.0596 -0.556464 3.64966 77.1396
2753364 14.472 14.4859 24.9635 23.1765 -0.574958 3.73202 77.098
2753374 14.472 14.4859 24.9635 23.1765 -0.574958 3.73202 77.098
2753384 14.4456 14.4767 25.0029 23.1668 -0.585347 3.74501 77.092
2753394 14.5249 14.4675 24.9537 23.1375 -0.607623 3.71652 77.0836
2753404 14.5249 14.4675 24.9537 23.1375 -0.607623 3.71652 77.0836
2753414 14.6218 14.532 24.8356 23.0791 -0.598906 3.65148 77.0684
2753435 14.6218 14.532 24.8356 23.0791 -0.598906 3.65148 77.0684
2753436 14.701 14.5596 24.6584 23.0986 -0.552227 3.60236 77.0176
2753444 14.8684 14.6425 24.619 23.0011 -0.597611 3.52179 77.131
2753464 14.9565 14.7069 24.5698 22.855 -0.637028 3.45605 77.0882
2753477 15.0358 14.6701 24.5009 22.816 -0.665542 3.42971 77.0228
2753485 15.0358 14.6701 24.5009 22.816 -0.665542 3.42971 77.0228
2753495 15.0358 14.7346 24.432 22.7479 -0.644998 3.39366 76.9501
2753515 15.0622 14.6793 24.3138 22.7089 -0.647382 3.37682 76.7642
2753526 15.071 14.7254 24.3335 22.7381 -0.631292 3.3711 76.868
2753535 15.071 14.7254 24.3335 22.7381 -0.631292 3.3711 76.868
2753545 15.0446 14.6609 24.3827 22.6602 -0.686088 3.3885 76.7484
2753555 15.0974 14.6241 24.4221 22.7868 -0.685248 3.40973 76.9304
2753566 15.0974 14.6241 24.4221 22.7868 -0.685248 3.40973 76.9304
2753575 15.0534 14.6148 24.4812 22.8453 -0.673564 3.44016 76.9947
2753595 14.9917 14.6333 24.3631 22.7673 -0.636493 3.42102 76.7554
2753608 15.115 14.6885 24.3631 22.7673 -0.657131 3.37826 76.9339
2753619 15.115 14.6885 24.3631 22.7673 -0.657131 3.37826 76.9339
2753626 15.0534 14.7622 24.2843 22.7673 -0.588074 3.36348 76.8672
2753636 15.1943 14.7438 24.3335 22.7284 -0.667433 3.33581 77
2753646 15.1943 14.7438 24.3335 22.7284 -0.667433 3.33581 77
2753656 15.1503 14.8359 24.3827 22.6894 -0.651371 3.32593 77.0583
2753666 15.1503 14.8359 24.3827 22.6894 -0.651371 3.32593 77.0583
2753679 15.1415 14.7438 24.3926 22.6699 -0.688894 3.3485 76.9477
2753686 15.0886 14.7254 24.4123 22.6894 -0.678058 3.37143 76.9156
2753706 15.0886 14.6701 24.4812 22.6602 -0.72806 3.39063 76.9001
2753717 15.0534 14.7714 24.5402 22.7576 -0.669263 3.39844 77.1226
2753729 15.0534 14.7714 24.5402 22.7576 -0.669263 3.39844 77.1226
2753739 14.9917 14.7438 24.6288 22.7576 -0.686957 3.43306 77.1219
2753761 14.886 14.7438 24.6584 22.9232 -0.607875 3.48753 77.2114
2753767 14.8684 14.7069 24.7076 23.0206 -0.597779 3.52239 77.3035
2753778 14.8684 14.7069 24.7076 23.0206 -0.597779 3.52239 77.3035
2753787 14.7539 14.5596 24.6682 23.0693 -0.581811 3.58673 77.051
2753798 14.6746 14.5688 24.7765 23.1375 -0.565326 3.62971 77.1574
2753808 14.6746 14.5688 24.7765 23.1375 -0.565326 3.62971 77.1574
2753817 14.6658 14.4399 24.7863 23.1765 -0.595497 3.67021 77.0685
2753845 14.5601 14.4583 24.7273 23.196 -0.53063 3.68556 76.9417
2753854 14.5953 14.4951 24.7174 23.1765 -0.532945 3.66376 76.9844
2753861 14.5953 14.4951 24.7174 23.1765 -0.532945 3.66376 76.9844
2753869 14.6482 14.5228 24.6977 23.157 -0.540781 3.63849 77.0257
2753882 14.6482 14.532 24.7371 23.2057 -0.534086 3.64924 77.123
2753903 14.6658 14.5688 24.7371 23.196 -0.530706 3.63465 77.1677
2753909 14.6658 14.5688 24.7371 23.196 -0.530706 3.63465 77.1677
2753919 14.5953 14.5872 24.7568 23.2252 -0.498837 3.65442 77.1646
2753929 14.5777 14.5412 24.7273 23.2934 -0.476544 3.67551 77.1396
2753950 14.5601 14.5135 24.7666 23.2837 -0.495806 3.69081 77.124
2753964 14.5337 14.4767 24.7174 23.2155 -0.506516 3.68892 76.9433
2753970 14.5337 14.4767 24.7174 23.2155 -0.506516 3.68892 76.9433
2753980 14.5601 14.5872 24.7076 23.1083 -0.510685 3.63847 76.9632
2753990 14.5601 14.5872 24.7076 23.1083 -0.510685 3.63847 76.9632
2754000 14.5073 14.5228 24.6584 23.1765 -0.476928 3.66972 76.8649
2754010 14.5161 14.4951 24.7568 23.235 -0.500885 3.69737 77.0029
2754020 14.5161 14.4951 24.7568 23.235 -0.500885 3.69737 77.0029
2754033 14.5161 14.5596 24.7174 23.196 -0.47991 3.67022 76.9891
2754040 14.5161 14.5135 24.8257 23.1473 -0.545746 3.69015 77.0026
2754050 14.5161 14.5135 24.8257 23.1473 -0.545746 3.69015 77.0026
2754060 14.5337 14.6425 24.6977 23.1375 -0.471169 3.63436 77.0114
2754080 14.6394 14.6425 24.5895 23.0596 -0.496151 3.58124 76.9309
2754090 14.7451 14.753 24.5796 23.0109 -0.506181 3.52045 77.0886
2754110 14.7891 14.8267 24.5009 22.9135 -0.503007 3.4659 77.0301
2754125 14.8332 14.8727 24.5009 22.894 -0.508216 3.44141 77.1007
2754130 14.8332 14.8727 24.5009 22.894 -0.508216 3.44141 77.1007
2754141 14.842 14.799 24.5206 22.816 -0.56752 3.4482 76.9776
2754152 14.842 14.799 24.5206 22.816 -0.56752 3.4482 76.9776
2754161 14.7627 14.7806 24.4418 22.933 -0.484589 3.47736 76.9181
2754172 14.7715 14.799 24.5107 22.9622 -0.493556 3.48551 77.0434
2754181 14.7715 14.799 24.5107 22.9622 -0.493556 3.48551 77.0434
2754193 14.7627 14.7806 24.5009 22.9817 -0.487271 3.49348 77.0258
2754201 14.7539 14.753 24.5304 22.9719 -0.506234 3.50519 77.0092
2754216 14.7539 14.753 24.5304 22.9719 -0.506234 3.50519 77.0092
2754221 14.7979 14.8174 24.5206 22.9037 -0.518341 3.46748 77.0396
2754231 14.7979 14.8174 24.5206 22.9037 -0.518341 3.46748 77.0396
2754249 14.7451 14.8727 24.5304 22.8842 -0.492825 3.46546 77.0324
2754254 14.8244 14.8359 24.5107 22.7771 -0.559509 3.43626 76.948
2754262 14.8244 14.8359 24.5107 22.7771 -0.559509 3.43626 76.948
2754271 14.8067 14.9003 24.491 22.8453 -0.503665 3.43233 77.0434
2754286 14.7979 14.8543 24.5009 22.8258 -0.525706 3.44402 76.9789
2754293 14.7979 14.8543 24.5009 22.8258 -0.525706 3.44402 76.9789
2754303 14.8596 14.9187 24.432 22.816 -0.50527 3.40202 77.0263
2754313 14.8596 14.9187 24.432 22.816 -0.50527 3.40202 77.0263
2754323 14.8508 14.9003 24.4418 22.7186 -0.544012 3.39533 76.9115
2754334 14.9653 14.9832 24.4221 22.7771 -0.527275 3.35409 77.1477
2754343 14.9653 14.9832 24.4221 22.7771 -0.527275 3.35409 77.1477
2754359 14.9477 14.9924 24.3631 22.7966 -0.493434 3.35012 77.0997
2754362 14.9124 14.9832 24.3138 22.7868 -0.47283 3.35179 76.9963
2754384 14.9124 14.9924 24.3237 22.7673 -0.479367 3.34813 76.9959
2754393 14.9124 14.9924 24.3237 22.7673 -0.479367 3.34813 76.9959
2754409 14.9036 15.02 24.3532 22.7576 -0.480045 3.34665 77.0345
2754413 14.9124 14.9832 24.3827 22.8258 -0.481875 3.36809 77.1042
2754423 14.9124 14.9832 24.3827 22.8258 -0.481875 3.36809 77.1042
2754434 14.8684 14.974 24.4123 22.8063 -0.486749 3.38229 77.061
2754459 14.842 14.9095 24.4812 22.7966 -0.524819 3.41291 77.0293
2754461 14.842 14.9095 24.4812 22.7966 -0.524819 3.41291 77.0293
2754469 14.7451 14.928 24.5107 22.8453 -0.481172 3.44343 77.029
2754495 14.657 14.7714 24.5107 22.9232 -0.479135 3.51385 76.8623
2754497 14.6394 14.7622 24.5796 23.0304 -0.46306 3.54656 77.0116
2754509 14.6394 14.7622 24.5796 23.0304 -0.46306 3.54656 77.0116
2754514 14.5073 14.6241 24.7174 23.0791 -0.494474 3.63949 76.9278
2754524 14.4368 14.532 24.8848 23.2544 -0.497732 3.72928 77.108
2754544 14.3663 14.3938 25.0816 23.3324 -0.55775 3.82004 77.1742
2754565 14.1813 14.2373 25.1899 23.4785 -0.536892 3.94032 77.0871
2754578 14.0668 14.0623 25.436 23.7026 -0.562322 4.07857 77.2677
2754585 14.0668 14.0623 25.436 23.7026 -0.562322 4.07857 77.2677
2754595 13.9964 14.0163 25.4557 23.7708 -0.538929 4.11977 77.2391
2754605 14.014 14.0347 25.4459 23.6734 -0.567539 4.09572 77.1679
2754625 14.0933 14.1176 25.3376 23.6052 -0.553484 4.03065 77.1535
2754635 14.0933 14.1176 25.3376 23.6052 -0.553484 4.03065 77.1535
2754645 14.1197 14.1912 25.2096 23.5077 -0.529137 3.97382 77.0283
2754655 14.1902 14.2004 25.2195 23.459 -0.567722 3.94864 77.0691
2754669 14.1902 14.2004 25.2195 23.459 -0.567722 3.94864 77.0691
2754676 14.1021 14.1728 25.2391 23.4688 -0.551954 3.98135 76.9828
2754694 14.1461 14.0899 25.1899 23.5564 -0.548719 3.99643 76.9824
2754698 14.1461 14.0899 25.1899 23.5564 -0.548719 3.99643 76.9824
2754706 14.1902 14.0991 25.3671 23.5662 -0.612497 4.00997 77.2226
2754720 14.1902 14.0991 25.3671 23.5662 -0.612497 4.00997 77.2226
2754726 14.1725 14.0715 25.3868 23.5272 -0.635257 4.01837 77.1581
2754736 14.1813 14.0347 25.3573 23.5467 -0.634478 4.02385 77.12
2754747 14.1813 14.0347 25.3573 23.5467 -0.634478 4.02385 77.12
2754756 14.1902 14.0531 25.3573 23.6441 -0.598814 4.03099 77.2446
2754771 14.1461 13.9794 25.2785 23.6734 -0.574704 4.05301 77.0774
2754778 14.1461 13.9794 25.2785 23.6734 -0.574704 4.05301 77.0774
2754786 14.1197 13.9518 25.3966 23.6928 -0.606428 4.08588 77.1609
2754806 14.0052 13.7584 25.436 23.7708 -0.621028 4.17886 76.9704
2754818 13.9964 13.74 25.5148 23.8292 -0.629841 4.20489 77.0803
2754836 14.0052 13.7216 25.5738 23.8487 -0.650924 4.21828 77.1493
2754846 13.9435 13.7216 25.5541 23.8195 -0.634947 4.22681 77.0387
2754858 13.9435 13.786 25.5541 23.8195 -0.613515 4.21074 77.1032
2754868 13.9964 13.8689 25.5837 23.7513 -0.634666 4.17156 77.2002
2754880 13.9964 13.8689 25.5837 23.7513 -0.634666 4.17156 77.2002
2754889 14.0052 13.9242 25.6132 23.7318 -0.634883 4.15707 77.2743
2754898 14.0845 13.961 25.5837 23.7026 -0.648038 4.12007 77.3317
2754909 14.0845 13.961 25.5837 23.7026 -0.648038 4.12007 77.3317
2754917 14.1109 13.9426 25.5935 23.6246 -0.69145 4.1085 77.2716
2754932 14.0404 13.8781 25.623 23.5759 -0.716248 4.13923 77.1175
2754938 14.0404 13.8781 25.623 23.5759 -0.716248 4.13923 77.1175
2754948 14.0228 13.8873 25.7116 23.6539 -0.709553 4.16471 77.2756
2754958 14.0228 13.8873 25.7116 23.6539 -0.709553 4.16471 77.2756
2754968 13.9964 13.7768 25.623 23.5857 -0.73294 4.17674 76.9819
2754978 14.0228 13.8781 25.7313 23.5759 -0.744766 4.15882 77.2082
2754989 14.0228 13.8781 25.7313 23.5759 -0.744766 4.15882 77.2082
2755002 14.0316 13.8597 25.6526 23.537 -0.741923 4.14465 77.0808
2755009 14.058 13.8597 25.6427 23.5467 -0.743888 4.13808 77.1072
2755019 14.058 13.9334 25.6427 23.5467 -0.719313 4.11981 77.1808
2755029 14.0492 13.9426 25.6526 23.459 -0.745817 4.10873 77.1034
2755039 14.0492 13.9426 25.6526 23.459 -0.745817 4.10873 77.1034
2755049 14.0845 13.9242 25.692 23.5467 -0.746159 4.12248 77.2473
2755060 14.0228 13.9426 25.7215 23.5175 -0.739668 4.13324 77.2043
2755072 14.0228 13.9426 25.7215 23.5175 -0.739668 4.13324 77.2043
2755079 13.9964 13.8781 25.7904 23.4785 -0.78754 4.16 77.1434
2755094 13.8554 13.9242 25.8691 23.5272 -0.736368 4.20146 77.176
2755124 13.8554 13.9242 25.8691 23.5272 -0.736368 4.20146 77.176
2755130 13.9259 13.8873 25.9085 23.5954 -0.760402 4.20813 77.3172
2755136 13.9435 13.8689 25.751 23.5077 -0.751871 4.174 77.0712
2755140 13.9611 13.8689 25.8199 23.537 -0.769298 4.18338 77.1869
2755163 13.9876 13.8689 25.8101 23.5467 -0.77125 4.17681 77.2132
2755175 13.9876 13.8689 25.8691 23.5467 -0.789769 4.18508 77.2723
2755180 13.9611 13.8321 25.8691 23.6246 -0.767776 4.21169 77.287
2755190 13.9083 13.7952 25.8593 23.6149 -0.763644 4.23127 77.1777
2755210 13.8995 13.7492 25.9577 23.6149 -0.807136 4.25866 77.2213
2755223 13.8466 13.7492 25.9282 23.6928 -0.755279 4.27858 77.2169
2755231 13.8466 13.7492 25.9282 23.6928 -0.755279 4.27858 77.2169
2755247 13.8378 13.7676 25.8987 23.5759 -0.776128 4.25581 77.08
2755251 13.785 13.7676 25.879 23.5759 -0.75331 4.26627 77.0075
2755261 13.785 13.7952 25.879 23.5954 -0.737564 4.26208 77.0546
2755274 13.9347 13.8229 25.9085 23.5662 -0.794415 4.21788 77.2323
2755282 13.9347 13.8229 25.9085 23.5662 -0.794415 4.21788 77.2323
2755295 13.8731 13.8413 25.8691 23.5857 -0.750053 4.22588 77.1691
2755304 13.8202 13.915 25.9085 23.5759 -0.724505 4.22482 77.2196
2755311 13.8202 13.915 25.9085 23.5759 -0.724505 4.22482 77.2196
2755323 13.7497 13.8229 25.9676 23.6149 -0.738628 4.27902 77.1551
2755333 13.7497 13.7492 25.9085 23.6344 -0.738132 4.29195 77.0418
2755343 13.7497 13.7492 25.9085 23.6344 -0.738132 4.29195 77.0418
2755353 13.7497 13.8229 25.8593 23.7708 -0.652634 4.28563 77.2027
2755364 13.7497 13.8229 25.8593 23.7708 -0.652634 4.28563 77.2027
2755373 13.8114 13.786 25.7609 23.7221 -0.669487 4.25896 77.0803
2755388 13.9171 13.8965 25.7412 23.7415 -0.653391 4.20507 77.2963
2755393 13.9171 13.8965 25.7412 23.7415 -0.653391 4.20507 77.2963
2755403 13.9435 13.9242 25.692 23.6928 -0.653209 4.17794 77.2525
2755413 13.9347 13.915 25.6821 23.7318 -0.637448 4.1865 77.2636
2755423 13.9347 13.915 25.6821 23.7318 -0.637448 4.1865 77.2636
2755434 13.9964 14.0347 25.6624 23.5954 -0.65621 4.11963 77.2889
2755443 13.9964 14.0347 25.6624 23.5954 -0.65621 4.11963 77.2889
2755457 13.9523 13.961 25.6526 23.6149 -0.657225 4.15015 77.1808
2755463 13.9699 14.007 25.5935 23.5564 -0.648275 4.11782 77.127
2755485 13.9788 14.0255 25.6132 23.5077 -0.667344 4.10697 77.1252
2755504 13.8907 13.9702 25.5443 23.5272 -0.629623 4.13557 76.9324
2755515 13.9435 13.9886 25.5443 23.5272 -0.640219 4.11786 77.0037
2755527 13.9435 13.9886 25.5443 23.5272 -0.640219 4.11786 77.0037
2755534 13.9523 14.0163 25.5443 23.5077 -0.640297 4.10607 77.0206
2755550 13.9788 14.0531 25.4951 23.5467 -0.607875 4.08894 77.0736
2755554 13.9788 14.0531 25.4951 23.5467 -0.607875 4.08894 77.0736
2755564 13.9611 14.0439 25.5148 23.5662 -0.605114 4.10112 77.086
2755584 13.9259 13.915 25.5541 23.5954 -0.639585 4.15156 76.9904
2755595 13.9347 13.9242 25.6132 23.6928 -0.625584 4.16909 77.1649
2755618 13.9171 13.9978 25.5935 23.6246 -0.611974 4.14282 77.1331
2755625 13.9083 14.0163 25.6526 23.6734 -0.605585 4.15558 77.2505
2755641 13.9083 14.0163 25.6526 23.6734 -0.605585 4.15558 77.2505
2755645 13.9347 14.0439 25.6034 23.6149 -0.608607 4.12705 77.1969
2755665 13.8907 13.9978 25.6427 23.5759 -0.635365 4.14945 77.1072
2755675 13.9259 14.0255 25.5935 23.5467 -0.631472 4.1228 77.0916
2755688 13.9259 14.0255 25.5935 23.5467 -0.631472 4.1228 77.0916
2755695 13.8995 13.9794 25.6526 23.5564 -0.653863 4.15048 77.0879
2755705 13.8554 13.9518 25.6624 23.6831 -0.610147 4.18746 77.1527
2755716 13.8554 13.9518 25.6624 23.6831 -0.610147 4.18746 77.1527
2755726 13.8114 14.007 25.7412 23.7318 -0.58665 4.20251 77.2914
2755736 13.8554 13.9518 25.751 23.7221 -0.625192 4.20531 77.2803
2755746 13.8554 13.9518 25.751 23.7221 -0.625192 4.20531 77.2803
2755758 13.8995 13.9702 25.6821 23.6928 -0.62093 4.17607 77.2446
2755771 13.8995 13.9702 25.6821 23.6928 -0.62093 4.17607 77.2446
2755780 13.9171 13.9426 25.5935 23.6539 -0.620618 4.16065 77.1071
2755786 13.8995 13.961 25.5837 23.6344 -0.612289 4.15633 77.0785
2755796 13.8995 13.961 25.5837 23.6344 -0.612289 4.15633 77.0785
2755806 13.9611 13.9794 25.5443 23.6052 -0.62293 4.12678 77.09
2755816 13.9611 13.9794 25.5443 23.6052 -0.62293 4.12678 77.09
2755827 13.9876 14.007 25.564 23.6246 -0.621852 4.1189 77.1832
2755836 13.9699 13.9702 25.5541 23.6831 -0.606 4.13925 77.1774
2755849 13.9699 13.9702 25.5541 23.6831 -0.606 4.13925 77.1774
2755856 13.9523 13.9794 25.6034 23.6149 -0.635573 4.13866 77.15
2755872 13.9083 14.0163 25.5935 23.5272 -0.635447 4.1267 77.0453
2755879 13.9083 14.0163 25.5935 23.5272 -0.635447 4.1267 77.0453
2755886 13.9699 14.007 25.564 23.6052 -0.622758 4.12052 77.1461
2755896 13.9699 14.007 25.564 23.6052 -0.622758 4.12052 77.1461
2755906 13.8642 13.9794 25.6723 23.6734 -0.610106 4.17842 77.1893
2755919 13.8731 13.9426 25.6624 23.7415 -0.59938 4.19356 77.2196
2755929 13.8731 13.9426 25.6624 23.7415 -0.59938 4.19356 77.2196
2755942 13.8642 13.915 25.6723 23.8 -0.589491 4.21216 77.2515
2755946 13.8202 13.9426 25.7018 23.839 -0.562865 4.2258 77.3036
2755956 13.8202 13.9426 25.7018 23.839 -0.562865 4.2258 77.3036
2755967 13.8026 13.915 25.6723 23.8 -0.569992 4.22751 77.1898
2755976 13.8026 13.915 25.6723 23.8 -0.569992 4.22751 77.1898
2755989 13.8731 13.8505 25.6427 23.7708 -0.614014 4.21781 77.1371
2755996 13.8907 13.8873 25.5935 23.7708 -0.591795 4.19737 77.1423
2756016 13.9611 13.9242 25.5049 23.839 -0.551258 4.16784 77.2292
2756026 13.9435 13.9242 25.6034 23.839 -0.576818 4.186 77.31
2756037 13.9435 13.8689 25.6034 23.8097 -0.604795 4.19563 77.2255
2756048 13.9523 13.8321 25.5935 23.8779 -0.594078 4.21076 77.2559
2756058 13.9523 13.8321 25.5935 23.8779 -0.594078 4.21076 77.2559
2756068 13.8995 13.8321 25.6329 23.9169 -0.576916 4.23483 77.2813
2756077 13.8466 13.7124 25.7116 23.9364 -0.618315 4.29152 77.207
2756089 13.8466 13.7124 25.7116 23.9364 -0.618315 4.29152 77.207
2756098 13.829 13.7308 25.8199 23.9559 -0.634344 4.30902 77.3356
2756108 13.829 13.7308 25.8199 23.9559 -0.634344 4.30902 77.3356
2756118 13.8202 13.7492 25.8002 23.8974 -0.638641 4.2958 77.2671
2756128 13.785 13.7216 25.7904 23.9072 -0.630355 4.3115 77.2041
2756140 13.785 13.7216 25.7904 23.9072 -0.630355 4.3115 77.2041
2756148 13.7938 13.7584 25.7215 23.8 -0.634739 4.27565 77.0737
2756159 13.785 13.7492 25.7412 23.8585 -0.621811 4.29101 77.1338
2756169 13.785 13.7492 25.7412 23.8585 -0.621811 4.29101 77.1338
2756186 13.7321 13.7492 25.7412 23.9169 -0.585695 4.31234 77.1394
2756189 13.7057 13.7031 25.879 23.9948 -0.610326 4.36029 77.2827
2756199 13.7057 13.7031 25.879 23.9948 -0.610326 4.36029 77.2827
2756213 13.7057 13.6571 25.8691 24.0338 -0.60956 4.37584 77.2657
2756220 13.7057 13.6571 25.8691 24.0338 -0.60956 4.37584 77.2657
2756230 13.7233 13.6939 25.8987 23.9461 -0.6413 4.35419 77.2621
2756240 13.7409 13.6939 25.8298 23.8585 -0.65425 4.32815 77.1231
2756268 13.8026 13.74 25.623 23.8487 -0.5963 4.27112 77.0143
2756271 13.8378 13.74 25.5837 23.8292 -0.601467 4.2541 76.9907
2756280 13.8378 13.74 25.5837 23.8292 -0.601467 4.2541 76.9907
2756295 13.9171 13.8044 25.5837 23.7708 -0.624566 4.21005 77.076
2756310 13.8995 13.8137 25.6329 23.7415 -0.64121 4.21494 77.0876
2756320 13.9435 13.8597 25.623 23.7903 -0.620531 4.19795 77.2165
2756330 13.9435 13.8597 25.623 23.7903 -0.620531 4.19795 77.2165
2756341 13.9611 13.9334 25.5837 23.7123 -0.615075 4.15883 77.1905
2756350 13.9611 13.9334 25.5837 23.7123 -0.615075 4.15883 77.1905
2756360 13.9699 13.8965 25.5837 23.7415 -0.620383 4.16989 77.1917
2756370 14.0228 13.9886 25.5541 23.7318 -0.600442 4.12845 77.2974
2756382 14.0228 13.9886 25.5541 23.7318 -0.600442 4.12845 77.2974
2756395 13.9876 14.0255 25.5541 23.6928 -0.590023 4.12256 77.26
2756407 14.1021 14.0163 25.5541 23.5759 -0.667986 4.08004 77.2484
2756413 14.1021 14.0163 25.5541 23.5759 -0.667986 4.08004 77.2484
2756420 14.0845 14.0255 25.4655 23.6246 -0.615253 4.07647 77.2001
2756433 14.0845 14.0255 25.4655 23.6246 -0.615253 4.07647 77.2001
2756440 14.0404 14.0347 25.5246 23.5662 -0.636342 4.08517 77.1659
2756450 14.0316 13.9334 25.5443 23.5175 -0.689712 4.10834 77.0267
2756471 14.0228 14.007 25.564 23.5662 -0.652394 4.10193 77.16
2756482 14.058 13.9702 25.5049 23.5272 -0.670098 4.08846 77.0604
2756506 14.058 13.8873 25.4754 23.4493 -0.714456 4.09379 76.87
2756513 14.058 13.8873 25.4754 23.4493 -0.714456 4.09379 76.87
2756521 14.0845 13.9242 25.4852 23.4395 -0.716852 4.0781 76.9334
2756531 14.1637 14.007 25.4852 23.459 -0.707677 4.04075 77.115
2756552 14.0933 14.0347 25.5246 23.3421 -0.727671 4.04031 76.9947
2756564 14.1197 14.0255 25.5246 23.459 -0.700067 4.05267 77.1288
2756574 14.1197 14.0255 25.5246 23.459 -0.700067 4.05267 77.1288
2756582 14.1197 14.0255 25.623 23.4493 -0.734289 4.06524 77.2175
2756593 14.1197 14.0255 25.623 23.4493 -0.734289 4.06524 77.2175
2756602 14.1197 14.007 25.6526 23.5564 -0.714022 4.08911 77.3358
2756613 14.1637 14.007 25.6329 23.4395 -0.760597 4.05893 77.2432
2756622 14.1637 14.007 25.6329 23.4395 -0.760597 4.05893 77.2432
2756633 14.1902 14.0807 25.5345 23.3616 -0.739397 4.0092 77.1669
2756642 14.2166 14.1728 25.3966 23.2934 -0.696361 3.9506 77.0794
2756653 14.2166 14.1728 25.3966 23.2934 -0.696361 3.9506 77.0794
2756665 14.243 14.1452 25.4163 23.2934 -0.720106 3.95372 77.0979
2756673 14.243 14.1452 25.4163 23.2934 -0.720106 3.95372 77.0979
2756683 14.2782 14.1636 25.4065 23.2544 -0.734957 3.93353 77.1028
2756692 14.2342 14.1452 25.4163 23.2934 -0.717331 3.95588 77.0891
2756713 14.2078 14.136 25.4262 23.2544 -0.728188 3.96047 77.0244
2756722 14.2166 14.1176 25.436 23.3226 -0.717452 3.97401 77.0928
2756735 14.2166 14.1176 25.436 23.3226 -0.717452 3.97401 77.0928
2756742 14.199 14.1544 25.5049 23.4201 -0.688887 3.99303 77.2783
2756762 14.1637 14.1268 25.5443 23.4298 -0.696136 4.01548 77.2646
2756779 14.1725 14.1083 25.4754 23.4006 -0.693074 4.00387 77.1568
2756794 14.1373 14.0439 25.4557 23.4298 -0.687499 4.02982 77.0667
2756804 14.1461 14.0807 25.4852 23.4493 -0.68083 4.02553 77.1613
2756814 14.1461 14.0807 25.4852 23.4493 -0.68083 4.02553 77.1613
2756824 14.1197 14.0439 25.4459 23.4395 -0.675584 4.03415 77.049
2756834 14.1197 14.0439 25.4459 23.4395 -0.675584 4.03415 77.049
2756844 14.0668 13.9242 25.5246 23.4493 -0.720459 4.08944 76.9649
2756854 14.0756 14.0347 25.5148 23.459 -0.680007 4.05988 77.0841
2756866 14.0756 14.0347 25.5148 23.459 -0.680007 4.05988 77.0841
2756874 14.1637 14.0715 25.4557 23.4103 -0.69312 4.01371 77.1013
2756889 14.2078 14.1083 25.4852 23.3811 -0.713755 3.99383 77.1824
2756911 14.2959 14.2189 25.3966 23.3616 -0.683305 3.92962 77.2729
2756918 14.2959 14.2189 25.3966 23.3616 -0.683305 3.92962 77.2729
2756925 14.2518 14.1636 25.3966 23.2739 -0.717033 3.94141 77.086
2756935 14.3575 14.2649 25.2982 23.2642 -0.688815 3.87511 77.1848
2756945 14.3575 14.2649 25.2982 23.2642 -0.688815 3.87511 77.1848
2756956 14.3047 14.2741 25.2785 23.2642 -0.662883 3.88295 77.1215
2756965 14.2606 14.2373 25.308 23.2447 -0.677055 3.90422 77.0506
2756985 14.2694 14.2465 25.2785 23.3032 -0.647984 3.90397 77.0976
2756995 14.2694 14.2465 25.2785 23.3032 -0.647984 3.90397 77.0976
2757005 14.3223 14.2649 25.2884 23.3421 -0.648694 3.89353 77.2177
2757015 14.3135 14.2281 25.2391 23.2642 -0.668563 3.8864 77.0449
2757025 14.3135 14.2281 25.2391 23.2642 -0.668563 3.8864 77.0449
2757035 14.3223 14.2465 25.2096 23.3032 -0.642914 3.88108 77.0815
2757051 14.3223 14.2465 25.2096 23.3032 -0.642914 3.88108 77.0815
2757055 14.3751 14.2465 25.1998 23.2934 -0.659734 3.86532 77.1148
2757067 14.3663 14.3109 25.1801 23.2252 -0.651978 3.83901 77.0826
2757075 14.3663 14.3109 25.1801 23.2252 -0.651978 3.83901 77.0826
2757090 14.428 14.3478 25.0816 23.1668 -0.647552 3.79218 77.0242
2757096 14.4456 14.4583 25.062 23.1765 -0.606918 3.75953 77.1423
2757120 14.4456 14.4583 25.062 23.1765 -0.606918 3.75953 77.1423
2757123 14.4984 14.4307 24.9832 23.0986 -0.633813 3.73051 77.0109
2757126 14.4984 14.4307 24.9832 23.0986 -0.633813 3.73051 77.0109
2757136 14.4896 14.4675 24.9635 23.0499 -0.62875 3.71368 76.9705
2757146 14.5249 14.5504 24.9832 23.0596 -0.615324 3.68932 77.1181
2757156 14.5249 14.5504 24.9832 23.0596 -0.615324 3.68932 77.1181
2757166 14.5425 14.578 24.934 23.0401 -0.602624 3.66827 77.0946
2757176 14.5513 14.5964 24.8356 23.0499 -0.564875 3.64863 77.0331
2757189 14.5513 14.5964 24.8356 23.0499 -0.564875 3.64863 77.0331
2757199 14.6041 14.6517 24.8749 23.0693 -0.569318 3.63117 77.2001
2757206 14.6041 14.6517 24.8749 23.0693 -0.569318 3.63117 77.2001
2757220 14.613 14.6148 24.7568 22.9817 -0.575985 3.60755 76.9663
2757226 14.5689 14.6425 24.7962 22.9622 -0.571798 3.61447 76.9697
2757236 14.5689 14.6425 24.7962 22.9622 -0.571798 3.61447 76.9697
2757246 14.613 14.6241 24.7666 22.9622 -0.582525 3.6039 76.9658
2757256 14.5513 14.6701 24.7273 22.9817 -0.528663 3.60473 76.9303
2757266 14.5513 14.6701 24.7273 22.9817 -0.528663 3.60473 76.9303
2757276 14.5425 14.6701 24.8159 23.0499 -0.531407 3.63004 77.0783
2757290 14.5425 14.6701 24.8159 23.0499 -0.531407 3.63004 77.0783
2757296 14.4896 14.6885 24.7962 23.0401 -0.505486 3.63402 77.0145
2757310 14.4896 14.7438 24.8749 23.0693 -0.502561 3.63658 77.1777
2757330 14.5073 14.6056 24.9045 23.1862 -0.524533 3.68723 77.2036
2757338 14.4192 14.6333 24.9734 23.2057 -0.502884 3.7148 77.2315
2757358 14.4104 14.578 24.934 23.2057 -0.505851 3.72459 77.1281
2757378 14.3575 14.4951 24.9832 23.2252 -0.525682 3.76762 77.0611
2757387 14.3663 14.4307 25.1013 23.3129 -0.558244 3.81108 77.2112
2757408 14.287 14.3938 25.0816 23.2252 -0.568159 3.82385 76.9877
2757419 14.287 14.3294 25.1112 23.3226 -0.566587 3.85802 77.0502
2757429 14.287 14.3294 25.1112 23.3226 -0.566587 3.85802 77.0502
2757439 14.1902 14.2925 25.2096 23.2934 -0.589018 3.90079 76.9857
2757460 14.2342 14.357 25.1899 23.2447 -0.591502 3.86431 77.0258
2757469 14.2694 14.4399 25.1604 23.2642 -0.559345 3.83397 77.1339
2757489 14.3223 14.3938 25.0324 23.1473 -0.589629 3.79675 76.8958
2757499 14.3487 14.4491 25.0029 23.1668 -0.563793 3.77534 76.9674
2757510 14.3487 14.4491 25.0029 23.1668 -0.563793 3.77534 76.9674
2757520 14.4896 14.5412 25.0226 23.1862 -0.577684 3.72439 77.2396
2757530 14.4896 14.5412 25.0226 23.1862 -0.577684 3.72439 77.2396
2757540 14.5073 14.4767 24.9537 23.0986 -0.611939 3.71285 77.0362
2757550 14.5953 14.6241 24.9635 23.0401 -0.613381 3.6487 77.223
2757560 14.5953 14.6241 24.9635 23.0401 -0.613381 3.6487 77.223
2757572 14.6041 14.6885 24.8552 22.8745 -0.615525 3.59059 77.0224
2757580 14.6394 14.7161 24.7666 22.7966 -0.615366 3.5507 76.9187
2757590 14.6394 14.7161 24.7666 22.7966 -0.615366 3.5507 76.9187
2757600 14.7098 14.799 24.7666 22.8063 -0.606875 3.51524 77.0818
2757611 14.7098 14.799 24.7666 22.8063 -0.606875 3.51524 77.0818
2757621 14.7187 14.8082 24.6387 22.8258 -0.55958 3.49473 76.9914
2757631 14.7803 14.8174 24.6584 22.7284 -0.614689 3.46608 76.9845
2757643 14.7803 14.8174 24.6584 22.7284 -0.614689 3.46608 76.9845
2757651 14.8155 14.8819 24.6584 22.6894 -0.617369 3.43635 77.0452
2757663 14.7979 14.8727 24.6977 22.6602 -0.637038 3.4443 77.0285
2757673 14.7979 14.8727 24.6977 22.6602 -0.637038 3.4443 77.0285
2757686 14.8508 15.0108 24.619 22.5725 -0.612059 3.37362 77.0531
2757700 14.8508 15.0108 24.619 22.5725 -0.612059 3.37362 77.0531
2757702 14.8596 14.9372 24.5304 22.592 -0.604808 3.37867 76.9191
2757712 14.8948 14.9003 24.5993 22.5335 -0.669546 3.38063 76.928
2757723 14.8948 14.9003 24.5993 22.5335 -0.669546 3.38063 76.928
2757731 14.9036 14.9648 24.5304 22.4751 -0.648521 3.34386 76.8739
2757741 14.9389 15.0477 24.491 22.4069 -0.642309 3.29937 76.8844
2757755 14.9389 15.0477 24.491 22.4069 -0.642309 3.29937 76.8844
2757761 14.9741 15.0569 24.4221 22.4946 -0.599359 3.29166 76.9476
2757772 14.9741 15.0569 24.4221 22.4946 -0.599359 3.29166 76.9476
2757781 14.9565 15.0477 24.4615 22.3971 -0.641783 3.2892 76.8628
2757791 14.9565 15.0569 24.5107 22.3679 -0.664048 3.29006 76.892
2757801 14.9565 15.0569 24.5107 22.3679 -0.664048 3.29006 76.892
2757812 14.9917 15.0569 24.491 22.4848 -0.630008 3.29647 77.0244
2757823 15.0358 15.0569 24.5304 22.4751 -0.659612 3.29052 77.0981
2757833 15.0358 15.0569 24.5304 22.4751 -0.659612 3.29052 77.0981
2757843 15.0622 15.0016 24.5304 22.3874 -0.715612 3.28403 76.9816
2757863 15.0181 15.0108 24.491 22.3289 -0.705729 3.2774 76.8489
2757873 15.0974 15.0016 24.4713 22.3582 -0.717862 3.26221 76.9285
2757883 15.0974 15.0016 24.4713 22.3582 -0.717862 3.26221 76.9285
2757892 15.0446 15.0108 24.5402 22.3582 -0.719847 3.28308 76.9538
2757906 14.9741 14.974 24.5206 22.3582 -0.703688 3.30561 76.8268
2757923 15.0181 14.9648 24.6485 22.4556 -0.728489 3.33153 77.087
2757933 15.0181 14.9648 24.6485 22.4556 -0.728489 3.33153 77.087
2757944 14.9036 14.9187 24.619 22.5238 -0.675659 3.37564 76.9651
2757955 14.8948 14.9372 24.6879 22.5335 -0.685251 3.3852 77.0534
2757973 14.8596 14.8543 24.7174 22.5335 -0.71111 3.41788 76.9648
2757983 14.9389 14.8911 24.6682 22.592 -0.688797 3.39152 77.0902
2757995 14.9389 14.8911 24.6682 22.592 -0.688797 3.39152 77.0902
2758004 14.9212 14.928 24.619 22.6017 -0.65219 3.38099 77.0699
2758014 14.9212 14.928 24.619 22.6017 -0.65219 3.38099 77.0699
2758026 14.9036 14.9095 24.5796 22.553 -0.656533 3.3763 76.9458
2758035 14.9653 14.9464 24.5698 22.5238 -0.670378 3.3469 77.0052
2758047 14.9653 14.9464 24.5698 22.5238 -0.670378 3.3469 77.0052
2758054 15.0005 14.9648 24.4418 22.5043 -0.6414 3.31176 76.9114
2758068 14.9829 14.9556 24.4123 22.5043 -0.629529 3.31366 76.8551
2758074 14.9829 14.9556 24.4123 22.5043 -0.629529 3.31366 76.8551
2758084 14.9917 15.0016 24.5107 22.4653 -0.661127 3.30964 76.9694
2758094 14.9917 15.0016 24.5107 22.4653 -0.661127 3.30964 76.9694
2758104 15.0269 15.1029 24.4123 22.3484 -0.64633 3.24438 76.8906
2758114 15.1062 15.1398 24.3237 22.3679 -0.624608 3.20629 76.9376
2758124 15.1062 15.1398 24.3237 22.3679 -0.624608 3.20629 76.9376
2758134 15.1767 15.1029 24.2942 22.2705 -0.682361 3.17884 76.8442
2758144 15.1767 15.1582 24.2548 22.212 -0.670962 3.1507 76.8017
2758155 15.1767 15.1582 24.2548 22.212 -0.670962 3.1507 76.8017
2758165 15.2119 15.1582 24.1957 22.3192 -0.627643 3.1498 76.885
2758178 15.2119 15.1582 24.1957 22.3192 -0.627643 3.1498 76.885
2758185 15.256 15.149 24.117 22.2705 -0.635958 3.1219 76.7924
2758206 15.2736 15.195 24.1367 22.3289 -0.612949 3.11897 76.9342
2758209 15.2736 15.195 24.1367 22.3289 -0.612949 3.11897 76.9342
2758215 15.3352 15.2503 24.0481 22.2315 -0.618455 3.06265 76.8651
2758233 15.3705 15.3055 24.0185 22.2218 -0.605103 3.03531 76.9163
2758235 15.3705 15.3055 24.0185 22.2218 -0.605103 3.03531 76.9163
2758245 15.3617 15.3516 23.9004 22.2607 -0.536509 3.01425 76.8744
2758257 15.3617 15.3516 23.9004 22.2607 -0.536509 3.01425 76.8744
2758265 15.3881 15.3424 23.8315 22.2413 -0.532518 2.99642 76.8032
2758283 15.4145 15.3608 23.9299 22.251 -0.562872 3.00281 76.9562
2758286 15.4145 15.3608 23.9299 22.251 -0.562872 3.00281 76.9562
2758296 15.4585 15.2871 23.8512 22.2607 -0.573102 2.99898 76.8576
2758308 15.4762 15.2871 23.9004 22.2607 -0.594324 3.00253 76.9244
2758319 15.4762 15.2871 23.9004 22.2607 -0.594324 3.00253 76.9244
2758330 15.4145 15.3976 23.861 22.212 -0.541683 2.97735 76.8852
2758348 15.4145 15.3976 23.861 22.212 -0.541683 2.97735 76.8852
2758350 15.3969 15.3976 23.8315 22.1049 -0.562325 2.96006 76.7309
2758358 15.4233 15.4252 23.8118 22.1146 -0.552027 2.94586 76.775
2758371 15.4233 15.4252 23.8118 22.1146 -0.552027 2.94586 76.775
2758378 15.3705 15.4437 23.8512 22.1341 -0.535125 2.96314 76.7994
2758392 15.3881 15.3147 23.9398 22.212 -0.585876 3.01524 76.8546
2758408 15.3264 15.3055 24.0382 22.212 -0.600621 3.04719 76.8822
2758429 15.2912 15.2687 24.0776 22.3192 -0.578539 3.08685 76.9567
2758439 15.2119 15.1766 24.176 22.4751 -0.563435 3.16641 77.0396
2758448 15.2119 15.1766 24.176 22.4751 -0.563435 3.16641 77.0396
2758459 15.1415 15.0569 24.2646 22.4361 -0.621948 3.21897 76.8991
2758469 15.0358 15.0293 24.3729 22.5628 -0.589816 3.28646 77.0007
2758479 15.0358 15.0293 24.3729 22.5628 -0.589816 3.28646 77.0007
2758489 15.0181 15.02 24.4418 22.6407 -0.583245 3.31513 77.1207
2758502 15.0181 15.02 24.4418 22.6407 -0.583245 3.31513 77.1207
2758509 15.0181 14.9372 24.4812 22.7479 -0.587651 3.35698 77.1843
2758524 14.9477 14.8174 24.5402 22.7186 -0.633515 3.40682 77.024
2758529 14.9477 14.8174 24.5402 22.7186 -0.633515 3.40682 77.024
2758541 14.8596 14.7254 24.6091 22.7868 -0.635406 3.47054 76.9809
2758549 14.8067 14.6977 24.6288 22.816 -0.624372 3.49719 76.9493
2758570 14.7275 14.6793 24.7174 22.8745 -0.613998 3.54262 76.9987
2758580 14.7275 14.6793 24.7174 22.8745 -0.613998 3.54262 76.9987
2758593 14.7539 14.6333 24.7273 22.8842 -0.637561 3.55026 76.9987
2758600 14.7451 14.6056 24.7962 22.9622 -0.639825 3.58083 77.1091
2758614 14.7451 14.6056 24.7962 22.9622 -0.639825 3.58083 77.1091
2758620 14.6746 14.578 24.8257 23.0011 -0.623111 3.61463 77.0795
2758630 14.7187 14.6056 24.8159 22.9622 -0.637694 3.59012 77.1023
2758640 14.7187 14.6056 24.8159 22.9622 -0.637694 3.59012 77.1023
2758650 14.7098 14.5504 24.8159 23.0206 -0.633848 3.61421 77.0967
2758662 14.7098 14.5504 24.8159 23.0206 -0.633848 3.61421 77.0967
2758670 14.6482 14.5412 24.8159 22.9524 -0.640106 3.62127 76.9577
2758681 14.6482 14.5688 24.8552 23.0791 -0.601268 3.63908 77.1513
2758690 14.6482 14.5688 24.8552 23.0791 -0.601268 3.63908 77.1513
2758703 14.6218 14.5228 24.9045 23.0206 -0.643198 3.65525 77.0696
2758710 14.5513 14.4122 24.9734 23.1278 -0.643817 3.72498 77.0647
2758720 14.5513 14.4122 24.9734 23.1278 -0.643817 3.72498 77.0647
2758730 14.4632 14.4767 25.0915 23.1862 -0.612472 3.75649 77.2177
2758740 14.4632 14.4767 25.0915 23.1862 -0.612472 3.75649 77.2177
2758751 14.4632 14.3662 25.0324 23.2739 -0.60138 3.78753 77.1358
2758761 14.3663 14.357 25.1899 23.2447 -0.633298 3.83201 77.1579
2758771 14.3663 14.357 25.1899 23.2447 -0.633298 3.83201 77.1579
2758781 14.4016 14.3846 25.1309 23.235 -0.619829 3.80671 77.152
2758794 14.3839 14.4399 25.1309 23.1181 -0.634751 3.78054 77.0727
2758801 14.3839 14.4399 25.1309 23.1181 -0.634751 3.78054 77.0727
2758811 14.3399 14.4122 25.1309 23.2057 -0.600861 3.81076 77.0887
2758821 14.3399 14.4122 25.1309 23.2057 -0.600861 3.81076 77.0887
2758831 14.3135 14.4767 25.1013 23.2447 -0.548834 3.80286 77.1362
2758841 14.2342 14.3478 25.1998 23.3616 -0.558887 3.88486 77.1433
2758864 14.2694 14.2925 25.308 23.3811 -0.616127 3.90814 77.2511
2758874 14.243 14.2189 25.3277 23.3226 -0.657889 3.9271 77.1122
2758887 14.243 14.2189 25.3277 23.3226 -0.657889 3.9271 77.1122
2758893 14.3047 14.3109 25.2391 23.3811 -0.59939 3.8851 77.2358
2758903 14.3047 14.3109 25.2391 23.3811 -0.59939 3.8851 77.2358
2758913 14.199 14.2189 25.3179 23.3519 -0.631148 3.9407 77.0876
2758922 14.2254 14.1912 25.3671 23.4298 -0.638318 3.95921 77.2135
2758934 14.2254 14.1912 25.3671 23.4298 -0.638318 3.95921 77.2135
2758943 14.2078 14.1544 25.3573 23.4103 -0.648369 3.96839 77.1297
2758973 14.1461 14.2004 25.4163 23.498 -0.603159 3.99318 77.2609
2758979 14.0845 14.0807 25.4754 23.5564 -0.622655 4.05456 77.197
2758994 13.9964 14.0347 25.5443 23.6539 -0.599557 4.11123 77.2292
2759005 13.9699 13.9242 25.5935 23.6734 -0.636964 4.15484 77.161
2759025 13.9171 13.9334 25.5246 23.6734 -0.595401 4.15599 77.0484
2759035 13.9788 13.8689 25.6034 23.6831 -0.657982 4.16913 77.1341
2759047 13.9788 13.8689 25.6034 23.6831 -0.657982 4.16913 77.1341
2759055 13.9611 13.915 25.564 23.7026 -0.618203 4.15927 77.1427
2759075 13.8731 13.9242 25.6624 23.7318 -0.608717 4.19678 77.1914
2759086 13.8466 13.8689 25.6624 23.7318 -0.61871 4.21711 77.1098
2759096 13.8466 13.8689 25.6624 23.7318 -0.61871 4.21711 77.1098
2759106 13.829 13.8505 25.692 23.839 -0.593026 4.24517 77.2104
2759116 13.829 13.8597 25.7412 23.8 -0.618443 4.2443 77.2299
2759126 13.829 13.8597 25.7412 23.8 -0.618443 4.2443 77.2299
2759138 13.7497 13.8873 25.7116 23.8974 -0.542627 4.26662 77.2461
2759146 13.7938 13.7952 25.7609 23.9072 -0.599377 4.2868 77.257
2759160 13.7938 13.7952 25.7609 23.9072 -0.599377 4.2868 77.257
2759166 13.9259 13.8321 25.6526 23.9072 -0.594705 4.22964 77.3177
2759182 13.9259 13.8321 25.6526 23.9072 -0.594705 4.22964 77.3177
2759188 13.9259 13.7584 25.6624 23.9266 -0.615765 4.25206 77.2734
2759198 13.9435 13.7584 25.7215 24.0338 -0.604464 4.27075 77.4572
2759218 13.9435 13.7216 25.6329 23.9169 -0.627451 4.25139 77.2149
2759229 13.9347 13.6571 25.7018 23.9169 -0.667819 4.27925 77.2105
2759252 13.9699 13.6939 25.6427 23.8585 -0.667496 4.24492 77.1651
2759258 13.9699 13.6939 25.6427 23.8585 -0.667496 4.24492 77.1651
2759268 13.9171 13.7124 25.6427 23.7708 -0.67388 4.24128 77.043
2759279 13.9435 13.6847 25.6723 23.7221 -0.716998 4.2389 77.0226
2759289 13.9435 13.6847 25.6723 23.7221 -0.716998 4.2389 77.0226
2759299 13.9964 13.7308 25.6329 23.7318 -0.702631 4.21009 77.0918
2759311 14.0228 13.7492 25.5837 23.6539 -0.715306 4.18109 77.0095
2759322 14.0228 13.7492 25.5837 23.6539 -0.715306 4.18109 77.0095
2759329 14.1021 13.7768 25.6034 23.5954 -0.756769 4.14904 77.0777
2759349 14.0845 13.8597 25.6034 23.5175 -0.749575 4.12185 77.065
2759372 14.1109 13.8965 25.5837 23.5954 -0.713404 4.11439 77.1865
2759379 14.2078 13.8597 25.5345 23.5662 -0.750419 4.08844 77.1681
2759390 14.2342 13.9518 25.5935 23.537 -0.756294 4.0634 77.3165
2759399 14.2342 13.9518 25.5935 23.537 -0.756294 4.0634 77.3165
2759412 14.2959 14.007 25.4951 23.537 -0.726362 4.02066 77.3349
2759419 14.2959 14.007 25.4951 23.537 -0.726362 4.02066 77.3349
2759429 14.3223 14.0163 25.3966 23.4006 -0.746118 3.97845 77.1357
2759439 14.287 13.9518 25.3376 23.4298 -0.728202 3.99874 77.0062
2759459 14.2782 14.0715 25.377 23.3811 -0.714129 3.97008 77.1078
2759470 14.2342 14.0255 25.3573 23.3908 -0.706153 3.99086 77.0078
2759490 14.2782 13.9886 25.4951 23.4493 -0.756176 4.01706 77.2112
2759500 14.2782 13.9886 25.4951 23.4493 -0.756176 4.01706 77.2112
2759510 14.1461 13.9426 25.4655 23.537 -0.691427 4.0693 77.0912
2759520 14.1637 13.9334 25.623 23.5759 -0.736609 4.09501 77.2961
2759540 14.1109 13.9426 25.5837 23.537 -0.717537 4.09474 77.1741
2759560 14.0492 13.9057 25.5935 23.6052 -0.690776 4.13014 77.1536
2759570 14.0228 13.8597 25.6034 23.6441 -0.687909 4.155 77.13
2759587 14.0228 13.8597 25.6034 23.6441 -0.687909 4.155 77.13
2759596 14.0492 13.915 25.5443 23.537 -0.694917 4.11129 77.0454
2759615 14.0933 13.9886 25.5049 23.459 -0.697811 4.06551 77.0458
2759619 14.0933 13.9886 25.5049 23.459 -0.697811 4.06551 77.0458
2759621 14.1902 14.0439 25.4754 23.3811 -0.726609 4.01264 77.0905
2759636 14.1902 14.0439 25.4754 23.3811 -0.726609 4.01264 77.0905
2759641 14.2342 14.1268 25.3179 23.3519 -0.672933 3.95468 77.0307
2759651 14.2959 14.1268 25.3376 23.2837 -0.721343 3.93256 77.0439
2759671 14.3223 14.2096 25.2391 23.2837 -0.670989 3.89156 77.0547
2759692 14.3751 14.2557 25.2391 23.2155 -0.695044 3.8575 77.0854
2759694 14.3751 14.2557 25.2391 23.2155 -0.695044 3.8575 77.0854
2759704 14.4896 14.3386 25.1407 23.1375 -0.698462 3.78374 77.1064
2759720 14.5073 14.3754 25.1309 23.1083 -0.698377 3.76479 77.1218
2759723 14.5073 14.3754 25.1309 23.1083 -0.698377 3.76479 77.1218
2759733 14.6218 14.4307 24.9832 23.0304 -0.695486 3.69057 77.066
2759747 14.6218 14.4307 24.9832 23.0304 -0.695486 3.69057 77.066
2759753 14.6041 14.4307 24.9734 22.9427 -0.716092 3.68051 76.9509
2759763 14.7187 14.5228 24.8946 22.9135 -0.706379 3.61456 77.0495
2759777 14.7187 14.5228 24.8946 22.9135 -0.706379 3.61456 77.0495
2759784 14.7363 14.5688 24.7962 22.8355 -0.691514 3.57306 76.9368
2759794 14.7098 14.5872 24.7371 22.8355 -0.658327 3.56622 76.8697
2759807 14.7098 14.5872 24.7371 22.8355 -0.658327 3.56622 76.8697
2759814 14.8155 14.7069 24.7371 22.8648 -0.642133 3.51628 77.1244
2759828 14.8155 14.7069 24.7371 22.8648 -0.642133 3.51628 77.1244
2759834 14.8155 14.7714 24.6781 22.7868 -0.62795 3.48037 77.0518
2759844 14.886 14.8359 24.5698 22.6894 -0.626947 3.4172 76.981
2759854 14.886 14.8359 24.5698 22.6894 -0.626947 3.4172 76.981
2759864 14.9212 14.8819 24.5599 22.6504 -0.63263 3.39042 77.0135
2759876 14.9036 14.8635 24.5501 22.6017 -0.646301 3.3902 76.9189
2759885 14.9036 14.8635 24.5501 22.6017 -0.646301 3.3902 76.9189
2759900 14.9212 14.9095 24.5107 22.6115 -0.620823 3.37051 76.953
2759905 14.9212 14.9095 24.5107 22.6115 -0.620823 3.37051 76.953
2759915 14.886 14.8911 24.432 22.592 -0.597285 3.36847 76.8011
2759926 14.9301 14.9832 24.4517 22.6017 -0.583622 3.34043 76.9666
2759947 14.9477 15.0016 24.4123 22.5238 -0.596519 3.31404 76.8854
2759955 15.0093 15.0293 24.3729 22.4458 -0.620347 3.27493 76.8573
2759972 15.0093 15.0293 24.3729 22.4458 -0.620347 3.27493 76.8573
2759975 15.0269 15.1398 24.3335 22.553 -0.541085 3.25486 77.0532
2759985 15.0269 15.1398 24.3335 22.553 -0.541085 3.25486 77.0532
2759995 15.0446 15.0937 24.2449 22.4069 -0.5824 3.22572 76.7901
2760005 15.1062 15.1213 24.2646 22.4458 -0.586072 3.21354 76.938
2760018 15.1062 15.1213 24.2646 22.4458 -0.586072 3.21354 76.938
2760025 15.1415 15.1582 24.2252 22.5043 -0.553107 3.19942 77.0292
2760038 15.1415 15.1306 24.1662 22.5628 -0.524126 3.20586 77.0009
2760058 15.1503 15.1213 24.1662 22.5725 -0.526749 3.20744 77.0103
2760066 15.1503 15.1213 24.1662 22.5725 -0.526749 3.20744 77.0103
2760079 15.1591 15.1306 24.2056 22.4751 -0.571325 3.19429 76.9702
2760086 15.1767 15.2687 24.2056 22.3874 -0.560161 3.14407 77.0383
2760101 15.1767 15.2687 24.2056 22.3874 -0.560161 3.14407 77.0383
2760109 15.1415 15.2411 24.1465 22.2997 -0.568527 3.13627 76.8287
2760130 15.1503 15.1858 24.1071 22.3192 -0.570716 3.14417 76.7624
2760139 15.1238 15.2226 24.0481 22.3095 -0.534455 3.13107 76.704
2760149 15.1238 15.2226 24.0481 22.3095 -0.534455 3.13107 76.704
2760158 15.1679 15.2871 23.989 22.2607 -0.524421 3.08875 76.7047
2760170 15.1415 15.2963 24.0874 22.3679 -0.508715 3.12464 76.8931
2760180 15.1415 15.2963 24.0874 22.3679 -0.508715 3.12464 76.8931
2760188 15.2031 15.2963 24.0382 22.3289 -0.525607 3.09648 76.8666
2760198 15.1767 15.3147 24.0579 22.29 -0.530289 3.09538 76.8393
2760208 15.1767 15.3147 24.0579 22.29 -0.530289 3.09538 76.8393
2760219 15.2119 15.3884 24.0284 22.3679 -0.481832 3.07727 76.9966
2760237 15.2031 15.4068 23.9595 22.2607 -0.486466 3.04769 76.8302
2760259 15.2648 15.3976 23.8906 22.2218 -0.500146 3.01856 76.7747
2760261 15.2648 15.3976 23.8906 22.2218 -0.500146 3.01856 76.7747
2760269 15.3264 15.4529 23.8217 22.2315 -0.476263 2.98192 76.8325
2760282 15.3176 15.5081 23.7331 22.212 -0.433274 2.95412 76.7708
2760299 15.3617 15.5358 23.6642 22.1438 -0.438763 2.91582 76.7054
2760310 15.3617 15.5358 23.6642 22.1438 -0.438763 2.91582 76.7054
2760321 15.3617 15.5173 23.674 22.1438 -0.448024 2.92167 76.6968
2760330 15.3881 15.5265 23.7331 22.1244 -0.478773 2.91958 76.772
2760340 15.3881 15.5265 23.7331 22.1244 -0.478773 2.91958 76.772
2760355 15.4233 15.4713 23.802 22.1341 -0.527099 2.93661 76.8307
2760360 15.4674 15.545 23.7429 22.0951 -0.510789 2.89375 76.8504
2760381 15.4938 15.591 23.7921 22.1438 -0.503454 2.89231 77.0208
2760391 15.4938 15.591 23.7921 22.1438 -0.503454 2.89231 77.0208
2760401 15.4321 15.591 23.6445 22.0659 -0.462538 2.87109 76.7335
2760411 15.5378 15.6002 23.674 22.0562 -0.505883 2.8475 76.8682
2760421 15.5378 15.6002 23.674 22.0562 -0.505883 2.8475 76.8682
2760431 15.5202 15.5818 23.6642 21.9977 -0.522661 2.84506 76.7639
2760442 15.5642 15.6371 23.7035 21.9685 -0.54058 2.82362 76.8733
2760451 15.5642 15.6371 23.7035 21.9685 -0.54058 2.82362 76.8733
2760461 15.6083 15.7015 23.6248 21.8223 -0.556697 2.76274 76.7569
2760484 15.6171 15.7015 23.6346 21.7736 -0.578861 2.75451 76.7269
2760493 15.6347 15.6739 23.6445 21.7444 -0.606567 2.75373 76.6975
2760513 15.6964 15.7107 23.674 21.6665 -0.649261 2.72322 76.7476
2760523 15.7845 15.7107 23.7528 21.6567 -0.705335 2.71394 76.9047
2760540 15.7845 15.7107 23.7528 21.6567 -0.705335 2.71394 76.9047
2760543 15.714 15.7015 23.7331 21.7444 -0.650616 2.74316 76.893
2760553 15.6876 15.6831 23.7823 21.6567 -0.693277 2.74738 76.8097
2760568 15.6876 15.6831 23.7823 21.6567 -0.693277 2.74738 76.8097
2760573 15.7228 15.6923 23.9299 21.5593 -0.78055 2.74513 76.9044
2760583 15.7228 15.6923 23.9299 21.5593 -0.78055 2.74513 76.9044
2760597 15.7052 15.6463 23.8906 21.5398 -0.784576 2.75045 76.7818
2760604 15.758 15.6002 23.9299 21.608 -0.806193 2.76601 76.8962
2760624 15.7492 15.6186 23.9792 21.5301 -0.838892 2.75922 76.8771
2760634 15.7228 15.5634 23.989 21.6275 -0.819512 2.79516 76.9027
2760654 15.6523 15.5265 24.1071 21.7152 -0.81743 2.85257 77.0012
2760664 15.6523 15.5265 24.1071 21.7152 -0.81743 2.85257 77.0012
2760679 15.6435 15.4805 24.2056 21.686 -0.870806 2.8762 77.0155
2760684 15.529 15.4252 24.2548 21.8223 -0.823106 2.94481 77.0314
2760707 15.4762 15.3792 24.304 21.91 -0.808017 2.98925 77.0694
2760714 15.4762 15.3792 24.304 21.91 -0.808017 2.98925 77.0694
2760735 15.3705 15.1858 24.432 21.9393 -0.870095 3.08374 76.9275
2760738 15.2295 15.0753 24.5304 22.0756 -0.848055 3.17924 76.9109
2760745 15.2295 15.0753 24.5304 22.0756 -0.848055 3.17924 76.9109
2760762 15.0534 14.9556 24.6879 22.1146 -0.869364 3.2795 76.8115
