9368126 11.0808 16.5027 25.6624 23.6734 1.11572 4.24189 76.9193
9368139 11.0808 16.4659 25.6723 23.6344 1.08882 4.24704 76.8533
9368146 11.0808 16.4659 25.6723 23.6344 1.08882 4.24704 76.8533
9368156 11.072 16.4659 25.7018 23.7123 1.10601 4.26426 76.952
9368176 11.0016 16.3922 25.6624 23.7123 1.12043 4.29492 76.7685
9368186 10.9839 16.3554 25.7018 23.8097 1.13186 4.32765 76.8508
9368197 10.9839 16.3554 25.7018 23.8097 1.13186 4.32765 76.8508
9368207 11.028 16.3646 25.7018 23.7513 1.10159 4.30614 76.8456
9368218 10.9839 16.3646 25.6723 23.761 1.12963 4.31446 76.7818
9368227 10.9839 16.3646 25.6723 23.761 1.12963 4.31446 76.7818
9368237 10.9839 16.3738 25.623 23.7805 1.1553 4.308 76.7613
9368247 10.9487 16.3001 25.5837 23.7123 1.1366 4.32045 76.5448
9368262 10.9487 16.3001 25.5837 23.7123 1.1366 4.32045 76.5448
9368271 11.0192 16.3185 25.6526 23.6928 1.08877 4.30493 76.6831
9368280 11.0192 16.3185 25.6526 23.6928 1.08877 4.30493 76.6831
9368287 11.0192 16.3646 25.5738 23.6734 1.12387 4.27962 76.6309
9368297 11.1073 16.3922 25.6624 23.6831 1.07542 4.26431 76.845
9368307 11.1073 16.3922 25.6624 23.6831 1.07542 4.26431 76.845
9368319 11.0192 16.4382 25.6132 23.7221 1.14853 4.27343 76.7927
9368328 11.0192 16.4382 25.6526 23.7221 1.13513 4.27892 76.8321
9368338 11.0016 16.3277 25.6526 23.7903 1.12797 4.32062 76.7721
9368348 11.0456 16.4751 25.5935 23.8195 1.18786 4.26842 76.9337
9368358 11.0456 16.4751 25.5935 23.8195 1.18786 4.26842 76.9337
9368368 11.0016 16.4198 25.6624 23.9072 1.18943 4.31509 76.991
9368378 10.9751 16.4106 25.5935 23.9461 1.2311 4.31988 76.9254
9368399 11.0016 16.4198 25.5837 23.9266 1.22227 4.30686 76.9317
9368408 10.9399 16.3738 25.5246 23.9754 1.2643 4.33249 76.8136
9368428 10.9399 16.429 25.4655 24.0143 1.31359 4.3158 76.8488
9368449 10.9839 16.4567 25.4065 23.9656 1.31223 4.28279 76.8127
9368459 10.9751 16.4382 25.3376 24.0241 1.35122 4.28817 76.775
9368469 10.9751 16.4382 25.3376 24.0241 1.35122 4.28817 76.775
9368479 10.9487 16.4567 25.3966 23.9851 1.33369 4.29298 76.7871
9368489 10.9487 16.4567 25.3966 23.9851 1.33369 4.29298 76.7871
9368499 11.0016 16.4567 25.3573 23.9364 1.31405 4.26741 76.7519
9368509 11.0368 16.5027 25.2687 23.9461 1.34956 4.23598 76.7543
9368519 11.0368 16.5027 25.2687 23.9461 1.34956 4.23598 76.7543
9368531 11.0104 16.5488 25.2884 23.9072 1.35405 4.22836 76.7546
9368539 11.1425 16.5303 25.2588 23.9656 1.3312 4.20398 76.8973
9368549 11.1425 16.5303 25.2588 23.9656 1.3312 4.20398 76.8973
9368559 11.1865 16.6501 25.2687 23.8877 1.32562 4.15358 76.9929
9368569 11.1865 16.6501 25.2687 23.8877 1.32562 4.15358 76.9929
9368579 11.1777 16.6869 25.1506 23.8974 1.3834 4.13132 76.9126
9368589 11.1953 16.6685 25.1506 23.8487 1.35673 4.12463 76.8631
9368599 11.1953 16.6685 25.1506 23.8487 1.35673 4.12463 76.8631
9368610 11.1249 16.7145 25.0423 23.7805 1.41135 4.10569 76.6622
9368619 11.1953 16.6593 25.0127 23.7513 1.37123 4.09354 76.6186
9368631 11.1953 16.6593 25.0127 23.7513 1.37123 4.09354 76.6186
9368640 11.1953 16.7974 24.8848 23.7026 1.44289 4.03394 76.5801
9368650 11.1953 16.7974 24.8848 23.7026 1.44289 4.03394 76.5801
9368659 11.2482 16.8158 24.7962 23.6928 1.45791 4.00213 76.553
9368670 11.2922 16.8527 24.7765 23.6344 1.44284 3.97083 76.5558
9368691 11.3187 16.9447 24.7076 23.6441 1.48882 3.93297 76.6151
9368702 11.4155 16.954 24.7076 23.6246 1.45221 3.90397 76.7017
9368711 11.4155 16.954 24.7076 23.6246 1.45221 3.90397 76.7017
9368721 11.3539 16.9816 24.7666 23.6636 1.47353 3.92652 76.7657
9368741 11.4155 16.9263 24.6781 23.6636 1.46587 3.91214 76.6835
9368751 11.442 17.0097 24.7568 23.6636 1.4552 3.89648 76.8721
9368761 11.442 17.0097 24.7568 23.6636 1.4552 3.89648 76.8721
9368775 11.4244 17.0097 24.7273 23.6246 1.45949 3.89091 76.786
9368781 11.4508 16.9908 24.6682 23.6441 1.47091 3.88334 76.7539
9368802 11.4244 17 24.6682 23.5857 1.46492 3.87911 76.6782
9368812 11.4244 17 24.6682 23.5857 1.46492 3.87911 76.6782
9368822 11.3803 17.0584 24.619 23.5662 1.50907 3.86561 76.6238
9368832 11.4332 17.0778 24.6485 23.6149 1.50149 3.85919 76.7744
9368842 11.4332 17.0778 24.6485 23.6149 1.50149 3.85919 76.7744
9368854 11.442 16.9632 24.6584 23.5857 1.45093 3.88241 76.6492
9368862 11.3891 17.0097 24.6781 23.6052 1.48265 3.88964 76.6821
9368874 11.3891 17.0097 24.6781 23.6052 1.48265 3.88964 76.6821
9368882 11.4596 17 24.7273 23.6636 1.45632 3.89027 76.8505
9368902 11.442 17 24.6781 23.5857 1.45545 3.8762 76.7057
9368919 11.4684 17.0389 24.6584 23.5175 1.44413 3.84737 76.6831
9368922 11.4684 17.0389 24.6584 23.5175 1.44413 3.84737 76.6831
9368933 11.5212 17.0389 24.5796 23.5175 1.45307 3.82292 76.6572
9368943 11.5124 17.0389 24.6091 23.4688 1.43094 3.82228 76.6293
9368963 11.6005 17.0584 24.5796 23.3713 1.38675 3.77734 76.6098
9368973 11.6005 17.0584 24.5796 23.3713 1.38675 3.77734 76.6098
9368983 11.6181 17.0389 24.5796 23.4103 1.3867 3.78349 76.647
9368994 11.6093 17.1264 24.5895 23.3324 1.3893 3.75425 76.6576
9369014 11.6269 17.107 24.5796 23.2739 1.36261 3.74467 76.5875
9369024 11.5829 17.0973 24.6682 23.3032 1.3533 3.77511 76.6515
9369034 11.5829 17.0973 24.6682 23.3032 1.3533 3.77511 76.6515
9369048 11.6798 17.1751 24.6387 23.2544 1.33913 3.72093 76.748
9369055 11.6622 17.214 24.5895 23.2837 1.38307 3.7128 76.7493
9369065 11.6622 17.214 24.5895 23.2837 1.38307 3.7128 76.7493
9369075 11.7062 17.214 24.5796 23.196 1.34431 3.6877 76.6958
9369085 11.7062 17.214 24.5796 23.196 1.34431 3.6877 76.6958
9369095 11.7238 17.1362 24.5599 23.2057 1.32401 3.70092 76.6257
9369104 11.7503 17.1848 24.6288 23.1765 1.2973 3.68847 76.7404
9369126 11.7591 17.1848 24.6091 23.157 1.295 3.68055 76.71
9369136 11.7503 17.107 24.5698 23.196 1.29952 3.7016 76.623
9369156 11.7326 17.214 24.5304 23.1278 1.33109 3.66392 76.6048
9369166 11.7326 17.214 24.5304 23.1278 1.33109 3.66392 76.6048
9369177 11.7415 17.1167 24.5599 23.1668 1.2999 3.69561 76.5848
9369186 11.7855 17.1362 24.5599 23.1278 1.27873 3.67437 76.6094
9369196 11.7855 17.1362 24.5599 23.1278 1.27873 3.67437 76.6094
9369206 11.7855 17.1459 24.5599 23.157 1.29079 3.67632 76.6483
9369217 11.7679 17.1459 24.5698 23.157 1.29346 3.68207 76.6405
9369226 11.7679 17.107 24.5698 23.1862 1.29047 3.69587 76.6309
9369236 11.7679 17.1653 24.6288 23.1765 1.28525 3.68892 76.7385
9369257 11.7415 17.1167 24.5599 23.1473 1.29386 3.69274 76.5654
9369267 11.7679 17.1751 24.5402 23.157 1.31261 3.67059 76.6402
9369287 11.8207 17.2042 24.5107 23.0888 1.29254 3.63616 76.6245
9369297 11.856 17.2042 24.5009 23.0206 1.26272 3.616 76.5817
9369307 11.856 17.2042 24.5009 23.0206 1.26272 3.616 76.5817
9369318 11.8736 17.2626 24.491 23.0791 1.2962 3.60478 76.7063
9369328 11.8736 17.2626 24.491 23.0791 1.2962 3.60478 76.7063
9369338 11.8912 17.282 24.5009 23.0109 1.27172 3.58712 76.685
9369349 11.8824 17.2237 24.5206 23.0109 1.24992 3.60634 76.6375
9369361 11.8824 17.2237 24.5206 23.0109 1.24992 3.60634 76.6375
9369368 11.8648 17.2723 24.4713 23.0401 1.29693 3.59584 76.6485
9369378 11.9176 17.2334 24.4615 22.894 1.22482 3.5692 76.5065
9369389 11.9176 17.2334 24.4615 22.894 1.22482 3.5692 76.5065
9369399 11.9352 17.2723 24.5107 22.9817 1.24121 3.57592 76.6999
9369410 11.9352 17.2723 24.5107 22.9817 1.24121 3.57592 76.6999
9369419 11.9264 17.3112 24.4615 22.8842 1.24294 3.54674 76.5834
9369431 11.9617 17.282 24.5009 22.816 1.18715 3.54096 76.5606
9369440 11.9617 17.282 24.5009 22.816 1.18715 3.54096 76.5606
9369452 12.0145 17.4085 24.4221 22.7868 1.2262 3.48144 76.6319
9369459 12.1114 17.3696 24.4418 22.8063 1.18034 3.47335 76.7291
9369479 12.0674 17.4085 24.4123 22.7771 1.20847 3.46576 76.6652
9369489 12.0674 17.4085 24.4123 22.7771 1.20847 3.46576 76.6652
9369500 12.0497 17.3987 24.3631 22.7381 1.21622 3.45906 76.5497
9369510 12.129 17.496 24.3138 22.7576 1.24215 3.41211 76.6964
9369530 12.0674 17.5349 24.2843 22.7479 1.28241 3.41164 76.6344
9369540 12.1642 17.4668 24.2843 22.7381 1.22511 3.40324 76.6535
9369550 12.1642 17.4668 24.2843 22.7381 1.22511 3.40324 76.6535
9369564 12.1378 17.4279 24.3335 22.816 1.22942 3.43813 76.7153
9369570 12.1378 17.4279 24.3335 22.816 1.22942 3.43813 76.7153
9369581 12.129 17.4474 24.2942 22.7381 1.22777 3.41787 76.6086
9369591 12.085 17.496 24.2843 22.8355 1.29146 3.42999 76.7008
9369611 12.0762 17.4571 24.2843 22.8355 1.28245 3.44146 76.6531
9369621 12.0938 17.5154 24.3335 22.9135 1.30165 3.44236 76.8562
9369642 12.0938 17.5543 24.1957 22.933 1.36688 3.4152 76.7768
9369651 12.0938 17.5543 24.1957 22.933 1.36688 3.4152 76.7768
9369661 12.0674 17.5349 24.1465 22.855 1.36288 3.407 76.6038
9369671 12.0409 17.5933 24.1367 22.8258 1.38434 3.39341 76.5966
9369681 12.0409 17.5933 24.1367 22.8258 1.38434 3.39341 76.5966
9369692 12.1026 17.5154 24.1367 22.8745 1.35415 3.40467 76.6292
9369705 12.0321 17.5543 24.0481 22.7868 1.39391 3.38552 76.4214
9369712 12.0321 17.5543 24.0481 22.7868 1.39391 3.38552 76.4214
9369722 12.0585 17.5446 24.0382 22.816 1.39421 3.38445 76.4574
9369742 12.085 17.5349 24.0874 22.8453 1.37414 3.39234 76.5526
9369752 12.0409 17.5154 24.1071 22.8745 1.38555 3.41502 76.538
9369763 12.0409 17.5154 24.1071 22.8745 1.38555 3.41502 76.538
9369773 12.0762 17.6419 24.0973 22.933 1.43371 3.38356 76.7483
9369783 12.0585 17.5446 24.0776 23.0011 1.43764 3.41845 76.6819
9369795 12.0585 17.5446 24.0776 23.0011 1.43764 3.41845 76.6819
9369803 12.0233 17.5738 24.1465 22.9719 1.42602 3.4259 76.7155
9369814 12.0233 17.5738 24.1465 22.9719 1.42602 3.4259 76.7155
9369823 12.0497 17.6322 24.1071 22.8745 1.41847 3.38487 76.6635
9369834 12.0233 17.6224 24.0382 22.9719 1.4783 3.39786 76.6559
9369843 12.0233 17.6224 24.0382 22.9719 1.4783 3.39786 76.6559
9369854 12.085 17.6322 24.0973 22.9135 1.4217 3.38084 76.7279
9369863 12.085 17.6711 24.0776 22.8648 1.42547 3.36115 76.6984
9369876 12.085 17.6711 24.0776 22.8648 1.42547 3.36115 76.6984
9369883 12.0233 17.6322 24.1367 22.9135 1.42938 3.40158 76.7056
9369896 12.0233 17.6322 24.1367 22.9135 1.42938 3.40158 76.7056
9369903 12.0233 17.5738 24.1071 22.933 1.42761 3.41406 76.6372
9369913 12.0321 17.5933 24.117 22.9232 1.42416 3.40729 76.6656
9369923 12.0321 17.5933 24.117 22.9232 1.42416 3.40729 76.6656
9369933 12.0497 17.5835 24.0677 22.9817 1.45003 3.40679 76.6827
9369943 12.0585 17.5835 24.1071 22.933 1.41845 3.40327 76.6822
9369953 12.0585 17.5835 24.1071 22.933 1.41845 3.40327 76.6822
9369963 12.0233 17.5933 24.2056 22.933 1.39969 3.42426 76.7551
9369975 12.0233 17.5933 24.2056 22.933 1.39969 3.42426 76.7551
9369985 11.9881 17.5252 24.1563 22.9524 1.41382 3.44461 76.622
9369994 11.9617 17.5057 24.176 22.9524 1.41015 3.45862 76.5958
9370004 11.9617 17.5057 24.176 22.9524 1.41015 3.45862 76.5958
9370014 12.0057 17.5057 24.1367 22.894 1.39053 3.43325 76.5421
9370025 11.9793 17.496 24.1563 22.933 1.40187 3.45082 76.5646
9370035 11.9793 17.496 24.1563 22.933 1.40187 3.45082 76.5646
9370045 12.0233 17.5252 24.1957 22.9622 1.39112 3.44353 76.7064
9370064 11.9881 17.5154 24.1563 22.8258 1.37176 3.42782 76.4857
9370075 11.9969 17.5835 24.176 22.8355 1.38596 3.41377 76.592
9370086 11.9969 17.5835 24.176 22.8355 1.38596 3.41377 76.592
9370096 12.0674 17.5835 24.2056 22.8745 1.36356 3.4072 76.7309
9370107 12.0409 17.496 24.2252 22.8745 1.33888 3.43755 76.6367
9370126 12.0409 17.5349 24.1957 22.8355 1.34902 3.41785 76.6071
9370146 12.0674 17.5835 24.2056 22.8258 1.34855 3.39984 76.6822
9370158 12.0409 17.5057 24.2056 22.8648 1.34565 3.43077 76.617
9370165 12.0409 17.5057 24.2056 22.8648 1.34565 3.43077 76.617
9370183 12.085 17.5349 24.2646 22.7771 1.29217 3.40885 76.6616
9370192 12.085 17.5835 24.2056 22.8453 1.34851 3.39856 76.7193
9370208 12.0233 17.4668 24.2646 22.816 1.30433 3.44593 76.5708
9370217 12.0233 17.4668 24.2646 22.816 1.30433 3.44593 76.5708
9370228 12.0585 17.5154 24.2548 22.8355 1.31667 3.42721 76.6643
9370238 12.085 17.496 24.2449 22.8745 1.317 3.42993 76.7004
9370248 12.085 17.496 24.2449 22.8745 1.317 3.42993 76.7004
9370258 12.0321 17.4279 24.2351 22.7966 1.29336 3.44579 76.4917
9370268 12.1026 17.4279 24.3335 22.8355 1.2475 3.44954 76.6996
9370278 12.1026 17.4279 24.3335 22.8355 1.2475 3.44954 76.6996
9370290 12.0938 17.4376 24.3335 22.8355 1.25353 3.44932 76.7005
9370311 12.0674 17.3696 24.3926 22.7381 1.19101 3.4663 76.5676
9370319 12.0409 17.3209 24.3827 22.7576 1.19436 3.48587 76.5022
9370332 12.0409 17.3209 24.3827 22.7576 1.19436 3.48587 76.5022
9370338 12.0585 17.3112 24.432 22.7966 1.18059 3.49722 76.5983
9370348 12.0585 17.3112 24.432 22.7868 1.17756 3.49576 76.5885
9370358 12.0585 17.3112 24.432 22.7868 1.17756 3.49576 76.5885
9370370 12.0321 17.3598 24.5796 22.7771 1.14829 3.51109 76.7487
9370389 12.0938 17.2918 24.5206 22.855 1.15047 3.51546 76.7611
9370398 11.9969 17.2723 24.5698 22.8745 1.16673 3.55382 76.7135
9370409 11.9969 17.2723 24.5698 22.8745 1.16673 3.55382 76.7135
9370418 12.0233 17.2334 24.5402 22.816 1.1375 3.5437 76.613
9370431 12.0321 17.2334 24.5501 22.9135 1.16145 3.55759 76.7291
9370453 12.0145 17.2334 24.5402 22.9135 1.17081 3.56038 76.7016
9370469 11.9617 17.1945 24.6288 22.9427 1.15561 3.60014 76.7277
9370478 11.9617 17.1167 24.5895 22.9719 1.15394 3.61752 76.6397
9370488 11.9617 17.1167 24.5895 22.9719 1.15394 3.61752 76.6397
9370498 11.9528 17.1459 24.6879 23.0011 1.14155 3.6315 76.7878
9370508 11.9088 17.0681 24.6682 23.0499 1.15422 3.6654 76.695
9370519 11.9088 17.0681 24.6682 23.0499 1.15422 3.6654 76.695
9370531 11.8824 17.0973 24.6682 23.0693 1.17835 3.66761 76.7172
9370539 11.8824 17.0973 24.6682 23.0693 1.17835 3.66761 76.7172
9370549 11.8824 17.0973 24.6977 23.0986 1.17736 3.67628 76.7759
9370559 11.8207 17.0681 24.6781 23.1278 1.20513 3.69981 76.6946
9370579 11.8207 17.0778 24.7371 23.1473 1.19403 3.709 76.7829
9370589 11.7679 17.0486 24.806 23.1668 1.18555 3.74198 76.7893
9370611 11.7943 17.0584 24.747 23.157 1.19668 3.72307 76.7566
9370621 11.7943 17.0584 24.747 23.157 1.19668 3.72307 76.7566
9370632 11.7238 16.9816 24.7371 23.157 1.20029 3.7576 76.5996
9370642 11.7062 16.9632 24.8257 23.2252 1.19149 3.78939 76.7203
9370651 11.7062 16.9632 24.8257 23.2252 1.19149 3.78939 76.7203
9370665 11.7062 16.8803 24.8552 23.235 1.15869 3.81544 76.6767
9370671 11.671 16.825 24.9045 23.3129 1.16097 3.85617 76.7134
9370691 11.6269 16.8434 24.9537 23.2739 1.15282 3.86396 76.698
9370714 11.5124 16.7237 25.0127 23.3129 1.14661 3.93593 76.5618
9370722 11.4948 16.7237 25.1309 23.4006 1.13961 3.96995 76.75
9370734 11.4948 16.7237 25.1309 23.4006 1.13961 3.96995 76.75
9370742 11.5212 16.5764 25.2096 23.4493 1.07314 4.01815 76.7565
9370755 11.5124 16.5395 25.2982 23.537 1.0619 4.05462 76.8871
9370762 11.5124 16.5395 25.2982 23.537 1.0619 4.05462 76.8871
9370776 11.486 16.5027 25.2293 23.537 1.08278 4.06049 76.755
9370783 11.4772 16.5119 25.2588 23.4883 1.06342 4.05766 76.7362
9370797 11.4772 16.5119 25.2588 23.4883 1.06342 4.05766 76.7362
9370803 11.5301 16.4475 25.2588 23.5077 1.03145 4.06332 76.7441
9370813 11.5301 16.4475 25.2588 23.5077 1.03145 4.06332 76.7441
9370823 11.5301 16.4935 25.2588 23.4883 1.03974 4.04911 76.7706
9370839 11.5829 16.4843 25.1407 23.498 1.06207 4.0228 76.7059
9370844 11.5829 16.4843 25.1407 23.498 1.06207 4.0228 76.7059
9370858 11.5565 16.4659 25.0816 23.5564 1.10363 4.03384 76.6604
9370865 11.5124 16.558 25.0423 23.5857 1.16982 4.02047 76.6983
9370880 11.5124 16.558 25.0423 23.5857 1.16982 4.02047 76.6983
9370885 11.5565 16.5856 24.9537 23.6441 1.21174 3.99839 76.7399
9370906 11.5124 16.5303 24.9537 23.6636 1.2157 4.0258 76.6601
9370915 11.5212 16.5856 24.8946 23.8487 1.30723 4.02793 76.8502
9370936 11.5212 16.5395 24.8552 23.8097 1.29448 4.02815 76.7258
9370948 11.4684 16.5303 24.8749 23.8974 1.33007 4.05887 76.7711
9370955 11.4684 16.5303 24.8749 23.8974 1.33007 4.05887 76.7711
9370965 11.3891 16.5395 24.8257 23.9266 1.38606 4.07344 76.681
9370974 11.3891 16.5395 24.8257 23.9266 1.38606 4.07344 76.681
9370984 11.3803 16.4659 24.8257 23.9169 1.36337 4.09259 76.5888
9370994 11.3627 16.3738 24.934 24.063 1.34887 4.15605 76.7335
9371016 11.4067 16.4198 24.8946 24.1507 1.38841 4.14042 76.8719
9371026 11.3539 16.383 24.9438 24.141 1.37534 4.16834 76.8217
9371036 11.3539 16.383 24.9438 24.141 1.37534 4.16834 76.8217
9371046 11.3098 16.3277 24.9931 24.3163 1.41044 4.22469 76.947
9371057 11.3098 16.3277 24.9931 24.3163 1.41044 4.22469 76.947
9371066 11.2482 16.2817 24.9931 24.2579 1.39955 4.24345 76.7808
9371076 11.2306 16.2817 25.0423 24.2968 1.40066 4.26021 76.8514
9371086 11.2306 16.2817 25.0423 24.2968 1.40066 4.26021 76.8514
9371096 11.1865 16.2541 25.0718 24.3358 1.40913 4.28774 76.8482
9371106 11.1601 16.2449 25.1013 24.3261 1.40224 4.29945 76.8324
9371116 11.1601 16.2449 25.1013 24.3261 1.40224 4.29945 76.8324
9371126 11.1337 16.2449 25.1998 24.3358 1.38051 4.32113 76.9141
9371136 11.1337 16.2449 25.1998 24.3358 1.38051 4.32113 76.9141
9371146 10.9927 16.0975 25.1112 24.404 1.43515 4.39099 76.6054
9371156 10.9927 16.162 25.1506 24.5307 1.48021 4.39765 76.8359
9371167 10.9927 16.162 25.1506 24.5307 1.48021 4.39765 76.8359
9371176 10.9487 16.1159 25.2195 24.5112 1.45157 4.42722 76.7953
9371186 10.9487 16.1159 25.2195 24.5112 1.45157 4.42722 76.7953
9371196 10.8694 16.1528 25.249 24.5989 1.50683 4.45407 76.87
9371206 10.799 16.1988 25.2982 24.667 1.54902 4.47634 76.963
9371216 10.799 16.1988 25.2982 24.667 1.54902 4.47634 76.963
9371226 10.7197 16.1436 25.3474 24.6573 1.53957 4.51582 76.868
9371236 10.7109 16.1251 25.3474 24.706 1.55185 4.52938 76.8895
9371246 10.7109 16.1251 25.3474 24.706 1.55185 4.52938 76.8895
9371256 10.6228 16.1528 25.4163 24.8034 1.59655 4.56733 76.9953
9371278 10.5611 16.0607 25.4163 24.8327 1.59874 4.61043 76.8708
9371287 10.5259 16.1159 25.3868 24.9398 1.67051 4.61581 76.9685
9371297 10.5259 16.1159 25.3868 24.9398 1.67051 4.61581 76.9685
9371307 10.4731 16.0515 25.3966 24.9983 1.6836 4.65495 76.9194
9371317 10.385 16.0699 25.4655 25.008 1.69878 4.68332 76.9284
9371327 10.385 16.0699 25.4655 25.008 1.69878 4.68332 76.9284
9371337 10.3585 16.0699 25.4852 25.0567 1.71586 4.69925 76.9704
9371347 10.3585 16.0699 25.4852 25.0567 1.71586 4.69925 76.9704
9371357 10.2793 16.0515 25.4163 25.1054 1.77655 4.72158 76.8525
9371367 10.2969 16.1343 25.4262 25.1542 1.80669 4.70366 77.0116
9371378 10.2969 16.1343 25.4262 25.1542 1.80669 4.70366 77.0116
9371387 10.2969 16.1251 25.4163 25.0957 1.78972 4.69688 76.9341
9371397 10.2705 16.0791 25.4065 25.1249 1.79728 4.71805 76.881
9371418 10.2705 16.1436 25.377 25.1347 1.82995 4.69888 76.9256
9371428 10.2705 16.1436 25.377 25.1347 1.82995 4.69888 76.9256
9371438 10.2176 16.1159 25.3868 25.1347 1.83663 4.72082 76.855
9371448 10.2969 16.1528 25.3573 25.086 1.81569 4.68059 76.8929
9371472 10.3057 16.1804 25.2588 25.086 1.85532 4.65803 76.8309
9371482 10.3497 16.2449 25.2391 25.0567 1.85741 4.62371 76.8905
9371488 10.3497 16.2449 25.2391 25.0567 1.85741 4.62371 76.8905
9371498 10.4026 16.2817 25.1801 25.0957 1.88238 4.59813 76.9601
9371508 10.4026 16.2817 25.1801 25.0957 1.88238 4.59813 76.9601
9371518 10.3938 16.2909 25.1702 25.0957 1.89166 4.5967 76.9506
9371532 10.429 16.3646 25.1112 25.047 1.90749 4.55439 76.9518
9371539 10.429 16.3646 25.1112 25.047 1.90749 4.55439 76.9518
9371551 10.4819 16.4198 24.9537 24.9496 1.93147 4.4922 76.8049
9371559 10.5523 16.4198 24.8749 24.9398 1.93145 4.4622 76.7869
9371571 10.5523 16.4198 24.8749 24.9398 1.93145 4.4622 76.7869
9371579 10.6492 16.4935 24.8356 24.9301 1.93048 4.41231 76.9084
9371591 10.6492 16.4935 24.8356 24.9301 1.93048 4.41231 76.9084
9371599 10.6052 16.4843 24.747 24.8327 1.94499 4.40011 76.6691
9371610 10.6228 16.5672 24.6584 24.8424 1.99777 4.36379 76.6908
9371619 10.6228 16.5672 24.6584 24.8424 1.99777 4.36379 76.6908
9371631 10.6316 16.5211 24.7273 24.9203 1.98 4.39351 76.8003
9371639 10.7021 16.5395 24.7076 24.9398 1.97353 4.37106 76.889
9371651 10.7021 16.5395 24.7076 24.9398 1.97353 4.37106 76.889
9371659 10.6668 16.5948 24.7765 24.9593 1.98408 4.37823 76.9974
9371669 10.6668 16.5948 24.7765 24.9593 1.98408 4.37823 76.9974
9371679 10.658 16.5303 24.7666 24.9301 1.96258 4.3913 76.8851
9371692 10.658 16.4935 24.8454 24.8619 1.90348 4.40205 76.8588
9371699 10.658 16.4935 24.8454 24.8619 1.90348 4.40205 76.8588
9371709 10.614 16.4935 24.8552 24.9106 1.93008 4.42124 76.8733
9371719 10.6316 16.5211 24.8159 24.8716 1.9343 4.39902 76.8402
9371729 10.6316 16.5211 24.8159 24.8716 1.9343 4.39902 76.8402
9371739 10.6933 16.4567 24.7962 24.8716 1.90023 4.39701 76.8177
9371749 10.6933 16.4567 24.7962 24.8716 1.90023 4.39701 76.8177
9371759 10.6492 16.4198 24.8848 24.7547 1.83831 4.41355 76.7085
9371769 10.7021 16.4567 24.7962 24.7742 1.86781 4.38132 76.7291
9371779 10.7021 16.4567 24.7962 24.7742 1.86781 4.38132 76.7291
9371789 10.7461 16.4567 24.9143 24.706 1.79056 4.37711 76.8231
9371811 10.6933 16.4475 24.9045 24.6865 1.80377 4.38872 76.7317
9371821 10.7285 16.4567 24.9143 24.6573 1.78198 4.37481 76.7568
9371841 10.7902 16.4659 24.9832 24.6281 1.73045 4.36244 76.8673
9371851 10.8518 16.5764 24.9143 24.4917 1.72513 4.29063 76.8342
9371871 10.9135 16.558 24.9241 24.443 1.67993 4.27436 76.8386
9371881 10.9311 16.5395 24.9241 24.3845 1.65046 4.26639 76.7793
9371892 10.9311 16.5395 24.9241 24.3845 1.65046 4.26639 76.7793
9371903 10.9311 16.604 24.9143 24.3748 1.6705 4.24749 76.8242
9371912 10.9311 16.604 24.9143 24.3748 1.6705 4.24749 76.8242
9371923 10.9927 16.5856 24.8749 24.2481 1.61863 4.21336 76.7014
9371933 11.0192 16.6316 24.8356 24.1897 1.61934 4.18144 76.676
9371943 11.0192 16.6316 24.8356 24.1897 1.61934 4.18144 76.676
9371953 11.1337 16.6224 24.8552 24.1312 1.55219 4.14966 76.7426
9371963 11.1513 16.6316 24.8749 24.1312 1.5421 4.14575 76.7891
9371973 11.1513 16.6316 24.8749 24.1312 1.5421 4.14575 76.7891
9371983 11.213 16.7329 24.8257 24.0338 1.53898 4.08441 76.8054
9371993 11.213 16.7329 24.8257 24.0338 1.53898 4.08441 76.8054
9372006 11.2041 16.7145 24.7962 23.9851 1.53171 4.08005 76.6999
9372013 11.2306 16.7145 24.8159 24.0046 1.52173 4.07905 76.7655
9372023 11.2306 16.7145 24.8159 24.0046 1.52173 4.07905 76.7655
9372034 11.301 16.7514 24.7273 23.8974 1.50647 4.02447 76.6771
9372045 11.3363 16.779 24.6584 23.8585 1.51464 3.99341 76.6321
9372065 11.4772 16.779 24.6682 23.839 1.4566 3.95716 76.7634
9372074 11.4684 16.8066 24.6682 23.7318 1.43522 3.93707 76.675
9372086 11.4684 16.8066 24.6682 23.7318 1.43522 3.93707 76.675
9372101 11.4684 16.8066 24.6879 23.7903 1.44638 3.94834 76.7532
9372109 11.4684 16.8066 24.6879 23.7903 1.44638 3.94834 76.7532
9372122 11.4332 16.8434 24.6879 23.7221 1.4489 3.93811 76.6866
9372126 11.4772 16.779 24.6682 23.7513 1.42968 3.94453 76.6757
9372136 11.4772 16.779 24.6682 23.7513 1.42968 3.94453 76.6757
9372146 11.4596 16.8066 24.6288 23.7221 1.44885 3.93216 76.6171
9372156 11.5477 16.7974 24.6091 23.7123 1.41943 3.90843 76.6665
9372177 11.5477 16.7974 24.5599 23.7123 1.4364 3.90131 76.6173
9372196 11.5741 16.8066 24.5796 23.6539 1.40534 3.8869 76.6142
9372208 11.5829 16.8066 24.6584 23.7123 1.39319 3.9046 76.7602
9372216 11.5829 16.8066 24.6584 23.7123 1.39319 3.9046 76.7602
9372230 11.5741 16.8711 24.619 23.6734 1.41761 3.87956 76.7375
9372237 11.6093 16.8619 24.5993 23.7123 1.4214 3.87595 76.7828
9372247 11.6093 16.8619 24.5993 23.7123 1.4214 3.87595 76.7828
9372257 11.5829 16.8434 24.6387 23.6734 1.39931 3.88704 76.7384
9372278 11.5829 16.825 24.5796 23.7415 1.43494 3.8929 76.7291
9372287 11.6269 16.7514 24.5895 23.6734 1.37273 3.89175 76.6411
9372298 11.6269 16.7514 24.5895 23.6734 1.37273 3.89175 76.6411
9372307 11.6358 16.8527 24.619 23.6441 1.38174 3.86469 76.7515
9372320 11.6181 16.8342 24.5599 23.5662 1.37844 3.85364 76.5785
9372342 11.6181 16.8987 24.5304 23.6636 1.43844 3.84766 76.7108
9372358 11.5829 16.8803 24.5304 23.5662 1.41496 3.84668 76.5598
9372368 11.6534 16.9355 24.5599 23.5954 1.40651 3.82435 76.7442
9372407 11.6622 16.9079 24.5599 23.5954 1.39498 3.82896 76.7254
9372411 11.6005 17 24.5107 23.6052 1.46446 3.81575 76.7164
9372413 11.6005 17 24.5107 23.6052 1.46446 3.81575 76.7164
9372422 11.6534 16.954 24.5796 23.5857 1.4024 3.82128 76.7726
9372431 11.6534 16.954 24.5796 23.5857 1.4024 3.82128 76.7726
9372439 11.6358 16.9355 24.6091 23.5467 1.38065 3.82874 76.7271
9372451 11.6005 16.9263 24.5796 23.537 1.3971 3.83394 76.6434
9372461 11.6005 16.9263 24.5796 23.537 1.3971 3.83394 76.6434
9372471 11.6622 16.9171 24.5206 23.4883 1.37836 3.80533 76.5881
9372481 11.6622 16.9263 24.5107 23.5175 1.3936 3.8059 76.6167
9372491 11.6622 16.9263 24.5107 23.5175 1.3936 3.8059 76.6167
9372501 11.6798 17.0195 24.5304 23.5077 1.40642 3.78021 76.7374
9372511 11.6798 17.0195 24.5304 23.5077 1.40642 3.78021 76.7374
9372521 11.6886 16.9816 24.5501 23.5077 1.38496 3.7902 76.728
9372532 11.6798 17.0389 24.491 23.5272 1.43194 3.77254 76.7369
9372541 11.6798 17.0389 24.491 23.5272 1.43194 3.77254 76.7369
9372551 11.6974 17.0486 24.4615 23.4103 1.40308 3.74439 76.6178
9372561 11.7415 17.1167 24.4812 23.3908 1.3961 3.71702 76.7302
9372571 11.7415 17.1167 24.4812 23.3908 1.3961 3.71702 76.7302
9372581 11.7767 17.0681 24.4024 23.3616 1.3871 3.7044 76.6088
9372591 11.7767 17.0681 24.4024 23.3616 1.3871 3.7044 76.6088
9372601 11.7503 17.0292 24.3729 23.2739 1.36731 3.70306 76.4263
9372611 11.7767 17.0195 24.3926 23.3324 1.36647 3.71051 76.5211
9372621 11.7767 17.0195 24.3926 23.3324 1.36647 3.71051 76.5211
9372631 11.8031 17.0875 24.4024 23.3421 1.37799 3.69032 76.6352
9372641 11.7767 17.0292 24.4221 23.3519 1.36532 3.71536 76.5798
9372652 11.7767 17.0292 24.4221 23.3519 1.36532 3.71536 76.5798
9372661 11.8207 17.0778 24.4221 23.3811 1.37417 3.69705 76.7017
9372671 11.8207 17.0778 24.4221 23.3811 1.37417 3.69705 76.7017
9372681 11.8383 17.0875 24.4517 23.3519 1.35196 3.69043 76.7294
9372691 11.8295 17.0875 24.4615 23.3616 1.35461 3.69547 76.7402
9372701 11.8295 17.0875 24.4615 23.3616 1.35461 3.69547 76.7402
9372711 11.8383 17.107 24.4221 23.3421 1.3651 3.6799 76.7096
9372721 11.8207 17.1167 24.4024 23.3226 1.37492 3.67604 76.6625
9372732 11.8207 17.1167 24.4024 23.3226 1.37492 3.67604 76.6625
9372742 11.8295 17.1459 24.3434 23.3616 1.4132 3.66382 76.6804
9372754 11.8295 17.1459 24.3434 23.3616 1.4132 3.66382 76.6804
9372767 11.8031 17.0973 24.3926 23.2934 1.36936 3.6793 76.5864
9372772 11.7855 17.0389 24.4024 23.3616 1.37507 3.70937 76.5884
9372782 11.7855 17.0389 24.4024 23.3616 1.37507 3.70937 76.5884
9372792 11.8471 17.1264 24.3631 23.3421 1.38837 3.6643 76.6788
9372802 11.8295 17.0973 24.3926 23.3324 1.37228 3.67862 76.6517
9372812 11.8295 17.0973 24.3926 23.3324 1.37228 3.67862 76.6517
9372824 11.8295 17.0875 24.3926 23.4103 1.39329 3.69249 76.72
9372843 11.7767 17.1459 24.3926 23.3616 1.41445 3.68396 76.6768
9372854 11.8471 17.0875 24.3926 23.3032 1.35421 3.67238 76.6304
9372864 11.8471 17.0875 24.3926 23.3032 1.35421 3.67238 76.6304
9372873 11.7679 17.0778 24.3631 23.3324 1.3977 3.69405 76.5411
9372885 11.7943 17.1556 24.3335 23.3908 1.44071 3.6729 76.6743
9372905 11.7943 17.1653 24.3532 23.3421 1.42194 3.66624 76.655
9372914 11.7943 17.1653 24.3532 23.3421 1.42194 3.66624 76.655
9372928 11.7855 17.107 24.3631 23.3519 1.40662 3.6855 76.6074
9372934 11.7943 17.0973 24.4024 23.3032 1.37201 3.68435 76.5971
9372954 11.8207 17.1459 24.3926 23.2837 1.37529 3.66172 76.6429
9372964 11.8295 17.0389 24.4024 23.3324 1.35089 3.6943 76.6032
9372974 11.8295 17.0389 24.4024 23.3324 1.35089 3.6943 76.6032
9372984 11.8383 17.1167 24.3631 23.4103 1.40939 3.67888 76.7284
9372994 11.8383 17.1167 24.3631 23.4103 1.40939 3.67888 76.7284
9373007 11.8295 17.1653 24.3138 23.3421 1.42336 3.65184 76.6508
9373015 11.8648 17.1264 24.3138 23.3713 1.40825 3.65706 76.6764
9373035 11.856 17.1264 24.304 23.3421 1.40568 3.65342 76.6285
9373045 11.9088 17.107 24.1957 23.3324 1.4158 3.62778 76.5439
9373059 11.9088 17.107 24.1957 23.3324 1.4158 3.62778 76.5439
9373066 11.9881 17.1167 24.2252 23.3324 1.3813 3.61054 76.6624
9373079 11.9617 17.0875 24.1465 23.3421 1.41156 3.61379 76.5378
9373100 12.0409 17.1653 24.1367 23.3519 1.41457 3.57565 76.6948
9373107 12.0409 17.1653 24.1367 23.3519 1.41457 3.57565 76.6948
9373117 11.9705 17.107 24.0874 23.3226 1.4289 3.59522 76.4875
9373127 11.9881 17.1459 24.1859 23.3421 1.40684 3.59905 76.662
9373137 11.9881 17.1459 24.1859 23.3421 1.40684 3.59905 76.662
9373147 11.9881 17.2237 24.1465 23.2642 1.42037 3.56271 76.6224
9373157 11.944 17.107 24.2056 23.3226 1.39725 3.61923 76.5792
9373168 11.944 17.107 24.2056 23.3226 1.39725 3.61923 76.5792
9373177 12.0233 17.1556 24.1465 23.4006 1.42923 3.59099 76.726
9373198 11.9264 17.1167 24.1662 23.2934 1.4109 3.61094 76.5027
9373208 12.0409 17.1653 24.0973 23.4103 1.4461 3.57849 76.7139
9373228 12.0145 17.1848 24.1563 23.3616 1.42587 3.58172 76.7172
9373238 12.0145 17.1362 24.0776 23.3616 1.43807 3.58178 76.5899
9373248 12.0145 17.1362 24.0776 23.3616 1.43807 3.58178 76.5899
9373260 12.0321 17.1945 24.0481 23.3226 1.44814 3.55314 76.5973
9373268 12.0321 17.1945 24.0481 23.3226 1.44814 3.55314 76.5973
9373280 12.0409 17.0973 24.0874 23.2642 1.38354 3.57173 76.4898
9373290 12.0585 17.1945 24.0874 23.2934 1.41645 3.54826 76.6339
9373299 12.0585 17.1945 24.0874 23.2934 1.41645 3.54826 76.6339
9373308 12.0938 17.2042 24.1465 23.3032 1.38998 3.54766 76.7477
9373319 12.0674 17.1848 24.1268 23.3129 1.40285 3.55727 76.6918
9373329 12.0674 17.1848 24.1268 23.3129 1.40285 3.55727 76.6918
9373341 12.0762 17.1848 24.176 23.3226 1.38589 3.56393 76.7596
9373350 12.0762 17.1848 24.176 23.3226 1.38589 3.56393 76.7596
9373360 12.0674 17.1167 24.1071 23.3032 1.38567 3.56937 76.5943
9373369 12.1026 17.1167 24.1465 23.2544 1.34497 3.55943 76.6202
9373381 12.1026 17.1167 24.1465 23.2544 1.34497 3.55943 76.6202
9373389 12.0585 17.1653 24.117 23.2447 1.38228 3.55246 76.5855
9373404 12.1114 17.1264 24.1071 23.2837 1.3675 3.55343 76.6286
9373409 12.1114 17.1264 24.1071 23.2837 1.3675 3.55343 76.6286
9373419 12.0938 17.1264 24.1071 23.3032 1.37957 3.56061 76.6305
9373439 12.0497 17.0778 24.1367 23.3129 1.37257 3.58893 76.5771
9373449 12.0938 17.107 24.2056 23.3616 1.35774 3.58869 76.7679
9373459 12.0938 17.107 24.2056 23.3616 1.35774 3.58869 76.7679
9373470 12.1026 17.1556 24.0874 23.3324 1.4013 3.55283 76.678
9373480 12.1202 17.0973 24.1465 23.3811 1.37196 3.57876 76.745
9373491 12.1202 17.0973 24.1465 23.3811 1.37196 3.57876 76.745
9373501 12.1114 17.0778 24.1859 23.4395 1.37346 3.60014 76.8146
9373512 12.1114 17.0778 24.1859 23.4395 1.37346 3.60014 76.8146
9373521 12.0674 17.0681 24.1957 23.4201 1.37622 3.61174 76.7512
9373531 12.0938 17.0292 24.1957 23.3713 1.34014 3.60753 76.69
9373551 12.0321 17.0584 24.2449 23.3129 1.33538 3.61404 76.6483
9373561 12.0233 17.0097 24.1957 23.2739 1.32826 3.61489 76.5027
9373572 12.0233 17.0097 24.1957 23.2739 1.32826 3.61489 76.5027
9373582 12.0497 17.0195 24.1957 23.3129 1.33423 3.6119 76.5778
9373602 12.0145 16.9816 24.2154 23.3129 1.32787 3.63261 76.5244
9373626 12.0409 17.0486 24.2351 23.2837 1.32371 3.60846 76.6083
9373628 12.0409 17.0486 24.2351 23.2837 1.32371 3.60846 76.6083
9373632 12.0762 17.0097 24.2843 23.3032 1.28872 3.61956 76.6734
9373642 12.0585 17.0195 24.2843 23.2739 1.28873 3.61714 76.6362
9373652 12.0585 17.0195 24.2843 23.2739 1.28873 3.61714 76.6362
9373662 12.0938 17.0486 24.3335 23.2934 1.27483 3.6117 76.7693
9373672 12.0938 17.0486 24.3335 23.2934 1.27483 3.6117 76.7693
9373682 12.0674 17.0292 24.3237 23.2739 1.27521 3.61848 76.6941
9373695 12.1114 17.0486 24.304 23.2155 1.2548 3.59147 76.6795
9373703 12.1114 17.0486 24.304 23.2155 1.2548 3.59147 76.6795
9373712 12.1378 17.0681 24.2154 23.235 1.28815 3.57005 76.6563
9373722 12.1378 17.0681 24.1859 23.1765 1.28019 3.55692 76.5683
9373732 12.1378 17.0681 24.1859 23.1765 1.28019 3.55692 76.5683
9373742 12.1554 17.0097 24.1662 23.1375 1.25072 3.55803 76.4689
9373763 12.2347 17.1264 24.0874 23.1375 1.28673 3.49877 76.5861
9373773 12.2171 17.1459 24.1367 23.1278 1.27889 3.50426 76.6274
9373800 12.2435 17.1264 24.0874 23.0986 1.27163 3.49079 76.556
9373804 12.2347 17.1848 24.0579 23.0888 1.29985 3.47292 76.5662
9373817 12.2347 17.1848 24.0579 23.0888 1.29985 3.47292 76.5662
9373830 12.2699 17.2042 24.0481 23.1083 1.30318 3.46119 76.6306
9373834 12.2699 17.2042 24.0481 23.1083 1.30318 3.46119 76.6306
9373845 12.2611 17.214 23.9988 23.0986 1.32311 3.45208 76.5725
9373854 12.2611 17.2626 24.0087 23.1668 1.35579 3.45214 76.6992
9373863 12.2611 17.2626 24.0087 23.1668 1.35579 3.45214 76.6992
9373875 12.3052 17.2237 23.9792 23.0791 1.31172 3.43322 76.5871
9373883 12.3052 17.2237 23.9792 23.0791 1.31172 3.43322 76.5871
9373896 12.2347 17.2042 23.9792 23.1375 1.348 3.4637 76.5556
9373903 12.2259 17.1945 24.0185 23.1668 1.34352 3.47851 76.6057
9373913 12.2259 17.1945 24.0185 23.1668 1.34352 3.47851 76.6057
9373923 12.2171 17.1362 24.0874 23.1473 1.2988 3.50214 76.588
9373934 12.1378 17.1264 24.1563 23.1765 1.30839 3.53837 76.5971
9373954 12.1819 17.1459 24.1268 23.2642 1.3365 3.53171 76.7187
9373964 12.0762 17.1167 24.2154 23.2057 1.31532 3.56885 76.614
9373977 12.0762 17.1167 24.2154 23.2057 1.31532 3.56885 76.614
9373986 12.0585 17.0681 24.2745 23.2447 1.2981 3.59952 76.6458
9373998 12.0585 17.0681 24.2745 23.2447 1.2981 3.59952 76.6458
9374011 12.0057 17.0486 24.2646 23.2642 1.31964 3.61851 76.5831
9374021 12.0674 17.0486 24.3138 23.2155 1.26652 3.60361 76.6453
9374038 12.0409 17.0584 24.3138 23.235 1.28462 3.61056 76.6481
9374049 12.0409 16.954 24.2942 23.2155 1.25298 3.63013 76.5045
9374058 12.0409 16.954 24.2942 23.2155 1.25298 3.63013 76.5045
9374070 11.9969 16.9908 24.4024 23.2934 1.26653 3.65949 76.6835
9374087 11.9969 16.9447 24.3729 23.3421 1.27747 3.67353 76.6567
9374102 11.9881 17 24.3926 23.2934 1.27577 3.65793 76.6741
9374108 11.9881 17 24.3926 23.2934 1.27577 3.65793 76.6741
9374118 11.9969 16.9908 24.3926 23.3032 1.27292 3.65947 76.6834
9374131 11.9881 16.9908 24.432 23.3421 1.2745 3.67319 76.753
9374138 11.9881 16.9908 24.432 23.3421 1.2745 3.67319 76.753
9374149 11.9264 17.0097 24.3335 23.2934 1.32021 3.66184 76.5631
9374160 11.9793 17.0097 24.3532 23.3324 1.30735 3.65765 76.6746
9374169 11.9793 17.0097 24.3532 23.3324 1.30735 3.65765 76.6746
9374179 12.0233 17.0584 24.3237 23.3616 1.3264 3.63508 76.767
9374204 12.0057 17.0681 24.2745 23.3226 1.34032 3.62393 76.6709
9374211 12.0321 17.0875 24.2646 23.3032 1.33462 3.60844 76.6874
9374219 12.0321 17.0875 24.2646 23.3032 1.33462 3.60844 76.6874
9374233 12.0233 17.1167 24.2056 23.2642 1.35492 3.58891 76.6098
9374243 12.0057 17.0875 24.2056 23.2642 1.35198 3.60027 76.563
9374252 12.0057 17.0875 24.2056 23.2642 1.35198 3.60027 76.563
9374261 11.9793 17.1556 24.2154 23.2739 1.3817 3.59308 76.6242
9374271 11.9793 17.1556 24.2154 23.2739 1.3817 3.59308 76.6242
9374281 12.0233 17.1848 24.2154 23.2155 1.35751 3.56661 76.639
9374292 12.0233 17.1264 24.2154 23.2642 1.35454 3.58802 76.6293
9374302 12.0233 17.1264 24.2154 23.2642 1.35454 3.58802 76.6293
9374314 11.9881 17.1556 24.1859 23.235 1.37682 3.58073 76.5645
9374322 12.0674 17.1945 24.1859 23.2057 1.35252 3.54773 76.6535
9374333 12.0674 17.1945 24.1859 23.2057 1.35252 3.54773 76.6535
9374343 12.1642 17.1653 24.1465 23.196 1.32075 3.52402 76.6721
9374355 12.1202 17.2042 24.1367 23.1765 1.34525 3.52087 76.6376
9374363 12.1202 17.2042 24.1367 23.1765 1.34525 3.52087 76.6376
9374376 12.1114 17.1653 24.1957 23.2447 1.33703 3.55143 76.7171
9374383 12.1114 17.1653 24.1957 23.2447 1.33703 3.55143 76.7171
9374397 12.0762 17.214 24.1563 23.2447 1.37765 3.54231 76.6912
9374403 12.0938 17.2042 24.117 23.1862 1.36412 3.52577 76.6012
9374423 12.1026 17.2237 24.0973 23.196 1.37687 3.51744 76.6195
9374437 12.1026 17.214 24.1662 23.2155 1.35618 3.53302 76.6982
9374454 12.1378 17.2334 24.117 23.196 1.36097 3.50953 76.6842
9374473 12.1114 17.1653 24.0874 23.1862 1.35621 3.52649 76.5504
9374486 12.0938 17.2626 24.0973 23.1375 1.37387 3.5014 76.5912
9374493 12.0938 17.2626 24.0973 23.1375 1.37387 3.5014 76.5912
9374507 12.1378 17.1556 24.0579 23.1278 1.33621 3.50925 76.4791
9374514 12.129 17.1945 24.0973 23.1278 1.33772 3.50788 76.5486
9374528 12.129 17.1945 24.0973 23.1278 1.33772 3.50788 76.5486
9374536 12.1995 17.2431 24.0677 23.1668 1.35069 3.48055 76.6771
9374545 12.1995 17.2431 24.0677 23.1668 1.35069 3.48055 76.6771
9374555 12.1202 17.2042 24.0677 23.1181 1.35091 3.50176 76.5102
9374565 12.1378 17.2237 24.0677 23.1375 1.35687 3.49573 76.5668
9374575 12.1378 17.2237 24.0677 23.1375 1.35687 3.49573 76.5668
9374584 12.1466 17.2334 24.176 23.157 1.32565 3.51042 76.7131
9374595 12.1466 17.2334 24.176 23.157 1.32565 3.51042 76.7131
9374605 12.0938 17.1848 24.176 23.1083 1.31372 3.52764 76.5629
9374616 12.1466 17.1556 24.176 23.1181 1.28956 3.52338 76.5963
9374624 12.1466 17.1556 24.176 23.1181 1.28956 3.52338 76.5963
9374638 12.129 17.1653 24.1859 23.157 1.30728 3.53259 76.6372
9374644 12.0938 17.2237 24.1563 23.157 1.34756 3.52258 76.6308
9374673 12.0497 17.2334 24.2056 23.2057 1.3638 3.54552 76.6944
9374684 12.1026 17.1751 24.2056 23.1473 1.30959 3.53812 76.6305
9374694 12.1731 17.214 24.1859 23.0986 1.28914 3.50145 76.6715
9374704 12.1731 17.214 24.1859 23.0986 1.28914 3.50145 76.6715
9374715 12.0674 17.2334 24.1563 23.0596 1.32955 3.51201 76.5167
9374725 12.1995 17.1848 24.2351 23.0791 1.24816 3.50657 76.6984
9374736 12.1995 17.1848 24.2351 23.0791 1.24816 3.50657 76.6984
9374746 12.129 17.2237 24.1662 23.0499 1.29894 3.49947 76.5687
9374756 12.1819 17.2042 24.1859 23.1278 1.29215 3.50605 76.6998
9374766 12.1819 17.2042 24.1859 23.1278 1.29215 3.50605 76.6998
9374776 12.1466 17.2431 24.176 23.1083 1.31361 3.50077 76.6741
9374786 12.1466 17.2431 24.176 23.1083 1.31361 3.50077 76.6741
9374796 12.1114 17.2237 24.2056 23.1083 1.30955 3.5184 76.6489
9374806 12.1114 17.2431 24.1268 23.0499 1.32455 3.49311 76.5312
9374816 12.1114 17.2431 24.1268 23.0499 1.32455 3.49311 76.5312
9374827 12.1026 17.3112 24.1268 23.0791 1.35765 3.4832 76.6197
9374838 12.1026 17.3112 24.1268 23.0791 1.35765 3.4832 76.6197
9374849 12.0409 17.2334 24.1071 23.0791 1.36163 3.51394 76.4605
9374857 12.1114 17.2042 24.1563 23.1473 1.33249 3.52157 76.6192
9374877 12.0674 17.2529 24.1859 23.1375 1.34948 3.52342 76.6436
9374887 12.085 17.282 24.1957 23.1375 1.34905 3.5136 76.7003
9374908 12.085 17.2334 24.1563 23.0791 1.32952 3.51068 76.5538
9374918 12.085 17.2237 24.1465 23.1278 1.34495 3.51886 76.5829
9374931 12.085 17.2237 24.1465 23.1278 1.34495 3.51886 76.5829
9374942 12.129 17.2918 24.1367 23.1278 1.3542 3.49031 76.6852
9374960 12.129 17.214 24.1859 23.157 1.32231 3.52084 76.6859
9374970 12.0585 17.2431 24.1563 23.1473 1.36267 3.52494 76.6053
9374980 12.0585 17.2431 24.1563 23.1473 1.36267 3.52494 76.6053
9374991 12.0585 17.3015 24.1071 23.1375 1.39461 3.502 76.6047
9375001 12.0762 17.2431 24.1465 23.196 1.37502 3.5265 76.6618
9375021 12.1026 17.3112 24.176 23.1862 1.37375 3.50665 76.7761
9375031 12.0497 17.2334 24.1268 23.196 1.3879 3.5323 76.6059
9375041 12.0497 17.2334 24.1268 23.196 1.3879 3.5323 76.6059
9375051 12.0497 17.1459 24.1563 23.2155 1.35674 3.56082 76.5674
9375061 12.0497 17.1459 24.1563 23.2155 1.35674 3.56082 76.5674
9375071 11.9969 17.1945 24.176 23.2252 1.38617 3.56624 76.5926
9375082 12.0233 17.1459 24.2056 23.3032 1.37594 3.58764 76.6779
9375091 12.0233 17.1459 24.2056 23.3032 1.37594 3.58764 76.6779
9375108 12.0233 17.2042 24.2154 23.2544 1.37552 3.56771 76.6974
9375122 11.9969 17.107 24.2449 23.3226 1.3655 3.61224 76.6714
9375131 11.9264 17.1653 24.2252 23.3129 1.41151 3.61081 76.6299
9375145 11.9264 17.1653 24.2252 23.3129 1.41151 3.61081 76.6299
9375152 11.9352 17.1362 24.2252 23.3226 1.40249 3.6172 76.6193
9375168 11.9705 17.107 24.2252 23.3129 1.37836 3.61428 76.6156
9375172 11.9705 17.107 24.2252 23.3129 1.37836 3.61428 76.6156
9375182 11.9264 17.1264 24.2646 23.3324 1.39197 3.629 76.6499
9375192 11.9 17.107 24.2646 23.3713 1.40708 3.64593 76.6429
9375203 11.9 17.107 24.2646 23.3713 1.40708 3.64593 76.6429
9375215 11.8912 17.1459 24.304 23.4006 1.41751 3.64877 76.7416
9375233 11.8471 17.1264 24.3237 23.3324 1.39893 3.65703 76.6296
9375244 11.8912 17.0292 24.4418 23.3713 1.32521 3.69319 76.7335
9375267 11.8912 17.0292 24.4418 23.3713 1.32521 3.69319 76.7335
9375272 11.8295 17.0097 24.4221 23.3519 1.34113 3.7072 76.6132
9375275 11.8912 16.9724 24.3926 23.3421 1.31554 3.69548 76.5983
9375286 11.8912 16.9724 24.3926 23.3421 1.31554 3.69548 76.5983
9375293 11.7503 17.0195 24.4615 23.4201 1.37889 3.74003 76.6513
9375313 11.715 17 24.491 23.3713 1.35983 3.75059 76.5774
9375325 11.7238 16.9816 24.5304 23.4298 1.35561 3.76729 76.6656
9375336 11.7238 16.9816 24.5304 23.4298 1.35561 3.76729 76.6656
9375346 11.7767 16.9724 24.5304 23.4493 1.34062 3.75947 76.7287
9375355 11.7591 16.9447 24.5599 23.4883 1.34003 3.78056 76.752
9375364 11.7591 16.9447 24.5599 23.4883 1.34003 3.78056 76.752
9375375 11.7503 16.9632 24.5599 23.4883 1.34873 3.77821 76.7616
9375384 11.7503 16.9632 24.5599 23.4883 1.34873 3.77821 76.7616
9375394 11.7415 16.9447 24.5402 23.4883 1.35284 3.78199 76.7147
9375404 11.7238 16.9447 24.5895 23.5175 1.351 3.79776 76.7755
9375415 11.7238 16.9447 24.5895 23.5175 1.351 3.79776 76.7755
9375429 11.8207 16.9816 24.5501 23.4785 1.33061 3.75362 76.8309
9375436 11.7326 16.9079 24.619 23.4688 1.31146 3.80183 76.7283
9375446 11.7326 16.9079 24.619 23.4688 1.31146 3.80183 76.7283
9375457 11.7767 16.9447 24.5501 23.4493 1.32535 3.76911 76.7208
9375466 11.7767 16.9447 24.5501 23.4493 1.32535 3.76911 76.7208
9375476 11.6886 16.9447 24.5402 23.4103 1.34696 3.78354 76.5839
9375487 11.7767 16.8895 24.5993 23.3811 1.27031 3.77986 76.6466
9375506 11.6974 16.9171 24.5796 23.4201 1.32487 3.79534 76.6142
9375521 11.7591 16.9263 24.5796 23.3811 1.2945 3.77227 76.6461
9375526 11.7591 16.9263 24.5796 23.3811 1.2945 3.77227 76.6461
9375536 11.6622 16.9355 24.5402 23.498 1.38026 3.80511 76.6359
9375546 11.6622 16.9355 24.5402 23.498 1.38026 3.80511 76.6359
9375556 11.6269 16.8895 24.5796 23.4103 1.33755 3.81801 76.5064
9375570 11.6622 16.9171 24.7076 23.5077 1.32011 3.83543 76.7946
9375596 11.671 16.8711 24.6682 23.5759 1.33742 3.84876 76.7862
9375600 11.6446 16.8987 24.6584 23.5175 1.34036 3.83853 76.7191
9375606 11.6446 16.8987 24.6584 23.5175 1.34036 3.83853 76.7191
9375619 11.6269 16.8987 24.6584 23.6441 1.3854 3.86125 76.8281
9375627 11.6269 16.8987 24.6584 23.6441 1.3854 3.86125 76.8281
9375636 11.6093 16.779 24.6781 23.6149 1.33882 3.89365 76.6813
9375646 11.5036 16.7882 24.6977 23.6149 1.37124 3.9203 76.6045
9375666 11.5829 16.825 24.6879 23.6734 1.37672 3.8987 76.7692
9375676 11.5829 16.825 24.7666 23.6734 1.34969 3.91007 76.8479
9375686 11.486 16.7145 24.7666 23.7026 1.35792 3.96545 76.6698
9375697 11.4684 16.7237 24.8651 23.7513 1.34801 3.98867 76.8085
9375707 11.4684 16.7237 24.8651 23.7513 1.34801 3.98867 76.8085
9375718 11.3979 16.6501 24.9537 23.8195 1.34011 4.04677 76.8211
9375727 11.3363 16.6408 25.0226 23.8292 1.33778 4.07556 76.8289
9375747 11.3363 16.6132 24.9832 23.8195 1.33977 4.07543 76.7522
9375760 11.2394 16.5488 25.1013 23.9266 1.34565 4.14754 76.8161
9375767 11.2394 16.5488 25.1013 23.9266 1.34565 4.14754 76.8161
9375783 11.2218 16.5488 25.1604 23.9461 1.33744 4.16301 76.877
9375788 11.2218 16.5488 25.1604 23.9461 1.33744 4.16301 76.877
9375804 11.1161 16.4106 25.1801 23.9948 1.33938 4.2336 76.7016
9375808 11.0016 16.3922 25.2982 24.0436 1.34748 4.29032 76.7355
9375818 11.0016 16.3922 25.2982 24.0436 1.34748 4.29032 76.7355
9375829 10.9399 16.3462 25.3671 24.1702 1.36981 4.34463 76.8234
9375840 10.8342 16.3093 25.5049 24.2579 1.37443 4.41172 76.9063
9375850 10.8342 16.3093 25.5049 24.2579 1.37443 4.41172 76.9063
9375860 10.7373 16.2449 25.5837 24.2774 1.36682 4.46602 76.8432
9375881 10.6845 16.2264 25.623 24.3163 1.37777 4.49481 76.8503
9375890 10.6845 16.1988 25.692 24.3845 1.3666 4.52052 76.9597
9375899 10.6845 16.1988 25.692 24.3845 1.3666 4.52052 76.9597
9375913 10.6228 16.162 25.7412 24.3748 1.35655 4.5509 76.9007
9375921 10.5171 16.1804 25.7313 24.3553 1.39588 4.56914 76.7841
9375941 10.5435 16.2264 25.7412 24.3943 1.40953 4.55732 76.9054
9375960 10.5435 16.2264 25.7412 24.3943 1.40953 4.55732 76.9054
9375961 10.5347 16.2356 25.7313 24.3261 1.39783 4.54661 76.8278
9375971 10.5611 16.2264 25.7412 24.2968 1.37356 4.53959 76.8256
9375991 10.5435 16.2172 25.8002 24.3456 1.37148 4.56106 76.9065
9376004 10.5171 16.2725 25.7412 24.404 1.4357 4.55365 76.9348
9376013 10.5171 16.2725 25.7412 24.404 1.4357 4.55365 76.9348
9376025 10.5259 16.2541 25.7707 24.4625 1.43479 4.56803 77.0131
9376032 10.5347 16.2541 25.8101 24.4235 1.40634 4.56584 77.0223
9376042 10.5347 16.1988 25.8101 24.4235 1.3894 4.57989 76.9671
9376052 10.4819 16.2172 25.8199 24.4625 1.42174 4.59525 76.9815
9376062 10.4819 16.2172 25.8199 24.4625 1.42174 4.59525 76.9815
9376072 10.4466 16.2633 25.7018 24.4138 1.47366 4.5699 76.8255
9376082 10.4995 16.2633 25.7116 24.443 1.46103 4.56175 76.9174
9376102 10.4642 16.2264 25.7805 24.4138 1.42921 4.58548 76.885
9376115 10.4642 16.2264 25.8002 24.4138 1.42245 4.58814 76.9047
9376122 10.4466 16.208 25.8002 24.5014 1.44971 4.60918 76.9563
9376136 10.4554 16.208 25.8298 24.4527 1.42163 4.60434 76.9459
9376143 10.4554 16.208 25.8298 24.4527 1.42163 4.60434 76.9459
9376157 10.429 16.1067 25.8101 24.5307 1.43031 4.64479 76.8765
9376163 10.4819 16.1712 25.8199 24.4819 1.4136 4.60961 76.9549
9376183 10.4731 16.162 25.8593 24.5014 1.40626 4.62214 76.9958
9376193 10.4731 16.162 25.8593 24.5014 1.40626 4.62214 76.9958
9376203 10.4378 16.1528 25.8199 24.4138 1.40215 4.61633 76.8243
9376216 10.4819 16.162 25.8691 24.443 1.38194 4.61334 76.956
9376223 10.4819 16.162 25.8691 24.443 1.38194 4.61334 76.956
9376233 10.5259 16.1067 25.751 24.4625 1.39638 4.60287 76.8461
9376247 10.5347 16.1343 25.8101 24.3748 1.35463 4.58971 76.8539
9376254 10.5347 16.1343 25.8101 24.3748 1.35463 4.58971 76.8539
9376269 10.5259 16.1804 25.7412 24.3845 1.39846 4.5722 76.832
9376277 10.4995 16.2172 25.7805 24.3553 1.39634 4.57092 76.8526
9376284 10.4995 16.2172 25.7805 24.3553 1.39634 4.57092 76.8526
9376294 10.5171 16.1896 25.8298 24.3553 1.36492 4.58015 76.8918
9376305 10.5171 16.1896 25.8298 24.3553 1.36492 4.58015 76.8918
9376317 10.5523 16.162 25.7904 24.3553 1.35784 4.57287 76.86
9376326 10.5699 16.1528 25.8298 24.3456 1.33248 4.57475 76.898
9376346 10.5876 16.162 25.8101 24.3748 1.34502 4.56922 76.9344
9376358 10.6052 16.1804 25.8199 24.3261 1.3263 4.55478 76.9316
9376367 10.6052 16.1804 25.8199 24.3261 1.3263 4.55478 76.9316
9376381 10.6052 16.1528 25.8987 24.3553 1.29987 4.57644 77.0119
9376387 10.5788 16.1251 25.9184 24.3748 1.29966 4.59549 76.997
9376397 10.5788 16.1251 25.9184 24.3748 1.29966 4.59549 76.997
9376408 10.614 16.162 25.8298 24.4138 1.34121 4.57045 77.0195
9376421 10.614 16.162 25.8298 24.4138 1.34121 4.57045 77.0195
9376429 10.6052 16.0883 25.7707 24.2579 1.29372 4.56227 76.7221
9376437 10.6228 16.1436 25.7805 24.2384 1.29537 4.54239 76.7853
9376458 10.6756 16.1528 25.7609 24.141 1.25675 4.51063 76.7302
9376473 10.6668 16.1436 25.8593 24.1117 1.21422 4.52466 76.7814
9376488 10.6845 16.1251 25.8298 24.1215 1.2156 4.52216 76.7608
9376508 10.614 16.1712 25.8691 24.1994 1.26457 4.54436 76.8537
9376518 10.6316 16.162 25.9282 24.1897 1.23254 4.54893 76.9115
9376538 10.6228 16.1896 25.9282 24.1117 1.21998 4.53354 76.8523
9376548 10.5699 16.2264 25.9676 24.1507 1.24802 4.54827 76.9147
9376559 10.5699 16.2264 25.9676 24.1507 1.24802 4.54827 76.9147
9376576 10.658 16.2449 25.8987 24.0533 1.21705 4.49856 76.8548
9376584 10.658 16.2449 25.8987 24.0533 1.21705 4.49856 76.8548
9376604 10.6228 16.3001 25.8593 24.0143 1.24756 4.48276 76.7965
9376604 10.7021 16.3277 25.8002 23.9364 1.22508 4.43686 76.7664
9376609 10.7021 16.3277 25.8002 23.9364 1.22508 4.43686 76.7664
9376620 10.7461 16.3554 25.7707 23.9364 1.22869 4.41467 76.8086
9376631 10.799 16.3738 25.623 23.8487 1.23965 4.36411 76.6445
9376642 10.799 16.3738 25.623 23.8487 1.23965 4.36411 76.6445
9376651 10.887 16.4659 25.6132 23.8487 1.24141 4.31733 76.8148
9376661 10.887 16.4659 25.6132 23.8487 1.24141 4.31733 76.8148
9376673 10.9047 16.5119 25.6034 23.8292 1.24696 4.29725 76.8492
9376681 11.028 16.4843 25.5049 23.7318 1.19976 4.24588 76.749
9376691 11.028 16.4843 25.5049 23.7318 1.19976 4.24588 76.749
9376701 11.0632 16.5672 25.377 23.6441 1.22996 4.18597 76.6515
9376711 11.1777 16.6132 25.4459 23.6052 1.16954 4.15009 76.842
9376721 11.1777 16.6132 25.4459 23.6052 1.16954 4.15009 76.842
9376732 11.2658 16.6501 25.3868 23.5564 1.15598 4.10375 76.8591
9376752 11.1865 16.6224 25.2982 23.5175 1.19256 4.11227 76.6246
9376762 11.2306 16.6593 25.249 23.498 1.19972 4.08234 76.6368
9376772 11.2306 16.6593 25.249 23.498 1.19972 4.08234 76.6368
9376784 11.2482 16.6408 25.2391 23.5564 1.20949 4.08946 76.6846
9376792 11.3187 16.779 25.2785 23.5175 1.20273 4.03773 76.8936
9376812 11.3187 16.779 25.249 23.4103 1.17959 4.0182 76.7569
9376833 11.3363 16.7145 25.1604 23.4395 1.19288 4.02132 76.6507
9376842 11.3275 16.7606 25.1604 23.4688 1.21924 4.01627 76.7172
9376863 11.3363 16.8066 25.1506 23.4688 1.23386 4.00128 76.7622
9376874 11.3803 16.8066 25.1013 23.4201 1.22054 3.97632 76.7083
9376883 11.3803 16.8066 25.1013 23.4201 1.22054 3.97632 76.7083
9376903 11.4508 16.9171 25.0226 23.4103 1.25456 3.91891 76.8008
9376916 11.3979 16.9079 24.9635 23.3226 1.26289 3.913 76.592
9376922 11.4596 16.9079 25.0226 23.2739 1.20645 3.89929 76.664
9376932 11.4596 16.9079 25.0226 23.2739 1.20645 3.89929 76.664
9376942 11.5301 16.9816 24.9635 23.1862 1.19821 3.84251 76.6614
9376953 11.4684 16.9724 24.9045 23.235 1.25179 3.85844 76.5802
9376963 11.4684 16.9724 24.9045 23.235 1.25179 3.85844 76.5802
9376974 11.5829 17.0973 24.8356 23.1862 1.25976 3.78249 76.702
9376984 11.5829 17.0973 24.8356 23.1862 1.25976 3.78249 76.702
9376993 11.5917 17.0584 24.7863 23.2155 1.27061 3.78694 76.6519
9377005 11.6798 17.2042 24.7076 23.1375 1.28843 3.70676 76.7291
9377013 11.6798 17.2042 24.7076 23.1375 1.28843 3.70676 76.7291
9377026 11.715 17.282 24.619 23.1862 1.34575 3.67336 76.8023
9377033 11.6974 17.282 24.5698 23.0206 1.31758 3.64588 76.5699
9377043 11.6974 17.3209 24.5698 23.0206 1.32961 3.63641 76.6087
9377053 11.7238 17.3501 24.5796 22.9427 1.30207 3.61278 76.5963
9377063 11.7238 17.3501 24.5796 22.9427 1.30207 3.61278 76.5963
9377073 11.7855 17.3793 24.5009 22.9427 1.31696 3.57901 76.6083
9377083 11.8031 17.4668 24.4713 22.8745 1.32703 3.53894 76.6158
9377102 11.8031 17.4668 24.4713 22.8745 1.32703 3.53894 76.6158
9377103 11.9176 17.5641 24.432 22.8063 1.31022 3.4717 76.72
9377113 11.9176 17.5641 24.432 22.8063 1.31022 3.4717 76.72
9377123 11.8736 17.5738 24.3631 22.7089 1.3219 3.45492 76.5193
9377133 11.9528 17.6322 24.3138 22.7479 1.34165 3.42024 76.6467
9377143 11.9528 17.6322 24.3138 22.7479 1.34165 3.42024 76.6467
9377154 11.9528 17.6808 24.2843 22.6797 1.34576 3.39378 76.5976
9377164 12.0409 17.7197 24.2351 22.6504 1.33539 3.35142 76.6461
9377175 12.0409 17.7197 24.2351 22.6504 1.33539 3.35142 76.6461
9377185 12.085 17.7878 24.1367 22.5238 1.33599 3.29028 76.5332
9377194 12.1466 17.7975 24.0776 22.5238 1.33811 3.26419 76.5455
9377206 12.1466 17.7975 24.0776 22.5238 1.33811 3.26419 76.5455
9377215 12.2171 17.9045 23.9792 22.3777 1.33563 3.18428 76.4784
9377226 12.2171 17.9045 23.9792 22.3777 1.33563 3.18428 76.4784
9377236 12.2699 18.0017 23.9693 22.2997 1.3268 3.13507 76.5407
9377245 12.358 18.0795 23.9201 22.2413 1.31942 3.07912 76.5989
9377256 12.358 18.0795 23.9201 22.2413 1.31942 3.07912 76.5989
9377267 12.4197 18.2351 23.8217 22.1731 1.35906 3.00196 76.6495
9377277 12.4285 18.2546 23.7232 22.0756 1.36585 2.96458 76.4819
9377287 12.4285 18.2546 23.7232 22.0756 1.36585 2.96458 76.4819
9377297 12.5606 18.3713 23.6346 22.0172 1.36884 2.8831 76.5837
9377308 12.5606 18.3713 23.6346 22.0172 1.36884 2.8831 76.5837
9377317 12.5254 18.3713 23.5657 21.9295 1.37766 2.86651 76.3919
9377327 12.5606 18.4296 23.5362 21.9295 1.39372 2.83996 76.456
9377338 12.5606 18.4296 23.5362 21.9295 1.39372 2.83996 76.456
9377348 12.6663 18.5074 23.4378 21.8808 1.40019 2.77377 76.4923
9377358 12.7368 18.5561 23.3984 21.7639 1.36839 2.72109 76.4551
9377368 12.7368 18.5561 23.3984 21.7639 1.36839 2.72109 76.4551
9377378 12.8249 18.6825 23.2409 21.6762 1.40432 2.63196 76.4245
9377400 12.7896 18.7797 23.1523 21.5983 1.45313 2.59064 76.32
9377408 12.913 18.9645 23.1424 21.4424 1.42277 2.49287 76.4623
9377429 12.9834 19.0132 23.0539 21.4132 1.43502 2.44635 76.4636
9377439 13.0275 19.1493 23.0046 21.3255 1.45174 2.3828 76.5069
9377450 13.0275 19.1493 23.0046 21.3255 1.45174 2.3828 76.5069
9377465 13.1332 19.159 22.9751 21.2378 1.40141 2.33724 76.5051
9377469 13.1596 19.2077 22.9456 21.2281 1.41447 2.31375 76.5409
9377480 13.1596 19.2077 22.9456 21.2281 1.41447 2.31375 76.5409
9377491 13.1772 19.1979 22.9062 21.2183 1.41598 2.30381 76.4997
9377501 13.1772 19.1979 22.9062 21.2183 1.41598 2.30381 76.4997
9377511 13.1772 19.1493 22.9554 21.2378 1.39001 2.32621 76.5198
9377524 13.1948 19.1201 23.044 21.2476 1.34743 2.34509 76.6065
9377533 13.1948 19.1201 23.044 21.2476 1.34743 2.34509 76.6065
9377545 13.142 19.0132 23.0735 21.3352 1.34949 2.40067 76.5639
9377552 13.0539 19.0132 23.1621 21.4132 1.37337 2.44805 76.6423
9377566 13.0539 19.0132 23.1621 21.4132 1.37337 2.44805 76.6423
9377572 12.9922 18.9062 23.2803 21.4424 1.32996 2.51059 76.6211
9377582 12.913 18.7506 23.3885 21.4911 1.28692 2.58994 76.5432
9377593 12.913 18.7506 23.3885 21.4911 1.28692 2.58994 76.5432
9377603 12.8601 18.595 23.5756 21.5983 1.2259 2.68543 76.6289
9377613 12.8601 18.595 23.5756 21.5983 1.2259 2.68543 76.6289
9377623 12.728 18.4102 23.674 21.7834 1.23754 2.80419 76.5955
9377635 12.6135 18.2254 23.8315 21.9393 1.21385 2.92363 76.6096
9377644 12.6135 18.2254 23.8315 21.9393 1.21385 2.92363 76.6096
9377655 12.5342 18.099 23.9988 22.0075 1.16565 3.00885 76.6395
9377670 12.4197 17.9239 24.1662 22.1633 1.14165 3.12741 76.6731
9377674 12.4197 17.9239 24.1662 22.1633 1.14165 3.12741 76.6731
9377685 12.3492 17.9045 24.304 22.2705 1.14598 3.18649 76.8282
9377696 12.129 17.7489 24.4418 22.3874 1.16203 3.31482 76.7071
9377706 12.129 17.7489 24.4418 22.3874 1.16203 3.31482 76.7071
9377716 12.0762 17.6905 24.5993 22.3777 1.1052 3.36385 76.7436
9377726 12.0762 17.6905 24.5993 22.3777 1.1052 3.36385 76.7436
9377736 11.9176 17.6224 24.7273 22.4653 1.12171 3.45079 76.7326
9377746 11.8648 17.5446 24.8848 22.553 1.08921 3.51901 76.8472
9377756 11.8648 17.5446 24.8848 22.553 1.08921 3.51901 76.8472
9377766 11.8295 17.4863 24.9045 22.4653 1.04896 3.53143 76.6856
9377777 11.8295 17.4863 24.9045 22.4653 1.04896 3.53143 76.6856
9377786 11.8119 17.4571 24.9241 22.5433 1.06348 3.55732 76.7364
9377796 11.7767 17.4279 24.9438 22.6115 1.08092 3.58599 76.7599
9377806 11.7767 17.4279 24.9438 22.6115 1.08092 3.58599 76.7599
9377818 11.8031 17.3307 24.9438 22.5433 1.02028 3.59301 76.6209
9377826 11.8207 17.3598 24.9241 22.5725 1.03925 3.58309 76.6772
9377838 11.8207 17.3598 24.9241 22.5725 1.03925 3.58309 76.6772
9377846 11.856 17.3404 24.8946 22.5628 1.02818 3.57341 76.6537
9377861 11.856 17.3404 24.8946 22.5628 1.02818 3.57341 76.6537
9377869 11.9 17.3793 24.9143 22.5238 1.00654 3.55046 76.7174
9377882 11.9617 17.4085 24.8749 22.4556 0.986779 3.51243 76.7006
9377897 11.9352 17.3793 24.7863 22.4069 1.0014 3.50527 76.5077
9377907 12.0233 17.4376 24.806 22.4264 0.989223 3.47581 76.6933
9377927 12.0585 17.4765 24.7174 22.3289 0.988981 3.42993 76.5815
9377947 12.129 17.5543 24.6288 22.2218 0.985923 3.36463 76.534
9377957 12.1907 17.603 24.5304 22.1049 0.97698 3.30535 76.4289
9377967 12.1907 17.603 24.5304 22.1049 0.97698 3.30535 76.4289
9377977 12.2788 17.6905 24.5304 22.1244 0.980666 3.26637 76.624
9377991 12.314 17.7489 24.4812 22.0659 0.985375 3.22756 76.6099
9378008 12.3933 17.7294 24.4812 22.0756 0.955471 3.21484 76.6795
9378018 12.3933 17.7294 24.4812 22.0756 0.955471 3.21484 76.6795
9378028 12.3404 17.7294 24.4123 22.0269 0.981471 3.20931 76.509
9378043 12.3492 17.7391 24.491 22.0562 0.963992 3.22151 76.6355
9378048 12.3492 17.7391 24.491 22.0562 0.963992 3.22151 76.6355
9378060 12.3756 17.7197 24.432 22.0854 0.978118 3.21527 76.6127
9378068 12.3933 17.6711 24.4713 22.1049 0.949669 3.23169 76.6405
9378079 12.3933 17.6711 24.4713 22.1049 0.949669 3.23169 76.6405
9378088 12.3668 17.7002 24.5107 22.1536 0.969702 3.24454 76.7314
9378100 12.3668 17.7002 24.5107 22.1536 0.969702 3.24454 76.7314
9378108 12.314 17.71 24.5009 22.1438 0.99093 3.2518 76.6686
9378120 12.2876 17.6711 24.5402 22.2413 1.00485 3.28828 76.7401
9378130 12.2876 17.6711 24.5402 22.2413 1.00485 3.28828 76.7401
9378140 12.2964 17.6711 24.5599 22.2023 0.983009 3.28324 76.7297
9378150 12.2083 17.5738 24.5895 22.1926 0.969318 3.33053 76.5641
9378162 12.2083 17.5738 24.5895 22.1926 0.969318 3.33053 76.5641
9378170 12.1378 17.5738 24.5402 22.2413 1.02525 3.34733 76.4931
9378180 12.0938 17.5738 24.5206 22.3289 1.0744 3.36825 76.5171
9378190 12.0938 17.5738 24.5206 22.3289 1.0744 3.36825 76.5171
9378201 12.129 17.6127 24.5206 22.3874 1.0928 3.35936 76.6497
9378221 12.0497 17.5252 24.5993 22.4946 1.0991 3.42753 76.6688
9378231 11.9881 17.5641 24.7371 22.514 1.0914 3.45669 76.8033
9378254 11.9264 17.4765 24.7273 22.592 1.11272 3.50282 76.7222
9378261 11.8912 17.3598 24.8356 22.7089 1.08795 3.57314 76.7955
9378282 11.8471 17.3209 24.6977 22.8063 1.16808 3.58721 76.6721
9378292 11.8471 17.3209 24.6977 22.8063 1.16808 3.58721 76.6721
9378303 11.7855 17.282 24.7174 22.8453 1.18243 3.62034 76.6302
9378312 11.7415 17.3501 24.7568 22.9037 1.22328 3.62902 76.7521
9378324 11.7415 17.3501 24.7568 22.9037 1.22328 3.62902 76.7521
9378332 11.715 17.3209 24.6485 22.9037 1.26035 3.62646 76.5882
9378346 11.6974 17.3015 24.6584 22.933 1.26604 3.64128 76.5902
9378353 11.6974 17.3015 24.6584 22.933 1.26604 3.64128 76.5902
9378368 11.6886 17.214 24.7076 22.9817 1.24016 3.67925 76.5918
9378383 11.671 17.3015 24.747 23.0986 1.29596 3.68528 76.818
9378394 11.5917 17.2918 24.7765 23.2155 1.34602 3.72846 76.8754
9378405 11.5917 17.2918 24.7765 23.2155 1.34602 3.72846 76.8754
9378416 11.5653 17.2237 24.7371 23.2252 1.35063 3.74717 76.7513
9378426 11.5741 17.1653 24.8159 23.2642 1.31463 3.77651 76.8195
9378437 11.5741 17.1653 24.8159 23.2642 1.31463 3.77651 76.8195
9378445 11.4948 17.0681 24.8651 23.2447 1.28888 3.82409 76.6727
9378455 11.3715 17.0486 24.8552 23.3032 1.34667 3.86628 76.5785
9378474 11.3715 17.0486 24.9241 23.4298 1.36204 3.89464 76.7741
9378484 11.3715 17.0486 24.9241 23.4298 1.36204 3.89464 76.7741
9378507 11.3363 16.8987 24.9537 23.4006 1.30871 3.94036 76.5892
9378512 11.3275 16.9263 24.9931 23.4785 1.33083 3.95263 76.7253
9378521 11.3275 16.9263 24.9931 23.4785 1.33083 3.95263 76.7253
9378531 11.2922 16.9171 25.0521 23.5954 1.35583 3.98888 76.8569
9378538 11.2482 16.8527 25.1112 23.7026 1.36381 4.03946 76.9146
9378557 11.1689 16.7514 25.1309 23.7123 1.35608 4.08845 76.7635
9378567 11.1601 16.7237 25.1506 23.8195 1.37682 4.11551 76.8539
9378577 11.1601 16.7237 25.1506 23.8195 1.37682 4.11551 76.8539
9378587 11.1601 16.6685 25.1998 23.8487 1.35193 4.14036 76.8771
9378608 11.1601 16.6869 25.1801 23.8 1.34936 4.1261 76.8271
9378617 11.1161 16.6593 25.2195 23.8195 1.34846 4.15228 76.8143
9378627 11.1161 16.6593 25.2195 23.8195 1.34846 4.15228 76.8143
9378638 11.1513 16.6501 25.1506 23.8292 1.36018 4.13743 76.7811
9378648 11.1777 16.6501 25.1899 23.8097 1.33161 4.13366 76.8274
9378658 11.1777 16.6132 25.1899 23.8097 1.32025 4.14284 76.7906
9378669 11.1777 16.5856 25.2293 23.839 1.30726 4.15942 76.8316
9378692 11.0984 16.5764 25.1899 23.7805 1.32706 4.1677 76.6453
9378698 11.1073 16.5211 25.2293 23.8585 1.31753 4.19587 76.7161
9378714 11.1073 16.5211 25.2293 23.8585 1.31753 4.19587 76.7161
9378720 11.1073 16.5119 25.3474 23.8974 1.28625 4.22025 76.864
9378730 11.0016 16.4751 25.3868 23.9559 1.31562 4.26964 76.8193
9378750 11.0896 16.4382 25.3868 23.9754 1.28013 4.25951 76.89
9378770 11.028 16.4014 25.3966 23.9072 1.26541 4.27607 76.7332
9378782 10.9927 16.4014 25.5541 23.9559 1.23869 4.31365 76.9042
9378789 10.9927 16.4014 25.5541 23.9559 1.23869 4.31365 76.9042
9378800 10.9487 16.4106 25.6034 23.9266 1.23073 4.32518 76.8893
9378809 10.9663 16.3001 25.6034 23.9851 1.20862 4.35666 76.8549
9378821 10.9663 16.3001 25.6034 23.9851 1.20862 4.35666 76.8549
9378832 10.8782 16.2264 25.7018 24.0533 1.20339 4.42047 76.8598
9378852 10.8518 16.208 25.6821 24.063 1.21644 4.43044 76.805
9378861 10.8166 16.1988 25.8199 24.0533 1.1756 4.45927 76.8886
9378875 10.8166 16.1988 25.8199 24.0533 1.1756 4.45927 76.8886
9378881 10.8342 16.1712 25.7707 24.0143 1.16571 4.44971 76.7904
9378891 10.7813 16.1988 25.7805 24.0533 1.20102 4.4628 76.814
9378911 10.7813 16.1528 25.8987 24.0241 1.13744 4.48665 76.8568
9378932 10.7549 16.1712 25.751 24.0923 1.22364 4.4778 76.7694
9378943 10.7902 16.1251 25.7904 24.0728 1.17786 4.48326 76.7785
9378966 10.8694 16.1251 25.751 24.0436 1.15519 4.45376 76.7891
9378972 10.8078 16.0975 25.751 24.0241 1.16157 4.47373 76.6804
9378982 10.8078 16.0975 25.751 24.0241 1.16157 4.47373 76.6804
9378992 10.887 16.2264 25.8298 23.9559 1.12664 4.42245 76.8991
9379002 10.887 16.2264 25.8298 23.9559 1.12664 4.42245 76.8991
9379012 10.9311 16.1804 25.692 24.0143 1.16239 4.41203 76.8178
9379022 10.9311 16.1528 25.6821 24.0825 1.17832 4.42704 76.8485
9379035 10.9311 16.1528 25.6821 24.0825 1.17832 4.42704 76.8485
9379042 10.9223 16.1804 25.692 24.0143 1.16539 4.41425 76.8089
9379057 10.9751 16.1804 25.6723 24.0143 1.15409 4.39819 76.8421
9379062 10.9751 16.1988 25.6723 23.9656 1.14469 4.38681 76.8118
9379072 10.9575 16.2541 25.692 24.0533 1.1883 4.39214 76.9568
9379082 10.9575 16.2541 25.692 24.0533 1.1883 4.39214 76.9568
9379092 10.9223 16.2725 25.6034 24.0338 1.23017 4.38146 76.8319
9379104 10.9663 16.2172 25.6427 23.9754 1.16649 4.38165 76.8016
9379128 10.9663 16.2633 25.623 24.0241 1.20257 4.37405 76.8767
9379149 10.9135 16.2909 25.5837 23.9461 1.21845 4.36418 76.7342
9379152 10.9751 16.2449 25.5541 23.9169 1.18413 4.35209 76.691
9379175 10.9751 16.2449 25.5541 23.9169 1.18413 4.35209 76.691
9379176 11.0016 16.2356 25.4951 23.9948 1.2166 4.35036 76.7271
9379183 11.0016 16.2633 25.5148 23.9754 1.2124 4.34343 76.755
9379197 11.0016 16.2633 25.5148 23.9754 1.2124 4.34343 76.755
9379203 11.0192 16.3369 25.4754 23.9656 1.23963 4.31362 76.7971
9379223 11.0808 16.2817 25.4459 23.9266 1.19947 4.30246 76.735
9379233 11.0808 16.3738 25.4262 23.8877 1.22266 4.27114 76.7685
9379244 11.0808 16.3738 25.4262 23.8877 1.22266 4.27114 76.7685
9379254 11.072 16.3462 25.3671 23.8292 1.21917 4.26384 76.6145
9379266 11.1601 16.429 25.3277 23.8585 1.23726 4.21953 76.7753
9379273 11.1601 16.429 25.3277 23.8585 1.23726 4.21953 76.7753
9379283 11.2041 16.4843 25.2391 23.7513 1.23642 4.16712 76.6789
9379293 11.2041 16.4843 25.2391 23.7513 1.23642 4.16712 76.6789
9379303 11.2394 16.5027 25.2391 23.7415 1.22706 4.15234 76.7228
9379313 11.2658 16.5395 25.1998 23.6831 1.22479 4.1227 76.6882
9379323 11.2658 16.5395 25.1998 23.6831 1.22479 4.1227 76.6882
9379333 11.257 16.5856 25.121 23.6149 1.24789 4.09253 76.5785
9379344 11.3187 16.6685 25.121 23.7221 1.28558 4.07183 76.8302
9379353 11.3187 16.6685 25.121 23.7221 1.28558 4.07183 76.8302
9379363 11.3451 16.6777 25.1112 23.8195 1.31278 4.07543 76.9534
9379374 11.3451 16.6777 25.1112 23.8195 1.31278 4.07543 76.9534
9379384 11.301 16.6501 25.0718 23.7318 1.30579 4.07516 76.7547
9379394 11.2834 16.6777 25.0423 23.7903 1.3485 4.07679 76.7936
9379405 11.2834 16.6777 25.0423 23.7903 1.3485 4.07679 76.7936
9379414 11.2482 16.6961 25.0127 23.7318 1.35841 4.06844 76.6888
9379426 11.2658 16.6777 25.0029 23.7805 1.36507 4.07418 76.7269
9379434 11.2658 16.6777 25.0029 23.7805 1.36507 4.07418 76.7269
9379451 11.3187 16.6869 25.0324 23.7805 1.33963 4.06297 76.8185
9379464 11.2394 16.6132 25.0127 23.8097 1.35991 4.10235 76.6751
9379476 11.213 16.5856 24.9734 23.8292 1.38004 4.113 76.6011
9379484 11.213 16.5856 24.9734 23.8292 1.38004 4.113 76.6011
9379501 11.2658 16.6501 25.0423 23.7903 1.34603 4.08803 76.7484
9379504 11.2306 16.6593 25.0127 23.8292 1.38313 4.09585 76.7318
9379514 11.2306 16.6593 25.0127 23.8292 1.38313 4.09585 76.7318
9379525 11.3363 16.6408 24.9734 23.8 1.34566 4.06439 76.7505
9379534 11.3363 16.6408 24.9734 23.8 1.34566 4.06439 76.7505
9379550 11.3187 16.5856 25.0226 23.7708 1.30875 4.08535 76.6976
9379558 11.301 16.6777 24.934 23.7903 1.37964 4.05699 76.703
9379566 11.301 16.6777 24.934 23.7903 1.37964 4.05699 76.703
9379576 11.4067 16.6132 24.9832 23.8 1.3096 4.05515 76.8032
9379586 11.3275 16.6869 24.9635 23.8 1.36625 4.05374 76.7779
9379606 11.3715 16.6777 25.0029 23.7805 1.3288 4.04793 76.8326
9379616 11.3715 16.6777 25.0029 23.7805 1.3288 4.04793 76.8326
9379626 11.3539 16.6501 24.9241 23.761 1.34734 4.04515 76.6891
9379636 11.3715 16.6685 24.9931 23.761 1.32333 4.04604 76.7941
9379656 11.4684 16.6777 24.9143 23.7123 1.30492 4.00153 76.7727
9379666 11.4067 16.6961 24.9143 23.761 1.34677 4.01921 76.7782
9379677 11.4067 16.6961 24.9143 23.761 1.34677 4.01921 76.7782
9379686 11.4332 16.7053 24.8946 23.8195 1.36528 4.01593 76.8526
9379701 11.4332 16.7053 24.8946 23.8195 1.36528 4.01593 76.8526
9379707 11.3539 16.7237 24.8651 23.7318 1.38135 4.01423 76.6745
9379717 11.442 16.7053 24.8946 23.7513 1.34127 4.00399 76.7932
9379737 11.442 16.7145 24.8552 23.761 1.36062 3.99747 76.7728
9379751 11.4155 16.7145 24.8651 23.761 1.36631 4.00542 76.7562
9379767 11.4596 16.7145 24.8454 23.7708 1.36095 3.9931 76.7903
9379778 11.4596 16.7145 24.8454 23.7708 1.36095 3.9931 76.7903
9379801 11.4332 16.6501 24.8257 23.8 1.36594 4.01697 76.7089
9379804 11.3803 16.6869 24.8356 23.7513 1.37707 4.01537 76.654
9379825 11.4067 16.6777 24.8159 23.7415 1.36891 4.00688 76.6418
9379828 11.4067 16.6961 24.7962 23.7805 1.39336 4.00508 76.6795
9379838 11.4067 16.6961 24.7962 23.7805 1.39336 4.00508 76.6795
9379849 11.4684 16.7145 24.806 23.7123 1.35344 3.97688 76.7013
9379858 11.4684 16.7145 24.806 23.7123 1.35344 3.97688 76.7013
9379875 11.486 16.7145 24.7273 23.6734 1.36244 3.95557 76.6012
9379879 11.486 16.6869 24.8257 23.6831 1.32309 3.97798 76.6817
9379902 11.5565 16.7421 24.7666 23.6734 1.33322 3.93701 76.7386
9379910 11.5565 16.7514 24.7174 23.5662 1.31987 3.91214 76.5914
9379931 11.6446 16.7882 24.7273 23.4298 1.25544 3.86298 76.5898
9379940 11.6622 16.7237 24.806 23.4103 1.19639 3.88313 76.6022
9379953 11.6622 16.7237 24.806 23.4103 1.19639 3.88313 76.6022
9379963 11.7415 16.7974 24.8257 23.3811 1.1764 3.84412 76.7457
9379977 11.7415 16.7974 24.8257 23.3811 1.1764 3.84412 76.7457
9379981 11.7767 16.7421 24.8257 23.3032 1.12296 3.8377 76.6477
9379992 11.856 16.8342 24.806 23.3616 1.14948 3.80132 76.8578
9380006 11.856 16.8342 24.806 23.3616 1.14948 3.80132 76.8578
9380012 11.8824 16.8342 24.6977 23.235 1.138 3.76052 76.6493
9380022 11.9528 16.825 24.6288 23.1765 1.11638 3.72682 76.5832
9380032 11.9528 16.825 24.6288 23.1765 1.11638 3.72682 76.5832
9380042 11.9705 16.8803 24.6977 23.1862 1.10716 3.72059 76.7347
9380054 11.9705 16.8803 24.6977 23.1862 1.10716 3.72059 76.7347
9380062 12.0585 16.8158 24.5796 23.0888 1.06688 3.68305 76.5428
9380075 12.0321 16.8619 24.5501 23.0693 1.09425 3.67101 76.5134
9380082 12.0321 16.8619 24.5501 23.0693 1.09425 3.67101 76.5134
9380092 12.0674 16.8987 24.5698 23.0693 1.08704 3.65636 76.6052
9380105 12.085 16.8434 24.5993 23.157 1.08111 3.68285 76.6847
9380123 12.1202 16.9447 24.5599 23.2642 1.14737 3.65965 76.8891
9380133 12.1026 16.9263 24.5009 23.2642 1.16775 3.65969 76.794
9380144 12.1026 16.9263 24.5009 23.2642 1.16775 3.65969 76.794
9380154 12.1114 16.8711 24.4615 23.2252 1.1489 3.65941 76.6692
9380165 12.1114 16.8711 24.4615 23.2252 1.1489 3.65941 76.6692
9380175 12.0145 16.9079 24.4517 23.1765 1.18165 3.66537 76.5506
9380186 12.0674 16.9263 24.3532 23.2155 1.2151 3.63919 76.5624
9380195 12.0674 16.9263 24.3532 23.2155 1.2151 3.63919 76.5624
9380208 12.1114 16.9632 24.2942 23.157 1.21353 3.60205 76.5257
9380216 12.0497 16.9724 24.2449 23.2057 1.26954 3.61473 76.4728
9380236 12.1114 17.0486 24.1859 23.2837 1.31641 3.58403 76.6296
9380246 12.1114 17.0486 24.1859 23.2837 1.31641 3.58403 76.6296
9380258 12.129 17.0681 24.2154 23.3324 1.32127 3.58669 76.7449
9380267 12.1114 17.0681 24.2154 23.3616 1.33633 3.5953 76.7565
9380280 12.1114 17.0681 24.2154 23.3616 1.33633 3.5953 76.7565
9380287 12.1202 17.0584 24.0973 23.2934 1.34985 3.56778 76.5692
9380297 12.1554 17.107 24.117 23.3226 1.35499 3.55477 76.702
9380308 12.1554 17.107 24.117 23.3226 1.35499 3.55477 76.702
9380317 12.129 17.1945 24.0185 23.2544 1.40392 3.51507 76.5965
9380328 12.129 17.1945 24.0185 23.2544 1.40392 3.51507 76.5965
9380337 12.1819 17.1264 23.989 23.196 1.35683 3.50554 76.4933
9380349 12.2083 17.2334 24.0382 23.2155 1.36983 3.48365 76.6954
9380371 12.1554 17.2529 23.9201 23.2739 1.45271 3.48274 76.6023
9380377 12.2083 17.2529 23.9102 23.3226 1.45284 3.47584 76.694
9380387 12.2083 17.2529 23.9102 23.3226 1.45284 3.47584 76.694
9380397 12.2259 17.2334 23.9299 23.3616 1.44597 3.48509 76.7509
9380417 12.1378 17.2431 23.9201 23.3324 1.47377 3.49812 76.6334
9380437 12.1642 17.2042 23.9201 23.3811 1.46765 3.50843 76.6697
9380439 12.1642 17.2042 23.9201 23.3811 1.46765 3.50843 76.6697
9380448 12.1554 17.2334 23.9595 23.3713 1.46307 3.50796 76.7197
9380460 12.1202 17.1653 23.9299 23.4688 1.49443 3.54307 76.6842
9380468 12.1202 17.1653 23.9299 23.4688 1.49443 3.54307 76.6842
9380478 12.0938 17.1848 23.9398 23.3908 1.48222 3.53457 76.6092
9380488 12.0938 17.1848 23.9102 23.3908 1.49243 3.53015 76.5796
9380499 12.0057 17.214 23.9102 23.4493 1.5498 3.55316 76.5792
9380508 11.9969 17.2237 23.9201 23.5272 1.57625 3.56604 76.6679
9380522 11.9969 17.2237 23.9201 23.5272 1.57625 3.56604 76.6679
9380529 12.0321 17.1556 23.9988 23.498 1.50703 3.58138 76.6846
9380544 11.9969 17.1264 23.9988 23.498 1.51027 3.597 76.6202
9380549 11.9969 17.1264 23.9988 23.498 1.51027 3.597 76.6202
9380559 11.9705 17.1362 23.9496 23.5759 1.56331 3.60533 76.6322
9380571 11.9705 17.1362 23.9496 23.5759 1.56331 3.60533 76.6322
9380580 11.9176 17.0973 23.9693 23.5564 1.55694 3.62766 76.5406
9380590 11.9528 17.0973 24.0874 23.537 1.49787 3.63373 76.6745
9380599 11.9528 17.0973 24.0874 23.537 1.49787 3.63373 76.6745
9380611 11.8648 17.0973 24.0087 23.5954 1.57355 3.65215 76.5661
9380621 11.8736 17.0973 24.0874 23.6344 1.55511 3.66743 76.6926
9380631 11.8736 17.0973 24.0874 23.6344 1.55511 3.66743 76.6926
9380641 11.944 17.0875 24.0382 23.6246 1.54181 3.64393 76.6944
9380653 11.944 17.0195 24.117 23.5857 1.48179 3.66638 76.6661
9380674 11.9 17.0486 24.1071 23.6052 1.51533 3.67143 76.6609
9380681 11.9 17.0486 24.1071 23.6052 1.51533 3.67143 76.6609
9380691 11.8912 17.0389 24.1563 23.6344 1.50733 3.68752 76.7208
9380701 11.8824 17.0584 24.1071 23.6149 1.52738 3.67479 76.6628
9380717 11.8824 17.0584 24.1071 23.6149 1.52738 3.67479 76.6628
9380725 11.9352 17.0973 24.1662 23.6149 1.50062 3.66119 76.8136
9380732 11.9176 17.0389 24.117 23.5564 1.48792 3.66376 76.6299
9380742 11.9176 17.0389 24.117 23.5564 1.48792 3.66376 76.6299
9380753 11.8736 17.0389 24.1268 23.5857 1.50871 3.68026 76.625
9380764 11.8736 17.0389 24.1268 23.5857 1.50871 3.68026 76.625
9380773 11.9088 17.0097 24.1367 23.5272 1.46623 3.6716 76.5824
9380783 11.9264 17.0389 24.2056 23.5662 1.45728 3.67614 76.7371
9380803 11.9264 17.0486 24.1563 23.498 1.45631 3.65642 76.6294
9380813 11.9 17.0973 24.2154 23.459 1.44802 3.65399 76.6717
9380827 11.9 17.0973 24.2154 23.459 1.44802 3.65399 76.6717
9380834 11.9352 17.0486 24.1957 23.4298 1.41872 3.65001 76.6094
9380846 11.9793 17.0778 24.2056 23.4298 1.40913 3.63366 76.6924
9380855 11.9793 17.0778 24.2056 23.4298 1.40913 3.63366 76.6924
9380868 11.9617 17.0195 24.1957 23.4395 1.40362 3.65212 76.6164
9380875 11.9617 17.0195 24.1957 23.4395 1.40362 3.65212 76.6164
9380884 11.9528 17.0195 24.1957 23.4006 1.39465 3.64849 76.5686
9380895 12.0057 17.0681 24.2449 23.3421 1.35649 3.62244 76.6608
9380905 12.0057 17.0681 24.2449 23.3421 1.35649 3.62244 76.6608
9380915 11.9881 17.0973 24.2351 23.3324 1.37192 3.61672 76.6528
9380924 12.0497 17.0973 24.1071 23.3324 1.39475 3.58271 76.5865
9380935 12.0497 17.0097 24.1071 23.3324 1.36774 3.60398 76.499
9380946 12.0233 17.0292 24.2548 23.2642 1.31095 3.6175 76.5715
9380956 12.0233 17.0292 24.2548 23.2642 1.31095 3.6175 76.5715
9380966 12.1202 17.0195 24.2449 23.2739 1.28108 3.59631 76.6585
9380978 12.1114 17.0584 24.1859 23.2642 1.31339 3.57877 76.6198
9380987 12.1114 17.0584 24.1859 23.2642 1.31339 3.57877 76.6198
9381002 12.1378 17.0973 24.117 23.157 1.30686 3.53662 76.5091
9381016 12.0762 17.0389 24.1465 23.1765 1.30588 3.57307 76.4381
9381026 12.0938 17.0875 24.2154 23.2057 1.30024 3.57165 76.6024
9381040 12.0938 17.0875 24.2154 23.2057 1.30024 3.57165 76.6024
9381048 12.085 17.0097 24.2351 23.2837 1.29655 3.60721 76.6135
9381060 12.1731 17.1167 24.2843 23.2642 1.27656 3.56438 76.8382
9381068 12.1731 17.1167 24.2843 23.2642 1.27656 3.56438 76.8382
9381080 12.1466 17.0681 24.2154 23.2447 1.28815 3.56937 76.6748
9381092 12.1026 17.0875 24.2646 23.1862 1.2743 3.57395 76.641
9381097 12.1026 17.0875 24.2646 23.1862 1.2743 3.57395 76.641
9381111 12.1466 17.0584 24.2056 23.196 1.27344 3.56299 76.6065
9381117 12.1466 17.0584 24.2056 23.196 1.27344 3.56299 76.6065
9381127 12.0321 17 24.2745 23.1668 1.26193 3.61089 76.4734
9381137 12.0674 17.0778 24.2548 23.157 1.27771 3.57903 76.557
9381148 12.0674 17.0778 24.2548 23.157 1.27771 3.57903 76.557
9381157 12.1554 17.0875 24.2154 23.1181 1.25193 3.54361 76.5764
9381167 12.0762 17.0486 24.2843 23.1862 1.26457 3.59273 76.5954
9381178 12.0762 17.0486 24.2843 23.1862 1.26457 3.59273 76.5954
9381187 12.1026 17.0195 24.2843 23.2155 1.25552 3.59775 76.6218
9381206 12.1026 17.0195 24.2843 23.2155 1.25552 3.59775 76.6218
9381208 12.0674 17 24.2646 23.2447 1.27739 3.61245 76.5767
9381223 12.1202 17.0681 24.2843 23.3032 1.29166 3.59473 76.7757
9381228 12.1202 17.0681 24.2843 23.3032 1.29166 3.59473 76.7757
9381238 12.0762 17.0292 24.2942 23.2544 1.27629 3.60906 76.6539
9381248 12.0497 17.0584 24.2548 23.3324 1.33196 3.61412 76.6953
9381268 12.0585 17.0681 24.2548 23.3616 1.34096 3.61396 76.743
9381278 12.0585 17.0681 24.2548 23.3616 1.34096 3.61396 76.743
9381289 11.944 17.0389 24.2252 23.3811 1.3875 3.64739 76.5893
9381299 11.9176 17.0778 24.2449 23.3811 1.40181 3.64727 76.6214
9381320 11.9705 17.0389 24.2548 23.3908 1.37124 3.64678 76.655
9381334 11.856 16.9816 24.2942 23.498 1.41246 3.7103 76.6297
9381349 11.8295 17.0292 24.2745 23.5662 1.46395 3.71228 76.6994
9381369 11.7679 16.9816 24.3827 23.5467 1.42727 3.75201 76.6789
9381379 11.7943 16.9355 24.4123 23.6636 1.42976 3.77824 76.8057
9381389 11.7943 16.9355 24.4123 23.6636 1.42976 3.77824 76.8057
9381399 11.7415 16.954 24.4221 23.6928 1.45918 3.79237 76.8104
9381410 11.7326 16.8619 24.4123 23.6928 1.43736 3.81565 76.6996
9381421 11.7326 16.8619 24.4123 23.6928 1.43736 3.81565 76.6996
9381431 11.6446 16.8066 24.4615 23.8097 1.46968 3.87502 76.7224
9381451 11.6181 16.7421 24.5107 23.8195 1.44503 3.90595 76.6905
9381463 11.671 16.7329 24.5599 23.839 1.41303 3.90513 76.8028
9381471 11.671 16.7329 24.5599 23.839 1.41303 3.90513 76.8028
9381486 11.7326 16.7237 24.5107 23.8487 1.40892 3.88652 76.8158
9381492 11.6798 16.7514 24.4517 23.761 1.42899 3.87145 76.6438
9381502 11.6798 16.7514 24.4517 23.761 1.42899 3.87145 76.6438
9381512 11.7679 16.825 24.4024 23.7123 1.42327 3.81745 76.7077
9381522 11.7679 16.825 24.4024 23.7123 1.42327 3.81745 76.7077
9381532 11.7591 16.779 24.3729 23.7026 1.41933 3.82519 76.6135
9381542 11.7238 16.8619 24.3926 23.6636 1.4382 3.81068 76.6419
9381562 11.6886 16.8619 24.3237 23.7221 1.49212 3.8178 76.5962
9381574 11.715 16.825 24.3729 23.7415 1.46066 3.83038 76.6545
9381582 11.715 16.825 24.3729 23.7415 1.46066 3.83038 76.6545
9381592 11.6974 16.8987 24.2942 23.7318 1.51358 3.8037 76.6221
9381612 11.6974 16.8987 24.2942 23.7318 1.51358 3.8037 76.6221
9381618 11.7238 16.8895 24.2646 23.8487 1.54762 3.81224 76.7267
9381623 11.7062 16.9263 24.3237 23.8195 1.53561 3.81187 76.7757
9381633 11.7062 16.9263 24.3237 23.8195 1.53561 3.81187 76.7757
9381643 11.6974 16.8987 24.2154 23.8292 1.57067 3.80643 76.6407
9381653 11.7238 16.9355 24.2056 23.839 1.57916 3.79091 76.7039
9381663 11.7238 16.9355 24.2056 23.839 1.57916 3.79091 76.7039
9381673 11.6798 16.9447 24.1957 23.8292 1.59768 3.79658 76.6495
9381684 11.6798 16.9447 24.1957 23.8292 1.59768 3.79658 76.6495
9381693 11.6622 16.9079 24.1367 23.8877 1.63091 3.80986 76.5944
9381706 11.6358 16.8711 24.1859 23.9266 1.62365 3.83827 76.6193
9381730 11.6446 16.9355 24.1859 23.8974 1.63133 3.816 76.6634
9381734 11.6446 16.9171 24.2056 23.9266 1.62779 3.82766 76.6939
9381753 11.6269 16.9079 24.1957 23.9461 1.64045 3.83565 76.6767
9381763 11.6269 16.9079 24.1957 23.9461 1.64045 3.83565 76.6767
9381774 11.5741 16.8342 24.2449 23.9169 1.61032 3.86969 76.5702
9381783 11.5917 16.9079 24.2646 24.0338 1.65544 3.86705 76.798
9381795 11.5917 16.9079 24.2646 24.0338 1.65544 3.86705 76.798
9381808 11.5565 16.9079 24.1859 23.9461 1.66839 3.85154 76.5964
9381818 11.5653 16.8803 24.1662 23.9364 1.66079 3.85189 76.5481
9381824 11.5653 16.8803 24.1662 23.9364 1.66079 3.85189 76.5481
9381835 11.6622 16.9263 24.1563 23.9072 1.63563 3.81106 76.652
9381854 11.5829 16.8987 24.2351 23.9559 1.64224 3.85588 76.6726
9381865 11.6446 16.954 24.176 23.9851 1.66704 3.82283 76.7596
9381876 11.6446 16.954 24.176 23.9851 1.66704 3.82283 76.7596
9381887 11.6886 16.8895 24.1465 23.8682 1.60674 3.80648 76.5928
9381896 11.6446 16.9171 24.2646 23.8877 1.59541 3.83058 76.714
9381906 11.6446 16.9171 24.2646 23.8877 1.59541 3.83058 76.714
9381917 11.6886 17 24.2154 23.9072 1.6284 3.79514 76.8112
9381929 11.6534 16.9632 24.1662 23.7805 1.60786 3.7871 76.5632
9381951 11.7062 16.9816 24.2154 23.7708 1.57509 3.77541 76.674
9381957 11.7062 16.9816 24.2154 23.7708 1.57509 3.77541 76.674
9381967 11.7503 16.954 24.1465 23.7805 1.57824 3.76272 76.6312
9381980 11.7062 16.9632 24.1957 23.7513 1.57033 3.77418 76.6164
9381998 11.7943 16.9908 24.2154 23.7415 1.53848 3.74733 76.742
9382007 11.7591 16.9447 24.2351 23.7221 1.5238 3.76724 76.661
9382030 11.6974 16.9263 24.2548 23.8097 1.55952 3.80256 76.6883
9382041 11.6974 16.9263 24.2548 23.8097 1.55952 3.80256 76.6883
9382048 11.7591 16.9171 24.3138 23.7415 1.49409 3.78838 76.7316
9382058 11.8207 16.9908 24.3138 23.7318 1.49239 3.75387 76.8572
9382068 11.8207 16.9908 24.3138 23.7318 1.49239 3.75387 76.8572
9382084 11.8383 16.9816 24.304 23.6344 1.45705 3.7361 76.7583
9382088 11.7943 16.9263 24.2745 23.6246 1.46248 3.75461 76.6197
9382098 11.7943 16.9263 24.2745 23.6246 1.46248 3.75461 76.6197
9382109 11.8031 16.9171 24.2843 23.5467 1.42924 3.74471 76.5512
9382118 11.8031 16.9171 24.2843 23.5467 1.42924 3.74471 76.5512
9382131 11.7503 16.8711 24.2449 23.5564 1.44994 3.7646 76.4227
9382139 11.8119 16.8619 24.3434 23.5954 1.40381 3.7719 76.6126
9382158 11.7415 16.8987 24.3729 23.6052 1.43227 3.7859 76.6182
9382168 11.7503 16.8342 24.3827 23.6636 1.42398 3.80953 76.6309
9382193 11.7062 16.8158 24.5206 23.6636 1.38602 3.84495 76.7062
9382198 11.7062 16.8158 24.5206 23.6636 1.38602 3.84495 76.7062
9382214 11.671 16.779 24.5501 23.6831 1.38264 3.8698 76.6832
9382229 11.6886 16.8066 24.5993 23.6539 1.35917 3.86157 76.7484
9382231 11.6886 16.8066 24.5993 23.6539 1.35917 3.86157 76.7484
9382239 11.6358 16.7882 24.5304 23.8 1.44032 3.89029 76.7543
9382250 11.6358 16.7053 24.6485 23.761 1.36222 3.92215 76.7506
9382260 11.6358 16.7053 24.6485 23.761 1.36222 3.92215 76.7506
9382270 11.6005 16.7237 24.6091 23.8 1.40553 3.92624 76.7334
9382279 11.6005 16.7237 24.6091 23.8 1.40553 3.92624 76.7334
9382291 11.5653 16.6132 24.6682 23.761 1.35129 3.96515 76.6077
9382301 11.6005 16.6408 24.7076 23.7805 1.34018 3.95808 76.7295
9382310 11.6005 16.6408 24.7076 23.7805 1.34018 3.95808 76.7295
9382323 11.6269 16.6777 24.7076 23.7708 1.33947 3.94106 76.783
9382338 11.6181 16.5948 24.6879 23.7513 1.31766 3.95806 76.6521
9382358 11.5829 16.5948 24.7371 23.7513 1.31286 3.97386 76.6661
9382361 11.5829 16.5948 24.7371 23.7513 1.31286 3.97386 76.6661
9382371 11.6269 16.6408 24.7273 23.761 1.31835 3.95158 76.7561
9382381 11.6358 16.7053 24.7174 23.7123 1.32357 3.92506 76.7708
9382393 11.6358 16.7053 24.7174 23.7123 1.32357 3.92506 76.7708
9382401 11.6181 16.7329 24.6387 23.6344 1.34113 3.89995 76.6241
9382412 11.6358 16.7237 24.6879 23.5857 1.30027 3.89795 76.6331
9382421 11.6358 16.7237 24.6879 23.5857 1.30027 3.89795 76.6331
9382435 11.6622 16.8066 24.5993 23.5857 1.34723 3.85817 76.6538
9382441 11.6622 16.8066 24.5993 23.5857 1.34723 3.85817 76.6538
9382451 11.7503 16.8158 24.5599 23.5175 1.31228 3.81859 76.6435
9382461 11.7591 16.8895 24.4713 23.5564 1.37446 3.79111 76.6763
9382471 11.7591 16.8895 24.4713 23.5564 1.37446 3.79111 76.6763
9382481 11.7415 16.8803 24.4812 23.5564 1.37429 3.79912 76.6594
9382491 11.715 16.8803 24.5206 23.5564 1.36984 3.81136 76.6723
9382502 11.715 16.8527 24.5206 23.5272 1.3523 3.81387 76.6155
9382512 11.7326 16.9632 24.4615 23.6246 1.43057 3.78807 76.7819
9382532 11.6974 16.9263 24.4123 23.5564 1.42739 3.78856 76.5925
9382546 11.7238 17.0097 24.3434 23.537 1.46171 3.74869 76.6139
9382552 11.7238 17.0097 24.3434 23.537 1.46171 3.74869 76.6139
9382562 11.7326 17.0486 24.432 23.6344 1.46993 3.76428 76.8476
9382572 11.7326 17.0486 24.432 23.6344 1.46993 3.76428 76.8476
9382582 11.7415 16.9447 24.3138 23.6052 1.46681 3.76596 76.6052
9382592 11.6798 16.9632 24.4418 23.7026 1.47946 3.8095 76.7873
9382603 11.6798 16.9632 24.4418 23.7026 1.47946 3.8095 76.7873
9382613 11.7326 16.9724 24.3532 23.6149 1.46773 3.76855 76.6731
9382622 11.6886 16.9724 24.3926 23.6734 1.48726 3.79364 76.7269
9382643 11.7326 16.9908 24.3827 23.6441 1.47215 3.77264 76.7503
9382658 11.715 16.9724 24.3434 23.5954 1.47123 3.76857 76.6262
9382663 11.715 16.9724 24.3434 23.5954 1.47123 3.76857 76.6262
9382673 11.6622 16.9816 24.3434 23.6734 1.51623 3.79067 76.6605
9382683 11.6622 16.9816 24.3434 23.6734 1.51623 3.79067 76.6605
9382693 11.6534 17.0097 24.3532 23.7026 1.53343 3.79164 76.7189
9382706 11.6974 16.9724 24.3729 23.6734 1.49102 3.78861 76.716
9382713 11.6974 16.9724 24.3729 23.6734 1.49102 3.78861 76.716
9382726 11.6974 16.9447 24.4615 23.7415 1.47289 3.81824 76.8452
9382735 11.5741 16.9263 24.3729 23.7415 1.54046 3.84012 76.6149
9382755 11.5917 17.0097 24.432 23.761 1.54539 3.82675 76.7944
9382764 11.5917 17.0097 24.432 23.761 1.54539 3.82675 76.7944
9382775 11.6005 16.9355 24.3729 23.761 1.54009 3.8342 76.67
9382785 11.6534 16.9632 24.3631 23.761 1.53367 3.81302 76.7406
9382794 11.6534 16.9632 24.3631 23.761 1.53367 3.81302 76.7406
9382805 11.6269 16.9632 24.2942 23.8 1.57857 3.81513 76.6843
9382816 11.5565 16.9355 24.3729 23.7805 1.5613 3.84786 76.6454
9382826 11.5565 16.9355 24.3729 23.7805 1.5613 3.84786 76.6454
9382839 11.671 16.9171 24.3532 23.8 1.52881 3.82423 76.7413
9382846 11.671 16.9171 24.3532 23.8 1.52881 3.82423 76.7413
9382856 11.5829 16.9447 24.3434 23.8097 1.57413 3.83906 76.6808
9382866 11.6181 16.9816 24.3434 23.761 1.5583 3.81427 76.7041
9382886 11.6269 16.9908 24.3335 23.8097 1.57634 3.81552 76.761
9382896 11.6534 16.9908 24.3335 23.7415 1.54637 3.7991 76.7192
9382907 11.6534 16.9908 24.3335 23.7415 1.54637 3.7991 76.7192
9382918 11.6446 17.0097 24.2646 23.7805 1.59097 3.79224 76.6994
9382935 11.6446 17.0097 24.2646 23.7805 1.59097 3.79224 76.6994
9382937 11.6358 16.954 24.2252 23.8097 1.59958 3.8066 76.6247
9382946 11.6534 17.0389 24.3237 23.7221 1.55852 3.78303 76.738
9382961 11.6534 17.0389 24.3237 23.7221 1.55852 3.78303 76.738
9382967 11.6798 16.9908 24.3335 23.839 1.56697 3.80683 76.8431
9382986 11.6446 17.0097 24.3631 23.7026 1.53307 3.79524 76.7199
9382991 11.6446 17.0097 24.3631 23.7026 1.53307 3.79524 76.7199
9383000 11.6886 17.0097 24.4123 23.761 1.51873 3.80016 76.8716
9383011 11.6886 17.0097 24.4123 23.761 1.51873 3.80016 76.8716
9383017 11.6886 16.9171 24.3532 23.6928 1.4899 3.80428 76.6518
9383028 11.7062 17.0681 24.3237 23.6636 1.5313 3.75442 76.7616
9383046 11.7062 17.0681 24.3237 23.6636 1.5313 3.75442 76.7616
9383048 11.7062 16.9816 24.2843 23.6539 1.51545 3.76838 76.626
9383057 11.6886 17.0389 24.2449 23.6052 1.53782 3.74573 76.5776
9383067 11.6886 17.0389 24.2449 23.6052 1.53782 3.74573 76.5776
9383077 11.6798 17.0389 24.2843 23.6344 1.53619 3.75796 76.6374
9383087 11.6798 17.0389 24.2843 23.6344 1.53619 3.75796 76.6374
9383097 11.7062 17.0195 24.3335 23.6636 1.51302 3.76775 76.7228
9383107 11.7415 17.0778 24.3926 23.6149 1.48343 3.7464 76.8267
9383128 11.7415 17.0973 24.4024 23.6441 1.49492 3.74737 76.8853
9383140 11.671 16.9447 24.3237 23.6734 1.5087 3.79466 76.6128
9383148 11.671 16.9447 24.3237 23.6734 1.5087 3.79466 76.6128
9383166 11.671 16.9816 24.4221 23.7221 1.50089 3.80712 76.7967
9383169 11.671 16.9816 24.4221 23.7221 1.50089 3.80712 76.7967
9383179 11.5741 16.8895 24.304 23.7026 1.54112 3.83346 76.4702
9383193 11.6005 16.8987 24.3926 23.761 1.522 3.84612 76.6528
9383198 11.6005 16.8987 24.3926 23.761 1.522 3.84612 76.6528
9383208 11.6181 16.9079 24.3827 23.7513 1.51915 3.83667 76.6601
9383219 11.6005 16.8711 24.3631 23.8 1.5357 3.85429 76.6346
9383228 11.6005 16.8711 24.3631 23.8 1.5357 3.85429 76.6346
9383251 11.5301 16.8987 24.4418 23.839 1.5532 3.88192 76.7095
9383260 11.5389 16.825 24.4418 23.8292 1.52463 3.89649 76.6349
9383271 11.5565 16.8803 24.5009 23.8487 1.52099 3.88991 76.7863
9383281 11.5565 16.8803 24.5009 23.8487 1.52099 3.88991 76.7863
9383298 11.6005 16.8342 24.5107 23.8195 1.47935 3.8876 76.765
9383301 11.5829 16.8342 24.4615 23.8779 1.52032 3.89327 76.7566
9383311 11.5829 16.8342 24.4615 23.8779 1.52032 3.89327 76.7566
9383321 11.6974 16.8711 24.3631 23.839 1.51412 3.83615 76.7705
9383331 11.6974 16.8711 24.3631 23.839 1.51412 3.83615 76.7705
9383343 11.6005 16.8895 24.4024 23.839 1.53963 3.86114 76.7314
9383352 11.6093 16.8895 24.3335 23.7805 1.54254 3.84046 76.6129
9383366 11.6093 16.8895 24.3335 23.7805 1.54254 3.84046 76.6129
9383372 11.5917 16.8619 24.3926 23.8487 1.54061 3.87009 76.6949
9383382 11.6093 16.7882 24.3631 23.8195 1.51322 3.87536 76.5801
9383402 11.5741 16.9171 24.4221 23.8097 1.54147 3.85946 76.7231
9383422 11.6093 16.825 24.4418 23.7708 1.48234 3.87065 76.6469
9383436 11.6534 16.8342 24.4418 23.7903 1.47593 3.86038 76.7197
9383448 11.6534 16.8342 24.4418 23.7903 1.47593 3.86038 76.7197
9383459 11.6886 16.9263 24.3729 23.7903 1.51576 3.8191 76.7781
9383462 11.6269 16.8987 24.4221 23.7415 1.49668 3.84109 76.6893
9383472 11.6269 16.8987 24.4221 23.7415 1.49668 3.84109 76.6893
9383482 11.6005 16.8895 24.3827 23.8097 1.5375 3.85404 76.6825
9383492 11.6005 16.8895 24.3827 23.8097 1.5375 3.85404 76.6825
9383504 11.5829 16.8803 24.4123 23.6539 1.48275 3.84224 76.5293
9383512 11.5653 16.8434 24.5009 23.6831 1.45588 3.8728 76.5927
9383532 11.5741 16.8434 24.5402 23.7708 1.46617 3.88906 76.7286
9383542 11.6534 16.9355 24.4615 23.7415 1.48525 3.83129 76.7919
9383553 11.6534 16.9355 24.4615 23.7415 1.48525 3.83129 76.7919
9383565 11.6358 16.8711 24.5501 23.7708 1.45 3.86854 76.8277
9383573 11.6446 16.8619 24.4713 23.761 1.46829 3.8558 76.7388
9383583 11.6446 16.8619 24.4713 23.761 1.46829 3.8558 76.7388
9383596 11.5917 16.8895 24.4812 23.7318 1.48264 3.85918 76.6942
9383619 11.6358 16.8987 24.4812 23.7708 1.48221 3.85176 76.7864
9383642 11.6181 16.8342 24.491 23.7708 1.46513 3.87336 76.7142
9383645 11.6181 16.8342 24.491 23.7708 1.46513 3.87336 76.7142
9383646 11.6446 16.7882 24.4615 23.7513 1.44608 3.87107 76.6455
9383655 11.6446 16.7882 24.4615 23.7513 1.44608 3.87107 76.6455
9383666 11.6181 16.8711 24.4615 23.7513 1.48064 3.85718 76.702
9383673 11.6005 16.8434 24.4713 23.8097 1.49278 3.87822 76.725
9383683 11.6005 16.8434 24.4713 23.8097 1.49278 3.87822 76.725
9383693 11.6358 16.8434 24.5107 23.8195 1.47003 3.87668 76.8094
9383703 11.5917 16.8158 24.5009 23.7513 1.45922 3.883 76.6597
9383724 11.6093 16.8158 24.5107 23.7903 1.46171 3.88574 76.7261
9383736 11.6093 16.8158 24.5107 23.7903 1.46171 3.88574 76.7261
9383745 11.5917 16.7421 24.4517 23.8974 1.49844 3.91519 76.6829
9383758 11.5389 16.7974 24.5501 23.8974 1.49963 3.92881 76.7838
9383767 11.5389 16.7974 24.5501 23.8974 1.49963 3.92881 76.7838
9383774 11.5212 16.7514 24.5796 23.8487 1.46648 3.94175 76.7009
9383785 11.4684 16.7421 24.5402 23.8487 1.49551 3.95141 76.5995
9383796 11.4684 16.7421 24.5402 23.8487 1.49551 3.95141 76.5995
9383806 11.5389 16.7514 24.5895 23.8682 1.46298 3.94163 76.7479
9383816 11.5389 16.7514 24.5895 23.8682 1.46298 3.94163 76.7479
9383827 11.5036 16.6869 24.5304 23.9364 1.49668 3.96758 76.6573
9383836 11.4508 16.6961 24.5107 23.9266 1.52161 3.97415 76.5842
9383856 11.4332 16.7145 24.5501 23.9656 1.53166 3.98522 76.6634
9383866 11.4596 16.6777 24.5895 23.9754 1.50061 3.99485 76.7021
9383877 11.4596 16.6777 24.5895 23.9754 1.50061 3.99485 76.7021
9383886 11.4508 16.7329 24.6288 24.063 1.53376 4.00156 76.8756
9383897 11.4508 16.7329 24.5304 24.063 1.56779 3.98746 76.7771
9383906 11.4508 16.6869 24.5304 24.0338 1.54479 3.99466 76.7019
9383919 11.4508 16.6685 24.6485 24.102 1.51918 4.02589 76.8698
9383937 11.3803 16.6224 24.6584 24.1994 1.5558 4.07004 76.8605
9383947 11.4244 16.6132 24.6781 24.141 1.51314 4.05589 76.8566
9383957 11.4244 16.6132 24.6781 24.141 1.51314 4.05589 76.8566
9383968 11.3803 16.6224 24.7076 24.141 1.52096 4.06873 76.8513
9383991 11.3539 16.5764 24.5993 24.102 1.54153 4.06576 76.6316
9383997 11.3715 16.6132 24.6977 24.1117 1.51565 4.06764 76.7942
9384017 11.3363 16.5672 24.6288 24.0825 1.52862 4.07387 76.6148
9384027 11.301 16.5119 24.6682 24.1117 1.51921 4.10619 76.5929
9384039 11.301 16.5119 24.6682 24.1117 1.51921 4.10619 76.5929
9384048 11.3275 16.5488 24.6584 24.0923 1.51879 4.08625 76.6268
9384061 11.2218 16.4751 24.7174 24.2092 1.54817 4.15599 76.6234
9384068 11.2218 16.4751 24.7174 24.2092 1.54817 4.15599 76.6234
9384078 11.3363 16.5395 24.7076 24.2676 1.54953 4.11824 76.851
9384091 11.3363 16.5395 24.7076 24.2676 1.54953 4.11824 76.851
9384098 11.2218 16.5764 24.7863 24.2774 1.57609 4.15009 76.8618
9384108 11.257 16.5764 24.8159 24.3358 1.57152 4.15372 76.9851
9384130 11.2834 16.5672 24.7076 24.2579 1.57325 4.12314 76.8161
9384139 11.2306 16.5303 24.7371 24.2871 1.579 4.1538 76.7851
9384149 11.2306 16.5303 24.7371 24.2871 1.579 4.1538 76.7851
9384164 11.2482 16.5303 24.7371 24.2384 1.55804 4.14251 76.754
9384170 11.2482 16.5303 24.7371 24.2384 1.55804 4.14251 76.754
9384180 11.2041 16.5119 24.7371 24.2384 1.56766 4.15811 76.6916
9384192 11.1689 16.4659 24.7273 24.2384 1.56921 4.17704 76.6004
9384201 11.1689 16.4659 24.7273 24.2384 1.56921 4.17704 76.6004
9384218 11.2658 16.4567 24.7568 24.2092 1.51367 4.15516 76.6884
9384223 11.1513 16.4106 24.7962 24.3358 1.56432 4.21873 76.6939
9384232 11.1513 16.4106 24.7962 24.3358 1.56432 4.21873 76.6939
9384242 11.1953 16.4567 24.8552 24.3261 1.53975 4.20312 76.8333
9384253 11.1865 16.429 24.8356 24.3163 1.53818 4.2081 76.7674
9384268 11.1865 16.429 24.8356 24.3163 1.53818 4.2081 76.7674
9384276 11.2218 16.5303 24.8552 24.2676 1.53527 4.16991 76.875
9384296 11.2218 16.5119 24.8257 24.2481 1.5339 4.16759 76.8075
9384303 11.257 16.604 24.7568 24.2092 1.56175 4.12062 76.827
9384323 11.3098 16.5672 24.7371 24.2676 1.55688 4.12212 76.8818
9384333 11.3803 16.5211 24.6387 24.1605 1.51974 4.08687 76.7006
9384353 11.3539 16.6132 24.7273 24.1605 1.52642 4.08315 76.8548
9384364 11.3539 16.6132 24.7273 24.1605 1.52642 4.08315 76.8548
9384376 11.2922 16.5856 24.7076 24.102 1.52821 4.09424 76.6874
9384385 11.3539 16.5488 24.7371 24.1312 1.49437 4.09641 76.771
9384402 11.3539 16.5488 24.7371 24.1312 1.49437 4.09641 76.771
9384406 11.3451 16.5395 24.7568 24.0241 1.45493 4.08846 76.6655
9384415 11.301 16.5856 24.747 24.1117 1.51454 4.09903 76.7453
9384426 11.301 16.5856 24.747 24.1117 1.51454 4.09903 76.7453
9384435 11.3451 16.604 24.7371 24.1117 1.50836 4.0821 76.798
9384450 11.3451 16.604 24.7371 24.1117 1.50836 4.0821 76.798
9384455 11.3539 16.5119 24.7076 24.0825 1.47835 4.09446 76.6559
9384465 11.301 16.5672 24.6879 24.102 1.52634 4.09383 76.6581
9384475 11.301 16.5672 24.6879 24.102 1.52634 4.09383 76.6581
9384485 11.3187 16.5764 24.6977 24.1117 1.52264 4.08994 76.7045
9384496 11.3098 16.5211 24.7273 24.102 1.49556 4.10871 76.6602
9384518 11.3187 16.5303 24.806 24.1605 1.48607 4.12368 76.8155
9384535 11.3187 16.5027 24.8159 24.1507 1.47123 4.13058 76.7879
9384545 11.2746 16.5488 24.8946 24.1702 1.47933 4.14396 76.8882
9384555 11.2746 16.5488 24.8946 24.1702 1.47933 4.14396 76.8882
9384565 11.257 16.5303 24.9045 24.1702 1.47638 4.15433 76.862
9384576 11.2834 16.4382 24.8749 24.1117 1.43128 4.15828 76.7083
9384588 11.2834 16.4382 24.8749 24.1117 1.43128 4.15828 76.7083
9384596 11.2834 16.4935 24.9241 24.1994 1.45817 4.16382 76.9005
9384616 11.257 16.4567 24.8848 24.0923 1.43667 4.15892 76.6907
9384627 11.301 16.4106 24.8848 24.0825 1.40434 4.15805 76.6789
9384636 11.301 16.4106 24.8848 24.0825 1.40434 4.15805 76.6789
9384646 11.2306 16.4659 24.9045 24.102 1.44481 4.16738 76.7029
9384657 11.2394 16.5211 24.9241 24.0533 1.437 4.14728 76.7379
9384666 11.2394 16.5211 24.9241 24.0533 1.437 4.14728 76.7379
9384681 11.3187 16.4751 24.9045 24.063 1.40533 4.13759 76.7612
9384686 11.3187 16.4751 24.9045 24.063 1.40533 4.13759 76.7612
9384696 11.2658 16.4475 24.9734 24.0728 1.39431 4.16878 76.7594
9384706 11.1953 16.4659 24.934 24.1507 1.46173 4.18723 76.7459
9384716 11.1953 16.4659 24.934 24.1507 1.46173 4.18723 76.7459
9384729 11.2482 16.4659 24.9438 24.1215 1.43116 4.17129 76.7794
9384737 11.2306 16.4014 24.8946 24.1117 1.43139 4.18349 76.6383
9384752 11.2306 16.4014 24.8946 24.1117 1.43139 4.18349 76.6383
9384757 11.2658 16.5211 24.9537 24.102 1.43268 4.15175 76.8426
9384777 11.2482 16.4014 24.9537 24.0728 1.39298 4.18192 76.676
9384788 11.257 16.4659 24.9537 24.102 1.41876 4.16773 76.7785
9384799 11.257 16.4659 24.9537 24.102 1.41876 4.16773 76.7785
9384807 11.2658 16.5303 24.934 24.063 1.43033 4.14117 76.7932
9384822 11.257 16.4659 24.9241 24.1507 1.44387 4.17043 76.7977
9384830 11.257 16.4659 24.9241 24.1507 1.44387 4.17043 76.7977
9384838 11.3187 16.5119 25.0029 24.141 1.40675 4.15332 76.9744
9384848 11.3187 16.5119 25.0029 24.141 1.40675 4.15332 76.9744
9384858 11.2922 16.4751 25.0226 24.1507 1.40075 4.17322 76.9406
9384869 11.3451 16.4475 24.9734 24.1215 1.38206 4.15588 76.8874
9384891 11.2746 16.5303 24.9045 24.0923 1.44643 4.13893 76.8017
9384898 11.257 16.5027 24.9241 24.0241 1.4163 4.14335 76.7079
9384916 11.257 16.5027 24.9241 24.0241 1.4163 4.14335 76.7079
9384926 11.257 16.4843 24.9241 24.0436 1.41662 4.1507 76.709
9384932 11.257 16.4843 24.9241 24.0436 1.41662 4.1507 76.709
9384939 11.301 16.5119 24.8651 24.0533 1.43327 4.12584 76.7313
9384950 11.2746 16.5303 24.9537 24.0923 1.4295 4.14588 76.8509
9384971 11.301 16.5027 24.9438 24.1215 1.42428 4.14892 76.8691
9384981 11.2658 16.5119 24.9832 24.1312 1.42867 4.16233 76.8922
9385001 11.2218 16.5119 24.9438 24.1312 1.45737 4.16776 76.8087
9385011 11.257 16.4751 24.8848 24.063 1.43335 4.15019 76.6799
9385032 11.257 16.5303 24.8651 24.0825 1.46308 4.13637 76.7349
9385041 11.257 16.5303 24.8651 24.0825 1.46308 4.13637 76.7349
9385056 11.2218 16.5027 24.7962 24.0825 1.49057 4.1423 76.6032
9385062 11.2306 16.4935 24.8552 24.1312 1.47924 4.15766 76.7105
9385072 11.2306 16.4935 24.8552 24.1312 1.47924 4.15766 76.7105
9385082 11.213 16.5211 24.8159 24.1507 1.51336 4.15235 76.7007
9385092 11.2041 16.4935 24.8651 24.1312 1.48496 4.16565 76.694
9385122 11.1513 16.5672 24.8946 24.1702 1.5275 4.17012 76.7833
9385132 11.2041 16.5027 24.8848 24.2189 1.50784 4.1785 76.8105
9385143 11.1689 16.558 24.9241 24.2092 1.52032 4.17767 76.8602
9385163 11.1865 16.5488 24.8946 24.1897 1.51566 4.16867 76.8196
9385173 11.1865 16.5119 24.8454 24.2676 1.54522 4.18191 76.8115
9385191 11.1865 16.5119 24.8454 24.2676 1.54522 4.18191 76.8115
9385195 11.1689 16.5488 24.8552 24.1897 1.53535 4.16751 76.7626
9385218 11.1777 16.5303 24.8356 24.1702 1.52752 4.16438 76.7138
9385224 11.1953 16.5856 24.8454 24.0728 1.50512 4.1338 76.6991
9385245 11.1953 16.5856 24.8454 24.0728 1.50512 4.1338 76.6991
9385248 11.1601 16.5303 24.8257 24.1702 1.53701 4.16739 76.6864
9385256 11.2218 16.558 24.8257 24.1117 1.50626 4.13683 76.7172
9385272 11.2218 16.558 24.8257 24.1117 1.50626 4.13683 76.7172
9385276 11.1953 16.6777 24.7863 24.1312 1.57156 4.11077 76.7906
9385286 11.2218 16.6593 24.7174 24.141 1.58362 4.10038 76.7394
9385307 11.2041 16.6316 24.6977 24.141 1.58812 4.10885 76.6745
9385326 11.2041 16.6316 24.6977 24.141 1.58812 4.10885 76.6745
9385329 11.213 16.6408 24.6879 24.0923 1.57641 4.09604 76.634
9385337 11.1865 16.6316 24.7174 24.1117 1.57847 4.11189 76.6473
9385353 11.1865 16.6316 24.7174 24.1117 1.57847 4.11189 76.6473
9385357 11.2218 16.6501 24.6879 24.063 1.56723 4.08739 76.6228
9385367 11.2306 16.604 24.747 24.1799 1.56538 4.12166 76.7615
9385380 11.2306 16.604 24.747 24.1799 1.56538 4.12166 76.7615
9385387 11.2041 16.6408 24.7174 24.1897 1.59896 4.11626 76.7521
9385408 11.1337 16.5856 24.6879 24.2287 1.6287 4.14896 76.6358
9385417 11.1601 16.5303 24.7962 24.2481 1.57106 4.17423 76.7348
9385435 11.1601 16.5303 24.7962 24.2481 1.57106 4.17423 76.7348
9385438 11.1953 16.6132 24.7568 24.2092 1.58589 4.13368 76.7745
9385450 11.1073 16.604 24.7962 24.1994 1.59699 4.16215 76.7069
9385463 11.1073 16.604 24.7962 24.1994 1.59699 4.16215 76.7069
9385468 11.1337 16.604 24.7765 24.1994 1.59466 4.15276 76.7136
9385478 11.1337 16.604 24.7765 24.1994 1.59466 4.15276 76.7136
9385489 11.1073 16.5488 24.8159 24.1897 1.57032 4.17736 76.6616
9385499 11.0984 16.5488 24.934 24.2871 1.56222 4.20991 76.8683
9385516 11.0984 16.5488 24.934 24.2871 1.56222 4.20991 76.8683
9385519 11.072 16.5395 24.8454 24.2481 1.58733 4.20089 76.7051
9385528 11.0368 16.5119 24.934 24.2579 1.56339 4.23045 76.7406
9385543 11.0368 16.5119 24.934 24.2579 1.56339 4.23045 76.7406
9385553 11.1073 16.5395 24.9635 24.2287 1.52833 4.20595 76.839
9385566 11.1073 16.5395 24.9635 24.2287 1.52833 4.20595 76.839
9385569 11.0632 16.5395 24.9537 24.2092 1.541 4.21284 76.7656
9385580 11.028 16.4935 24.934 24.2384 1.55486 4.23454 76.6939
9385591 11.028 16.4935 24.934 24.2384 1.55486 4.23454 76.6939
9385600 11.1073 16.558 24.8946 24.1897 1.54587 4.18617 76.7495
9385614 11.1337 16.558 24.9537 24.1994 1.51931 4.18925 76.8447
9385629 11.1337 16.5764 24.934 24.1799 1.52578 4.17914 76.824
9385639 11.1337 16.5764 24.934 24.1799 1.52578 4.17914 76.824
9385651 11.0632 16.5027 24.9438 24.2384 1.54207 4.22479 76.7482
9385663 11.1425 16.5764 24.8946 24.1605 1.53038 4.16864 76.7739
9385671 11.1425 16.5764 24.8946 24.1605 1.53038 4.16864 76.7739
9385684 11.1073 16.5395 24.9241 24.2287 1.54193 4.20041 76.7996
9385691 11.0808 16.5764 24.8848 24.1507 1.55213 4.18128 76.6927
9385701 11.0808 16.5764 24.8848 24.1507 1.55213 4.18128 76.6927
9385711 11.1337 16.6132 24.9438 24.1117 1.5128 4.16172 76.8025
9385733 11.0984 16.604 24.9045 24.102 1.53278 4.16588 76.7089
9385741 11.1689 16.6132 24.8946 24.1117 1.51762 4.14598 76.7885
9385762 11.1425 16.6593 24.9143 24.0533 1.51615 4.1356 76.7693
9385773 11.1249 16.5856 24.934 24.0436 1.4899 4.15979 76.688
9385782 11.1249 16.5856 24.934 24.0436 1.4899 4.15979 76.688
9385792 11.213 16.558 24.9438 24.0923 1.46258 4.15298 76.807
9385804 11.1865 16.5488 24.934 24.0728 1.46628 4.15772 76.7421
9385812 11.1865 16.5488 24.934 24.0728 1.46628 4.15772 76.7421
9385827 11.1601 16.5764 24.9241 24.0436 1.47831 4.1519 76.7042
9385843 11.1865 16.5856 24.934 24.0241 1.46264 4.14165 76.7302
9385853 11.1777 16.604 24.9537 24.0436 1.47051 4.14479 76.779
9385866 11.1777 16.604 24.9537 24.0436 1.47051 4.14479 76.779
9385873 11.1865 16.5672 24.9241 24.0143 1.45739 4.14347 76.6922
9385896 11.213 16.5672 24.8946 24.0338 1.46444 4.13545 76.7086
9385903 11.213 16.5672 24.9931 24.0923 1.44845 4.15763 76.8654
9385913 11.213 16.5672 24.9931 24.0923 1.44845 4.15763 76.8654
9385923 11.1865 16.5395 24.9931 24.0533 1.43713 4.16561 76.7724
9385933 11.1865 16.558 25.0226 24.0338 1.42663 4.16243 76.8009
9385943 11.1865 16.558 25.0226 24.0338 1.42663 4.16243 76.8009
9385953 11.1865 16.6224 24.9734 24.0338 1.46335 4.13941 76.8161
9385973 11.1425 16.5211 24.9931 24.0533 1.44665 4.18122 76.71
9385983 11.1513 16.5211 25.0029 24.0241 1.43124 4.17628 76.6994
9385993 11.1513 16.5211 25.0029 24.0241 1.43124 4.17628 76.6994
9386003 11.1953 16.4843 24.9931 23.9754 1.39314 4.16621 76.648
9386013 11.1073 16.5211 25.0127 23.9754 1.42805 4.18181 76.6165
9386037 11.0984 16.5119 25.0324 24.0923 1.45739 4.20557 76.7351
9386043 11.0984 16.5119 25.0324 24.0923 1.45739 4.20557 76.7351
9386061 11.072 16.4567 25.0423 24.1117 1.45213 4.23016 76.6827
9386064 11.072 16.4475 25.062 24.1897 1.46642 4.24616 76.7711
9386076 11.072 16.4475 25.062 24.1897 1.46642 4.24616 76.7711
9386086 11.0456 16.3922 25.121 24.1507 1.42626 4.26947 76.7095
9386094 11.0192 16.4935 25.121 24.2481 1.49627 4.2643 76.8818
9386110 11.0192 16.4935 25.121 24.2481 1.49627 4.2643 76.8818
9386114 11.0016 16.4751 25.0423 24.2384 1.52092 4.26097 76.7573
9386124 11.0016 16.4751 25.0423 24.2384 1.52092 4.26097 76.7573
9386135 10.9663 16.4475 25.062 24.1994 1.5059 4.27406 76.6752
9386144 11.0016 16.4475 25.1604 24.3358 1.5015 4.29797 76.9452
9386156 11.0016 16.4475 25.1604 24.3358 1.5015 4.29797 76.9452
9386164 10.9839 16.5764 25.0816 24.2287 1.54137 4.24414 76.8706
9386180 10.9751 16.5027 25.0324 24.2092 1.53296 4.2552 76.7194
9386186 10.9751 16.5027 25.0324 24.2092 1.53296 4.2552 76.7194
9386196 10.9751 16.4751 25.0324 24.3261 1.56024 4.27848 76.8087
9386206 10.9751 16.4751 25.0226 24.3261 1.56364 4.2771 76.7989
9386216 10.9223 16.5395 25.0226 24.3261 1.60159 4.27419 76.8105
9386228 10.9047 16.4659 25.0423 24.404 1.60217 4.31072 76.8168
9386237 10.9047 16.4659 25.0423 24.404 1.60217 4.31072 76.8168
9386253 10.9135 16.4843 25.0423 24.3261 1.58098 4.29303 76.7661
9386257 10.9135 16.4935 25.0915 24.3845 1.58457 4.30571 76.883
9386267 10.9135 16.4935 25.0915 24.3845 1.58457 4.30571 76.883
9386279 10.8606 16.4843 25.0915 24.4138 1.60895 4.32536 76.8502
9386287 10.8078 16.429 25.1013 24.4332 1.61296 4.35666 76.7714
9386307 10.8078 16.429 25.1112 24.443 1.61252 4.35937 76.791
9386323 10.8078 16.429 25.1112 24.443 1.61252 4.35937 76.791
9386327 10.7549 16.3646 25.1506 24.5014 1.61536 4.40251 76.7715
9386337 10.7461 16.3554 25.1506 24.5501 1.63044 4.41379 76.8022
9386358 10.7461 16.3554 25.1506 24.5599 1.6334 4.41513 76.8119
9386370 10.7285 16.3646 25.1998 24.6281 1.64597 4.43341 76.9209
9386393 10.7109 16.3462 25.1998 24.5891 1.63464 4.43716 76.8459
9386398 10.7109 16.3462 25.1998 24.5891 1.63464 4.43716 76.8459
9386410 10.6845 16.2725 25.249 24.5696 1.59838 4.46659 76.7756
9386419 10.7021 16.2725 25.1801 24.6573 1.64286 4.4647 76.8119
9386429 10.7021 16.2725 25.1801 24.6573 1.64286 4.4647 76.8119
9386441 10.6228 16.2633 25.249 24.6476 1.64069 4.49525 76.7826
9386449 10.658 16.2264 25.2293 24.7352 1.65075 4.50495 76.849
9386469 10.6052 16.2817 25.2391 24.8229 1.70902 4.51764 76.9489
9386481 10.6052 16.2817 25.2391 24.8229 1.70902 4.51764 76.9489
9386490 10.6052 16.3185 25.2096 24.7645 1.71273 4.4963 76.8978
9386499 10.6228 16.208 25.3474 24.6963 1.60459 4.52937 76.8745
9386510 10.6228 16.208 25.3474 24.6963 1.60459 4.52937 76.8745
9386520 10.6316 16.2633 25.2096 24.5501 1.62162 4.47427 76.6546
9386534 10.6316 16.2817 25.2687 24.5599 1.60972 4.47903 76.7419
9386551 10.6756 16.2264 25.3474 24.5599 1.55035 4.49266 76.8094
9386561 10.6756 16.2264 25.3474 24.5599 1.55035 4.49266 76.8094
9386571 10.6492 16.2356 25.2884 24.6281 1.60353 4.49828 76.8013
9386584 10.6228 16.1804 25.4163 24.6476 1.5575 4.53914 76.8671
9386591 10.6228 16.1804 25.4163 24.6476 1.5575 4.53914 76.8671
9386606 10.7197 16.2264 25.3868 24.5989 1.53343 4.4922 76.9318
9386612 10.6933 16.1343 25.3868 24.5501 1.49952 4.51562 76.7646
9386633 10.7549 16.1712 25.436 24.4722 1.44872 4.48669 76.8343
9386642 10.7109 16.1804 25.4852 24.4332 1.43781 4.49693 76.8097
9386663 10.799 16.1804 25.5148 24.3456 1.37046 4.46663 76.8397
9386676 10.799 16.1804 25.5148 24.3456 1.37046 4.46663 76.8397
9386686 10.8254 16.1067 25.5345 24.2579 1.30492 4.46928 76.7244
9386694 10.9047 16.1528 25.4557 24.2189 1.30692 4.42133 76.732
9386705 10.9047 16.1528 25.4557 24.2189 1.30692 4.42133 76.732
9386715 10.9047 16.1436 25.4951 24.1312 1.26347 4.417 76.6745
9386725 11.0104 16.1436 25.5148 24.1312 1.2206 4.39299 76.7999
9386734 11.0104 16.1436 25.5148 24.1312 1.2206 4.39299 76.7999
9386746 11.0456 16.1896 25.5541 24.1117 1.20337 4.37524 76.9011
9386768 11.0632 16.1804 25.5443 23.9559 1.14952 4.35017 76.7438
9386775 11.1601 16.2172 25.4852 23.9364 1.14204 4.30559 76.799
9386791 11.1601 16.2172 25.4852 23.9364 1.14204 4.30559 76.799
9386796 11.213 16.2725 25.4262 23.8974 1.14921 4.26476 76.809
9386805 11.3275 16.2541 25.436 23.761 1.05876 4.22296 76.7786
9386821 11.3275 16.2541 25.436 23.761 1.05876 4.22296 76.7786
9386829 11.3803 16.3001 25.4065 23.6441 1.02874 4.17762 76.731
9386838 11.3451 16.2633 25.3474 23.6539 1.05229 4.18869 76.6096
9386846 11.3451 16.2633 25.3474 23.6539 1.05229 4.18869 76.6096
9386858 11.442 16.3462 25.377 23.6636 1.0383 4.14932 76.8287
9386866 11.442 16.3462 25.377 23.6636 1.0383 4.14932 76.8287
9386876 11.4244 16.3462 25.3277 23.5954 1.03968 4.1371 76.6937
9386886 11.5212 16.3646 25.2982 23.5759 1.0165 4.10142 76.7599
9386896 11.5212 16.3646 25.2982 23.5759 1.0165 4.10142 76.7599
9386913 11.5917 16.4475 25.308 23.537 1.00302 4.05919 76.8842
9386927 11.5653 16.4198 25.2391 23.459 1.00231 4.05168 76.6833
9386940 11.6622 16.4106 25.2293 23.4298 0.960791 4.02433 76.7319
9386947 11.6622 16.4106 25.2293 23.4298 0.960791 4.02433 76.7319
9386957 11.6181 16.383 25.1407 23.3421 0.969577 4.01686 76.4839
9386967 11.6093 16.4843 25.1506 23.3811 1.01321 4.0009 76.6253
9386977 11.6093 16.4843 25.1506 23.3811 1.01321 4.0009 76.6253
9386995 11.7238 16.5303 25.1702 23.4688 1.00953 3.97659 76.8932
9386999 11.7238 16.5303 25.1702 23.4688 1.00953 3.97659 76.8932
9387008 11.7062 16.4935 25.1702 23.4883 1.01007 3.99283 76.8582
9387020 11.6886 16.4935 25.1998 23.5564 1.02731 4.01116 76.9383
9387027 11.6886 16.4935 25.1998 23.5564 1.02731 4.01116 76.9383
9387041 11.6974 16.4198 25.2195 23.4493 0.96119 4.0147 76.786
9387047 11.6798 16.4751 25.121 23.4201 1.00863 3.98708 76.696
9387057 11.6798 16.4751 25.121 23.4201 1.00863 3.98708 76.696
9387067 11.6622 16.4751 25.062 23.4493 1.0438 3.98716 76.6485
9387077 11.6622 16.4751 25.062 23.4493 1.0438 3.98716 76.6485
9387088 11.6798 16.5027 24.9143 23.4298 1.09061 3.95188 76.5266
9387097 11.6534 16.4935 25.0029 23.4785 1.08176 3.98049 76.6283
9387118 11.671 16.5119 24.9241 23.4395 1.09617 3.95461 76.5466
9387131 11.6358 16.5856 24.9241 23.5564 1.16755 3.96194 76.7019
9387138 11.6358 16.5856 24.9241 23.5564 1.16755 3.96194 76.7019
9387152 11.6798 16.5672 24.934 23.6052 1.15859 3.96403 76.7861
9387158 11.6798 16.5672 24.934 23.6052 1.15859 3.96403 76.7861
9387168 11.6798 16.5303 24.8946 23.6539 1.1757 3.97448 76.7586
9387178 11.6886 16.5395 24.8159 23.7415 1.2296 3.97131 76.7856
9387188 11.6886 16.5395 24.8159 23.7415 1.2296 3.97131 76.7856
9387198 11.671 16.5856 24.8257 23.6539 1.21936 3.95309 76.7362
9387208 11.6446 16.5856 24.7962 23.7318 1.26262 3.96658 76.7581
9387228 11.715 16.6961 24.7174 23.7123 1.29357 3.90781 76.8409
9387238 11.715 16.6961 24.7174 23.7123 1.29357 3.90781 76.8409
9387248 11.6534 16.6501 24.6781 23.6539 1.29591 3.92022 76.6353
9387261 11.6358 16.7053 24.6485 23.6831 1.3382 3.91089 76.6727
9387270 11.6358 16.7053 24.6485 23.6831 1.3382 3.91089 76.6727
9387282 11.6798 16.7698 24.6091 23.6539 1.34746 3.87422 76.7126
9387290 11.6798 16.7514 24.5304 23.7123 1.38687 3.87581 76.6739
9387303 11.6798 16.7514 24.5304 23.7123 1.38687 3.87581 76.6739
9387309 11.6622 16.7698 24.4812 23.6734 1.40356 3.8628 76.5865
9387319 11.6622 16.7698 24.4812 23.6734 1.40356 3.8628 76.5865
9387329 11.6974 16.7698 24.4517 23.6928 1.4076 3.85267 76.6117
9387340 11.7415 16.8803 24.491 23.6246 1.39191 3.81052 76.7374
9387360 11.7591 16.8895 24.4615 23.5467 1.37484 3.78824 76.6568
9387372 11.7415 16.8342 24.3631 23.498 1.38275 3.78457 76.4367
9387395 11.8295 16.8987 24.304 23.5759 1.41666 3.74993 76.6082
9387401 11.7503 16.8987 24.3827 23.5175 1.39883 3.77233 76.5492
9387411 11.7503 16.8987 24.3827 23.5175 1.39883 3.77233 76.5492
9387423 11.8648 16.9171 24.3827 23.5759 1.38308 3.74837 76.7406
9387432 11.8648 16.9171 24.3827 23.5759 1.38308 3.74837 76.7406
9387442 11.856 16.9632 24.2351 23.5175 1.43316 3.70897 76.5717
9387452 11.8648 17 24.2252 23.5467 1.45384 3.70068 76.6367
9387464 11.8648 17 24.2252 23.5467 1.45384 3.70068 76.6367
9387480 11.9264 17.0389 24.2351 23.4395 1.40819 3.66179 76.64
9387485 11.9793 17.0486 24.1957 23.3811 1.38853 3.63207 76.6047
9387493 11.9793 17.0486 24.1957 23.3811 1.38853 3.63207 76.6047
9387507 12.0321 17.1653 24.1367 23.3519 1.4176 3.57778 76.686
9387513 12.0321 17.1653 24.1367 23.3519 1.4176 3.57778 76.686
9387523 12.0497 17.1556 24.0284 23.3908 1.45786 3.56554 76.6246
9387534 12.0585 17.1848 23.9988 23.3129 1.45003 3.54028 76.5551
9387543 12.0585 17.1848 23.9988 23.3129 1.45003 3.54028 76.5551
9387554 12.0409 17.2334 23.9693 23.2837 1.4723 3.52396 76.5273
9387563 12.0762 17.3307 23.9398 23.2155 1.47925 3.47726 76.5621
9387577 12.0762 17.3307 23.9398 23.2155 1.47925 3.47726 76.5621
9387583 12.1114 17.3209 23.9004 23.235 1.48368 3.46811 76.5677
9387593 12.1114 17.3209 23.9004 23.235 1.48368 3.46811 76.5677
9387603 12.085 17.2431 23.9496 23.3226 1.47884 3.51385 76.6004
9387613 12.1642 17.3307 23.9595 23.2837 1.46297 3.46925 76.738
9387624 12.1642 17.3307 23.9595 23.2837 1.46297 3.46925 76.738
9387635 12.129 17.3598 23.9004 23.2252 1.48655 3.45302 76.6145
9387648 12.1466 17.3015 23.8709 23.4103 1.5295 3.48623 76.7293
9387653 12.1466 17.3015 23.8709 23.4103 1.5295 3.48623 76.7293
9387663 12.085 17.2918 23.9299 23.2934 1.4916 3.49476 76.6001
9387674 12.085 17.2918 23.9299 23.2934 1.4916 3.49476 76.6001
9387683 12.129 17.3404 23.802 23.3519 1.55347 3.46196 76.6232
9387695 12.1378 17.3404 23.7823 23.2934 1.53933 3.44805 76.5539
9387704 12.1378 17.3404 23.7823 23.2934 1.53933 3.44805 76.5539
9387717 12.0938 17.3598 23.8217 23.3519 1.56481 3.46872 76.6271
9387723 12.1466 17.3598 23.802 23.3519 1.55331 3.45303 76.6603
9387739 12.1466 17.3015 23.802 23.3519 1.53545 3.46709 76.602
9387743 12.0762 17.3501 23.7921 23.4103 1.59605 3.47967 76.6287
9387754 12.0762 17.3501 23.7921 23.4103 1.59605 3.47967 76.6287
9387764 12.0762 17.2918 23.8512 23.3713 1.5458 3.49677 76.5905
9387774 12.1114 17.282 23.8413 23.3908 1.54 3.49206 76.6256
9387786 12.1114 17.282 23.8413 23.3908 1.54 3.49206 76.6256
9387794 12.0938 17.282 23.8512 23.3616 1.53374 3.4934 76.5886
9387809 12.0938 17.282 23.8512 23.3616 1.53374 3.4934 76.5886
9387814 12.085 17.3696 23.8315 23.3713 1.57338 3.47291 76.6574
9387824 12.1114 17.3015 23.8807 23.4201 1.54126 3.49766 76.7137
9387837 12.1114 17.3015 23.8807 23.4201 1.54126 3.49766 76.7137
9387844 12.0233 17.3404 23.8315 23.3713 1.58585 3.49483 76.5666
9387857 12.0674 17.3404 23.8413 23.4201 1.58204 3.49299 76.6691
9387864 12.0674 17.3404 23.8413 23.4201 1.58204 3.49299 76.6691
9387880 12.0497 17.3501 23.8413 23.4006 1.58517 3.49197 76.6418
9387886 12.0057 17.2723 23.9004 23.4493 1.57107 3.53756 76.6277
9387896 12.0057 17.2723 23.9004 23.4493 1.57107 3.53756 76.6277
9387906 11.9969 17.3696 23.8906 23.3713 1.58344 3.50303 76.6284
9387926 11.9705 17.2334 23.861 23.4493 1.58506 3.54962 76.5142
9387938 12.0321 17.282 23.9201 23.537 1.58483 3.54486 76.7712
9387950 12.0321 17.282 23.9201 23.537 1.58483 3.54486 76.7712
9387957 12.0233 17.2918 23.9201 23.4883 1.57599 3.53737 76.7234
9387972 12.0145 17.3307 23.9792 23.5175 1.57938 3.54328 76.8418
9387977 12.0145 17.3307 23.9792 23.5175 1.57938 3.54328 76.8418
9387987 11.9705 17.282 23.9299 23.5662 1.6117 3.56559 76.7486
9387997 11.9705 17.282 23.9299 23.5662 1.6117 3.56559 76.7486
9388007 11.9352 17.2237 23.9398 23.4395 1.56399 3.57084 76.5382
9388017 11.944 17.2918 23.9299 23.4688 1.59411 3.5551 76.6345
9388027 11.944 17.2918 23.9299 23.4688 1.59411 3.5551 76.6345
9388037 11.9793 17.2237 23.9792 23.459 1.54104 3.56895 76.6411
9388048 11.9617 17.1653 23.9693 23.4298 1.52372 3.58155 76.5261
9388060 11.9617 17.1653 23.9693 23.4298 1.52372 3.58155 76.5261
9388067 11.9617 17.1653 24.0382 23.4201 1.49686 3.59037 76.5853
9388081 11.9617 17.1653 24.0382 23.4201 1.49686 3.59037 76.5853
9388087 11.944 17.107 23.989 23.4201 1.50209 3.6015 76.4601
9388103 11.9793 17.1848 24.0776 23.4103 1.48014 3.58579 76.652
9388125 12.0057 17.1945 24.0874 23.4006 1.46761 3.57704 76.6882
9388128 12.0233 17.1653 24.1367 23.3226 1.41165 3.57557 76.6479
9388148 12.0497 17.2237 24.117 23.3129 1.42428 3.55065 76.7033
9388159 12.0497 17.2237 24.117 23.3129 1.42428 3.55065 76.7033
9388170 12.0674 17.214 24.0677 23.2934 1.42619 3.53848 76.6425
9388178 12.129 17.214 24.0874 23.2057 1.37117 3.51339 76.6361
9388199 12.129 17.214 24.0874 23.2057 1.37117 3.51339 76.6361
9388201 12.1819 17.2918 24.0382 23.1668 1.38189 3.46864 76.6786
9388208 12.1554 17.3015 24.0382 23.1375 1.38497 3.46826 76.6327
9388226 12.1554 17.3015 24.0382 23.1375 1.38497 3.46826 76.6327
9388228 12.1466 17.3501 24.0087 23.0888 1.39816 3.44688 76.5943
9388238 12.1466 17.3501 24.0087 23.0888 1.39816 3.44688 76.5943
9388253 12.2347 17.3112 23.9595 23.0693 1.36676 3.42467 76.5747
9388258 12.2083 17.3112 24.0087 23.0109 1.34086 3.42963 76.5391
9388268 12.2083 17.3112 24.0087 23.0109 1.34086 3.42963 76.5391
9388282 12.314 17.389 23.9988 22.9622 1.3169 3.37668 76.664
9388290 12.2611 17.3307 24.0284 22.9719 1.30988 3.40932 76.5921
9388311 12.2964 17.3793 23.9792 22.9719 1.32972 3.38173 76.6267
9388320 12.2964 17.3793 23.9792 22.9719 1.32972 3.38173 76.6267
9388335 12.2435 17.4376 23.989 22.8258 1.31736 3.35971 76.496
9388341 12.314 17.4279 23.9496 22.9135 1.33078 3.35249 76.605
9388351 12.314 17.4279 23.9496 22.9135 1.33078 3.35249 76.605
9388362 12.2964 17.4474 23.9299 22.8258 1.32251 3.33571 76.4995
9388372 12.3228 17.5154 23.9102 22.816 1.33823 3.30859 76.5645
9388385 12.3228 17.5154 23.9102 22.816 1.33823 3.30859 76.5645
9388391 12.3228 17.4182 23.9299 22.8258 1.30439 3.33637 76.4967
9388401 12.3228 17.4182 23.9299 22.8258 1.30439 3.33637 76.4967
9388411 12.3228 17.4474 23.9595 22.7966 1.29422 3.32942 76.5262
9388421 12.3668 17.4474 23.9299 22.7673 1.28018 3.30991 76.5115
9388433 12.3668 17.4474 23.9299 22.7673 1.28018 3.30991 76.5115
9388441 12.3845 17.4765 23.9398 22.7673 1.27979 3.30022 76.5681
9388455 12.3933 17.4085 23.9201 22.7186 1.24729 3.30394 76.4404
9388461 12.3933 17.4085 23.9201 22.7186 1.24729 3.30394 76.4404
9388471 12.4021 17.496 23.9792 22.7186 1.25118 3.28994 76.5958
9388492 12.3228 17.4571 24.0087 22.7479 1.26523 3.32717 76.5364
9388504 12.4109 17.4182 23.9988 22.6991 1.21121 3.30646 76.5271
9388530 12.4373 17.4376 23.9595 22.7089 1.22471 3.29096 76.5433
9388533 12.3756 17.4668 24.0087 22.7771 1.25918 3.31665 76.6282
9388543 12.3756 17.4668 24.0087 22.7771 1.25918 3.31665 76.6282
9388554 12.3668 17.5154 23.9988 22.855 1.30472 3.31752 76.7361
9388563 12.3668 17.5154 23.9988 22.855 1.30472 3.31752 76.7361
9388577 12.4021 17.4182 23.9693 22.7479 1.23948 3.3115 76.5374
9388583 12.4021 17.4668 23.9693 22.7381 1.25155 3.29838 76.5763
9388593 12.4021 17.4668 23.9693 22.7381 1.25155 3.29838 76.5763
9388604 12.4021 17.4376 23.9595 22.7479 1.24889 3.30534 76.547
9388613 12.3756 17.4668 23.989 22.7479 1.25687 3.30919 76.5793
9388626 12.3756 17.4668 23.989 22.7479 1.25687 3.30919 76.5793
9388633 12.4461 17.4765 23.9496 22.7771 1.25829 3.28849 76.6494
9388653 12.4021 17.4765 23.861 22.7186 1.28569 3.2765 76.4583
9388663 12.4021 17.4668 23.9004 22.7966 1.2933 3.29679 76.5659
9388677 12.4021 17.4668 23.9004 22.7966 1.2933 3.29679 76.5659
9388684 12.4021 17.5349 23.8413 22.7771 1.32863 3.26851 76.5554
9388700 12.4373 17.5057 23.8807 22.7771 1.29397 3.27309 76.6008
9388716 12.4109 17.5252 23.8118 22.7966 1.33878 3.26719 76.5444
9388725 12.4109 17.5349 23.802 22.855 1.36322 3.27231 76.6028
9388747 12.4109 17.5349 23.802 22.855 1.36322 3.27231 76.6028
9388749 12.4109 17.6419 23.7626 22.8355 1.40375 3.2378 76.6509
9388758 12.4109 17.6419 23.7626 22.8355 1.40375 3.2378 76.6509
9388772 12.3933 17.5641 23.7626 22.7966 1.37381 3.25456 76.5165
9388776 12.3492 17.5641 23.7823 22.7966 1.38221 3.26809 76.4921
9388786 12.3492 17.5641 23.7823 22.7966 1.38221 3.26809 76.4921
9388798 12.4197 17.5641 23.7823 22.8355 1.36996 3.25725 76.6016
9388807 12.4109 17.4863 23.8217 22.9135 1.35948 3.29586 76.6323
9388818 12.4109 17.4863 23.8217 22.9135 1.35948 3.29586 76.6323
9388826 12.4021 17.5543 23.861 22.9817 1.39093 3.29814 76.7991
9388842 12.4021 17.5543 23.861 22.9817 1.39093 3.29814 76.7991
9388847 12.358 17.5057 23.802 23.0206 1.42345 3.31718 76.6863
9388856 12.3933 17.4571 23.8709 23.0011 1.36665 3.32791 76.7224
9388876 12.3756 17.4668 23.8512 22.9817 1.37647 3.32383 76.6753
9388889 12.3756 17.4668 23.8512 22.9817 1.37647 3.32383 76.6753
9388896 12.3668 17.4376 23.8118 22.9817 1.38406 3.32691 76.598
9388914 12.2788 17.5154 23.7724 22.9914 1.45499 3.32486 76.558
9388917 12.2788 17.5154 23.7724 22.9914 1.45499 3.32486 76.558
9388927 12.2611 17.5252 23.7331 23.0206 1.48667 3.3252 76.54
9388938 12.2347 17.4474 23.7823 23.0791 1.47284 3.36658 76.5434
9388947 12.2347 17.4474 23.7823 23.0791 1.47284 3.36658 76.5434
9388962 12.2699 17.4765 23.7232 23.0986 1.49603 3.34511 76.5683
9388967 12.2699 17.4765 23.7232 23.0986 1.49603 3.34511 76.5683
9388977 12.2435 17.4182 23.802 23.1278 1.46899 3.38185 76.5915
9388987 12.2435 17.4376 23.8118 23.2544 1.51039 3.39785 76.7474
9388997 12.2435 17.4376 23.8118 23.2544 1.51039 3.39785 76.7474
9389007 12.1995 17.4085 23.8118 23.1862 1.49578 3.40511 76.606
9389017 12.1819 17.4571 23.7921 23.2642 1.54745 3.40647 76.6953
9389029 12.1819 17.4571 23.7921 23.2642 1.54745 3.40647 76.6953
9389037 12.1554 17.4279 23.7429 23.3324 1.58558 3.42269 76.6586
9389051 12.1554 17.4279 23.7429 23.3324 1.58558 3.42269 76.6586
9389057 12.1466 17.4279 23.7626 23.3421 1.58479 3.42925 76.6793
9389067 12.1202 17.3987 23.8315 23.3713 1.57008 3.45741 76.7218
9389088 12.0938 17.4474 23.7528 23.3713 1.6214 3.4402 76.6652
9389099 12.1378 17.3404 23.8512 23.3811 1.54231 3.47164 76.7105
9389119 12.1202 17.4085 23.7823 23.4493 1.61388 3.45939 76.7602
9389128 12.1202 17.4085 23.7823 23.4493 1.61388 3.45939 76.7602
9389138 12.0585 17.3112 23.8512 23.4201 1.57277 3.50364 76.641
9389150 11.9881 17.3209 23.8315 23.5272 1.63973 3.53141 76.6677
9389158 11.9881 17.3209 23.8315 23.5272 1.63973 3.53141 76.6677
9389168 11.9969 17.3209 23.8709 23.4883 1.61112 3.52935 76.677
9389178 11.9969 17.3404 23.8807 23.5175 1.62254 3.53049 76.7355
9389189 11.9969 17.3404 23.8807 23.5175 1.62254 3.53049 76.7355
9389198 11.9705 17.3307 23.8906 23.459 1.6075 3.53195 76.6507
9389218 11.9793 17.2334 23.8512 23.5272 1.60925 3.55767 76.5911
9389234 12.0145 17.2334 23.8217 23.5272 1.60727 3.54472 76.5968
9389250 11.9881 17.3112 23.8118 23.498 1.6347 3.52644 76.6091
9389260 11.9264 17.3015 23.8512 23.5857 1.6662 3.56271 76.6648
9389280 11.9881 17.3015 23.9201 23.5857 1.62086 3.55807 76.7953
9389302 11.9088 17.2237 23.9595 23.6149 1.61991 3.6063 76.7069
9389309 11.9 17.2431 23.9398 23.5759 1.62385 3.595 76.6588
9389325 11.9 17.2431 23.9398 23.5759 1.62385 3.595 76.6588
9389329 11.9352 17.1751 23.8709 23.5662 1.61179 3.59126 76.5473
9389341 11.9528 17.214 23.8807 23.5662 1.61413 3.57901 76.6137
9389351 11.9528 17.214 23.8807 23.5662 1.61413 3.57901 76.6137
9389361 11.9264 17.1653 23.861 23.537 1.60637 3.58994 76.4897
9389371 11.9264 17.1653 23.861 23.537 1.60637 3.58994 76.4897
9389381 11.9088 17.1459 23.8413 23.5467 1.61639 3.59747 76.4427
9389393 11.9176 17.1751 23.9398 23.5662 1.59397 3.6058 76.5986
9389400 11.9176 17.1751 23.9398 23.5662 1.59397 3.6058 76.5986
9389416 11.9 17.1945 24.0185 23.5759 1.58169 3.6185 76.689
9389422 11.9176 17.0875 24.0284 23.5662 1.53647 3.64024 76.5997
9389431 11.9176 17.0875 24.0284 23.5662 1.53647 3.64024 76.5997
9389442 11.8824 17.1264 24.0677 23.5954 1.55589 3.64951 76.672
9389463 11.8912 17.0875 24.0973 23.537 1.5128 3.65255 76.613
9389472 11.9 17.1362 24.1268 23.6149 1.53828 3.65448 76.7779
9389492 11.856 17.0875 24.1465 23.5857 1.52289 3.67562 76.6757
9389502 11.8295 17.0486 24.1367 23.6149 1.53248 3.6944 76.6297
9389513 11.8295 17.0486 24.1367 23.6149 1.53248 3.6944 76.6297
