12186045 10.1119 11.3548 31.3816 31.7398 0.473216 7.38661 84.5882
12186053 10.1648 11.4101 31.3816 31.6424 0.44508 7.34924 84.5988
12186065 10.1295 11.4745 31.3422 31.6424 0.486237 7.33796 84.5887
12186074 10.1295 11.4745 31.3422 31.6424 0.486237 7.33796 84.5887
12186086 10.1648 11.5206 31.3717 31.584 0.46314 7.31389 84.6411
12186096 10.2 11.4561 31.3324 31.6619 0.468293 7.3251 84.6504
12186106 10.2 11.4561 31.3324 31.6619 0.468293 7.3251 84.6504
12186115 10.2088 11.5206 31.3127 31.6619 0.490233 7.304 84.704
12186125 10.2088 11.5206 31.3127 31.6619 0.490233 7.304 84.704
12186135 10.2088 11.4561 31.3028 31.5645 0.446266 7.31124 84.5322
12186145 10.2 11.5022 31.3127 31.5742 0.462145 7.3032 84.5891
12186155 10.2 11.5022 31.3127 31.5742 0.462145 7.3032 84.5891
12186166 10.244 11.4469 31.2339 31.5352 0.445235 7.29543 84.4601
12186175 10.244 11.4469 31.2339 31.5352 0.445235 7.29543 84.4601
12186185 10.2352 11.4285 31.2438 31.4378 0.411201 7.29463 84.3453
12186195 10.2264 11.5114 31.3127 31.5158 0.4399 7.28848 84.5662
12186214 10.2264 11.5114 31.3127 31.5158 0.4399 7.28848 84.5662
12186215 10.1912 11.5206 31.3816 31.5742 0.44941 7.30693 84.6676
12186226 10.244 11.4469 31.3521 31.5352 0.409698 7.3062 84.5782
12186246 10.2088 11.4653 31.4111 31.5742 0.419214 7.31953 84.6595
12186257 10.1472 11.4837 31.4603 31.6911 0.462177 7.34597 84.7823
12186267 10.1472 11.4837 31.4603 31.6911 0.462177 7.34597 84.7823
12186277 10.156 11.3548 31.4899 31.7691 0.435901 7.38733 84.7697
12186287 10.156 11.3548 31.4899 31.7691 0.435901 7.38733 84.7697
12186298 10.156 11.2811 31.5785 31.9249 0.433144 7.42866 84.9405
12186308 10.0767 11.1522 31.5686 32.1198 0.478905 7.50015 84.9173
12186317 10.0767 11.1522 31.5686 32.1198 0.478905 7.50015 84.9173
12186328 10.0326 10.9865 31.5096 32.1685 0.476032 7.55497 84.6971
12186337 9.97979 10.9036 31.5292 32.188 0.467643 7.5946 84.6006
12186348 9.97979 10.9036 31.5292 32.188 0.467643 7.5946 84.6006
12186356 10.0238 10.8391 31.5489 32.2269 0.441077 7.60519 84.6388
12186368 10.0238 10.8391 31.5489 32.2269 0.441077 7.60519 84.6388
12186378 9.92694 10.8115 31.5981 32.1782 0.433242 7.63853 84.5148
12186388 9.97979 10.8023 31.5391 32.149 0.423935 7.61914 84.4702
12186398 9.97979 10.8023 31.5391 32.149 0.423935 7.61914 84.4702
12186408 9.91813 10.8115 31.5981 32.1587 0.430229 7.6392 84.4865
12186418 9.90933 10.8115 31.6474 32.11 0.403899 7.6416 84.4782
12186428 9.90933 10.7746 31.6474 32.11 0.393167 7.65148 84.4414
12186438 9.9886 10.8023 31.6671 32.1198 0.374329 7.62541 84.5777
12186448 9.9886 10.8023 31.6671 32.1198 0.374329 7.62541 84.5777
12186458 9.95337 10.8667 31.7556 32.0224 0.348732 7.61682 84.5981
12186470 10.0062 10.8944 31.7458 32.0224 0.343901 7.59446 84.6687
12186478 10.0062 10.8944 31.7458 32.0224 0.343901 7.59446 84.6687
12186490 10.0062 10.9036 31.7261 31.9736 0.338283 7.58601 84.6096
12186500 10.0062 10.9036 31.7261 31.9736 0.338283 7.58601 84.6096
12186509 10.0326 10.9404 31.7261 32.0029 0.349614 7.57171 84.702
12186518 10.1119 10.9957 31.7064 31.9152 0.322354 7.52646 84.7292
12186538 10.0855 11.0693 31.608 31.808 0.349966 7.4957 84.5708
12186551 10.0943 11.0878 31.6671 31.8178 0.337845 7.49457 84.6669
12186559 10.0943 11.0878 31.6671 31.8178 0.337845 7.49457 84.6669
12186571 10.1383 11.1246 31.6178 31.7496 0.330254 7.46265 84.6303
12186592 10.0943 11.143 31.5686 31.7691 0.369245 7.46681 84.575
12186602 10.1383 11.1338 31.5686 31.808 0.364703 7.46103 84.6488
12186609 10.1383 11.1338 31.5686 31.808 0.364703 7.46103 84.6488
12186619 10.1207 11.1246 31.5588 31.6716 0.330487 7.45512 84.4757
12186629 10.1295 11.1522 31.5391 31.6716 0.341815 7.44367 84.4925
12186639 10.1295 11.1522 31.5391 31.6716 0.341815 7.44367 84.4925
12186652 10.156 11.097 31.5785 31.6619 0.30311 7.45398 84.4933
12186659 10.156 11.097 31.5785 31.6619 0.30311 7.45398 84.4933
12186671 10.1295 11.0785 31.5686 31.7691 0.339893 7.47458 84.5457
12186679 10.1472 10.9865 31.6769 31.8665 0.303766 7.51263 84.677
12186699 10.1119 11.0601 31.6966 31.9736 0.361043 7.51362 84.8423
12186710 10.1383 11.0049 31.7163 32.0418 0.351024 7.52901 84.9013
12186720 10.1383 11.0049 31.7163 32.0418 0.351024 7.52901 84.9013
12186732 10.1207 10.9128 31.7163 31.9931 0.315338 7.55389 84.7429
12186740 10.1207 10.9128 31.7163 31.9931 0.315338 7.55389 84.7429
12186753 10.1119 10.8852 31.7163 32.0516 0.326943 7.56871 84.7649
12186760 10.0679 10.8207 31.7064 32.149 0.352648 7.60529 84.744
12186773 10.0679 10.8207 31.7064 32.149 0.352648 7.60529 84.744
12186781 10.0855 10.8299 31.6277 32.1977 0.387782 7.59551 84.7408
12186792 10.0679 10.7562 31.608 32.149 0.363368 7.61392 84.5811
12186811 10.1119 10.7378 31.6277 32.2367 0.364429 7.61644 84.7141
12186832 10.0415 10.6641 31.6966 32.149 0.317886 7.65335 84.5512
12186852 10.0238 10.6641 31.6375 32.1977 0.355077 7.65717 84.5232
12186853 10.0238 10.6641 31.6375 32.1977 0.355077 7.65717 84.5232
12186863 10.0679 10.6733 31.6572 32.2367 0.350016 7.64801 84.6351
12186872 10.0767 10.6549 31.6966 32.1977 0.318867 7.65061 84.6259
12186882 10.0767 10.6549 31.6966 32.1977 0.318867 7.65061 84.6259
12186892 10.0943 10.6549 31.6671 32.2464 0.336626 7.64757 84.6627
12186902 10.0943 10.6549 31.6671 32.2464 0.336626 7.64757 84.6627
12186912 9.99741 10.6641 31.6572 32.1782 0.351417 7.66428 84.497
12186924 10.0855 10.747 31.6572 32.1295 0.334981 7.61426 84.6192
12186932 10.0855 10.747 31.6572 32.1295 0.334981 7.61426 84.6192
12186942 10.0855 10.7654 31.6769 32.0224 0.303194 7.6017 84.5502
12186952 10.1119 10.7931 31.7064 31.9542 0.274605 7.58387 84.5656
12186962 10.1119 10.7931 31.7064 31.9542 0.274605 7.58387 84.5656
12186972 10.1383 10.9036 31.6178 32.0224 0.345337 7.54556 84.6821
12186996 10.1295 10.8483 31.6178 31.9736 0.317666 7.55835 84.5693
12187002 10.1472 10.9128 31.6966 31.9542 0.301972 7.5417 84.7107
12187014 10.1472 10.9128 31.6966 31.9542 0.301972 7.5417 84.7107
12187023 10.2 10.8852 31.6671 31.9347 0.281262 7.53067 84.6869
12187033 10.1736 10.9036 31.6671 31.8275 0.263226 7.52333 84.5717
12187043 10.1736 10.9036 31.6671 31.8275 0.263226 7.52333 84.5717
12187053 10.1824 10.9588 31.608 31.8762 0.308615 7.50537 84.6254
12187063 10.1824 10.9588 31.608 31.8762 0.308615 7.50537 84.6254
12187073 10.2 10.968 31.6375 31.8178 0.280151 7.49567 84.6233
12187083 10.2264 11.0233 31.608 31.7593 0.280142 7.46615 84.617
12187093 10.2264 11.0233 31.608 31.7593 0.280142 7.46615 84.617
12187104 10.2088 11.0141 31.5391 31.7301 0.294784 7.46454 84.4921
12187113 10.2176 11.0693 31.4899 31.6229 0.291699 7.43352 84.3997
12187123 10.2176 11.0693 31.4899 31.6229 0.291699 7.43352 84.3997
12187136 10.2969 11.1614 31.5194 31.5937 0.277528 7.38809 84.5714
12187153 10.2881 11.1522 31.4899 31.5645 0.277749 7.38757 84.4946
12187163 10.3409 11.2075 31.5194 31.584 0.274977 7.36339 84.6518
12187173 10.3409 11.2075 31.5194 31.584 0.274977 7.36339 84.6518
12187183 10.2969 11.2535 31.5194 31.6327 0.315782 7.36726 84.7025
12187193 10.3497 11.1983 31.4997 31.6132 0.284073 7.36436 84.6609
12187204 10.3497 11.1983 31.4997 31.6132 0.284073 7.36436 84.6609
12187213 10.3233 11.2719 31.5194 31.545 0.287685 7.3475 84.6596
12187233 10.3762 11.3088 31.421 31.5645 0.317737 7.3167 84.6704
12187246 10.3585 11.3456 31.4111 31.467 0.308278 7.30188 84.5823
12187254 10.3585 11.3456 31.4111 31.467 0.308278 7.30188 84.5823
12187269 10.385 11.4377 31.3914 31.4086 0.316077 7.26354 84.6227
12187274 10.3409 11.4009 31.2831 31.3599 0.336751 7.27048 84.3848
12187284 10.3409 11.4009 31.2831 31.3599 0.336751 7.27048 84.3848
12187295 10.4114 11.4101 31.3028 31.2722 0.286755 7.24323 84.3965
12187304 10.4114 11.4101 31.3028 31.2722 0.286755 7.24323 84.3965
12187315 10.4378 11.4377 31.3422 31.204 0.25517 7.22634 84.4218
12187324 10.3762 11.5114 31.3521 31.2332 0.300804 7.22677 84.4728
12187335 10.3762 11.5114 31.3521 31.2332 0.300804 7.22677 84.4728
12187347 10.429 11.6403 31.3127 31.1845 0.320202 7.1709 84.5665
12187357 10.4819 11.539 31.3619 31.1358 0.245821 7.18366 84.5186
12187374 10.4731 11.6863 31.3324 31.204 0.320247 7.15094 84.6958
12187396 10.4554 11.7508 31.3324 31.204 0.344285 7.1387 84.7426
12187405 10.4731 11.6219 31.3225 31.204 0.304392 7.1669 84.6215
12187416 10.4731 11.6219 31.3225 31.204 0.304392 7.1669 84.6215
12187425 10.5083 11.7876 31.2438 31.0092 0.308919 7.08886 84.5489
12187435 10.5523 11.7692 31.1749 31.0189 0.31383 7.07662 84.5153
12187448 10.5523 11.7692 31.1749 31.0189 0.31383 7.07662 84.5153
12187455 10.5611 11.8521 31.165 30.8728 0.295651 7.03802 84.4511
12187467 10.5611 11.8521 31.165 30.8728 0.295651 7.03802 84.4511
12187492 10.614 11.9534 31.165 30.7851 0.283813 6.98956 84.5175
12187493 10.6052 12.0915 31.0567 30.6195 0.310853 6.92986 84.373
12187495 10.6052 12.0915 31.0567 30.6195 0.310853 6.92986 84.373
12187510 10.6492 12.2297 31.0174 30.4928 0.312817 6.86664 84.3891
12187517 10.7637 12.3126 30.9682 30.3564 0.277585 6.79761 84.4009
12187527 10.7637 12.3126 30.9682 30.3564 0.277585 6.79761 84.4009
12187537 10.7637 12.4231 30.9288 30.2493 0.290361 6.75481 84.3649
12187547 10.7637 12.4231 30.9288 30.2493 0.290361 6.75481 84.3649
12187558 10.8078 12.5244 30.85 30.1129 0.290489 6.69626 84.2951
12187568 10.8518 12.552 30.7516 30.035 0.292063 6.66039 84.1904
12187592 10.9223 12.6257 30.7713 29.9473 0.260895 6.61661 84.2665
12187598 10.9399 12.7638 30.7614 29.957 0.301906 6.57672 84.4222
12187619 11.0016 12.8283 30.7614 29.9765 0.307974 6.54648 84.5678
12187628 11.0016 12.8283 30.7614 29.9765 0.307974 6.54648 84.5678
12187640 11.028 12.7822 30.6039 29.9375 0.322416 6.53181 84.3517
12187648 11.0192 12.8467 30.663 29.9181 0.320491 6.52159 84.4469
12187668 11.0632 12.8006 30.5646 29.9181 0.323346 6.5122 84.3465
12187678 11.0016 12.8467 30.5843 29.9278 0.352263 6.51915 84.3603
12187698 11.0544 12.8375 30.5941 29.9083 0.325051 6.50705 84.3943
12187708 11.0544 12.8375 30.5941 29.9083 0.325051 6.50705 84.3943
12187718 11.0456 12.8375 30.5744 29.8986 0.330755 6.50633 84.3561
12187728 11.072 12.8559 30.5646 29.8986 0.331163 6.49391 84.3911
12187741 11.072 12.8559 30.5646 29.8986 0.331163 6.49391 84.3911
12187748 11.0368 12.8467 30.5843 29.8693 0.324592 6.50428 84.3371
12187758 11.1161 12.8283 30.6138 29.7914 0.263736 6.48389 84.3495
12187768 11.1161 12.8283 30.6138 29.7914 0.263736 6.48389 84.3495
12187779 11.1425 12.9388 30.5646 29.7914 0.302929 6.44408 84.4372
12187799 11.1601 13.0401 30.5252 29.6745 0.304884 6.39802 84.3999
12187809 11.2394 13.0953 30.4268 29.4894 0.272581 6.33491 84.2509
12187829 11.3363 13.2519 30.2889 29.3335 0.285059 6.24048 84.2106
12187839 11.5036 13.344 30.1019 29.1874 0.275099 6.14029 84.1369
12187849 11.5036 13.344 30.1019 29.1874 0.275099 6.14029 84.1369
12187859 11.6005 13.5466 30.0133 29.0218 0.283471 6.03833 84.1822
12187869 11.6005 13.5466 30.0133 29.0218 0.283471 6.03833 84.1822
12187879 11.7238 13.6111 29.8558 28.8074 0.249663 5.95163 83.9982
12187889 11.7855 13.7492 29.7377 28.7393 0.287238 5.88174 84.0116
12187899 11.7855 13.7492 29.7377 28.7393 0.287238 5.88174 84.0116
12187909 11.8736 13.8321 29.6393 28.6905 0.300404 5.82329 84.0354
12187919 11.9528 13.9057 29.4916 28.6516 0.331205 5.76498 84.0018
12187929 11.9528 13.9057 29.4916 28.6516 0.331205 5.76498 84.0018
12187939 12.0145 13.9518 29.531 28.6418 0.311425 5.74165 84.1391
12187959 11.9793 13.961 29.4621 28.5542 0.319752 5.73082 83.9565
12187969 12.1202 14.0531 29.4818 28.5736 0.304163 5.67778 84.2287
12187980 12.1202 14.0531 29.4818 28.5736 0.304163 5.67778 84.2287
12187992 12.1907 14.1636 29.4129 28.5152 0.318944 5.61929 84.2823
12188000 12.1907 14.2189 29.4325 28.5054 0.326353 5.60689 84.3475
12188020 12.2259 14.2281 29.3439 28.486 0.339377 5.58398 84.2839
12188032 12.2259 14.2281 29.3439 28.486 0.339377 5.58398 84.2839
12188040 12.2171 14.3017 29.275 28.4178 0.364366 5.55279 84.2116
12188052 12.2788 14.2833 29.2061 28.408 0.358307 5.53341 84.1762
12188060 12.2788 14.2833 29.2061 28.408 0.358307 5.53341 84.1762
12188073 12.2788 14.3017 29.1668 28.3106 0.347027 5.5135 84.0579
12188082 12.2699 14.357 29.0093 28.3496 0.424877 5.48877 83.9858
12188102 12.3316 14.4215 29.0585 28.3106 0.398818 5.45921 84.1221
12188128 12.314 14.4215 29.0093 28.3691 0.436091 5.46454 84.1138
12188137 12.3404 14.3754 29.0093 28.3691 0.414649 5.46932 84.0941
12188141 12.3404 14.3754 29.0093 28.3691 0.414649 5.46932 84.0941
12188152 12.358 14.4307 28.96 28.3691 0.440344 5.44601 84.1178
12188163 12.2964 14.4491 28.9699 28.3691 0.461403 5.45764 84.0844
12188172 12.2964 14.4491 28.9699 28.3691 0.461403 5.45764 84.0844
12188182 12.358 14.4767 28.9305 28.3788 0.46556 5.43257 84.144
12188194 12.358 14.4767 28.9305 28.3788 0.46556 5.43257 84.144
12188203 12.3668 14.5228 28.8616 28.3496 0.488663 5.40808 84.1008
12188212 12.4197 14.5688 28.8518 28.3496 0.48905 5.38299 84.1898
12188222 12.4197 14.5688 28.8518 28.3496 0.48905 5.38299 84.1898
12188232 12.4109 14.5964 28.8911 28.3496 0.487837 5.38293 84.248
12188242 12.4197 14.5964 28.8616 28.3496 0.494108 5.37743 84.2273
12188252 12.4197 14.5688 28.8616 28.2814 0.466198 5.37632 84.1315
12188262 12.4021 14.5964 28.8025 28.4178 0.537163 5.38273 84.2188
12188284 12.3933 14.5596 28.773 28.2716 0.495535 5.3737 83.9975
12188294 12.4109 14.5688 28.7533 28.3106 0.510207 5.3694 84.0436
12188303 12.4109 14.5688 28.7533 28.3106 0.510207 5.3694 84.0436
12188315 12.4109 14.5872 28.7336 28.3885 0.544229 5.37161 84.1203
12188323 12.3316 14.5412 28.8124 28.4178 0.5395 5.41433 84.1029
12188336 12.3316 14.5412 28.8124 28.4178 0.5395 5.41433 84.1029
12188343 12.3052 14.4399 28.8715 28.5054 0.52563 5.46204 84.1219
12188353 12.3052 14.4399 28.8715 28.5054 0.52563 5.46204 84.1219
12188363 12.2523 14.357 28.8813 28.6905 0.568387 5.51712 84.1812
12188373 12.1995 14.3109 29.0093 28.7295 0.543538 5.56 84.2492
12188385 12.1995 14.3109 29.0093 28.7295 0.543538 5.56 84.2492
12188393 12.1642 14.2004 29.1668 28.8562 0.511208 5.62729 84.3876
12188403 12.0938 14.1268 29.1865 28.9438 0.530633 5.67447 84.3508
12188414 12.0938 14.1268 29.1865 28.9438 0.530633 5.67447 84.3508
12188425 11.9352 13.9426 29.2947 29.0802 0.531983 5.78565 84.2528
12188434 11.9352 13.9426 29.2947 29.0802 0.531983 5.78565 84.2528
12188444 11.8295 13.8229 29.3538 29.1582 0.533986 5.85632 84.1644
12188454 11.7943 13.6847 29.4719 29.3335 0.519681 5.93106 84.2845
12188465 11.7943 13.6847 29.4719 29.3335 0.519681 5.93106 84.2845
12188474 11.7326 13.5926 29.6589 29.4212 0.480491 5.9987 84.4054
12188487 11.5917 13.3532 29.7475 29.5186 0.45498 6.11344 84.2111
12188494 11.5917 13.3532 29.7475 29.5186 0.45498 6.11344 84.2111
12188505 11.5036 13.2243 29.8755 29.6842 0.453618 6.19875 84.2876
12188514 11.5036 13.2243 29.8755 29.6842 0.453618 6.19875 84.2876
12188526 11.4772 13.2243 29.8952 29.7524 0.475496 6.21456 84.3491
12188535 11.5212 13.2059 29.9346 29.7622 0.447804 6.21323 84.4238
12188547 11.5212 13.2059 29.9346 29.7622 0.447804 6.21323 84.4238
12188554 11.5301 13.2611 29.8361 29.7135 0.476751 6.18179 84.3408
12188567 11.5741 13.3072 29.8066 29.6648 0.471598 6.15099 84.3526
12188574 11.5741 13.3072 29.8066 29.6648 0.471598 6.15099 84.3526
12188584 11.6093 13.3532 29.6786 29.6063 0.496018 6.111 84.2475
12188604 11.7326 13.4637 29.6294 29.4212 0.451902 6.02769 84.247
12188614 11.856 13.5742 29.4227 29.4017 0.503615 5.94524 84.2546
12188628 11.856 13.5742 29.4227 29.4017 0.503615 5.94524 84.2546
12188635 11.9 13.6663 29.3341 29.3238 0.521222 5.89348 84.2242
12188645 11.9 13.6663 29.2652 29.3238 0.542119 5.88603 84.1553
12188656 11.9176 13.6663 29.2652 29.2069 0.50275 5.86897 84.056
12188665 12.0497 13.74 29.2554 29.1095 0.458783 5.8063 84.1545
12188675 12.0497 13.74 29.2554 29.1095 0.458783 5.8063 84.1545
12188685 12.0233 13.8044 29.1569 29.1289 0.521067 5.78826 84.1136
12188695 12.1202 13.8137 29.1175 29.0607 0.486445 5.75026 84.1122
12188705 12.1202 13.8137 29.1175 29.0607 0.486445 5.75026 84.1122
12188715 12.1731 13.9057 29.0979 28.9925 0.483367 5.70487 84.1692
12188725 12.1731 13.9057 29.0979 28.9925 0.483367 5.70487 84.1692
12188735 12.1819 13.9057 28.9797 29.012 0.522178 5.69179 84.0794
12188745 12.2523 13.961 29.0191 28.9731 0.493619 5.66094 84.2055
12188757 12.2523 13.961 29.0191 28.9731 0.493619 5.66094 84.2055
12188765 12.314 14.007 28.9699 28.9341 0.491914 5.62475 84.225
12188779 12.2611 13.9794 28.96 28.9244 0.500026 5.64229 84.125
12188787 12.2611 13.9794 28.96 28.9244 0.500026 5.64229 84.125
12188799 12.3228 14.0255 28.8616 28.9341 0.527415 5.60601 84.144
12188808 12.3228 14.0255 28.96 28.9341 0.497586 5.61698 84.2424
12188817 12.2876 14.0163 28.96 28.9633 0.514075 5.63112 84.2272
12188827 12.3404 14.0715 28.9404 28.9341 0.511599 5.59922 84.2864
12188836 12.3404 14.0715 28.9404 28.9341 0.511599 5.59922 84.2864
12188847 12.3052 14.0255 28.8715 28.9731 0.5411 5.61577 84.1752
12188856 12.2876 14.0347 28.8813 28.9341 0.534806 5.61458 84.1376
12188867 12.2876 14.0347 28.8813 28.9341 0.534806 5.61458 84.1376
12188877 12.2964 13.9978 28.8911 28.9828 0.532603 5.62797 84.1682
12188897 12.3052 13.9794 28.8911 28.9146 0.504726 5.62273 84.0903
12188908 12.2699 14.0715 28.8911 28.9731 0.559193 5.61532 84.2057
12188918 12.2699 14.0715 28.8911 28.9731 0.559193 5.61532 84.2057
12188928 12.2876 14.0439 28.901 28.9438 0.534344 5.61561 84.1763
12188938 12.2523 13.9978 28.8911 28.9536 0.537473 5.63552 84.0949
12188958 12.2876 14.1083 28.8419 28.9731 0.579473 5.5965 84.2109
12188968 12.2876 14.1083 28.8419 28.9731 0.579473 5.5965 84.2109
12188978 12.2699 14.0163 28.8813 29.0218 0.560281 5.63318 84.1893
12188988 12.2523 13.9978 28.8715 29.012 0.560445 5.63983 84.1337
12189008 12.1378 13.9057 28.9404 29.1679 0.592819 5.71551 84.1518
12189018 12.1731 13.9426 28.9994 29.1874 0.580499 5.70645 84.3024
12189028 12.1731 13.9426 28.9994 29.1874 0.580499 5.70645 84.3024
12189039 12.0762 13.9334 28.9896 29.2069 0.615901 5.7336 84.206
12189049 12.0321 13.7768 29.0093 29.3238 0.611824 5.79807 84.142
12189059 12.0321 13.7768 29.0093 29.3238 0.611824 5.79807 84.142
12189069 11.9969 13.8044 29.0388 29.3628 0.632849 5.80744 84.2029
12189092 12.0145 13.7768 29.0486 29.3335 0.60803 5.8078 84.1735
12189099 11.9969 13.7492 29.1077 29.4115 0.609994 5.83391 84.2652
12189114 11.9969 13.7492 29.1077 29.4115 0.609994 5.83391 84.2652
12189119 12.0233 13.7952 29.0093 29.4212 0.648037 5.80634 84.249
12189129 12.0497 13.7952 28.96 29.4212 0.654978 5.79444 84.2262
12189139 12.0497 13.8229 28.96 29.392 0.654513 5.78443 84.2246
12189149 12.0409 13.8873 29.029 29.392 0.654843 5.77824 84.3492
12189160 12.0409 13.8873 29.029 29.392 0.654843 5.77824 84.3492
12189169 12.0674 13.915 28.9404 29.2653 0.645155 5.74133 84.188
12189184 12.0762 13.9518 28.8715 29.2361 0.665671 5.71927 84.1355
12189199 12.1378 14.007 28.8321 29.1289 0.643855 5.6743 84.1059
12189211 12.1378 14.007 28.8321 29.1289 0.643855 5.6743 84.1059
12189221 12.1642 14.0531 28.7238 29.1777 0.696245 5.64989 84.1188
12189229 12.2347 14.0163 28.7829 29.1484 0.637636 5.64495 84.1823
12189251 12.2259 14.1083 28.7238 29.1484 0.684944 5.61797 84.2065
12189259 12.2083 14.1176 28.7336 29.1874 0.701216 5.62546 84.2469
12189274 12.2083 14.1176 28.7336 29.1874 0.701216 5.62546 84.2469
12189280 12.2171 14.0991 28.6844 29.2069 0.713858 5.62451 84.2075
12189290 12.2435 14.0991 28.7927 29.2069 0.67279 5.63008 84.3422
12189301 12.2435 14.0623 28.7927 29.1971 0.659347 5.63802 84.2957
12189310 12.2964 14.1544 28.7829 29.2556 0.689656 5.608 84.4892
12189320 12.2964 14.1544 28.7829 29.2556 0.689656 5.608 84.4892
12189333 12.1907 14.007 28.8025 29.1582 0.645205 5.66128 84.1584
12189341 12.1466 13.9794 28.8025 29.1874 0.659099 5.68213 84.116
12189350 12.1466 13.9794 28.8025 29.1874 0.659099 5.68213 84.116
12189364 12.1202 13.9334 28.7829 29.2556 0.679579 5.70533 84.092
12189372 12.1202 13.9334 28.7829 29.2556 0.679579 5.70533 84.092
12189381 12.0497 13.8505 28.8025 29.2458 0.668278 5.74426 83.9486
12189391 12.0321 13.786 28.9404 29.3628 0.64677 5.79252 84.1213
12189412 11.9528 13.7768 29.0388 29.3822 0.643906 5.82729 84.1507
12189423 11.9088 13.7031 29.1668 29.5186 0.636494 5.88514 84.2973
12189432 11.9088 13.7031 29.1668 29.5186 0.636494 5.88514 84.2973
12189443 11.8471 13.6387 29.1668 29.6258 0.667593 5.92798 84.2784
12189452 11.8471 13.6387 29.1668 29.6258 0.667593 5.92798 84.2784
12189462 11.7855 13.5466 29.275 29.6648 0.638056 5.98202 84.2719
12189472 11.7943 13.6018 29.3243 29.7427 0.658861 5.97968 84.4631
12189483 11.7943 13.6018 29.3243 29.7427 0.658861 5.97968 84.4631
12189493 11.8119 13.5466 29.3341 29.6842 0.617704 5.98384 84.3769
12189503 11.7943 13.5558 29.275 29.7817 0.671783 5.99003 84.4068
12189514 11.7943 13.5558 29.275 29.7817 0.671783 5.99003 84.4068
12189527 11.8471 13.6111 29.2947 29.655 0.629142 5.95173 84.4079
12189535 11.8471 13.6111 29.2947 29.655 0.629142 5.95173 84.4079
12189543 11.7943 13.6295 29.2357 29.5868 0.648785 5.94662 84.2463
12189553 11.8383 13.6387 29.1865 29.5381 0.638941 5.92285 84.2016
12189563 11.8383 13.6387 29.1865 29.5381 0.638941 5.92285 84.2016
12189573 11.856 13.6571 29.1569 29.4991 0.636625 5.9065 84.1691
12189583 11.8648 13.7031 29.1471 29.4699 0.641808 5.88866 84.1849
12189593 11.8648 13.7031 29.1471 29.4699 0.641808 5.88866 84.1849
12189603 11.8295 13.7124 29.1077 29.4407 0.658756 5.88769 84.0903
12189623 11.9264 13.6571 29.1175 29.4699 0.618693 5.88159 84.171
12189635 11.944 13.7124 29.1372 29.4212 0.60924 5.86038 84.2148
12189644 11.944 13.7124 29.1372 29.4212 0.60924 5.86038 84.2148
12189654 11.9264 13.6939 29.0585 29.3822 0.621948 5.85652 84.0611
12189664 11.9 13.7492 29.1175 29.3725 0.625196 5.85473 84.1392
12189674 11.9 13.7492 29.1175 29.3725 0.625196 5.85473 84.1392
12189684 11.9881 13.7584 29.1668 29.4115 0.597396 5.84023 84.3247
12189694 11.9881 13.7584 29.1668 29.4115 0.597396 5.84023 84.3247
12189704 11.9352 13.7216 29.1471 29.3628 0.594655 5.855 84.1666
12189715 11.9352 13.7768 29.1274 29.3725 0.619474 5.84024 84.2119
12189724 11.9352 13.7768 29.1274 29.3725 0.619474 5.84024 84.2119
12189734 12.0057 13.74 29.1175 29.392 0.59602 5.83296 84.2552
12189746 11.9881 13.7768 29.1372 29.3433 0.591952 5.82506 84.2454
12189764 12.0057 13.7584 29.1471 29.3822 0.589567 5.83057 84.2934
12189774 12.0057 13.7584 29.1471 29.3822 0.589567 5.83057 84.2934
12189786 11.9969 13.7031 29.1865 29.3725 0.561455 5.84963 84.259
12189795 11.9176 13.7124 29.2061 29.4212 0.596327 5.87439 84.2573
12189815 11.9352 13.7124 29.2554 29.392 0.567573 5.8722 84.2949
12189827 11.8471 13.6663 29.2455 29.3725 0.578305 5.90229 84.1315
12189835 11.8471 13.6663 29.2455 29.3725 0.578305 5.90229 84.1315
12189847 11.9 13.6295 29.3538 29.4797 0.549805 5.92156 84.3629
12189855 11.8031 13.6295 29.3046 29.6063 0.630778 5.95392 84.3435
12189869 11.8031 13.5098 29.3046 29.6063 0.596142 5.98371 84.2237
12189875 11.7503 13.5005 29.4818 29.6745 0.575492 6.02535 84.4071
12189895 11.7238 13.39 29.5802 29.733 0.538617 6.07613 84.427
12189905 11.6446 13.3164 29.5999 29.8986 0.583264 6.13387 84.4594
12189917 11.6446 13.3164 29.5999 29.8986 0.583264 6.13387 84.4594
12189927 11.5917 13.3164 29.6983 29.9181 0.575095 6.15946 84.5244
12189937 11.5917 13.3164 29.6983 29.9181 0.575095 6.15946 84.5244
12189947 11.486 13.1874 29.6885 30.0155 0.600994 6.22747 84.3774
12189957 11.4332 13.0493 29.7968 30.1032 0.569588 6.29589 84.3824
12189977 11.3891 12.9664 29.846 30.1032 0.544 6.33303 84.3047
12189987 11.257 12.9572 29.9543 30.1519 0.562683 6.38492 84.3203
12189996 11.257 12.9572 29.9543 30.1519 0.562683 6.38492 84.3203
12190007 11.2834 12.8467 30.0822 30.1908 0.495207 6.42327 84.4032
12190016 11.2834 12.8467 30.0822 30.1908 0.495207 6.42327 84.4032
12190030 11.1777 12.8191 30.1216 30.259 0.52703 6.46805 84.3774
12190042 11.2041 12.7546 30.1511 30.259 0.491402 6.48072 84.3689
12190063 11.1777 12.7638 30.1807 30.3077 0.507274 6.49299 84.4299
12190068 11.1777 12.773 30.2299 30.2688 0.483778 6.49168 84.4494
12190078 11.1777 12.773 30.2299 30.2688 0.483778 6.49168 84.4494
12190088 11.2218 12.7914 30.1708 30.2298 0.482345 6.4659 84.4138
12190105 11.2218 12.7914 30.1708 30.2298 0.482345 6.4659 84.4138
12190123 11.3187 12.8375 30.0625 30.0837 0.456682 6.40375 84.3023
12190139 11.4684 12.9664 29.905 29.9181 0.448337 6.29999 84.2579
12190149 11.486 13.0861 29.9641 29.8791 0.448704 6.26741 84.4153
12190158 11.486 13.0861 29.9641 29.8791 0.448704 6.26741 84.4153
12190169 11.5212 13.0861 29.8361 29.7622 0.442645 6.23312 84.2057
12190179 11.5477 13.1414 29.718 29.7427 0.48081 6.19817 84.1498
12190191 11.5477 13.1414 29.718 29.7427 0.48081 6.19817 84.1498
12190199 11.6269 13.1782 29.7082 29.7135 0.462022 6.16487 84.2268
12190214 11.6269 13.1782 29.7082 29.7135 0.462022 6.16487 84.2268
12190220 11.6269 13.1966 29.7574 29.6745 0.441164 6.16131 84.2555
12190230 11.6446 13.2059 29.7672 29.6745 0.435555 6.15561 84.2921
12190250 11.6974 13.2611 29.6097 29.6453 0.474757 6.10884 84.2135
12190262 11.6798 13.3164 29.6885 29.6355 0.469527 6.1067 84.3202
12190270 11.6798 13.3164 29.6885 29.6355 0.469527 6.1067 84.3202
12190283 11.7238 13.344 29.6688 29.616 0.464541 6.08464 84.3527
12190305 11.7591 13.3624 29.7279 29.5479 0.421619 6.07027 84.3972
12190310 11.7679 13.39 29.7279 29.616 0.446841 6.06839 84.5018
12190320 11.7679 13.39 29.7279 29.616 0.446841 6.06839 84.5018
12190330 11.7503 13.344 29.6786 29.5479 0.433743 6.07186 84.3207
12190341 11.6974 13.2979 29.6786 29.6355 0.461817 6.10586 84.3095
12190352 11.6974 13.2979 29.6786 29.6355 0.461817 6.10586 84.3095
12190362 11.6269 13.3072 29.6983 29.6063 0.471336 6.1202 84.2387
12190376 11.6269 13.3072 29.6983 29.6063 0.471336 6.1202 84.2387
12190382 11.671 13.1966 29.7377 29.6745 0.433809 6.14819 84.2798
12190392 11.6093 13.1966 29.7475 29.7037 0.457972 6.16777 84.2572
12190402 11.6093 13.1966 29.7475 29.7037 0.457972 6.16777 84.2572
12190412 11.5829 13.1138 29.8164 29.7719 0.440863 6.20959 84.285
12190422 11.4684 13.0585 29.8755 29.8401 0.461382 6.26561 84.2425
12190432 11.4684 13.0585 29.8755 29.8401 0.461382 6.26561 84.2425
12190445 11.5036 13.0217 30.0625 29.9862 0.426182 6.30042 84.5741
12190452 11.5036 13.0217 30.0625 29.9862 0.426182 6.30042 84.5741
12190462 11.3539 12.9296 30.1216 30.0252 0.438026 6.37153 84.4303
12190474 11.3187 12.8467 30.2791 30.1908 0.425291 6.4343 84.6353
12190493 11.2482 12.7914 30.1708 30.2883 0.491336 6.46509 84.4987
12190502 11.1513 12.7178 30.3185 30.2883 0.454643 6.52335 84.4758
12190515 11.1513 12.7178 30.3185 30.2883 0.454643 6.52335 84.4758
12190523 11.1513 12.6349 30.348 30.3077 0.427309 6.54939 84.4419
12190537 11.1513 12.6349 30.348 30.3077 0.427309 6.54939 84.4419
12190543 11.0016 12.5796 30.4071 30.4149 0.469741 6.61837 84.4032
12190559 11.0544 12.5244 30.4366 30.4539 0.440174 6.62579 84.4692
12190573 10.9751 12.506 30.4563 30.4149 0.441438 6.64892 84.3523
12190586 11.0016 12.5244 30.476 30.4928 0.455558 6.64708 84.4947
12190605 10.9927 12.4967 30.5449 30.4052 0.403926 6.65456 84.4395
12190613 10.9927 12.4967 30.5449 30.4052 0.403926 6.65456 84.4395
12190628 11.0368 12.552 30.4464 30.4052 0.436383 6.61937 84.4404
12190633 11.0544 12.5981 30.4563 30.3564 0.427338 6.59922 84.4652
12190662 11.0984 12.7086 30.3578 30.2395 0.441864 6.53824 84.4044
12190663 11.0896 12.6901 30.3382 30.2785 0.456434 6.54712 84.3964
12190678 11.0896 12.6901 30.3382 30.2785 0.456434 6.54712 84.3964
12190687 11.1249 12.773 30.2889 30.1616 0.450754 6.5003 84.3484
12190696 11.1249 12.773 30.2889 30.1616 0.450754 6.5003 84.3484
12190704 11.1425 12.8006 30.2496 30.1324 0.456858 6.48184 84.3251
12190720 11.1777 12.7822 30.1905 30.1324 0.458691 6.47159 84.2828
12190725 11.1777 12.7822 30.1905 30.1324 0.458691 6.47159 84.2828
12190734 11.2394 12.8375 30.1708 30.1519 0.467762 6.44183 84.3995
12190744 11.1689 12.8099 30.1807 30.1908 0.489363 6.47171 84.3503
12190754 11.1689 12.8099 30.1807 30.1908 0.489363 6.47171 84.3503
12190766 11.1777 12.8467 30.22 30.2785 0.51094 6.47294 84.523
12190774 11.1777 12.8467 30.22 30.2785 0.51094 6.47294 84.523
12190791 11.1513 12.8099 30.2594 30.1908 0.470904 6.48415 84.4114
12190794 11.1689 12.7362 30.2791 30.2883 0.466549 6.51021 84.4725
12190814 11.1689 12.7178 30.1905 30.2883 0.487936 6.50599 84.3654
12190824 11.1073 12.7362 30.2496 30.298 0.4969 6.52394 84.391
12190837 11.1073 12.7362 30.2496 30.298 0.4969 6.52394 84.391
12190846 11.0984 12.6257 30.3086 30.4149 0.483584 6.57201 84.4477
12190866 11.0192 12.6533 30.3086 30.3759 0.504237 6.58133 84.357
12190875 11.028 12.5981 30.3578 30.4246 0.484803 6.60297 84.4085
12190895 11.0016 12.6073 30.3185 30.4539 0.515845 6.60637 84.3811
12190909 11.0104 12.5336 30.3382 30.4734 0.491497 6.62688 84.3555
12190925 10.9751 12.5612 30.3185 30.5415 0.535911 6.63364 84.3964
12190945 10.9311 12.506 30.348 30.5123 0.515789 6.65915 84.2974
12190959 10.9311 12.4783 30.3283 30.6585 0.55612 6.67874 84.3962
12190967 10.9311 12.4783 30.3283 30.6585 0.55612 6.67874 84.3962
12190977 10.9135 12.3954 30.348 30.6292 0.522983 6.70365 84.2861
12190987 10.8782 12.3954 30.4563 30.6779 0.515017 6.72814 84.4079
12190999 10.8782 12.3954 30.4563 30.6779 0.515017 6.72814 84.4079
12191008 10.8782 12.4415 30.4563 30.7072 0.536835 6.71916 84.4832
12191018 10.8782 12.4415 30.4563 30.7072 0.536835 6.71916 84.4832
12191028 10.8606 12.377 30.4071 30.7266 0.544021 6.73737 84.3714
12191038 10.8166 12.3954 30.4464 30.7559 0.559238 6.75068 84.4143
12191048 10.8166 12.3954 30.4464 30.7559 0.559238 6.75068 84.4143
12191059 10.8959 12.4415 30.3972 30.7169 0.552189 6.70979 84.4515
12191068 10.9223 12.5336 30.3775 30.6195 0.548607 6.66783 84.4529
12191082 10.9223 12.5336 30.3775 30.6195 0.548607 6.66783 84.4529
12191088 10.9839 12.6165 30.2693 30.5708 0.572607 6.61525 84.4404
12191108 11.0192 12.6257 30.2496 30.4831 0.545183 6.59319 84.3775
12191119 11.0984 12.7454 30.1511 30.4052 0.563085 6.52471 84.4001
12191130 11.0984 12.7454 30.1511 30.4052 0.563085 6.52471 84.4001
12191139 11.2394 12.8375 29.9739 30.2201 0.547111 6.42876 84.2709
12191153 11.3098 12.9572 29.8066 30.1421 0.588632 6.3554 84.2158
12191170 11.4244 13.0309 29.8066 30.0739 0.555474 6.30076 84.3358
12191189 11.4244 13.0493 29.6196 29.9668 0.586528 6.26565 84.06
12191200 11.4948 13.169 29.5507 30.0057 0.632051 6.21452 84.2202
12191211 11.4948 13.169 29.5507 30.0057 0.632051 6.21452 84.2202
12191220 11.5653 13.2243 29.531 30.0057 0.632584 6.18084 84.3263
12191229 11.6005 13.2519 29.5014 30.0252 0.644457 6.16401 84.3791
12191245 11.6005 13.2519 29.5014 30.0252 0.644457 6.16401 84.3791
12191249 11.6534 13.3624 29.4916 29.9278 0.635168 6.11184 84.4352
12191259 11.6534 13.3624 29.4916 29.9278 0.635168 6.11184 84.4352
12191269 11.6269 13.344 29.4227 30.0252 0.68692 6.12606 84.4188
12191281 11.6093 13.3808 29.403 29.9181 0.678003 6.10789 84.3112
12191290 11.6093 13.3808 29.403 29.9181 0.678003 6.10789 84.3112
12191300 11.7591 13.3808 29.3144 29.8499 0.639707 6.05386 84.3042
12191313 11.7238 13.4913 29.3144 29.8109 0.67108 6.03094 84.3405
12191323 11.7238 13.4913 29.3144 29.8109 0.67108 6.03094 84.3405
12191336 11.7503 13.5098 29.1963 29.7719 0.693092 6.00301 84.2282
12191341 11.6886 13.4177 29.2061 29.7135 0.665388 6.03624 84.0259
12191353 11.6886 13.4177 29.2061 29.7135 0.665388 6.03624 84.0259
12191363 11.7326 13.4453 29.2258 29.6355 0.631356 6.01209 84.0393
12191372 11.7326 13.4453 29.2258 29.6355 0.631356 6.01209 84.0393
12191384 11.7326 13.4637 29.216 29.733 0.667903 6.01684 84.1453
12191392 11.6269 13.4085 29.275 29.9278 0.722432 6.08407 84.2382
12191408 11.6269 13.4085 29.275 29.9278 0.722432 6.08407 84.2382
12191412 11.6358 13.39 29.3636 29.9083 0.681797 6.09379 84.2977
12191422 11.6358 13.39 29.3636 29.9083 0.681797 6.09379 84.2977
12191433 11.6269 13.3072 29.4522 30.0544 0.675744 6.14145 84.4408
12191442 11.5917 13.2703 29.531 30.0739 0.65752 6.16979 84.4669
12191462 11.486 13.2427 29.5999 30.1713 0.688797 6.22057 84.4999
12191474 11.4244 13.169 29.5802 30.2395 0.711977 6.25964 84.4131
12191482 11.4244 13.169 29.5802 30.2395 0.711977 6.25964 84.4131
12191492 11.3891 13.0861 29.6786 30.2395 0.668868 6.29959 84.3934
12191502 11.3891 13.0861 29.6786 30.2395 0.668868 6.29959 84.3934
12191512 11.3275 13.0401 29.6983 30.3077 0.688025 6.33584 84.3736
12191523 11.301 13.0861 29.7672 30.2785 0.679943 6.33495 84.4329
12191533 11.301 13.0861 29.7672 30.2785 0.679943 6.33495 84.4329
12191545 11.2746 13.0309 29.6983 30.259 0.687423 6.34654 84.2628
12191553 11.3098 12.9848 29.718 30.2493 0.654584 6.35031 84.262
12191566 11.3098 12.9848 29.718 30.2493 0.654584 6.35031 84.262
12191573 11.3539 13.0217 29.7574 30.259 0.642663 6.33488 84.392
12191583 11.3539 13.0217 29.7574 30.259 0.642663 6.33488 84.392
12191593 11.3363 13.0493 29.6786 30.2688 0.682756 6.32525 84.333
12191603 11.3539 13.0033 29.7377 30.2298 0.634888 6.33451 84.3246
12191613 11.3539 13.0033 29.7377 30.2298 0.634888 6.33451 84.3246
12191628 11.301 13.0677 29.7279 30.1324 0.644433 6.32053 84.229
12191633 11.3363 13.0125 29.6786 30.2006 0.652435 6.32756 84.2279
12191653 11.4067 13.0953 29.6885 30.2493 0.665981 6.29484 84.4398
12191663 11.4067 13.0953 29.6885 30.2493 0.665981 6.29484 84.4398
12191692 11.3187 12.994 29.6983 30.2298 0.654927 6.34172 84.2408
12191694 11.3187 13.0217 29.7279 30.2201 0.651106 6.33675 84.2882
12191703 11.4067 13.0953 29.7082 30.2006 0.645953 6.29185 84.4108
12191714 11.4067 13.1046 29.6983 30.1421 0.634727 6.28247 84.3517
12191734 11.4508 13.1782 29.6885 30.1713 0.654027 6.25482 84.4888
12191756 11.4508 13.1046 29.6688 30.1421 0.630316 6.26831 84.3662
12191764 11.5124 13.1138 29.6097 30.1129 0.623748 6.2413 84.3488
12191784 11.5212 13.1598 29.6097 30.0642 0.6203 6.22243 84.355
12191797 11.5036 13.1966 29.5014 30.0252 0.657979 6.20225 84.2269
12191804 11.5036 13.1966 29.5014 30.0252 0.657979 6.20225 84.2269
12191814 11.5917 13.2151 29.531 29.9375 0.602165 6.16938 84.2753
12191834 11.5653 13.1874 29.4621 29.957 0.628799 6.17779 84.1718
12191844 11.6181 13.2703 29.4818 29.9375 0.625077 6.14371 84.3077
12191864 11.6093 13.2887 29.4719 29.8596 0.613528 6.13207 84.2296
12191877 11.6886 13.2979 29.4129 29.8791 0.615689 6.10572 84.2785
12191884 11.6886 13.2979 29.4129 29.8791 0.615689 6.10572 84.2785
12191894 11.6181 13.344 29.4129 29.8791 0.650436 6.11184 84.2541
12191905 11.6181 13.344 29.4129 29.8791 0.650436 6.11184 84.2541
12191915 11.6622 13.3164 29.3144 29.8499 0.65057 6.09424 84.1428
12191925 11.6974 13.3072 29.4621 29.8888 0.603545 6.10743 84.3555
12191947 11.671 13.3532 29.4325 29.9083 0.639474 6.10146 84.365
12191957 11.6886 13.3348 29.4522 29.9278 0.628453 6.10579 84.4034
12191969 11.6886 13.3348 29.4522 29.9278 0.628453 6.10579 84.4034
12191979 11.671 13.3348 29.5014 29.8888 0.607604 6.11128 84.396
12191989 11.671 13.3348 29.5014 29.8888 0.607604 6.11128 84.396
12191997 11.6446 13.2795 29.4522 29.9083 0.620231 6.1286 84.2846
12192007 11.6534 13.3164 29.5113 29.957 0.624341 6.1285 84.438
12192017 11.6534 13.3164 29.5113 29.957 0.624341 6.1285 84.438
12192027 11.6005 13.2519 29.5408 29.8888 0.593063 6.15384 84.2821
12192037 11.5829 13.2059 29.5014 29.9181 0.605509 6.16877 84.2083
12192057 11.6005 13.2335 29.5704 29.9765 0.604138 6.17075 84.3809
12192071 11.6005 13.2335 29.5704 29.9765 0.604138 6.17075 84.3809
12192077 11.5477 13.1506 29.6294 29.9375 0.566971 6.20695 84.2652
12192087 11.5829 13.1598 29.7082 29.9668 0.543579 6.20704 84.4176
12192098 11.5829 13.1598 29.7082 29.9668 0.543579 6.20704 84.4176
12192108 11.5917 13.2059 29.5999 29.9083 0.570115 6.17585 84.3058
12192119 11.6622 13.1874 29.5605 29.8499 0.538394 6.15252 84.26
12192140 11.671 13.2427 29.531 29.8109 0.549403 6.12925 84.2555
12192148 11.671 13.2427 29.531 29.8109 0.549403 6.12925 84.2555
12192162 11.6358 13.2703 29.5605 29.9083 0.587368 6.1445 84.3749
12192168 11.6886 13.2519 29.5704 29.8206 0.537631 6.12769 84.3315
12192188 11.6446 13.2887 29.4818 29.8206 0.588536 6.12017 84.2357
12192198 11.715 13.3164 29.5408 29.7719 0.543141 6.09669 84.3441
12192209 11.715 13.3164 29.5408 29.7719 0.543141 6.09669 84.3441
12192219 11.715 13.3624 29.5113 29.694 0.542837 6.07382 84.2827
12192231 11.7238 13.2887 29.5408 29.733 0.521147 6.09729 84.2863
12192239 11.7238 13.2887 29.5408 29.733 0.521147 6.09729 84.2863
12192254 11.6886 13.3256 29.5113 29.6648 0.531664 6.08655 84.1902
12192260 11.6886 13.3256 29.5113 29.6648 0.531664 6.08655 84.1902
12192269 11.671 13.2887 29.4227 29.616 0.539026 6.08565 83.9985
12192280 11.715 13.3808 29.3932 29.5868 0.552908 6.04528 84.0758
12192290 11.715 13.3808 29.3932 29.5868 0.552908 6.04528 84.0758
12192299 11.7855 13.4085 29.4325 29.616 0.53609 6.02807 84.2425
12192310 11.856 13.3716 29.4227 29.6648 0.521171 6.02382 84.315
12192324 11.856 13.3716 29.4227 29.6648 0.521171 6.02382 84.315
12192330 11.8471 13.39 29.4916 29.5966 0.488538 6.0215 84.3253
12192340 11.8471 13.39 29.4916 29.5966 0.488538 6.0215 84.3253
12192350 11.7591 13.39 29.4818 29.655 0.535148 6.04864 84.2859
12192363 11.856 13.4177 29.4424 29.6355 0.520101 6.01133 84.3515
12192382 11.7767 13.4545 29.4227 29.5966 0.549453 6.01565 84.2504
12192392 11.7855 13.4085 29.4227 29.6355 0.544733 6.02909 84.2522
12192414 11.8207 13.4361 29.4522 29.6355 0.533128 6.01656 84.3446
12192437 11.7238 13.39 29.4325 29.6063 0.546616 6.04704 84.1527
12192442 11.7415 13.3348 29.5211 29.694 0.523829 6.07516 84.2914
12192462 11.7943 13.3256 29.5408 29.6842 0.496382 6.06531 84.3449
12192473 11.7238 13.2795 29.531 29.7719 0.532767 6.10267 84.3063
12192484 11.7238 13.2795 29.531 29.7719 0.532767 6.10267 84.3063
12192494 11.6974 13.2703 29.6294 29.8693 0.536555 6.1322 84.4665
12192513 11.6093 13.1046 29.718 29.9083 0.499621 6.20922 84.3402
12192523 11.5829 13.1138 29.718 29.9862 0.532901 6.22166 84.4009
12192533 11.5829 13.1138 29.718 29.9862 0.532901 6.22166 84.4009
12192543 11.5124 13.0125 29.7377 29.996 0.521705 6.26799 84.2586
12192553 11.486 12.9204 29.7968 30.1032 0.5162 6.3151 84.3063
12192563 11.486 12.9204 29.7968 30.1032 0.5162 6.3151 84.3063
12192575 11.4067 12.9019 29.9838 30.1421 0.489596 6.36301 84.4346
12192584 11.4067 12.9019 29.9838 30.1421 0.489596 6.36301 84.4346
12192598 11.2834 12.7546 30.0822 30.2103 0.474107 6.44864 84.3306
12192612 11.257 12.7546 30.1807 30.2883 0.475019 6.4732 84.4805
12192614 11.257 12.7546 30.1807 30.2883 0.475019 6.4732 84.4805
12192624 11.1777 12.7454 30.2003 30.298 0.493157 6.49868 84.4215
12192634 11.1161 12.6533 30.2299 30.3467 0.490263 6.54576 84.3459
12192644 11.1161 12.6533 30.2299 30.3467 0.490263 6.54576 84.3459
12192654 11.1953 12.6901 30.2397 30.4052 0.49102 6.52299 84.5304
12192666 11.1953 12.6901 30.2397 30.4052 0.49102 6.52299 84.5304
12192677 11.1777 12.6994 30.2496 30.4246 0.50168 6.52807 84.5513
12192689 11.2041 12.7362 30.1905 30.3467 0.499612 6.49821 84.4775
12192694 11.2041 12.7362 30.1905 30.3467 0.499612 6.49821 84.4775
12192713 11.2306 12.7822 30.1905 30.2103 0.465408 6.46602 84.4136
12192715 11.2306 12.8191 30.033 30.1616 0.50956 6.43575 84.2442
12192735 11.3275 12.9112 30.0527 30.0544 0.469923 6.37883 84.3458
12192744 11.3275 12.9112 30.0527 30.0544 0.469923 6.37883 84.3458
12192758 11.3539 12.948 29.9346 29.9668 0.482848 6.3417 84.2032
12192765 11.4332 13.0125 29.8952 30.0155 0.503689 6.3063 84.3563
12192781 11.4332 13.0125 29.8952 30.0155 0.503689 6.3063 84.3563
12192787 11.4508 13.123 29.7968 29.8206 0.503632 6.24359 84.1911
12192795 11.4772 13.123 29.8164 29.8011 0.484008 6.23694 84.2178
12192807 11.4772 13.123 29.8164 29.8011 0.484008 6.23694 84.2178
12192816 11.5389 13.1874 29.7377 29.7817 0.502262 6.19493 84.2457
12192826 11.5389 13.1874 29.7377 29.7817 0.502262 6.19493 84.2457
12192835 11.5389 13.2059 29.7082 29.694 0.49105 6.17803 84.1469
12192849 11.6269 13.2335 29.7377 29.6745 0.457841 6.15 84.2726
12192871 11.6093 13.2703 29.7279 29.694 0.482529 6.14619 84.3015
12192876 11.671 13.2427 29.7672 29.7037 0.44682 6.14281 84.3846
12192894 11.671 13.2427 29.7672 29.7037 0.44682 6.14281 84.3846
12192897 11.6622 13.3348 29.7574 29.7232 0.484872 6.12298 84.4775
12192917 11.6886 13.2519 29.6688 29.6453 0.456882 6.11959 84.2546
12192927 11.7062 13.3164 29.7082 29.6648 0.464106 6.10524 84.3955
12192941 11.7062 13.3164 29.7082 29.6648 0.464106 6.10524 84.3955
12192947 11.6974 13.2887 29.6786 29.6355 0.459138 6.10817 84.3003
12192957 11.6798 13.3164 29.6097 29.6453 0.49617 6.09941 84.2512
12192967 11.6798 13.3164 29.6097 29.6453 0.49617 6.09941 84.2512
12192977 11.671 13.3256 29.6393 29.6745 0.501072 6.10552 84.3103
12192986 11.671 13.3256 29.6393 29.6745 0.501072 6.10552 84.3103
12192998 11.6269 13.2243 29.7082 29.6648 0.461245 6.14818 84.2241
12193007 11.6269 13.1874 29.7279 29.7427 0.467265 6.16768 84.2849
12193017 11.6269 13.1874 29.7279 29.7427 0.467265 6.16768 84.2849
12193027 11.5917 13.1782 29.8164 29.7427 0.448471 6.18812 84.3291
12193037 11.5212 13.1046 29.8755 29.8596 0.464493 6.2427 84.3609
12193057 11.4684 13.1046 29.9543 29.9181 0.473666 6.27022 84.4453
12193067 11.4684 13.1046 29.9543 29.9181 0.473666 6.27022 84.4453
12193077 11.4067 12.994 29.9641 29.9668 0.471345 6.31971 84.3316
12193088 11.3539 13.0309 30.1019 30.0155 0.470567 6.34291 84.5021
12193103 11.3539 13.0309 30.1019 30.0155 0.470567 6.34291 84.5021
12193109 11.3098 12.948 30.161 30.1226 0.473085 6.39197 84.5415
12193118 11.2306 12.8651 30.2003 30.2395 0.494981 6.44892 84.5356
12193128 11.2306 12.8651 30.2003 30.2395 0.494981 6.44892 84.5356
12193138 11.2394 12.8006 30.2397 30.2493 0.464582 6.46801 84.529
12193158 11.1161 12.7086 30.2988 30.298 0.471357 6.53368 84.4214
12193168 11.0808 12.7086 30.3775 30.2785 0.452572 6.5486 84.4454
12193179 11.0808 12.7086 30.3775 30.2785 0.452572 6.5486 84.4454
12193189 11.0192 12.6073 30.3185 30.2785 0.459531 6.58437 84.2234
12193199 11.0368 12.6257 30.4268 30.337 0.443909 6.59178 84.4262
12193212 11.0368 12.6257 30.4268 30.337 0.443909 6.59178 84.4262
12193221 10.9663 12.5152 30.4464 30.4344 0.455415 6.64977 84.3623
12193229 10.9663 12.5152 30.4464 30.4344 0.455415 6.64977 84.3623
12193239 10.8518 12.4507 30.5252 30.4344 0.44744 6.70356 84.2621
12193249 10.8782 12.4231 30.6138 30.5415 0.435904 6.7231 84.4566
12193259 10.8782 12.4231 30.6138 30.5415 0.435904 6.7231 84.4566
12193269 10.8606 12.4415 30.5744 30.5708 0.466931 6.7219 84.4473
12193280 10.8518 12.4047 30.6138 30.5903 0.452673 6.7394 84.4605
12193300 10.887 12.4415 30.663 30.639 0.452089 6.73045 84.6305
12193311 10.887 12.4415 30.663 30.639 0.452089 6.73045 84.6305
12193321 10.8254 12.5152 30.5646 30.4831 0.476462 6.70243 84.3882
12193334 10.887 12.5336 30.5941 30.5221 0.465629 6.6886 84.5368
12193351 10.9047 12.5888 30.5055 30.3759 0.460625 6.64675 84.3749
12193361 10.9751 12.6257 30.4464 30.3662 0.465062 6.61242 84.4134
12193381 11.0016 12.7178 30.4464 30.2395 0.447044 6.56949 84.4053
12193403 11.0896 12.8006 30.3185 30.2493 0.485989 6.51403 84.458
12193413 11.1777 12.8375 30.22 30.1129 0.460181 6.45854 84.3481
12193432 11.1513 12.8835 30.2102 30.0934 0.478864 6.45058 84.3384
12193447 11.2306 12.9112 30.1708 30.0252 0.455013 6.41248 84.3378
12193452 11.2306 12.9112 30.1708 30.0252 0.455013 6.41248 84.3378
12193462 11.2218 12.9848 30.1314 29.9862 0.479659 6.38804 84.3243
12193482 11.1953 12.9664 30.0724 29.957 0.491655 6.3904 84.1911
12193494 11.1953 12.9112 30.1314 30.0057 0.471878 6.41544 84.2437
12193502 11.1953 12.9112 30.1314 30.0057 0.471878 6.41544 84.2437
12193512 11.1601 12.9664 30.0822 29.996 0.510684 6.40434 84.2047
12193522 11.2306 12.9296 30.1905 30.0934 0.474253 6.41675 84.4441
12193544 11.213 12.9296 30.22 30.1519 0.487623 6.43015 84.5144
12193553 11.1073 12.9296 30.2889 30.1713 0.504377 6.46592 84.4971
12193566 11.1073 12.8191 30.2889 30.1713 0.472295 6.49403 84.3866
12193573 11.1689 12.7914 30.3382 30.259 0.456315 6.49915 84.5575
12193583 11.1689 12.7914 30.3382 30.259 0.456315 6.49915 84.5575
12193593 11.0984 12.7178 30.4169 30.2785 0.438082 6.5457 84.5116
12193603 11.0632 12.7086 30.3382 30.2493 0.461262 6.54623 84.3592
12193623 11.0368 12.727 30.4169 30.3175 0.47065 6.56298 84.4982
12193639 11.0368 12.727 30.4169 30.3175 0.47065 6.56298 84.4982
12193643 10.9839 12.6165 30.4563 30.3175 0.442588 6.60866 84.3742
12193653 10.9839 12.5796 30.4661 30.3272 0.431734 6.62005 84.3569
12193663 10.9839 12.5796 30.4661 30.3272 0.431734 6.62005 84.3569
12193673 10.9751 12.5428 30.535 30.3857 0.419921 6.64437 84.4386
12193687 10.9135 12.4599 30.535 30.4734 0.439894 6.69013 84.3818
12193709 10.887 12.4507 30.6236 30.4928 0.424159 6.70992 84.4542
12193723 10.843 12.4231 30.6236 30.5221 0.437886 6.73122 84.4118
12193736 10.843 12.3678 30.6532 30.6195 0.441253 6.75786 84.4835
12193744 10.843 12.3678 30.6532 30.6195 0.441253 6.75786 84.4835
12193757 10.843 12.3678 30.663 30.6585 0.449613 6.76262 84.5323
12193765 10.7902 12.2757 30.6925 30.6292 0.421348 6.80002 84.3876
12193784 10.8078 12.2481 30.7516 30.6877 0.407249 6.81401 84.4951
12193806 10.7197 12.2205 30.7221 30.7072 0.440291 6.84295 84.3694
12193814 10.6845 12.2757 30.7713 30.7656 0.46913 6.84817 84.4971
12193829 10.6845 12.2757 30.7713 30.7656 0.46913 6.84817 84.4971
12193835 10.6668 12.2205 30.7122 30.8046 0.487539 6.8651 84.4041
12193845 10.6933 12.2113 30.791 30.7948 0.450313 6.86728 84.4903
12193855 10.6933 12.2113 30.791 30.7948 0.450313 6.86728 84.4903
12193865 10.6756 12.2113 30.7417 30.7851 0.467631 6.86617 84.4138
12193876 10.658 12.2389 30.7713 30.8338 0.486201 6.87111 84.502
12193892 10.658 12.2389 30.7713 30.8338 0.486201 6.87111 84.502
12193900 10.6756 12.2021 30.8107 30.8338 0.458333 6.87987 84.5222
12193923 10.658 12.2665 30.7516 30.8143 0.494498 6.86019 84.4905
12193928 10.6492 12.2205 30.7614 30.863 0.494963 6.88002 84.4942
12193947 10.6668 12.2849 30.7516 30.7559 0.480229 6.84751 84.4592
12193957 10.658 12.2757 30.7122 30.8143 0.509056 6.85401 84.4603
12193977 10.7021 12.2941 30.7024 30.7754 0.492772 6.83314 84.474
12193987 10.7021 12.2941 30.7024 30.7754 0.492772 6.83314 84.474
12193999 10.6492 12.3218 30.7122 30.7851 0.516596 6.84156 84.4683
12194008 10.6668 12.3678 30.7614 30.7656 0.504118 6.82798 84.5617
12194028 10.6845 12.3218 30.6728 30.7948 0.520667 6.82958 84.4739
12194040 10.6316 12.2849 30.663 30.8241 0.537419 6.85466 84.4036
12194048 10.6316 12.2849 30.663 30.8241 0.537419 6.85466 84.4036
12194060 10.6316 12.3402 30.7417 30.8533 0.538075 6.85078 84.5668
12194068 10.6316 12.3402 30.7417 30.8533 0.538075 6.85078 84.5668
12194079 10.6845 12.3126 30.6728 30.863 0.53775 6.83855 84.5329
12194088 10.6668 12.3034 30.663 30.9702 0.574365 6.85487 84.6034
12194108 10.614 12.3126 30.7221 30.9215 0.561073 6.86714 84.5701
12194118 10.6228 12.3218 30.6728 30.9117 0.573143 6.85681 84.5292
12194128 10.6228 12.3218 30.6728 30.9117 0.573143 6.85681 84.5292
12194138 10.6316 12.2757 30.6925 30.9312 0.556844 6.87021 84.5311
12194149 10.6316 12.2757 30.6925 30.9312 0.556844 6.87021 84.5311
12194161 10.6228 12.2021 30.7614 30.9215 0.514543 6.89725 84.5078
12194169 10.5435 12.1928 30.7122 30.9312 0.553551 6.91642 84.3798
12194179 10.5435 12.1928 30.7122 30.9312 0.553551 6.91642 84.3798
12194189 10.5435 12.1468 30.7417 30.902 0.522783 6.92841 84.3341
12194199 10.5259 12.1008 30.6827 30.9215 0.538301 6.9412 84.2308
12194219 10.5699 12.1376 30.8402 31.0579 0.527549 6.94821 84.6056
12194239 10.4819 12.11 30.8402 31.0676 0.54898 6.9792 84.4996
12194252 10.5083 12.0639 30.9288 31.1553 0.526291 7.00099 84.6563
12194259 10.5083 12.0639 30.9288 31.1553 0.526291 7.00099 84.6563
12194270 10.4642 12.11 30.8894 31.1748 0.570396 6.99859 84.6384
12194280 10.4114 12.0363 30.9091 31.1943 0.564769 7.03522 84.5511
12194299 10.5083 12.0731 30.8697 31.1553 0.546774 6.99301 84.6064
12194312 10.5083 12.0731 30.8697 31.1553 0.546774 6.99301 84.6064
12194320 10.4642 12.0087 30.9189 31.1845 0.535023 7.02866 84.5764
12194330 10.4731 11.9995 30.8894 31.1358 0.524518 7.02138 84.4977
12194340 10.4731 11.9995 30.8894 31.1358 0.524518 7.02138 84.4977
12194351 10.4642 12.0179 30.9091 31.165 0.535023 7.02349 84.5563
12194362 10.4731 12.0731 30.8205 31.165 0.575116 6.99844 84.5317
12194383 10.4907 12.0547 30.8008 31.165 0.570416 6.99678 84.5112
12194403 10.3938 11.9718 30.7811 31.1163 0.567645 7.03722 84.2631
12194412 10.4466 12.0271 30.8205 31.1553 0.566983 7.0164 84.4495
12194422 10.4466 12.0271 30.8205 31.1553 0.566983 7.0164 84.4495
12194432 10.429 12.0271 30.7713 31.0871 0.567487 7.00988 84.3145
12194442 10.4378 12.0731 30.7811 31.1261 0.586444 7.0002 84.4182
12194464 10.4554 12.1284 30.7516 31.0481 0.583491 6.97101 84.3836
12194485 10.4378 12.1744 30.791 31.0287 0.584581 6.9655 84.4319
12194492 10.5083 12.2113 30.6728 30.941 0.584322 6.91795 84.3334
12194501 10.5083 12.2113 30.6728 30.941 0.584322 6.91795 84.3334
12194511 10.5083 12.3402 30.663 31.0287 0.649858 6.89196 84.5401
12194525 10.5435 12.2849 30.6433 30.9507 0.606716 6.88778 84.4225
12194535 10.5435 12.2849 30.6433 30.9507 0.606716 6.88778 84.4225
12194546 10.5876 12.4323 30.6532 30.9117 0.621659 6.83546 84.5848
12194563 10.5964 12.4231 30.5843 30.8338 0.614735 6.82137 84.4375
12194573 10.6228 12.5152 30.5153 30.8533 0.659806 6.78598 84.5066
12194583 10.6228 12.5152 30.5153 30.8533 0.659806 6.78598 84.5066
12194593 10.5699 12.5152 30.476 30.7559 0.659749 6.78631 84.317
12194603 10.5788 12.4507 30.4464 30.7851 0.655881 6.80067 84.261
12194614 10.5788 12.4507 30.4464 30.7851 0.655881 6.80067 84.261
12194623 10.6492 12.4967 30.5941 30.8338 0.616989 6.78967 84.5739
12194637 10.6492 12.4967 30.5941 30.8338 0.616989 6.78967 84.5739
12194645 10.6052 12.4231 30.535 30.8436 0.629809 6.81526 84.4068
12194653 10.5611 12.4047 30.6335 30.902 0.624859 6.84659 84.5013
12194666 10.5611 12.4047 30.6335 30.902 0.624859 6.84659 84.5013
12194673 10.5699 12.4323 30.5941 30.8241 0.619611 6.82583 84.4204
12194686 10.5876 12.4047 30.6433 30.863 0.602621 6.83694 84.4986
12194693 10.5876 12.4047 30.6433 30.863 0.602621 6.83694 84.4986
12194703 10.5699 12.377 30.6433 30.9799 0.633708 6.85991 84.5702
12194713 10.5699 12.377 30.6433 30.9799 0.633708 6.85991 84.5702
12194723 10.5171 12.2757 30.6925 30.9702 0.602773 6.90361 84.4556
12194733 10.5611 12.2757 30.6728 30.9799 0.598207 6.89124 84.4897
12194756 10.5435 12.3402 30.6925 30.9605 0.610563 6.87913 84.5367
12194763 10.5259 12.3126 30.7319 31.0092 0.610054 6.89929 84.5796
12194784 10.4907 12.2113 30.7221 30.9994 0.591648 6.93283 84.4234
12194804 10.4995 12.2205 30.6827 30.9897 0.600764 6.92345 84.3923
12194814 10.5347 12.1744 30.7614 30.9994 0.555733 6.93472 84.47
12194828 10.5347 12.1744 30.7614 30.9994 0.555733 6.93472 84.47
12194834 10.5523 12.156 30.8008 31.0092 0.535989 6.93962 84.5183
12194844 10.5171 12.1744 30.7516 31.0384 0.575313 6.94207 84.4815
12194854 10.5171 12.1744 30.7516 31.0384 0.575313 6.94207 84.4815
12194865 10.4995 12.1376 30.8008 31.0189 0.549456 6.95906 84.4568
12194877 10.4995 12.1376 30.8008 31.0189 0.549456 6.95906 84.4568
12194886 10.4907 12.1468 30.7417 31.0189 0.57267 6.95332 84.3981
12194899 10.5523 12.1652 30.8205 31.0579 0.546798 6.94374 84.5959
12194906 10.5523 12.1652 30.8205 31.0579 0.546798 6.94374 84.5959
12194915 10.4819 12.1744 30.8303 31.1261 0.587469 6.96706 84.6127
12194926 10.5611 12.1836 30.7417 31.0287 0.564811 6.92638 84.5152
12194935 10.5611 12.1836 30.7417 31.0287 0.564811 6.92638 84.5152
12194945 10.5083 12.2757 30.6925 31.0287 0.622317 6.9115 84.5052
12194969 10.5259 12.2481 30.6728 30.9994 0.606534 6.90941 84.4463
12194977 10.6404 12.2849 30.6827 30.9312 0.559819 6.8646 84.5393
12194997 10.614 12.3862 30.6236 30.8923 0.603697 6.83579 84.5161
12195007 10.6228 12.4139 30.7122 30.8338 0.565323 6.8293 84.5827
12195018 10.6228 12.4139 30.7122 30.8338 0.565323 6.8293 84.5827
12195027 10.6492 12.4691 30.6335 30.7851 0.583041 6.79589 84.5369
12195047 10.614 12.4231 30.6236 30.7754 0.580561 6.81497 84.4361
12195057 10.6492 12.4691 30.6236 30.6487 0.54656 6.78167 84.3907
12195068 10.6492 12.4691 30.6236 30.6487 0.54656 6.78167 84.3907
12195080 10.6756 12.4875 30.5646 30.6195 0.553313 6.76149 84.3472
12195091 10.7109 12.4507 30.4957 30.6097 0.550011 6.75421 84.267
12195098 10.7109 12.4507 30.4957 30.6097 0.550011 6.75421 84.267
12195121 10.7197 12.4875 30.4563 30.5708 0.558665 6.73476 84.2343
12195128 10.7109 12.4875 30.535 30.5708 0.537458 6.74475 84.3042
12195138 10.7285 12.4783 30.535 30.639 0.54923 6.74926 84.3808
12195153 10.7285 12.4783 30.535 30.639 0.54923 6.74926 84.3808
12195162 10.7637 12.4783 30.5941 30.6195 0.515062 6.74404 84.4556
12195170 10.799 12.4783 30.6827 30.6585 0.488999 6.74744 84.6184
12195179 10.799 12.4783 30.6827 30.6585 0.488999 6.74744 84.6184
12195193 10.7461 12.4967 30.6827 30.6585 0.510263 6.75629 84.584
12195199 10.7461 12.4967 30.6827 30.6585 0.510263 6.75629 84.584
12195215 10.7373 12.3954 30.6236 30.6487 0.498557 6.77795 84.4051
12195219 10.799 12.4415 30.663 30.7461 0.50965 6.76353 84.6496
12195229 10.799 12.4415 30.663 30.7461 0.50965 6.76353 84.6496
12195242 10.7725 12.4323 30.6236 30.5708 0.475979 6.75176 84.3992
12195249 10.7549 12.3586 30.7024 30.6682 0.464439 6.79247 84.4841
12195261 10.7549 12.3586 30.7024 30.6682 0.464439 6.79247 84.4841
12195269 10.7725 12.3862 30.7024 30.639 0.458667 6.77796 84.5001
12195289 10.7285 12.2665 30.7516 30.6682 0.430796 6.82785 84.4148
12195299 10.7813 12.3034 30.7614 30.6877 0.428307 6.80753 84.5338
12195309 10.7813 12.3034 30.7614 30.6877 0.428307 6.80753 84.5338
12195319 10.7197 12.3126 30.8008 30.6779 0.434858 6.82393 84.511
12195333 10.6756 12.2205 30.7516 30.6682 0.43332 6.85345 84.3159
12195349 10.7461 12.2205 30.791 30.7072 0.411579 6.84277 84.4647
12195369 10.6668 12.1744 30.85 30.639 0.384361 6.87435 84.3303
12195383 10.7021 12.1284 30.8599 30.6487 0.360197 6.87904 84.339
12195389 10.7021 12.1284 30.8599 30.6487 0.360197 6.87904 84.339
12195406 10.6933 12.2941 30.7417 30.6585 0.449589 6.82792 84.3876
12195410 10.7109 12.2297 30.8599 30.6585 0.389948 6.85146 84.4589
12195420 10.7109 12.2297 30.8599 30.6585 0.389948 6.85146 84.4589
12195431 10.7021 12.2757 30.7811 30.5903 0.409845 6.82761 84.3492
12195454 10.7549 12.3034 30.791 30.5903 0.39902 6.80776 84.4395
12195460 10.7373 12.3678 30.7221 30.5415 0.429663 6.78423 84.3687
12195471 10.7373 12.3678 30.7221 30.5415 0.429663 6.78423 84.3687
12195480 10.8078 12.4507 30.7024 30.4636 0.415805 6.73516 84.4245
12195490 10.7813 12.4691 30.7122 30.4246 0.414813 6.73437 84.3873
12195510 10.7725 12.5244 30.6433 30.4441 0.459993 6.71757 84.3844
12195526 10.7725 12.5244 30.6433 30.4441 0.459993 6.71757 84.3844
12195530 10.8166 12.5152 30.5843 30.3759 0.441995 6.69609 84.2919
12195541 10.8078 12.5796 30.6039 30.4344 0.474474 6.68948 84.4257
12195551 10.8078 12.5796 30.6039 30.4344 0.474474 6.68948 84.4257
12195560 10.9135 12.6073 30.6236 30.3467 0.419235 6.64856 84.4911
12195570 10.8782 12.5336 30.5449 30.3662 0.437796 6.67065 84.3229
12195595 10.9047 12.5981 30.6138 30.4052 0.439167 6.65798 84.5217
12195612 10.843 12.5888 30.5547 30.4344 0.481367 6.67321 84.4209
12195622 10.8078 12.5336 30.6532 30.3759 0.429234 6.7004 84.3704
12195632 10.8078 12.5336 30.6532 30.3759 0.429234 6.7004 84.3704
12195642 10.887 12.4783 30.6236 30.4149 0.409505 6.69515 84.4039
12195652 10.843 12.552 30.5941 30.4246 0.455955 6.68559 84.4137
12195665 10.843 12.552 30.5941 30.4246 0.455955 6.68559 84.4137
12195672 10.8518 12.5612 30.6236 30.4539 0.455567 6.68675 84.4905
12195682 10.8518 12.5612 30.6236 30.4539 0.455567 6.68675 84.4905
12195692 10.8518 12.4691 30.6335 30.4928 0.437158 6.71521 84.4472
12195702 10.843 12.5244 30.7024 30.5123 0.440791 6.71194 84.5821
12195714 10.843 12.5244 30.7024 30.5123 0.440791 6.71194 84.5821
12195723 10.8606 12.5336 30.663 30.5708 0.46697 6.70693 84.628
12195734 10.8518 12.506 30.6335 30.5415 0.462016 6.71052 84.5328
12195743 10.8518 12.506 30.6335 30.5415 0.462016 6.71052 84.5328
12195758 10.8606 12.4231 30.6039 30.639 0.47248 6.7362 84.5266
12195763 10.8606 12.4231 30.6039 30.639 0.47248 6.7362 84.5266
12195786 10.799 12.4507 30.6728 30.6195 0.472662 6.74978 84.542
12195788 10.7637 12.377 30.663 30.5415 0.442186 6.76928 84.3453
12195807 10.7637 12.377 30.663 30.5415 0.442186 6.76928 84.3453
12195811 10.799 12.377 30.5941 30.5415 0.452349 6.75345 84.3116
12195813 10.6933 12.3586 30.7024 30.6974 0.491521 6.81122 84.4517
12195830 10.6933 12.3586 30.7024 30.6974 0.491521 6.81122 84.4517
12195834 10.7285 12.3126 30.6532 30.6487 0.468212 6.8045 84.3429
12195855 10.7109 12.3034 30.7221 30.7169 0.469881 6.82474 84.4532
12195864 10.7109 12.3126 30.7122 30.7559 0.486839 6.82518 84.4915
12195877 10.7109 12.3126 30.7122 30.7559 0.486839 6.82518 84.4915
12195886 10.7197 12.2849 30.7516 30.8338 0.486898 6.84137 84.59
12195901 10.7109 12.2573 30.7024 30.7948 0.48508 6.84227 84.4654
12195906 10.7109 12.2573 30.7024 30.7948 0.48508 6.84227 84.4654
12195917 10.7197 12.2665 30.6925 30.8338 0.499368 6.84043 84.5126
12195925 10.7109 12.3126 30.6827 30.7461 0.492921 6.82137 84.4523
12195949 10.7637 12.4047 30.6827 30.6195 0.466946 6.77167 84.4706
12195955 10.7637 12.4047 30.6827 30.6195 0.466946 6.77167 84.4706
12195967 10.7197 12.4783 30.5449 30.5805 0.531965 6.74677 84.3234
12195977 10.7813 12.4875 30.535 30.4441 0.479326 6.71415 84.248
12195987 10.7813 12.4875 30.535 30.4441 0.479326 6.71415 84.248
12195997 10.7813 12.552 30.4563 30.4246 0.516248 6.68786 84.2143
12196007 10.7461 12.5796 30.3972 30.3759 0.538722 6.67917 84.0989
12196017 10.7461 12.5796 30.3972 30.3759 0.538722 6.67917 84.0989
12196027 10.8606 12.6533 30.4169 30.4052 0.52793 6.63563 84.336
12196047 10.8606 12.6717 30.4268 30.4149 0.533119 6.63285 84.374
12196060 10.8959 12.7178 30.4563 30.3467 0.507107 6.60818 84.4166
12196084 10.8959 12.8099 30.3874 30.3564 0.557455 6.57874 84.4495
12196087 10.8959 12.8099 30.3874 30.3564 0.557455 6.57874 84.4495
12196097 10.9311 12.8191 30.4268 30.3077 0.523457 6.56646 84.4846
12196108 10.9751 12.9112 30.4268 30.3175 0.539628 6.53274 84.6305
12196119 10.9751 12.9112 30.4268 30.3175 0.539628 6.53274 84.6305
12196132 10.9927 12.9664 30.2988 30.2493 0.569233 6.49452 84.5072
12196138 11.0456 12.948 30.2496 30.2395 0.559992 6.47982 84.4827
12196148 11.0456 12.948 30.2496 30.2395 0.559992 6.47982 84.4827
12196158 11.0016 13.0033 30.1905 30.2006 0.59593 6.46707 84.3959
12196168 11.0456 13.0493 30.1807 30.1519 0.584793 6.43825 84.4274
12196178 11.0456 13.0493 30.1807 30.1519 0.584793 6.43825 84.4274
12196188 11.0456 13.0217 30.1314 30.1519 0.591725 6.44027 84.3506
12196200 11.0456 13.0217 30.1314 30.1519 0.591725 6.44027 84.3506
12196209 11.028 12.9756 30.1708 30.1226 0.563326 6.4575 84.2971
12196225 11.028 13.0033 30.1216 30.1226 0.586265 6.44547 84.2755
12196231 11.028 13.0033 30.1216 30.1226 0.586265 6.44547 84.2755
12196239 11.0368 12.9756 30.1708 30.1811 0.577587 6.46117 84.3643
12196250 11.0456 12.9664 30.1708 30.2493 0.591981 6.46817 84.4321
12196259 11.0456 12.9664 30.1708 30.2493 0.591981 6.46817 84.4321
12196274 11.028 12.8835 30.161 30.2395 0.573501 6.49178 84.312
12196290 11.0104 12.8006 30.2102 30.3077 0.559664 6.52924 84.3289
12196299 10.9399 12.8006 30.2496 30.337 0.577557 6.55412 84.3271
12196309 10.9399 12.8006 30.2496 30.337 0.577557 6.55412 84.3271
12196319 11.0104 12.8835 30.2988 30.3175 0.559655 6.51798 84.5102
12196330 10.9047 12.8099 30.3185 30.3759 0.581294 6.57156 84.4089
12196345 10.9047 12.8099 30.3185 30.3759 0.581294 6.57156 84.4089
12196349 10.9135 12.7822 30.3185 30.4441 0.590354 6.58317 84.4583
12196359 10.9135 12.7822 30.3185 30.4441 0.590354 6.58317 84.4583
12196370 10.9047 12.7638 30.2299 30.3759 0.594845 6.57448 84.2743
12196379 10.8518 12.7086 30.3578 30.4636 0.58144 6.62366 84.3818
12196400 10.8959 12.7178 30.3677 30.4344 0.559318 6.60809 84.4157
12196417 10.8606 12.6625 30.3972 30.4734 0.556326 6.63807 84.3937
12196441 10.887 12.6625 30.3677 30.4344 0.545976 6.6245 84.3516
12196454 10.887 12.6625 30.3677 30.4344 0.545976 6.6245 84.3516
12196456 10.8782 12.6625 30.3874 30.4928 0.559616 6.63451 84.421
12196465 10.799 12.6441 30.4464 30.5123 0.566047 6.66734 84.4018
12196472 10.799 12.6441 30.4464 30.5123 0.566047 6.66734 84.4018
12196482 10.8606 12.5981 30.4071 30.5513 0.55725 6.66329 84.417
12196492 10.8782 12.6533 30.4366 30.5415 0.556153 6.64656 84.5097
12196514 10.8254 12.6717 30.476 30.5318 0.562739 6.65831 84.5049
12196538 10.8518 12.6073 30.3775 30.5026 0.557417 6.65545 84.3392
12196543 10.8782 12.7178 30.4268 30.5805 0.589013 6.63295 84.6033
12196553 10.8782 12.7178 30.4268 30.5805 0.589013 6.63295 84.6033
12196563 10.8518 12.6994 30.3677 30.4928 0.584245 6.62989 84.4117
12196573 10.8782 12.7454 30.3185 30.4052 0.57911 6.59772 84.3473
12196584 10.8782 12.7454 30.3185 30.4052 0.57911 6.59772 84.3473
12196593 10.8959 12.7638 30.2397 30.4441 0.614262 6.58453 84.3435
12196613 10.887 12.7822 30.1511 30.4246 0.643566 6.57127 84.245
12196623 10.9751 12.8467 30.2003 30.3077 0.586671 6.52549 84.3299
12196649 10.9839 12.8467 30.0625 30.337 0.634328 6.51231 84.2301
12196656 11.0368 12.8835 30.1314 30.3467 0.610796 6.49736 84.3985
12196663 11.0368 12.8835 30.1314 30.3467 0.610796 6.49736 84.3985
12196673 11.072 12.9664 30.1511 30.2785 0.598386 6.46242 84.4681
12196683 11.072 12.9664 30.1511 30.2785 0.598386 6.46242 84.4681
12196693 11.0368 12.9204 30.161 30.2493 0.584316 6.48113 84.3674
12196704 11.0984 12.9112 30.1413 30.298 0.583023 6.47072 84.4489
12196728 11.0808 12.9019 30.1314 30.2883 0.585863 6.47556 84.4025
12196734 11.0632 12.8467 30.1314 30.2883 0.575212 6.49412 84.3296
12196751 11.0632 12.8467 30.1314 30.2883 0.575212 6.49412 84.3296
12196754 11.0104 12.9112 30.2003 30.2688 0.583363 6.49615 84.3906
12196776 11.028 12.8006 30.1807 30.3467 0.574562 6.52569 84.356
12196785 11.0456 12.773 30.3086 30.3759 0.530964 6.54401 84.5032
12196798 11.0456 12.773 30.3086 30.3759 0.530964 6.54401 84.5032
12196804 10.9839 12.8099 30.2397 30.4441 0.600848 6.55026 84.4776
12196814 10.9927 12.773 30.2988 30.4441 0.569651 6.56332 84.5087
12196824 10.9927 12.773 30.2988 30.4441 0.569651 6.56332 84.5087
12196834 11.0104 12.773 30.2988 30.5415 0.592452 6.56854 84.6237
12196856 10.9135 12.6257 30.2988 30.5903 0.593308 6.6358 84.4282
12196870 10.8959 12.6625 30.2889 30.5513 0.60102 6.62603 84.3986
12196876 10.8959 12.6625 30.2889 30.5513 0.60102 6.62603 84.3986
12196886 10.843 12.5888 30.2496 30.639 0.633073 6.66328 84.3204
12196895 10.8782 12.5796 30.2397 30.5123 0.586033 6.64307 84.2099
12196917 10.8606 12.5888 30.2397 30.5221 0.596881 6.6462 84.2113
12196927 10.8606 12.6165 30.1807 30.5123 0.620028 6.63227 84.1701
12196941 10.8606 12.6165 30.1807 30.5123 0.620028 6.63227 84.1701
12196947 10.887 12.6349 30.2594 30.5123 0.593388 6.62858 84.2937
12196958 10.887 12.6349 30.2594 30.5123 0.593388 6.62858 84.2937
12196967 10.8782 12.6073 30.3382 30.5221 0.566989 6.6467 84.3457
12196977 10.887 12.6625 30.3283 30.5415 0.588936 6.63123 84.4194
12196997 10.9311 12.8006 30.2791 30.5513 0.633189 6.58072 84.5621
12197008 10.9487 12.7086 30.2003 30.4928 0.608277 6.58608 84.3504
12197018 10.9487 12.7086 30.2003 30.4928 0.608277 6.58608 84.3504
12197028 11.0192 12.8283 30.1905 30.4734 0.618836 6.53458 84.5113
12197038 11.0192 12.8283 30.1905 30.4734 0.618836 6.53458 84.5113
12197049 10.9839 12.8559 30.0625 30.3662 0.645441 6.51291 84.2686
12197058 11.0368 12.9572 30.0232 30.2493 0.636834 6.45781 84.2664
12197071 11.0368 12.9572 30.0232 30.2493 0.636834 6.45781 84.2664
12197080 11.072 13.0677 30.0035 30.2395 0.6612 6.41777 84.3828
12197103 11.0544 13.0217 30.0035 30.1811 0.636381 6.428 84.2606
12197108 11.0808 13.0585 29.9444 30.1908 0.659776 6.4069 84.2746
12197118 11.0808 13.0585 29.9444 30.1908 0.659776 6.4069 84.2746
12197128 11.0632 13.0493 29.9543 30.1421 0.645402 6.40975 84.2089
12197138 11.1337 13.0953 29.9346 30.1226 0.637627 6.37616 84.2862
12197148 11.1337 13.0953 29.9346 30.1226 0.637627 6.37616 84.2862
12197159 11.1425 13.169 29.905 30.1811 0.682062 6.35823 84.3976
12197169 11.1425 13.169 29.905 30.1811 0.682062 6.35823 84.3976
12197180 11.0544 13.0769 29.9247 30.1421 0.665072 6.40195 84.1982
12197188 11.1073 13.1138 29.9543 30.2493 0.681534 6.39314 84.4246
12197209 11.1073 13.0493 29.9149 30.1129 0.635526 6.39155 84.1843
12197219 11.0896 13.1598 29.8657 30.1226 0.690648 6.36393 84.2377
12197229 11.0896 13.1598 29.8657 30.1226 0.690648 6.36393 84.2377
12197240 11.1601 13.1046 29.8263 30.1129 0.662398 6.35503 84.2038
12197250 11.1601 13.1046 29.8263 30.1129 0.662398 6.35503 84.2038
12197259 11.1337 13.1966 29.9739 30.1324 0.65771 6.35554 84.4366
12197270 11.1777 13.2243 29.8952 30.0544 0.65375 6.32133 84.3516
12197279 11.1777 13.2243 29.8952 30.0544 0.65375 6.32133 84.3516
12197290 11.2218 13.2611 29.8263 30.0739 0.677556 6.29581 84.3831
12197299 11.2218 13.2703 29.846 29.996 0.651744 6.28748 84.334
12197312 11.2218 13.2703 29.846 29.996 0.651744 6.28748 84.334
12197320 11.2746 13.3532 29.7377 29.9668 0.684097 6.23901 84.3323
12197333 11.2746 13.3716 29.6786 29.8986 0.687733 6.22113 84.2234
12197340 11.2746 13.3716 29.6786 29.8986 0.687733 6.22113 84.2234
12197352 11.3275 13.3624 29.6983 29.9181 0.668597 6.21422 84.3062
12197374 11.3451 13.3992 29.7082 29.9083 0.668058 6.20054 84.3608
12197382 11.3627 13.3992 29.6885 29.8888 0.663066 6.19202 84.3392
12197400 11.3627 13.3624 29.6589 29.9278 0.672668 6.20227 84.3118
12197412 11.3187 13.3532 29.7082 29.8986 0.659996 6.21775 84.2786
12197422 11.3187 13.3532 29.7082 29.8986 0.659996 6.21775 84.2786
12197432 11.3979 13.39 29.7475 29.8791 0.628933 6.19063 84.4146
12197446 11.3979 13.39 29.7475 29.8791 0.628933 6.19063 84.4146
12197452 11.3627 13.3532 29.6393 29.9083 0.670382 6.20049 84.2635
12197462 11.3539 13.4269 29.6491 29.8693 0.680086 6.18114 84.2992
12197482 11.4332 13.3716 29.6393 29.8109 0.626102 6.16796 84.2549
12197496 11.3891 13.3992 29.6294 29.7817 0.642037 6.16798 84.1994
12197502 11.3891 13.3992 29.6294 29.7817 0.642037 6.16798 84.1994
12197512 11.3715 13.4361 29.6097 29.8011 0.669685 6.16313 84.2185
12197524 11.3715 13.4361 29.6097 29.8011 0.669685 6.16313 84.2185
12197532 11.4155 13.4085 29.6294 29.7719 0.633839 6.15801 84.2253
12197546 11.3979 13.4085 29.6393 29.7914 0.641841 6.16551 84.237
12197552 11.3979 13.4085 29.6393 29.7914 0.641841 6.16551 84.237
12197562 11.5301 13.5282 29.5802 29.7622 0.64576 6.09311 84.4006
12197572 11.4684 13.519 29.5802 29.6355 0.625247 6.09747 84.2031
12197595 11.4508 13.5834 29.5802 29.6355 0.649256 6.08574 84.2499
12197603 11.4508 13.5834 29.5802 29.6355 0.649256 6.08574 84.2499
12197620 11.4948 13.565 29.5605 29.694 0.653407 6.08343 84.3143
12197623 11.486 13.565 29.5211 29.5771 0.634271 6.06907 84.1492
12197647 11.5301 13.6203 29.6097 29.6453 0.629628 6.06088 84.4053
12197653 11.5036 13.6111 29.6589 29.6355 0.617233 6.07395 84.4092
12197663 11.5036 13.6111 29.6589 29.6355 0.617233 6.07395 84.4092
12197675 11.486 13.5466 29.59 29.5673 0.605142 6.07996 84.19
12197683 11.486 13.5466 29.59 29.5673 0.605142 6.07996 84.19
12197696 11.5124 13.565 29.6196 29.5186 0.579351 6.0667 84.2156
12197703 11.5741 13.6203 29.5704 29.5576 0.602868 6.03641 84.3223
12197732 11.5741 13.6203 29.5704 29.5576 0.602868 6.03641 84.3223
12197734 11.5653 13.5834 29.6196 29.392 0.531888 6.03542 84.1603
12197735 11.5477 13.5834 29.5704 29.4115 0.55784 6.03666 84.1129
12197746 11.5477 13.5834 29.5704 29.4115 0.55784 6.03666 84.1129
12197754 11.5565 13.6295 29.6196 29.4504 0.5649 6.03234 84.256
12197774 11.5741 13.5926 29.6097 29.4894 0.56316 6.04024 84.2659
12197784 11.5124 13.6203 29.6491 29.4602 0.56946 6.04982 84.242
12197804 11.6181 13.6479 29.6786 29.5089 0.550598 6.02488 84.4535
12197820 11.5917 13.6479 29.6294 29.4017 0.542444 6.01482 84.2707
12197824 11.5917 13.6479 29.6294 29.4017 0.542444 6.01482 84.2707
12197835 11.6269 13.6571 29.6491 29.4115 0.531307 6.00688 84.3446
12197855 11.6005 13.6755 29.5999 29.4991 0.584963 6.01297 84.3751
12197866 11.5741 13.6663 29.6491 29.4115 0.549984 6.01775 84.301
12197887 11.6005 13.565 29.6491 29.4212 0.515395 6.03748 84.2358
12197896 11.6181 13.5926 29.6393 29.4407 0.526729 6.02721 84.2907
12197909 11.6181 13.5926 29.6393 29.4407 0.526729 6.02721 84.2907
12197917 11.5477 13.5834 29.7377 29.4504 0.518411 6.05859 84.3192
12197937 11.5653 13.5282 29.7082 29.4699 0.511628 6.06693 84.2715
12197947 11.5212 13.5466 29.7771 29.4407 0.500965 6.07754 84.2856
12197957 11.5212 13.5466 29.7771 29.4407 0.500965 6.07754 84.2856
12197967 11.5212 13.4821 29.846 29.4797 0.472721 6.10507 84.329
12197977 11.5301 13.4177 29.8558 29.4602 0.442645 6.11799 84.2637
12197987 11.5301 13.4177 29.8558 29.4602 0.442645 6.11799 84.2637
12197999 11.4772 13.3992 29.9149 29.5381 0.458103 6.15026 84.3294
12198017 11.4155 13.344 29.9346 29.5868 0.468877 6.18679 84.2809
12198027 11.442 13.344 29.9543 29.6355 0.469121 6.18729 84.3757
12198047 11.4067 13.1782 30.0625 29.7037 0.418687 6.25622 84.3512
12198057 11.3451 13.1874 30.1216 29.7817 0.444841 6.28361 84.4358
12198068 11.3451 13.1874 30.1216 29.7817 0.444841 6.28361 84.4358
12198078 11.3451 13.1322 30.1413 29.8206 0.434172 6.30359 84.4392
12198088 11.3451 13.1322 30.1413 29.8206 0.434172 6.30359 84.4392
12198098 11.2746 13.0401 30.22 29.8596 0.416213 6.35675 84.3943
12198109 11.2218 12.994 30.2889 29.9668 0.429168 6.39977 84.4715
12198119 11.2218 12.994 30.2889 29.9668 0.429168 6.39977 84.4715
12198130 11.2306 12.948 30.2791 29.9473 0.410405 6.40623 84.4049
12198138 11.2041 12.8375 30.2988 29.9278 0.374505 6.44103 84.2682
12198148 11.2041 12.8375 30.2988 29.9278 0.374505 6.44103 84.2682
12198158 11.1865 12.8283 30.3382 29.996 0.385177 6.45876 84.349
12198168 11.1865 12.8283 30.3382 29.996 0.385177 6.45876 84.349
12198179 11.1865 12.8559 30.348 29.996 0.390279 6.45274 84.3864
12198193 11.2218 12.9296 30.3578 29.8888 0.36695 6.4152 84.398
12198199 11.2218 12.9296 30.3578 29.8888 0.36695 6.4152 84.398
12198209 11.1953 12.9572 30.2397 29.9181 0.427052 6.40584 84.3103
12198220 11.2306 13.0217 30.2988 29.8206 0.389034 6.37664 84.3717
12198243 11.2306 13.0217 30.2988 29.8206 0.389034 6.37664 84.3717
12198244 11.2746 13.0033 30.2397 29.8693 0.402388 6.36909 84.3869
12198249 11.2746 13.0033 30.2397 29.8693 0.402388 6.36909 84.3869
12198259 11.2306 13.0125 30.2299 29.733 0.381497 6.36294 84.2059
12198269 11.3098 13.0217 30.161 29.7719 0.392446 6.33744 84.2644
12198279 11.3098 13.0217 30.161 29.7719 0.392446 6.33744 84.2644
12198289 11.2922 13.1046 30.161 29.694 0.399202 6.3129 84.2517
12198300 11.3451 13.2059 30.1314 29.655 0.410357 6.26689 84.3374
12198309 11.3451 13.2059 30.1314 29.655 0.410357 6.26689 84.3374
12198322 11.3539 13.2059 30.0822 29.6063 0.408334 6.25451 84.2483
12198341 11.3803 13.2795 30.0527 29.5381 0.410867 6.21912 84.2506
12198350 11.4508 13.3164 30.1019 29.4797 0.368509 6.19116 84.3487
12198367 11.4508 13.3164 30.1019 29.4797 0.368509 6.19116 84.3487
12198375 11.4508 13.3532 29.9936 29.4309 0.397649 6.16548 84.2285
12198380 11.5036 13.39 29.9739 29.4017 0.389877 6.13782 84.2693
12198400 11.5829 13.5098 29.8657 29.3822 0.427854 6.07452 84.3405
12198417 11.5829 13.5098 29.8657 29.3822 0.427854 6.07452 84.3405
12198420 11.5741 13.5098 29.8853 29.2751 0.393313 6.06746 84.2443
12198434 11.5653 13.5466 29.8164 29.2458 0.418985 6.05003 84.1742
12198444 11.5653 13.5466 29.8164 29.2458 0.418985 6.05003 84.1742
12198452 11.5917 13.6018 29.7968 29.2458 0.433072 6.02753 84.2362
12198467 11.5917 13.6295 29.8755 29.2556 0.420213 6.03005 84.3523
12198482 11.6181 13.6755 29.8164 29.2264 0.434953 6.00259 84.3365
12198493 11.5917 13.5466 29.7771 29.1777 0.402963 6.03197 84.093
12198514 11.6093 13.6018 29.7672 29.2361 0.433832 6.01895 84.2145
12198522 11.6093 13.6018 29.7672 29.2361 0.433832 6.01895 84.2145
12198538 11.5653 13.5005 29.7869 29.1387 0.383082 6.047 83.9914
12198543 11.6181 13.5466 29.8558 29.3238 0.413904 6.04929 84.3443
12198563 11.5477 13.4913 29.9149 29.2458 0.378454 6.07871 84.1997
12198573 11.5477 13.3992 29.9543 29.353 0.370997 6.11727 84.2542
12198593 11.5389 13.4085 30.0035 29.4309 0.384286 6.13055 84.3817
12198616 11.486 13.3808 30.1019 29.5576 0.399429 6.17429 84.5263
12198624 11.4948 13.2979 30.0625 29.5479 0.381634 6.18774 84.4031
12198644 11.4155 13.2795 30.1118 29.5966 0.399506 6.22249 84.4034
12198660 11.3979 13.2335 30.1511 29.7135 0.413597 6.25471 84.496
12198664 11.3979 13.2335 30.1511 29.7135 0.413597 6.25471 84.496
12198674 11.4067 13.1782 30.1216 29.694 0.398064 6.26133 84.4005
12198685 11.4067 13.1782 30.1216 29.694 0.398064 6.26133 84.4005
12198694 11.2922 13.0861 30.1905 29.7719 0.407669 6.32862 84.3408
12198709 11.3539 13.123 30.1807 29.7817 0.405642 6.30373 84.4392
12198714 11.3539 13.123 30.1807 29.7817 0.405642 6.30373 84.4392
12198724 11.3098 13.1322 30.1413 29.7232 0.416413 6.30244 84.3065
12198737 11.2922 13.1138 30.2003 29.7719 0.412756 6.32265 84.3783
12198759 11.3098 13.0677 30.2496 29.7524 0.37353 6.33289 84.3796
12198776 11.2746 13.0953 30.1807 29.7817 0.421467 6.33074 84.3323
12198787 11.301 13.0953 30.2299 29.7719 0.395843 6.32811 84.3982
12198806 11.2746 13.0677 30.1216 29.8499 0.4511 6.33867 84.3138
12198815 11.2394 13.0401 30.2003 29.8596 0.432763 6.36366 84.3394
12198827 11.2394 13.0401 30.2003 29.8596 0.432763 6.36366 84.3394
12198835 11.2218 13.0585 30.22 29.8888 0.44601 6.36846 84.3891
12198848 11.2218 13.0585 30.22 29.8888 0.44601 6.36846 84.3891
12198855 11.1865 13.0125 30.1905 29.8888 0.452146 6.38604 84.2783
12198870 11.1689 12.9848 30.1905 29.8888 0.449422 6.39753 84.2331
12198885 11.1953 13.0217 30.2397 29.8986 0.440156 6.3875 84.3553
12198895 11.1513 13.0033 30.2496 29.9278 0.453621 6.40733 84.3319
12198907 11.1513 13.0033 30.2496 29.9278 0.453621 6.40733 84.3319
12198917 11.1513 13.0033 30.22 29.9083 0.456864 6.40233 84.2829
12198937 11.1073 13.0585 30.2693 29.8693 0.460041 6.40053 84.3044
12198949 11.2306 13.0677 30.3382 29.9473 0.427467 6.38193 84.5837
12198957 11.2306 13.0677 30.3382 29.9473 0.427467 6.38193 84.5837
12198967 11.1161 13.1506 30.2693 29.8401 0.475669 6.37196 84.376
12198977 11.1425 13.1506 30.2299 29.9181 0.502211 6.36921 84.441
12199005 11.1601 13.1874 30.1905 29.9181 0.519463 6.35141 84.4561
12199021 11.1513 13.1874 30.1511 29.7719 0.491598 6.3346 84.2618
12199028 11.1513 13.1782 30.1019 29.8304 0.520816 6.33788 84.2618
12199038 11.1513 13.1782 30.1019 29.8304 0.520816 6.33788 84.2618
12199048 11.1601 13.2059 30.1216 29.7914 0.50889 6.32667 84.279
12199064 11.2041 13.2519 30.0133 29.7914 0.541723 6.29273 84.2608
12199068 11.2041 13.2519 30.0133 29.7914 0.541723 6.29273 84.2608
12199078 11.1865 13.2611 29.9936 29.8109 0.561363 6.29483 84.2522
12199088 11.1865 13.2611 29.9936 29.8109 0.561363 6.29483 84.2522
12199098 11.213 13.3164 30.0232 29.7719 0.54912 6.27323 84.3244
12199109 11.2394 13.3072 30.033 29.7427 0.526983 6.26688 84.3222
12199118 11.2394 13.3072 30.033 29.7427 0.526983 6.26688 84.3222
12199128 11.2306 13.39 29.9838 29.7232 0.562951 6.24109 84.3276
12199138 11.3098 13.4269 29.9247 29.733 0.570312 6.20674 84.3944
12199158 11.3098 13.4269 29.9838 29.6648 0.532675 6.20579 84.3853
12199168 11.3098 13.4269 29.9838 29.6648 0.532675 6.20579 84.3853
12199178 11.2746 13.4269 29.8853 29.6258 0.561881 6.20032 84.2126
12199188 11.2834 13.4269 29.846 29.655 0.579637 6.19704 84.2113
12199198 11.2834 13.4269 29.846 29.655 0.579637 6.19704 84.2113
12199208 11.3275 13.5466 29.8558 29.6258 0.589499 6.15387 84.3557
12199218 11.3275 13.5466 29.8558 29.6258 0.589499 6.15387 84.3557
12199228 11.3451 13.4913 29.7968 29.5868 0.57478 6.15302 84.22
12199238 11.3275 13.5742 29.7869 29.7135 0.643736 6.14891 84.4021
12199248 11.3275 13.5742 29.7869 29.7135 0.643736 6.14891 84.4021
12199268 11.3715 13.5466 29.7377 29.6745 0.626075 6.13554 84.3303
12199270 11.3187 13.6018 29.7279 29.6648 0.658289 6.13287 84.3131
12199289 11.3979 13.4913 29.7574 29.7037 0.604546 6.1479 84.3504
12199299 11.3979 13.4913 29.7574 29.7037 0.604546 6.1479 84.3504
12199309 11.3363 13.4913 29.718 29.5966 0.604221 6.14798 84.1422
12199319 11.4244 13.5374 29.7869 29.6258 0.578344 6.12466 84.3744
12199329 11.4244 13.5374 29.7869 29.6258 0.578344 6.12466 84.3744
12199339 11.3098 13.5005 29.6983 29.694 0.649136 6.16048 84.2027
12199350 11.3539 13.4453 29.7475 29.6355 0.58783 6.16233 84.1822
12199359 11.3539 13.4453 29.7475 29.6355 0.58783 6.16233 84.1822
12199371 11.3363 13.5005 29.7574 29.6648 0.614667 6.15697 84.2589
12199379 11.3363 13.5005 29.7574 29.6648 0.614667 6.15697 84.2589
12199390 11.2922 13.5098 29.8066 29.7427 0.638285 6.17904 84.3513
12199399 11.2834 13.4821 29.8361 29.7817 0.635266 6.19534 84.3833
12199411 11.2834 13.4821 29.8361 29.7817 0.635266 6.19534 84.3833
12199419 11.2922 13.39 29.8558 29.8304 0.61408 6.2234 84.3685
12199434 11.2658 13.344 29.9739 29.8693 0.584227 6.25794 84.4531
12199439 11.2658 13.344 29.9739 29.8693 0.584227 6.25794 84.4531
12199449 11.2482 13.3164 29.9936 29.957 0.600946 6.28043 84.5152
12199459 11.2482 13.3164 29.9936 29.957 0.600946 6.28043 84.5152
12199470 11.1865 13.3072 29.9543 29.9181 0.617671 6.29021 84.366
12199480 11.1777 13.2979 29.8853 29.9278 0.641444 6.28864 84.2888
12199490 11.1777 13.2979 29.8853 29.9278 0.641444 6.28864 84.2888
12199503 11.2041 13.2795 29.8558 29.8596 0.617334 6.27651 84.1991
12199511 11.2041 13.3164 29.9444 29.8986 0.612342 6.28041 84.3635
12199521 11.2041 13.3164 29.9444 29.8986 0.612342 6.28041 84.3635
12199532 11.2394 13.3532 29.8952 29.9083 0.630045 6.25816 84.3961
12199541 11.2394 13.3532 29.8952 29.9083 0.630045 6.25816 84.3961
12199554 11.2041 13.3072 29.9444 29.9473 0.623757 6.28776 84.403
12199561 11.1953 13.344 29.9247 29.9181 0.634605 6.27564 84.3821
12199578 11.1953 13.344 29.9247 29.9181 0.634605 6.27564 84.3821
12199580 11.1689 13.2887 29.9149 29.8791 0.618392 6.29121 84.2516
12199591 11.2306 13.2795 29.9247 29.9375 0.610912 6.28503 84.3724
12199602 11.2306 13.2795 29.9247 29.9375 0.610912 6.28503 84.3724
12199611 11.213 13.2887 29.9346 29.8693 0.59621 6.28112 84.3056
12199624 11.213 13.2887 29.9346 29.8693 0.59621 6.28112 84.3056
12199635 11.1601 13.2795 29.8853 29.8499 0.618926 6.28969 84.1748
12199648 11.1777 13.2979 29.8853 29.8304 0.613257 6.27856 84.1914
12199653 11.1777 13.2979 29.8853 29.8304 0.613257 6.27856 84.1914
12199663 11.2041 13.2703 29.9936 29.8109 0.558689 6.28806 84.279
12199670 11.1865 13.2611 30.0035 29.8596 0.572494 6.30088 84.3107
12199693 11.1777 13.2151 29.9838 29.9765 0.601655 6.32476 84.3531
12199710 11.1073 13.2151 30.0232 29.9765 0.611097 6.34663 84.322
12199722 11.1249 13.1874 30.0822 29.9375 0.568548 6.35122 84.3321
12199732 11.1249 13.1874 30.0822 29.9375 0.568548 6.35122 84.3321
12199742 11.1337 13.2059 30.0428 29.996 0.60007 6.34629 84.3784
12199752 11.1073 13.1598 30.161 29.9765 0.553313 6.37473 84.4045
12199772 11.1161 13.123 30.2003 30.0739 0.556266 6.39578 84.5133
12199786 11.1161 13.123 30.2003 30.0739 0.556266 6.39578 84.5133
12199792 11.072 13.1138 30.22 30.0447 0.552514 6.4083 84.4505
12199803 11.0632 12.9848 30.2594 30.0544 0.508717 6.44826 84.3619
12199813 11.0632 12.9848 30.2594 30.0544 0.508717 6.44826 84.3619
12199823 11.0368 12.948 30.2889 30.0739 0.502738 6.46931 84.3476
12199833 11.0544 12.9664 30.3086 30.2103 0.536343 6.47591 84.5398
12199843 11.0544 12.9664 30.3086 30.2103 0.536343 6.47591 84.5398
12199854 11.028 12.9388 30.2988 30.2201 0.542128 6.48964 84.4856
12199863 11.028 12.9388 30.2988 30.2201 0.542128 6.48964 84.4856
12199875 11.0104 12.8283 30.2889 30.2688 0.532532 6.52618 84.3963
12199883 11.0544 12.9019 30.3086 30.2688 0.534606 6.49818 84.5338
12199893 11.0544 12.9019 30.3086 30.2688 0.534606 6.49818 84.5338
12199903 11.0192 12.8743 30.2889 30.1713 0.51496 6.5024 84.3538
12199913 11.0104 12.8651 30.2397 30.2103 0.541162 6.50596 84.3255
12199933 11.0456 12.8743 30.2594 30.1519 0.510243 6.49072 84.3312
12199953 11.0016 12.8743 30.2102 30.0934 0.521505 6.49108 84.1795
12199963 11.0632 12.9388 30.2397 30.0447 0.498465 6.45699 84.2864
12199973 11.0632 12.9388 30.2397 30.0447 0.498465 6.45699 84.2864
12199984 11.0192 12.9388 30.2003 30.0057 0.512391 6.46026 84.164
12199994 11.1161 12.9572 30.2594 30.035 0.479063 6.43987 84.3676
12200004 11.1161 12.9572 30.2594 30.035 0.479063 6.43987 84.3676
12200014 11.0808 12.9572 30.2594 30.0447 0.492537 6.44981 84.3421
12200024 11.0808 12.9572 30.2594 30.0447 0.492537 6.44981 84.3421
12200034 11.072 12.9848 30.2594 30.1032 0.520188 6.45095 84.4194
12200044 11.0808 12.9756 30.1905 30.1129 0.538522 6.44506 84.3598
12200064 11.0896 12.994 30.2299 30.1129 0.52928 6.44213 84.4265
12200074 11.072 12.994 30.2397 30.1324 0.537279 6.44958 84.4382
12200087 11.072 13.0125 30.2397 30.1324 0.542614 6.4449 84.4566
12200096 11.0808 12.9848 30.2693 30.1032 0.514552 6.44971 84.4381
12200106 11.0808 12.9848 30.2693 30.1032 0.514552 6.44971 84.4381
12200125 11.1073 13.0033 30.3283 30.0934 0.491261 6.44332 84.5322
12200137 11.1073 13.0033 30.3283 30.0934 0.491261 6.44332 84.5322
12200147 11.0896 13.0125 30.2594 30.0544 0.508747 6.43452 84.4159
12200159 11.0104 13.0309 30.2397 30.0252 0.535548 6.44502 84.3062
12200165 11.0104 13.0309 30.2397 30.0252 0.535548 6.44502 84.3062
12200175 11.1425 13.0033 30.2496 29.996 0.47611 6.41651 84.3913
12200185 11.1425 13.0033 30.2496 29.996 0.47611 6.41651 84.3913
12200200 11.1249 13.0309 30.2003 29.9083 0.47884 6.40002 84.2644
12200207 11.1161 13.0677 30.1314 29.9862 0.535712 6.39382 84.3015
12200217 11.1161 13.0677 30.1314 29.9862 0.535712 6.39382 84.3015
12200227 11.1249 13.0309 30.1511 29.8596 0.479549 6.39001 84.1665
12200237 11.0896 13.0033 30.1807 29.9862 0.510088 6.42193 84.2598
12200257 11.0896 13.0401 30.2594 30.0155 0.505456 6.42355 84.4046
12200268 11.0896 13.0401 30.2594 30.0155 0.505456 6.42355 84.4046
12200283 11.0544 12.9112 30.3283 30.1032 0.483307 6.48113 84.397
12200290 11.0104 12.9204 30.3677 30.1616 0.504357 6.49986 84.46
12200308 11.0104 12.9204 30.3677 30.1616 0.504357 6.49986 84.46
12200310 10.9575 12.9296 30.4071 30.2298 0.530857 6.52178 84.524
12200317 10.9575 12.8651 30.4563 30.3077 0.519899 6.55093 84.5866
12200335 10.9575 12.8651 30.4563 30.3077 0.519899 6.55093 84.5866
12200338 10.9223 12.773 30.535 30.3272 0.485742 6.59319 84.5576
12200348 10.8694 12.773 30.5252 30.4149 0.530046 6.61442 84.5825
12200360 10.8694 12.7086 30.5252 30.4149 0.511384 6.63091 84.5181
12200368 10.843 12.6441 30.6039 30.4636 0.491035 6.66678 84.5546
12200378 10.843 12.6441 30.6039 30.4636 0.491035 6.66678 84.5546
12200390 10.8166 12.5888 30.5744 30.5026 0.503191 6.68865 84.4824
12200398 10.7725 12.5704 30.5646 30.5221 0.519779 6.70565 84.4296
12200409 10.7725 12.5704 30.5646 30.5221 0.519779 6.70565 84.4296
12200418 10.7373 12.4875 30.6925 30.5415 0.47338 6.75048 84.4589
12200438 10.6845 12.4691 30.6532 30.5805 0.507194 6.76881 84.3873
12200448 10.6933 12.4139 30.7516 30.6585 0.481397 6.79795 84.5172
12200459 10.6933 12.4139 30.7516 30.6585 0.481397 6.79795 84.5172
12200469 10.6316 12.3862 30.8107 30.6974 0.485474 6.83049 84.5259
12200479 10.5788 12.331 30.9189 30.7559 0.4697 6.87449 84.5845
12200489 10.5788 12.331 30.9189 30.7559 0.4697 6.87449 84.5845
12200502 10.5523 12.2941 30.9091 30.8338 0.492537 6.89739 84.5894
12200509 10.5523 12.2941 30.9091 30.8338 0.492537 6.89739 84.5894
12200525 10.5347 12.2205 30.8697 30.7851 0.474218 6.91262 84.41
12200529 10.4731 12.1744 30.978 30.902 0.480729 6.96209 84.5275
12200550 10.5347 12.1284 30.9878 30.9312 0.45431 6.96175 84.5822
12200559 10.5259 12.1744 30.9682 31.0092 0.498816 6.95762 84.6777
12200570 10.5259 12.1744 30.9682 31.0092 0.498816 6.95762 84.6777
12200579 10.4466 12.1468 30.978 31.0384 0.520203 6.98907 84.6098
12200593 10.4466 12.1468 30.978 31.0384 0.520203 6.98907 84.6098
12200599 10.4114 12.0363 30.9977 31.1066 0.512642 7.0353 84.552
12200615 10.385 12.0731 31.0272 31.0189 0.496972 7.02711 84.5042
12200620 10.385 12.0731 31.0272 31.0189 0.496972 7.02711 84.5042
12200630 10.3321 12.0087 31.0469 31.0189 0.488278 7.05958 84.4066
12200641 10.3762 11.9258 30.9977 31.1748 0.511017 7.07975 84.4744
12200650 10.3762 11.9258 30.9977 31.1748 0.511017 7.07975 84.4744
12200662 10.4026 11.9626 31.106 31.1553 0.47543 7.07155 84.6265
12200670 10.4026 11.9626 31.106 31.1553 0.47543 7.07155 84.6265
12200686 10.2881 11.9074 31.106 31.1748 0.499582 7.11774 84.4762
12200690 10.3057 11.935 31.1158 31.2235 0.513414 7.11136 84.58
12200710 10.3145 11.8797 31.165 31.1943 0.47144 7.12538 84.5535
12200720 10.3057 11.8705 31.1946 31.2722 0.485122 7.14008 84.643
12200732 10.3057 11.8705 31.1946 31.2722 0.485122 7.14008 84.643
12200740 10.2705 11.8982 31.2142 31.2819 0.500619 7.1448 84.6648
12200754 10.2705 11.8982 31.2142 31.2819 0.500619 7.1448 84.6648
12200760 10.2793 11.7784 31.2733 31.2722 0.442672 7.17841 84.6032
12200770 10.2705 11.8337 31.2339 31.3794 0.504225 7.17251 84.7175
12200780 10.2705 11.8337 31.2339 31.3794 0.504225 7.17251 84.7175
12200790 10.2088 11.7692 31.2241 31.3891 0.509939 7.20556 84.5912
12200800 10.2088 11.7692 31.2241 31.3891 0.509939 7.20556 84.5912
12200812 10.1736 11.6771 31.2733 31.5547 0.526989 7.25872 84.6787
12200823 10.1472 11.5574 31.3225 31.7203 0.533378 7.31674 84.7474
12200830 10.1472 11.5574 31.3225 31.7203 0.533378 7.31674 84.7474
12200845 10.0943 11.4745 31.3521 31.8178 0.544599 7.36399 84.7387
12200851 10.1031 11.4561 31.3324 31.8957 0.565043 7.37177 84.7873
12200861 10.1031 11.4561 31.3324 31.8957 0.565043 7.37177 84.7873
12200871 10.0415 11.3272 31.3422 31.9542 0.560352 7.42829 84.665
12200880 10.0415 11.3272 31.3422 31.9542 0.560352 7.42829 84.665
12200897 10.015 11.2167 31.2831 31.9347 0.548604 7.45761 84.4495
12200900 9.92694 11.2443 31.3422 32.0224 0.59073 7.48676 84.5358
12200925 9.9886 11.2259 31.3619 31.9931 0.552359 7.47442 84.5695
12200933 9.99741 11.2167 31.3717 32.11 0.577822 7.48579 84.6959
12200950 9.99741 11.2167 31.3717 32.11 0.577822 7.48579 84.6959
12200952 9.99741 11.2167 31.4505 31.9931 0.520304 7.4824 84.6577
12200975 9.92694 11.1891 31.4308 31.8957 0.511298 7.49809 84.4425
12200982 9.94456 11.2627 31.4505 31.886 0.518557 7.47468 84.5437
12201004 10.0238 11.2627 31.3914 31.9249 0.52374 7.45183 84.6029
12201012 9.96218 11.318 31.3619 31.8665 0.550354 7.44568 84.5085
12201026 9.96218 11.318 31.3619 31.8665 0.550354 7.44568 84.5085
12201033 10.0062 11.3088 31.4406 31.9054 0.521892 7.44695 84.6611
12201047 9.95337 11.2443 31.4308 32.0613 0.567204 7.49106 84.6898
12201063 9.99741 11.1614 31.5096 32.2659 0.565252 7.5264 84.9343
12201083 9.9886 11.0601 31.4997 32.2756 0.5445 7.55563 84.8241
12201093 9.91813 11.0325 31.5588 32.3731 0.568041 7.59542 84.8825
12201103 9.91813 11.0325 31.5588 32.3731 0.568041 7.59542 84.8825
12201113 9.92694 10.9957 31.4997 32.5289 0.6174 7.61131 84.9513
12201123 9.85648 10.8299 31.5194 32.5289 0.585052 7.67607 84.7347
12201134 9.85648 10.8299 31.5194 32.5289 0.585052 7.67607 84.7347
12201143 9.87409 10.7562 31.5096 32.5971 0.581124 7.69611 84.737
12201157 9.87409 10.7562 31.5096 32.5971 0.581124 7.69611 84.737
12201163 9.81244 10.6089 31.5096 32.6751 0.579736 7.75891 84.6059
12201173 9.82124 10.5352 31.5391 32.8602 0.600272 7.79466 84.7557
12201183 9.82124 10.5352 31.5391 32.8602 0.600272 7.79466 84.7557
12201193 9.76839 10.4431 31.5785 32.9089 0.591847 7.84116 84.6989
12201203 9.76839 10.4431 31.5785 32.9089 0.591847 7.84116 84.6989
12201213 9.64508 10.3234 31.5785 33.016 0.625542 7.91588 84.563
12201224 9.65389 10.2313 31.6375 33.0648 0.592482 7.94747 84.5875
12201245 9.72435 10.2037 31.6867 33.1719 0.57925 7.94888 84.7867
12201254 9.61865 10.1484 31.7655 33.1622 0.568649 7.99824 84.6947
12201266 9.61865 10.1484 31.7655 33.1622 0.568649 7.99824 84.6947
12201274 9.64508 10.1576 31.7655 33.1817 0.56895 7.99018 84.7499
12201288 9.64508 10.1576 31.7655 33.1817 0.56895 7.99018 84.7499
12201294 9.65389 10.1392 31.6966 33.1817 0.581783 7.98708 84.6714
12201304 9.61865 10.0748 31.7753 33.3375 0.594977 8.03351 84.8063
12201314 9.61865 10.0748 31.7753 33.3375 0.594977 8.03351 84.8063
12201324 9.63627 9.98267 31.795 33.3765 0.568426 8.05856 84.7905
12201335 9.57461 9.97346 31.7753 33.435 0.60716 8.08101 84.7584
12201355 9.57461 9.89978 31.7556 33.5616 0.628343 8.10979 84.7916
12201364 9.57461 9.89978 31.7556 33.5616 0.628343 8.10979 84.7916
12201376 9.51295 9.83532 31.7556 33.6006 0.639662 8.14737 84.7045
12201384 9.58342 9.83532 31.7852 33.698 0.637418 8.13841 84.9019
12201404 9.53938 9.72481 31.7458 33.7857 0.656077 8.18449 84.7957
12201414 9.50414 9.62351 31.8147 33.8344 0.630787 8.23129 84.7767
12201434 9.50414 9.58667 31.8639 33.9318 0.633317 8.25306 84.8866
12201444 9.50414 9.58667 31.8639 33.9318 0.633317 8.25306 84.8866
12201454 9.47772 9.513 31.8344 33.9903 0.645855 8.2828 84.8154
12201466 9.38083 9.46696 31.8246 34 0.667745 8.3221 84.6723
12201475 9.38083 9.46696 31.8246 34 0.667745 8.3221 84.6723
12201484 9.39845 9.43012 31.8836 34 0.633931 8.33205 84.7122
12201494 9.40725 9.34724 31.8541 34 0.616339 8.35014 84.6086
12201504 9.40725 9.34724 31.8541 34 0.616339 8.35014 84.6086
12201514 9.3544 9.35645 31.8836 34 0.626051 8.36451 84.5945
12201524 9.3544 9.35645 31.8836 34 0.626051 8.36451 84.5945
12201534 9.36321 9.30119 31.923 34 0.595537 8.38043 84.5874
12201544 9.36321 9.30119 31.8935 34 0.604475 8.37812 84.5579
12201575 9.32798 9.35645 31.8442 34 0.646001 8.36873 84.5287
12201578 9.32798 9.35645 31.8442 34 0.646001 8.36873 84.5287
12201585 9.36321 9.31961 31.8049 34 0.63664 8.36608 84.4877
12201596 9.40725 9.34724 31.7753 34 0.640202 8.34395 84.5298
12201617 9.41606 9.45775 31.6474 34 0.708202 8.30092 84.5212
12201625 9.42487 9.49458 31.5686 34 0.740075 8.28209 84.4881
12201645 9.43368 9.6143 31.4505 34 0.807744 8.23728 84.4985
12201665 9.47772 9.74323 31.3717 34 0.855207 8.18347 84.5927
12201675 9.53057 9.90899 31.2831 33.961 0.902268 8.11335 84.6837
12201687 9.53057 9.90899 31.2831 33.961 0.902268 8.11335 84.6837
12201697 9.57461 10.0563 31.0961 33.8246 0.949198 8.03469 84.5517
12201707 9.63627 10.2037 31.0666 33.7077 0.947997 7.96574 84.6143
12201717 9.63627 10.2037 31.0666 33.7077 0.947997 7.96574 84.6143
12201730 9.75078 10.3142 30.9977 33.5616 0.92389 7.88681 84.6243
12201737 9.75078 10.3142 30.9977 33.5616 0.92389 7.88681 84.6243
12201751 9.75078 10.4707 30.8992 33.4934 0.979188 7.83045 84.6142
12201757 9.83005 10.5536 30.8008 33.2888 0.950477 7.7609 84.4733
12201767 9.83005 10.5536 30.8008 33.2888 0.950477 7.7609 84.4733
12201777 9.8829 10.7286 30.7024 33.1524 0.975469 7.67939 84.4663
12201787 9.92694 10.9404 30.6039 32.9284 0.988719 7.58266 84.3997
12201803 9.92694 10.9404 30.6039 32.9284 0.988719 7.58266 84.3997
12201807 10.0855 11.1891 30.5449 32.6946 0.962338 7.44815 84.514
12201817 10.0855 11.1891 30.5449 32.6946 0.962338 7.44815 84.514
12201829 10.1824 11.3272 30.5252 32.5777 0.944683 7.37361 84.6124
12201837 10.2 11.4469 30.5449 32.5874 0.97 7.34001 84.7792
12201857 10.244 11.4285 30.3972 32.5387 0.982738 7.31547 84.6084
12201868 10.2969 11.4745 30.3382 32.5679 1.006 7.2867 84.6775
12201878 10.2969 11.4745 30.3382 32.5679 1.006 7.2867 84.6775
12201888 10.3145 11.5482 30.2889 32.412 0.992388 7.24393 84.5637
12201898 10.3145 11.5482 30.2889 32.412 0.992388 7.24393 84.5637
12201908 10.3145 11.585 30.1708 32.2464 0.992134 7.20812 84.3168
12201919 10.4026 11.7416 30.1019 32.1003 0.989193 7.12384 84.3464
12201928 10.4026 11.7416 30.1019 32.1003 0.989193 7.12384 84.3464
12201938 10.4554 11.9258 29.905 31.7983 1.00006 7.01474 84.0845
12201948 10.5259 12.1836 29.9247 31.584 0.984633 6.91046 84.2182
12201958 10.5259 12.1836 29.9247 31.584 0.984633 6.91046 84.2182
12201969 10.5788 12.3126 29.8361 31.4963 1.00742 6.84624 84.2237
12201979 10.5788 12.3126 29.8361 31.4963 1.00742 6.84624 84.2237
12201988 10.5611 12.4139 29.7672 31.4378 1.04637 6.81219 84.1801
12202000 10.6845 12.5612 29.8558 31.4183 1.0173 6.74903 84.5198
12202008 10.6845 12.5612 29.8558 31.4183 1.0173 6.74903 84.5198
12202022 10.7373 12.6441 29.7672 31.3404 1.02971 6.69783 84.489
12202028 10.7373 12.727 29.7574 31.1845 1.01202 6.66023 84.4062
12202038 10.7373 12.727 29.7574 31.1845 1.01202 6.66023 84.4062
12202048 10.843 12.8283 29.7279 31.1066 0.995204 6.59656 84.5057
12202058 10.843 12.8283 29.7279 31.1066 0.995204 6.59656 84.5057
12202071 10.8166 12.8559 29.5802 31.0676 1.04564 6.57766 84.3203
12202078 10.8959 12.8283 29.6885 30.9994 0.96058 6.56845 84.412
12202088 10.8959 12.8283 29.6885 30.9994 0.96058 6.56845 84.412
12202099 10.9487 12.8467 29.5999 31.0287 0.985134 6.54432 84.4239
12202109 10.9135 12.8375 29.6294 30.9994 0.975955 6.5557 84.3798
12202121 10.9135 12.8375 29.6294 30.9994 0.975955 6.5557 84.3798
12202129 10.9751 12.9296 29.6393 30.941 0.963533 6.51161 84.4849
12202146 10.9751 12.9296 29.6393 30.941 0.963533 6.51161 84.4849
12202149 11.0544 12.8927 29.5802 30.8533 0.921845 6.48603 84.3806
12202159 11.1425 13.0401 29.4621 30.7364 0.93976 6.40237 84.381
12202172 11.1425 13.0401 29.4621 30.7364 0.93976 6.40237 84.381
12202180 11.2394 13.0953 29.3341 30.5805 0.920591 6.33475 84.2493
12202194 11.3539 13.1506 29.3046 30.4246 0.86568 6.27268 84.2337
12202216 11.5036 13.2335 29.1471 30.2493 0.841537 6.17934 84.1335
12202229 11.6093 13.2519 29.1372 30.1226 0.781009 6.13377 84.1211
12202240 11.7679 13.3348 28.9699 29.9862 0.768286 6.04104 84.0588
12202250 11.7679 13.3348 28.9699 29.9862 0.768286 6.04104 84.0588
12202262 11.9705 13.4269 28.8124 29.8888 0.752938 5.94015 84.0985
12202270 12.1466 13.4913 28.7238 29.7817 0.713831 5.85919 84.1434
12202286 12.1466 13.4913 28.7238 29.7817 0.713831 5.85919 84.1434
12202290 12.3668 13.5926 28.586 29.6355 0.675729 5.74869 84.181
12202300 12.3668 13.5926 28.586 29.6355 0.675729 5.74869 84.181
12202310 12.5078 13.6479 28.4876 29.5186 0.644943 5.67665 84.1618
12202320 12.6487 13.6387 28.3596 29.4407 0.615752 5.62143 84.0877
12202332 12.6487 13.6387 28.3596 29.4407 0.615752 5.62143 84.0877
12202340 12.7808 13.7124 28.3005 29.2653 0.563988 5.5448 84.059
12202355 12.8161 13.7124 28.2415 29.1289 0.531524 5.51414 83.8988
12202360 12.8161 13.7952 28.2415 29.1289 0.555673 5.4939 83.9817
12202371 12.9658 13.7768 28.1726 29.0218 0.494489 5.44189 83.937
12202380 12.9658 13.7768 28.1726 29.0218 0.494489 5.44189 83.937
12202392 13.001 13.8873 28.143 28.9438 0.502264 5.39418 83.9752
12202400 13.1067 13.8689 28.1627 28.8854 0.441796 5.36856 84.0237
12202410 13.1067 13.8689 28.1627 28.8854 0.441796 5.36856 84.0237
12202424 13.186 13.9334 28.1135 28.8367 0.437298 5.32252 84.0695
12202430 13.2389 13.9334 28.0347 28.7587 0.422347 5.29167 83.9657
12202441 13.2389 13.8781 28.0347 28.7587 0.406161 5.30503 83.9105
12202450 13.3446 13.9702 28.0151 28.7295 0.398558 5.25161 84.0593
12202471 13.3446 14.007 28.0446 28.6126 0.366184 5.23259 84.0088
12202480 13.3446 13.9242 28.1036 28.6711 0.341198 5.26621 84.0434
12202493 13.3446 13.9242 28.1036 28.6711 0.341198 5.26621 84.0434
12202502 13.3358 13.9518 28.143 28.6029 0.320074 5.25833 84.0334
12202517 13.3358 13.9518 28.143 28.6029 0.320074 5.25833 84.0334
12202522 13.3005 13.8781 28.1726 28.6029 0.300136 5.28803 83.9541
12202532 13.3269 13.9334 28.271 28.5834 0.273085 5.27745 84.1147
12202552 13.2829 13.9334 28.2316 28.5347 0.283846 5.27788 83.9826
12202567 13.3358 13.9242 28.2513 28.5347 0.259316 5.26963 84.0459
12202572 13.3358 13.9242 28.2513 28.5347 0.259316 5.26963 84.0459
12202582 13.3269 14.0163 28.2513 28.4957 0.277591 5.24505 84.0902
12202593 13.3269 14.0163 28.2513 28.4957 0.277591 5.24505 84.0902
12202602 13.3093 13.9426 28.2907 28.408 0.223523 5.26145 83.9506
12202616 13.2741 14.0531 28.3202 28.3885 0.252071 5.24446 84.0359
12202622 13.2741 14.0531 28.3202 28.3885 0.252071 5.24446 84.0359
12202632 13.2477 13.9978 28.3399 28.3496 0.226319 5.26193 83.935
12202642 13.2653 14.0255 28.3793 28.3885 0.228843 5.2601 84.0585
12202652 13.2653 14.0255 28.3793 28.3885 0.228843 5.2601 84.0585
12202663 13.3446 14.0807 28.3202 28.3009 0.213221 5.21066 84.0463
12202687 13.3358 14.0439 28.2611 28.3203 0.228474 5.21703 83.9611
12202691 13.4238 14.0715 28.2611 28.2521 0.190061 5.18124 84.0086
12202703 13.4238 14.0715 28.2611 28.2521 0.190061 5.18124 84.0086
12202713 13.4326 14.1268 28.2119 28.1937 0.20124 5.15326 83.965
12202723 13.4679 14.2189 28.0741 28.1547 0.247747 5.10193 83.9156
12202734 13.4679 14.2189 28.0741 28.1547 0.247747 5.10193 83.9156
12202743 13.4943 14.2096 28.1233 28.0573 0.193515 5.09212 83.8846
12202759 13.4943 14.2096 28.1233 28.0573 0.193515 5.09212 83.8846
12202763 13.4679 14.2189 28.0938 28.1352 0.236076 5.10196 83.9158
12202773 13.5119 14.2741 28.1233 28.1255 0.227395 5.08054 84.0349
12202783 13.5119 14.2741 28.1233 28.1255 0.227395 5.08054 84.0349
12202793 13.5031 14.2096 28.1135 28.1158 0.211099 5.09575 83.942
12202807 13.4591 14.1544 28.1529 28.1255 0.199053 5.12533 83.8918
12202813 13.4591 14.1544 28.1529 28.1255 0.199053 5.12533 83.8918
12202823 13.4326 14.1452 28.2021 28.2327 0.221133 5.15225 84.0126
12202855 13.371 14.1083 28.271 28.3009 0.228202 5.19193 84.0512
12202856 13.2212 14.0439 28.3399 28.408 0.265068 5.26397 84.013
12202863 13.2212 14.0439 28.3399 28.408 0.265068 5.26397 84.013
12202876 13.0715 14.0163 28.4383 28.486 0.295308 5.32719 84.012
12202884 12.9218 13.9057 28.5663 28.6321 0.312337 5.4217 84.0259
12202904 12.8073 13.8965 28.6943 28.7198 0.331315 5.47629 84.1178
12202924 12.6135 13.8321 28.8419 28.8854 0.374842 5.57456 84.1729
12202935 12.4902 13.7124 28.9699 29.1095 0.403932 5.67326 84.2819
12202945 12.4902 13.7124 28.9699 29.1095 0.403932 5.67326 84.2819
12202955 12.3845 13.7676 28.9797 29.2264 0.482994 5.69963 84.3582
12202965 12.3492 13.7031 29.0486 29.2848 0.471076 5.73812 84.3858
12202975 12.3492 13.7031 29.0486 29.2848 0.471076 5.73812 84.3858
12202986 12.3228 13.7676 28.9797 29.2946 0.521436 5.72228 84.3647
12203007 12.2699 13.6571 28.9502 29.2556 0.502935 5.75496 84.1328
12203017 12.2876 13.7768 28.8911 29.3725 0.584206 5.7275 84.328
12203035 12.2523 13.7124 28.8616 29.3238 0.57106 5.74344 84.1501
12203045 12.2435 13.7124 28.8715 29.3822 0.587702 5.75311 84.2096
12203057 12.2435 13.7124 28.8715 29.3822 0.587702 5.75311 84.2096
12203067 12.1819 13.7124 28.8813 29.4602 0.626031 5.77794 84.2357
12203087 12.1202 13.6479 28.8419 29.5089 0.652245 5.81012 84.1189
12203097 12.085 13.6203 28.8715 29.5868 0.668535 5.83739 84.1635
12203107 12.085 13.6203 28.8715 29.5868 0.668535 5.83739 84.1635
12203118 12.0145 13.565 28.901 29.7037 0.698838 5.88445 84.1842
12203127 11.9176 13.5005 29.0191 29.7719 0.693434 5.94464 84.2092
12203137 11.9176 13.5005 29.0191 29.7719 0.693434 5.94464 84.2092
12203147 11.8648 13.4269 29.088 29.9375 0.715044 6.00125 84.3172
12203167 11.7591 13.2335 29.1372 30.0837 0.718665 6.09672 84.2134
12203177 11.6269 13.1138 29.275 30.2883 0.741372 6.1959 84.304
12203188 11.6269 13.1138 29.275 30.2883 0.741372 6.1959 84.304
12203198 11.4684 13.0677 29.3341 30.4539 0.806141 6.27078 84.3241
12203208 11.3891 12.9296 29.4818 30.6585 0.804284 6.36194 84.4589
12203220 11.3891 12.9296 29.4818 30.6585 0.804284 6.36194 84.4589
12203228 11.2834 12.8099 29.5605 30.7754 0.811711 6.43899 84.4291
12203243 11.2834 12.8099 29.6589 30.7754 0.781652 6.44896 84.5276
12203248 11.1513 12.6901 29.6589 30.8923 0.821209 6.52482 84.3926
12203258 11.0368 12.6165 29.7869 31.0287 0.835046 6.59929 84.4688
12203278 11.0016 12.5704 29.7475 31.1261 0.872576 6.62586 84.4456
12203289 10.8959 12.4875 29.8657 31.1163 0.842276 6.68496 84.3654
12203299 10.8959 12.4875 29.8657 31.1163 0.842276 6.68496 84.3654
12203312 10.8606 12.4507 29.8853 31.1748 0.853226 6.71118 84.3715
12203319 10.8606 12.4231 29.8657 31.204 0.85972 6.71923 84.3534
12203334 10.8606 12.4231 29.8657 31.204 0.85972 6.71923 84.3534
12203339 10.8782 12.4415 29.8164 31.2722 0.894168 6.71182 84.4084
12203349 10.8782 12.4415 29.8164 31.2722 0.894168 6.71182 84.4084
12203360 10.887 12.4783 29.7574 31.2235 0.906205 6.68948 84.3463
12203369 10.9223 12.552 29.6786 31.1845 0.929487 6.64987 84.3374
12203380 10.9223 12.552 29.6786 31.1845 0.929487 6.64987 84.3374
12203389 10.9839 12.5888 29.6097 31.165 0.936666 6.61584 84.3475
12203403 10.9399 12.6165 29.6196 31.1748 0.957841 6.62199 84.3507
12203419 11.0368 12.6717 29.5408 31.1261 0.954124 6.57035 84.3754
12203430 11.0368 12.6717 29.5408 31.1261 0.954124 6.57035 84.3754
12203440 11.0368 12.6994 29.4621 31.1553 0.99456 6.55833 84.3535
12203451 11.028 12.7362 29.4424 31.1163 1.00274 6.5453 84.3229
12203477 11.0808 12.7822 29.4129 31.1748 1.02525 6.52296 84.4507
12203489 11.1249 12.8099 29.2455 31.0384 1.03239 6.47407 84.2186
12203501 11.1953 12.8835 29.2554 31.0774 1.03961 6.44233 84.4116
12203520 11.257 12.9756 29.0979 30.941 1.05663 6.37337 84.2715
12203535 11.3891 13.0401 29.0093 30.8436 1.0338 6.30448 84.282
12203542 11.3891 13.0401 29.0093 30.8436 1.0338 6.30448 84.282
12203552 11.442 13.0769 28.9994 30.863 1.03654 6.28283 84.3813
12203562 11.4596 13.1414 28.8715 30.7461 1.05573 6.23674 84.2186
12203572 11.4596 13.1414 28.8715 30.7461 1.05573 6.23674 84.2186
12203582 11.5124 13.1782 28.9305 30.7754 1.03992 6.22334 84.3965
12203593 11.5124 13.1782 28.9305 30.7754 1.03992 6.22334 84.3965
12203602 11.4596 13.2519 28.8518 30.6682 1.07108 6.19872 84.2314
12203615 11.5565 13.2335 28.8124 30.6292 1.03697 6.17078 84.2316
12203622 11.5565 13.2335 28.8124 30.6292 1.03697 6.17078 84.2316
12203641 11.5389 13.3348 28.8222 30.6682 1.07921 6.15489 84.3641
12203644 11.5389 13.2611 28.7829 30.5903 1.04833 6.16108 84.1731
12203652 11.5389 13.2611 28.7829 30.5903 1.04833 6.16108 84.1731
12203667 11.6269 13.2887 28.8025 30.6487 1.03949 6.14025 84.3669
12203672 11.6269 13.2887 28.8025 30.6487 1.03949 6.14025 84.3669
12203682 11.5301 13.2703 28.773 30.5805 1.05395 6.15892 84.1539
12203694 11.6446 13.2887 28.9502 30.5221 0.952554 6.13804 84.4056
12203702 11.6446 13.2887 28.9502 30.5221 0.952554 6.13804 84.4056
12203720 11.6005 13.3348 28.9502 30.5221 0.979215 6.13754 84.4076
12203723 11.6005 13.3348 28.9502 30.5221 0.979215 6.13754 84.4076
12203732 11.5389 13.2335 29.0093 30.4734 0.937244 6.17951 84.255
12203749 11.5653 13.2887 29.088 30.5026 0.929016 6.1703 84.4446
12203753 11.5653 13.2887 29.088 30.5026 0.929016 6.1703 84.4446
12203763 11.4596 13.2335 29.0782 30.4831 0.94322 6.20767 84.2543
12203776 11.442 13.169 29.1668 30.5318 0.916886 6.24264 84.3096
12203793 11.3715 13.123 29.1766 30.5221 0.919589 6.27204 84.1931
12203803 11.3715 13.123 29.1766 30.5221 0.919589 6.27204 84.1931
12203813 11.2922 13.0585 29.2947 30.639 0.922626 6.33266 84.2844
12203831 11.2658 12.948 29.531 30.7364 0.85451 6.40147 84.4812
12203833 11.2658 12.948 29.531 30.7364 0.85451 6.40147 84.4812
12203846 11.1073 12.8375 29.6491 30.8728 0.874284 6.49555 84.4666
12203857 11.0632 12.7178 29.8066 31.0287 0.849903 6.56865 84.6162
12203863 11.0632 12.7178 29.8066 31.0287 0.849903 6.56865 84.6162
12203873 11.0104 12.6073 29.8952 31.1943 0.854701 6.63554 84.7071
12203883 11.0104 12.6073 29.8952 31.1943 0.854701 6.63554 84.7071
12203893 10.9047 12.4415 29.9739 31.2819 0.840652 6.72142 84.6021
12203903 10.8254 12.2665 30.1216 31.4865 0.828236 6.82105 84.7
12203913 10.8254 12.2665 30.1216 31.4865 0.828236 6.82105 84.7
12203927 10.7109 12.1468 30.2003 31.5255 0.81608 6.89286 84.5835
12203933 10.6668 11.9534 30.3086 31.5645 0.752255 6.96851 84.4933
12203953 10.5699 11.8797 30.3972 31.6521 0.758803 7.02961 84.4991
12203980 10.5083 11.8061 30.5252 31.6619 0.720251 7.07788 84.5014
12203985 10.4907 11.76 30.6039 31.7496 0.713611 7.11007 84.6042
12203994 10.4907 11.76 30.6039 31.7496 0.713611 7.11007 84.6042
12204009 10.4202 11.6771 30.6827 31.7691 0.69288 7.15934 84.5491
12204014 10.4466 11.6771 30.7122 31.7203 0.661877 7.15064 84.5563
12204024 10.4466 11.6771 30.7122 31.7203 0.661877 7.15064 84.5563
12204034 10.4202 11.6035 30.7516 31.7203 0.636721 7.18054 84.4956
12204060 10.3409 11.6035 30.7614 31.7009 0.652188 7.20048 84.4067
12204064 10.3938 11.5482 30.7516 31.6229 0.600642 7.19299 84.3165
12204076 10.3938 11.5482 30.7516 31.6229 0.600642 7.19299 84.3165
12204084 10.3762 11.6127 30.8205 31.6716 0.617787 7.19155 84.481
12204099 10.385 11.6403 30.7811 31.7203 0.649071 7.18285 84.5267
12204104 10.385 11.6403 30.7811 31.7203 0.649071 7.18285 84.5267
12204114 10.4378 11.6863 30.7516 31.7009 0.649646 7.15238 84.5766
12204132 10.4378 11.6863 30.7516 31.7009 0.649646 7.15238 84.5766
12204134 10.3497 11.6219 30.7614 31.7496 0.668857 7.19782 84.4826
12204146 10.429 11.6495 30.8303 31.7788 0.640279 7.17884 84.6877
12204156 10.429 11.6495 30.8303 31.7788 0.640279 7.17884 84.6877
12204167 10.4114 11.6219 30.7713 31.7398 0.644347 7.18164 84.5444
12204176 10.3938 11.585 30.7811 31.7203 0.630468 7.19505 84.4803
12204190 10.3938 11.585 30.7811 31.7203 0.630468 7.19505 84.4803
12204195 10.385 11.7048 30.7516 31.7009 0.670984 7.1614 84.5422
12204206 10.385 11.7048 30.7516 31.7009 0.670984 7.1614 84.5422
12204216 10.385 11.5758 30.6827 31.6619 0.643516 7.18526 84.3054
12204226 10.4642 11.7416 30.6532 31.5352 0.639689 7.10639 84.3943
12204236 10.4642 11.7416 30.6532 31.5352 0.639689 7.10639 84.3943
12204246 10.4995 11.8245 30.6532 31.4768 0.636038 7.07001 84.4539
12204260 10.5523 11.8982 30.6236 31.3404 0.610855 7.02134 84.4145
12204267 10.5523 11.8982 30.6236 31.3404 0.610855 7.02134 84.4145
12204275 10.6404 11.9534 30.6138 31.3599 0.608718 6.98493 84.5675
12204295 10.5964 11.9534 30.5153 31.204 0.606897 6.97223 84.2691
12204307 10.6933 12.1284 30.5153 31.1943 0.625226 6.90064 84.5313
12204330 10.7461 12.2389 30.3677 31.0774 0.652152 6.83288 84.4301
12204337 10.8078 12.2849 30.2889 30.9897 0.645337 6.7889 84.3713
12204357 10.8959 12.4231 30.2299 30.8728 0.642645 6.7134 84.4216
12204368 10.8959 12.4231 30.2299 30.8728 0.642645 6.7134 84.4216
12204377 10.8959 12.4599 30.161 30.8338 0.662977 6.69332 84.3505
12204387 10.9399 12.5152 30.1216 30.8241 0.674683 6.66296 84.4007
12204399 10.9399 12.5152 30.1216 30.8241 0.674683 6.66296 84.4007
12204407 10.9399 12.5888 30.0822 30.8338 0.710681 6.64114 84.4448
12204421 10.9311 12.552 30.0822 30.8241 0.699958 6.65188 84.3894
12204437 10.9223 12.552 30.033 30.8923 0.737262 6.65602 84.3996
12204449 10.9223 12.552 30.033 30.8923 0.737262 6.65602 84.3996
12204458 10.9223 12.5336 30.0625 30.8533 0.711751 6.65981 84.3717
12204470 10.9399 12.4323 30.0724 30.9994 0.716284 6.69668 84.444
12204478 10.9399 12.4323 30.0724 30.9994 0.716284 6.69668 84.444
12204490 10.9399 12.4323 30.1216 31.0189 0.706905 6.70343 84.5127
12204498 10.9311 12.3954 30.1216 31.0481 0.707397 6.71802 84.4963
12204518 10.887 12.377 30.1019 31.1066 0.738305 6.73788 84.4726
12204528 10.887 12.377 30.1019 31.1066 0.738305 6.73788 84.4726
12204539 10.8166 12.2757 30.1807 31.0287 0.684193 6.78226 84.3016
12204548 10.8254 12.3126 30.161 31.0871 0.714964 6.77425 84.386
12204568 10.8606 12.331 30.161 31.0968 0.712329 6.76136 84.4494
12204586 10.8254 12.2941 30.1807 31.0676 0.698051 6.77902 84.3678
12204589 10.8254 12.2941 30.1807 31.0676 0.698051 6.77902 84.3678
12204599 10.9575 12.3862 30.2102 31.0287 0.664201 6.72037 84.5826
12204619 10.9223 12.3862 30.2003 30.941 0.652632 6.71987 84.4498
12204633 10.9575 12.4783 30.1118 30.8825 0.678545 6.6727 84.4301
12204639 10.9575 12.4783 30.1118 30.8825 0.678545 6.6727 84.4301
12204655 11.028 12.5612 30.0428 30.7364 0.659838 6.61208 84.3684
12204660 11.0808 12.6073 29.9247 30.6292 0.662062 6.56428 84.242
12204669 11.0808 12.6073 29.9247 30.6292 0.662062 6.56428 84.242
12204679 11.0896 12.6625 29.9247 30.5318 0.64719 6.53811 84.2087
12204690 11.0896 12.6625 29.9247 30.5318 0.64719 6.53811 84.2087
12204703 11.0808 12.6441 29.9247 30.4734 0.627619 6.5392 84.123
12204709 11.1337 12.7546 29.9149 30.5026 0.654945 6.49941 84.3057
12204729 11.1601 12.7546 29.9149 30.4928 0.644091 6.49169 84.3224
12204748 11.1073 12.7822 29.8952 30.5221 0.68258 6.49908 84.3067
12204755 11.1073 12.7822 29.8952 30.5221 0.68258 6.49908 84.3067
12204773 11.2218 12.7546 29.8755 30.4734 0.63169 6.47004 84.3252
12204774 11.2218 12.7546 29.8755 30.4734 0.63169 6.47004 84.3252
12204780 11.1953 12.8559 29.8853 30.5805 0.696823 6.46283 84.5171
12204793 11.2746 12.9019 29.8361 30.4831 0.672904 6.41618 84.4958
12204800 11.2746 12.9019 29.8361 30.4831 0.672904 6.41618 84.4958
12204811 11.2482 12.9019 29.7475 30.4149 0.688249 6.40693 84.3126
12204820 11.257 12.8927 29.718 30.3954 0.686288 6.40203 84.2632
12204831 11.257 12.8927 29.718 30.3954 0.686288 6.40203 84.2632
12204841 11.2394 12.9204 29.7279 30.337 0.679761 6.39452 84.2246
12204864 11.301 12.9388 29.8066 30.3662 0.650772 6.38524 84.4126
12204872 11.2482 12.8927 29.7771 30.3857 0.668171 6.4093 84.3037
12204887 11.2482 12.8927 29.7771 30.3857 0.668171 6.4093 84.3037
12204892 11.3098 12.8743 29.7968 30.4052 0.64373 6.40231 84.3861
12204902 11.2394 12.8559 29.846 30.3662 0.633612 6.42592 84.3074
12204922 11.2746 12.8467 29.8952 30.3564 0.602487 6.42333 84.3729
12204933 11.2746 12.8467 29.8952 30.3564 0.602487 6.42333 84.3729
12204942 11.1425 12.773 29.9247 30.4344 0.634888 6.48658 84.2746
12204956 11.1865 12.773 29.9444 30.4344 0.615516 6.47735 84.3383
12204972 11.2218 12.7914 29.9149 30.4344 0.619105 6.4607 84.3625
12204986 11.1425 12.7178 29.9346 30.4636 0.624365 6.50462 84.2584
12205002 11.1777 12.7178 29.9346 30.5123 0.627738 6.50054 84.3424
12205024 11.1425 12.5888 30.033 30.561 0.585347 6.55723 84.3254
12205033 11.1601 12.6441 30.0428 30.6097 0.607082 6.54448 84.4568
12205046 11.1601 12.6441 30.0428 30.6097 0.607082 6.54448 84.4568
12205053 11.1337 12.5704 30.0428 30.7072 0.621954 6.57977 84.4541
12205066 11.1161 12.5244 30.1019 30.7754 0.615779 6.6087 84.5177
12205073 11.1161 12.5244 30.1019 30.7754 0.615779 6.6087 84.5177
12205083 11.1161 12.4875 30.0428 30.7656 0.620246 6.61129 84.4121
12205093 11.1161 12.4875 30.0428 30.7656 0.620246 6.61129 84.4121
12205106 11.0544 12.4323 30.0625 30.7364 0.608566 6.64032 84.2856
12205123 11.0368 12.4231 30.1314 30.7948 0.607234 6.65982 84.3862
12205139 11.0896 12.4875 30.0625 30.7851 0.627914 6.62195 84.4248
12205143 11.0632 12.4967 30.0527 30.7559 0.63315 6.62248 84.3685
12205153 11.0632 12.4967 30.0527 30.7559 0.63315 6.62248 84.3685
12205166 11.0896 12.4507 30.0428 30.7948 0.626066 6.6304 84.378
12205183 11.0896 12.4691 29.9543 30.7169 0.6358 6.60913 84.2299
12205194 11.1689 12.5796 29.8853 30.6779 0.653321 6.54975 84.3118
12205207 11.1689 12.5796 29.8853 30.6779 0.653321 6.54975 84.3118
12205215 11.2218 12.7086 29.7968 30.6292 0.68734 6.48955 84.3563
12205224 11.2922 12.7822 29.6688 30.561 0.706443 6.43301 84.3043
12205238 11.2922 12.7822 29.6688 30.561 0.706443 6.43301 84.3043
12205244 11.2922 12.8835 29.5802 30.5708 0.76544 6.39925 84.3267
12205254 11.2922 12.8835 29.5802 30.5708 0.76544 6.39925 84.3267
12205264 11.3627 12.8927 29.5014 30.4636 0.739789 6.36003 84.2205
12205274 11.3803 12.9388 29.4325 30.4246 0.757506 6.3328 84.1763
12205286 11.3803 12.9388 29.4325 30.4246 0.757506 6.3328 84.1763
12205294 11.5124 12.994 29.3833 30.4246 0.748071 6.28033 84.3144
12205311 11.4508 13.0125 29.4129 30.4052 0.757578 6.29229 84.2812
12205324 11.4948 13.0401 29.3735 30.4052 0.764096 6.27012 84.3135
12205336 11.4948 13.0401 29.3735 30.4052 0.764096 6.27012 84.3135
12205345 11.442 12.9664 29.4129 30.4441 0.758234 6.31017 84.2654
12205358 11.5212 13.0033 29.4621 30.4246 0.724006 6.28392 84.4112
12205366 11.5212 13.0033 29.4621 30.4246 0.724006 6.28392 84.4112
12205376 11.486 13.0401 29.4621 30.3564 0.725728 6.27647 84.3446
12205386 11.442 12.9204 29.5605 30.3662 0.677454 6.329 84.289
12205395 11.442 12.9204 29.5605 30.3662 0.677454 6.329 84.289
12205412 11.4684 12.948 29.6393 30.4149 0.667465 6.32844 84.4706
12205429 11.3715 12.9019 29.7082 30.3954 0.657082 6.36965 84.377
12205437 11.3363 12.8099 29.7279 30.4928 0.663346 6.41388 84.3668
12205452 11.3363 12.8099 29.7279 30.4928 0.663346 6.41388 84.3668
12205457 11.3451 12.7362 29.846 30.4928 0.603521 6.44235 84.4201
12205467 11.2834 12.6809 29.9346 30.5805 0.604722 6.48988 84.4794
12205487 11.2218 12.6994 30.0133 30.6585 0.627336 6.51662 84.5929
12205507 11.1513 12.5704 30.161 30.7266 0.586462 6.58897 84.6093
12205523 11.0896 12.4783 30.2889 30.7266 0.539821 6.64094 84.5836
12205528 11.0896 12.4783 30.2889 30.7266 0.539821 6.64094 84.5836
12205538 11.0456 12.4323 30.3775 30.7364 0.515872 6.6737 84.5918
12205549 11.0544 12.3402 30.476 30.863 0.493562 6.71712 84.7336
12205558 11.0544 12.3402 30.476 30.863 0.493562 6.71712 84.7336
12205569 10.9487 12.2757 30.5252 30.7656 0.463659 6.75612 84.5152
12205578 10.9487 12.2757 30.5252 30.7656 0.463659 6.75612 84.5152
12205592 10.8254 12.1744 30.5941 30.7948 0.459123 6.82362 84.3888
12205598 10.8078 12.1192 30.5941 30.7461 0.434169 6.83776 84.2672
12205608 10.8078 12.1192 30.5941 30.7461 0.434169 6.83776 84.2672
12205619 10.7461 12.1008 30.6236 30.7948 0.452697 6.8661 84.2653
12205628 10.6845 12.0639 30.7221 30.863 0.450721 6.9077 84.3335
12205640 10.6845 12.0639 30.7221 30.863 0.450721 6.9077 84.3335
12205648 10.7461 12.0087 30.791 30.863 0.395286 6.91265 84.4088
12205668 10.7285 11.9902 30.8205 30.8143 0.372118 6.92017 84.3536
12205679 10.799 11.981 30.8107 30.902 0.376788 6.91172 84.4927
12205699 10.8342 12.0363 30.7122 30.9312 0.420377 6.88164 84.5139
12205713 10.8166 12.0363 30.7713 30.8728 0.390905 6.88626 84.4969
12205722 10.8166 12.0363 30.7713 30.8728 0.390905 6.88626 84.4969
12205729 10.887 12.1836 30.7024 30.8241 0.419131 6.81863 84.5971
12205749 10.9399 12.1192 30.5941 30.7559 0.397193 6.80452 84.409
12205760 10.8959 12.0915 30.6728 30.7364 0.373012 6.8288 84.3966
12205770 10.8959 12.0915 30.6728 30.7364 0.373012 6.8288 84.3966
12205783 10.9487 12.1376 30.6039 30.7072 0.382748 6.79372 84.3974
12205791 11.0104 12.156 30.5843 30.6974 0.372663 6.77019 84.448
12205801 11.0104 12.156 30.5843 30.6974 0.372663 6.77019 84.448
12205810 11.0632 12.1652 30.5547 30.6195 0.3456 6.74371 84.4026
12205820 11.0632 12.1652 30.5547 30.6195 0.3456 6.74371 84.4026
12205832 11.0368 12.1376 30.6532 30.7072 0.34152 6.77579 84.5347
12205840 11.0632 12.1376 30.6433 30.6779 0.328022 6.76518 84.5221
12205860 10.9927 12.1652 30.5055 30.6779 0.398654 6.76278 84.3414
12205872 11.0016 12.1284 30.5941 30.6585 0.352916 6.77675 84.3825
12205882 11.0016 12.1284 30.5941 30.6585 0.352916 6.77675 84.3825
12205892 10.9135 12.0731 30.6236 30.7364 0.377142 6.82424 84.3466
12205904 10.9223 12.0731 30.5646 30.7364 0.39227 6.81623 84.2964
12205912 10.9223 12.0087 30.5646 30.8241 0.399044 6.84142 84.3196
12205927 10.887 12.0455 30.663 30.8436 0.396439 6.85239 84.4391
12205942 10.8694 12.0455 30.7417 30.8436 0.378069 6.86455 84.5002
12205953 10.7725 12.0823 30.7811 30.8436 0.406083 6.88388 84.4796
12205962 10.7725 12.0823 30.7811 30.8436 0.406083 6.88388 84.4796
12205974 10.8166 12.0547 30.8107 30.8728 0.384444 6.88527 84.5547
12205992 10.7725 11.981 30.8205 30.9215 0.387448 6.92138 84.4956
12206002 10.7637 11.9995 30.8303 30.902 0.386825 6.91797 84.4955
12206012 10.7637 11.9995 30.8303 30.902 0.386825 6.91797 84.4955
12206021 10.6668 11.9902 30.8796 30.8728 0.389954 6.94743 84.4094
12206042 10.6845 11.9718 30.8894 30.9507 0.399035 6.95601 84.4964
12206043 10.6845 11.9718 30.8894 30.9507 0.399035 6.95601 84.4964
12206054 10.658 11.935 30.9682 30.941 0.369748 6.97901 84.5022
12206065 10.5788 11.981 30.978 31.0871 0.446498 7.00243 84.6249
12206073 10.5788 11.981 30.978 31.0871 0.446498 7.00243 84.6249
12206085 10.5876 11.9166 30.9977 31.0968 0.422046 7.01968 84.5987
12206093 10.5876 11.9166 30.9977 31.0968 0.422046 7.01968 84.5987
12206106 10.5523 11.8705 31.0174 31.1456 0.42749 7.0473 84.5858
12206113 10.5083 11.8521 30.9977 31.2332 0.466767 7.06997 84.5913
12206124 10.5083 11.8521 30.9977 31.2332 0.466767 7.06997 84.5913
12206135 10.5083 11.8245 30.9189 31.2819 0.496608 7.07436 84.5337
12206145 10.4642 11.7324 30.9878 31.2722 0.459558 7.11549 84.4567
12206163 10.4642 11.7324 30.9878 31.2722 0.459558 7.11549 84.4567
12206166 10.4907 11.7416 30.9189 31.3599 0.500491 7.10792 84.5111
12206174 10.4907 11.7416 30.9189 31.3599 0.500491 7.10792 84.5111
12206192 10.4114 11.7784 30.9878 31.3599 0.514293 7.12545 84.5376
12206194 10.3762 11.7416 30.9682 31.3696 0.523031 7.14341 84.4556
12206204 10.3762 11.7416 30.9682 31.3696 0.523031 7.14341 84.4556
12206219 10.429 11.7692 31.0272 31.4183 0.51136 7.13235 84.6438
12206224 10.3497 11.7048 30.9977 31.3794 0.514236 7.16365 84.4316
12206235 10.3497 11.7048 30.9977 31.3794 0.514236 7.16365 84.4316
12206246 10.3674 11.7508 31.0272 31.4378 0.530267 7.15512 84.5832
12206255 10.3674 11.7508 31.0272 31.4378 0.530267 7.15512 84.5832
12206270 10.3497 11.6495 31.0666 31.4086 0.485879 7.18725 84.4744
12206275 10.3321 11.6495 31.0567 31.4378 0.502646 7.19367 84.4762
12206287 10.3321 11.6495 31.0567 31.4378 0.502646 7.19367 84.4762
12206295 10.3497 11.714 30.9583 31.4183 0.540105 7.16119 84.4404
12206305 10.3497 11.6863 30.978 31.4281 0.528967 7.17118 84.4422
12206318 10.3497 11.6863 30.978 31.4281 0.528967 7.17118 84.4422
12206325 10.2969 11.7876 30.9878 31.4378 0.574115 7.16028 84.5102
12206342 10.2969 11.7876 30.9878 31.4378 0.574115 7.16028 84.5102
12206345 10.2969 11.76 30.9288 31.4281 0.581196 7.16114 84.4138
12206355 10.2969 11.76 30.9485 31.4768 0.589311 7.16749 84.4822
12206366 10.2969 11.76 30.9485 31.4768 0.589311 7.16749 84.4822
12206375 10.3585 11.8337 30.9288 31.6132 0.637153 7.14287 84.7342
12206391 10.2617 11.76 30.8992 31.584 0.64584 7.1821 84.5049
12206395 10.2617 11.76 30.8992 31.584 0.64584 7.1821 84.5049
12206405 10.2793 11.8245 30.8402 31.6911 0.707787 7.16504 84.6351
12206417 10.2793 11.8245 30.8402 31.6911 0.707787 7.16504 84.6351
12206425 10.2617 11.8429 30.8894 31.7106 0.709066 7.17118 84.7046
12206442 10.244 11.8889 30.8303 31.7009 0.742766 7.15737 84.6642
12206445 10.244 11.8889 30.8303 31.7009 0.742766 7.15737 84.6642
12206457 10.2881 11.9074 30.7221 31.6716 0.759217 7.12826 84.5891
12206467 10.2793 11.9074 30.663 31.6716 0.779903 7.12507 84.5213
12206477 10.2793 11.9074 30.663 31.6521 0.774318 7.12325 84.5018
12206492 10.2528 11.9902 30.6138 31.6327 0.815567 7.10206 84.4895
12206497 10.2528 11.9902 30.6138 31.6327 0.815567 7.10206 84.4895
12206507 10.3057 11.9718 30.5252 31.5352 0.793293 7.07562 84.338
12206517 10.2969 12.0087 30.5843 31.5547 0.794086 7.07567 84.4445
12206527 10.2969 12.0087 30.5843 31.5547 0.794086 7.07567 84.4445
12206540 10.3585 12.0915 30.4366 31.5255 0.83575 7.02126 84.4122
12206547 10.3585 12.0915 30.4366 31.5255 0.83575 7.02126 84.4122
12206567 10.2793 12.0915 30.4464 31.6034 0.879309 7.05023 84.4207
12206568 10.3057 12.0731 30.3874 31.7203 0.917426 7.05359 84.4865
12206577 10.3057 12.0731 30.3874 31.7203 0.917426 7.05359 84.4865
12206592 10.3057 12.1192 30.3382 31.7788 0.962278 7.04244 84.5418
12206597 10.2793 12.11 30.3086 31.8957 1.01006 7.05995 84.5936
12206607 10.2793 12.11 30.3086 31.8957 1.01006 7.05995 84.5936
12206617 10.2793 12.1376 30.3185 31.9639 1.03418 7.06007 84.6992
12206642 10.244 12.0731 30.2791 32.0029 1.04991 7.08603 84.5991
12206647 10.2176 12.0179 30.2693 32.0905 1.07026 7.11463 84.5953
12206657 10.2176 12.0179 30.2693 32.0905 1.07026 7.11463 84.5953
12206666 10.2176 11.9902 30.2693 32.1003 1.0652 7.12277 84.5774
12206676 10.1912 11.9626 30.2397 32.1393 1.08566 7.13779 84.5328
12206693 10.1912 11.9626 30.2397 32.1393 1.08566 7.13779 84.5328
12206698 10.2176 11.9626 30.2988 32.2756 1.09783 7.14902 84.7547
12206718 10.1207 11.8521 30.348 32.4315 1.12531 7.22222 84.7524
12206728 10.1207 11.7324 30.4464 32.5874 1.10519 7.27686 84.8869
12206748 10.0503 11.6311 30.4169 32.6458 1.12391 7.32465 84.7441
12206765 10.0238 11.5114 30.348 32.6166 1.11129 7.35435 84.4998
12206769 10.0238 11.5114 30.348 32.6166 1.11129 7.35435 84.4998
12206779 10.1119 11.5574 30.3578 32.5874 1.08582 7.31716 84.6146
12206789 10.1119 11.5574 30.3578 32.5874 1.08582 7.31716 84.6146
12206799 10.0415 11.493 30.348 32.5289 1.07582 7.34662 84.4113
12206814 10.0503 11.4837 30.4366 32.6264 1.07074 7.36355 84.597
12206819 10.0503 11.4837 30.4366 32.6264 1.07074 7.36355 84.597
12206829 10.0062 11.4469 30.3874 32.5582 1.06977 7.37436 84.3987
12206840 9.97098 11.4285 30.3874 32.6361 1.09752 7.39562 84.423
12206849 9.97098 11.4285 30.3874 32.6361 1.09752 7.39562 84.423
12206865 10.0943 11.4653 30.5055 32.6069 1.02525 7.36124 84.672
12206869 10.0943 11.4653 30.5055 32.6069 1.02525 7.36124 84.672
12206880 9.97098 11.4469 30.4957 32.6069 1.06103 7.39785 84.5204
12206889 10.0591 11.4285 30.5646 32.6361 1.01577 7.38824 84.6882
12206899 10.0591 11.4285 30.5646 32.6361 1.01577 7.38824 84.6882
12206915 9.9886 11.4285 30.6138 32.5484 0.997448 7.40343 84.5793
12206919 10.0326 11.4101 30.6138 32.5484 0.97869 7.39664 84.6049
12206929 10.0326 11.4101 30.6138 32.5484 0.97869 7.39664 84.6049
12206939 10.0855 11.4469 30.5843 32.5971 0.995794 7.37465 84.7138
12206965 9.97979 11.4285 30.6433 32.6069 1.00766 7.41365 84.6585
12206971 10.0238 11.3456 30.6827 32.6946 0.983417 7.4353 84.7467
