4518541 9.03731 11.4653 24.9832 24.745 0.779504 6.24204 70.2308
4518551 9.03731 11.4653 24.9832 24.745 0.779504 6.24204 70.2308
4518561 9.01088 11.539 24.9537 24.706 0.812018 6.2192 70.2096
4518571 9.0285 11.5206 24.9734 24.706 0.791964 6.2219 70.2285
4518591 9.01969 11.5022 25.0521 24.6865 0.753233 6.23753 70.2605
4518611 9.01088 11.493 25.0226 24.6768 0.760749 6.23808 70.2032
4518623 8.99326 11.5298 24.9537 24.6963 0.811967 6.22609 70.173
4518632 8.99326 11.5298 24.9537 24.6963 0.811967 6.22609 70.173
4518644 9.00207 11.493 24.9438 24.667 0.789556 6.22969 70.1059
4518652 9.0285 11.5114 24.9241 24.6768 0.796801 6.21487 70.1408
4518665 9.0285 11.5114 24.9241 24.6768 0.796801 6.21487 70.1408
4518671 9.01088 11.585 24.9241 24.7352 0.848782 6.20525 70.2553
4518681 9.01088 11.585 24.9241 24.7352 0.848782 6.20525 70.2553
4518692 9.01088 11.539 24.9734 24.6378 0.781268 6.21312 70.1611
4518706 9.08135 11.5206 24.9045 24.7352 0.807932 6.20097 70.2416
4518712 9.08135 11.5206 24.9045 24.7352 0.807932 6.20097 70.2416
4518722 9.04611 11.5666 24.8946 24.667 0.816876 6.18792 70.1744
4518733 9.05492 11.5574 24.7962 24.6573 0.843361 6.17444 70.0658
4518742 9.05492 11.5574 24.7962 24.6573 0.843361 6.17444 70.0658
4518753 9.14301 11.6219 24.8454 24.6086 0.798246 6.1285 70.2189
4518763 9.14301 11.6219 24.8454 24.6086 0.798246 6.1285 70.2189
4518772 9.09896 11.6219 24.8454 24.6573 0.831211 6.1479 70.2236
4518784 9.12539 11.5574 24.747 24.5794 0.808623 6.13709 70.0091
4518794 9.12539 11.5574 24.747 24.5794 0.808623 6.13709 70.0091
4518810 9.19586 11.6311 24.806 24.6183 0.799826 6.1061 70.2513
4518814 9.15181 11.6035 24.7962 24.6183 0.810111 6.1264 70.1698
4518834 9.16062 11.6035 24.7863 24.6573 0.823915 6.12743 70.2077
4518846 9.16062 11.6035 24.7863 24.6573 0.823915 6.12743 70.2077
4518854 9.09016 11.6127 24.7666 24.6865 0.870347 6.14709 70.156
4518865 9.11658 11.6587 24.7765 24.6378 0.856063 6.12035 70.1896
4518874 9.11658 11.6587 24.7765 24.6378 0.856063 6.12035 70.1896
4518884 9.09896 11.6863 24.7273 24.6963 0.910279 6.11851 70.2089
4518894 9.14301 11.6219 24.8159 24.7158 0.845981 6.1383 70.2965
4518904 9.14301 11.6219 24.8159 24.7158 0.845981 6.1383 70.2965
4518915 9.14301 11.6035 24.8159 24.7352 0.846347 6.14629 70.2976
4518925 9.14301 11.6035 24.8159 24.7352 0.846347 6.14629 70.2976
4518935 9.07254 11.714 24.7962 24.7352 0.917441 6.13177 70.3179
4518945 9.06373 11.6035 24.8356 24.784 0.884995 6.17876 70.2867
4518955 9.06373 11.6035 24.8356 24.784 0.884995 6.17876 70.2867
4518965 9.09896 11.5666 24.7371 24.7742 0.892302 6.16565 70.1769
4518985 9.06373 11.6311 24.7371 24.7255 0.91072 6.15069 70.1574
4518986 9.06373 11.6311 24.7371 24.7255 0.91072 6.15069 70.1574
4518997 9.12539 11.6035 24.806 24.7352 0.856447 6.15036 70.2701
4519005 9.12539 11.6035 24.806 24.7352 0.856447 6.15036 70.2701
4519016 9.0285 11.6311 24.7273 24.8229 0.960782 6.17235 70.2098
4519026 9.08135 11.6035 24.7765 24.8814 0.933644 6.17827 70.3427
4519036 9.08135 11.6035 24.7765 24.8814 0.933644 6.17827 70.3427
4519047 9.05492 11.6311 24.7076 24.8814 0.978282 6.16925 70.275
4519056 9.01088 11.6127 24.7765 24.8619 0.956136 6.19428 70.2619
4519076 8.98446 11.6035 24.8159 24.9203 0.968194 6.21727 70.3241
4519096 8.95803 11.5666 24.7962 24.8911 0.962633 6.23027 70.212
4519107 8.95803 11.5574 24.8946 24.9398 0.939801 6.25139 70.3499
4519118 8.95803 11.5574 24.8946 24.9398 0.939801 6.25139 70.3499
4519128 8.95803 11.5206 24.7962 24.9301 0.960213 6.24906 70.2049
4519138 8.94041 11.4745 24.8159 24.9885 0.963694 6.27807 70.2194
4519158 8.87876 11.4101 24.8651 24.9885 0.946206 6.32245 70.1425
4519168 8.87876 11.4101 24.8651 24.9885 0.946206 6.32245 70.1425
4519178 8.86995 11.4285 24.9045 25.0373 0.957903 6.33041 70.2402
4519187 8.84352 11.3917 24.8749 25.1347 0.99932 6.358 70.2448
4519197 8.84352 11.3917 24.8749 25.1347 0.99932 6.358 70.2448
4519209 8.86114 11.3364 24.9537 25.0567 0.918099 6.36955 70.208
4519230 8.83471 11.2811 24.9635 25.1347 0.932002 6.4052 70.2141
4519231 8.83471 11.2811 24.9635 25.1347 0.932002 6.4052 70.2141
4519242 8.73782 11.2627 24.9438 25.1834 0.985506 6.44395 70.1278
4519249 8.73782 11.2627 24.9438 25.1834 0.985506 6.44395 70.1278
4519259 8.68497 11.2167 24.9635 25.2321 0.998715 6.48255 70.0973
4519269 8.7114 11.2167 25.0226 25.2418 0.970379 6.48281 70.1925
4519279 8.7114 11.2167 25.0226 25.2418 0.970379 6.48281 70.1925
4519289 8.69378 11.1338 25.0423 25.3685 0.984582 6.5313 70.2383
4519299 8.68497 11.1706 25.0521 25.388 1.00345 6.52625 70.2957
4519322 8.6057 11.1338 25.0324 25.4269 1.04083 6.56418 70.1989
4519330 8.6057 11.1338 25.0324 25.4269 1.04083 6.56418 70.1989
4519343 8.59689 11.0509 25.1112 25.4854 1.00657 6.6088 70.2444
4519350 8.62332 11.0601 25.0816 25.5341 1.02749 6.60014 70.2992
4519360 8.62332 11.0601 25.0816 25.5341 1.02749 6.60014 70.2992
4519370 8.57927 11.0601 25.1309 25.5536 1.03222 6.62187 70.3239
4519380 8.55285 11.0233 25.1013 25.5926 1.05367 6.64246 70.27
4519400 8.56166 11.0417 25.1407 25.5731 1.03546 6.63645 70.3171
4519420 8.53523 10.9957 25.1407 25.6023 1.03951 6.66224 70.2739
4519431 8.5 10.9496 25.1801 25.7387 1.06874 6.70809 70.3684
4519455 8.53523 10.968 25.1309 25.6607 1.05367 6.67652 70.2949
4519461 8.45596 10.9865 25.1702 25.7387 1.10124 6.70915 70.3513
4519471 8.45596 10.9865 25.1702 25.7387 1.10124 6.70915 70.3513
4519481 8.53523 11.0049 25.2096 25.7387 1.06355 6.68369 70.4884
4519491 8.53523 11.0049 25.2096 25.7387 1.06355 6.68369 70.4884
4519501 8.42953 10.9312 25.1899 25.7484 1.08827 6.73784 70.2991
4519511 8.42953 10.922 25.3376 25.8166 1.05364 6.76597 70.5057
4519524 8.42953 10.922 25.3376 25.8166 1.05364 6.76597 70.5057
4519533 8.34145 10.8207 25.2884 25.8848 1.09322 6.8268 70.3353
4519543 8.37668 10.7654 25.4163 25.9043 1.02065 6.85011 70.4628
4519553 8.37668 10.7654 25.4163 25.9043 1.02065 6.85011 70.4628
4519562 8.27979 10.6918 25.3376 25.9627 1.0805 6.90079 70.2719
4519572 8.21813 10.6365 25.4557 26.0602 1.07391 6.96198 70.3705
4519582 8.21813 10.6365 25.4557 26.0602 1.07391 6.96198 70.3705
4519592 8.27098 10.5813 25.4951 26.0602 1.02097 6.96723 70.4075
4519602 8.27098 10.5813 25.4951 26.0602 1.02097 6.96723 70.4075
4519620 8.24456 10.4615 25.4852 26.1479 1.02347 7.02176 70.3392
4519626 8.17409 10.4615 25.4163 26.2063 1.09504 7.04266 70.2583
4519634 8.17409 10.4615 25.4163 26.2063 1.09504 7.04266 70.2583
4519645 8.15648 10.4615 25.5345 26.2745 1.08095 7.06923 70.427
4519655 8.20933 10.4339 25.4655 26.2648 1.07419 7.05245 70.3735
4519665 8.20933 10.4339 25.4655 26.2648 1.07419 7.05245 70.3735
4519675 8.22694 10.3879 25.4852 26.255 1.0414 7.06249 70.3551
4519685 8.22694 10.3879 25.4852 26.255 1.0414 7.06249 70.3551
4519695 8.17409 10.3787 25.5148 26.2842 1.05684 7.08858 70.3518
4519705 8.13005 10.3787 25.5541 26.3135 1.06851 7.11011 70.3763
4519715 8.13005 10.3787 25.5541 26.3135 1.06851 7.11011 70.3763
4519725 8.17409 10.305 25.6132 26.3719 1.02521 7.13257 70.4642
4519735 8.13886 10.2958 25.6329 26.3719 1.02781 7.14873 70.4394
4519746 8.13886 10.2958 25.6329 26.3719 1.02781 7.14873 70.4394
4519756 8.12124 10.2497 25.6034 26.4109 1.04284 7.16982 70.3852
4519766 8.09482 10.2681 25.6329 26.4401 1.05789 7.17887 70.436
4519786 8.10363 10.1761 25.5935 26.4693 1.04782 7.204 70.3425
4519797 8.10363 10.1761 25.5935 26.4693 1.04782 7.204 70.3425
4519807 8.0772 10.1392 25.7215 26.4986 1.00768 7.24134 70.4365
4519818 8.05959 10.1484 25.7215 26.5278 1.02727 7.24721 70.4573
4519830 8.05959 10.1484 25.7215 26.5278 1.02727 7.24721 70.4573
4519839 8.06839 10.0932 25.692 26.5862 1.03602 7.26507 70.4398
4519847 8.04197 10.1024 25.7018 26.5473 1.03202 7.26731 70.3934
4519857 8.04197 10.1024 25.7018 26.5473 1.03202 7.26731 70.3934
4519867 8.03316 10.0471 25.6723 26.596 1.04398 7.2897 70.3485
4519877 8.03316 10.0471 25.6723 26.596 1.04398 7.2897 70.3485
4519888 8.00674 10.0379 25.7018 26.5765 1.03306 7.30209 70.323
4519903 7.98912 10.13 25.6723 26.5862 1.08517 7.27633 70.3776
4519908 7.98912 10.13 25.6723 26.5862 1.08517 7.27633 70.3776
4519917 8.05959 10.1116 25.692 26.5862 1.04554 7.26203 70.4494
4519929 7.99793 10.084 25.692 26.5473 1.04569 7.28601 70.3211
4519939 7.99793 10.084 25.692 26.5473 1.04569 7.28601 70.3211
4519949 8.02435 10.1116 25.8101 26.596 1.01824 7.28717 70.542
4519959 8.02435 10.1116 25.8101 26.596 1.01824 7.28717 70.542
4519971 8.02435 10.0655 25.7805 26.5473 0.996885 7.29317 70.4177
4519979 8.02435 10.0471 25.7904 26.6447 1.02015 7.31073 70.5066
4519993 8.02435 10.0471 25.7904 26.6447 1.02015 7.31073 70.5066
4520000 7.98912 10.084 25.7805 26.6642 1.05594 7.31127 70.5178
4520009 7.99793 10.0287 25.7018 26.5862 1.03649 7.30887 70.3147
4520019 7.99793 10.0287 25.7018 26.5862 1.03649 7.30887 70.3147
4520029 7.98031 10.0011 25.7116 26.596 1.03328 7.32538 70.289
4520049 7.9715 10.0103 25.692 26.635 1.06025 7.32735 70.3087
4520060 7.9715 10.0287 25.7116 26.6155 1.05259 7.32153 70.3273
4520070 7.9715 10.0287 25.7116 26.6155 1.05259 7.32153 70.3273
4520080 7.98031 9.89978 25.7707 26.6739 1.00345 7.37248 70.3247
4520090 8.00674 9.98267 25.8396 26.7226 1.01307 7.35054 70.5517
4520106 8.00674 9.98267 25.8396 26.7226 1.01307 7.35054 70.5517
4520121 7.9715 9.94583 25.7805 26.7324 1.03867 7.36805 70.4303
4520131 7.93627 9.89057 25.8101 26.7908 1.04187 7.40633 70.4277
4520142 7.96269 9.84453 25.8888 26.8493 1.00726 7.42733 70.5453
4520162 7.95389 9.87216 25.8987 26.7129 0.96983 7.40773 70.4376
4520179 7.94508 9.89978 25.8101 26.859 1.06491 7.40794 70.514
4520183 7.94508 9.89978 25.8101 26.859 1.06491 7.40794 70.514
4520192 7.92746 9.82611 25.8691 26.8103 1.00799 7.4381 70.433
4520202 7.93627 9.80769 25.879 26.8395 1.00479 7.44536 70.4625
4520213 7.93627 9.80769 25.879 26.8395 1.00479 7.44536 70.4625
4520223 7.91865 9.75244 25.9676 26.859 0.96643 7.48014 70.4977
4520242 7.91865 9.75244 25.9676 26.859 0.96643 7.48014 70.4977
4520251 7.8658 9.73402 25.9774 26.8006 0.956044 7.49771 70.3778
4520263 7.90984 9.75244 25.9577 26.9175 0.993207 7.48813 70.5375
4520264 7.90984 9.75244 25.9577 26.9175 0.993207 7.48813 70.5375
4520274 7.90104 9.69718 25.9184 26.9175 0.992161 7.50438 70.4341
4520285 7.90104 9.56826 26.0168 26.9564 0.925177 7.56019 70.4425
4520294 7.90104 9.56826 26.0168 26.9564 0.925177 7.56019 70.4425
4520304 7.87461 9.65114 26.0365 26.9564 0.955951 7.54421 70.5187
4520314 7.87461 9.65114 26.0365 26.9564 0.955951 7.54421 70.5187
4520325 7.84819 9.52221 25.9774 26.9759 0.950083 7.58981 70.3237
4520336 7.85699 9.47616 26.0365 26.9759 0.909302 7.60799 70.3456
4520346 7.85699 9.47616 26.0365 26.9759 0.909302 7.60799 70.3456
4520355 7.83938 9.54984 26.0955 26.9272 0.902596 7.59108 70.412
4520366 7.81295 9.46696 26.0562 27.0344 0.935128 7.63331 70.3705
4520375 7.81295 9.46696 26.0562 27.0344 0.935128 7.63331 70.3705
4520385 7.83938 9.50379 26.1152 27.0052 0.906265 7.61611 70.4636
4520395 7.83938 9.50379 26.1152 27.0052 0.906265 7.61611 70.4636
4520405 7.83938 9.513 26.0955 26.9077 0.883305 7.60086 70.3557
4520415 7.84819 9.63272 26.066 26.8883 0.92524 7.55447 70.4352
4520425 7.84819 9.63272 26.066 26.8883 0.92524 7.55447 70.4352
4520435 7.93627 9.67877 26.0463 26.8298 0.895849 7.5033 70.4911
4520445 7.96269 9.69718 26.0365 26.859 0.906038 7.49106 70.5554
4520455 7.96269 9.69718 26.0365 26.859 0.906038 7.49106 70.5554
4520466 8.01554 9.67877 26.0266 26.8395 0.877306 7.47696 70.5605
4520476 8.01554 9.67877 26.0266 26.8395 0.877306 7.47696 70.5605
4520486 7.95389 9.72481 25.9774 26.7129 0.890452 7.46315 70.369
4520496 7.98031 9.72481 26.1054 26.7129 0.833768 7.4684 70.5234
4520506 7.98031 9.72481 26.1054 26.7129 0.833768 7.4684 70.5234
4520517 7.9715 9.79848 25.9085 26.6252 0.904533 7.41719 70.3037
4520526 8.05959 9.82611 25.9774 26.6252 0.856283 7.3878 70.4883
4520540 8.05959 9.82611 25.9774 26.6252 0.856283 7.3878 70.4883
4520548 8.14767 9.84453 25.9085 26.5181 0.818816 7.33491 70.4188
4520558 8.14767 9.84453 25.9085 26.5181 0.818816 7.33491 70.4188
4520567 8.16529 9.87216 25.8101 26.4693 0.841242 7.3045 70.3169
4520577 8.22694 10.0287 25.7805 26.3232 0.83302 7.21611 70.3594
4520587 8.22694 10.0287 25.7805 26.3232 0.83302 7.21611 70.3594
4520599 8.23575 10.1024 25.8002 26.3037 0.841162 7.19012 70.4421
4520607 8.27979 10.1208 25.6821 26.2355 0.851282 7.14972 70.3182
4520627 8.34145 10.1945 25.6329 26.1771 0.851935 7.09509 70.3459
4520639 8.34145 10.1945 25.6329 26.1771 0.851935 7.09509 70.3459
4520650 8.35907 10.1668 25.623 26.1576 0.8329 7.09494 70.3065
4520659 8.38549 10.2681 25.5541 26.1284 0.873265 7.04379 70.3361
4520669 8.38549 10.2681 25.5541 26.1284 0.873265 7.04379 70.3361
4520679 8.3943 10.2681 25.6132 26.0602 0.824904 7.04 70.3358
4520689 8.44715 10.3418 25.5837 26.0212 0.828269 6.99264 70.3938
4520699 8.44715 10.3418 25.5837 26.0212 0.828269 6.99264 70.3938
4520710 8.44715 10.3234 25.5837 25.992 0.811896 6.99507 70.3462
4520719 8.44715 10.3234 25.5837 25.992 0.811896 6.99507 70.3462
4520729 8.45596 10.4339 25.5443 25.9043 0.830966 6.9433 70.3385
4520739 8.52642 10.4615 25.5738 25.8653 0.790393 6.91165 70.4271
4520751 8.52642 10.4615 25.5738 25.8653 0.790393 6.91165 70.4271
4520760 8.48238 10.4984 25.436 25.8166 0.85308 6.89242 70.2334
4520769 8.53523 10.572 25.3474 25.7971 0.884861 6.84052 70.2518
4520779 8.53523 10.572 25.3474 25.7971 0.884861 6.84052 70.2518
4520790 8.50881 10.5997 25.4459 25.7289 0.844422 6.84366 70.2833
4520810 8.5 10.6181 25.377 25.7777 0.896078 6.83833 70.2727
4520820 8.5 10.6365 25.308 25.7582 0.92113 6.82232 70.2027
4520830 8.5 10.6365 25.308 25.7582 0.92113 6.82232 70.2027
4520840 8.46477 10.6365 25.3573 25.7095 0.899246 6.83334 70.168
4520854 8.53523 10.6457 25.3474 25.7484 0.893429 6.81197 70.2768
4520871 8.5 10.6641 25.4065 25.8069 0.910991 6.83085 70.3775
4520894 8.50881 10.6181 25.4065 25.7289 0.865233 6.83336 70.2623
4520905 8.52642 10.6733 25.4262 25.7679 0.883833 6.81756 70.3939
4520911 8.52642 10.6733 25.4262 25.7679 0.883833 6.81756 70.3939
4520920 8.50881 10.5997 25.4163 25.6802 0.838533 6.83457 70.205
4520930 8.55285 10.6918 25.3868 25.5341 0.814581 6.77176 70.1655
4520940 8.55285 10.6918 25.3868 25.5341 0.814581 6.77176 70.1655
4520950 8.6057 10.7378 25.4262 25.6705 0.843421 6.76173 70.4402
4520960 8.6057 10.7378 25.4262 25.6705 0.843421 6.76173 70.4402
4520972 8.50881 10.7286 25.3868 25.5926 0.863591 6.78085 70.2168
4520980 8.57047 10.7102 25.4262 25.5633 0.810039 6.76863 70.2701
4520994 8.57047 10.7102 25.4262 25.5633 0.810039 6.76863 70.2701
4521000 8.63212 10.7562 25.3868 25.5341 0.807649 6.72725 70.3092
4521010 8.6057 10.7839 25.4459 25.5731 0.818568 6.7384 70.4085
4521020 8.6057 10.7839 25.4459 25.5731 0.818568 6.7384 70.4085
4521030 8.62332 10.7746 25.4065 25.5244 0.806642 6.72545 70.3288
4521040 8.62332 10.7746 25.4065 25.5244 0.806642 6.72545 70.3288
4521050 8.56166 10.7654 25.3277 25.4464 0.828254 6.72892 70.1012
4521061 8.68497 10.7746 25.3671 25.388 0.751454 6.68566 70.2147
4521073 8.68497 10.7746 25.3671 25.388 0.751454 6.68566 70.2147
4521081 8.67617 10.8391 25.308 25.3393 0.78181 6.65569 70.1626
4521091 8.67617 10.8944 25.2785 25.349 0.815079 6.63629 70.1981
4521101 8.67617 10.8944 25.2785 25.349 0.815079 6.63629 70.1981
4521111 8.78187 10.9588 25.2785 25.2905 0.778338 6.57697 70.3098
4521122 8.78187 10.9588 25.2785 25.2905 0.778338 6.57697 70.3098
4521131 8.75544 10.9957 25.2293 25.31 0.825486 6.57022 70.2904
4521143 8.84352 10.9772 25.1702 25.2516 0.788364 6.53472 70.2426
4521153 8.84352 10.9772 25.1702 25.2516 0.788364 6.53472 70.2426
4521164 8.79067 11.0878 25.2096 25.1542 0.79782 6.51005 70.2422
4521172 8.8171 11.1338 25.1309 25.1444 0.829551 6.47715 70.2262
4521187 8.8171 11.1338 25.1309 25.1444 0.829551 6.47715 70.2262
4521193 8.82591 11.097 25.0816 25.086 0.811586 6.47265 70.0905
4521203 8.82591 11.097 25.0816 25.086 0.811586 6.47265 70.0905
4521213 8.86995 11.143 25.1013 25.0957 0.807378 6.44867 70.21
4521223 8.9228 11.1798 25.0816 25.0567 0.794458 6.41414 70.241
4521242 8.94922 11.2811 25.0423 24.9885 0.810617 6.36207 70.2612
4521255 8.96684 11.2443 25.0127 24.9788 0.798944 6.36308 70.2027
4521266 8.96684 11.2443 25.0127 24.9788 0.798944 6.36308 70.2027
4521274 8.94922 11.2996 24.9931 24.9593 0.824988 6.34681 70.2012
4521296 8.97565 11.3272 24.9832 24.8521 0.791469 6.31593 70.1382
4521304 9.01969 11.3272 24.9931 24.9106 0.79183 6.31101 70.2505
4521325 9.0285 11.3548 24.9537 24.9106 0.812569 6.29508 70.2476
4521340 9.04611 11.3272 24.8651 24.8424 0.805643 6.27865 70.0808
4521355 9.09896 11.4469 24.8651 24.8619 0.834161 6.22881 70.2729
4521375 9.09896 11.4193 24.8651 24.7937 0.801164 6.22865 70.177
4521387 9.10777 11.4469 24.806 24.8229 0.839242 6.2139 70.1836
4521396 9.10777 11.4469 24.806 24.8229 0.839242 6.2139 70.1836
4521407 9.04611 11.4285 24.806 24.8327 0.858974 6.23935 70.1133
4521416 9.09896 11.4653 24.7666 24.8034 0.856626 6.20362 70.1344
4521436 9.15181 11.5298 24.7863 24.8132 0.855434 6.17191 70.2811
4521447 9.14301 11.4653 24.7666 24.7645 0.826976 6.18542 70.1395
4521456 9.14301 11.4653 24.7666 24.7645 0.826976 6.18542 70.1395
4521473 9.21347 11.5298 24.7076 24.7742 0.848323 6.13852 70.2251
4521476 9.21347 11.5298 24.7076 24.7742 0.848323 6.13852 70.2251
4521490 9.19586 11.5482 24.7568 24.7645 0.839686 6.14326 70.2653
4521497 9.18705 11.5758 24.7962 24.7645 0.837943 6.14256 70.3235
4521507 9.18705 11.5758 24.7962 24.7645 0.837943 6.14256 70.3235
4521523 9.21347 11.5758 24.7666 24.745 0.832388 6.12844 70.3009
4521535 9.1342 11.5666 24.7666 24.745 0.858381 6.15506 70.2125
4521548 9.17824 11.585 24.7076 24.745 0.870249 6.1288 70.2159
4521559 9.17824 11.585 24.7076 24.745 0.870249 6.1288 70.2159
4521567 9.11658 11.4837 24.6485 24.7645 0.886658 6.17297 70.0133
4521577 9.14301 11.5482 24.6584 24.784 0.902134 6.14922 70.1335
4521589 9.14301 11.5482 24.6584 24.784 0.902134 6.14922 70.1335
4521597 9.12539 11.493 24.6781 24.745 0.868952 6.16879 70.0414
4521609 9.09896 11.5114 24.6977 24.7742 0.887844 6.17737 70.0823
4521618 9.09896 11.5114 24.6977 24.7742 0.887844 6.17737 70.0823
4521628 9.16943 11.5574 24.6879 24.8132 0.894684 6.1459 70.2279
4521638 9.16943 11.5574 24.6879 24.8132 0.894684 6.1459 70.2279
4521648 9.09016 11.4561 24.6879 24.8327 0.895837 6.20285 70.0668
4521659 9.12539 11.4561 24.7371 24.8521 0.871363 6.20082 70.1708
4521668 9.12539 11.4561 24.7371 24.8521 0.871363 6.20082 70.1708
4521680 9.1342 11.493 24.747 24.8814 0.887179 6.19194 70.2555
4521688 9.1342 11.493 24.747 24.8814 0.887179 6.19194 70.2555
4521701 9.07254 11.4469 24.7962 24.9009 0.882646 6.23306 70.2165
4521709 9.06373 11.4377 24.747 24.9885 0.930977 6.24331 70.2369
4521721 9.06373 11.4377 24.747 24.9885 0.930977 6.24331 70.2369
4521729 9.03731 11.3824 24.8159 24.9885 0.89635 6.27661 70.2242
4521741 9.05492 11.4377 24.8159 25.0178 0.918818 6.25819 70.3263
4521759 9.03731 11.3917 24.7568 25.0567 0.944686 6.27496 70.2425
4521770 9.00207 11.3732 24.806 25.0567 0.933209 6.29732 70.2381
4521790 8.94041 11.3732 24.9241 25.0665 0.915715 6.33183 70.3043
4521802 8.94041 11.3732 24.9241 25.0665 0.915715 6.33183 70.3043
4521810 8.94922 11.3088 24.8257 25.0762 0.930041 6.33779 70.1599
4521820 8.95803 11.318 24.8454 25.0567 0.915986 6.33234 70.1781
4521830 8.95803 11.318 24.8454 25.0567 0.915986 6.33234 70.1781
4521843 8.96684 11.2627 24.8946 25.0665 0.878945 6.35373 70.1907
4521850 8.93161 11.2535 24.8749 25.008 0.875938 6.35764 70.0681
4521860 8.93161 11.2535 24.8749 25.008 0.875938 6.35764 70.0681
4521870 8.93161 11.3088 24.9045 25.1152 0.920826 6.35765 70.26
4521884 8.93161 11.3088 24.9045 25.1152 0.920826 6.35765 70.26
4521890 8.86114 11.2351 24.8454 25.086 0.933391 6.39072 70.0276
4521903 8.94922 11.3364 24.9143 25.1152 0.920168 6.34512 70.3151
4521920 8.94922 11.2996 24.8454 25.1444 0.942984 6.35142 70.2386
4521930 8.94041 11.318 24.8848 25.0957 0.921321 6.34736 70.2389
4521940 8.94041 11.318 24.8848 25.0957 0.921321 6.34736 70.2389
4521950 8.99326 11.364 24.8454 25.0957 0.932124 6.31248 70.2984
4521960 8.99326 11.364 24.8454 25.0957 0.932124 6.31248 70.2984
4521970 8.94041 11.4101 24.7174 25.0275 0.991413 6.29023 70.0954
4521980 8.97565 11.4285 24.747 25.0178 0.97039 6.27641 70.1689
4521990 8.97565 11.4285 24.747 25.0178 0.97039 6.27641 70.1689
4522000 9.01088 11.5206 24.747 25.008 0.985524 6.23666 70.2865
4522010 9.01088 11.5206 24.747 25.008 0.985524 6.23666 70.2865
4522020 8.98446 11.5022 24.747 24.9691 0.975677 6.24536 70.2026
4522030 9.01088 11.5022 24.747 24.9593 0.96257 6.23615 70.2193
4522040 9.01088 11.5022 24.747 24.9593 0.96257 6.23615 70.2193
4522050 9.0285 11.5758 24.6977 24.8716 0.969461 6.19143 70.1737
4522060 9.10777 11.5666 24.6781 24.8034 0.920895 6.15923 70.1559
4522080 9.09016 11.6311 24.6091 24.8132 0.978342 6.13764 70.1436
4522091 9.09016 11.6311 24.6091 24.8132 0.978342 6.13764 70.1436
4522100 9.10777 11.585 24.5993 24.8034 0.956342 6.14374 70.0956
4522110 9.16062 11.6311 24.6485 24.8229 0.941059 6.12264 70.2632
4522132 9.14301 11.6035 24.5895 24.8132 0.956598 6.12755 70.1491
4522141 9.16062 11.6127 24.491 24.8229 0.993031 6.10824 70.0872
4522153 9.16062 11.6127 24.491 24.8229 0.993031 6.10824 70.0872
4522161 9.22228 11.6863 24.5107 24.8034 0.981447 6.06759 70.2228
4522179 9.22228 11.6863 24.5107 24.8034 0.981447 6.06759 70.2228
4522181 9.18705 11.6771 24.5206 24.6963 0.950977 6.06854 70.081
4522193 9.28394 11.7416 24.5402 24.667 0.919965 6.01893 70.2328
4522203 9.28394 11.7416 24.5402 24.667 0.919965 6.01893 70.2328
4522216 9.38964 11.8061 24.4517 24.5989 0.912374 5.94797 70.2462
4522222 9.37202 11.8153 24.3926 24.5501 0.927138 5.93657 70.13
4522244 9.42487 11.7876 24.4123 24.5112 0.877467 5.92654 70.136
4522254 9.42487 11.7876 24.4123 24.5112 0.877467 5.92654 70.136
4522264 9.46891 11.8429 24.3237 24.4235 0.88276 5.87406 70.059
4522274 9.48653 11.8797 24.2745 24.4332 0.910461 5.85269 70.074
4522284 9.48653 11.8797 24.2745 24.4332 0.910461 5.85269 70.074
4522295 9.44249 11.8797 24.304 24.4332 0.915828 5.86966 70.0595
4522305 9.51295 11.9534 24.304 24.4138 0.908402 5.82427 70.1841
4522315 9.51295 11.9534 24.304 24.4138 0.908402 5.82427 70.1841
4522326 9.52176 11.9534 24.2449 24.2481 0.869986 5.79218 69.9682
4522335 9.58342 12.0363 24.2942 24.2871 0.871012 5.76093 70.201
4522345 9.58342 12.0363 24.2942 24.2871 0.871012 5.76093 70.201
4522355 9.60104 12.0455 24.2843 24.2384 0.854561 5.74529 70.1692
4522365 9.60104 12.0455 24.2843 24.2384 0.854561 5.74529 70.1692
4522375 9.5658 12.0731 24.2843 24.1799 0.856939 5.73982 70.1032
4522385 9.53938 12.0271 24.2154 24.1994 0.882998 5.75476 69.9813
4522396 9.53938 12.0271 24.2154 24.1994 0.882998 5.75476 69.9813
4522406 9.57461 12.0363 24.1957 24.2092 0.883779 5.74027 70.0158
4522416 9.53057 11.9718 24.2351 24.2287 0.870004 5.78023 69.9661
4522436 9.54819 12.0363 24.2351 24.1605 0.862205 5.74687 69.98
4522446 9.54819 12.0363 24.2351 24.1605 0.862205 5.74687 69.98
4522456 9.47772 12.0179 24.2843 24.2092 0.880501 5.78616 69.9891
4522466 9.51295 11.9995 24.3335 24.2579 0.859746 5.79405 70.1038
4522486 9.49534 11.9718 24.3434 24.2871 0.863165 5.8126 70.0976
4522496 9.45129 11.981 24.432 24.365 0.87671 5.84471 70.2293
4522506 9.45129 11.981 24.432 24.365 0.87671 5.84471 70.2293
4522516 9.46891 11.935 24.4123 24.3943 0.871691 5.85439 70.2105
4522536 9.38964 11.8982 24.4123 24.3066 0.858071 5.87752 70.0067
4522547 9.41606 11.8889 24.4024 24.3066 0.848773 5.87111 70.014
4522557 9.41606 11.8889 24.4024 24.3066 0.848773 5.87111 70.014
4522567 9.38083 11.9258 24.4812 24.3066 0.845417 5.88089 70.0944
4522578 9.42487 11.8613 24.5107 24.3456 0.809529 5.89587 70.1425
4522588 9.42487 11.8613 24.5107 24.3456 0.809529 5.89587 70.1425
4522597 9.39845 11.8613 24.5501 24.3066 0.79132 5.9038 70.1164
4522609 9.39845 11.8613 24.5501 24.3066 0.79132 5.9038 70.1164
4522617 9.38083 11.8797 24.5009 24.443 0.869256 5.91486 70.2044
4522631 9.42487 11.8613 24.5599 24.3943 0.808221 5.90857 70.2404
4522638 9.42487 11.8613 24.5599 24.3943 0.808221 5.90857 70.2404
4522653 9.38083 11.7876 24.5698 24.4332 0.808832 5.94997 70.1715
4522659 9.31917 11.7876 24.5698 24.4527 0.838247 5.9709 70.1293
4522669 9.31917 11.7876 24.5698 24.4527 0.838247 5.9709 70.1293
4522679 9.2487 11.7876 24.6288 24.5307 0.869271 6.00957 70.1958
4522699 9.29275 11.7876 24.5993 24.4819 0.847167 5.98636 70.1617
4522709 9.26632 11.7876 24.6091 24.5794 0.886765 6.00802 70.2425
4522721 9.26632 11.7876 24.6091 24.5794 0.886765 6.00802 70.2425
4522729 9.2399 11.7416 24.6781 24.4917 0.825125 6.02732 70.1512
4522744 9.22228 11.7232 24.6485 24.5112 0.84286 6.03684 70.1052
4522759 9.20466 11.7508 24.7568 24.5112 0.818998 6.04766 70.2235
4522779 9.14301 11.6956 24.7076 24.5404 0.850865 6.08022 70.0865
4522789 9.11658 11.7324 24.7174 24.5404 0.869668 6.07834 70.1068
4522799 9.11658 11.7324 24.7174 24.5404 0.869668 6.07834 70.1068
4522818 9.16062 11.6679 24.7962 24.6378 0.835773 6.10683 70.2626
4522820 9.09016 11.6219 24.7962 24.5794 0.825727 6.13451 70.0876
4522830 9.09016 11.6219 24.7962 24.5794 0.825727 6.13451 70.0876
4522840 9.11658 11.6863 24.8159 24.6476 0.854415 6.11825 70.2664
4522850 9.11658 11.6863 24.8159 24.6476 0.854415 6.11825 70.2664
4522860 9.04611 11.6035 24.8552 24.6768 0.847411 6.17308 70.1816
4522870 9.07254 11.585 24.9537 24.745 0.818622 6.19158 70.3563
4522883 9.07254 11.585 24.9537 24.745 0.818622 6.19158 70.3563
4522890 9.01088 11.5666 24.8454 24.706 0.861403 6.19728 70.1289
4522907 8.99326 11.5666 24.8946 24.7255 0.856462 6.21122 70.18
4522920 8.94922 11.5298 24.9438 24.8132 0.872031 6.25277 70.236
4522930 8.94922 11.5298 24.9438 24.8132 0.872031 6.25277 70.236
4522940 8.94922 11.4837 24.934 24.7742 0.846419 6.26064 70.1412
4522953 8.95803 11.4561 24.9931 24.7645 0.808552 6.27248 70.1717
4522976 8.94041 11.4285 24.9832 24.8716 0.846049 6.29828 70.2237
4522981 8.83471 11.3917 25.0029 24.9203 0.881824 6.35004 70.1496
4522991 8.83471 11.3917 25.0029 24.9203 0.881824 6.35004 70.1496
4523004 8.90518 11.4193 25.0324 24.9983 0.881228 6.33349 70.3552
4523026 8.82591 11.4009 25.0816 24.9203 0.859213 6.35962 70.2288
4523032 8.80829 11.3364 25.0816 24.9496 0.853583 6.3882 70.1759
4523042 8.80829 11.3364 25.0816 24.9496 0.853583 6.3882 70.1759
4523051 8.80829 11.318 25.0718 24.9106 0.837451 6.38783 70.1087
4523061 8.76425 11.2904 25.1407 24.9496 0.832197 6.42292 70.1449
4523072 8.76425 11.2904 25.1407 24.9496 0.832197 6.42292 70.1449
4523081 8.79067 11.2627 25.1702 25.0275 0.828931 6.43641 70.2511
4523095 8.79067 11.2627 25.1702 25.0275 0.828931 6.43641 70.2511
4523101 8.79067 11.2627 25.1702 25.0957 0.85237 6.44472 70.3193
4523111 8.77306 11.2075 25.1899 25.0665 0.822559 6.4658 70.2369
4523131 8.79948 11.2259 25.2391 25.086 0.807825 6.46045 70.3505
4523141 8.79948 11.2259 25.2391 25.086 0.807825 6.46045 70.3505
4523154 8.7114 11.2075 25.1506 25.1054 0.873163 6.48461 70.1749
4523164 8.76425 11.1798 25.2884 25.1347 0.803611 6.49713 70.3671
4523171 8.76425 11.1798 25.2884 25.1347 0.803611 6.49713 70.3671
4523181 8.75544 11.2075 25.2096 25.1444 0.8486 6.48303 70.3169
4523192 8.75544 11.143 25.2293 25.1736 0.829256 6.50865 70.3014
4523201 8.75544 11.143 25.2293 25.1736 0.829256 6.50865 70.3014
4523212 8.74663 11.1338 25.1998 25.1639 0.836831 6.50942 70.2441
4523223 8.74663 11.1338 25.1998 25.1639 0.836831 6.50942 70.2441
4523236 8.72021 11.1154 25.2096 25.1444 0.829884 6.522 70.1896
4523242 8.72902 11.1154 25.2293 25.1542 0.822756 6.52285 70.2279
4523258 8.72902 11.1154 25.2293 25.1542 0.822756 6.52285 70.2279
4523263 8.68497 11.1983 25.1801 25.1736 0.892285 6.50736 70.237
4523272 8.70259 11.1062 25.1899 25.1931 0.857213 6.53373 70.1918
4523282 8.70259 11.1062 25.1899 25.1931 0.857213 6.53373 70.1918
4523293 8.68497 11.1522 25.1407 25.2223 0.907722 6.5226 70.2002
4523305 8.68497 11.1522 25.1407 25.2223 0.907722 6.5226 70.2002
4523313 8.64093 11.0785 25.1801 25.2516 0.89418 6.567 70.1511
4523323 8.69378 11.1062 25.1801 25.3295 0.910908 6.55166 70.3096
4523342 8.65855 11.097 25.2195 25.3198 0.902888 6.56885 70.2947
4523354 8.64093 11.0325 25.1998 25.349 0.904557 6.59521 70.2222
4523362 8.64093 11.0325 25.1998 25.349 0.904557 6.59521 70.2222
4523375 8.64093 11.1062 25.308 25.3393 0.886595 6.58437 70.3944
4523383 8.64093 11.1062 25.308 25.3393 0.886595 6.58437 70.3944
4523398 8.62332 11.0601 25.2391 25.4269 0.932705 6.60615 70.3495
4523403 8.63212 10.9957 25.2982 25.4172 0.882292 6.62913 70.3432
4523414 8.63212 10.9957 25.2982 25.4172 0.882292 6.62913 70.3432
4523424 8.62332 11.0325 25.2588 25.4269 0.915989 6.61698 70.3416
4523434 8.63212 11.0233 25.2293 25.4367 0.923809 6.61475 70.3214
4523443 8.63212 11.0233 25.2293 25.4367 0.923809 6.61475 70.3214
4523463 8.58808 11.0233 25.2588 25.4659 0.939164 6.63529 70.3361
4523465 8.58808 11.0233 25.2588 25.4659 0.939164 6.63529 70.3361
4523474 8.54404 11.0141 25.2785 25.4464 0.938326 6.6517 70.2831
4523484 8.57927 10.9772 25.2096 25.4756 0.948155 6.64748 70.2418
4523494 8.57927 10.9772 25.2096 25.4756 0.948155 6.64748 70.2418
4523506 8.52642 10.968 25.249 25.4367 0.93663 6.66667 70.1801
4523514 8.54404 10.8852 25.2884 25.5049 0.910547 6.69958 70.2224
4523532 8.54404 10.8852 25.2884 25.5049 0.910547 6.69958 70.2224
4523535 8.53523 10.9496 25.3474 25.5244 0.920779 6.69168 70.3566
4523547 8.53523 10.9496 25.3474 25.5244 0.920779 6.69168 70.3566
4523555 8.51762 10.9312 25.3376 25.4756 0.907904 6.69588 70.262
4523569 8.47358 10.8759 25.3277 25.5146 0.922203 6.73001 70.1919
4523575 8.47358 10.8759 25.3277 25.5146 0.922203 6.73001 70.1919
4523588 8.49119 10.922 25.3277 25.5049 0.928149 6.70918 70.2458
4523595 8.49119 10.8852 25.3474 25.5828 0.934958 6.73206 70.3066
4523605 8.49119 10.8852 25.3474 25.5828 0.934958 6.73206 70.3066
4523615 8.47358 10.8944 25.3277 25.5438 0.938538 6.72776 70.2395
4523626 8.47358 10.8944 25.3277 25.5438 0.938538 6.72776 70.2395
4523635 8.44715 10.9036 25.2687 25.5146 0.963286 6.72268 70.134
4523645 8.55285 10.9588 25.3179 25.5341 0.931653 6.68107 70.3637
4523665 8.49119 10.968 25.3277 25.5341 0.953916 6.69841 70.3211
4523675 8.53523 10.968 25.249 25.5341 0.966731 6.67551 70.2864
4523686 8.53523 10.9404 25.249 25.5146 0.950611 6.68173 70.2392
4523702 8.50881 11.0325 25.2785 25.5244 0.984278 6.66613 70.3442
4523706 8.50881 11.0325 25.2785 25.5244 0.984278 6.66613 70.3442
4523721 8.5 10.9588 25.2195 25.5146 0.980863 6.68342 70.1929
4523727 8.54404 11.0141 25.2293 25.5049 0.9765 6.6528 70.2923
4523736 8.54404 11.0141 25.2293 25.5049 0.9765 6.6528 70.2923
4523749 8.53523 11.0233 25.2293 25.4854 0.976244 6.65036 70.2732
4523757 8.55285 10.9957 25.2391 25.5146 0.966641 6.65808 70.3023
4523777 8.58808 11.0049 25.2293 25.4854 0.95042 6.63976 70.3076
4523792 8.58808 11.0049 25.2293 25.4854 0.95042 6.63976 70.3076
4523797 8.50881 10.9957 25.2588 25.5146 0.975639 6.67399 70.2779
4523808 8.54404 10.9865 25.2588 25.5341 0.966138 6.66828 70.3234
4523827 8.54404 10.9957 25.2982 25.5341 0.954753 6.67011 70.372
4523837 8.52642 11.0049 25.249 25.5828 0.9992 6.67264 70.3631
4523859 8.45596 11.0233 25.249 25.5438 1.01825 6.68407 70.2721
4523869 8.45596 11.0233 25.249 25.5438 1.01825 6.68407 70.2721
4523879 8.44715 10.9128 25.2785 25.4951 0.956118 6.71869 70.1336
4523890 8.48238 10.9404 25.249 25.5244 0.973487 6.6992 70.1961
4523899 8.48238 10.9404 25.249 25.5244 0.973487 6.6992 70.1961
4523910 8.42953 10.8852 25.3277 25.5731 0.961664 6.74768 70.2155
4523920 8.44715 10.9404 25.3573 25.612 0.976461 6.73319 70.3569
4523931 8.44715 10.9404 25.3573 25.612 0.976461 6.73319 70.3569
4523940 8.49119 10.8575 25.3573 25.612 0.931874 6.74519 70.318
4523950 8.49119 10.8575 25.3474 25.612 0.935504 6.74404 70.3082
4523960 8.47358 10.8944 25.3474 25.5828 0.944611 6.73466 70.2982
4523970 8.47358 10.8483 25.4557 25.6997 0.928938 6.77527 70.4773
4523983 8.47358 10.8483 25.4557 25.6997 0.928938 6.77527 70.4773
4523991 8.45596 10.7562 25.4262 25.6607 0.901449 6.80124 70.2991
4524000 8.41192 10.8115 25.5246 25.6705 0.903687 6.81036 70.4185
4524010 8.41192 10.8115 25.5246 25.6705 0.903687 6.81036 70.4185
4524020 8.46477 10.7194 25.4951 25.7679 0.896934 6.8304 70.4471
4524031 8.36788 10.6918 25.4951 25.7484 0.916472 6.8668 70.3031
4524041 8.36788 10.6918 25.4951 25.7484 0.916472 6.8668 70.3031
4524051 8.42073 10.6826 25.4557 25.7971 0.925028 6.85432 70.3561
4524077 8.35026 10.6365 25.5049 25.7971 0.917098 6.89625 70.2888
4524097 8.29741 10.572 25.4754 25.9043 0.962126 6.94177 70.2491
4524101 8.29741 10.572 25.4754 25.9043 0.962126 6.94177 70.2491
4524113 8.2886 10.5168 25.4262 25.9822 0.991347 6.96509 70.2138
4524123 8.2886 10.5168 25.4262 25.9822 0.991347 6.96509 70.2138
4524135 8.29741 10.4892 25.4951 26.0212 0.966489 6.9833 70.3029
4524142 8.29741 10.4892 25.4951 26.0212 0.966489 6.9833 70.3029
4524152 8.25337 10.4339 25.4065 26.0017 0.989997 7.00207 70.0955
4524162 8.2886 10.4431 25.5541 25.992 0.922182 7.00386 70.2778
4524173 8.2886 10.4431 25.5541 25.992 0.922182 7.00386 70.2778
4524183 8.31503 10.5076 25.5541 25.9725 0.927839 6.97321 70.3492
4524195 8.2886 10.4892 25.5246 26.0309 0.962168 6.99053 70.3333
4524203 8.2886 10.4892 25.5246 26.0309 0.962168 6.99053 70.3333
4524216 8.31503 10.5813 25.5049 26.0115 0.984472 6.94905 70.4127
4524223 8.31503 10.5813 25.5049 26.0115 0.984472 6.94905 70.4127
4524235 8.27098 10.5076 25.4951 26.0212 0.98255 6.9858 70.2948
4524242 8.34145 10.572 25.5049 26.0212 0.974905 6.9448 70.4396
4524263 8.30622 10.572 25.4852 25.9238 0.961903 6.94238 70.2873
4524273 8.27979 10.5444 25.5443 25.9822 0.960395 6.9727 70.3507
4524283 8.27979 10.5444 25.5443 25.9822 0.960395 6.9727 70.3507
4524292 8.36788 10.5444 25.5738 25.9822 0.917065 6.9486 70.4684
4524303 8.36788 10.5444 25.5738 25.9822 0.917065 6.9486 70.4684
4524313 8.30622 10.5076 25.5148 25.9822 0.948942 6.97258 70.3108
4524323 8.31503 10.5536 25.6034 26.0309 0.945419 6.97112 70.503
4524332 8.31503 10.5536 25.6034 26.0309 0.945419 6.97112 70.503
4524343 8.32383 10.5076 25.5837 26.0309 0.933704 6.98049 70.446
4524353 8.32383 10.5076 25.5837 26.0309 0.933704 6.98049 70.446
4524364 8.27098 10.526 25.5246 25.992 0.967947 6.98008 70.3136
4524374 8.27979 10.4892 25.5738 26.0309 0.947261 6.99888 70.3737
4524386 8.27979 10.4892 25.5738 26.0309 0.947261 6.99888 70.3737
4524392 8.25337 10.5352 25.5738 26.0309 0.972733 6.99275 70.3933
4524407 8.2886 10.5352 25.4951 25.9822 0.972164 6.96721 70.3011
4524414 8.2886 10.5352 25.4951 25.9822 0.972164 6.96721 70.3011
4524424 8.26218 10.4523 25.5541 26.0407 0.951761 7.01478 70.3093
4524434 8.26218 10.4523 25.5541 26.0407 0.951761 7.01478 70.3093
4524444 8.23575 10.4339 25.5443 26.0212 0.952181 7.02551 70.2352
4524454 8.24456 10.3971 25.6723 26.1284 0.9258 7.06089 70.4423
4524464 8.24456 10.3971 25.6723 26.1284 0.9258 7.06089 70.4423
4524474 8.23575 10.4339 25.6526 26.1381 0.952199 7.05099 70.4604
4524484 8.20052 10.351 25.6526 26.1868 0.953516 7.09349 70.3909
4524494 8.20052 10.351 25.6526 26.1868 0.953516 7.09349 70.3909
4524504 8.20933 10.3971 25.7609 26.1673 0.919488 7.08627 70.5346
4524515 8.20933 10.3971 25.7609 26.1673 0.919488 7.08627 70.5346
4524525 8.20933 10.3326 25.7116 26.1673 0.91556 7.10095 70.4209
4524535 8.21813 10.3787 25.692 26.1284 0.921986 7.07716 70.4171
4524545 8.21813 10.3787 25.692 26.1284 0.921986 7.07716 70.4171
4524556 8.20933 10.2958 25.6624 26.1284 0.907734 7.10263 70.2959
4524566 8.17409 10.305 25.7215 26.1284 0.902107 7.11743 70.3289
4524578 8.17409 10.305 25.7215 26.1284 0.902107 7.11743 70.3289
4524586 8.21813 10.3326 25.7609 26.1479 0.887555 7.10152 70.4595
4524601 8.15648 10.3234 25.6132 26.0797 0.93818 7.09955 70.1727
4524606 8.15648 10.3234 25.6132 26.0797 0.93818 7.09955 70.1727
4524617 8.25337 10.4431 25.6427 26.1771 0.965768 7.04589 70.5163
4524627 8.25337 10.4431 25.6427 26.1771 0.965768 7.04589 70.5163
4524636 8.17409 10.3694 25.6427 26.0991 0.943214 7.08504 70.2854
4524648 8.19171 10.4339 25.6034 26.0797 0.966629 7.05263 70.3086
4524666 8.19171 10.4339 25.6034 26.0797 0.966629 7.05263 70.3086
4524669 8.22694 10.4707 25.623 26.0991 0.965601 7.03448 70.4199
4524694 8.27979 10.4892 25.6132 26.0407 0.936079 7.00446 70.4229
4524697 8.34145 10.5168 25.5935 26.0115 0.920087 6.97103 70.4632
4524707 8.34145 10.5168 25.5935 26.0115 0.920087 6.97103 70.4632
4524722 8.30622 10.5168 25.5738 26.0212 0.943634 6.98089 70.418
4524731 8.27098 10.4707 25.5837 26.0212 0.93725 7.00741 70.3466
4524740 8.27098 10.4707 25.5837 26.0212 0.93725 7.00741 70.3466
4524756 8.33264 10.5444 25.4655 25.8946 0.939953 6.93715 70.2372
4524759 8.29741 10.4707 25.6132 25.9627 0.896624 6.99585 70.3441
4524769 8.29741 10.4707 25.6132 25.9627 0.896624 6.99585 70.3441
4524779 8.30622 10.4523 25.4951 26.0017 0.943971 6.98984 70.2553
4524789 8.30622 10.4523 25.4951 26.0017 0.943971 6.98984 70.2553
4524800 8.27098 10.3694 25.564 26.0212 0.909811 7.03691 70.2256
4524809 8.2886 10.3787 25.623 26.0504 0.894728 7.0385 70.3407
4524822 8.2886 10.3787 25.623 26.0504 0.894728 7.0385 70.3407
4524830 8.26218 10.3879 25.623 26.0504 0.907618 7.0439 70.3235
4524845 8.25337 10.3234 25.6723 26.0309 0.863943 7.07024 70.28
4524849 8.25337 10.3234 25.6723 26.0309 0.863943 7.07024 70.28
4524860 8.22694 10.3142 25.7904 26.0407 0.830427 7.09583 70.3722
4524870 8.22694 10.3142 25.7904 26.0407 0.830427 7.09583 70.3722
4524880 8.21813 10.2313 25.8101 26.0797 0.811338 7.13122 70.3392
4524890 8.23575 10.2497 25.8396 26.1089 0.810421 7.12646 70.434
4524900 8.23575 10.2497 25.8396 26.1089 0.810421 7.12646 70.434
4524911 8.21813 10.2405 25.8494 26.1381 0.820148 7.13926 70.4462
4524920 8.19171 10.2497 25.9085 26.0894 0.794622 7.14582 70.4393
4524931 8.19171 10.2497 25.9085 26.0894 0.794622 7.14582 70.4393
4524941 8.2886 10.3142 25.8396 26.0407 0.789788 7.08202 70.4831
4524952 8.26218 10.3142 25.7313 25.9822 0.819081 7.07154 70.2899
4524961 8.26218 10.2958 25.7313 25.9822 0.812739 7.07732 70.2715
4524971 8.26218 10.351 25.751 25.8458 0.777552 7.04678 70.2101
4524981 8.26218 10.351 25.751 25.8458 0.777552 7.04678 70.2101
4524994 8.31503 10.3971 25.623 25.8848 0.834453 7.00565 70.22
4525001 8.35026 10.4892 25.6526 25.7971 0.812167 6.95917 70.2891
4525014 8.35026 10.4892 25.6526 25.7971 0.812167 6.95917 70.2891
4525021 8.35907 10.48 25.5049 25.7679 0.850025 6.93901 70.1119
4525032 8.35907 10.48 25.5049 25.7679 0.850025 6.93901 70.1119
4525041 8.36788 10.48 25.6132 25.7484 0.800216 6.94646 70.2095
4525056 8.42953 10.5168 25.5738 25.7971 0.821477 6.91678 70.3173
4525061 8.42953 10.5168 25.5738 25.7971 0.821477 6.91678 70.3173
4525071 8.43834 10.5997 25.5246 25.8751 0.891495 6.89155 70.4377
4525081 8.43834 10.6089 25.5049 25.7387 0.855124 6.87068 70.2908
4525091 8.43834 10.6089 25.5049 25.7387 0.855124 6.87068 70.2908
4525107 8.50881 10.7286 25.5049 25.7874 0.886956 6.81732 70.5297
4525122 8.44715 10.701 25.4852 25.7095 0.880706 6.83365 70.3428
4525134 8.49119 10.7654 25.3868 25.6997 0.919479 6.78742 70.3431
4525142 8.49119 10.7654 25.3868 25.6997 0.919479 6.78742 70.3431
4525155 8.53523 10.8391 25.3277 25.6315 0.926888 6.73609 70.3336
4525162 8.53523 10.9128 25.2884 25.5926 0.953284 6.70412 70.3289
4525172 8.53523 10.9128 25.2884 25.5926 0.953284 6.70412 70.3289
4525182 8.56166 11.0325 25.2293 25.5146 0.979614 6.64286 70.3381
4525193 8.56166 11.0325 25.2293 25.5146 0.979614 6.64286 70.3381
4525203 8.56166 10.9865 25.1998 25.4172 0.941432 6.64195 70.1651
4525213 8.61451 11.0141 25.1702 25.3295 0.912204 6.60314 70.1283
4525222 8.61451 11.0141 25.1702 25.3295 0.912204 6.60314 70.1283
4525235 8.64974 11.0141 25.1506 25.3587 0.916496 6.59344 70.1731
4525243 8.64974 11.0785 25.2096 25.3393 0.910127 6.57836 70.2772
4525254 8.64974 11.0785 25.2096 25.3393 0.910127 6.57836 70.2772
4525263 8.69378 11.1246 25.249 25.2516 0.865129 6.54493 70.3189
4525276 8.69378 11.1246 25.249 25.2516 0.865129 6.54493 70.3189
4525284 8.64974 11.1338 25.2884 25.2516 0.870004 6.56034 70.3235
4525299 8.62332 11.2259 25.1801 25.2418 0.947878 6.52602 70.2711
4525304 8.62332 11.2259 25.1801 25.2418 0.947878 6.52602 70.2711
4525314 8.65855 11.2443 25.2096 25.1736 0.906935 6.50493 70.2861
4525324 8.68497 11.2719 25.2293 25.1834 0.902751 6.49196 70.3696
4525334 8.68497 11.2719 25.2293 25.1834 0.902751 6.49196 70.3696
4525345 8.73782 11.364 25.1899 25.1249 0.909305 6.4359 70.4167
4525356 8.73782 11.364 25.1899 25.1249 0.909305 6.4359 70.4167
4525374 8.73782 11.364 25.1013 25.086 0.928605 6.42036 70.2891
4525375 8.72021 11.4285 25.1013 25.0567 0.947165 6.40252 70.3068
4525391 8.72021 11.4285 25.1013 25.0567 0.947165 6.40252 70.3068
4525396 8.72021 11.4469 25.062 25.0178 0.954673 6.38732 70.2468
4525405 8.76425 11.5022 25.0718 24.9788 0.940356 6.35355 70.317
4525426 8.78187 11.5206 25.0718 24.9691 0.936824 6.34141 70.3433
4525436 8.83471 11.539 25.0521 24.8619 0.894207 6.30415 70.2877
4525446 8.83471 11.539 25.0521 24.8619 0.894207 6.30415 70.2877
4525460 8.76425 11.5482 25.0816 24.8521 0.909111 6.32518 70.2463
4525466 8.76425 11.5482 25.0816 24.8521 0.909111 6.32518 70.2463
4525476 8.79067 11.5574 25.0127 24.7742 0.901201 6.29618 70.135
4525486 8.77306 11.5574 25.0029 24.8229 0.928068 6.30635 70.1563
4525502 8.77306 11.5574 25.0029 24.8229 0.928068 6.30635 70.1563
4525506 8.76425 11.585 24.9537 24.7645 0.938949 6.28727 70.0674
4525516 8.75544 11.5666 24.934 24.745 0.936481 6.29067 70.001
4525526 8.75544 11.5666 24.934 24.745 0.936481 6.29067 70.001
4525536 8.79067 11.6035 24.8454 24.667 0.942132 6.24797 69.9066
4525552 8.79067 11.6035 24.8454 24.667 0.942132 6.24797 69.9066
4525558 8.8171 11.6587 24.7765 24.5599 0.940028 6.20104 69.8122
4525568 8.82591 11.7508 24.8356 24.5501 0.943184 6.17667 69.9624
4525577 8.82591 11.7508 24.8356 24.5501 0.943184 6.17667 69.9624
4525587 8.88756 11.8153 24.806 24.4527 0.919938 6.12248 69.9616
4525598 8.87876 11.8797 24.8454 24.443 0.927439 6.10946 70.0469
4525617 8.9228 11.9258 24.8552 24.4917 0.940034 6.08978 70.1955
4525629 8.9228 11.9258 24.8552 24.4917 0.940034 6.08978 70.1955
4525639 8.9228 11.8889 24.8552 24.4527 0.914019 6.0959 70.1197
4525649 8.95803 11.9902 24.806 24.4527 0.953934 6.04864 70.207
4525659 8.95803 11.9902 24.806 24.4527 0.953934 6.04864 70.207
4525669 8.97565 12.0271 24.8552 24.365 0.911823 6.02742 70.223
4525679 9.03731 12.0731 24.7666 24.2189 0.887388 5.96506 70.096
4525689 9.03731 12.0731 24.7666 24.2189 0.887388 5.96506 70.096
4525699 9.01088 12.1376 24.7666 24.0825 0.872383 5.93606 69.9976
4525709 9.01088 12.1376 24.7666 24.0825 0.872383 5.93606 69.9976
4525719 9.01969 12.1652 24.6091 24.0533 0.926909 5.90091 69.8474
4525729 9.01088 12.1652 24.6584 23.9461 0.874925 5.89599 69.7806
4525739 9.01088 12.1652 24.6584 23.9461 0.874925 5.89599 69.7806
4525749 9.08135 12.2481 24.7174 23.9461 0.855607 5.85789 69.993
4525759 9.1342 12.1928 24.6781 23.9461 0.831553 5.85347 69.9512
4525776 9.1342 12.1928 24.6781 23.9461 0.831553 5.85347 69.9512
4525785 9.12539 12.2757 24.7863 23.9559 0.826839 5.84683 70.1433
4525790 9.12539 12.2757 24.7863 23.9559 0.826839 5.84683 70.1433
4525800 9.16943 12.2389 24.7765 23.9266 0.79146 5.83959 70.1115
4525810 9.12539 12.2665 24.8356 23.9364 0.798836 5.85345 70.1638
4525830 9.17824 12.2573 24.8946 24.0046 0.778082 5.85706 70.3347
4525842 9.20466 12.1468 24.9438 24.063 0.732446 5.89598 70.3583
4525850 9.20466 12.1468 24.9438 24.063 0.732446 5.89598 70.3583
4525862 9.17824 12.1008 24.9734 24.0923 0.725511 5.92511 70.3446
4525872 9.17824 12.1008 24.9734 24.0923 0.725511 5.92511 70.3446
4525885 9.16943 12.0915 24.9635 24.2579 0.786182 5.95051 70.4824
4525891 9.12539 11.9995 24.9931 24.1897 0.736302 5.9861 70.3076
4525901 9.12539 11.9995 24.9931 24.1897 0.736302 5.9861 70.3076
4525911 9.0285 11.8982 24.8946 24.1605 0.76288 6.02909 69.9817
4525921 9.05492 11.9074 24.9143 24.2189 0.769326 6.0284 70.0955
4525931 9.05492 11.9074 24.9143 24.2189 0.769326 6.0284 70.0955
4525941 9.01969 11.8705 24.9438 24.2774 0.778893 6.06127 70.1114
4525961 9.01969 11.8521 24.9537 24.2092 0.745317 6.05937 70.0346
4525974 8.99326 11.7784 24.9635 24.3358 0.769743 6.10687 70.071
4525981 8.99326 11.7784 24.9635 24.3358 0.769743 6.10687 70.071
4525992 8.96684 11.6771 24.9438 24.3358 0.751635 6.14292 69.9236
4526002 8.9228 11.6311 25.0816 24.5501 0.775367 6.21449 70.1857
4526025 8.87876 11.6127 25.2293 24.6768 0.774676 6.26755 70.3975
4526033 8.87876 11.6127 25.2293 24.6768 0.774676 6.26755 70.3975
4526044 8.82591 11.5022 25.3179 24.8424 0.780547 6.34833 70.4884
4526054 8.80829 11.4469 25.2687 24.9106 0.809458 6.37275 70.4345
4526064 8.80829 11.4469 25.2687 24.9106 0.809458 6.37275 70.4345
4526076 8.69378 11.4193 25.2588 24.9009 0.842264 6.41357 70.2728
4526084 8.70259 11.2719 25.2884 24.8911 0.77405 6.45828 70.154
4526095 8.70259 11.2719 25.2884 24.8911 0.77405 6.45828 70.154
4526105 8.7114 11.2443 25.3474 24.9398 0.756416 6.47713 70.243
4526115 8.72021 11.2259 25.3671 24.9885 0.756422 6.48836 70.3018
4526125 8.72021 11.2259 25.3671 24.9885 0.756422 6.48836 70.3018
4526135 8.72021 11.1522 25.377 25.1054 0.767717 6.5262 70.3548
4526155 8.61451 11.0878 25.4163 25.1736 0.79332 6.59128 70.2922
4526166 8.6057 11.0785 25.4163 25.2321 0.813493 6.6038 70.3327
4526181 8.6057 11.0785 25.4163 25.2321 0.813493 6.6038 70.3327
4526186 8.6057 11.0325 25.377 25.2711 0.825524 6.6179 70.2862
4526196 8.61451 11.0049 25.4262 25.31 0.808117 6.63419 70.3556
4526206 8.61451 11.0049 25.4262 25.31 0.808117 6.63419 70.3556
4526216 8.64974 11.0141 25.4655 25.3587 0.800678 6.631 70.4881
4526226 8.64974 11.0141 25.4655 25.3587 0.800678 6.631 70.4881
4526236 8.6057 11.0417 25.3671 25.3587 0.862417 6.62434 70.3733
4526246 8.65855 10.9496 25.3573 25.3977 0.828385 6.63987 70.3631
4526266 8.61451 11.0325 25.3966 25.4074 0.861874 6.63377 70.4511
4526276 8.61451 10.9036 25.4262 25.4659 0.826868 6.68384 70.4102
4526294 8.61451 10.9036 25.4262 25.4659 0.826868 6.68384 70.4102
4526299 8.58808 10.9036 25.3868 25.5244 0.871077 6.69423 70.4028
4526321 8.57047 10.8667 25.3868 25.5049 0.858235 6.70872 70.3289
4526328 8.57047 10.8391 25.3376 25.612 0.903612 6.72408 70.3592
4526342 8.57047 10.8391 25.3376 25.612 0.903612 6.72408 70.3592
4526349 8.56166 10.8759 25.2687 25.5731 0.931525 6.70271 70.2793
4526364 8.54404 10.8852 25.2785 25.5536 0.930873 6.70417 70.2613
4526368 8.54404 10.8852 25.2785 25.5536 0.930873 6.70417 70.2613
4526378 8.55285 10.9496 25.3966 25.5926 0.9195 6.70009 70.4917
4526388 8.55285 10.9496 25.3966 25.5926 0.9195 6.70009 70.4917
4526399 8.52642 10.8759 25.2588 25.6023 0.958177 6.71588 70.2635
4526408 8.53523 10.9036 25.3868 25.6315 0.927183 6.72313 70.4571
4526417 8.53523 10.9036 25.3868 25.6315 0.927183 6.72313 70.4571
4526428 8.47358 10.9128 25.3376 25.7192 1.0011 6.74383 70.4431
4526437 8.51762 10.7931 25.2884 25.6315 0.932145 6.75116 70.2306
4526448 8.51762 10.7931 25.2884 25.6315 0.932145 6.75116 70.2306
4526458 8.48238 10.8391 25.3573 25.6705 0.948817 6.76047 70.3493
4526467 8.48238 10.8391 25.3573 25.6705 0.948817 6.76047 70.3493
4526477 8.47358 10.7194 25.3179 25.651 0.918919 6.79342 70.1619
4526489 8.43834 10.7931 25.2785 25.6315 0.965092 6.77459 70.1414
4526499 8.43834 10.7931 25.2785 25.6315 0.965092 6.77459 70.1414
4526515 8.42073 10.7839 25.3671 25.6607 0.945705 6.7967 70.2324
4526519 8.45596 10.7378 25.377 25.69 0.9233 6.80462 70.2607
4526530 8.45596 10.7378 25.377 25.69 0.9233 6.80462 70.2607
4526540 8.49119 10.7931 25.3966 25.69 0.921974 6.77887 70.3709
4526549 8.49119 10.7931 25.3966 25.69 0.921974 6.77887 70.3709
4526566 8.3943 10.6918 25.4557 25.7289 0.914571 6.85177 70.2707
4526569 8.45596 10.7378 25.3671 25.7484 0.946945 6.81028 70.3093
4526579 8.45596 10.7378 25.3671 25.7484 0.946945 6.81028 70.3093
4526597 8.37668 10.701 25.377 25.6997 0.943294 6.84185 70.1543
4526599 8.37668 10.701 25.377 25.6997 0.943294 6.84185 70.1543
4526612 8.3943 10.7378 25.4852 25.7582 0.92946 6.84427 70.3755
4526619 8.42953 10.7194 25.4163 25.7387 0.9289 6.82879 70.3039
4526633 8.42953 10.7194 25.4163 25.7387 0.9289 6.82879 70.3039
4526638 8.38549 10.7378 25.4459 25.7484 0.943893 6.84132 70.3176
4526657 8.48238 10.7286 25.4951 25.69 0.86692 6.81304 70.396
4526660 8.48238 10.7286 25.4951 25.69 0.86692 6.81304 70.396
4526669 8.47358 10.7562 25.4655 25.6607 0.880468 6.80037 70.3561
4526690 8.42953 10.701 25.4754 25.7289 0.897491 6.84024 70.3348
4526700 8.45596 10.6918 25.5345 25.6607 0.839493 6.83384 70.3429
4526709 8.45596 10.6918 25.5345 25.6607 0.839493 6.83384 70.3429
4526719 8.45596 10.6089 25.4951 25.7289 0.848919 6.86293 70.2889
4526729 8.43834 10.6733 25.5148 25.7679 0.883645 6.85516 70.3944
4526740 8.43834 10.6733 25.5148 25.7679 0.883645 6.85516 70.3944
4526749 8.3943 10.6181 25.6034 25.8166 0.865033 6.90185 70.4324
4526770 8.42073 10.5352 25.5541 25.7971 0.838277 6.91152 70.3072
4526780 8.38549 10.572 25.5049 25.7582 0.868621 6.90087 70.2206
4526802 8.37668 10.4984 25.5049 25.7289 0.836453 6.92326 70.1089
4526810 8.40311 10.48 25.5837 25.8653 0.838348 6.94547 70.3321
4526832 8.34145 10.4615 25.5837 25.9238 0.874764 6.97716 70.3104
4526841 8.34145 10.4615 25.5837 25.9238 0.874764 6.97716 70.3104
4526851 8.38549 10.4339 25.6427 25.9433 0.834081 6.98098 70.4054
4526861 8.35907 10.3879 25.7018 26.0212 0.833055 7.01918 70.4699
4526873 8.35907 10.3879 25.7018 26.0212 0.833055 7.01918 70.4699
4526881 8.27098 10.3142 25.7707 26.1868 0.871572 7.0962 70.5427
4526894 8.22694 10.2037 25.8002 26.2063 0.845721 7.15018 70.4372
4526901 8.22694 10.2037 25.8002 26.2063 0.845721 7.15018 70.4372
4526915 8.19171 10.13 25.8987 26.3232 0.837368 7.20834 70.5436
4526921 8.19171 10.13 25.8987 26.3232 0.837368 7.20834 70.5436
4526931 8.14767 10.0287 25.9085 26.3719 0.831875 7.26063 70.4568
4526941 8.09482 9.89978 26.0069 26.4499 0.797671 7.33744 70.4514
4526951 8.09482 9.89978 26.0069 26.4499 0.797671 7.33744 70.4514
4526962 8.09482 9.89057 25.938 26.4596 0.823107 7.33392 70.383
4526971 8.04197 9.84453 25.9676 26.5668 0.852638 7.38017 70.4208
4526991 8.06839 9.78927 25.9774 26.635 0.843772 7.39776 70.47
4527011 8.05078 9.82611 25.9282 26.5862 0.864232 7.38107 70.3913
4527025 8.01554 9.78006 25.8888 26.5668 0.869188 7.40058 70.2512
4527033 8.01554 9.78006 25.8888 26.5668 0.869188 7.40058 70.2512
4527047 8.12124 9.84453 25.9479 26.557 0.827444 7.35181 70.4707
4527053 8.05078 9.89057 25.8987 26.5083 0.870469 7.34892 70.3483
4527073 8.06839 9.99187 25.8396 26.4596 0.903741 7.29943 70.3595
4527082 8.06839 9.99187 25.8396 26.4596 0.903741 7.29943 70.3595
4527093 8.04197 9.95504 25.8494 26.4401 0.890544 7.31844 70.2866
4527102 8.09482 10.0379 25.8396 26.3524 0.873068 7.26471 70.3248
4527113 8.09482 10.0379 25.8396 26.3524 0.873068 7.26471 70.3248
4527124 8.08601 10.084 25.7116 26.3427 0.935933 7.23774 70.2243
4527136 8.15648 10.13 25.6526 26.2648 0.92079 7.18569 70.2038
4527144 8.15648 10.13 25.6526 26.2648 0.92079 7.18569 70.2038
4527158 8.19171 10.2129 25.6427 26.1868 0.913113 7.13861 70.2342
4527174 8.17409 10.2866 25.623 26.1576 0.942117 7.11547 70.2413
4527184 8.23575 10.3326 25.6329 26.1868 0.941494 7.08601 70.3881
4527194 8.23575 10.3326 25.6329 26.1868 0.941494 7.08601 70.3881
4527204 8.19171 10.3879 25.5837 26.1673 0.988129 7.07475 70.3306
4527214 8.19171 10.3879 25.6427 26.1381 0.956339 7.07812 70.3604
4527224 8.19171 10.3879 25.6427 26.1381 0.956339 7.07812 70.3604
4527234 8.26218 10.4247 25.6034 26.1381 0.957456 7.04005 70.4283
4527244 8.26218 10.4247 25.6034 26.1381 0.957456 7.04005 70.4283
4527254 8.23575 10.3326 25.5246 26.1673 0.974798 7.07161 70.2603
4527264 8.24456 10.3326 25.4951 26.1771 0.985792 7.06661 70.2493
4527274 8.24456 10.3326 25.4951 26.1771 0.985792 7.06661 70.2493
4527283 8.29741 10.305 25.436 26.1576 0.971976 7.04981 70.196
4527299 8.22694 10.3602 25.4459 26.255 1.04657 7.06671 70.2881
4527305 8.22694 10.3602 25.4459 26.255 1.04657 7.06671 70.2881
4527318 8.26218 10.3602 25.3966 26.3135 1.07166 7.0567 70.3325
4527343 8.19171 10.2866 25.5049 26.3524 1.04583 7.11853 70.3356
4527345 8.22694 10.2589 25.4754 26.4791 1.0774 7.12701 70.4404
4527355 8.22694 10.2589 25.4754 26.4791 1.0774 7.12701 70.4404
4527365 8.24456 10.351 25.4262 26.4888 1.12364 7.08817 70.5106
4527375 8.20933 10.2221 25.3671 26.5278 1.12812 7.13747 70.3263
4527389 8.20933 10.2221 25.3671 26.5278 1.12812 7.13747 70.3263
4527395 8.20052 10.2405 25.4065 26.635 1.15932 7.1508 70.4825
4527413 8.20052 10.2405 25.4065 26.635 1.15932 7.1508 70.4825
4527416 8.11244 10.1116 25.4163 26.6447 1.14801 7.22138 70.2851
4527426 8.17409 10.1116 25.4557 26.7519 1.14679 7.21811 70.4933
4527446 8.13005 10.0932 25.4655 26.7421 1.14996 7.23783 70.4309
4527462 8.1829 10.0471 25.3966 26.7713 1.15022 7.2313 70.398
4527466 8.1829 10.0471 25.3966 26.7713 1.15022 7.2313 70.398
4527476 8.11244 10.0932 25.4065 26.7616 1.18505 7.23903 70.3737
4527489 8.11244 10.0932 25.4065 26.7616 1.18505 7.23903 70.3737
4527496 8.08601 10.084 25.4163 26.7616 1.18811 7.25138 70.3479
4527512 8.13005 10.1024 25.4459 26.8103 1.18345 7.24026 70.4886
4527516 8.13005 10.1024 25.4459 26.8103 1.18345 7.24026 70.4886
4527526 8.11244 10.1116 25.3868 26.7421 1.19202 7.22889 70.3529
4527536 8.10363 10.0471 25.4065 26.7129 1.15622 7.25101 70.2701
4527548 8.10363 10.0471 25.4065 26.7129 1.15622 7.25101 70.2701
4527557 8.08601 10.084 25.3573 26.7713 1.21341 7.24594 70.2986
4527566 8.08601 10.084 25.3573 26.7713 1.21341 7.24594 70.2986
4527579 8.06839 10.0379 25.3966 26.7421 1.1798 7.26723 70.2451
4527586 8.05959 10.0195 25.4557 26.8201 1.18125 7.2909 70.3548
4527596 8.05959 10.0195 25.4557 26.8201 1.18125 7.2909 70.3548
4527606 8.10363 10.0655 25.4655 26.859 1.18997 7.26775 70.4937
4527626 8.04197 9.99187 25.4163 26.898 1.2195 7.30946 70.3482
4527636 8.08601 10.0011 25.5148 26.8298 1.14654 7.2959 70.4317
4527646 8.08601 10.0011 25.5148 26.8298 1.14654 7.2959 70.4317
4527657 8.11244 9.89057 25.4655 26.8103 1.1109 7.31504 70.2789
4527667 8.13005 9.96425 25.4459 26.7519 1.11684 7.27752 70.292
4527678 8.13005 9.96425 25.4459 26.7519 1.11684 7.27752 70.292
4527688 8.10363 9.94583 25.5345 26.7129 1.07425 7.29718 70.2968
4527698 8.08601 9.92741 25.5345 26.6642 1.05791 7.30328 70.2121
4527708 8.08601 9.92741 25.5345 26.6642 1.05791 7.30328 70.2121
4527718 8.06839 9.98267 25.4951 26.7713 1.13433 7.29876 70.3175
4527727 8.06839 9.98267 25.4951 26.7713 1.13433 7.29876 70.3175
4527738 8.11244 10.0011 25.6329 26.6934 1.0467 7.28553 70.4398
4527747 8.13005 10.0103 25.6034 26.6934 1.05424 7.27381 70.4371
4527762 8.13005 10.0103 25.6034 26.6934 1.05424 7.27381 70.4371
4527767 8.15648 10.0195 25.7609 26.8298 1.03579 7.29468 70.7666
4527782 8.16529 9.95504 25.6821 26.7908 1.02647 7.29941 70.5933
4527789 8.16529 9.95504 25.6821 26.7908 1.02647 7.29941 70.5933
4527802 8.14767 9.94583 25.692 26.859 1.04935 7.31638 70.6445
4527830 8.12124 9.89978 25.6821 26.7519 1.01068 7.32658 70.455
4527832 8.14767 9.93662 25.6132 26.6837 1.01569 7.29156 70.3812
4527850 8.13886 9.94583 25.5935 26.6057 1.00278 7.28073 70.2839
4527860 8.0772 9.9182 25.7018 26.635 0.986093 7.32411 70.3322
4527870 8.0772 9.9182 25.7018 26.635 0.986093 7.32411 70.3322
4527880 8.14767 9.93662 25.6329 26.6252 0.988477 7.28732 70.3424
4527890 8.14767 9.93662 25.6329 26.6252 0.988477 7.28732 70.3424
4527900 8.0772 9.90899 25.6427 26.596 0.991476 7.31632 70.2249
4527910 8.13005 9.87216 25.7215 26.635 0.943586 7.3241 70.3586
4527939 8.13005 9.87216 25.7215 26.635 0.943586 7.3241 70.3586
4527943 8.16529 9.87216 25.7707 26.596 0.899154 7.31404 70.4041
4527944 8.13886 9.89978 25.7609 26.6934 0.95523 7.32321 70.4929
4527966 8.14767 10.0195 25.7904 26.5668 0.938755 7.27195 70.5243
4527972 8.20052 10.0195 25.7805 26.5668 0.922948 7.2542 70.5673
4527981 8.20052 9.98267 25.7805 26.5181 0.893724 7.26047 70.4818
4527991 8.16529 9.93662 25.8101 26.4888 0.870049 7.28621 70.4008
4528001 8.16529 9.93662 25.8101 26.4888 0.870049 7.28621 70.4008
4528012 8.13886 10.0103 25.8298 26.4206 0.874403 7.26594 70.3995
4528023 8.20933 10.0011 25.7707 26.4011 0.860375 7.23793 70.3823
4528035 8.20933 10.0011 25.7707 26.4011 0.860375 7.23793 70.3823
4528041 8.20933 10.0103 25.7412 26.3817 0.867704 7.2296 70.3425
4528051 8.20933 10.0103 25.7412 26.3817 0.867704 7.2296 70.3425
4528061 8.19171 10.0195 25.751 26.3232 0.853658 7.22689 70.2854
4528071 8.21813 10.0471 25.7215 26.3524 0.87432 7.20978 70.3392
4528082 8.21813 10.0471 25.7215 26.3524 0.87432 7.20978 70.3392
4528092 8.20933 10.0471 25.751 26.333 0.860009 7.21367 70.3404
4528103 8.24456 10.1208 25.8002 26.3817 0.870931 7.19019 70.5473
4528123 8.25337 10.1024 25.7805 26.4109 0.878617 7.19427 70.5472
4528146 8.21813 10.1392 25.7313 26.294 0.882229 7.17534 70.3827
4528154 8.26218 10.084 25.7313 26.3427 0.863796 7.18428 70.4202
4528169 8.26218 10.084 25.7313 26.3427 0.863796 7.18428 70.4202
4528174 8.26218 10.084 25.692 26.255 0.848183 7.17015 70.2931
4528185 8.27098 10.1484 25.6821 26.2745 0.877371 7.14814 70.376
4528195 8.27098 10.1484 25.6821 26.2745 0.877371 7.14814 70.376
4528207 8.30622 10.1668 25.7116 26.1771 0.826466 7.12368 70.3618
4528215 8.29741 10.13 25.6821 26.2258 0.844628 7.14019 70.3353
4528235 8.30622 10.2037 25.7313 26.1868 0.835234 7.1154 70.428
4528249 8.30622 10.2037 25.7313 26.1868 0.835234 7.1154 70.428
4528255 8.29741 10.1853 25.7215 26.2258 0.849128 7.12721 70.4299
4528265 8.27979 10.1208 25.8101 26.2063 0.79428 7.16073 70.417
4528277 8.27979 10.1208 25.8101 26.2063 0.79428 7.16073 70.417
4528287 8.30622 10.084 25.8199 26.2648 0.788432 7.1716 70.4749
4528298 8.33264 10.0655 25.8101 26.255 0.772688 7.1669 70.4633
4528305 8.33264 10.0655 25.8101 26.255 0.772688 7.1669 70.4633
4528315 8.27979 10.0655 25.9577 26.3037 0.754797 7.20528 70.6068
4528325 8.27979 10.0655 25.9577 26.3037 0.754797 7.20528 70.6068
4528335 8.25337 10.0195 25.8199 26.1966 0.762126 7.20101 70.2894
4528347 8.26218 9.98267 25.879 26.1673 0.714472 7.21317 70.2912
4528355 8.26218 9.98267 25.879 26.1673 0.714472 7.21317 70.2912
4528373 8.29741 10.0287 25.8298 26.1966 0.745571 7.18529 70.3524
4528375 8.29741 10.0287 25.8298 26.1966 0.745571 7.18529 70.3524
4528385 8.2886 9.94583 25.8987 26.2063 0.698349 7.22295 70.3394
4528397 8.21813 9.99187 25.8987 26.3037 0.773585 7.24142 70.4124
4528405 8.21813 9.99187 25.8987 26.3037 0.773585 7.24142 70.4124
4528422 8.26218 9.93662 25.9184 26.3135 0.734609 7.2482 70.4306
4528425 8.26218 9.89978 25.8987 26.4109 0.762656 7.26838 70.4715
4528447 8.1829 9.84453 25.9085 26.4304 0.775757 7.31418 70.3663
4528456 8.1829 9.84453 25.9085 26.4304 0.775757 7.31418 70.3663
4528472 8.1829 9.88136 25.879 26.4596 0.8093 7.30247 70.4028
4528476 8.13005 9.82611 25.938 26.5862 0.831529 7.35696 70.4805
4528496 8.10363 9.77086 25.8494 26.5473 0.841403 7.36907 70.2712
4528506 8.13886 9.76165 25.9479 26.557 0.792524 7.37253 70.4054
4528526 8.15648 9.80769 25.938 26.6155 0.825554 7.35759 70.5177
4528537 8.15648 9.80769 25.938 26.6155 0.825554 7.35759 70.5177
4528548 8.09482 9.72481 25.8888 26.596 0.831085 7.39609 70.3044
4528561 8.11244 9.75244 25.9774 26.5668 0.791571 7.38811 70.409
4528572 8.11244 9.75244 25.9774 26.5668 0.791571 7.38811 70.409
4528576 8.12124 9.79848 25.879 26.596 0.850293 7.36318 70.3947
4528586 8.13005 9.79848 25.8987 26.6447 0.856537 7.36779 70.4719
4528597 8.13005 9.79848 25.8987 26.6447 0.856537 7.36779 70.4719
4528606 8.10363 9.77086 25.9873 26.6642 0.830954 7.39663 70.5259
4528626 8.09482 9.75244 25.9282 26.7129 0.866213 7.40417 70.4883
4528650 8.09482 9.80769 25.9085 26.7032 0.889012 7.38344 70.5142
4528651 8.09482 9.80769 25.9085 26.7032 0.889012 7.38344 70.5142
4528657 8.05959 9.78006 25.938 26.7032 0.881654 7.4066 70.4808
4528668 8.03316 9.77086 25.9479 26.7421 0.897923 7.42318 70.494
4528680 8.03316 9.77086 25.9479 26.7421 0.897923 7.42318 70.494
4528687 8.09482 9.74323 25.9282 26.6934 0.856385 7.405 70.4597
4528700 8.09482 9.74323 25.9282 26.6934 0.856385 7.405 70.4597
4528709 8.02435 9.70639 25.879 26.7324 0.901109 7.43807 70.3421
4528722 7.99793 9.73402 25.879 26.7324 0.920302 7.43768 70.3433
4528729 7.99793 9.73402 25.879 26.7324 0.920302 7.43768 70.3433
4528739 7.9715 9.65114 25.8593 26.7421 0.912246 7.47154 70.2241
4528749 8.00674 9.69718 25.9479 26.7519 0.885755 7.45611 70.4037
4528759 8.00674 9.69718 25.9479 26.7519 0.885755 7.45611 70.4037
4528769 8.02435 9.69718 25.8888 26.7616 0.90434 7.4452 70.372
4528779 8.02435 9.69718 25.8888 26.7616 0.90434 7.4452 70.372
4528790 8.03316 9.63272 25.938 26.7713 0.864249 7.46928 70.3753
4528799 8.03316 9.68797 25.9971 26.8493 0.888154 7.46631 70.5675
4528815 8.03316 9.68797 25.9971 26.8493 0.888154 7.46631 70.5675
4528819 8.03316 9.74323 25.9676 26.8688 0.924501 7.44766 70.6127
4528829 7.96269 9.66956 25.9184 26.8395 0.933385 7.4852 70.3902
4528841 7.96269 9.66956 25.9184 26.8395 0.933385 7.4852 70.3902
4528849 7.9715 9.7156 25.9085 26.8688 0.959474 7.46977 70.4644
4528870 7.99793 9.66035 25.9282 26.898 0.933617 7.48419 70.4845
4528884 8.05959 9.73402 25.8987 26.859 0.933644 7.43376 70.5513
4528890 8.05959 9.73402 25.8987 26.859 0.933644 7.43376 70.5513
4528908 8.03316 9.73402 25.8691 26.8395 0.947583 7.43691 70.4759
4528910 8.03316 9.69718 25.8987 26.8298 0.920802 7.45076 70.4588
4528920 8.03316 9.69718 25.8987 26.8298 0.920802 7.45076 70.4588
4528932 7.98912 9.75244 25.9184 26.9175 0.978512 7.45868 70.5774
4528940 7.98912 9.75244 25.9184 26.9175 0.978512 7.45868 70.5774
4528954 8.00674 9.66956 25.8691 26.8298 0.931963 7.46484 70.3752
4528960 7.95389 9.68797 25.9085 26.8883 0.963187 7.48628 70.4386
4528981 7.98031 9.7156 25.8691 26.9272 0.990668 7.469 70.4923
4528990 7.93627 9.6143 25.8101 26.9175 0.990862 7.50809 70.2781
4529004 7.93627 9.6143 25.8101 26.9175 0.990862 7.50809 70.2781
4529011 7.95389 9.6143 25.8888 26.937 0.961927 7.51292 70.394
4529020 7.95389 9.6143 25.8888 26.937 0.961927 7.51292 70.394
4529030 7.89223 9.59588 25.8593 26.937 0.989312 7.53542 70.2844
4529040 7.91865 9.60509 25.9282 26.9662 0.967231 7.53442 70.4181
4529051 7.91865 9.60509 25.9282 26.9662 0.967231 7.53442 70.4181
4529061 7.87461 9.59588 25.879 27.0344 1.02178 7.55348 70.3839
4529075 7.89223 9.54984 25.9282 27.0539 0.988042 7.56985 70.4241
4529097 7.90984 9.59588 25.8987 26.9954 0.988206 7.54015 70.3998
4529101 7.90984 9.59588 25.8987 26.9954 0.988206 7.54015 70.3998
4529111 7.83057 9.57747 25.938 27.1123 1.03649 7.58795 70.4584
4529121 7.89223 9.53142 25.9676 27.0734 0.973883 7.58195 70.4646
4529131 7.89223 9.53142 25.9676 27.0734 0.973883 7.58195 70.4646
4529141 7.90104 9.62351 25.9873 27.0831 0.998053 7.55277 70.5949
4529152 7.90104 9.59588 25.9971 27.0734 0.981718 7.56161 70.5674
4529163 7.90104 9.59588 25.9971 27.0734 0.981718 7.56161 70.5674
4529172 7.88342 9.52221 25.9971 27.0246 0.946483 7.58571 70.4274
4529185 7.88342 9.52221 25.9971 27.0246 0.946483 7.58571 70.4274
4529194 7.89223 9.60509 25.9676 27.0344 0.985709 7.55426 70.4993
4529205 7.87461 9.57747 25.9577 27.0149 0.979778 7.56564 70.4247
4529216 7.87461 9.57747 25.9577 27.0149 0.979778 7.56564 70.4247
4529225 7.91865 9.58667 25.9282 26.9954 0.970921 7.54341 70.4289
4529232 7.92746 9.54984 25.8888 27.0052 0.97295 7.54925 70.3713
4529242 7.92746 9.54984 25.8888 27.0052 0.97295 7.54925 70.3713
4529254 7.91865 9.55905 25.9479 26.9954 0.954232 7.55434 70.421
4529264 7.91865 9.55905 25.9479 26.9954 0.954232 7.55434 70.421
4529274 7.90104 9.48537 25.8888 26.9857 0.954008 7.57635 70.2609
4529284 7.9715 9.513 25.9577 27.0052 0.918746 7.55423 70.4474
4529294 7.9715 9.513 25.9577 27.0052 0.918746 7.55423 70.4474
4529304 7.8658 9.55905 25.8888 27.0734 1.02213 7.57327 70.387
4529314 7.89223 9.54984 26.0168 27.1026 0.971988 7.58431 70.5614
4529325 7.89223 9.54984 26.0168 27.1026 0.971988 7.58431 70.5614
4529335 7.98031 9.53142 26.0168 27.0928 0.930014 7.561 70.6214
4529345 7.90984 9.50379 25.9184 27.0636 0.97279 7.57895 70.3956
4529355 7.90984 9.50379 25.9184 27.0636 0.97279 7.57895 70.3956
4529365 7.94508 9.50379 25.9873 27.0246 0.921115 7.57082 70.4608
4529375 7.94508 9.50379 25.9873 27.0246 0.921115 7.57082 70.4608
4529385 7.88342 9.52221 25.9971 27.0441 0.953135 7.58776 70.4469
4529395 7.93627 9.54984 26.0562 27.1026 0.941321 7.57436 70.6449
4529407 7.93627 9.54984 26.0562 27.1026 0.941321 7.57436 70.6449
4529415 7.93627 9.49458 26.0069 27.0734 0.930604 7.58379 70.5112
4529428 7.93627 9.49458 26.0069 27.0734 0.930604 7.58379 70.5112
4529436 7.95389 9.47616 26.0069 27.0636 0.914511 7.58302 70.5006
4529451 7.9715 9.513 26.0562 27.0441 0.895894 7.56872 70.5848
4529460 7.9715 9.513 26.0562 27.0441 0.895894 7.56872 70.5848
4529466 7.8658 9.4117 26.0069 26.9564 0.888154 7.62075 70.2409
4529476 7.91865 9.53142 26.0168 26.9564 0.906104 7.56635 70.4233
4529486 7.91865 9.53142 26.0168 26.9564 0.906104 7.56635 70.4233
4529496 7.98912 9.54984 25.9774 26.9175 0.887632 7.52961 70.4339
4529518 7.91865 9.54063 26.0562 26.9467 0.891441 7.56653 70.4622
4529529 7.90104 9.58667 26.0266 26.8883 0.904533 7.54813 70.4026
4529540 7.90104 9.58667 26.0266 26.8883 0.904533 7.54813 70.4026
4529546 7.90984 9.55905 26.066 26.8395 0.860658 7.55317 70.3744
4529562 7.94508 9.65114 26.0365 26.8493 0.893441 7.51034 70.482
4529566 7.94508 9.65114 26.0365 26.8493 0.893441 7.51034 70.482
4529576 7.96269 9.58667 26.0069 26.7713 0.849018 7.51388 70.3277
4529597 8.00674 9.65114 25.9676 26.635 0.822577 7.46039 70.2604
4529608 8.01554 9.7156 25.9873 26.6837 0.850993 7.44434 70.4021
4529617 8.01554 9.7156 25.9873 26.6837 0.850993 7.44434 70.4021
4529627 8.00674 9.70639 25.9774 26.6252 0.834611 7.44275 70.3158
4529639 8.05078 9.69718 25.9873 26.6934 0.835082 7.44002 70.4286
4529647 8.05078 9.69718 25.9873 26.6934 0.835082 7.44002 70.4286
4529666 8.08601 9.76165 25.9971 26.6642 0.830647 7.40622 70.5089
4529669 8.01554 9.73402 26.0365 26.6057 0.812501 7.43538 70.3918
4529679 8.01554 9.73402 26.0365 26.6057 0.812501 7.43538 70.3918
4529689 8.10363 9.74323 26.0463 26.6837 0.806549 7.41386 70.5768
4529699 8.10363 9.74323 26.0463 26.6837 0.806549 7.41386 70.5768
4529709 8.06839 9.70639 26.0463 26.6057 0.780037 7.42841 70.4268
4529719 8.0772 9.74323 26.0463 26.6155 0.792819 7.41493 70.4822
4529729 8.0772 9.74323 26.0463 26.6155 0.792819 7.41493 70.4822
4529739 8.05959 9.75244 26.066 26.5765 0.781834 7.41552 70.4545
4529749 8.02435 9.75244 25.9479 26.5473 0.828025 7.41086 70.272
4529759 8.02435 9.74323 25.9479 26.5473 0.824857 7.4138 70.2627
4529770 8.05959 9.78006 25.9971 26.5668 0.813216 7.39825 70.4035
4529779 8.05959 9.78006 25.9971 26.5668 0.813216 7.39825 70.4035
4529796 8.10363 9.75244 26.0266 26.6155 0.793517 7.40148 70.4982
4529799 8.13005 9.75244 26.0562 26.5473 0.749618 7.38891 70.4859
4529809 8.13005 9.75244 26.0562 26.5473 0.749618 7.38891 70.4859
4529820 8.0772 9.74323 26.0069 26.6252 0.810578 7.41174 70.4526
4529829 8.0772 9.74323 26.0069 26.6252 0.810578 7.41174 70.4526
4529843 8.05078 9.68797 26.0365 26.596 0.780401 7.43778 70.3712
4529849 8.0772 9.72481 26.0562 26.6252 0.786233 7.42289 70.4834
4529866 8.0772 9.72481 26.0562 26.6252 0.786233 7.42289 70.4834
4529869 8.05078 9.73402 26.0069 26.5473 0.790304 7.41468 70.339
4529879 8.05959 9.72481 26.0168 26.5765 0.790355 7.41902 70.3777
4529889 8.05959 9.72481 26.0168 26.5765 0.790355 7.41902 70.3777
4529899 8.05078 9.72481 25.9971 26.6447 0.82424 7.42705 70.4174
4529911 8.05078 9.72481 25.9971 26.6447 0.82424 7.42705 70.4174
4529919 8.0772 9.65114 26.066 26.557 0.733796 7.44009 70.3514
4529933 8.05078 9.69718 26.0562 26.6447 0.793108 7.44219 70.4488
4529939 8.05078 9.69718 26.0562 26.6447 0.793108 7.44219 70.4488
4529949 8.09482 9.63272 26.0463 26.635 0.755069 7.4466 70.4088
4529959 8.06839 9.72481 26.0365 26.6934 0.820068 7.4309 70.5231
4529969 8.06839 9.72481 26.0365 26.6934 0.820068 7.4309 70.5231
4529979 8.04197 9.66956 26.0857 26.6642 0.782722 7.45905 70.4614
4529989 8.04197 9.66956 26.0857 26.6642 0.782722 7.45905 70.4614
4530002 7.96269 9.63272 26.0266 26.7226 0.84087 7.49606 70.3447
4530009 8.03316 9.65114 26.0562 26.7129 0.807169 7.46979 70.4534
4530019 8.03316 9.65114 26.0562 26.7129 0.807169 7.46979 70.4534
4530029 8.08601 9.69718 26.0168 26.6837 0.808004 7.43093 70.4837
4530049 8.04197 9.73402 25.9479 26.6837 0.862062 7.42582 70.4075
4530060 8.08601 9.73402 26.0266 26.6447 0.80367 7.41608 70.4914
4530070 8.08601 9.73402 26.0266 26.6447 0.80367 7.41608 70.4914
4530080 8.04197 9.72481 25.9085 26.6057 0.846624 7.41611 70.281
4530090 8.0772 9.69718 25.8888 26.6057 0.83141 7.41156 70.2689
4530105 8.0772 9.69718 25.8888 26.6057 0.83141 7.41156 70.2689
4530120 8.0772 9.75244 25.8987 26.6057 0.846779 7.39502 70.334
4530132 8.10363 9.70639 25.8987 26.6642 0.841331 7.40758 70.3729
4530140 8.06839 9.73402 25.9676 26.6934 0.848478 7.42057 70.4634
4530158 8.06839 9.73402 25.9676 26.6934 0.848478 7.42057 70.4634
4530161 8.05078 9.77086 26.0266 26.6642 0.83589 7.41767 70.5125
4530170 8.11244 9.74323 25.9479 26.6252 0.819311 7.39416 70.4288
4530183 8.11244 9.74323 25.9479 26.6252 0.819311 7.39416 70.4288
4530191 8.14767 9.73402 25.879 26.5668 0.808412 7.3721 70.3274
4530208 8.14767 9.73402 25.879 26.5668 0.808412 7.3721 70.3274
4530212 8.0772 9.74323 25.8396 26.596 0.861993 7.3905 70.256
4530221 8.08601 9.70639 25.938 26.6544 0.830001 7.41638 70.3849
4530241 8.05959 9.66956 25.9282 26.7324 0.857422 7.44386 70.3897
4530251 8.09482 9.80769 25.8987 26.6934 0.889295 7.38133 70.4946
4530281 8.13005 9.69718 25.9282 26.6447 0.810948 7.40318 70.4001
4530282 8.02435 9.67877 25.9184 26.6934 0.863782 7.44693 70.3149
4530292 8.02435 9.67877 25.9184 26.6934 0.863782 7.44693 70.3149
4530302 8.03316 9.73402 25.9971 26.6642 0.840548 7.43182 70.4285
4530312 8.03316 9.73402 25.9971 26.6642 0.840548 7.43182 70.4285
4530323 8.01554 9.66956 25.9577 26.7032 0.852728 7.45795 70.346
4530332 8.05078 9.66956 25.9971 26.7811 0.85206 7.45928 70.4985
4530343 8.05078 9.66956 25.9971 26.7811 0.85206 7.45928 70.4985
4530357 8.0772 9.70639 25.9479 26.7713 0.869697 7.43282 70.5028
4530363 8.0772 9.70639 25.9479 26.7713 0.869697 7.43282 70.5028
4530374 8.05078 9.66956 25.938 26.7908 0.877076 7.454 70.4492
4530383 8.06839 9.70639 25.8987 26.7908 0.897673 7.43243 70.4643
4530392 8.06839 9.70639 25.8987 26.7908 0.897673 7.43243 70.4643
4530403 8.01554 9.65114 25.9873 26.8298 0.878975 7.48053 70.4837
4530413 7.99793 9.66956 25.9479 26.8201 0.902885 7.47503 70.4354
4530422 7.99793 9.66956 25.9479 26.8201 0.902885 7.47503 70.4354
4530432 8.00674 9.64193 25.9873 26.7908 0.865707 7.48212 70.4268
4530443 8.00674 9.64193 25.9873 26.7908 0.865707 7.48212 70.4268
4530453 7.9715 9.62351 25.9676 26.7519 0.866213 7.493 70.3145
4530463 7.96269 9.65114 25.9774 26.7811 0.885335 7.49116 70.3723
4530472 7.96269 9.65114 25.9774 26.7811 0.885335 7.49116 70.3723
4530487 7.99793 9.63272 25.938 26.7519 0.87052 7.47845 70.3205
4530501 7.99793 9.66035 25.938 26.8103 0.900018 7.47588 70.4066
4530504 7.99793 9.66035 25.938 26.8103 0.900018 7.47588 70.4066
4530515 7.96269 9.68797 25.9479 26.7616 0.902143 7.47415 70.3602
4530538 7.90984 9.62351 25.9873 26.8688 0.92172 7.52727 70.3894
4530544 7.91865 9.59588 25.9873 26.898 0.919023 7.5364 70.3998
4530554 7.91865 9.59588 25.9873 26.898 0.919023 7.5364 70.3998
4530565 7.98031 9.63272 26.0168 26.9467 0.914723 7.51322 70.5765
4530574 7.98912 9.58667 25.9774 26.8883 0.89024 7.51473 70.4415
4530586 7.98912 9.58667 25.9774 26.8883 0.89024 7.51473 70.4415
4530594 7.96269 9.55905 26.0759 26.9077 0.861013 7.54451 70.5053
4530604 7.96269 9.55905 26.0759 26.9077 0.861013 7.54451 70.5053
4530614 7.95389 9.54063 25.9971 26.8493 0.866821 7.53869 70.3409
4530624 7.9715 9.60509 26.0759 26.8883 0.866869 7.52491 70.5407
4530635 7.9715 9.60509 26.0759 26.8883 0.866869 7.52491 70.5407
4530644 7.96269 9.64193 25.9184 26.8201 0.917271 7.49196 70.343
4530655 7.91865 9.59588 25.9577 26.8395 0.909889 7.52706 70.3118
4530664 7.91865 9.59588 25.9577 26.8395 0.909889 7.52706 70.3118
4530678 7.98912 9.64193 25.9676 26.8395 0.896096 7.49084 70.4382
4530695 7.98912 9.64193 25.9676 26.8395 0.896096 7.49084 70.4382
4530701 7.95389 9.57747 25.9282 26.7811 0.881425 7.5123 70.2406
4530705 7.98031 9.59588 25.9676 26.859 0.890243 7.51044 70.4028
4530715 7.98031 9.59588 25.9676 26.859 0.890243 7.51044 70.4028
4530725 7.98031 9.67877 25.9577 26.859 0.922215 7.48292 70.4758
4530735 7.98031 9.6143 25.9774 26.8201 0.879583 7.50145 70.3921
4530745 7.98031 9.6143 25.9774 26.8201 0.879583 7.50145 70.3921
4530755 7.99793 9.76165 25.9282 26.8103 0.938264 7.44253 70.4981
4530769 7.99793 9.76165 25.9282 26.8103 0.938264 7.44253 70.4981
4530777 7.98912 9.68797 25.9184 26.7616 0.903285 7.46255 70.3571
4530785 8.03316 9.74323 25.9282 26.7324 0.892377 7.42881 70.437
4530796 8.03316 9.74323 25.9282 26.7324 0.892377 7.42881 70.437
4530806 8.05078 9.75244 25.9479 26.7032 0.871816 7.41924 70.4543
4530816 7.99793 9.79848 25.8298 26.7324 0.960499 7.41184 70.3586
4530826 7.99793 9.79848 25.8298 26.7324 0.960499 7.41184 70.3586
4530836 8.04197 9.82611 25.8888 26.7032 0.921968 7.39225 70.4601
4530860 8.0772 9.80769 25.9085 26.6252 0.8688 7.38061 70.4186
4530866 8.13005 9.87216 25.8199 26.596 0.894007 7.33058 70.4181
4530876 8.13005 9.87216 25.8199 26.596 0.894007 7.33058 70.4181
4530898 8.15648 9.95504 25.8593 26.6057 0.901502 7.30133 70.5765
4530904 8.06839 9.92741 25.7805 26.5278 0.926784 7.32088 70.3041
4530907 8.06839 9.92741 25.7805 26.5278 0.926784 7.32088 70.3041
4530918 8.08601 10.0287 25.8298 26.4986 0.926816 7.28538 70.443
4530928 8.08601 10.0287 25.8298 26.4986 0.926816 7.28538 70.443
4530938 8.11244 9.97346 25.751 26.4109 0.897145 7.27624 70.2478
4530948 8.12124 9.96425 25.8396 26.5278 0.898185 7.2989 70.4529
4530957 8.12124 9.96425 25.8396 26.5278 0.898185 7.2989 70.4529
4530971 8.12124 9.98267 25.7609 26.4401 0.903451 7.27483 70.3049
4530977 8.14767 9.9182 25.8593 26.4986 0.85547 7.30407 70.4237
4530989 8.14767 9.9182 25.8593 26.4986 0.85547 7.30407 70.4237
4530998 8.10363 10.0103 25.8691 26.5278 0.909549 7.29314 70.5108
4531007 8.10363 10.0103 25.8691 26.5278 0.909549 7.29314 70.5108
4531017 8.12124 10.0011 25.8494 26.4596 0.883836 7.28086 70.4314
4531029 8.12124 9.96425 25.8494 26.4011 0.851163 7.28611 70.3361
4531040 8.12124 9.96425 25.8494 26.4011 0.851163 7.28611 70.3361
4531048 8.10363 9.96425 25.8494 26.4011 0.857642 7.2917 70.3185
4531057 8.19171 9.98267 25.8888 26.4206 0.823867 7.26445 70.4838
4531068 8.19171 9.98267 25.8888 26.4206 0.823867 7.26445 70.4838
4531078 8.14767 10.0103 25.8888 26.4206 0.849482 7.26964 70.4674
4531098 8.13005 9.97346 25.8987 26.4011 0.833017 7.2858 70.4033
4531109 8.12124 10.0011 25.879 26.3914 0.849614 7.27662 70.3927
4531122 8.12124 10.0011 25.879 26.3914 0.849614 7.27662 70.3927
4531133 8.15648 10.0011 25.879 26.3817 0.833338 7.26441 70.4182
4531140 8.11244 9.96425 25.938 26.4206 0.828561 7.30073 70.4354
4531149 8.11244 9.96425 25.938 26.4206 0.828561 7.30073 70.4354
4531159 8.11244 9.99187 25.9184 26.4499 0.855276 7.29303 70.4725
4531169 8.11244 9.99187 25.9184 26.4499 0.855276 7.29303 70.4725
4531179 8.13886 9.96425 25.9282 26.4206 0.822484 7.2913 70.4519
4531191 8.13886 9.9182 25.8888 26.4304 0.824454 7.30263 70.3763
4531209 8.15648 9.93662 25.938 26.3817 0.789544 7.29128 70.4128
4531221 8.19171 9.95504 25.9184 26.4206 0.803569 7.27642 70.4857
4531230 8.19171 9.95504 25.9184 26.4206 0.803569 7.27642 70.4857
4531244 8.13005 9.93662 26.0069 26.4986 0.814125 7.31992 70.5722
4531250 8.13005 9.93662 26.0069 26.4986 0.814125 7.31992 70.5722
4531260 8.11244 9.89057 25.9479 26.3622 0.779524 7.31878 70.3131
4531270 8.12124 9.89978 26.0266 26.4693 0.787488 7.33333 70.517
4531280 8.12124 9.89978 26.0266 26.4693 0.787488 7.33333 70.517
4531293 8.10363 9.9182 26.0266 26.4693 0.800252 7.33307 70.5178
4531300 8.09482 9.87216 26.0266 26.4109 0.767559 7.34411 70.4045
4531314 8.09482 9.87216 26.0266 26.4109 0.767559 7.34411 70.4045
4531320 8.10363 9.88136 26.0069 26.3719 0.761294 7.332 70.3639
4531330 8.10363 9.88136 26.0069 26.3719 0.761294 7.332 70.3639
4531340 8.0772 9.84453 25.9873 26.3622 0.762138 7.3489 70.2712
4531350 8.05078 9.86295 26.0463 26.4206 0.77666 7.36422 70.3807
4531360 8.05078 9.86295 26.0463 26.4206 0.77666 7.36422 70.3807
4531370 8.02435 9.85374 25.9873 26.3622 0.784701 7.36279 70.2275
4531382 8.05078 9.88136 26.0069 26.3135 0.760508 7.34243 70.2526
4531406 8.10363 9.9182 26.1152 26.3914 0.741103 7.33423 70.5285
4531410 8.10363 9.9182 26.1152 26.3914 0.741103 7.33423 70.5285
4531420 8.01554 9.82611 26.1251 26.3719 0.731251 7.39039 70.3386
4531430 8.04197 9.86295 26.066 26.4206 0.772676 7.36915 70.3916
4531440 8.04197 9.86295 26.066 26.4206 0.772676 7.36915 70.3916
4531452 8.11244 9.90899 26.0857 26.4011 0.748852 7.33221 70.5083
4531461 8.11244 9.90899 26.0857 26.4011 0.748852 7.33221 70.5083
4531476 8.06839 9.88136 26.0955 26.4401 0.765246 7.36022 70.4854
4531481 8.02435 9.89978 26.066 26.4693 0.808537 7.36832 70.4595
4531491 8.02435 9.89978 26.066 26.4693 0.808537 7.36832 70.4595
4531504 8.04197 9.89978 26.0759 26.4109 0.778395 7.35746 70.4285
4531511 8.02435 9.88136 26.1152 26.4888 0.790888 7.3816 70.5098
4531522 8.02435 9.88136 26.1152 26.4888 0.790888 7.3816 70.5098
4531531 7.99793 9.87216 26.0759 26.4791 0.808471 7.38762 70.425
4531546 7.98912 9.83532 26.1251 26.5375 0.801092 7.41374 70.487
4531551 7.98912 9.83532 26.1251 26.5375 0.801092 7.41374 70.487
4531561 7.98031 9.75244 26.1644 26.5375 0.76142 7.44716 70.4347
4531571 7.98031 9.75244 26.1644 26.5375 0.76142 7.44716 70.4347
4531581 7.93627 9.69718 26.1054 26.6057 0.803635 7.47982 70.3446
4531591 7.93627 9.68797 26.1743 26.6642 0.795314 7.49635 70.4627
4531604 7.93627 9.68797 26.1743 26.6642 0.795314 7.49635 70.4627
4531613 7.93627 9.64193 26.1841 26.7713 0.812688 7.52349 70.5337
4531621 7.93627 9.64193 26.1841 26.7713 0.812688 7.52349 70.5337
4531635 7.87461 9.62351 26.2629 26.7713 0.800118 7.55741 70.5323
4531641 7.82176 9.55905 26.3219 26.859 0.805807 7.61039 70.5618
4531651 7.82176 9.55905 26.3219 26.859 0.805807 7.61039 70.5618
4531661 7.83938 9.54063 26.2924 26.8883 0.813869 7.61061 70.5607
4531671 7.7601 9.47616 26.3023 26.9077 0.82387 7.65982 70.4463
4531682 7.7601 9.47616 26.3023 26.9077 0.82387 7.65982 70.4463
4531691 7.79534 9.47616 26.381 26.9954 0.812209 7.66581 70.6479
4531702 7.79534 9.47616 26.381 26.9954 0.812209 7.66581 70.6479
4531725 7.66321 9.36566 26.3416 27.0149 0.843823 7.74188 70.3854
4531727 7.71606 9.31961 26.4007 27.1026 0.817075 7.75478 70.5389
4531732 7.71606 9.31961 26.4007 27.1026 0.817075 7.75478 70.5389
4531743 7.72487 9.30119 26.3712 27.1123 0.821692 7.75585 70.5095
4531752 7.68964 9.2091 26.3023 27.2195 0.865051 7.80093 70.4205
4531762 7.68964 9.2091 26.3023 27.2195 0.865051 7.80093 70.4205
4531779 7.6456 9.24594 26.3712 27.2292 0.871876 7.81129 70.4919
4531783 7.6456 9.24594 26.3712 27.2292 0.871876 7.81129 70.4919
4531797 7.7513 9.18147 26.2924 27.2585 0.849918 7.79289 70.4836
4531804 7.69845 9.22752 26.3712 27.2779 0.862855 7.80512 70.5751
4531819 7.69845 9.22752 26.3712 27.2779 0.862855 7.80512 70.5751
4531824 7.66321 9.18147 26.3121 27.3461 0.905031 7.83235 70.5029
4531835 7.68964 9.19068 26.3712 27.3656 0.88346 7.8288 70.6171
4531845 7.68964 9.19068 26.3712 27.3656 0.88346 7.8288 70.6171
4531855 7.63679 9.13543 26.2924 27.4241 0.932878 7.86174 70.4887
4531865 7.61036 9.15385 26.2432 27.4436 0.973672 7.86133 70.451
4531890 7.6544 9.13543 26.2924 27.4046 0.919744 7.85406 70.4868
4531896 7.6544 9.13543 26.2924 27.4046 0.919744 7.85406 70.4868
4531906 7.67202 9.1078 26.253 27.4436 0.931624 7.85726 70.4764
4531924 7.62798 9.15385 26.3416 27.4241 0.924307 7.86361 70.5475
4531929 7.62798 9.15385 26.3416 27.4241 0.924307 7.86361 70.5475
4531938 7.63679 9.15385 26.3023 27.4338 0.938869 7.85775 70.5267
4531946 7.59275 9.08938 26.3515 27.4436 0.918281 7.89892 70.4772
4531959 7.59275 9.08938 26.3515 27.4436 0.918281 7.89892 70.4772
4531966 7.61036 9.08017 26.3613 27.541 0.93829 7.90698 70.5928
4531981 7.61036 9.08017 26.3613 27.541 0.93829 7.90698 70.5928
4531986 7.52228 9.04334 26.3515 27.5994 0.981686 7.95245 70.5165
4531996 7.57513 9.05255 26.381 27.5507 0.937906 7.93035 70.5594
4532006 7.57513 9.05255 26.381 27.5507 0.937906 7.93035 70.5594
4532016 7.52228 8.98808 26.3613 27.6189 0.965872 7.97338 70.4906
4532029 7.60155 9.0065 26.3121 27.6384 0.96772 7.93861 70.5586
4532038 7.60155 9.0065 26.3121 27.6384 0.96772 7.93861 70.5586
4532049 7.53109 8.97887 26.3318 27.7261 1.00686 7.98124 70.5678
4532058 7.53109 8.97887 26.3318 27.7261 1.00686 7.98124 70.5678
4532070 7.51347 8.99729 26.3416 27.6287 0.982833 7.97225 70.481
4532077 7.50466 8.94204 26.381 27.5897 0.939417 7.9932 70.4174
4532097 7.55751 9.03413 26.4105 27.6968 0.977004 7.9596 70.699
4532107 7.53109 8.94204 26.3712 27.7456 0.986451 7.99908 70.5899
4532124 7.53109 8.94204 26.3712 27.7456 0.986451 7.99908 70.5899
4532128 7.5399 9.0065 26.3712 27.7358 1.00181 7.97426 70.6534
4532139 7.5399 9.0065 26.3712 27.7358 1.00181 7.97426 70.6534
4532149 7.5487 8.93283 26.3121 27.7163 0.988638 7.98757 70.51
4532159 7.58394 8.97887 26.3613 27.6676 0.956643 7.96116 70.5918
4532169 7.58394 8.97887 26.3613 27.6676 0.956643 7.96116 70.5918
4532183 7.55751 8.98808 26.3416 27.5799 0.94685 7.95604 70.4672
4532189 7.5487 8.97887 26.2924 27.6579 0.991669 7.96478 70.4779
4532199 7.5487 8.97887 26.2924 27.6579 0.991669 7.96478 70.4779
4532209 7.59275 8.97887 26.3613 27.6774 0.95672 7.95926 70.6103
4532220 7.59275 8.97887 26.3613 27.6774 0.95672 7.95926 70.6103
4532230 7.56632 8.94204 26.3219 27.6871 0.971702 7.9769 70.5174
4532240 7.56632 8.95125 26.3219 27.6481 0.961557 7.97002 70.4876
4532256 7.56632 8.95125 26.3219 27.6481 0.961557 7.97002 70.4876
4532259 7.60155 8.94204 26.2727 27.6287 0.95692 7.95467 70.445
4532269 7.60155 8.94204 26.2727 27.6287 0.95692 7.95467 70.445
4532279 7.53109 8.96045 26.3515 27.6774 0.976756 7.98435 70.5204
4532289 7.62798 9.04334 26.381 27.6871 0.961792 7.92984 70.7394
4532302 7.62798 9.04334 26.381 27.6871 0.961792 7.92984 70.7394
4532309 7.6544 9.09859 26.2826 27.6287 0.987157 7.88763 70.6642
4532319 7.67202 9.19068 26.2137 27.4533 0.977707 7.8274 70.5297
4532329 7.67202 9.19068 26.2137 27.4533 0.977707 7.8274 70.5297
4532339 7.71606 9.27356 26.1054 27.2585 0.963196 7.75531 70.3535
4532359 7.73368 9.31961 26.0759 27.1805 0.956693 7.72364 70.3097
4532373 7.82176 9.45775 26.0463 27.0928 0.952342 7.63853 70.4187
4532379 7.82176 9.45775 26.0463 27.0928 0.952342 7.63853 70.4187
4532389 7.92746 9.54063 25.938 27.0052 0.951654 7.55741 70.4113
4532423 7.96269 9.57747 25.938 26.898 0.914627 7.52297 70.3762
4532425 7.96269 9.57747 25.938 26.898 0.914627 7.52297 70.3762
4532426 7.91865 9.65114 25.938 26.8688 0.946057 7.51038 70.3766
4532430 7.94508 9.7156 25.879 26.7421 0.936824 7.46149 70.2818
4532446 7.94508 9.7156 25.879 26.7421 0.936824 7.46149 70.2818
4532451 7.98031 9.83532 25.8298 26.7032 0.969601 7.40256 70.3485
4532461 7.98031 9.83532 25.8298 26.7032 0.969601 7.40256 70.3485
4532471 8.05078 9.89978 25.9085 26.5668 0.890034 7.35342 70.4258
4532481 8.03316 9.94583 25.8888 26.5473 0.912845 7.34014 70.4151
4532501 8.10363 10.0655 25.8593 26.4693 0.912073 7.2682 70.4978
4532518 8.0772 9.97346 25.7904 26.3719 0.882238 7.28747 70.213
4532523 8.0772 9.97346 25.7904 26.3719 0.882238 7.28747 70.213
4532533 8.08601 10.0748 25.8593 26.3817 0.891709 7.26123 70.4017
4532543 8.08601 10.0748 25.8593 26.3817 0.891709 7.26123 70.4017
4532552 8.09482 10.1116 25.8593 26.3135 0.877726 7.23929 70.3792
4532565 8.13886 10.1484 25.8396 26.1771 0.834605 7.19648 70.304
4532574 8.13886 10.1484 25.8396 26.1771 0.834605 7.19648 70.304
4532588 8.20933 10.2221 25.8101 26.1673 0.841528 7.14669 70.4088
4532594 8.16529 10.1576 25.7313 26.1868 0.871229 7.17427 70.2411
4532604 8.16529 10.1576 25.7313 26.1868 0.871229 7.17427 70.2411
4532614 8.26218 10.2497 25.7707 26.0699 0.812608 7.10608 70.3525
4532635 8.26218 10.2774 25.7805 26.0212 0.801748 7.09304 70.3413
4532644 8.30622 10.351 25.751 26.0797 0.841796 7.05939 70.4879
4532659 8.30622 10.351 25.751 26.0797 0.841796 7.05939 70.4879
4532664 8.31503 10.3787 25.8002 26.0407 0.816649 7.04914 70.5346
4532674 8.32383 10.3234 25.692 26.0602 0.840843 7.05366 70.3994
4532694 8.34145 10.3142 25.8002 25.9627 0.758061 7.05226 70.4186
4532708 8.34145 10.3142 25.8002 25.9627 0.758061 7.05226 70.4186
4532714 8.2886 10.3142 25.6821 25.992 0.830805 7.05878 70.2769
4532724 8.31503 10.3326 25.7609 25.9822 0.795189 7.05252 70.3907
4532735 8.31503 10.3326 25.7609 25.9822 0.795189 7.05252 70.3907
4532745 8.30622 10.3602 25.692 25.8946 0.803038 7.0289 70.253
4532758 8.30622 10.2681 25.751 25.953 0.76977 7.07109 70.2784
4532765 8.30622 10.2681 25.751 25.953 0.76977 7.07109 70.2784
4532781 8.2886 10.2405 25.7116 25.9433 0.777793 7.07977 70.184
4532785 8.2886 10.2405 25.7116 25.9433 0.777793 7.07977 70.184
4532795 8.27098 10.2405 25.7707 25.8653 0.735649 7.08318 70.1475
4532806 8.33264 10.305 25.7805 25.7777 0.70141 7.03473 70.1958
4532832 8.36788 10.305 25.8199 25.7777 0.674123 7.02814 70.2704
4532836 8.35026 10.3694 25.8002 25.7484 0.699955 7.00791 70.2684
4532846 8.35026 10.3694 25.8002 25.7484 0.699955 7.00791 70.2684
4532863 8.35026 10.3787 25.7707 25.7484 0.713941 7.00166 70.248
4532866 8.35026 10.3787 25.7707 25.7484 0.713941 7.00166 70.248
4532876 8.3943 10.3694 25.8101 25.7874 0.693727 6.99968 70.3612
4532886 8.47358 10.4523 25.8199 25.7484 0.676388 6.94577 70.4942
4532896 8.47358 10.4523 25.8199 25.7484 0.676388 6.94577 70.4942
4532906 8.37668 10.4431 25.8199 25.69 0.688359 6.97218 70.3297
4532916 8.3943 10.4523 25.7904 25.7484 0.716081 6.96711 70.3854
4532951 8.48238 10.5352 25.751 25.6997 0.710079 6.90377 70.4683
4532952 8.48238 10.5352 25.751 25.6997 0.710079 6.90377 70.4683
4532956 8.44715 10.526 25.7609 25.7289 0.726244 6.92207 70.463
4532967 8.47358 10.5168 25.692 25.6705 0.718433 6.90209 70.3528
4532978 8.47358 10.5168 25.692 25.6705 0.718433 6.90209 70.3528
4532991 8.40311 10.526 25.7215 25.5633 0.699553 6.91224 70.2139
4532997 8.41192 10.5813 25.6723 25.6315 0.757003 6.89446 70.297
4533018 8.42073 10.5628 25.623 25.6413 0.768822 6.89289 70.2479
4533038 8.38549 10.5168 25.6821 25.6315 0.740826 6.92393 70.2159
4533049 8.38549 10.5628 25.6427 25.5731 0.750983 6.89828 70.1641
4533063 8.38549 10.5628 25.6427 25.5731 0.750983 6.89828 70.1641
4533068 8.42953 10.5997 25.623 25.6218 0.771576 6.87643 70.274
4533082 8.3943 10.5628 25.6427 25.6997 0.791442 6.91014 70.2996
4533090 8.3943 10.5628 25.6427 25.6997 0.791442 6.91014 70.2996
4533105 8.37668 10.5997 25.7018 25.7387 0.80232 6.91541 70.4168
4533109 8.35907 10.48 25.7412 25.8264 0.783336 6.97275 70.4066
4533119 8.35907 10.48 25.7412 25.8264 0.783336 6.97275 70.4066
4533129 8.42953 10.5076 25.6624 25.8069 0.789168 6.93094 70.4064
4533139 8.42953 10.5076 25.6624 25.8069 0.789168 6.93094 70.4064
4533152 8.27098 10.4892 25.6526 25.8361 0.854713 6.98841 70.2488
4533160 8.34145 10.4984 25.7313 25.7874 0.786325 6.96694 70.3585
4533175 8.34145 10.4984 25.7313 25.7874 0.786325 6.96694 70.3585
4533180 8.31503 10.4431 25.6821 25.8848 0.828582 6.99795 70.3251
4533190 8.25337 10.4523 25.6723 25.953 0.881442 7.021 70.331
4533201 8.25337 10.4523 25.6723 25.953 0.881442 7.021 70.331
4533210 8.26218 10.3971 25.7116 25.9725 0.851449 7.04221 70.3434
4533223 8.26218 10.3971 25.7116 25.9725 0.851449 7.04221 70.3434
4533230 8.20052 10.3879 25.692 26.1089 0.924957 7.0776 70.3892
4533244 8.23575 10.3142 25.6526 26.1576 0.917941 7.09071 70.3601
4533260 8.20933 10.3326 25.6821 26.1966 0.936425 7.10092 70.4206
4533273 8.20052 10.2497 25.7609 26.3037 0.918984 7.15048 70.5148
4533280 8.20052 10.2497 25.7609 26.3037 0.918984 7.15048 70.5148
4533290 8.16529 10.2405 25.8396 26.3719 0.923127 7.18075 70.6173
4533300 8.16529 10.2405 25.8396 26.3719 0.923127 7.18075 70.6173
4533312 8.09482 10.1208 25.7805 26.4693 0.963157 7.24488 70.4655
4533320 7.99793 10.084 25.7707 26.5375 1.01324 7.29357 70.3901
4533335 7.99793 10.084 25.7707 26.5375 1.01324 7.29357 70.3901
4533340 8.05959 10.0748 25.8396 26.557 0.968575 7.28665 70.531
4533351 8.05959 10.0748 25.7904 26.557 0.98671 7.28126 70.4818
4533361 7.98031 10.0011 25.7904 26.5375 0.984195 7.32759 70.3093
4533371 7.98031 10.0103 25.8101 26.5765 0.993365 7.33106 70.3772
4533382 7.98031 10.0103 25.8101 26.5765 0.993365 7.33106 70.3772
4533391 7.93627 10.0287 25.7904 26.5278 1.00659 7.33175 70.2832
4533403 7.98912 9.92741 25.8101 26.6057 0.971797 7.35777 70.3323
4533413 7.98912 9.92741 25.8101 26.6057 0.971797 7.35777 70.3323
4533425 7.98031 9.92741 25.8002 26.6252 0.985339 7.36162 70.3332
4533432 7.9715 9.92741 25.7609 26.6057 0.9965 7.35802 70.2655
4533443 7.9715 9.92741 25.7609 26.6057 0.9965 7.35802 70.2655
4533454 8.04197 9.94583 25.8888 26.6447 0.942883 7.34793 70.5213
4533472 8.00674 9.89978 25.8987 26.635 0.933182 7.37373 70.4401
4533484 8.01554 10.0011 25.8298 26.6057 0.979924 7.32814 70.4521
4533493 8.01554 10.0011 25.8298 26.6057 0.979924 7.32814 70.4521
4533502 8.05078 9.97346 25.7707 26.5375 0.955999 7.31184 70.3325
4533517 8.06839 10.0011 25.7215 26.5375 0.977111 7.29211 70.3285
4533522 8.06839 10.0011 25.7215 26.5375 0.977111 7.29211 70.3285
4533532 8.04197 10.0103 25.7904 26.4109 0.921243 7.29124 70.2535
4533543 8.04197 10.0103 25.7904 26.4109 0.921243 7.29124 70.2535
4533552 8.11244 10.1024 25.7018 26.3719 0.946128 7.2257 70.2885
4533563 8.11244 10.1392 25.751 26.3232 0.923905 7.21411 70.3259
4533572 8.11244 10.1392 25.751 26.3232 0.923905 7.21411 70.3259
4533585 8.13886 10.1853 25.7805 26.3622 0.932369 7.19883 70.4668
4533593 8.13886 10.1853 25.7805 26.3622 0.932369 7.19883 70.4668
4533606 8.11244 10.2037 25.7313 26.3524 0.963196 7.19482 70.3999
4533614 8.19171 10.1761 25.7313 26.4011 0.94119 7.18396 70.5002
4533628 8.19171 10.1761 25.7313 26.4011 0.94119 7.18396 70.5002
4533634 8.17409 10.1853 25.7116 26.2842 0.918117 7.17143 70.3552
4533644 8.20052 10.1853 25.7805 26.3622 0.909698 7.17943 70.5285
4533654 8.20052 10.1853 25.7805 26.3622 0.909698 7.17943 70.5285
4533664 8.19171 10.1668 25.7805 26.2453 0.866625 7.17502 70.3844
4533697 8.12124 10.1853 25.7805 26.2648 0.905532 7.19359 70.3518
4533699 8.13005 10.2221 25.8593 26.2355 0.875941 7.1847 70.447
4533704 8.13005 10.2221 25.8593 26.2355 0.875941 7.1847 70.447
4533719 8.13005 10.1208 25.8691 26.2842 0.854298 7.22311 70.4042
4533724 8.13886 10.1853 25.9184 26.3037 0.861767 7.20761 70.5462
4533734 8.13886 10.1853 25.9184 26.3037 0.861767 7.20761 70.5462
4533744 8.12124 10.1576 25.9873 26.3427 0.846857 7.23374 70.6088
4533756 8.12124 10.1576 25.9873 26.3427 0.846857 7.23374 70.6088
4533764 8.12124 10.0103 25.9085 26.3135 0.815171 7.26839 70.3535
4533774 8.08601 9.99187 25.9676 26.3524 0.813493 7.29613 70.3979
4533787 8.08601 9.99187 25.9676 26.3524 0.813493 7.29613 70.3979
4533794 8.04197 9.99187 25.9676 26.3914 0.84303 7.31434 70.3928
4533808 7.98031 9.90899 26.0562 26.3719 0.797966 7.36776 70.3174
4533814 7.98031 9.90899 26.0562 26.3719 0.797966 7.36776 70.3174
4533824 8.00674 9.89057 26.0759 26.4693 0.808221 7.37791 70.4425
4533834 8.00674 9.89057 26.0759 26.4693 0.808221 7.37791 70.4425
4533844 7.96269 9.73402 26.1546 26.4986 0.751704 7.45341 70.3499
4533854 7.96269 9.82611 26.2334 26.557 0.774693 7.43879 70.5792
4533877 7.95389 9.77086 26.2727 26.6057 0.761285 7.46858 70.6032
4533884 7.90104 9.69718 26.2334 26.6057 0.769666 7.50473 70.4373
4533899 7.90104 9.69718 26.2334 26.6057 0.769666 7.50473 70.4373
4533904 7.9715 9.69718 26.2826 26.6837 0.752735 7.49577 70.6349
4533915 7.9715 9.69718 26.2826 26.6837 0.752735 7.49577 70.6349
4533925 7.87461 9.56826 26.2727 26.6837 0.747374 7.56688 70.3993
4533935 7.8658 9.52221 26.3023 26.7811 0.757486 7.59784 70.4714
4533945 7.8658 9.52221 26.3023 26.7811 0.757486 7.59784 70.4714
4533955 7.83938 9.47616 26.3416 26.9272 0.787133 7.64049 70.5844
4533967 7.85699 9.47616 26.3121 26.9759 0.808185 7.63684 70.6212
4533976 7.85699 9.47616 26.3121 26.9759 0.808185 7.63684 70.6212
4533989 7.85699 9.43012 26.2629 26.9662 0.807059 7.64547 70.5162
4533996 7.85699 9.43012 26.2629 26.9662 0.807059 7.64547 70.5162
4534010 7.81295 9.37486 26.2924 27.0149 0.810125 7.68553 70.4951
4534016 7.76891 9.40249 26.3121 27.1123 0.861877 7.70294 70.5958
4534027 7.76891 9.40249 26.3121 27.1123 0.861877 7.70294 70.5958
4534038 7.77772 9.28277 26.3023 27.0928 0.814566 7.73564 70.4556
4534048 7.72487 9.22752 26.3416 27.161 0.823945 7.78161 70.4551
4534058 7.72487 9.22752 26.3416 27.161 0.823945 7.78161 70.4551
4534068 7.74249 9.17226 26.3219 27.2292 0.829145 7.79875 70.4659
4534078 7.74249 9.17226 26.3219 27.2292 0.829145 7.79875 70.4659
4534088 7.68964 9.18147 26.4204 27.2585 0.825623 7.82589 70.5499
4534098 7.6544 9.15385 26.4794 27.3559 0.840795 7.86209 70.6436
4534108 7.6544 9.15385 26.4794 27.3559 0.840795 7.86209 70.6436
4534119 7.62798 9.05255 26.568 27.2974 0.763312 7.90653 70.546
4534128 7.6456 9.05255 26.5582 27.4143 0.800574 7.91157 70.6707
4534138 7.6456 9.05255 26.5582 27.4143 0.800574 7.91157 70.6707
4534147 7.5487 9.02492 26.5483 27.4143 0.830135 7.95102 70.5363
4534158 7.5487 9.02492 26.5483 27.4143 0.830135 7.95102 70.5363
4534169 7.58394 8.96045 26.509 27.4241 0.812888 7.95758 70.4774
4534179 7.58394 8.96966 26.5877 27.4825 0.807279 7.96827 70.6238
4534189 7.58394 8.96966 26.5877 27.4825 0.807279 7.96827 70.6238
4534200 7.53109 8.95125 26.5582 27.463 0.824428 7.9866 70.5036
4534209 7.51347 8.84074 26.6074 27.541 0.801682 8.04102 70.5026
4534221 7.51347 8.84074 26.6074 27.541 0.801682 8.04102 70.5026
4534229 7.51347 8.96966 26.5483 27.5117 0.857487 7.9902 70.5432
4534242 7.51347 8.96966 26.5483 27.5117 0.857487 7.9902 70.5432
4534249 7.52228 8.84074 26.5976 27.5312 0.798714 8.0362 70.4918
4534259 7.51347 8.92362 26.5976 27.5897 0.850365 8.01781 70.6243
4534269 7.51347 8.92362 26.5976 27.5897 0.850365 8.01781 70.6243
4534279 7.50466 8.93283 26.6074 27.5605 0.84314 8.01576 70.6054
4534289 7.45181 8.88678 26.568 27.541 0.854504 8.04224 70.4476
4534309 7.50466 8.91441 26.6074 27.5994 0.850171 8.02562 70.6259
4534319 7.50466 8.91441 26.6074 27.5994 0.850171 8.02562 70.6259
4534330 7.4342 8.86836 26.5976 27.6092 0.867176 8.06365 70.5093
4534345 7.46062 8.88678 26.5385 27.6871 0.912094 8.05086 70.573
4534354 7.46062 8.88678 26.5385 27.6871 0.912094 8.05086 70.573
4534360 7.44301 8.86836 26.5582 27.6481 0.891727 8.06073 70.5177
4534376 7.45181 8.93283 26.5188 27.6189 0.914997 8.03002 70.5224
4534390 7.44301 8.88678 26.5287 27.6189 0.89888 8.04892 70.4774
4534401 7.44301 8.88678 26.5287 27.6189 0.89888 8.04892 70.4774
4534410 7.44301 8.93283 26.5483 27.6871 0.930652 8.04254 70.6113
4534423 7.46062 8.85915 26.5779 27.6968 0.891536 8.06471 70.5945
4534430 7.46062 8.85915 26.5779 27.6968 0.891536 8.06471 70.5945
4534440 7.44301 8.84074 26.5779 27.7163 0.898361 8.0784 70.578
4534450 7.47824 8.88678 26.5976 27.7066 0.890616 8.05283 70.6692
4534460 7.47824 8.88678 26.5976 27.7066 0.890616 8.05283 70.6692
4534473 7.46943 8.92362 26.568 27.6871 0.910589 8.03887 70.6482
4534481 7.46943 8.92362 26.568 27.6871 0.910589 8.03887 70.6482
4534497 7.46943 8.82232 26.5877 27.6968 0.872111 8.07484 70.5763
4534501 7.44301 8.8039 26.5976 27.6676 0.861889 8.08761 70.5121
4534511 7.44301 8.8039 26.5976 27.6676 0.861889 8.08761 70.5121
4534521 7.4342 8.82232 26.5483 27.6676 0.889492 8.07963 70.4725
4534531 7.40777 8.86836 26.5188 27.6676 0.925812 8.07031 70.4626
4534545 7.40777 8.86836 26.5188 27.6676 0.925812 8.07031 70.4626
4534551 7.41658 8.87757 26.6173 27.6871 0.896212 8.076 70.5985
4534571 7.39896 8.86836 26.5877 27.5897 0.877056 8.0723 70.4447
4534593 7.38135 8.88678 26.5582 27.7358 0.950602 8.08349 70.5621
4534594 7.38135 8.88678 26.5582 27.7358 0.950602 8.08349 70.5621
4534601 7.44301 8.9052 26.5582 27.6774 0.914294 8.05157 70.5838
4534617 7.37254 8.88678 26.6074 27.6384 0.902498 8.08164 70.5051
4534621 7.37254 8.88678 26.6074 27.6384 0.902498 8.08164 70.5051
4534631 7.41658 8.86836 26.5877 27.7261 0.917202 8.07993 70.5987
4534643 7.41658 8.86836 26.5877 27.7261 0.917202 8.07993 70.5987
4534653 7.37254 8.82232 26.568 27.765 0.938204 8.1113 70.5279
4534665 7.33731 8.84074 26.6763 27.7553 0.914329 8.12642 70.6097
4534673 7.33731 8.84074 26.6763 27.7553 0.914329 8.12642 70.6097
4534683 7.37254 8.82232 26.6173 27.7845 0.926766 8.11801 70.5966
4534693 7.37254 8.79469 26.6665 27.843 0.919208 8.13753 70.6767
4534703 7.37254 8.79469 26.6665 27.843 0.919208 8.13753 70.6767
4534713 7.35492 8.79469 26.6074 27.9209 0.97388 8.14513 70.6779
4534722 7.35492 8.79469 26.6074 27.9209 0.97388 8.14513 70.6779
4534736 7.33731 8.74865 26.5976 27.8819 0.955042 8.16126 70.5655
4534744 7.25803 8.73023 26.6173 27.8917 0.97402 8.19621 70.4972
4534754 7.25803 8.73023 26.6173 27.8917 0.97402 8.19621 70.4972
4534764 7.28446 8.73023 26.6763 27.9112 0.949204 8.19511 70.6022
4534774 7.25803 8.71181 26.6369 27.9209 0.970453 8.20699 70.5277
4534795 7.25803 8.71181 26.6369 27.9209 0.970453 8.20699 70.5277
4534796 7.29326 8.66576 26.6862 27.9891 0.946939 8.22184 70.6343
4534814 7.27565 8.68418 26.6468 27.9989 0.977474 8.21873 70.6055
4534824 7.24041 8.63814 26.7058 27.9501 0.936425 8.24648 70.5345
4534834 7.24041 8.63814 26.7058 27.9501 0.936425 8.24648 70.5345
4534845 7.19637 8.64735 26.7551 27.9696 0.944307 8.26453 70.5684
4534856 7.2228 8.61051 26.7058 28.0378 0.963375 8.26977 70.577
4534865 7.2228 8.61051 26.7058 28.0378 0.963375 8.26977 70.577
4534881 7.25803 8.58288 26.7649 28.067 0.929278 8.27567 70.6729
4534886 7.25803 8.58288 26.7649 28.067 0.929278 8.27567 70.6729
4534895 7.16995 8.55525 26.7157 28.067 0.97034 8.30918 70.5079
4534905 7.24922 8.62893 26.7748 28.0573 0.941256 8.26343 70.7102
4534915 7.24922 8.62893 26.7748 28.0573 0.941256 8.26343 70.7102
4534929 7.17876 8.61051 26.7748 27.9989 0.940952 8.28715 70.5629
4534935 7.23161 8.6013 26.696 27.9696 0.937366 8.26245 70.4985
4534961 7.2228 8.66576 26.7255 27.9891 0.958365 8.24879 70.6032
4534980 7.2228 8.66576 26.7255 27.9891 0.958365 8.24879 70.6032
4534981 7.24041 8.64735 26.6862 27.9794 0.956774 8.24436 70.5533
4534988 7.29326 8.65656 26.6763 27.8917 0.914189 8.21456 70.5178
4535004 7.29326 8.65656 26.6763 27.8917 0.914189 8.21456 70.5178
4535008 7.23161 8.7026 26.6862 27.9696 0.975513 8.22813 70.59
4535016 7.24922 8.72102 26.7452 27.9599 0.95028 8.22101 70.6754
4535036 7.30207 8.73023 26.6566 27.9696 0.96986 8.19306 70.6586
4535048 7.30207 8.73023 26.6566 27.9696 0.96986 8.19306 70.6586
4535058 7.23161 8.7026 26.6468 27.9989 0.999951 8.22716 70.5798
4535068 7.27565 8.74865 26.6665 27.9209 0.965649 8.19194 70.6117
4535078 7.27565 8.74865 26.6665 27.9209 0.965649 8.19194 70.6117
4535088 7.29326 8.7026 26.6468 27.9501 0.960684 8.2022 70.5928
4535098 7.34611 8.67497 26.6468 27.9599 0.935167 8.19485 70.6278
4535117 7.29326 8.74865 26.6271 27.9307 0.976968 8.18329 70.5997
4535127 7.31088 8.74865 26.5976 27.9112 0.974721 8.17277 70.5683
4535137 7.31088 8.74865 26.5976 27.9112 0.974721 8.17277 70.5683
4535148 7.28446 8.7026 26.5582 27.8332 0.956678 8.18525 70.3785
4535160 7.28446 8.7026 26.5582 27.8332 0.956678 8.18525 70.3785
4535167 7.3285 8.76706 26.5877 27.7943 0.938281 8.14865 70.4776
4535177 7.34611 8.77627 26.5385 27.8235 0.963032 8.13789 70.4844
4535193 7.34611 8.77627 26.5385 27.8235 0.963032 8.13789 70.4844
4535198 7.36373 8.84995 26.5287 27.7845 0.971997 8.10319 70.5269
4535208 7.36373 8.84995 26.5287 27.7845 0.971997 8.10319 70.5269
4535219 7.36373 8.82232 26.6173 27.8819 0.963169 8.13037 70.6853
4535227 7.38135 8.8039 26.568 27.8722 0.965208 8.1249 70.6255
4535237 7.38135 8.8039 26.568 27.8722 0.965208 8.1249 70.6255
4535248 7.41658 8.77627 26.568 27.7943 0.916275 8.11481 70.5552
4535258 7.41658 8.72102 26.4893 27.8235 0.936347 8.1281 70.4504
4535269 7.41658 8.72102 26.4893 27.8235 0.936347 8.1281 70.4504
4535279 7.39016 8.79469 26.5385 27.7845 0.93981 8.1136 70.5079
4535289 7.39016 8.79469 26.5385 27.7845 0.93981 8.1136 70.5079
4535299 7.37254 8.78548 26.568 27.7261 0.912315 8.11958 70.4521
4535309 7.40777 8.74865 26.6173 27.7553 0.878686 8.12775 70.529
4535319 7.40777 8.74865 26.6173 27.7553 0.878686 8.12775 70.529
4535329 7.38135 8.76706 26.5483 27.7748 0.92667 8.12556 70.4715
4535341 7.39016 8.81311 26.4696 27.7066 0.944859 8.09318 70.3795
4535349 7.39016 8.81311 26.4696 27.7066 0.944859 8.09318 70.3795
4535362 7.42539 8.83153 26.5877 27.765 0.914696 8.09291 70.6097
4535369 7.42539 8.83153 26.5877 27.765 0.914696 8.09291 70.6097
4535379 7.39016 8.84995 26.5483 27.804 0.961664 8.09837 70.5925
4535389 7.39896 8.86836 26.5877 27.7066 0.917023 8.08378 70.5616
4535399 7.39896 8.86836 26.5877 27.7066 0.917023 8.08378 70.5616
4535417 7.47824 8.88678 26.5582 27.765 0.924975 8.05471 70.6883
4535420 7.41658 8.83153 26.5188 27.804 0.956535 8.09286 70.5709
4535444 7.41658 8.81311 26.568 27.8722 0.955391 8.11036 70.6699
4535449 7.41658 8.81311 26.568 27.8722 0.955391 8.11036 70.6699
4535459 7.44301 8.86836 26.5287 27.765 0.942472 8.06932 70.6051
4535471 7.41658 8.84074 26.5287 27.7261 0.929475 8.08317 70.5121
4535480 7.41658 8.84074 26.5287 27.7261 0.929475 8.08317 70.5121
4535497 7.47824 8.84995 26.5385 27.7748 0.922963 8.06575 70.6415
4535499 7.36373 8.84995 26.5483 27.7358 0.948143 8.10035 70.4978
4535509 7.36373 8.83153 26.5483 27.7358 0.941858 8.10639 70.4794
4535525 7.46062 8.79469 26.5779 27.7066 0.872833 8.08675 70.5398
4535529 7.46062 8.79469 26.5779 27.7066 0.872833 8.08675 70.5398
4535539 7.42539 8.81311 26.5779 27.7456 0.905377 8.09607 70.5619
4535552 7.44301 8.77627 26.6074 27.7163 0.865495 8.10239 70.543
4535559 7.44301 8.77627 26.6074 27.7163 0.865495 8.10239 70.543
4535578 7.42539 8.86836 26.6566 27.6871 0.875404 8.07998 70.6375
4535581 7.42539 8.86836 26.6566 27.6871 0.875404 8.07998 70.6375
4535593 7.45181 8.74865 26.6665 27.6968 0.824505 8.11242 70.5638
4535614 7.44301 8.79469 26.6862 27.6871 0.832954 8.1012 70.611
4535616 7.44301 8.79469 26.6862 27.6871 0.832954 8.1012 70.611
4535630 7.42539 8.83153 26.6173 27.7553 0.90054 8.09485 70.6295
4535638 7.45181 8.81311 26.6074 27.6871 0.864872 8.08459 70.5594
4535643 7.45181 8.81311 26.6074 27.6871 0.864872 8.08459 70.5594
4535656 7.4342 8.78548 26.6074 27.6481 0.848529 8.09558 70.4752
4535661 7.48705 8.77627 26.6566 27.6871 0.821343 8.08993 70.6071
4535684 7.46062 8.77627 26.7058 27.6384 0.796318 8.09863 70.5811
4535710 7.50466 8.78548 26.6468 27.5799 0.78491 8.06968 70.5169
4535713 7.5487 8.77627 26.5976 27.5994 0.790331 8.05537 70.522
4535722 7.5487 8.77627 26.5976 27.5994 0.790331 8.05537 70.522
4535732 7.52228 8.88678 26.6074 27.5897 0.830939 8.02792 70.6062
4535742 7.53109 8.85915 26.6369 27.5215 0.784075 8.03024 70.5487
4535754 7.53109 8.85915 26.6369 27.5215 0.784075 8.03024 70.5487
4535762 7.56632 8.89599 26.509 27.4338 0.800547 7.98532 70.4051
4535776 7.56632 8.89599 26.509 27.4338 0.800547 7.98532 70.4051
4535782 7.5487 8.93283 26.5582 27.3461 0.771484 7.97521 70.3859
4535798 7.62798 9.01571 26.5287 27.2487 0.748274 7.90964 70.4211
4535805 7.62798 9.01571 26.5287 27.2487 0.748274 7.90964 70.4211
4535814 7.69845 9.13543 26.5188 27.2097 0.753909 7.84299 70.5624
4535824 7.77772 9.19989 26.4696 27.0636 0.71485 7.77659 70.5108
4535845 7.83057 9.30119 26.4007 26.9759 0.725397 7.71076 70.5084
4535854 7.83057 9.30119 26.4007 26.9759 0.725397 7.71076 70.5084
4535866 7.79534 9.32882 26.3023 26.859 0.743484 7.69088 70.2854
4535874 7.90104 9.48537 26.3318 26.7908 0.724506 7.60247 70.509
4535895 7.9715 9.62351 26.1743 26.6837 0.766957 7.50776 70.453
4535912 7.98031 9.65114 26.1448 26.635 0.767288 7.48779 70.4112
4535915 7.98031 9.65114 26.1448 26.635 0.767288 7.48779 70.4112
4535925 8.00674 9.73402 26.0955 26.5375 0.770628 7.43721 70.3738
4535935 8.00674 9.73402 26.0955 26.5375 0.770628 7.43721 70.3738
4535945 8.06839 9.73402 26.1251 26.4304 0.700322 7.4092 70.3579
4535958 8.14767 9.79848 26.0069 26.4888 0.756896 7.35704 70.4419
4535965 8.14767 9.79848 26.0069 26.4888 0.756896 7.35704 70.4419
4535975 8.14767 9.8169 25.9971 26.4596 0.756776 7.34696 70.4213
4535986 8.13886 9.86295 26.0365 26.4011 0.74133 7.33307 70.4394
4535997 8.13886 9.86295 26.0365 26.4011 0.74133 7.33307 70.4394
4536006 8.14767 9.9182 25.9873 26.4304 0.785163 7.3106 70.4835
4536017 8.10363 9.90899 26.0266 26.4109 0.777012 7.32963 70.4501
4536028 8.10363 9.90899 26.0266 26.4109 0.777012 7.32963 70.4501
4536037 8.17409 9.89057 25.9873 26.3427 0.735822 7.3014 70.3946
4536057 8.19171 9.95504 25.9282 26.3719 0.783232 7.27215 70.4469
4536067 8.16529 9.89057 25.9873 26.255 0.708783 7.29459 70.2981
4536077 8.16529 9.89057 25.9873 26.255 0.708783 7.29459 70.2981
4536087 8.15648 9.92741 25.8396 26.2063 0.762025 7.26411 70.1298
4536098 8.15648 9.95504 25.9873 26.2648 0.737619 7.27802 70.3635
4536109 8.15648 9.95504 25.9873 26.2648 0.737619 7.27802 70.3635
4536119 8.16529 9.94583 25.9873 26.2745 0.73458 7.27922 70.3729
4536129 8.16529 9.94583 25.9873 26.2745 0.73458 7.27922 70.3729
4536139 8.10363 9.90899 25.9676 26.333 0.771815 7.31469 70.3131
4536149 8.12124 9.9182 26.1152 26.4109 0.741374 7.33077 70.5656
4536159 8.12124 9.9182 26.1152 26.4109 0.741374 7.33077 70.5656
4536169 8.0772 9.84453 26.1546 26.4206 0.721079 7.3734 70.497
4536179 8.05959 9.79848 26.1251 26.4499 0.732496 7.39359 70.433
4536190 8.05959 9.79848 26.1251 26.4499 0.732496 7.39359 70.433
4536199 8.08601 9.82611 26.0955 26.4596 0.746503 7.37428 70.4673
4536219 8.02435 9.77086 26.1841 26.5278 0.741115 7.42834 70.5071
4536229 8.04197 9.76165 26.1743 26.5668 0.748515 7.42879 70.5447
4536239 8.04197 9.76165 26.1743 26.5668 0.748515 7.42879 70.5447
4536264 8.02435 9.78927 26.0857 26.5668 0.796834 7.41609 70.4661
4536266 8.02435 9.75244 26.0562 26.6739 0.831777 7.43615 70.5069
4536269 8.02435 9.75244 26.0562 26.6739 0.831777 7.43615 70.5069
4536279 8.05959 9.74323 26.1349 26.6739 0.786927 7.43631 70.6117
4536291 8.05959 9.74323 26.1349 26.6739 0.786927 7.43631 70.6117
4536299 7.98031 9.64193 26.066 26.6642 0.803027 7.48545 70.3524
4536315 8.00674 9.70639 26.0463 26.6447 0.816014 7.45224 70.4041
4536323 8.00674 9.70639 26.0463 26.6447 0.816014 7.45224 70.4041
4536329 7.99793 9.68797 26.1054 26.7324 0.82137 7.47661 70.5237
4536342 7.93627 9.64193 26.0857 26.7032 0.825354 7.50578 70.3671
4536349 7.93627 9.64193 26.0857 26.7032 0.825354 7.50578 70.3671
4536359 7.9715 9.62351 26.0759 26.8298 0.853163 7.51283 70.5007
4536369 7.9715 9.62351 26.0759 26.8298 0.853163 7.51283 70.5007
4536379 7.9715 9.63272 26.0168 26.8201 0.874659 7.50257 70.4411
4536389 8.01554 9.62351 26.0562 26.8395 0.847575 7.49772 70.5348
4536411 7.99793 9.70639 25.8888 26.8785 0.957176 7.46322 70.4716
4536436 7.98031 9.57747 25.9577 26.7811 0.860822 7.50699 70.2966
4536440 8.00674 9.68797 25.9479 26.8395 0.912604 7.46843 70.4821
4536450 8.00674 9.68797 25.9479 26.8395 0.912604 7.46843 70.4821
4536461 7.94508 9.7156 25.9184 26.8006 0.942296 7.47196 70.3796
4536470 8.01554 9.72481 25.938 26.7713 0.902265 7.44553 70.4497
4536481 8.01554 9.72481 25.938 26.7713 0.902265 7.44553 70.4497
4536490 8.05078 9.76165 25.9282 26.7908 0.912184 7.42362 70.5315
4536503 8.05078 9.76165 25.9282 26.7908 0.912184 7.42362 70.5315
4536510 8.00674 9.75244 25.8987 26.8493 0.956044 7.44367 70.5071
4536526 7.96269 9.75244 25.879 26.8395 0.976205 7.45454 70.4337
4536541 8.01554 9.78927 25.879 26.8298 0.965965 7.42494 70.5136
4536551 8.03316 9.78006 25.879 26.8298 0.956342 7.42227 70.522
4536574 8.01554 9.78927 25.8002 26.8201 0.991672 7.41542 70.4251
4536581 8.01554 9.78927 25.8002 26.8201 0.991672 7.41542 70.4251
4536597 7.91865 9.79848 25.8199 26.8493 1.03329 7.44862 70.3863
4536601 7.99793 9.74323 25.879 26.937 0.993267 7.45668 70.5571
4536611 7.99793 9.74323 25.879 26.937 0.993267 7.45668 70.5571
4536633 7.98031 9.78006 25.8396 26.9272 1.02349 7.44531 70.5272
4536635 7.91865 9.76165 25.8691 27.0246 1.06218 7.48436 70.5741
4536643 7.91865 9.76165 25.8691 27.0246 1.06218 7.48436 70.5741
4536653 7.88342 9.62351 25.879 27.0636 1.03787 7.5449 70.4495
4536666 7.85699 9.62351 25.879 27.0636 1.04765 7.55336 70.4231
4536672 7.85699 9.62351 25.879 27.1123 1.06421 7.55851 70.4718
4536682 7.8658 9.54984 25.938 27.2097 1.04719 7.59575 70.5634
4536692 7.8658 9.54984 25.938 27.2097 1.04719 7.59575 70.5634
4536702 7.79534 9.53142 25.9676 27.1221 1.02624 7.61816 70.4164
4536712 7.80414 9.52221 25.9873 27.1805 1.03247 7.62647 70.4941
4536725 7.80414 9.52221 25.9873 27.1805 1.03247 7.62647 70.4941
4536734 7.81295 9.56826 25.8593 27.239 1.11202 7.60159 70.4795
4536743 7.81295 9.56826 26.0266 27.239 1.05017 7.61911 70.6468
4536757 7.77772 9.513 26.0266 27.2487 1.04772 7.64913 70.5661
4536764 7.7601 9.37486 26.1349 27.3754 1.0104 7.72352 70.6452
4536784 7.66321 9.32882 26.1349 27.3948 1.0371 7.77158 70.5218
4536794 7.69845 9.32882 26.1251 27.3948 1.02773 7.7592 70.5472
4536805 7.69845 9.32882 26.1251 27.3948 1.02773 7.7592 70.5472
4536814 7.69845 9.24594 26.1349 27.4143 1.00254 7.78897 70.4936
4536828 7.60155 9.24594 26.1349 27.463 1.0549 7.8253 70.4454
4536835 7.60155 9.22752 26.1349 27.463 1.04863 7.83127 70.427
4536845 7.68964 9.19989 26.1644 27.502 1.00906 7.81867 70.556
4536855 7.68964 9.19989 26.1644 27.502 1.00906 7.81867 70.556
4536866 7.60155 9.15385 26.2038 27.5897 1.04118 7.87498 70.5489
4536876 7.60155 9.08938 26.1448 27.5507 1.02782 7.88601 70.3864
4536885 7.60155 9.08938 26.1448 27.5507 1.02782 7.88601 70.3864
4536905 7.5399 9.1078 26.2235 27.541 1.02445 7.90704 70.4122
4536925 7.59275 9.03413 26.2727 27.6189 0.988236 7.92659 70.5185
4536938 7.59275 9.03413 26.2727 27.6189 0.988236 7.92659 70.5185
4536946 7.56632 8.97887 26.3121 27.6676 0.981238 7.96198 70.5249
4536956 7.5487 8.94204 26.4007 27.6871 0.949204 7.99047 70.5785
4536970 7.5487 8.94204 26.4007 27.6871 0.949204 7.99047 70.5785
4536976 7.52228 8.96045 26.381 27.6481 0.959164 7.98725 70.5119
4536992 7.5487 8.91441 26.3712 27.7553 0.973883 8.00331 70.5896
4537006 7.58394 8.96045 26.4105 27.7163 0.94887 7.97689 70.6713
4537026 7.5399 8.9052 26.3712 27.7066 0.957397 8.00436 70.5229
4537039 7.52228 8.94204 26.3219 27.6676 0.981289 7.98932 70.4539
4537062 7.60155 8.9052 26.4794 27.6384 0.871718 7.98824 70.6246
4537068 7.60155 8.94204 26.4105 27.5994 0.896257 7.96552 70.5536
4537078 7.60155 8.94204 26.4105 27.5994 0.896257 7.96552 70.5536
4537088 7.58394 8.95125 26.3909 27.5312 0.88979 7.95949 70.4573
4537098 7.58394 8.95125 26.3909 27.5312 0.88979 7.95949 70.4573
4537108 7.5399 8.96045 26.3909 27.5507 0.915799 7.97278 70.4419
4537118 7.56632 8.95125 26.4598 27.6189 0.900927 7.98083 70.5962
4537129 7.56632 8.95125 26.4598 27.6189 0.900927 7.98083 70.5962
4537138 7.61036 8.89599 26.4598 27.5312 0.835884 7.97575 70.4973
4537152 7.58394 8.94204 26.4499 27.4533 0.838247 7.9606 70.4292
4537159 7.58394 8.94204 26.4499 27.4533 0.838247 7.9606 70.4292
4537169 7.62798 8.89599 26.5385 27.541 0.803953 7.97882 70.6035
4537179 7.62798 8.89599 26.5385 27.541 0.803953 7.97882 70.6035
4537189 7.57513 8.87757 26.4893 27.541 0.835001 7.99716 70.483
4537199 7.57513 8.89599 26.568 27.5799 0.825825 8.00283 70.6191
4537222 7.55751 8.91441 26.4893 27.6287 0.884071 7.99959 70.5899
4537229 7.61036 8.82232 26.5483 27.5702 0.791556 8.01245 70.5512
4537247 7.61036 8.82232 26.5483 27.5702 0.791556 8.01245 70.5512
4537249 7.55751 8.88678 26.5483 27.6287 0.852993 8.01445 70.6213
4537259 7.55751 8.88678 26.5483 27.6287 0.852993 8.01445 70.6213
4537272 7.55751 8.85915 26.5976 27.6092 0.818864 8.02639 70.6234
4537279 7.53109 8.83153 26.509 27.6384 0.861531 8.03817 70.51
4537289 7.53109 8.83153 26.509 27.6384 0.861531 8.03817 70.51
4537299 7.57513 8.83153 26.5779 27.5312 0.783423 8.02001 70.5158
4537309 7.55751 8.8039 26.5287 27.5117 0.791696 8.02799 70.4018
4537322 7.55751 8.8039 26.5287 27.5117 0.791696 8.02799 70.4018
4537329 7.59275 8.87757 26.4794 27.5994 0.852171 7.99624 70.5492
4537347 7.59275 8.87757 26.4794 27.5994 0.852171 7.99624 70.5492
4537350 7.57513 8.85915 26.4991 27.502 0.811699 8.00027 70.4354
4537359 7.59275 8.92362 26.509 27.5312 0.833774 7.9774 70.5566
4537375 7.59275 8.92362 26.509 27.5312 0.833774 7.9774 70.5566
4537379 7.6456 8.9052 26.4991 27.5312 0.811726 7.9652 70.5812
4537389 7.61917 8.93283 26.4302 27.4728 0.836068 7.9521 70.455
4537400 7.61917 8.93283 26.4302 27.4728 0.836068 7.9521 70.455
4537409 7.62798 8.96045 26.509 27.5215 0.830156 7.95298 70.6189
4537425 7.62798 8.96045 26.509 27.5215 0.830156 7.95298 70.6189
4537429 7.61917 8.95125 26.4105 27.463 0.846267 7.94315 70.444
4537439 7.6544 8.99729 26.4105 27.4241 0.835773 7.9128 70.4863
4537449 7.6544 8.99729 26.4105 27.4241 0.835773 7.9128 70.4863
4537460 7.66321 9.02492 26.4007 27.4338 0.848952 7.90095 70.5226
4537477 7.66321 9.02492 26.4007 27.4338 0.848952 7.90095 70.5226
4537480 7.68083 9.04334 26.381 27.3851 0.839332 7.88235 70.4903
4537490 7.72487 9.1078 26.3909 27.4338 0.858328 7.85311 70.6573
4537501 7.72487 9.1078 26.3909 27.4338 0.858328 7.85311 70.6573
4537510 7.71606 9.07096 26.3909 27.4143 0.842294 7.86592 70.5922
4537526 7.76891 9.05255 26.3318 27.4533 0.851598 7.85273 70.6065
4537539 7.76891 9.05255 26.3318 27.4533 0.851598 7.85273 70.6065
4537540 7.76891 9.16306 26.3121 27.3461 0.859952 7.80411 70.5902
4537551 7.7601 9.16306 26.2334 27.3169 0.882071 7.79594 70.4734
4537562 7.7601 9.13543 26.2334 27.3169 0.872615 7.80488 70.4458
4537577 7.79534 9.14464 26.1841 27.2974 0.874233 7.78347 70.4215
4537580 7.79534 9.14464 26.1841 27.2974 0.874233 7.78347 70.4215
4537590 7.73368 9.15385 26.194 27.2779 0.889763 7.79947 70.3594
4537601 7.7601 9.21831 26.1743 27.2195 0.889343 7.76202 70.3722
4537610 7.7601 9.21831 26.1743 27.2195 0.889343 7.76202 70.3722
4537623 7.80414 9.19989 26.1644 27.2292 0.873795 7.75373 70.3977
4537630 7.80414 9.19989 26.1644 27.2292 0.873795 7.75373 70.3977
4537640 7.80414 9.26436 26.1743 27.2195 0.88892 7.73292 70.4623
4537651 7.81295 9.27356 26.1546 27.239 0.902727 7.72709 70.4801
4537661 7.81295 9.27356 26.1546 27.239 0.902727 7.72709 70.4801
4537671 7.8658 9.28277 26.1448 27.2877 0.906721 7.71111 70.581
4537681 7.84819 9.29198 26.1251 27.239 0.906929 7.70675 70.5042
4537692 7.84819 9.29198 26.1251 27.239 0.906929 7.70675 70.5042
4537701 7.8658 9.36566 26.0857 27.2779 0.953358 7.67734 70.5951
4537721 7.83057 9.32882 26.1152 27.1708 0.906304 7.69247 70.4454
4537736 7.89223 9.35645 26.1152 27.1513 0.886434 7.66172 70.5152
4537741 7.89223 9.35645 26.1152 27.1513 0.886434 7.66172 70.5152
4537751 7.91865 9.40249 26.0759 27.0928 0.886941 7.62824 70.4898
4537761 7.8658 9.39328 26.066 27.0928 0.906837 7.64715 70.4179
4537782 7.95389 9.46696 25.9873 27.1123 0.935236 7.58902 70.5204
4537791 7.95389 9.46696 25.9873 27.1123 0.935236 7.58902 70.5204
4537804 7.89223 9.54063 26.0365 26.9564 0.911731 7.57395 70.4258
4537811 7.96269 9.57747 26.0069 26.937 0.902611 7.53441 70.4841
4537821 7.96269 9.57747 26.0069 26.937 0.902611 7.53441 70.4841
4537831 7.99793 9.54063 25.9971 27.0344 0.913978 7.54419 70.57
4537842 8.00674 9.59588 25.9577 26.9467 0.914139 7.51027 70.507
4537854 8.00674 9.59588 25.9577 26.9467 0.914139 7.51027 70.507
4537862 8.00674 9.6143 25.9676 26.898 0.900167 7.50026 70.4866
4537873 8.00674 9.6143 25.9676 26.898 0.900167 7.50026 70.4866
4537882 7.9715 9.59588 25.9971 26.9077 0.899294 7.52157 70.4722
4537896 7.98912 9.64193 25.9873 26.9077 0.912178 7.5002 70.526
4537902 7.98912 9.64193 25.9873 26.9077 0.912178 7.5002 70.526
4537913 8.04197 9.63272 25.9971 26.8493 0.866029 7.48111 70.5211
4537922 8.06839 9.59588 25.9774 26.7713 0.824216 7.474 70.413
4537943 8.0772 9.59588 25.9577 26.7908 0.834894 7.47117 70.4216
4537955 8.0772 9.59588 25.9577 26.7908 0.834894 7.47117 70.4216
4537965 8.0772 9.62351 25.9479 26.7129 0.821227 7.45295 70.3615
4537972 8.0772 9.60509 25.9184 26.7519 0.839129 7.45985 70.3525
4537987 8.0772 9.60509 25.9184 26.7519 0.839129 7.45985 70.3525
4537994 8.05959 9.66956 25.9184 26.8493 0.901067 7.45534 70.4968
4538004 8.03316 9.64193 25.8298 26.7908 0.913936 7.45682 70.2957
4538014 8.03316 9.64193 25.8298 26.7908 0.913936 7.45682 70.2957
4538024 8.05959 9.70639 25.8987 26.8493 0.920889 7.4415 70.5139
4538034 8.05959 9.70639 25.8987 26.8493 0.920889 7.4415 70.5139
4538044 8.04197 9.64193 25.8298 26.859 0.934035 7.46132 70.3727
4538054 8.04197 9.66956 25.8002 26.898 0.967675 7.45352 70.4098
4538064 8.04197 9.66956 25.8002 26.898 0.967675 7.45352 70.4098
4538074 8.01554 9.60509 25.8298 26.9272 0.954494 7.48882 70.3776
4538084 7.98912 9.63272 25.8396 26.9467 0.976697 7.49156 70.4081
4538095 7.98912 9.63272 25.8396 26.9467 0.976697 7.49156 70.4081
4538104 8.03316 9.66035 25.8494 26.937 0.962934 7.4687 70.4799
4538116 8.03316 9.66035 25.8494 26.937 0.962934 7.4687 70.4799
4538124 7.9715 9.57747 25.7904 27.0149 1.00579 7.51689 70.3543
4538134 8.05959 9.60509 25.7805 27.0539 0.9996 7.48302 70.4991
4538144 8.05959 9.60509 25.7805 27.0539 0.9996 7.48302 70.4991
4538156 8.05959 9.64193 25.8199 27.0441 0.994307 7.47444 70.5656
4538171 7.96269 9.64193 25.7904 27.0344 1.03765 7.50116 70.4294
4538180 7.96269 9.64193 25.7904 27.0344 1.03765 7.50116 70.4294
4538185 7.98912 9.65114 25.7313 27.0441 1.05616 7.48452 70.4157
4538199 7.98912 9.65114 25.7313 27.0441 1.05616 7.48452 70.4157
4538206 7.99793 9.64193 25.692 27.0246 1.05772 7.47836 70.3565
4538215 8.04197 9.64193 25.6723 27.1026 1.07519 7.47053 70.4587
4538235 8.08601 9.63272 25.623 27.0831 1.06736 7.45207 70.4249
4538246 7.98912 9.66035 25.6624 27.0539 1.08813 7.47526 70.3658
4538256 7.98912 9.66035 25.6624 27.0539 1.08813 7.47526 70.3658
4538266 8.05959 9.66035 25.6723 27.1708 1.09805 7.46633 70.563
4538275 8.05959 9.66035 25.6723 27.1708 1.09805 7.46633 70.563
4538288 8.00674 9.66035 25.623 27.0831 1.10612 7.46855 70.3732
4538296 8.06839 9.75244 25.5837 27.1026 1.13569 7.41743 70.5071
4538310 8.06839 9.75244 25.5837 27.1026 1.13569 7.41743 70.5071
4538319 8.05078 9.76165 25.5541 27.0539 1.1398 7.41168 70.4204
4538331 8.04197 9.74323 25.5541 27.0149 1.12361 7.41615 70.3542
4538336 8.04197 9.74323 25.5541 27.0149 1.12361 7.41615 70.3542
4538346 8.01554 9.79848 25.5049 27.0344 1.17706 7.40376 70.3533
4538356 8.01554 9.79848 25.5049 27.0344 1.17706 7.40376 70.3533
4538366 8.05959 9.82611 25.4754 26.9954 1.16782 7.37354 70.3565
4538376 8.05078 9.89978 25.4557 27.0052 1.20664 7.35185 70.4114
4538386 8.05078 9.89978 25.4557 27.0052 1.20664 7.35185 70.4114
4538398 8.15648 9.84453 25.3671 27.0246 1.18818 7.32833 70.3928
4538407 8.12124 9.88136 25.4754 26.9662 1.15372 7.33325 70.4442
4538421 8.12124 9.88136 25.4754 26.9662 1.15372 7.33325 70.4442
4538428 8.13886 9.89978 25.4065 26.9662 1.17901 7.31432 70.4113
4538438 8.13886 9.89978 25.4065 26.9662 1.17901 7.31432 70.4113
4538448 8.05078 9.87216 25.4557 26.9077 1.16431 7.35004 70.2864
4538458 8.17409 9.93662 25.4754 26.898 1.12973 7.29157 70.4841
4538469 8.17409 9.93662 25.4754 26.898 1.12973 7.29157 70.4841
4538478 8.16529 10.0103 25.4951 26.8785 1.14404 7.2711 70.5492
4538489 8.09482 10.0103 25.4459 26.8785 1.18847 7.28798 70.4295
4538499 8.09482 9.97346 25.4459 26.8785 1.17601 7.29965 70.3926
4538512 8.21813 9.99187 25.4262 26.7421 1.09753 7.23766 70.3783
4538519 8.21813 9.99187 25.4262 26.7421 1.09753 7.23766 70.3783
4538529 8.1829 10.0195 25.4262 26.7908 1.1365 7.24543 70.4194
4538539 8.1829 10.0287 25.3966 26.7519 1.13737 7.23497 70.3601
4538549 8.1829 10.0287 25.3966 26.7519 1.13737 7.23497 70.3601
4538559 8.1829 10.0471 25.4163 26.7324 1.1297 7.22917 70.3787
4538570 8.20052 10.0103 25.4951 26.7226 1.07816 7.24286 70.4285
4538589 8.20052 10.0103 25.4852 26.7519 1.09173 7.24499 70.4479
4538602 8.20052 10.0103 25.4852 26.7519 1.09173 7.24499 70.4479
4538609 8.17409 9.98267 25.4065 26.8103 1.1412 7.25984 70.3736
4538619 8.20052 10.0011 25.377 26.7519 1.12877 7.23596 70.3304
4538630 8.20052 10.0011 25.377 26.7519 1.12877 7.23596 70.3304
4538639 8.22694 10.0655 25.4459 26.7129 1.10205 7.21057 70.4512
4538657 8.19171 10.0011 25.3868 26.6447 1.09196 7.22799 70.2243
4538660 8.19171 10.0011 25.3868 26.6447 1.09196 7.22799 70.2243
4538669 8.20933 10.0471 25.4459 26.6934 1.09572 7.21979 70.3957
4538685 8.20933 10.0471 25.4459 26.6934 1.09572 7.21979 70.3957
4538689 8.16529 10.0103 25.3868 26.6739 1.11485 7.23667 70.2363
4538699 8.14767 9.98267 25.4951 26.6739 1.07179 7.26294 70.2993
4538713 8.14767 9.98267 25.4951 26.6739 1.07179 7.26294 70.2993
4538720 8.20933 10.0563 25.4655 26.6544 1.07831 7.21475 70.3857
4538735 8.20933 10.0563 25.4655 26.6544 1.07831 7.21475 70.3857
4538740 8.21813 10.0195 25.4163 26.7032 1.09733 7.22354 70.3571
4538750 8.21813 10.0748 25.4557 26.6642 1.08826 7.20615 70.4128
4538761 8.21813 10.0748 25.4557 26.6642 1.08826 7.20615 70.4128
4538770 8.25337 10.0748 25.4655 26.6447 1.06495 7.19397 70.4384
4538781 8.1829 10.0655 25.4262 26.6057 1.08928 7.21044 70.2803
4538790 8.1829 10.0655 25.4262 26.6057 1.08928 7.21044 70.2803
4538802 8.23575 10.0748 25.4459 26.5668 1.05225 7.18869 70.3231
4538817 8.23575 10.0748 25.4655 26.5668 1.04496 7.19088 70.3428
