8695123 10.5964 12.4323 19.9728 16.4479 -0.710244 3.37903 59.4494
8695130 10.5611 12.4323 19.9629 16.4479 -0.691813 3.388 59.4043
8695140 10.5611 12.4323 19.9629 16.4479 -0.691813 3.388 59.4043
8695150 10.5611 12.4507 19.9826 16.4574 -0.68779 3.38801 59.4519
8695160 10.4731 12.4875 20.0023 16.4574 -0.643881 3.40771 59.4204
8695180 10.5435 12.4783 19.9925 16.5431 -0.635752 3.40354 59.5574
8695191 10.5435 12.4691 19.9531 16.4384 -0.668761 3.37827 59.4042
8695201 10.5435 12.4691 19.9531 16.4384 -0.668761 3.37827 59.4042
8695211 10.5611 12.4783 19.9925 16.5431 -0.642955 3.39809 59.5751
8695220 10.5611 12.4783 19.9925 16.5431 -0.642955 3.39809 59.5751
8695233 10.5259 12.4231 20.0318 16.4765 -0.697219 3.42078 59.4573
8695240 10.4907 12.4323 20.0417 16.5526 -0.650001 3.44556 59.5173
8695255 10.4907 12.4323 20.0417 16.5526 -0.650001 3.44556 59.5173
8695260 10.5259 12.4783 19.9728 16.5717 -0.608197 3.41071 59.5487
8695270 10.5171 12.4323 19.9629 16.5431 -0.632676 3.42021 59.4554
8695281 10.5171 12.4323 19.9629 16.5431 -0.632676 3.42021 59.4554
8695290 10.4202 12.4415 20.0614 16.6573 -0.580204 3.48865 59.5804
8695302 10.4202 12.4415 20.0614 16.6573 -0.580204 3.48865 59.5804
8695315 10.3762 12.377 20.0515 16.5907 -0.61451 3.5076 59.3954
8695321 10.429 12.4231 20.0811 16.6478 -0.60388 3.4936 59.581
8695331 10.429 12.4231 20.0811 16.6478 -0.60388 3.4936 59.581
8695342 10.385 12.4415 20.0515 16.6193 -0.578076 3.49032 59.4973
8695351 10.4026 12.3954 20.0417 16.724 -0.55607 3.51748 59.5637
8695362 10.4026 12.3954 20.0417 16.724 -0.55607 3.51748 59.5637
8695373 10.3938 12.3402 20.1303 16.6954 -0.624779 3.54897 59.5597
8695393 10.3585 12.3494 20.1106 16.7525 -0.573777 3.56427 59.5711
8695405 10.4026 12.3034 20.15 16.7716 -0.619531 3.5761 59.6275
8695414 10.4026 12.3034 20.15 16.7716 -0.619531 3.5761 59.6275
8695424 10.3321 12.2941 20.1008 16.7716 -0.574456 3.59152 59.4986
8695434 10.3409 12.2389 20.1795 16.7716 -0.634117 3.62112 59.5309
8695455 10.2969 12.2665 20.15 16.8572 -0.555274 3.63697 59.5706
8695465 10.2793 12.1652 20.1697 16.8477 -0.603752 3.67619 59.4619
8695479 10.2793 12.1652 20.1697 16.8477 -0.603752 3.67619 59.4619
8695486 10.3409 12.2389 20.1598 16.8667 -0.585133 3.63553 59.6064
8695498 10.2969 12.1744 20.1893 16.8858 -0.598705 3.67876 59.5464
8695506 10.2969 12.1744 20.1893 16.8858 -0.598705 3.67876 59.5464
8695521 10.2881 12.2389 20.1893 16.9048 -0.559247 3.66494 59.6211
8695528 10.2881 12.2389 20.1893 16.9048 -0.559247 3.66494 59.6211
8695536 10.2969 12.1468 20.1598 16.8477 -0.614873 3.67457 59.4512
8695546 10.2528 12.156 20.3272 16.8763 -0.649083 3.72269 59.6123
8695557 10.2528 12.156 20.3272 16.8763 -0.649083 3.72269 59.6123
8695567 10.2881 12.1468 20.2779 16.8858 -0.643237 3.70701 59.5986
8695577 10.2617 12.11 20.2484 16.9239 -0.619812 3.7285 59.5439
8695598 10.2705 12.1284 20.2583 16.8667 -0.644109 3.71098 59.5238
8695606 10.2705 12.1284 20.2583 16.8667 -0.644109 3.71098 59.5238
8695627 10.2881 12.1284 20.2386 16.8477 -0.651465 3.6981 59.5027
8695628 10.2352 12.11 20.3764 16.9714 -0.640857 3.76994 59.693
8695640 10.2352 12.11 20.3764 16.9714 -0.640857 3.76994 59.693
8695648 10.2617 12.0915 20.3468 16.9714 -0.647506 3.76187 59.6715
8695660 10.2 12.0547 20.3862 16.9334 -0.670649 3.79313 59.5743
8695680 10.2 12.0087 20.3567 17.0097 -0.64552 3.81647 59.5751
8695688 10.2 12.0087 20.3567 17.0097 -0.64552 3.81647 59.5751
8695701 10.1736 12.0179 20.4059 16.9048 -0.696106 3.81144 59.5022
8695709 10.1648 12.0179 20.4748 16.9429 -0.704195 3.83431 59.6003
8695723 10.1648 12.0179 20.4748 16.9429 -0.704195 3.83431 59.6003
8695729 10.1648 11.9718 20.465 16.9143 -0.732397 3.84167 59.5159
8695739 10.1472 11.9995 20.5437 16.8572 -0.77005 3.84256 59.5475
8695749 10.1472 11.9995 20.5437 16.8572 -0.77005 3.84256 59.5475
8695759 10.1648 11.9258 20.5831 16.8953 -0.808634 3.8748 59.5689
8695769 10.1648 11.9258 20.5831 16.8953 -0.808634 3.8748 59.5689
8695779 10.0767 11.935 20.6225 16.9143 -0.776605 3.91071 59.5485
8695789 10.1119 11.9166 20.6323 16.9714 -0.778188 3.91783 59.6322
8695799 10.1119 11.9166 20.6323 16.9714 -0.778188 3.91783 59.6322
8695809 10.1383 11.8521 20.6717 16.9714 -0.83278 3.93721 59.6336
8695823 10.0767 11.9166 20.6618 17 -0.763534 3.93979 59.6551
8695830 10.0767 11.9166 20.6618 17 -0.763534 3.93979 59.6551
8695840 10.1207 11.8705 20.8095 16.9619 -0.877538 3.96071 59.7627
8695860 10.1031 11.8337 20.78 17 -0.857957 3.97958 59.7168
8695870 10.1031 11.8245 20.7898 16.9714 -0.878297 3.97905 59.6888
8695880 10.1031 11.8245 20.7898 16.9714 -0.878297 3.97905 59.6888
8695890 10.1207 11.8061 20.7603 16.9429 -0.893867 3.96857 59.63
8695900 10.0503 11.7508 20.6618 16.9239 -0.857697 3.9869 59.3868
8695910 10.0503 11.7508 20.6618 16.9239 -0.857697 3.9869 59.3868
8695924 10.1119 11.714 20.7701 16.9619 -0.926048 4.00605 59.5579
8695941 10.0326 11.7324 20.7406 16.9048 -0.898843 4.00949 59.4104
8695950 10.0767 11.7508 20.7603 16.9334 -0.904208 3.99845 59.5211
8695960 10.0767 11.7508 20.7603 16.9334 -0.904208 3.99845 59.5211
8695970 10.0943 11.7876 20.7603 16.8858 -0.916019 3.97227 59.528
8695982 10.0943 11.6863 20.8193 16.8858 -0.984065 4.01553 59.4858
8696001 10.1207 11.7508 20.8686 16.9905 -0.940888 4.0149 59.7306
8696011 10.1207 11.7508 20.8686 16.9905 -0.940888 4.0149 59.7306
8696023 10.0679 11.6863 20.7012 16.8763 -0.929725 4.00037 59.3317
8696034 10.1472 11.7324 20.7504 16.9524 -0.928454 3.98355 59.5824
8696043 10.1472 11.7324 20.7504 16.9524 -0.928454 3.98355 59.5824
8696053 10.1912 11.7416 20.6914 16.8477 -0.964008 3.93622 59.4719
8696063 10.1736 11.7508 20.7209 16.8287 -0.973116 3.94084 59.474
8696073 10.1736 11.7508 20.7209 16.8287 -0.973116 3.94084 59.474
8696083 10.2176 11.8061 20.7997 16.8382 -0.994366 3.92569 59.6615
8696093 10.2176 11.8061 20.7997 16.8382 -0.994366 3.92569 59.6615
8696103 10.1912 11.7324 20.7701 16.8191 -1.01229 3.94848 59.5129
8696113 10.1824 11.7324 20.7209 16.8858 -0.959787 3.95451 59.5215
8696123 10.1824 11.7324 20.7209 16.8858 -0.959787 3.95451 59.5215
8696134 10.2264 11.76 20.6815 16.762 -1.00366 3.90134 59.43
8696144 10.2352 11.7969 20.7504 16.8382 -0.985658 3.91387 59.6207
8696153 10.2352 11.7969 20.7504 16.8382 -0.985658 3.91387 59.6207
8696163 10.244 11.7416 20.7406 16.8096 -1.02182 3.92148 59.5359
8696174 10.244 11.7416 20.7406 16.8096 -1.02182 3.92148 59.5359
8696183 10.2969 11.7876 20.6717 16.724 -1.03268 3.86123 59.4802
8696193 10.2793 11.8245 20.6618 16.6954 -1.01799 3.84794 59.461
8696203 10.2793 11.8245 20.6618 16.6954 -1.01799 3.84794 59.461
8696213 10.3145 11.7969 20.6126 16.6764 -1.03278 3.83271 59.4004
8696223 10.3409 11.8061 20.6914 16.6764 -1.0711 3.83621 59.5147
8696235 10.3409 11.8061 20.6914 16.6764 -1.0711 3.83621 59.5147
8696244 10.3585 11.8061 20.7012 16.7144 -1.06548 3.83962 59.5803
8696255 10.3585 11.8061 20.7012 16.7144 -1.06548 3.83962 59.5803
8696266 10.4026 11.7508 20.7012 16.5717 -1.17007 3.81636 59.4263
8696283 10.4819 11.8061 20.5831 16.5717 -1.13017 3.75155 59.4427
8696284 10.4819 11.8061 20.5831 16.5717 -1.13017 3.75155 59.4427
8696294 10.5083 11.8245 20.6225 16.4574 -1.19874 3.72323 59.4127
8696304 10.5964 11.8982 20.5732 16.4479 -1.18605 3.66121 59.5157
8696324 10.6756 11.9902 20.524 16.3337 -1.20781 3.57635 59.5236
8696334 10.6756 11.9902 20.524 16.3337 -1.20781 3.57635 59.5236
8696353 10.7813 12.0271 20.4059 16.1719 -1.25798 3.47792 59.3862
8696355 10.8606 12.1468 20.2779 16.0767 -1.22766 3.37266 59.3621
8696365 10.8606 12.1468 20.2779 16.0767 -1.22766 3.37266 59.3621
8696375 10.9927 12.3034 20.1893 15.9625 -1.22639 3.24378 59.4479
8696385 10.9927 12.377 20.1106 15.9054 -1.18755 3.19425 59.3857
8696395 10.9927 12.377 20.1106 15.9054 -1.18755 3.19425 59.3857
8696405 11.0808 12.4415 20.0515 15.8007 -1.21693 3.11494 59.3745
8696415 11.0808 12.4415 20.0515 15.8007 -1.21693 3.11494 59.3745
8696426 11.1337 12.5336 20.0318 15.7436 -1.21477 3.05542 59.4427
8696435 11.1337 12.6165 19.9334 15.6579 -1.17655 2.99314 59.3414
8696447 11.1337 12.6165 19.9334 15.6579 -1.17655 2.99314 59.3414
8696458 11.1953 12.6257 19.8743 15.6198 -1.19033 2.95198 59.3152
8696466 11.2834 12.7178 19.9629 15.5722 -1.24141 2.90595 59.5364
8696477 11.2834 12.7178 19.9629 15.5722 -1.24141 2.90595 59.5364
8696486 11.301 12.7362 19.9236 15.5151 -1.24979 2.87548 59.4759
8696508 11.2306 12.7546 19.8547 15.5342 -1.17748 2.88097 59.374
8696518 11.2834 12.8467 19.7759 15.5437 -1.12236 2.82326 59.4497
8696528 11.2834 12.8467 19.7759 15.5437 -1.12236 2.82326 59.4497
8696538 11.2482 12.8559 19.7858 15.4961 -1.12904 2.82333 59.3859
8696550 11.2834 12.8191 19.8054 15.5246 -1.15474 2.8337 59.4326
8696558 11.2834 12.8191 19.8054 15.5246 -1.15474 2.8337 59.4326
8696568 11.3363 12.8927 19.7365 15.5056 -1.12427 2.77777 59.4711
8696578 11.3363 12.8927 19.7365 15.5056 -1.12427 2.77777 59.4711
8696588 11.301 12.9112 19.7169 15.5532 -1.07323 2.78852 59.4822
8696598 11.2922 12.8651 19.7562 15.5437 -1.1099 2.81107 59.4572
8696608 11.2922 12.8651 19.7562 15.5437 -1.1099 2.81107 59.4572
8696618 11.2746 12.8283 19.7169 15.6103 -1.0739 2.83298 59.43
8696628 11.1777 12.8375 19.6775 15.6103 -1.01487 2.85126 59.303
8696638 11.1777 12.8375 19.6775 15.6103 -1.01487 2.85126 59.303
8696646 11.213 12.8559 19.7169 15.7055 -0.995278 2.86264 59.4912
8696656 11.213 12.8559 19.7169 15.7055 -0.995278 2.86264 59.4912
8696668 11.1865 12.8006 19.7464 15.7245 -1.01237 2.8971 59.4581
8696679 11.1337 12.6994 19.7858 15.8387 -1.00127 2.97476 59.4575
8696688 11.1337 12.6994 19.7858 15.8387 -1.00127 2.97476 59.4575
8696698 10.9839 12.7546 19.7858 15.8483 -0.912386 3.00529 59.3726
8696708 10.9751 12.727 19.7661 15.9434 -0.871366 3.03158 59.4116
8696718 10.9751 12.727 19.7661 15.9434 -0.871366 3.03158 59.4116
8696728 11.0016 12.6994 19.8842 16.0006 -0.917098 3.06714 59.5857
8696738 11.0016 12.6994 19.8842 16.0006 -0.917098 3.06714 59.5857
8696748 11.0104 12.6441 19.8054 16.0577 -0.887989 3.0769 59.5176
8696758 10.9311 12.6717 19.8645 16.1338 -0.834739 3.11961 59.6011
8696768 10.9311 12.6717 19.8645 16.1338 -0.834739 3.11961 59.6011
8696779 10.9663 12.6073 19.7661 16.1148 -0.845331 3.10505 59.4544
8696788 10.9487 12.5612 19.8743 16.1719 -0.877303 3.15744 59.5562
8696798 10.9487 12.5612 19.8743 16.1719 -0.877303 3.15744 59.5562
8696808 10.9751 12.6165 19.7956 16.1053 -0.861034 3.10357 59.4925
8696819 10.9751 12.6165 19.7956 16.1053 -0.861034 3.10357 59.4925
8696828 10.8959 12.6073 19.6873 16.1053 -0.788696 3.10886 59.2957
8696838 10.9487 12.5612 19.7365 16.0577 -0.871085 3.10711 59.3041
8696848 10.9487 12.5612 19.7365 16.0577 -0.871085 3.10711 59.3041
8696858 10.9839 12.6165 19.707 16.0672 -0.845179 3.0755 59.3746
8696878 10.9927 12.6717 19.6283 15.972 -0.834087 3.02097 59.2647
8696888 11.072 12.8099 19.5298 15.9625 -0.770323 2.9332 59.3742
8696919 11.072 12.8099 19.5298 15.9625 -0.770323 2.9332 59.3742
8696921 11.1249 12.8651 19.4904 15.8578 -0.797302 2.87123 59.3382
8696922 11.1689 12.9296 19.4609 15.7912 -0.804161 2.81891 59.3506
8696929 11.1689 12.9296 19.4609 15.7912 -0.804161 2.81891 59.3506
8696941 11.2394 13.0401 19.3625 15.7912 -0.744794 2.74447 59.4331
8696952 11.2394 13.0401 19.3625 15.7912 -0.744794 2.74447 59.4331
8696963 11.3098 13.0125 19.3329 15.6484 -0.835513 2.69605 59.3036
8696969 11.3363 13.0861 19.2148 15.6198 -0.778447 2.6357 59.257
8696986 11.3363 13.0861 19.2148 15.6198 -0.778447 2.6357 59.257
8696990 11.4155 13.1322 19.0967 15.4866 -0.800554 2.54576 59.131
8697001 11.4332 13.2703 19.1558 15.458 -0.784175 2.50609 59.3172
8697010 11.4332 13.2703 19.1558 15.458 -0.784175 2.50609 59.3172
8697020 11.5301 13.2979 19.1065 15.4675 -0.787485 2.46104 59.4021
8697030 11.5301 13.3348 18.9983 15.3914 -0.760347 2.41116 59.2545
8697040 11.5301 13.3348 18.9983 15.3914 -0.760347 2.41116 59.2545
8697050 11.6005 13.3532 19.0376 15.3819 -0.801331 2.39143 59.3732
8697060 11.6005 13.3532 19.0376 15.3819 -0.801331 2.39143 59.3732
8697070 11.5829 13.4361 19.0278 15.3533 -0.766544 2.36417 59.4001
8697080 11.5653 13.5005 19.0278 15.2867 -0.760296 2.33629 59.3803
8697091 11.5653 13.5005 19.0278 15.2867 -0.760296 2.33629 59.3803
8697100 11.6358 13.4361 18.9392 15.3343 -0.760217 2.32579 59.3453
8697110 11.5565 13.4361 18.949 15.2867 -0.752498 2.3409 59.2283
8697123 11.5565 13.4361 18.949 15.2867 -0.752498 2.3409 59.2283
8697131 11.6093 13.4269 19.0081 15.3057 -0.793956 2.34481 59.35
8697143 11.6093 13.4269 19.0081 15.3057 -0.793956 2.34481 59.35
8697152 11.6093 13.4269 18.9294 15.3628 -0.736998 2.34019 59.3284
8697164 11.5917 13.4361 19.0573 15.4104 -0.757428 2.38 59.4955
8697172 11.5917 13.4361 19.0573 15.4104 -0.757428 2.38 59.4955
8697185 11.5653 13.4545 18.9687 15.4295 -0.694263 2.36757 59.418
8697192 11.5653 13.4545 19.077 15.4295 -0.738476 2.39055 59.5262
8697207 11.5389 13.4361 19.077 15.3914 -0.752151 2.39559 59.4433
8697211 11.5829 13.4177 19.0081 15.4009 -0.74586 2.37549 59.4096
8697222 11.5829 13.4177 19.0081 15.4009 -0.74586 2.37549 59.4096
8697231 11.5301 13.39 18.9983 15.4104 -0.728092 2.39898 59.3288
8697241 11.5212 13.344 19.0278 15.4199 -0.752415 2.42337 59.313
8697255 11.5212 13.344 19.0278 15.4199 -0.752415 2.42337 59.313
8697262 11.5036 13.3808 18.9589 15.4485 -0.688629 2.40917 59.2918
8697276 11.4244 13.3808 19.1065 15.4485 -0.716636 2.46374 59.3602
8697283 11.4244 13.2427 19.1065 15.5151 -0.747651 2.51851 59.2887
8697293 11.4596 13.2151 19.1951 15.6008 -0.77302 2.55285 59.4706
8697304 11.4596 13.2151 19.1951 15.6008 -0.77302 2.55285 59.4706
8697313 11.3979 13.1322 19.2444 15.6579 -0.779124 2.6178 59.4324
8697323 11.3891 13.123 19.2739 15.7055 -0.770928 2.63919 59.4915
8697344 11.3451 13.0953 19.3231 15.6674 -0.801528 2.66278 59.4309
8697354 11.2746 13.0033 19.3428 15.7721 -0.775361 2.73696 59.3928
8697366 11.2746 13.0033 19.3428 15.7721 -0.775361 2.73696 59.3928
8697374 11.257 12.9572 19.4117 15.7721 -0.816262 2.7702 59.398
8697394 11.213 12.9112 19.4904 15.8768 -0.804915 2.83482 59.4914
8697404 11.1337 12.8651 19.5101 15.9625 -0.76348 2.89395 59.4714
8697415 11.1337 12.8651 19.5101 15.9625 -0.76348 2.89395 59.4714
8697425 11.1425 12.8467 19.579 15.991 -0.79072 2.91665 59.5593
8697436 11.072 12.7638 19.5692 15.991 -0.793976 2.9609 59.3961
8697445 11.072 12.7638 19.5692 15.991 -0.793976 2.9609 59.3961
8697455 11.0016 12.7822 19.6873 16.1148 -0.751798 3.02546 59.5859
8697465 11.0016 12.7822 19.6873 16.1148 -0.751798 3.02546 59.5859
8697475 10.9927 12.5704 19.6676 16.1529 -0.8155 3.09614 59.3837
8697485 10.9487 12.6257 19.7661 16.1529 -0.813638 3.11242 59.4933
8697495 10.9487 12.6257 19.7661 16.1529 -0.813638 3.11242 59.4933
8697505 11.0104 12.5981 19.7365 16.21 -0.813904 3.10758 59.5549
8697517 10.9575 12.5428 19.7661 16.1719 -0.844951 3.1388 59.4383
8697525 10.9575 12.5428 19.7661 16.1719 -0.844951 3.1388 59.4383
8697535 10.9751 12.552 19.6479 16.1814 -0.795895 3.1089 59.3565
8697545 10.9751 12.552 19.6479 16.1814 -0.795895 3.1089 59.3565
8697555 10.9047 12.6165 19.7169 16.2004 -0.75902 3.12832 59.4384
8697567 10.9135 12.6257 19.707 16.1814 -0.762857 3.11706 59.4276
8697576 10.9135 12.6257 19.707 16.1814 -0.762857 3.11706 59.4276
8697586 10.9311 12.6533 19.7169 16.1624 -0.770329 3.10143 59.4636
8697596 10.9575 12.6809 19.6676 16.1338 -0.761439 3.0694 59.4399
8697607 10.9575 12.6809 19.6676 16.1338 -0.761439 3.0694 59.4399
8697620 11.0192 12.7454 19.6381 16.0386 -0.787854 3.00603 59.4413
8697628 11.0104 12.7822 19.5987 16.0101 -0.764619 2.98382 59.4014
8697640 11.0104 12.7822 19.5987 16.0101 -0.764619 2.98382 59.4014
8697648 11.0456 12.8099 19.579 15.9054 -0.804435 2.93958 59.3399
8697658 11.0456 12.8099 19.579 15.9054 -0.804435 2.93958 59.3399
8697668 11.1073 12.9112 19.5692 15.9339 -0.769201 2.89426 59.5215
8697680 11.0896 13.0217 19.5594 15.9054 -0.722583 2.85855 59.576
8697688 11.0896 13.0217 19.5594 15.9054 -0.722583 2.85855 59.576
8697701 11.2218 13.0125 19.4806 15.8387 -0.777099 2.79206 59.5536
8697708 11.2218 13.0125 19.4806 15.8387 -0.777099 2.79206 59.5536
8697721 11.1425 13.0769 19.4412 15.7245 -0.750299 2.76492 59.3852
8697728 11.1425 13.0493 19.4215 15.6769 -0.774916 2.75931 59.2903
8697738 11.1425 13.0493 19.4215 15.6769 -0.774916 2.75931 59.2903
8697748 11.1689 13.0585 19.392 15.696 -0.761373 2.74648 59.3154
8697761 11.1689 13.0953 19.3625 15.696 -0.733311 2.72936 59.3227
8697768 11.1689 13.0953 19.3625 15.696 -0.733311 2.72936 59.3227
8697778 11.1689 13.0401 19.4117 15.696 -0.777419 2.75606 59.3167
8697788 11.1689 13.0401 19.4117 15.696 -0.777419 2.75606 59.3167
8697798 11.1337 13.0033 19.4314 15.734 -0.77053 2.78956 59.3024
8697809 11.1161 13.0861 19.5397 15.8292 -0.730374 2.81177 59.5711
8697819 11.1161 13.0861 19.5397 15.8292 -0.730374 2.81177 59.5711
8697831 11.1073 13.0493 19.5495 15.8483 -0.738485 2.83134 59.5543
8697839 11.0808 13.0033 19.5495 15.8197 -0.759998 2.84723 59.4533
8697849 11.0808 13.0033 19.5495 15.8197 -0.759998 2.84723 59.4533
8697864 11.0896 12.9664 19.5298 15.8768 -0.746781 2.86329 59.4627
8697870 11.028 12.9204 19.6086 15.8673 -0.77783 2.90981 59.4242
8697880 11.028 12.9204 19.6086 15.8673 -0.77783 2.90981 59.4242
8697890 11.0456 12.8835 19.6184 15.972 -0.759611 2.93886 59.5195
8697910 11.028 12.8375 19.6381 15.9244 -0.801046 2.95241 59.428
8697920 10.9663 12.7914 19.7169 16.0101 -0.790814 3.01821 59.4847
8697942 10.9399 12.7638 19.8153 15.991 -0.840332 3.05056 59.51
8697952 10.8782 12.6349 19.894 16.0767 -0.866066 3.14143 59.4839
8697971 10.8078 12.6441 19.9728 16.1529 -0.832362 3.19091 59.5775
8697981 10.8078 12.6441 19.9728 16.1529 -0.832362 3.19091 59.5775
8697993 10.7725 12.552 19.9728 16.1814 -0.845642 3.23552 59.4787
8698003 10.7637 12.5244 19.9925 16.248 -0.833121 3.26374 59.5286
8698011 10.7637 12.5244 19.9925 16.248 -0.833121 3.26374 59.5286
8698021 10.6933 12.4507 20.0712 16.2385 -0.872637 3.32169 59.4537
8698034 10.6668 12.4047 20.0909 16.3147 -0.856808 3.36283 59.4771
8698041 10.6668 12.4047 20.0909 16.3147 -0.856808 3.36283 59.4771
8698052 10.6228 12.331 20.2189 16.3147 -0.922893 3.4242 59.4873
8698061 10.6228 12.331 20.2189 16.3147 -0.922893 3.4242 59.4873
8698074 10.5611 12.2941 20.1992 16.3527 -0.889388 3.45833 59.4072
8698081 10.5788 12.2297 20.2386 16.3147 -0.957251 3.47315 59.3617
8698092 10.5788 12.2297 20.2386 16.3147 -0.957251 3.47315 59.3617
8698102 10.658 12.2573 20.4158 16.4384 -0.994678 3.49814 59.7695
8698111 10.6404 12.2573 20.337 16.3432 -0.997379 3.47003 59.5779
8698121 10.6404 12.2757 20.337 16.3432 -0.989343 3.46433 59.5964
8698131 10.6756 12.2481 20.3173 16.3337 -1.01182 3.45631 59.5748
8698143 10.6756 12.2481 20.3173 16.3337 -1.01182 3.45631 59.5748
8698153 10.7021 12.2757 20.2878 16.2861 -1.01929 3.42461 59.5517
8698162 10.6668 12.2941 20.2386 16.248 -0.993823 3.41282 59.4476
8698184 10.6668 12.2941 20.2386 16.248 -0.993823 3.41282 59.4476
8698200 10.7021 12.3218 20.209 16.2195 -0.996533 3.38204 59.4524
8698203 10.6756 12.3678 20.1992 16.1719 -0.982554 3.36473 59.4146
8698212 10.7637 12.4507 20.1401 16.1338 -0.974701 3.29296 59.4884
8698223 10.7637 12.4507 20.1401 16.1338 -0.974701 3.29296 59.4884
8698233 10.799 12.4783 20.0712 16.0577 -0.982298 3.24501 59.4062
8698243 10.799 12.552 20.0909 15.9625 -0.999667 3.20745 59.4044
8698264 10.887 12.6441 19.9236 15.9054 -0.9523 3.10759 59.3601
8698286 10.8254 12.7454 19.9826 15.9625 -0.882174 3.11875 59.5159
8698294 10.8518 12.773 19.8842 15.9339 -0.85336 3.07689 59.443
8698304 10.8518 12.773 19.8842 15.9339 -0.85336 3.07689 59.443
8698314 10.9223 12.7914 19.7464 15.8768 -0.842814 3.01064 59.3369
8698324 10.9311 12.8927 19.7365 15.8673 -0.802481 2.97336 59.4277
8698334 10.9311 12.8927 19.7365 15.8673 -0.802481 2.97336 59.4277
8698350 10.9047 12.9664 19.707 15.8673 -0.747727 2.9531 59.4454
8698354 10.9047 12.9664 19.707 15.8673 -0.747727 2.9531 59.4454
8698364 10.8782 12.9388 19.6873 15.8387 -0.753255 2.95967 59.3431
8698374 10.9399 12.9664 19.6283 15.8863 -0.721715 2.93035 59.4209
8698398 10.9399 12.9664 19.6283 15.8863 -0.721715 2.93035 59.4209
8698400 11.0016 13.0217 19.6086 15.8578 -0.727302 2.88533 59.4896
8698404 10.9575 13.0217 19.5495 15.9149 -0.660482 2.89818 59.4436
8698414 10.9575 13.0217 19.5495 15.9149 -0.660482 2.89818 59.4436
8698424 10.9663 13.0033 19.579 15.8959 -0.692348 2.90321 59.4445
8698435 10.9487 13.0401 19.5101 15.8578 -0.657451 2.87561 59.3567
8698445 10.9487 13.0401 19.5101 15.8578 -0.657451 2.87561 59.3567
8698456 10.9047 13.0309 19.5594 15.972 -0.614262 2.92494 59.4669
8698465 10.9047 13.0309 19.5594 15.972 -0.614262 2.92494 59.4669
8698480 10.8959 13.0033 19.5298 15.9434 -0.622755 2.92413 59.3724
8698486 10.887 13.0309 19.5889 16.0101 -0.602759 2.94396 59.5169
8698495 10.887 13.0309 19.5889 16.0101 -0.602759 2.94396 59.5169
8698505 10.8254 12.994 19.5397 16.0957 -0.536235 2.98108 59.4548
8698515 10.8254 12.994 19.5397 16.0957 -0.536235 2.98108 59.4548
8698528 10.8518 12.9204 19.6381 16.1243 -0.606894 3.02099 59.5346
8698536 10.8694 12.9296 19.6479 16.2385 -0.565162 3.03779 59.6855
8698555 10.799 12.8927 19.6283 16.1909 -0.564413 3.05679 59.5109
8698566 10.843 12.8559 19.6283 16.2671 -0.565609 3.06987 59.5942
8698576 10.843 12.8559 19.6283 16.2671 -0.565609 3.06987 59.5942
8698586 10.7637 12.8559 19.5692 16.2766 -0.504674 3.08402 59.4654
8698601 10.7637 12.8559 19.5692 16.2766 -0.504674 3.08402 59.4654
8698607 10.6668 12.8006 19.5987 16.2385 -0.516988 3.1287 59.3047
8698616 10.7197 12.7914 19.6381 16.2576 -0.550775 3.12705 59.4068
8698626 10.7197 12.7914 19.6381 16.2576 -0.550775 3.12705 59.4068
8698636 10.7021 12.727 19.6676 16.3432 -0.54656 3.17509 59.4399
8698647 10.6404 12.6717 19.6479 16.3527 -0.532725 3.20889 59.3128
8698657 10.6404 12.6717 19.6479 16.3527 -0.532725 3.20889 59.3128
8698667 10.6316 12.6809 19.7858 16.4099 -0.557309 3.24739 59.5081
8698677 10.6316 12.6809 19.7858 16.4099 -0.557309 3.24739 59.5081
8698687 10.6316 12.5796 19.7365 16.4765 -0.551976 3.28194 59.4243
8698697 10.614 12.552 19.894 16.5622 -0.584458 3.3436 59.6222
8698706 10.614 12.552 19.894 16.5622 -0.584458 3.3436 59.6222
8698717 10.6228 12.5612 19.835 16.5526 -0.563996 3.32463 59.5716
8698727 10.5699 12.5796 19.8547 16.5336 -0.550652 3.33536 59.5378
8698736 10.5699 12.5796 19.8547 16.5336 -0.550652 3.33536 59.5378
8698746 10.5699 12.5244 19.8645 16.4765 -0.603005 3.34313 59.4353
8698756 10.5699 12.5244 19.8645 16.4765 -0.603005 3.34313 59.4353
8698768 10.6228 12.5244 19.8448 16.4479 -0.628915 3.31736 59.4399
8698776 10.7021 12.5888 19.7562 16.4479 -0.597329 3.25571 59.4951
8698787 10.7021 12.5888 19.7562 16.4479 -0.597329 3.25571 59.4951
8698796 10.7021 12.5704 19.7956 16.3718 -0.654218 3.2541 59.4399
8698806 10.6756 12.6073 19.7661 16.2956 -0.648256 3.22998 59.3446
8698816 10.6756 12.6073 19.7661 16.2956 -0.648256 3.22998 59.3446
8698835 10.7197 12.6257 19.8448 16.3527 -0.665943 3.23771 59.5429
8698848 10.6933 12.7086 19.7956 16.3623 -0.595218 3.21258 59.5597
8698858 10.7373 12.6441 19.7169 16.3337 -0.621027 3.19756 59.432
8698869 10.7373 12.6441 19.7169 16.3337 -0.621027 3.19756 59.432
8698879 10.7637 12.6533 19.7169 16.2956 -0.644313 3.17909 59.4295
8698889 10.7813 12.6901 19.6676 16.2861 -0.619572 3.15074 59.4252
8698909 10.7373 12.6901 19.6676 16.2671 -0.609696 3.16041 59.3622
8698919 10.7373 12.6901 19.6676 16.2671 -0.609696 3.16041 59.3622
8698929 10.7549 12.6625 19.7169 16.248 -0.657272 3.16949 59.3823
8698940 10.8342 12.6994 19.707 16.3052 -0.645179 3.14345 59.5457
8698950 10.8342 12.6994 19.707 16.3052 -0.645179 3.14345 59.5457
8698960 10.7902 12.7178 19.6676 16.2671 -0.619479 3.13583 59.4426
8698972 10.8166 12.773 19.6972 16.1719 -0.659628 3.09781 59.4587
8698980 10.8166 12.773 19.6972 16.1719 -0.659628 3.09781 59.4587
8698991 10.8782 12.8375 19.6381 16.1529 -0.641105 3.04383 59.5067
8699000 10.8606 12.7914 19.5889 16.1053 -0.654127 3.04369 59.3462
8699013 10.8606 12.7914 19.5889 16.1053 -0.654127 3.04369 59.3462
8699020 10.8606 12.8927 19.6086 16.0862 -0.626692 3.01307 59.4482
8699040 10.9047 12.9019 19.5397 16.0482 -0.628941 2.97533 59.3944
8699050 10.9135 12.8375 19.6086 16.0672 -0.680403 3.00996 59.4267
8699062 10.9135 12.8375 19.6086 16.0672 -0.680403 3.00996 59.4267
8699072 10.9399 12.9296 19.4806 16.0006 -0.627777 2.93468 59.3506
8699083 10.9223 12.9296 19.5692 16.0386 -0.640459 2.9657 59.4597
8699092 10.9223 12.9296 19.5692 16.0386 -0.640459 2.9657 59.4597
8699102 10.9399 12.9296 19.5594 16.0767 -0.627235 2.96609 59.5055
8699123 10.9223 12.8835 19.5987 16.0767 -0.655992 2.99328 59.4812
8699133 10.9575 12.948 19.5298 15.991 -0.651349 2.93187 59.4264
8699153 10.9311 12.9296 19.5003 16.0006 -0.632244 2.94135 59.3615
8699163 10.9751 12.9572 19.5397 16.0006 -0.654516 2.92771 59.4726
8699179 10.9751 12.9572 19.5397 16.0006 -0.654516 2.92771 59.4726
8699183 10.9487 12.9664 19.5495 15.9149 -0.680752 2.91749 59.3795
8699193 10.9487 12.9664 19.5495 15.9149 -0.680752 2.91749 59.3795
8699203 11.0104 13.0493 19.4806 15.8197 -0.683105 2.84046 59.36
8699213 11.028 12.994 19.4708 15.9054 -0.673135 2.86729 59.3982
8699225 11.028 12.994 19.4708 15.9054 -0.673135 2.86729 59.3982
8699233 11.0632 13.0585 19.4708 15.8483 -0.684381 2.82566 59.4407
8699247 11.028 13.0125 19.4412 15.8578 -0.67365 2.84598 59.3394
8699253 11.028 13.0125 19.4412 15.8578 -0.67365 2.84598 59.3394
8699263 11.1161 13.0769 19.4609 15.8292 -0.702226 2.7984 59.4831
8699283 11.0896 13.0585 19.4412 15.7816 -0.711931 2.79801 59.371
8699293 11.1161 13.0493 19.4314 15.7055 -0.75573 2.77515 59.3022
8699303 11.1161 13.0493 19.4314 15.7055 -0.75573 2.77515 59.3022
8699313 11.1865 13.0585 19.4708 15.715 -0.792423 2.76138 59.4308
8699335 11.1777 13.0677 19.4117 15.6674 -0.781418 2.73926 59.3245
8699343 11.1953 13.1138 19.4314 15.6674 -0.776643 2.72431 59.4079
8699363 11.2658 13.0677 19.4314 15.6484 -0.833608 2.71309 59.4133
8699377 11.2394 13.1506 19.5003 15.5722 -0.847948 2.69478 59.4625
8699384 11.2394 13.1506 19.5003 15.5722 -0.847948 2.69478 59.4625
8699394 11.2746 13.1138 19.4117 15.5532 -0.850569 2.67294 59.3533
8699413 11.2394 13.1414 19.4412 15.4866 -0.865243 2.6675 59.3086
8699423 11.2394 13.169 19.4117 15.4866 -0.841179 2.65312 59.3067
8699434 11.2394 13.169 19.4117 15.4866 -0.841179 2.65312 59.3067
8699444 11.257 13.1414 19.4314 15.4675 -0.876711 2.65624 59.2973
8699454 11.2834 13.1138 19.4609 15.4866 -0.903204 2.6667 59.3447
8699474 11.3098 13.1414 19.3723 15.439 -0.886652 2.62225 59.2625
8699486 11.3098 13.1414 19.3723 15.439 -0.886652 2.62225 59.2625
8699494 11.3451 13.169 19.4412 15.4485 -0.912738 2.61994 59.4038
8699508 11.3451 13.2519 19.4314 15.4295 -0.880925 2.58936 59.4578
8699524 11.3803 13.2611 19.3625 15.3819 -0.883977 2.55186 59.3858
8699534 11.4332 13.3072 19.2936 15.3628 -0.865689 2.5042 59.3967
8699545 11.4332 13.3072 19.2936 15.3628 -0.865689 2.5042 59.3967
8699556 11.4244 13.2979 19.3034 15.3247 -0.886717 2.50357 59.3505
8699575 11.4155 13.3256 19.264 15.3152 -0.859229 2.48771 59.3204
8699587 11.4244 13.3164 19.3231 15.3438 -0.878383 2.50629 59.4076
8699597 11.4244 13.3164 19.3231 15.3438 -0.878383 2.50629 59.4076
8699605 11.4067 13.2979 19.3034 15.3723 -0.858817 2.51878 59.3804
8699618 11.3979 13.2611 19.3231 15.3914 -0.870989 2.54039 59.3735
8699625 11.3979 13.2611 19.3231 15.3914 -0.870989 2.54039 59.3735
8699635 11.4155 13.3072 19.3329 15.4009 -0.857955 2.52566 59.4565
8699645 11.4155 13.3072 19.3329 15.4009 -0.857955 2.52566 59.4565
8699655 11.3627 13.2427 19.3329 15.3819 -0.872846 2.55632 59.3202
8699665 11.3803 13.2151 19.3133 15.3914 -0.879903 2.55715 59.3
8699675 11.3803 13.2151 19.3133 15.3914 -0.879903 2.55715 59.3
8699687 11.3803 13.2335 19.3231 15.3819 -0.880022 2.55177 59.3187
8699697 11.3715 13.2427 19.3428 15.4104 -0.867979 2.56176 59.3674
8699708 11.3715 13.2427 19.3428 15.4104 -0.867979 2.56176 59.3674
8699717 11.3627 13.2703 19.4215 15.4104 -0.884348 2.57268 59.465
8699729 11.3627 13.2703 19.4215 15.4104 -0.884348 2.57268 59.465
8699737 11.3891 13.1782 19.3329 15.4104 -0.89926 2.57357 59.3107
8699750 11.3803 13.1506 19.4117 15.4295 -0.931397 2.60482 59.3721
8699756 11.3803 13.1506 19.4117 15.4295 -0.931397 2.60482 59.3721
8699767 11.3275 13.1782 19.4019 15.4866 -0.868995 2.62216 59.3941
8699776 11.3539 13.1322 19.4215 15.4675 -0.916091 2.62812 59.3751
8699786 11.3539 13.1322 19.4215 15.4675 -0.916091 2.62812 59.3751
8699796 11.3891 13.0861 19.4609 15.5246 -0.941488 2.6514 59.4608
8699806 11.3891 13.0861 19.4609 15.5246 -0.941488 2.6514 59.4608
8699817 11.3098 13.0861 19.4314 15.5056 -0.905693 2.66488 59.333
8699827 11.3363 13.0953 19.4511 15.5342 -0.907926 2.6643 59.4168
8699846 11.442 13.0953 19.4511 15.5913 -0.925833 2.64478 59.5796
8699856 11.3275 13.0493 19.3428 15.6103 -0.847235 2.67395 59.3298
8699867 11.3275 13.0493 19.3428 15.6103 -0.847235 2.67395 59.3298
8699877 11.3187 13.1046 19.3625 15.5627 -0.848328 2.65432 59.3484
8699889 11.3187 13.1046 19.3625 15.5627 -0.848328 2.65432 59.3484
8699896 11.3539 13.1414 19.3133 15.477 -0.863917 2.60477 59.2856
8699906 11.3891 13.1506 19.3526 15.458 -0.898542 2.59584 59.3504
8699919 11.3891 13.1506 19.3526 15.458 -0.898542 2.59584 59.3504
8699927 11.4155 13.2151 19.2837 15.458 -0.853179 2.55451 59.3723
8699937 11.3627 13.2611 19.2345 15.4199 -0.808124 2.53819 59.2782
8699947 11.3627 13.2611 19.2345 15.4199 -0.808124 2.53819 59.2782
8699956 11.3627 13.3348 19.1853 15.4009 -0.764255 2.50205 59.2837
8699978 11.4155 13.2979 19.1853 15.3438 -0.826733 2.48527 59.2426
8699989 11.4508 13.3808 19.2148 15.3438 -0.81705 2.45672 59.3902
8699996 11.4508 13.3808 19.2148 15.3438 -0.81705 2.45672 59.3902
8700007 11.442 13.4361 19.1262 15.3152 -0.765724 2.41828 59.3195
8700018 11.4244 13.4361 19.1656 15.3152 -0.77461 2.4318 59.3413
8700028 11.4244 13.4269 19.1656 15.2867 -0.791022 2.42845 59.3035
8700038 11.4508 13.4269 19.1656 15.3628 -0.768732 2.43682 59.4061
8700058 11.4244 13.3992 19.1262 15.3723 -0.749719 2.44638 59.3222
8700068 11.442 13.4177 19.1262 15.3152 -0.773725 2.42369 59.3011
8700079 11.442 13.4177 19.1262 15.3152 -0.773725 2.42369 59.3011
8700091 11.4332 13.4177 19.1065 15.3533 -0.745541 2.43018 59.3107
8700099 11.4244 13.4177 19.1065 15.3628 -0.737807 2.43478 59.3114
8700122 11.4244 13.4177 19.1065 15.3628 -0.737807 2.43478 59.3114
8700140 11.442 13.4361 19.1361 15.3819 -0.740837 2.43448 59.396
8700152 11.3715 13.4821 19.1262 15.3628 -0.696293 2.43554 59.3427
8700160 11.3715 13.4821 19.1262 15.3628 -0.696293 2.43554 59.3427
8700175 11.4244 13.4821 19.077 15.439 -0.664845 2.42573 59.4225
8700180 11.4508 13.4545 19.0672 15.4199 -0.691806 2.41996 59.3924
8700190 11.4508 13.4545 19.0672 15.4199 -0.691806 2.41996 59.3924
8700200 11.4332 13.4269 19.0869 15.4866 -0.675793 2.4515 59.4334
8700213 11.4332 13.4269 19.0869 15.4866 -0.675793 2.4515 59.4334
8700223 11.3715 13.3808 19.1262 15.4009 -0.723696 2.4734 59.2794
8700230 11.3275 13.3624 19.0967 15.4675 -0.672625 2.49967 59.2541
8700250 11.3627 13.3256 19.0672 15.5246 -0.666185 2.50595 59.2801
8700260 11.301 13.3164 19.1361 15.5913 -0.644323 2.55539 59.3447
8700282 11.2834 13.3072 19.1951 15.6484 -0.640637 2.58764 59.4341
8700301 11.257 13.2795 19.1656 15.7055 -0.604969 2.60941 59.4076
8700313 11.2394 13.2519 19.2345 15.7245 -0.629714 2.64114 59.4503
8700321 11.2394 13.2519 19.2345 15.7245 -0.629714 2.64114 59.4503
8700332 11.2482 13.2887 19.1459 15.715 -0.585192 2.60717 59.3978
8700341 11.2394 13.2703 19.1459 15.7531 -0.573106 2.62318 59.4087
8700352 11.2394 13.2703 19.1459 15.7531 -0.573106 2.62318 59.4087
8700363 11.1513 13.1966 19.2345 15.7912 -0.588651 2.6976 59.3736
8700373 11.1513 13.1966 19.2345 15.7912 -0.588651 2.6976 59.3736
8700383 11.1777 13.1414 19.2247 15.8387 -0.598767 2.71401 59.3825
8700393 11.1161 13.0585 19.2837 15.8959 -0.608818 2.78119 59.3542
8700403 11.1161 13.0585 19.2837 15.8959 -0.608818 2.78119 59.3542
8700414 11.0808 13.0585 19.3428 15.8959 -0.618605 2.8039 59.378
8700423 11.0984 13.0217 19.4609 16.0386 -0.628591 2.86301 59.6197
8700443 11.0368 13.0309 19.4609 15.9339 -0.64448 2.85739 59.4625
8700455 11.0368 13.0309 19.4609 15.9339 -0.64448 2.85739 59.4625
8700463 11.0456 12.9756 19.4117 15.9339 -0.651768 2.8613 59.3668
8700475 11.0808 12.9296 19.4511 15.953 -0.694005 2.87648 59.4144
8700483 11.0808 12.9296 19.4511 15.953 -0.694005 2.87648 59.4144
8700493 11.0632 12.9019 19.4609 15.8959 -0.727524 2.88045 59.3219
8700503 11.0544 12.9112 19.5003 15.9625 -0.707175 2.90195 59.4283
8700513 11.0544 12.9112 19.5003 15.9625 -0.707175 2.90195 59.4283
8700523 11.072 12.9112 19.5594 15.953 -0.742596 2.90672 59.4955
8700533 11.072 12.9112 19.5594 15.953 -0.742596 2.90672 59.4955
8700544 11.0456 12.8743 19.4904 15.8673 -0.756785 2.8943 59.2777
8700555 11.0544 12.9112 19.5298 15.9149 -0.739843 2.89827 59.4103
8700564 11.0544 12.9112 19.5298 15.9149 -0.739843 2.89827 59.4103
8700578 11.0896 12.8743 19.4708 15.9434 -0.733696 2.89254 59.3782
8700584 11.0984 12.9019 19.4904 15.8483 -0.77465 2.86615 59.3391
8700605 11.1249 12.9204 19.5298 15.8863 -0.776967 2.86848 59.4614
8700614 11.1249 12.9204 19.5298 15.8863 -0.776967 2.86848 59.4614
8700626 11.1249 12.9572 19.4511 15.8863 -0.728883 2.84132 59.4195
8700634 11.1161 12.9296 19.5298 15.8863 -0.769386 2.86836 59.4618
8700649 11.1161 12.9296 19.5298 15.8863 -0.769386 2.86836 59.4618
8700654 11.0984 12.9296 19.4708 15.8673 -0.746353 2.8577 59.3661
8700664 11.1073 12.948 19.5101 15.9244 -0.73331 2.86922 59.4898
8700674 11.1073 12.948 19.5101 15.9244 -0.73331 2.86922 59.4898
8700686 11.1073 12.8651 19.5495 15.8387 -0.822471 2.88471 59.3606
8700705 11.0808 12.8099 19.5987 15.8863 -0.835086 2.92907 59.3758
8700718 11.0192 12.7914 19.6578 15.8959 -0.837904 2.9672 59.3643
8700733 11.0192 12.7914 19.6578 15.8959 -0.837904 2.9672 59.3643
8700742 11.0368 12.7638 19.5692 15.8768 -0.829309 2.94837 59.2466
8700766 11.0544 12.8006 19.6578 16.0006 -0.802752 2.97495 59.5134
8700769 11.0808 12.8006 19.6184 15.9339 -0.826406 2.94551 59.4338
8700777 11.028 12.8099 19.579 15.8863 -0.80553 2.94104 59.3032
8700798 11.1073 12.8283 19.5987 15.8673 -0.846106 2.91166 59.4016
8700818 11.028 12.8283 19.6086 15.9054 -0.801285 2.94534 59.3702
8700828 11.0896 12.8559 19.5692 15.8768 -0.810768 2.90457 59.3916
8700839 11.0896 12.8559 19.5692 15.8768 -0.810768 2.90457 59.3916
8700848 11.0544 12.948 19.5987 15.8863 -0.764361 2.8954 59.4875
8700862 11.0456 12.9296 19.5101 15.8483 -0.749107 2.87777 59.3336
8700868 11.0456 12.9296 19.5101 15.8483 -0.749107 2.87777 59.3336
8700878 11.0368 12.994 19.4019 15.8483 -0.673209 2.83884 59.281
8700888 11.0368 12.994 19.4019 15.8483 -0.673209 2.83884 59.281
8700898 11.028 13.0401 19.4019 15.7816 -0.678509 2.81396 59.2516
8700909 11.0808 13.0953 19.2739 15.7816 -0.623712 2.75512 59.2317
8700918 11.0808 13.0953 19.2739 15.7816 -0.623712 2.75512 59.2317
8700933 11.0808 13.1506 19.3723 15.8197 -0.623848 2.76674 59.4235
8700938 11.1073 13.1506 19.3723 15.8292 -0.630578 2.7608 59.4594
8700948 11.1073 13.1598 19.3723 15.8292 -0.626609 2.75805 59.4686
8700958 11.0896 13.169 19.3822 15.8387 -0.615355 2.76455 59.4796
8700979 11.0808 13.1322 19.3822 15.8197 -0.63583 2.77427 59.4149
8700989 11.1249 13.1506 19.392 15.7912 -0.662281 2.75175 59.4586
8701003 11.1249 13.1506 19.392 15.7912 -0.662281 2.75175 59.4586
8701009 11.1073 13.1506 19.3526 15.7626 -0.651263 2.74301 59.3731
8701019 11.1073 13.1506 19.3526 15.7626 -0.651263 2.74301 59.3731
8701029 11.0896 13.0585 19.4019 15.8292 -0.675218 2.7997 59.3792
8701039 11.0368 13.0401 19.3822 15.7816 -0.674042 2.80726 59.2407
8701049 11.0368 13.0401 19.3822 15.7816 -0.674042 2.80726 59.2407
8701059 11.1073 13.0125 19.4215 15.7816 -0.731042 2.80249 59.3229
8701070 11.0104 12.994 19.4609 15.8673 -0.67835 2.8628 59.3326
8701080 11.0104 12.994 19.4609 15.8673 -0.67835 2.8628 59.3326
8701092 11.0808 12.9388 19.4806 15.9149 -0.718568 2.87197 59.4151
8701099 11.0808 12.9388 19.4806 15.9149 -0.718568 2.87197 59.4151
8701109 11.0368 12.9848 19.5987 15.9815 -0.700128 2.90896 59.6019
8701119 11.0016 12.8927 19.6381 16.0957 -0.692277 2.97835 59.6281
8701129 11.0016 12.8927 19.6381 16.0957 -0.692277 2.97835 59.6281
8701139 10.9487 12.7914 19.6578 16.0386 -0.747192 3.0174 59.4366
8701149 10.9311 12.7362 19.6578 16.1814 -0.70214 3.06822 59.5065
8701159 10.9311 12.7362 19.6578 16.1814 -0.70214 3.06822 59.5065
8701169 10.9223 12.7454 19.6381 16.1814 -0.686523 3.06415 59.4872
8701180 10.9223 12.7454 19.6381 16.1814 -0.686523 3.06415 59.4872
8701190 10.9135 12.6533 19.6578 16.1909 -0.726673 3.10069 59.4155
8701201 10.9311 12.6257 19.6972 16.21 -0.753655 3.11543 59.4639
8701210 10.9311 12.6257 19.6972 16.21 -0.753655 3.11543 59.4639
8701220 10.9047 12.5244 19.6676 16.2861 -0.741716 3.16372 59.3828
8701230 10.887 12.5336 19.7169 16.3337 -0.730018 3.18556 59.4712
8701242 10.887 12.5336 19.7169 16.3337 -0.730018 3.18556 59.4712
8701250 10.8518 12.5888 19.7661 16.3242 -0.715953 3.18732 59.5309
8701270 10.8518 12.5152 19.7759 16.3147 -0.755954 3.20992 59.4576
8701280 10.9135 12.552 19.6972 16.248 -0.761893 3.15088 59.4107
8701290 10.9135 12.552 19.6972 16.248 -0.761893 3.15088 59.4107
8701300 10.9663 12.506 19.6184 16.1814 -0.800276 3.11974 59.2721
8701310 11.028 12.5888 19.5889 16.1814 -0.777362 3.06972 59.3871
8701332 11.0456 12.6533 19.5987 16.1053 -0.793628 3.03144 59.4029
8701342 10.9927 12.5888 19.6381 16.0957 -0.820301 3.07313 59.3154
8701363 11.0808 12.6073 19.6381 16.1148 -0.839861 3.04457 59.441
8701373 11.0808 12.6073 19.6381 16.1148 -0.839861 3.04457 59.441
8701383 11.0544 12.6257 19.6381 16.0482 -0.850093 3.03358 59.3663
8701393 11.0632 12.6901 19.707 16.1243 -0.820586 3.04054 59.5847
8701414 11.0192 12.5981 19.6676 16.0386 -0.863957 3.05673 59.3235
8701424 11.0544 12.6073 19.6775 16.1148 -0.845122 3.0605 59.4539
8701435 11.0544 12.6073 19.6775 16.1148 -0.845122 3.0605 59.4539
8701444 11.0632 12.6165 19.6479 16.1433 -0.820296 3.05484 59.471
8701464 10.9663 12.506 19.6775 16.1909 -0.820224 3.13346 59.3407
8701477 10.9927 12.5796 19.7661 16.1624 -0.847387 3.11493 59.5008
8701499 11.0104 12.4967 19.7464 16.21 -0.861886 3.14039 59.4635
8701507 10.9839 12.4875 19.7858 16.21 -0.871149 3.15911 59.4672
8701515 10.9839 12.4875 19.7858 16.21 -0.871149 3.15911 59.4672
8701525 10.9487 12.4415 19.7858 16.2766 -0.847891 3.19721 59.4526
8701535 10.9487 12.4415 19.7858 16.2766 -0.847891 3.19721 59.4526
8701545 10.9223 12.4323 19.8645 16.2576 -0.881413 3.21996 59.4766
8701555 10.8959 12.3954 19.8842 16.3813 -0.84092 3.26768 59.5568
8701576 10.8694 12.3218 19.8842 16.3337 -0.882919 3.28906 59.4091
8701588 10.8518 12.2849 19.9728 16.4003 -0.898725 3.33635 59.5099
8701597 10.8518 12.2849 19.9728 16.4003 -0.898725 3.33635 59.5099
8701609 10.8606 12.3126 19.9137 16.4479 -0.845662 3.32287 59.5348
8701617 10.799 12.2389 20.0023 16.4479 -0.888605 3.38195 59.4881
8701636 10.7725 12.2113 20.0909 16.5241 -0.892679 3.43073 59.5988
8701647 10.7725 12.2113 20.0909 16.5241 -0.892679 3.43073 59.5988
8701657 10.7285 12.1376 20.1106 16.4955 -0.927313 3.46549 59.4722
8701667 10.7725 12.0915 20.1598 16.486 -0.989248 3.47381 59.5099
8701677 10.7725 12.0915 20.1598 16.486 -0.989248 3.47381 59.5099
8701687 10.7197 12.1468 20.1401 16.467 -0.944136 3.46556 59.4736
8701697 10.7197 12.1468 20.1401 16.467 -0.944136 3.46556 59.4736
8701709 10.7637 12.1836 20.0515 16.3718 -0.951585 3.4047 59.3707
8701717 10.843 12.2297 19.9826 16.3908 -0.927365 3.35617 59.4461
8701727 10.843 12.2297 19.9826 16.3908 -0.927365 3.35617 59.4461
8701736 10.8694 12.2941 19.9728 16.3147 -0.939174 3.31127 59.451
8701747 10.887 12.4047 19.8153 16.2004 -0.88405 3.21815 59.3074
8701757 10.887 12.4047 19.8153 16.2004 -0.88405 3.21815 59.3074
8701767 11.0104 12.5152 19.8448 16.1148 -0.935203 3.13542 59.4851
8701777 11.0104 12.5152 19.8448 16.1148 -0.935203 3.13542 59.4851
8701788 10.9839 12.5888 19.7661 16.0101 -0.906117 3.08431 59.3489
8701798 11.0808 12.6717 19.6578 16.0196 -0.861223 3.00981 59.4299
8701821 11.0984 12.7638 19.5692 15.9244 -0.833707 2.93939 59.3559
8701829 11.1689 12.8099 19.4904 15.7721 -0.876661 2.85707 59.2413
8701848 11.1953 12.9204 19.4019 15.7245 -0.823863 2.78788 59.2421
8701859 11.2306 12.948 19.3822 15.7436 -0.809881 2.7689 59.3043
8701869 11.2306 12.948 19.3822 15.7436 -0.809881 2.7689 59.3043
8701879 11.2306 13.0309 19.3133 15.696 -0.766394 2.72001 59.2707
8701889 11.2306 13.0309 19.3133 15.696 -0.766394 2.72001 59.2707
8701899 11.2218 13.123 19.2936 15.696 -0.714764 2.69106 59.3343
8701909 11.2394 13.0953 19.3133 15.8197 -0.688437 2.72373 59.4677
8701922 11.2394 13.0953 19.3133 15.8197 -0.688437 2.72373 59.4677
8701929 11.257 13.1874 19.2148 15.8007 -0.623828 2.66677 59.4599
8701939 11.2482 13.1874 19.205 15.7721 -0.628492 2.66142 59.4127
8701950 11.2482 13.1506 19.205 15.7721 -0.644392 2.67238 59.3759
8701960 11.2394 13.2059 19.2345 15.8102 -0.612645 2.67259 59.4899
8701980 11.2658 13.2151 19.1164 15.7626 -0.591533 2.62756 59.3598
8701991 11.2658 13.2335 19.0475 15.8292 -0.526549 2.62162 59.376
8702012 11.2922 13.3072 18.9786 15.7245 -0.522377 2.55564 59.3025
8702021 11.2746 13.3716 18.9687 15.8102 -0.446586 2.55768 59.4251
8702035 11.2746 13.3716 18.9687 15.8102 -0.446586 2.55768 59.4251
8702043 11.3187 13.3532 18.9687 15.7912 -0.480819 2.54612 59.4317
8702056 11.3187 13.3532 18.9687 15.7912 -0.480819 2.54612 59.4317
8702063 11.2218 13.3624 18.9884 15.7531 -0.461309 2.5682 59.3257
8702073 11.2394 13.3808 18.9884 15.8578 -0.41586 2.57944 59.4664
8702083 11.2394 13.3808 18.9884 15.8578 -0.41586 2.57944 59.4664
8702093 11.2834 13.3716 18.9294 15.7816 -0.446182 2.54084 59.366
8702103 11.213 13.4177 18.9294 15.7912 -0.39321 2.55005 59.3511
8702113 11.213 13.4177 18.9294 15.7912 -0.39321 2.55005 59.3511
8702123 11.213 13.4453 18.9097 15.7531 -0.389515 2.52976 59.321
8702144 11.2218 13.4361 18.8801 15.7436 -0.388934 2.52166 59.2815
8702154 11.2306 13.4913 18.8112 15.715 -0.352526 2.48219 59.2481
8702174 11.2218 13.5098 18.89 15.7055 -0.377782 2.49396 59.327
8702184 11.2834 13.4729 18.89 15.7245 -0.410961 2.49066 59.3708
8702194 11.2834 13.4729 18.89 15.7245 -0.410961 2.49066 59.3708
8702204 11.301 13.5374 18.9195 15.7436 -0.394784 2.47674 59.5015
8702214 11.301 13.5374 18.9195 15.7436 -0.394784 2.47674 59.5015
8702224 11.2658 13.4269 18.8408 15.7721 -0.382589 2.50909 59.3056
8702234 11.1953 13.4821 18.9589 15.8292 -0.354353 2.55038 59.4656
8702245 11.1953 13.4821 18.9589 15.8292 -0.354353 2.55038 59.4656
8702254 11.1601 13.3808 18.9589 15.8007 -0.395231 2.58479 59.3005
8702264 11.1601 13.4177 18.9687 15.8578 -0.359145 2.58788 59.4043
8702274 11.1601 13.4177 18.9687 15.8578 -0.359145 2.58788 59.4043
8702284 11.1953 13.39 18.9983 15.8483 -0.40185 2.58981 59.4319
8702294 11.1953 13.39 18.9983 15.8483 -0.40185 2.58981 59.4319
8702304 11.1337 13.3808 19.0081 15.8292 -0.392461 2.60889 59.3518
8702314 11.1601 13.3164 18.9687 15.8292 -0.414701 2.61196 59.2744
8702325 11.1601 13.3164 18.9687 15.8292 -0.414701 2.61196 59.2744
8702334 11.1425 13.3348 18.9786 15.8102 -0.411743 2.6098 59.266
8702348 11.2218 13.3808 18.9786 15.9149 -0.38012 2.59451 59.4961
8702354 11.2218 13.3808 18.9786 15.9149 -0.38012 2.59451 59.4961
8702364 11.2658 13.3808 18.9884 15.8578 -0.426781 2.57163 59.4928
8702374 11.2658 13.3808 18.9884 15.8578 -0.426781 2.57163 59.4928
8702384 11.2394 13.3532 18.9589 15.8102 -0.435838 2.57148 59.3617
8702394 11.2218 13.3348 18.9195 15.8292 -0.411965 2.5779 59.3053
8702405 11.2218 13.3348 18.9195 15.8292 -0.411965 2.5779 59.3053
8702415 11.213 13.2611 18.9589 15.9244 -0.415419 2.63048 59.3574
8702425 11.1689 13.2795 19.0672 15.8768 -0.454493 2.65073 59.3924
8702439 11.1689 13.2795 19.0672 15.8768 -0.454493 2.65073 59.3924
8702445 11.1865 13.2703 19.0475 15.8768 -0.457586 2.64414 59.3811
8702457 11.1865 13.2703 19.0475 15.8768 -0.457586 2.64414 59.3811
8702465 11.1953 13.2703 19.0869 15.8102 -0.506076 2.63585 59.3627
8702475 11.2834 13.1966 19.0475 15.8483 -0.541465 2.63129 59.3758
8702486 11.2834 13.1966 19.0475 15.8483 -0.541465 2.63129 59.3758
8702495 11.2218 13.2519 19.0475 15.8197 -0.504559 2.62725 59.3409
8702506 11.2041 13.2611 19.0869 15.8197 -0.509581 2.63795 59.3718
8702516 11.2041 13.2611 19.0869 15.8197 -0.509581 2.63795 59.3718
8702531 11.2922 13.2703 19.0278 15.7245 -0.558537 2.57687 59.3149
8702547 11.2922 13.2243 18.9884 15.7436 -0.553943 2.58626 59.2485
8702559 11.2834 13.3164 19.0475 15.715 -0.547291 2.56797 59.3623
8702568 11.2834 13.3164 19.0475 15.715 -0.547291 2.56797 59.3623
8702578 11.3627 13.3072 19.0376 15.7245 -0.575724 2.54719 59.432
8702588 11.3539 13.344 18.9983 15.6293 -0.581041 2.51066 59.3255
8702600 11.3539 13.344 18.9983 15.6293 -0.581041 2.51066 59.3255
8702608 11.3627 13.3256 19.0573 15.6008 -0.629216 2.51991 59.3464
8702623 11.3627 13.3256 19.0573 15.6008 -0.629216 2.51991 59.3464
8702628 11.3891 13.3532 19.018 15.5722 -0.624298 2.48966 59.3325
8702638 11.4244 13.3992 19.0376 15.5437 -0.639288 2.46387 59.4049
8702648 11.4244 13.3992 19.0376 15.5437 -0.639288 2.46387 59.4049
8702658 11.4508 13.4729 18.9786 15.4961 -0.614646 2.41193 59.3983
8702667 11.4772 13.4821 18.9687 15.3914 -0.662696 2.37716 59.3194
8702688 11.4772 13.4821 18.9687 15.3914 -0.662696 2.37716 59.3194
8702690 11.4772 13.4729 19.0081 15.4009 -0.678706 2.39025 59.3591
8702698 11.4772 13.4729 19.0081 15.4009 -0.678706 2.39025 59.3591
8702712 11.442 13.3624 19.0081 15.4295 -0.699767 2.43911 59.2419
8702718 11.4772 13.3532 19.018 15.3819 -0.742906 2.42345 59.2302
8702738 11.3979 13.3716 19.1164 15.3723 -0.746885 2.46021 59.2583
8702748 11.486 13.3164 19.1262 15.4295 -0.786088 2.4647 59.3581
8702760 11.486 13.3164 19.1262 15.4295 -0.786088 2.4647 59.3581
8702770 11.4332 13.3164 19.1459 15.5246 -0.731269 2.50447 59.4201
8702789 11.442 13.2795 19.1262 15.477 -0.763439 2.49856 59.3248
8702802 11.4067 13.3072 19.1656 15.4961 -0.744882 2.5131 59.3756
8702809 11.4067 13.3072 19.1656 15.4961 -0.744882 2.5131 59.3756
8702824 11.4067 13.2979 19.1361 15.477 -0.745064 2.5056 59.3178
8702829 11.4155 13.2427 19.1853 15.5151 -0.776228 2.53767 59.3586
8702839 11.4155 13.2427 19.1853 15.5151 -0.776228 2.53767 59.3586
8702850 11.3979 13.1322 19.2837 15.4866 -0.869688 2.59025 59.3004
8702859 11.3979 13.1322 19.2837 15.4866 -0.869688 2.59025 59.3004
8702870 11.3451 13.1506 19.2936 15.4961 -0.839995 2.60452 59.2853
8702879 11.3979 13.1506 19.3329 15.5532 -0.852653 2.60899 59.4347
8702892 11.3979 13.1506 19.3329 15.5532 -0.852653 2.60899 59.4347
8702899 11.3979 13.123 19.3231 15.5342 -0.868969 2.61115 59.3782
8702909 11.3715 13.0493 19.4314 15.5532 -0.926012 2.66738 59.4054
8702930 11.3539 13.0953 19.3822 15.6103 -0.853948 2.66057 59.4417
8702940 11.3539 13.0953 19.3822 15.6103 -0.853948 2.66057 59.4417
8702950 11.3979 12.948 19.4806 15.5722 -0.992572 2.70382 59.3988
8702961 11.3803 12.9204 19.5594 15.5246 -1.05021 2.72376 59.3847
8702970 11.3803 12.9204 19.5594 15.5246 -1.05021 2.72376 59.3847
8702982 11.3363 12.948 19.52 15.5056 -1.01276 2.71658 59.3098
8702989 11.3539 12.8559 19.5003 15.6008 -1.01056 2.75446 59.3109
8703000 11.3539 12.8559 19.5003 15.6008 -1.01056 2.75446 59.3109
8703010 11.3627 12.9112 19.5594 15.5627 -1.03045 2.73963 59.3959
8703020 11.3627 12.9112 19.5594 15.5627 -1.03045 2.73963 59.3959
8703030 11.3451 12.9388 19.5692 15.5246 -1.03189 2.73082 59.3777
8703040 11.4244 13.0309 19.4806 15.5056 -0.996141 2.65748 59.4414
8703060 11.3891 13.1046 19.4215 15.439 -0.954919 2.61991 59.3542
8703070 11.442 13.0401 19.4215 15.3628 -1.03794 2.60746 59.2664
8703092 11.4948 13.1506 19.4511 15.4295 -0.993618 2.57916 59.5259
8703102 11.4948 13.1506 19.4511 15.4295 -0.993618 2.57916 59.5259
8703113 11.4332 13.1506 19.392 15.3533 -0.978135 2.56912 59.3291
8703122 11.442 13.1138 19.3822 15.3628 -0.989683 2.57735 59.3007
8703134 11.442 13.1138 19.3822 15.3628 -0.989683 2.57735 59.3007
8703142 11.4948 13.1414 19.3428 15.3628 -0.983036 2.54527 59.3418
8703151 11.4684 13.1414 19.392 15.3914 -0.979757 2.56939 59.3932
8703162 11.4684 13.0585 19.392 15.3914 -1.01606 2.59394 59.3103
8703172 11.4508 13.1138 19.3723 15.439 -0.955932 2.58862 59.3758
8703191 11.4508 13.1046 19.3822 15.4961 -0.938992 2.60533 59.4336
8703204 11.4332 13.1506 19.4117 15.4009 -0.965281 2.5832 59.3963
8703212 11.4332 13.1506 19.4117 15.4009 -0.965281 2.5832 59.3963
8703222 11.4508 13.1874 19.2444 15.3343 -0.917575 2.51797 59.2168
8703241 11.4067 13.2059 19.2936 15.2962 -0.928284 2.5279 59.2024
8703252 11.4948 13.2243 19.2936 15.3723 -0.922701 2.51246 59.385
8703263 11.4948 13.2243 19.2936 15.3723 -0.922701 2.51246 59.385
8703274 11.4596 13.2703 19.205 15.3914 -0.844008 2.49463 59.3263
8703283 11.4684 13.2887 19.2739 15.4485 -0.842752 2.51311 59.4795
8703296 11.4684 13.2887 19.2739 15.4485 -0.842752 2.51311 59.4795
8703304 11.4772 13.2243 19.3133 15.4009 -0.911081 2.52779 59.4156
8703313 11.3979 13.2519 19.2148 15.3819 -0.835069 2.51834 59.2465
8703323 11.3979 13.2519 19.2148 15.3819 -0.835069 2.51834 59.2465
8703334 11.4155 13.2059 19.3329 15.4961 -0.860617 2.5755 59.4504
8703344 11.4155 13.2059 19.3329 15.4961 -0.860617 2.5755 59.4504
8703353 11.3187 13.2243 19.2739 15.5246 -0.776707 2.59235 59.3414
8703366 11.3627 13.2703 19.3231 15.5246 -0.794731 2.57598 59.4807
8703373 11.3627 13.2703 19.3231 15.5246 -0.794731 2.57598 59.4807
8703383 11.3715 13.2243 19.3034 15.5627 -0.79376 2.59082 59.4619
8703394 11.301 13.1414 19.2837 15.6008 -0.776456 2.64014 59.3269
8703414 11.2922 13.1782 19.3822 15.6579 -0.772247 2.66414 59.5105
8703424 11.2922 13.1782 19.3822 15.6579 -0.772247 2.66414 59.5105
8703438 11.2041 13.1138 19.3231 15.715 -0.715378 2.70913 59.356
8703444 11.1689 13.0677 19.4314 15.8102 -0.723958 2.77537 59.4782
8703454 11.1689 13.0677 19.4314 15.8102 -0.723958 2.77537 59.4782
8703464 11.1689 13.0677 19.4117 15.8102 -0.715922 2.77133 59.4585
8703474 11.1689 13.0677 19.4117 15.8102 -0.715922 2.77133 59.4585
8703485 11.1073 13.0217 19.4117 15.8292 -0.702401 2.80749 59.3698
8703497 11.1425 13.0217 19.4019 15.8483 -0.704548 2.79881 59.4143
8703507 11.1425 13.0217 19.4019 15.8483 -0.704548 2.79881 59.4143
8703514 11.1249 12.9756 19.4511 15.8863 -0.720912 2.8358 59.4379
8703530 11.0984 12.9204 19.5298 15.9054 -0.757948 2.88031 59.454
8703535 11.0984 12.9204 19.5298 15.9054 -0.757948 2.88031 59.454
8703545 11.1425 12.9296 19.5101 15.953 -0.743291 2.86999 59.5352
8703555 11.0808 12.8927 19.5101 15.9149 -0.750577 2.89185 59.3986
8703565 11.0808 12.8927 19.5101 15.9149 -0.750577 2.89185 59.3986
8703576 11.0984 12.8743 19.5495 15.8959 -0.790069 2.89623 59.4181
8703599 11.0192 12.8467 19.5298 15.953 -0.736886 2.9361 59.3487
8703606 11.0368 12.7638 19.6184 15.9815 -0.803807 2.9796 59.4005
8703626 11.0368 12.7546 19.6972 16.0957 -0.79031 3.02131 59.5843
8703636 11.0192 12.727 19.6873 16.1053 -0.786985 3.03494 59.5387
8703646 11.0192 12.727 19.6873 16.1053 -0.786985 3.03494 59.5387
8703656 11.0192 12.6809 19.6184 16.0672 -0.795421 3.02737 59.3857
8703676 11.072 12.6901 19.6283 15.953 -0.866638 2.98746 59.3434
8703686 11.0896 12.6901 19.5889 15.9244 -0.87024 2.96835 59.2931
8703698 11.0896 12.6901 19.5889 15.9244 -0.87024 2.96835 59.2931
8703709 11.1601 12.8099 19.5298 15.9244 -0.82275 2.89889 59.4242
8703719 11.1161 12.8283 19.4904 15.8387 -0.818023 2.8811 59.2735
8703739 11.2041 12.8835 19.4806 15.8673 -0.813451 2.84179 59.4356
8703762 11.1513 12.8927 19.4904 15.8292 -0.808479 2.84912 59.3637
8703769 11.2041 12.8467 19.4708 15.8673 -0.825451 2.85084 59.3889
8703789 11.1865 12.9112 19.4806 15.8863 -0.786027 2.84268 59.4646
8703799 11.2394 12.9204 19.5101 15.8578 -0.827919 2.82428 59.5277
8703811 11.2394 12.9204 19.5101 15.8578 -0.827919 2.82428 59.5277
8703820 11.2394 12.948 19.4708 15.8197 -0.816454 2.80014 59.4778
8703836 11.1425 12.9296 19.4708 15.8387 -0.776723 2.83862 59.3816
8703850 11.1513 12.9112 19.4609 15.8863 -0.763643 2.84923 59.4097
8703862 11.1513 12.9112 19.4609 15.8863 -0.763643 2.84923 59.4097
8703871 11.1337 12.9204 19.4904 15.8863 -0.764512 2.85779 59.4308
8703882 11.072 12.8743 19.5397 15.9244 -0.762892 2.90801 59.4104
8703892 11.072 12.8743 19.5397 15.9244 -0.762892 2.90801 59.4104
8703905 11.0456 12.8743 19.4609 15.9434 -0.711654 2.90381 59.3243
8703914 11.0544 12.7914 19.5298 16.0291 -0.742224 2.95761 59.4048
8703921 11.0544 12.7914 19.5298 16.0291 -0.742224 2.95761 59.4048
8703931 10.9927 12.8651 19.4708 16.0862 -0.636275 2.95358 59.4148
8703941 10.9927 12.8651 19.4708 16.0862 -0.636275 2.95358 59.4148
8703956 10.9575 12.773 19.5889 16.0957 -0.705893 3.01794 59.4152
8703961 11.0016 12.7638 19.6184 16.2671 -0.66599 3.04777 59.6509
8703973 11.0016 12.7638 19.6184 16.2671 -0.66599 3.04777 59.6509
8703982 10.9135 12.7086 19.6578 16.2861 -0.661696 3.10292 59.5659
8703997 10.8959 12.6257 19.6381 16.2956 -0.678092 3.13148 59.4553
8704003 10.8959 12.6257 19.6381 16.2956 -0.678092 3.13148 59.4553
8704012 10.8166 12.6257 19.6479 16.3337 -0.633222 3.16524 59.4239
8704023 10.8166 12.6257 19.6479 16.3337 -0.633222 3.16524 59.4239
8704033 10.7813 12.5796 19.6283 16.3052 -0.642903 3.18051 59.2944
8704043 10.8254 12.6257 19.6972 16.3337 -0.656992 3.17234 59.4819
8704056 10.8254 12.6257 19.6972 16.3337 -0.656992 3.17234 59.4819
8704063 10.799 12.6349 19.7464 16.3337 -0.662346 3.18738 59.5139
8704073 10.8078 12.5796 19.6381 16.3718 -0.629011 3.18764 59.3973
8704083 10.8078 12.5796 19.6381 16.3718 -0.629011 3.18764 59.3973
8704093 10.7902 12.5888 19.6479 16.4289 -0.597237 3.20351 59.4558
8704103 10.7902 12.5888 19.6479 16.4289 -0.597237 3.20351 59.4558
8704113 10.7109 12.5704 19.6775 16.4384 -0.580636 3.24121 59.3972
8704125 10.7549 12.5888 19.707 16.4289 -0.607012 3.22601 59.4797
8704133 10.7549 12.5888 19.707 16.4289 -0.607012 3.22601 59.4797
8704143 10.7373 12.5981 19.6873 16.467 -0.571364 3.23222 59.4896
8704153 10.6404 12.5428 19.6972 16.4955 -0.547048 3.28656 59.3759
8704163 10.6404 12.5428 19.6972 16.4955 -0.547048 3.28656 59.3759
8704174 10.7021 12.5428 19.7169 16.5336 -0.564133 3.27898 59.4953
8704183 10.7021 12.5428 19.7169 16.5336 -0.564133 3.27898 59.4953
8704193 10.7109 12.4967 19.6578 16.5812 -0.542811 3.28816 59.4466
8704203 10.7021 12.4967 19.7562 16.5526 -0.591905 3.30462 59.5077
8704213 10.7021 12.4967 19.7562 16.5526 -0.591905 3.30462 59.5077
8704224 10.5876 12.4139 19.7365 16.6002 -0.551926 3.37102 59.3382
8704233 10.5876 12.4139 19.7365 16.6002 -0.551926 3.37102 59.3382
8704246 10.614 12.4415 19.8251 16.5717 -0.599623 3.36605 59.4523
8704253 10.6316 12.4415 19.8448 16.6669 -0.574003 3.38306 59.5848
8704263 10.6316 12.4415 19.8448 16.6669 -0.574003 3.38306 59.5848
8704273 10.6316 12.4599 19.8448 16.6954 -0.553858 3.38294 59.6317
8704283 10.5699 12.377 19.8842 16.6478 -0.600755 3.42601 59.479
8704293 10.5699 12.377 19.8842 16.6478 -0.600755 3.42601 59.479
8704303 10.5435 12.4047 19.8842 16.6669 -0.569843 3.42934 59.4992
8704323 10.5788 12.2941 19.8842 16.6764 -0.627771 3.45453 59.4335
8704333 10.5083 12.3678 19.9629 16.6954 -0.591256 3.4725 59.5345
8704344 10.5083 12.3678 19.9629 16.6954 -0.591256 3.4725 59.5345
8704354 10.5171 12.3402 19.9629 16.6478 -0.627241 3.46912 59.4681
8704364 10.5259 12.3586 19.8645 16.5812 -0.611243 3.42857 59.3302
8704376 10.5259 12.3586 19.8645 16.5812 -0.611243 3.42857 59.3302
8704384 10.6404 12.377 19.9137 16.6193 -0.654003 3.40439 59.5504
8704398 10.5788 12.3402 19.8743 16.5622 -0.653164 3.41609 59.3554
8704405 10.5788 12.3402 19.8743 16.5622 -0.653164 3.41609 59.3554
8704415 10.6845 12.331 19.8842 16.6097 -0.683892 3.3974 59.5094
8704435 10.6404 12.3494 19.9433 16.5526 -0.70674 3.40571 59.4857
8704447 10.6316 12.3402 20.0023 16.5431 -0.73534 3.42093 59.5172
8704455 10.6316 12.3402 20.0023 16.5431 -0.73534 3.42093 59.5172
8704465 10.6404 12.3586 19.9728 16.5336 -0.72304 3.4049 59.5054
8704475 10.6668 12.2941 19.9236 16.486 -0.76227 3.39779 59.3706
8704485 10.6668 12.2941 19.9236 16.486 -0.76227 3.39779 59.3706
8704495 10.6845 12.3494 19.8842 16.5146 -0.717068 3.37312 59.4326
8704506 10.6845 12.3494 19.8842 16.5146 -0.717068 3.37312 59.4326
8704515 10.7021 12.377 19.9236 16.3623 -0.794385 3.337 59.3649
8704525 10.7109 12.3494 19.8054 16.4003 -0.745194 3.32707 59.2661
8704535 10.7109 12.3494 19.8054 16.4003 -0.745194 3.32707 59.2661
8704548 10.7637 12.4047 19.8448 16.3813 -0.767155 3.29771 59.3945
8704557 10.7637 12.4047 19.9039 16.3813 -0.791226 3.30934 59.4536
8704570 10.7549 12.4231 19.9039 16.3052 -0.812709 3.29138 59.387
8704575 10.8166 12.4415 19.8547 16.3052 -0.809772 3.25703 59.4179
8704595 10.8166 12.4415 19.8547 16.3052 -0.809772 3.25703 59.4179
8704596 10.8254 12.4507 19.8448 16.3337 -0.792956 3.2552 59.4546
8704607 10.8342 12.4691 19.8251 16.2766 -0.805321 3.23165 59.405
8704617 10.8342 12.4691 19.8251 16.2766 -0.805321 3.23165 59.405
8704626 10.9047 12.4875 19.8743 16.3527 -0.812961 3.22921 59.6193
8704646 10.8782 12.5428 19.7661 16.2385 -0.783749 3.1763 59.4256
8704658 10.8606 12.6165 19.7464 16.2671 -0.724258 3.16093 59.4905
8704667 10.8606 12.6165 19.7464 16.2671 -0.724258 3.16093 59.4905
8704676 10.9047 12.6165 19.6775 16.0196 -0.82157 3.08417 59.2182
8704687 10.9839 12.6257 19.6972 16.1053 -0.820608 3.07837 59.412
8704699 10.9839 12.6257 19.6972 16.1053 -0.820608 3.07837 59.412
8704706 10.9663 12.6441 19.6972 16.0577 -0.826122 3.06857 59.3652
8704716 10.9663 12.6441 19.6972 16.0577 -0.826122 3.06857 59.3652
8704727 10.9751 12.6625 19.6676 15.9625 -0.851122 3.03516 59.2678
8704736 11.0016 12.6625 19.6873 16.1053 -0.807773 3.05984 59.4566
8704746 11.0016 12.6625 19.6873 16.1053 -0.807773 3.05984 59.4566
8704758 11.0016 12.6717 19.707 16.0482 -0.836588 3.04952 59.4284
8704768 10.9927 12.6533 19.6972 16.0767 -0.824597 3.06156 59.4199
8704788 10.9663 12.6625 19.6972 15.972 -0.85541 3.04572 59.298
8704802 10.9663 12.6625 19.6972 15.972 -0.85541 3.04572 59.298
8704808 10.9575 12.6625 19.7759 16.0291 -0.858977 3.07572 59.425
8704818 10.9223 12.6349 19.7169 15.953 -0.865856 3.06769 59.227
8704828 10.9223 12.6349 19.7169 15.953 -0.865856 3.06769 59.227
8704838 11.0016 12.6717 19.6578 15.9815 -0.84556 3.02618 59.3126
8704848 10.9663 12.6994 19.7365 15.9434 -0.867821 3.0367 59.3457
8704868 11.072 12.7362 19.6676 15.9149 -0.879167 2.97378 59.3907
8704888 11.0456 12.773 19.6578 15.9244 -0.844243 2.97056 59.4008
8704898 11.0896 12.8006 19.6086 15.8387 -0.867413 2.92151 59.3376
8704909 11.0896 12.8006 19.6086 15.8387 -0.867413 2.92151 59.3376
8704919 11.0984 12.8375 19.579 15.8387 -0.842935 2.90172 59.3537
8704930 11.1073 12.8743 19.5594 15.8102 -0.834902 2.87812 59.3511
8704939 11.1073 12.8743 19.5594 15.8102 -0.834902 2.87812 59.3511
8704952 11.1601 12.9112 19.6184 15.7721 -0.880918 2.85543 59.4618
8704969 11.1513 12.8927 19.5397 15.7436 -0.865816 2.84166 59.3273
8704979 11.1953 12.8927 19.6283 15.7816 -0.903063 2.85434 59.498
8704999 11.2041 12.9019 19.5987 15.8102 -0.878236 2.84873 59.515
8705009 11.1865 12.8651 19.6184 15.715 -0.93661 2.84965 59.3851
8705020 11.1865 12.8651 19.6184 15.715 -0.93661 2.84965 59.3851
8705031 11.1777 12.9296 19.6479 15.7055 -0.921027 2.83703 59.4607
8705040 11.1777 12.9296 19.6479 15.7055 -0.921027 2.83703 59.4607
8705050 11.1865 12.8835 19.6184 15.7816 -0.899519 2.85773 59.4701
8705060 11.1601 12.9112 19.6676 15.8292 -0.876033 2.87711 59.5681
8705071 11.1601 12.9112 19.6676 15.8292 -0.876033 2.87711 59.5681
8705080 11.1249 12.8559 19.6578 15.8387 -0.877647 2.90424 59.4773
8705090 11.0984 12.8191 19.6184 15.8673 -0.854537 2.9211 59.4032
8705104 11.0984 12.8191 19.6184 15.8673 -0.854537 2.9211 59.4032
8705120 11.0896 12.8467 19.6381 15.9054 -0.830394 2.92716 59.4798
8705130 11.0632 12.7822 19.7169 15.8483 -0.904539 2.95899 59.4106
8705141 11.072 12.7638 19.7365 15.9244 -0.890945 2.98128 59.4968
8705150 11.072 12.7638 19.7365 15.9244 -0.890945 2.98128 59.4968
8705163 11.0368 12.6533 19.7759 15.8673 -0.965771 3.02186 59.3333
8705173 11.0544 12.6533 19.7169 15.8673 -0.948972 3.00457 59.2919
8705186 11.0544 12.6533 19.7169 15.8673 -0.948972 3.00457 59.2919
8705191 11.0456 12.7454 19.7759 15.8673 -0.929098 2.99126 59.4342
8705200 11.0456 12.7454 19.7759 15.8673 -0.929098 2.99126 59.4342
8705212 11.0192 12.6809 19.7365 15.8483 -0.938903 3.00701 59.2849
8705220 11.0544 12.7086 19.7956 15.8863 -0.948401 3.00757 59.4449
8705237 11.0544 12.7086 19.7956 15.8863 -0.948401 3.00757 59.4449
8705240 11.0456 12.6994 19.7858 15.9244 -0.928259 3.01872 59.4551
8705250 11.0016 12.7178 19.7562 15.8387 -0.927797 3.00323 59.3143
8705262 11.0016 12.7178 19.7562 15.8387 -0.927797 3.00323 59.3143
8705271 11.0632 12.773 19.7365 15.8768 -0.904089 2.97154 59.4496
8705285 11.0632 12.773 19.7365 15.8768 -0.904089 2.97154 59.4496
8705292 11.072 12.773 19.6972 15.8197 -0.916603 2.94932 59.3619
8705302 11.0544 12.8006 19.6381 15.8578 -0.856799 2.94203 59.3509
8705312 11.0544 12.8006 19.6381 15.8578 -0.856799 2.94203 59.3509
8705321 11.1073 12.8927 19.5987 15.7626 -0.863628 2.87089 59.3613
8705332 11.1073 12.8651 19.5889 15.7721 -0.867516 2.87915 59.3334
8705341 11.1073 12.8651 19.5889 15.7721 -0.867516 2.87915 59.3334
8705352 11.1601 12.9572 19.52 15.7626 -0.825036 2.81952 59.3999
8705362 11.1601 12.9572 19.52 15.7626 -0.825036 2.81952 59.3999
8705372 11.0808 13.0217 19.4609 15.696 -0.769544 2.79814 59.2594
8705382 11.1953 13.0677 19.4215 15.6865 -0.784352 2.73996 59.371
8705403 11.2041 13.1598 19.3428 15.6293 -0.740609 2.68172 59.3361
8705415 11.1777 13.2151 19.2739 15.5817 -0.698246 2.64889 59.2484
8705422 11.1777 13.2151 19.2739 15.5817 -0.698246 2.64889 59.2484
8705432 11.2041 13.2887 19.2542 15.5722 -0.673214 2.61303 59.3193
8705453 11.257 13.2795 19.1754 15.5627 -0.670697 2.58162 59.2747
8705463 11.2658 13.3256 19.2739 15.5722 -0.690596 2.58795 59.4375
8705473 11.2658 13.3256 19.2739 15.5722 -0.690596 2.58795 59.4375
8705484 11.3098 13.4453 19.1656 15.458 -0.66192 2.49293 59.3787
8705494 11.3098 13.4453 19.1656 15.458 -0.66192 2.49293 59.3787
8705503 11.2746 13.4913 19.1262 15.4675 -0.607307 2.48346 59.3597
8705513 11.2922 13.4545 19.1656 15.5342 -0.61786 2.51143 59.4465
8705524 11.2922 13.4545 19.1656 15.5342 -0.61786 2.51143 59.4465
8705533 11.2746 13.4729 19.1065 15.439 -0.619495 2.4787 59.293
8705546 11.3363 13.5282 19.0672 15.4485 -0.600699 2.43799 59.3801
8705563 11.3451 13.5005 19.0672 15.4104 -0.632674 2.43546 59.3232
8705573 11.3451 13.5005 19.0672 15.4104 -0.632674 2.43546 59.3232
8705584 11.3275 13.4913 19.1361 15.5342 -0.604333 2.48401 59.489
8705594 11.3627 13.5098 19.0376 15.4961 -0.586848 2.43946 59.4062
8705614 11.3539 13.4269 19.0376 15.4675 -0.631316 2.46038 59.2859
8705624 11.3803 13.5282 19.018 15.5056 -0.573973 2.42674 59.432
8705645 11.3803 13.4269 18.9983 15.4866 -0.617766 2.4483 59.292
8705661 11.3539 13.4545 19.1262 15.5342 -0.626995 2.485 59.4688
8705665 11.3539 13.4545 19.1262 15.5342 -0.626995 2.485 59.4688
8705676 11.3715 13.4453 19.0081 15.5437 -0.585599 2.45963 59.3686
8705687 11.3715 13.4453 19.1164 15.5437 -0.630045 2.48246 59.4768
8705697 11.301 13.4085 19.1164 15.5342 -0.621133 2.51206 59.36
8705711 11.3451 13.39 19.0475 15.4961 -0.635324 2.48195 59.2787
8705716 11.3451 13.39 19.0475 15.4961 -0.635324 2.48195 59.2787
8705726 11.3187 13.4085 19.0573 15.5151 -0.61232 2.49041 59.2995
8705736 11.3539 13.4177 18.9884 15.5056 -0.598596 2.46074 59.2656
8705758 11.3187 13.4453 19.0967 15.5532 -0.596188 2.49587 59.4138
8705768 11.2834 13.4453 19.1065 15.5532 -0.585757 2.50832 59.3884
8705781 11.2834 13.3992 19.1065 15.5532 -0.605609 2.52191 59.3424
8705788 11.2746 13.39 19.1754 15.6008 -0.613737 2.55167 59.4409
8705798 11.2746 13.39 19.1754 15.6008 -0.613737 2.55167 59.4409
8705810 11.301 13.4453 19.0278 15.5627 -0.556499 2.48855 59.3368
8705818 11.2834 13.4453 19.0672 15.5246 -0.581867 2.49402 59.3205
8705829 11.2834 13.4453 19.0672 15.5246 -0.581867 2.49402 59.3205
8705838 11.3187 13.4913 19.018 15.4961 -0.568567 2.45366 59.324
8705854 11.3187 13.4913 19.018 15.4961 -0.568567 2.45366 59.324
8705857 11.3187 13.4821 19.018 15.439 -0.597183 2.44428 59.2577
8705879 11.3363 13.5558 19.0376 15.4675 -0.568454 2.42766 59.3972
8705881 11.3363 13.5558 19.0376 15.4675 -0.568454 2.42766 59.3972
8705888 11.3627 13.5005 19.018 15.4104 -0.619687 2.41985 59.2916
8705898 11.3363 13.5466 19.0376 15.3914 -0.605249 2.41423 59.3119
8705918 11.4332 13.6387 19.1065 15.3914 -0.633563 2.37354 59.5698
8705938 11.3803 13.565 18.9195 15.4104 -0.558583 2.37484 59.2752
8705953 11.3891 13.5926 19.0573 15.3723 -0.623396 2.38538 59.4114
8705969 11.4244 13.6479 18.9392 15.3438 -0.577825 2.3277 59.3552
8705980 11.4596 13.6663 18.9195 15.2867 -0.600904 2.29563 59.3321
8705990 11.4596 13.6663 18.9195 15.2867 -0.600904 2.29563 59.3321
8706004 11.5301 13.6295 18.8703 15.3057 -0.617322 2.27936 59.3355
8706010 11.486 13.6295 18.8801 15.2676 -0.619709 2.28615 59.2633
8706022 11.486 13.6295 18.8801 15.2676 -0.619709 2.28615 59.2633
8706032 11.5036 13.6663 18.9097 15.2772 -0.619069 2.27865 59.3568
8706040 11.5036 13.6663 18.9097 15.2772 -0.619069 2.27865 59.3568
8706053 11.5036 13.5466 18.9195 15.2867 -0.670762 2.31772 59.2564
8706060 11.5477 13.5834 18.9786 15.3438 -0.672388 2.31894 59.4534
8706070 11.5477 13.5834 18.9786 15.3438 -0.672388 2.31894 59.4534
8706080 11.5301 13.5742 18.9294 15.3057 -0.665446 2.30812 59.3393
8706090 11.486 13.565 18.9392 15.3057 -0.655398 2.32576 59.2959
8706101 11.486 13.565 18.9392 15.3057 -0.655398 2.32576 59.2959
8706110 11.5741 13.5742 19.0278 15.3057 -0.723734 2.3163 59.4818
8706124 11.5741 13.5742 19.0278 15.3057 -0.723734 2.3163 59.4818
8706130 11.4772 13.5098 18.9294 15.2676 -0.688183 2.33426 59.184
8706145 11.5653 13.5558 19.0081 15.2772 -0.732431 2.31394 59.4063
8706151 11.5653 13.5558 19.0081 15.2772 -0.732431 2.31394 59.4063
8706161 11.5036 13.5282 19.0475 15.2867 -0.731172 2.35043 59.366
8706172 11.5301 13.5282 19.0081 15.2676 -0.734128 2.33025 59.334
8706184 11.5301 13.4637 19.0081 15.2676 -0.762118 2.3491 59.2695
8706192 11.5124 13.4453 19.1459 15.2962 -0.806767 2.39505 59.3998
8706211 11.442 13.39 19.1361 15.3533 -0.773208 2.44196 59.3214
8706224 11.4772 13.4453 19.1853 15.2962 -0.808455 2.41373 59.404
8706233 11.4772 13.4453 19.1853 15.2962 -0.808455 2.41373 59.404
8706245 11.4772 13.4453 19.2247 15.3533 -0.799689 2.43414 59.5005
8706252 11.4332 13.3348 19.2148 15.3438 -0.829907 2.47545 59.3265
8706262 11.4332 13.3348 19.2148 15.3438 -0.829907 2.47545 59.3265
8706271 11.4332 13.3532 19.2345 15.439 -0.788559 2.49424 59.4598
8706282 11.4332 13.3532 19.2345 15.439 -0.788559 2.49424 59.4598
8706291 11.4508 13.3348 19.2345 15.3914 -0.824392 2.48446 59.4114
8706302 11.4508 13.3532 19.2936 15.4009 -0.836265 2.49347 59.4984
8706312 11.4508 13.3532 19.2936 15.4009 -0.836265 2.49347 59.4984
8706321 11.3803 13.3256 19.2837 15.458 -0.790806 2.53228 59.4476
8706332 11.3803 13.3256 19.2837 15.458 -0.790806 2.53228 59.4476
8706341 11.3803 13.2427 19.2837 15.3723 -0.864138 2.53877 59.2791
8706354 11.3891 13.3072 19.2345 15.3819 -0.815432 2.50877 59.3126
8706380 11.3891 13.2335 19.2837 15.3057 -0.900856 2.52487 59.212
8706382 11.4155 13.2243 19.1754 15.3438 -0.854872 2.50497 59.159
8706405 11.3979 13.2703 19.3133 15.3819 -0.867122 2.5336 59.3634
8706413 11.3979 13.2703 19.3133 15.3819 -0.867122 2.5336 59.3634
8706423 11.3979 13.2335 19.3428 15.3723 -0.899337 2.54869 59.3465
8706434 11.4948 13.3164 19.3723 15.3914 -0.906172 2.50588 59.5749
8706444 11.4948 13.3164 19.3723 15.3914 -0.906172 2.50588 59.5749
8706455 11.5036 13.3256 19.1951 15.3438 -0.854588 2.45327 59.3681
8706463 11.4596 13.4085 19.2345 15.2867 -0.84147 2.43811 59.3892
8706484 11.5477 13.4361 19.1853 15.1915 -0.886697 2.37356 59.3605
8706493 11.5477 13.4361 19.1853 15.1915 -0.886697 2.37356 59.3605
8706508 11.5477 13.3992 19.1558 15.1915 -0.890771 2.37806 59.2942
8706518 11.5477 13.5005 19.1164 15.0487 -0.892875 2.3095 59.2133
8706524 11.5477 13.5005 19.1164 15.0487 -0.892875 2.3095 59.2133
8706533 11.6798 13.5466 19.1164 14.9916 -0.951383 2.24531 59.3344
8706544 11.6269 13.6203 19.0967 15.0582 -0.860724 2.24935 59.4021
8706559 11.6269 13.6203 19.0967 15.0582 -0.860724 2.24935 59.4021
8706564 11.6005 13.6295 19.0376 15.0582 -0.821926 2.24166 59.3259
8706585 11.6446 13.6018 18.9687 15.0487 -0.827967 2.22 59.2638
8706595 11.6446 13.6755 18.9786 14.9726 -0.833058 2.1843 59.2712
8706610 11.6446 13.6755 18.9786 14.9726 -0.833058 2.1843 59.2712
8706615 11.715 13.6479 18.9294 14.8869 -0.891191 2.14265 59.1792
8706625 11.6446 13.6479 18.9884 14.8964 -0.88238 2.17796 59.1773
8706635 11.6446 13.6479 18.9884 14.8964 -0.88238 2.17796 59.1773
8706645 11.7238 13.6847 19.0081 14.9155 -0.898233 2.15271 59.3321
8706665 11.7326 13.6939 18.9589 14.8964 -0.886098 2.13271 59.2819
8706675 11.7238 13.7031 18.9687 14.9535 -0.857592 2.14711 59.3492
8706685 11.7238 13.7031 18.9687 14.9535 -0.857592 2.14711 59.3492
8706695 11.7415 13.6939 18.9786 14.9155 -0.889373 2.13856 59.3294
8706709 11.7326 13.7031 19.0081 14.9155 -0.893775 2.14485 59.3593
8706715 11.7326 13.7031 19.0081 14.9155 -0.893775 2.14485 59.3593
8706733 11.7679 13.6018 18.9983 14.9726 -0.923371 2.17417 59.3405
8706745 11.7767 13.6111 18.9786 14.963 -0.919092 2.16264 59.3294
8706758 11.7591 13.5742 19.0573 14.8583 -1.00586 2.17279 59.249
8706765 11.7591 13.5742 19.0573 14.8583 -1.00586 2.17279 59.249
8706779 11.7415 13.6663 18.9884 14.8298 -0.942904 2.13009 59.226
8706785 11.7326 13.6203 19.1065 14.944 -0.957398 2.19625 59.4035
8706801 11.7326 13.6203 19.1065 14.944 -0.957398 2.19625 59.4035
8706805 11.7062 13.6203 19.1361 14.9345 -0.962818 2.20821 59.397
8706827 11.715 13.5742 19.1262 14.925 -0.98671 2.21484 59.3404
8706836 11.6974 13.6111 19.1262 14.944 -0.955133 2.21336 59.3787
8706846 11.6974 13.6111 19.1262 14.944 -0.955133 2.21336 59.3787
8706856 11.6798 13.5558 19.1164 14.9059 -0.984868 2.22419 59.2579
8706868 11.6358 13.5558 19.1262 14.963 -0.945981 2.25142 59.2808
8706891 11.5829 13.6018 19.0967 15.0297 -0.863278 2.26137 59.3111
8706905 11.6181 13.565 19.0967 15.0106 -0.901996 2.25775 59.2905
8706917 11.5829 13.5374 19.0869 15.0868 -0.862481 2.29029 59.2939
8706927 11.5829 13.5374 19.0869 15.0868 -0.862481 2.29029 59.2939
8706940 11.6269 13.5926 19.0869 15.0487 -0.872904 2.25321 59.3551
8706947 11.6622 13.5926 19.0278 15.0582 -0.859065 2.23233 59.3408
8706967 11.6181 13.6018 19.0573 15.0106 -0.869898 2.23856 59.2879
8706986 11.6093 13.6295 19.0081 14.9916 -0.84251 2.21838 59.2385
8706998 11.6446 13.6111 19.0081 14.9726 -0.87322 2.20939 59.2363
8707008 11.6446 13.6111 19.0081 14.9726 -0.87322 2.20939 59.2363
8707018 11.6181 13.6939 18.9687 15.0202 -0.789523 2.19477 59.301
8707029 11.6269 13.6663 18.9983 14.9916 -0.829621 2.20044 59.2831
8707038 11.6269 13.6663 18.9983 14.9916 -0.829621 2.20044 59.2831
8707052 11.6269 13.7031 19.0475 14.9821 -0.837773 2.19833 59.3596
8707058 11.6269 13.7031 19.0475 14.9821 -0.837773 2.19833 59.3596
8707070 11.6358 13.6847 19.0081 14.944 -0.84994 2.18439 59.2726
8707078 11.6886 13.6663 19.0475 15.0011 -0.870597 2.19525 59.4035
8707088 11.6886 13.6663 19.0475 15.0011 -0.870597 2.19525 59.4035
8707099 11.715 13.7768 18.9195 14.9535 -0.801904 2.11771 59.3649
8707109 11.6534 13.7216 19.0081 14.9726 -0.828627 2.17479 59.3556
8707122 11.6534 13.7216 19.0081 14.9726 -0.828627 2.17479 59.3556
8707130 11.6446 13.6755 19.0081 14.9345 -0.861697 2.18245 59.2627
8707153 11.6622 13.7492 18.9786 14.9059 -0.837171 2.14344 59.2959
8707167 11.671 13.7124 18.949 14.8774 -0.85725 2.13894 59.2098
8707180 11.6534 13.7216 18.9786 14.944 -0.829028 2.16223 59.2975
8707191 11.6622 13.7031 18.949 14.944 -0.828603 2.15862 59.2584
8707202 11.6622 13.7031 18.949 14.944 -0.828603 2.15862 59.2584
8707212 11.7326 13.74 19.0967 14.925 -0.909495 2.15543 59.4943
8707223 11.6622 13.7031 18.9983 14.925 -0.856964 2.16515 59.2886
8707242 11.6886 13.6663 19.0278 14.9726 -0.875038 2.18484 59.3553
8707263 11.6446 13.6939 18.9884 14.925 -0.849794 2.17079 59.2519
8707273 11.6798 13.786 18.9983 14.8774 -0.848755 2.12579 59.3415
8707293 11.7326 13.7952 18.89 14.8774 -0.822163 2.08436 59.2952
8707306 11.6974 13.7768 18.9195 14.7822 -0.869405 2.08551 59.1759
8707327 11.7503 13.8137 18.8801 14.8203 -0.842194 2.05938 59.2643
8707333 11.7503 13.8137 18.8801 14.8203 -0.842194 2.05938 59.2643
8707343 11.7415 13.8413 18.8605 14.8203 -0.81853 2.04966 59.2635
8707353 11.8031 13.8321 18.8408 14.8203 -0.839655 2.03028 59.2962
8707364 11.8031 13.8321 18.8408 14.8203 -0.839655 2.03028 59.2962
8707374 11.7679 13.8781 18.7915 14.7822 -0.801724 2.00805 59.2197
8707385 11.7679 13.9518 18.8211 14.7251 -0.806569 1.98086 59.2658
8707395 11.7679 13.9518 18.8211 14.7251 -0.806569 1.98086 59.2658
8707404 11.8383 13.9426 18.8112 14.7346 -0.831158 1.96326 59.3268
8707418 11.9 13.9426 18.7522 14.6489 -0.869568 1.91376 59.2437
8707424 11.9 14.0255 18.7522 14.6489 -0.833428 1.89013 59.3266
8707434 11.8471 14.007 18.7325 14.6585 -0.80772 1.90819 59.2451
8707444 11.8471 14.007 18.7325 14.6585 -0.80772 1.90819 59.2451
8707454 11.8912 13.9794 18.762 14.5918 -0.878848 1.89531 59.2244
8707464 11.9088 13.9978 18.7423 14.668 -0.836748 1.89752 59.3169
8707474 11.9088 13.9978 18.7423 14.668 -0.836748 1.89752 59.3169
8707488 11.9617 14.0807 18.762 14.6109 -0.855041 1.85066 59.4153
8707494 11.9617 14.0807 18.762 14.6109 -0.855041 1.85066 59.4153
8707504 11.8736 13.9518 18.8506 14.6204 -0.907314 1.93409 59.2964
8707515 11.8471 14.007 18.8112 14.6775 -0.831544 1.92977 59.3429
8707524 11.8471 14.007 18.8112 14.6775 -0.831544 1.92977 59.3429
8707535 11.8824 13.9242 18.8408 14.6204 -0.91897 1.9373 59.2677
8707544 11.8648 13.8413 18.8605 14.6965 -0.922756 1.98714 59.263
8707556 11.8648 13.8413 18.8605 14.6965 -0.922756 1.98714 59.263
8707564 11.8736 13.8137 18.9195 14.6204 -0.995766 1.98878 59.2271
8707578 11.8736 13.8137 18.9195 14.6204 -0.995766 1.98878 59.2271
8707584 11.8207 13.8044 18.8801 14.706 -0.924811 2.01676 59.2114
8707595 11.8471 13.8321 18.9786 14.7156 -0.959222 2.02488 59.3734
8707605 11.8471 13.8321 18.9786 14.7156 -0.959222 2.02488 59.3734
8707615 11.7767 13.6755 19.0672 14.7536 -1.01846 2.11781 59.273
8707625 11.7503 13.6663 19.0967 14.8298 -0.99037 2.15103 59.3431
8707635 11.7503 13.6663 19.0967 14.8298 -0.99037 2.15103 59.3431
8707646 11.7415 13.6387 19.1361 14.8583 -1.00233 2.17625 59.3745
8707673 11.7767 13.5926 19.1262 14.7917 -1.06202 2.16285 59.2873
8707675 11.7767 13.5834 19.1754 14.8679 -1.05249 2.1926 59.4034
8707699 11.8119 13.6387 19.1262 14.8108 -1.04766 2.14347 59.3876
8707707 11.8383 13.6479 19.0475 14.8203 -1.01833 2.11819 59.354
8707715 11.8383 13.6479 19.0475 14.8203 -1.01833 2.11819 59.354
8707727 11.8119 13.5834 19.1656 14.8108 -1.08779 2.16796 59.3717
8707735 11.8119 13.5834 19.1656 14.8108 -1.08779 2.16796 59.3717
8707750 11.7767 13.565 19.1656 14.8203 -1.0775 2.18554 59.3276
8707755 11.7767 13.5742 19.1164 14.7727 -1.07452 2.16193 59.24
8707765 11.7767 13.5742 19.1164 14.7727 -1.07452 2.16193 59.24
8707780 11.7679 13.5466 19.1656 14.8488 -1.06949 2.1996 59.3289
8707789 11.7591 13.5466 19.1656 14.8488 -1.06594 2.20215 59.3201
8707800 11.7591 13.519 19.1656 14.8583 -1.0739 2.21222 59.302
8707807 11.7062 13.5374 19.1164 14.9155 -0.999476 2.22392 59.2754
8707827 11.6798 13.4545 19.2345 14.944 -1.06039 2.28726 59.3128
8707837 11.7062 13.4637 19.2148 14.944 -1.05907 2.27265 59.3288
8707858 11.7591 13.4821 19.205 15.0106 -1.03911 2.2641 59.4568
8707868 11.6534 13.4177 19.2739 15.0297 -1.04418 2.33245 59.3746
8707878 11.6534 13.4177 19.2739 15.0297 -1.04418 2.33245 59.3746
8707890 11.7062 13.39 19.2444 15.0582 -1.05318 2.32488 59.3988
8707916 11.6534 13.4085 19.2345 15.0582 -1.0198 2.33282 59.3546
8707919 11.7062 13.3624 19.264 15.0297 -1.08578 2.33105 59.3623
8707929 11.7062 13.3624 19.264 15.0297 -1.08578 2.33105 59.3623
8707941 11.6886 13.3256 19.1754 15.0773 -1.03819 2.3382 59.2669
8707949 11.6622 13.3992 19.1558 15.0011 -1.02062 2.30388 59.2183
8707967 11.6622 13.3992 19.1558 15.0011 -1.02062 2.30388 59.2183
8707970 11.7238 13.4913 19.1656 14.9821 -1.01748 2.2571 59.3629
8707993 11.7326 13.4177 19.077 15.0202 -1.00082 2.26513 59.2475
8707999 11.8207 13.4913 18.9884 14.9535 -0.997521 2.18463 59.254
8708010 11.8207 13.4913 18.9884 14.9535 -0.997521 2.18463 59.254
8708021 11.8824 13.6018 18.8801 14.9345 -0.938548 2.10723 59.2989
8708030 11.8912 13.6847 18.8605 14.8774 -0.922865 2.06409 59.3137
8708040 11.8912 13.6847 18.8605 14.8774 -0.922865 2.06409 59.3137
8708050 11.9 13.7952 18.762 14.8298 -0.858955 1.99788 59.287
8708060 11.8912 13.8229 18.6931 14.8679 -0.798641 1.98573 59.275
8708070 11.8912 13.8229 18.6931 14.8679 -0.798641 1.98573 59.275
8708080 11.944 13.7952 18.5947 14.8203 -0.812796 1.94635 59.1542
8708090 11.944 13.7952 18.5947 14.8203 -0.812796 1.94635 59.1542
8708100 11.9176 13.8321 18.5848 14.7822 -0.798498 1.93279 59.1167
8708110 11.9881 13.915 18.4962 14.8203 -0.738394 1.87779 59.2195
8708133 11.9969 13.915 18.5356 14.8012 -0.766397 1.87979 59.2487
8708141 11.9705 13.8965 18.4962 14.8583 -0.722638 1.8965 59.2216
8708161 12.0057 13.9334 18.4962 14.8583 -0.721081 1.87596 59.2936
8708172 12.0057 13.9334 18.4962 14.8583 -0.721081 1.87596 59.2936
8708183 11.9528 13.8689 18.6045 14.8774 -0.763477 1.93752 59.3036
8708193 11.9352 13.8413 18.6931 14.9155 -0.787912 1.97829 59.3851
8708206 11.9352 13.8413 18.6931 14.9155 -0.787912 1.97829 59.3851
8708213 11.944 13.8413 18.5947 14.8679 -0.772002 1.94367 59.2479
8708223 11.9 13.74 18.6537 14.8583 -0.826433 1.99624 59.1521
8708234 11.9 13.74 18.6537 14.8583 -0.826433 1.99624 59.1521
8708243 11.8824 13.7308 18.6242 14.9155 -0.786255 2.01001 59.1528
8708253 11.8824 13.7308 18.6242 14.9155 -0.786255 2.01001 59.1528
8708263 11.8648 13.7216 18.6734 14.925 -0.799048 2.03061 59.1847
8708273 11.8031 13.8044 18.7226 14.9345 -0.753744 2.03736 59.2647
8708283 11.8031 13.8044 18.7226 14.9345 -0.753744 2.03736 59.2647
8708295 11.8471 13.7952 18.7226 14.8964 -0.792311 2.01902 59.2614
8708303 11.8207 13.7676 18.7423 14.9535 -0.776733 2.05135 59.2842
8708318 11.8207 13.7676 18.7423 14.9535 -0.776733 2.05135 59.2842
8708323 11.8824 13.7952 18.7522 14.944 -0.798041 2.02578 59.3738
8708343 11.7943 13.7584 18.762 14.963 -0.773846 2.06798 59.2778
8708353 11.7943 13.786 18.8211 14.9345 -0.798362 2.06669 59.3359
8708364 11.7943 13.786 18.8211 14.9345 -0.798362 2.06669 59.3359
8708374 11.8031 13.7952 18.762 14.9726 -0.757307 2.05693 59.3329
8708386 11.7679 13.7492 18.8014 15.0106 -0.762458 2.09719 59.3291
8708394 11.7679 13.7492 18.8014 15.0106 -0.762458 2.09719 59.3291
8708407 11.7855 13.6939 18.8703 14.9916 -0.83005 2.11888 59.3413
8708419 11.7855 13.6939 18.8703 14.9916 -0.83005 2.11888 59.3413
8708433 11.7679 13.7031 18.8506 14.944 -0.831565 2.10669 59.2656
8708438 11.7238 13.6755 18.8998 14.963 -0.837421 2.14222 59.2622
8708444 11.7238 13.6755 18.8998 14.963 -0.837421 2.14222 59.2622
8708458 11.7503 13.7216 18.9786 15.0106 -0.839472 2.14865 59.461
8708465 11.6886 13.6663 18.9687 15.0582 -0.813715 2.19058 59.3819
8708483 11.6886 13.6663 18.9687 15.0582 -0.813715 2.19058 59.3819
8708486 11.715 13.6847 19.0376 15.0202 -0.861028 2.18426 59.4575
8708509 11.715 13.6018 18.9983 14.963 -0.906068 2.18742 59.2782
8708515 11.6534 13.5742 18.9983 14.9821 -0.884736 2.21746 59.2079
8708536 11.6798 13.5926 19.0573 14.9821 -0.911455 2.21718 59.3118
8708548 11.6358 13.5374 18.9983 15.0677 -0.856228 2.25177 59.2391
8708560 11.6358 13.5374 18.9983 15.0677 -0.856228 2.25177 59.2391
8708567 11.671 13.519 19.0869 14.9916 -0.947925 2.24956 59.2684
8708577 11.671 13.519 19.0869 14.9916 -0.947925 2.24956 59.2684
8708588 11.6005 13.5926 19.0573 15.0297 -0.858438 2.25046 59.2801
8708597 11.671 13.5926 19.1164 15.0677 -0.894479 2.25085 59.4478
8708611 11.671 13.5926 19.1164 15.0677 -0.894479 2.25085 59.4478
8708616 11.6446 13.565 19.1656 15.1534 -0.878461 2.2954 59.5286
8708627 11.6798 13.5926 19.1656 15.0677 -0.917985 2.25884 59.5058
8708637 11.6798 13.5926 19.1656 15.0677 -0.917985 2.25884 59.5058
8708648 11.6798 13.5742 19.1951 15.0963 -0.925514 2.27661 59.5454
8708658 11.6798 13.5742 19.1951 15.0963 -0.925514 2.27661 59.5454
8708668 11.6446 13.4913 19.0869 15.0582 -0.92013 2.27962 59.281
8708678 11.6093 13.519 19.1361 15.0202 -0.930379 2.28422 59.2845
8708688 11.6093 13.519 19.1361 15.0202 -0.930379 2.28422 59.2845
8708698 11.6534 13.565 19.0672 15.0582 -0.883539 2.25138 59.3438
8708708 11.6269 13.5098 19.0869 15.0582 -0.904922 2.27938 59.2818
8708728 11.6181 13.5558 19.1951 15.0868 -0.912733 2.29784 59.4559
8708738 11.6181 13.5558 19.1951 15.0868 -0.912733 2.29784 59.4559
8708750 11.6181 13.565 19.1361 15.1153 -0.872329 2.28864 59.4346
8708760 11.5477 13.4821 19.2247 15.1534 -0.899205 2.36037 59.4079
8708768 11.5477 13.4821 19.2247 15.1534 -0.899205 2.36037 59.4079
8708778 11.4684 13.5005 19.2837 15.1439 -0.887123 2.3887 59.3966
8708789 11.5036 13.4729 19.2247 15.1629 -0.881191 2.37796 59.3641
8708799 11.5036 13.4729 19.2247 15.1629 -0.881191 2.37796 59.3641
8708809 11.4596 13.4177 19.2739 15.1534 -0.911564 2.41551 59.3045
8708829 11.4067 13.344 19.2444 15.2296 -0.876975 2.46262 59.2246
8708839 11.4155 13.3624 19.4215 15.2581 -0.931992 2.49801 59.4576
8708860 11.3627 13.3072 19.4806 15.3343 -0.925396 2.55823 59.4847
8708875 11.3451 13.2427 19.4215 15.3438 -0.918294 2.57212 59.3531
8708890 11.3715 13.2703 19.4904 15.439 -0.903399 2.59041 59.5712
8708900 11.3451 13.1782 19.4904 15.439 -0.932813 2.62548 59.4527
8708923 11.3275 13.1782 19.5101 15.4104 -0.946112 2.62885 59.4262
8708932 11.3275 13.1782 19.5101 15.4104 -0.946112 2.62885 59.4262
8708947 11.3187 13.1598 19.4904 15.3819 -0.955099 2.62689 59.3508
8708953 11.3275 13.1782 19.52 15.4009 -0.954252 2.62892 59.4266
8708971 11.3275 13.1782 19.52 15.4009 -0.954252 2.62892 59.4266
8708974 11.2746 13.1598 19.4806 15.4199 -0.916608 2.64586 59.335
8708983 11.301 13.2059 19.5397 15.4485 -0.918716 2.64256 59.495
8708996 11.301 13.2059 19.5397 15.4485 -0.918716 2.64256 59.495
8709003 11.3451 13.2519 19.4511 15.3247 -0.934562 2.57159 59.3728
8709013 11.3451 13.2519 19.4511 15.3247 -0.934562 2.57159 59.3728
8709023 11.3098 13.2519 19.4904 15.3533 -0.923774 2.59623 59.4055
8709033 11.2922 13.2795 19.392 15.3438 -0.868747 2.57068 59.3075
8709053 11.3627 13.3348 19.4019 15.2867 -0.902189 2.52359 59.386
8709069 11.3451 13.3992 19.4412 15.2391 -0.903659 2.50805 59.4246
8709084 11.4155 13.39 19.3625 15.2581 -0.896014 2.47745 59.4262
8709096 11.4155 13.39 19.3625 15.2581 -0.896014 2.47745 59.4262
8709104 11.4067 13.39 19.4019 15.201 -0.933318 2.4763 59.3996
8709118 11.3627 13.4453 19.3133 15.201 -0.855353 2.45429 59.3222
8709124 11.3627 13.4453 19.3133 15.201 -0.855353 2.45429 59.3222
8709134 11.3539 13.3532 19.3034 15.1534 -0.908786 2.47188 59.1639
8709144 11.3627 13.3716 19.2936 15.201 -0.87949 2.47184 59.2289
8709167 11.3979 13.3716 19.3133 15.1915 -0.905994 2.4636 59.2743
8709174 11.3979 13.3716 19.3133 15.1915 -0.905994 2.4636 59.2743
8709184 11.3627 13.3348 19.3723 15.2867 -0.8902 2.51738 59.3565
8709194 11.3451 13.4729 19.392 15.2581 -0.843331 2.48002 59.4681
8709204 11.3451 13.4729 19.392 15.2581 -0.843331 2.48002 59.4681
8709214 11.3715 13.4545 19.4215 15.22 -0.890611 2.47587 59.4676
8709224 11.442 13.39 19.4117 15.2486 -0.930806 2.47804 59.4923
8709234 11.442 13.39 19.4117 15.2486 -0.930806 2.47804 59.4923
8709244 11.3627 13.4361 19.4019 15.2676 -0.866356 2.48974 59.4683
8709265 11.2834 13.3624 19.4314 15.2962 -0.865796 2.54704 59.3734
8709278 11.2834 13.4085 19.5101 15.2581 -0.89429 2.54197 59.4601
8709287 11.2834 13.4085 19.5101 15.2581 -0.89429 2.54197 59.4601
8709299 11.2834 13.4085 19.3723 15.2391 -0.846584 2.50902 59.3033
8709305 11.301 13.3348 19.4806 15.3247 -0.892526 2.56629 59.4412
8709315 11.301 13.3348 19.4806 15.3247 -0.892526 2.56629 59.4412
8709325 11.301 13.3348 19.4806 15.3343 -0.88838 2.56828 59.4507
8709346 11.2306 13.2795 19.4904 15.3152 -0.896163 2.60358 59.3158
8709356 11.2394 13.2703 19.5594 15.4104 -0.890225 2.6379 59.4795
8709366 11.2394 13.2703 19.5594 15.4104 -0.890225 2.6379 59.4795
8709377 11.2306 13.2795 19.5397 15.3914 -0.882947 2.62973 59.4411
8709388 11.2394 13.2151 19.579 15.4295 -0.913976 2.66234 59.4629
8709396 11.2394 13.2151 19.579 15.4295 -0.913976 2.66234 59.4629
8709407 11.2041 13.2335 19.5397 15.3914 -0.892286 2.65125 59.3687
8709416 11.2482 13.2335 19.5594 15.3914 -0.918137 2.64226 59.4324
8709427 11.2482 13.169 19.5594 15.3914 -0.94628 2.66142 59.3679
8709436 11.2218 13.2703 19.5101 15.4104 -0.863104 2.63289 59.4126
8709446 11.2218 13.2703 19.5101 15.4104 -0.863104 2.63289 59.4126
8709457 11.2746 13.2703 19.4806 15.3247 -0.909917 2.59319 59.3503
8709467 11.2306 13.2887 19.4806 15.3057 -0.892296 2.59681 59.3056
8709476 11.2306 13.2887 19.4806 15.3057 -0.892296 2.59681 59.3056
8709488 11.2658 13.3256 19.5101 15.3438 -0.885935 2.58958 59.4453
8709498 11.2658 13.3256 19.5101 15.3438 -0.885935 2.58958 59.4453
8709511 11.2658 13.2703 19.4904 15.3533 -0.897875 2.60382 59.3799
8709518 11.2746 13.2703 19.5003 15.3914 -0.88885 2.61121 59.4366
8709528 11.2746 13.2703 19.5003 15.3914 -0.88885 2.61121 59.4366
8709539 11.2746 13.2703 19.5298 15.3438 -0.921568 2.60744 59.4185
8709548 11.3187 13.3348 19.52 15.2867 -0.932214 2.56135 59.4601
8709568 11.3098 13.3072 19.4904 15.2867 -0.92874 2.56594 59.3941
8709594 11.301 13.2887 19.3625 15.3152 -0.868754 2.55316 59.2675
8709598 11.301 13.3348 19.3822 15.22 -0.898233 2.52365 59.238
8709612 11.301 13.3348 19.3822 15.22 -0.898233 2.52365 59.238
8709618 11.3539 13.3348 19.3822 15.182 -0.936371 2.5 59.2528
8709628 11.301 13.3532 19.3822 15.2962 -0.856957 2.53422 59.3326
8709638 11.301 13.3532 19.3822 15.2962 -0.856957 2.53422 59.3326
8709648 11.3715 13.3624 19.3723 15.3247 -0.865152 2.51464 59.431
8709666 11.3715 13.3624 19.3723 15.3247 -0.865152 2.51464 59.431
8709668 11.3187 13.3164 19.4019 15.3152 -0.879885 2.54803 59.3521
8709678 11.3715 13.3072 19.4708 15.2772 -0.949894 2.5416 59.4266
8709690 11.3715 13.3072 19.4708 15.2772 -0.949894 2.5416 59.4266
8709698 11.3715 13.3624 19.3822 15.3057 -0.877436 2.51271 59.4218
8709708 11.3539 13.3072 19.4019 15.2962 -0.906514 2.53635 59.3591
8709719 11.3539 13.3072 19.4019 15.2962 -0.906514 2.53635 59.3591
8709728 11.3803 13.3256 19.4117 15.2962 -0.913191 2.52517 59.4138
8709740 11.3803 13.3256 19.4117 15.2962 -0.913191 2.52517 59.4138
8709748 11.3803 13.3348 19.3034 15.2581 -0.881812 2.49165 59.2766
8709758 11.3539 13.3716 19.4019 15.2391 -0.903308 2.50531 59.3664
8709769 11.3539 13.3716 19.4019 15.2391 -0.903308 2.50531 59.3664
8709778 11.4332 13.3808 19.3428 15.2296 -0.911644 2.4648 59.3863
8709790 11.4332 13.3808 19.3428 15.2296 -0.911644 2.4648 59.3863
8709800 11.3891 13.3072 19.3428 15.2296 -0.925952 2.49949 59.2686
8709815 11.4244 13.3348 19.392 15.2296 -0.948127 2.49133 59.3807
8709829 11.3539 13.3348 19.4019 15.2486 -0.915231 2.51818 59.3391
8709841 11.3539 13.3808 19.4708 15.22 -0.935532 2.51308 59.4255
8709866 11.4067 13.4085 19.4215 15.2296 -0.920798 2.48105 59.4663
8709870 11.3275 13.3992 19.3723 15.1725 -0.897603 2.48469 59.2715
8709882 11.3275 13.3992 19.3723 15.1725 -0.897603 2.48469 59.2715
8709892 11.4067 13.3992 19.3329 15.201 -0.901346 2.45905 59.3399
8709901 11.4067 13.3992 19.3329 15.201 -0.901346 2.45905 59.3399
8709917 11.4067 13.4269 19.2936 15.1534 -0.894062 2.43252 59.2806
8709922 11.3979 13.4637 19.3034 15.2581 -0.832807 2.44852 59.4232
8709931 11.3979 13.4637 19.3034 15.2581 -0.832807 2.44852 59.4232
8709943 11.3803 13.5005 19.3133 15.1915 -0.842603 2.43087 59.3856
8709952 11.3891 13.4913 19.3231 15.182 -0.858338 2.43105 59.3855
8709967 11.3891 13.4913 19.3231 15.182 -0.858338 2.43105 59.3855
8709972 11.5036 13.5374 19.264 15.1344 -0.881532 2.36142 59.4394
8709994 11.4067 13.5282 19.2542 15.0868 -0.862904 2.38025 59.2759
8710002 11.486 13.5466 19.1853 15.0677 -0.867397 2.33289 59.2856
8710016 11.486 13.5466 19.1853 15.0677 -0.867397 2.33289 59.2856
8710023 11.4684 13.5558 19.2247 15.0202 -0.893006 2.33359 59.269
8710038 11.5301 13.5374 19.1558 14.963 -0.923099 2.29396 59.1862
8710043 11.5301 13.5374 19.1558 14.963 -0.923099 2.29396 59.1862
8710053 11.5565 13.5558 19.077 14.963 -0.89373 2.26393 59.1523
8710063 11.5565 13.5558 19.077 14.963 -0.89373 2.26393 59.1523
8710073 11.5565 13.6203 19.0672 15.0202 -0.836606 2.25531 59.2641
8710083 11.5565 13.6018 19.0475 14.925 -0.8782 2.23593 59.1308
8710093 11.5565 13.6018 19.0475 14.925 -0.8782 2.23593 59.1308
8710104 11.5917 13.6387 19.0475 14.9155 -0.880614 2.21289 59.1933
8710127 11.6622 13.6663 19.1656 15.0011 -0.907786 2.22831 59.4952
8710134 11.6534 13.7031 19.1262 15.0202 -0.86395 2.21583 59.5029
8710151 11.6093 16.0423 19.0672 14.9726 0.137103 1.55325 61.6913
8710154 11.6093 13.6847 19.0672 14.9726 -0.850785 2.21097 59.3338
8710164 11.7062 13.7031 19.077 14.9059 -0.915164 2.16533 59.3923
8710175 11.7062 13.7031 19.077 14.9059 -0.915164 2.16533 59.3923
8710184 11.6974 13.7031 18.9983 14.925 -0.871302 2.15496 59.3238
8710195 11.6974 13.7124 19.0869 14.944 -0.89497 2.17556 59.4406
8710204 11.6974 13.7124 19.0869 14.944 -0.89497 2.17556 59.4406
8710217 11.6798 13.6939 19.0672 14.8964 -0.908624 2.17145 59.3373
8710224 11.6798 13.6939 19.0672 14.8964 -0.908624 2.17145 59.3373
8710234 11.6358 13.6387 19.1065 14.9059 -0.926717 2.21079 59.2869
8710244 11.6181 13.5742 19.0672 14.9821 -0.898442 2.24257 59.2416
8710254 11.6181 13.5742 19.0672 14.9821 -0.898442 2.24257 59.2416
8710264 11.6181 13.5742 19.1853 14.963 -0.954725 2.26387 59.3407
8710274 11.5917 13.5742 19.0573 15.0202 -0.867043 2.25634 59.2434
8710294 11.5301 13.5834 19.1754 15.0202 -0.886004 2.29698 59.3091
8710309 11.5301 13.5834 19.1754 15.0202 -0.886004 2.29698 59.3091
8710315 11.5917 13.565 19.1065 14.9726 -0.911899 2.25937 59.2358
8710330 11.6181 13.5558 19.1164 15.0011 -0.918178 2.26261 59.2914
8710338 11.6181 13.5558 19.1164 15.0011 -0.918178 2.26261 59.2914
8710347 11.6005 13.6295 19.1558 15.0487 -0.874116 2.26497 59.4345
8710358 11.5741 13.6203 19.1459 15.0487 -0.863393 2.27322 59.389
8710369 11.5741 13.6203 19.1459 15.0487 -0.863393 2.27322 59.389
8710375 11.5477 13.565 19.1065 15.0202 -0.873172 2.28244 59.2394
8710385 11.5477 13.565 19.1065 15.0202 -0.873172 2.28244 59.2394
8710398 11.5653 13.5834 19.2148 15.0963 -0.883108 2.31141 59.4598
8710405 11.5741 13.565 19.1951 15.1153 -0.878426 2.31407 59.4496
8710415 11.5741 13.565 19.1951 15.1153 -0.878426 2.31407 59.4496
8710426 11.5829 13.565 19.2247 15.0487 -0.923009 2.30358 59.4213
8710435 11.5917 13.519 19.1951 15.0677 -0.926398 2.31219 59.3736
8710445 11.5917 13.519 19.1951 15.0677 -0.926398 2.31219 59.3736
8710455 11.5741 13.5742 19.1754 15.0963 -0.874713 2.30312 59.4201
8710465 11.5741 13.5742 19.1754 15.0963 -0.874713 2.30312 59.4201
8710475 11.5124 13.5742 19.0967 14.9821 -0.867414 2.27974 59.1654
8710490 11.4684 13.5374 19.1558 15.0582 -0.856365 2.33239 59.2198
8710507 11.5653 13.5926 19.1262 15.0582 -0.859694 2.28164 59.3424
8710517 11.5477 13.5282 19.1164 15.0582 -0.876641 2.30347 59.2505
8710537 11.5301 13.5834 19.1558 15.0677 -0.85724 2.30296 59.337
8710547 11.5301 13.5834 19.1558 15.0677 -0.85724 2.30296 59.337
8710562 11.5389 13.5742 19.0869 15.0773 -0.832629 2.29035 59.2772
8710566 11.486 13.565 19.1459 15.0677 -0.843324 2.31908 59.2647
8710576 11.486 13.565 19.1459 15.0677 -0.843324 2.31908 59.2647
8710590 11.5212 13.6663 19.1558 15.0297 -0.834145 2.27323 59.373
8710611 11.5301 13.5926 19.1656 15.0963 -0.844799 2.30848 59.3846
8710617 11.5477 13.565 19.1656 15.0868 -0.868139 2.30937 59.3651
8710637 11.5389 13.5926 19.1164 15.0202 -0.861534 2.27907 59.268
8710648 11.5124 13.519 19.1853 15.0392 -0.902684 2.32713 59.2559
8710668 11.5124 13.6295 19.1164 15.0773 -0.809835 2.28828 59.3356
8710678 11.5212 13.5834 19.1459 15.0297 -0.866252 2.29526 59.2803
8710698 11.5212 13.6479 19.2345 15.0487 -0.865886 2.29951 59.4524
8710708 11.5212 13.6479 19.2345 15.0487 -0.865886 2.29951 59.4524
8710720 11.4772 13.5558 19.205 15.0963 -0.855356 2.34307 59.3343
8710728 11.4772 13.6387 19.205 15.0297 -0.848277 2.30464 59.3505
8710742 11.4772 13.6387 19.205 15.0297 -0.848277 2.30464 59.3505
8710749 11.486 13.6295 19.1754 15.0392 -0.839707 2.30048 59.3301
8710758 11.4772 13.5926 19.2444 15.0011 -0.896819 2.32039 59.3153
8710768 11.4772 13.5926 19.2444 15.0011 -0.896819 2.32039 59.3153
8710778 11.4772 13.5926 19.2345 15.0392 -0.876205 2.32642 59.3435
8710793 11.4772 13.5926 19.2345 15.0392 -0.876205 2.32642 59.3435
8710798 11.442 13.5466 19.2148 15.1249 -0.836591 2.36425 59.3282
8710809 11.4508 13.5374 19.2444 15.0202 -0.901899 2.34834 59.2527
8710822 11.4508 13.5374 19.2444 15.0202 -0.901899 2.34834 59.2527
8710829 11.5212 13.5374 19.2247 15.0011 -0.930858 2.31945 59.2844
8710848 11.4772 13.519 19.264 15.0868 -0.899582 2.3644 59.347
8710850 11.4772 13.519 19.264 15.0868 -0.899582 2.3644 59.347
8710859 11.4596 13.5466 19.3329 15.0963 -0.904192 2.37815 59.4354
8710879 11.4155 13.5098 19.3329 15.1439 -0.881635 2.41192 59.4021
8710889 11.4332 13.5282 19.3526 15.182 -0.872183 2.4136 59.4959
8710899 11.4332 13.5282 19.3526 15.182 -0.872183 2.4136 59.4959
8710909 11.442 13.4453 19.3231 15.1534 -0.912328 2.42301 59.3638
8710919 11.3891 13.3716 19.3428 15.1915 -0.914414 2.47244 59.295
8710929 11.3891 13.3716 19.3428 15.1915 -0.914414 2.47244 59.295
8710942 11.3539 13.4545 19.3329 15.182 -0.864063 2.45431 59.3233
8710951 11.3539 13.4545 19.3329 15.182 -0.864063 2.45431 59.3233
8710959 11.3098 13.3256 19.392 15.1534 -0.939016 2.5118 59.1808
8710969 11.3187 13.3808 19.3822 15.1344 -0.922731 2.48676 59.216
8710996 11.3275 13.344 19.4314 15.1629 -0.949924 2.51145 59.2658
8710999 11.3275 13.344 19.4314 15.1629 -0.949924 2.51145 59.2658
8711011 11.2922 13.3532 19.4806 15.2581 -0.909971 2.54949 59.3841
8711019 11.2658 13.3532 19.4314 15.22 -0.895871 2.53898 59.2704
8711032 11.2658 13.3532 19.4314 15.22 -0.895871 2.53898 59.2704
8711039 11.301 13.3808 19.5397 15.2867 -0.912985 2.55708 59.5082
8711054 11.3187 13.3164 19.4708 15.2296 -0.94526 2.54451 59.3353
8711060 11.3187 13.3164 19.4708 15.2296 -0.94526 2.54451 59.3353
8711069 11.3187 13.3348 19.4314 15.2962 -0.892149 2.54479 59.381
8711080 11.3187 13.3348 19.4314 15.2962 -0.892149 2.54479 59.381
8711090 11.3098 13.2887 19.4215 15.22 -0.937966 2.54296 59.2402
8711105 11.3275 13.2703 19.4904 15.2676 -0.96029 2.56764 59.3559
8711110 11.3275 13.2703 19.4904 15.2676 -0.96029 2.56764 59.3559
8711120 11.2834 13.3072 19.4511 15.2105 -0.935329 2.54953 59.2522
8711132 11.3275 13.2611 19.4708 15.2962 -0.943857 2.57223 59.3555
8711140 11.3275 13.2611 19.4708 15.2962 -0.943857 2.57223 59.3555
8711156 11.2922 13.2059 19.5495 15.2962 -0.985651 2.61551 59.3438
8711163 11.2922 13.2059 19.5495 15.2962 -0.985651 2.61551 59.3438
8711170 11.1865 13.1966 19.6184 15.3438 -0.953956 2.67393 59.3454
8711180 11.2041 13.2335 19.6578 15.3533 -0.956772 2.66788 59.4487
8711191 11.2041 13.2335 19.6578 15.3533 -0.956772 2.66788 59.4487
8711202 11.1777 13.1874 19.6184 15.4199 -0.921145 2.69509 59.4035
8711211 11.1689 13.123 19.6381 15.3914 -0.966206 2.71511 59.3214
8711225 11.1689 13.123 19.6381 15.3914 -0.966206 2.71511 59.3214
8711232 11.1953 13.1598 19.6479 15.3628 -0.977266 2.69236 59.3659
8711242 11.1953 13.1598 19.6479 15.3628 -0.977266 2.69236 59.3659
8711252 11.1601 13.0677 19.6086 15.3628 -0.987405 2.72222 59.1992
8711261 11.1689 13.0677 19.6873 15.3914 -1.01034 2.74181 59.3153
8711273 11.1689 13.0677 19.6873 15.3914 -1.01034 2.74181 59.3153
8711282 11.213 13.169 19.6184 15.3628 -0.968418 2.67824 59.3632
8711295 11.2218 13.0953 19.6578 15.3343 -1.0327 2.69982 59.3092
8711318 11.2394 13.1874 19.6381 15.4295 -0.949921 2.68279 59.4944
8711323 11.2394 13.1874 19.6381 15.4295 -0.949921 2.68279 59.4944
8711333 11.1865 13.1138 19.6283 15.5151 -0.91932 2.73614 59.4437
8711342 11.213 13.123 19.6676 15.5817 -0.912924 2.74735 59.5853
8711353 11.213 13.123 19.6676 15.5817 -0.912924 2.74735 59.5853
8711364 11.1601 13.0677 19.6775 15.5246 -0.944485 2.76989 59.4299
8711373 11.1513 13.0585 19.7169 15.5437 -0.952563 2.78729 59.4703
8711387 11.1513 13.0585 19.7169 15.5437 -0.952563 2.78729 59.4703
8711394 11.2041 13.0309 19.6676 15.5817 -0.949474 2.77745 59.4844
8711404 11.2041 13.0309 19.6676 15.5817 -0.949474 2.77745 59.4844
8711414 11.072 13.0217 19.6873 15.6008 -0.899638 2.82774 59.3818
8711424 11.072 13.0033 19.6775 15.696 -0.862205 2.85074 59.4487
8711434 11.072 13.0033 19.6775 15.696 -0.862205 2.85074 59.4487
8711444 11.028 12.9572 19.6381 15.734 -0.831757 2.87756 59.3573
8711457 11.0016 12.9388 19.7267 15.7436 -0.860918 2.91107 59.4106
8711464 11.0016 12.9388 19.7267 15.7436 -0.860918 2.91107 59.4106
8711480 11.0192 12.9112 19.7169 15.7912 -0.855385 2.92177 59.4383
8711483 11.0192 12.9112 19.7169 15.7912 -0.855385 2.92177 59.4383
8711494 10.9839 12.8927 19.7267 15.8197 -0.840658 2.94576 59.4231
8711505 10.9927 12.9112 19.7464 15.8197 -0.844231 2.94153 59.47
8711514 10.9927 12.9112 19.7464 15.8197 -0.844231 2.94153 59.47
8711528 11.0192 12.8743 19.7169 15.8483 -0.846571 2.94447 59.4586
8711534 10.9839 12.9388 19.707 15.8102 -0.816776 2.92593 59.4399
8711544 10.9839 12.9388 19.707 15.8102 -0.816776 2.92593 59.4399
8711554 11.0016 12.9296 19.6873 15.734 -0.853063 2.90389 59.3525
8711564 11.0016 12.9296 19.6873 15.734 -0.853063 2.90389 59.3525
8711576 10.9839 12.9112 19.6873 15.8483 -0.804228 2.938 59.4307
8711585 10.9487 12.8743 19.6578 15.8863 -0.777294 2.96151 59.3672
8711600 10.9487 12.8743 19.6578 15.8863 -0.777294 2.96151 59.3672
8711604 10.9575 12.8743 19.6676 15.8673 -0.793172 2.95698 59.3668
8711623 10.887 12.8467 19.6775 15.953 -0.743234 3.00603 59.3642
8711628 10.887 12.8467 19.6775 15.953 -0.743234 3.00603 59.3642
8711637 10.9047 12.9388 19.6873 15.991 -0.698128 2.9825 59.5218
8711646 10.9047 12.9388 19.6873 15.991 -0.698128 2.9825 59.5218
8711655 10.8518 12.9296 19.579 15.9054 -0.673196 2.962 59.2658
8711669 10.8518 13.0125 19.579 15.9149 -0.633232 2.93885 59.3582
8711685 10.9223 13.0585 19.4708 15.8673 -0.618368 2.87192 59.3188
8711697 10.9135 13.1782 19.4806 15.8863 -0.559007 2.84448 59.4586
8711705 10.9135 13.1782 19.4806 15.8863 -0.559007 2.84448 59.4586
8711716 10.887 13.2335 19.392 15.8197 -0.516528 2.804 59.3322
8711725 10.887 13.2335 19.392 15.8197 -0.516528 2.804 59.3322
8711739 10.9135 13.1782 19.2936 15.8673 -0.490072 2.8022 59.2526
8711745 10.9135 13.3072 19.2837 15.8578 -0.434735 2.75956 59.3621
8711761 10.9135 13.3072 19.2837 15.8578 -0.434735 2.75956 59.3621
8711765 11.0016 13.2979 19.2444 15.9434 -0.422156 2.74554 59.4873
8711775 10.9311 13.4085 19.1754 15.9054 -0.333518 2.71152 59.4204
8711786 10.9311 13.4085 19.1754 15.9054 -0.333518 2.71152 59.4204
8711795 10.9311 13.3624 19.1951 15.9339 -0.349148 2.73522 59.4226
8711809 10.9311 13.3624 19.1951 15.9339 -0.349148 2.73522 59.4226
8711815 11.0104 13.4453 19.1558 15.8863 -0.350644 2.66895 59.4977
8711825 10.9487 13.4453 19.0672 15.8197 -0.316662 2.65504 59.2809
8711835 10.9487 13.4453 19.0672 15.8197 -0.316662 2.65504 59.2809
8711845 10.9575 13.4453 19.0376 15.8197 -0.308029 2.64627 59.2601
8711856 10.9575 13.4453 19.0376 15.8197 -0.308029 2.64627 59.2601
8711865 10.9663 13.4637 19.0672 15.8197 -0.316133 2.64432 59.3169
8711879 10.9751 13.4545 19.0967 15.8673 -0.315705 2.66048 59.3936
8711885 10.9751 13.4545 19.0967 15.8673 -0.315705 2.66048 59.3936
8711895 10.9487 13.4729 19.077 15.7912 -0.321154 2.64292 59.2898
8711906 10.8959 13.4545 19.1262 15.8292 -0.311251 2.68231 59.3058
8711915 10.8959 13.4545 19.1262 15.8292 -0.311251 2.68231 59.3058
8711927 10.9927 13.4821 19.1262 15.8578 -0.327566 2.6512 59.4589
8711935 10.9927 13.4821 19.1262 15.8578 -0.327566 2.6512 59.4589
8711950 10.9223 13.4453 19.0869 15.8387 -0.305727 2.67097 59.2932
8711955 10.9751 13.5374 19.0967 15.8292 -0.29662 2.62795 59.4384
8711965 10.9751 13.5374 19.0967 15.8292 -0.29662 2.62795 59.4384
8711976 11.028 13.5374 19.1065 15.8102 -0.330751 2.61038 59.4821
8711985 11.0192 13.5282 19.0573 15.7626 -0.330876 2.59552 59.3673
8711998 11.0192 13.5282 19.0573 15.7626 -0.330876 2.59552 59.3673
8712008 11.0544 13.5282 19.0081 15.7626 -0.325064 2.57479 59.3533
8712015 11.0544 13.5282 19.0081 15.7626 -0.325064 2.57479 59.3533
8712025 10.9839 13.5374 19.1164 15.734 -0.349033 2.6096 59.3717
8712035 11.0104 13.519 19.1558 15.8007 -0.355755 2.62931 59.4858
8712056 11.0104 13.5282 19.2247 15.7245 -0.412832 2.62508 59.4877
8712068 11.0192 13.4637 19.2345 15.696 -0.460337 2.63769 59.4134
8712077 11.0192 13.4637 19.2345 15.696 -0.460337 2.63769 59.4134
8712092 11.0192 13.4637 19.1754 15.7626 -0.407396 2.63927 59.4209
8712097 11.0192 13.4637 19.1754 15.7626 -0.407396 2.63927 59.4209
8712115 10.9487 13.39 19.1459 15.734 -0.409731 2.67007 59.2187
8712116 10.9575 13.3992 19.2444 15.734 -0.450233 2.68516 59.3352
8712127 10.9575 13.3992 19.2444 15.734 -0.450233 2.68516 59.3352
8712139 11.0368 13.39 19.2936 15.7721 -0.490907 2.6824 59.4925
8712147 11.0368 13.39 19.2936 15.7721 -0.490907 2.6824 59.4925
8712156 11.0016 13.3256 19.2837 15.7531 -0.508153 2.70611 59.3639
8712167 10.9751 13.3532 19.2837 15.734 -0.493553 2.70181 59.3461
8712177 10.9751 13.3532 19.2837 15.734 -0.493553 2.70181 59.3461
8712188 10.9839 13.3256 19.4019 15.8102 -0.525035 2.74754 59.5216
8712197 11.0456 13.3164 19.3822 15.8007 -0.550313 2.7259 59.5448
8712210 11.0456 13.3164 19.3822 15.8007 -0.550313 2.7259 59.5448
8712218 11.0632 13.2519 19.4412 15.7912 -0.61354 2.75006 59.5475
8712236 11.028 13.2335 19.4215 15.734 -0.623558 2.75025 59.417
8712246 10.9927 13.2151 19.4511 15.715 -0.637379 2.76846 59.3739
8712258 10.9927 13.2151 19.4511 15.715 -0.637379 2.76846 59.3739
8712281 10.9927 13.2059 19.52 15.7055 -0.67371 2.78344 59.4241
8712282 11.0016 13.1874 19.5298 15.734 -0.676966 2.7942 59.4529
8712298 10.9927 13.2151 19.5003 15.7055 -0.66167 2.77663 59.4136
8712308 11.0016 13.1598 19.4412 15.6865 -0.673196 2.77446 59.289
8712320 11.0016 13.1598 19.4412 15.6865 -0.673196 2.77446 59.289
8712329 11.0632 13.1598 19.579 15.6484 -0.771259 2.77653 59.4504
8712339 11.0632 13.1598 19.579 15.6484 -0.771259 2.77653 59.4504
8712351 11.0632 13.1506 19.5495 15.6769 -0.750835 2.77909 59.4402
8712360 11.0544 13.1782 19.52 15.6293 -0.743835 2.75758 59.3819
8712375 11.0544 13.1782 19.52 15.6293 -0.743835 2.75758 59.3819
8712379 11.0896 13.2151 19.5397 15.5532 -0.783303 2.72439 59.3976
8712389 11.0896 13.2151 19.5101 15.5342 -0.779523 2.71435 59.349
8712399 11.0896 13.2151 19.5101 15.5342 -0.779523 2.71435 59.349
8712409 11.1073 13.2703 19.5692 15.6198 -0.749712 2.72253 59.5666
8712435 11.1073 13.3164 19.5298 15.5056 -0.763179 2.67709 59.459
8712439 11.1513 13.3072 19.52 15.5056 -0.781102 2.6647 59.484
8712449 11.1513 13.3072 19.52 15.5056 -0.781102 2.6647 59.484
8712459 11.1865 13.344 19.3822 15.4104 -0.764582 2.59479 59.3231
8712471 11.1865 13.344 19.3822 15.4104 -0.764582 2.59479 59.3231
8712479 11.2218 13.3716 19.4019 15.3819 -0.787401 2.57431 59.3771
8712494 11.1777 13.4177 19.4314 15.3819 -0.7615 2.57989 59.4086
8712509 11.2306 13.4453 19.4511 15.3533 -0.79146 2.55426 59.4802
8712519 11.2482 13.4637 19.4019 15.22 -0.828488 2.50532 59.3338
8712532 11.2482 13.4637 19.4019 15.22 -0.828488 2.50532 59.3338
8712541 11.2746 13.519 19.392 15.182 -0.827762 2.47115 59.3676
8712550 11.2746 13.519 19.392 15.182 -0.827762 2.47115 59.3676
8712561 11.257 13.5282 19.3526 15.1344 -0.821246 2.45525 59.2722
8712570 11.3627 13.5005 19.3625 15.1153 -0.888631 2.43034 59.3411
8712581 11.3627 13.5005 19.3625 15.1153 -0.888631 2.43034 59.3411
8712590 11.3539 13.4913 19.3133 15.1534 -0.852442 2.43327 59.3119
8712609 11.3627 13.5005 19.2739 15.1439 -0.840126 2.41761 59.281
8712620 11.3715 13.5005 19.3526 15.0487 -0.917311 2.41153 59.2734
8712642 11.3803 13.4821 19.4314 15.1249 -0.927615 2.44716 59.4187
8712652 11.4155 13.4453 19.4511 15.0868 -0.982572 2.44375 59.3987
8712666 11.4155 13.4453 19.4511 15.0868 -0.982572 2.44375 59.3987
8712671 11.3803 13.4637 19.4609 15.1534 -0.935152 2.46483 59.4583
8712682 11.4067 13.4545 19.4708 15.1058 -0.974622 2.45181 59.4378
8712693 11.4067 13.4545 19.4708 15.1058 -0.974622 2.45181 59.4378
8712701 11.3891 13.5005 19.4609 15.0582 -0.964192 2.43133 59.4088
8712711 11.3891 13.5005 19.4609 15.0582 -0.964192 2.43133 59.4088
8712721 11.3891 13.4361 19.4511 15.1534 -0.94679 2.46828 59.4297
8712732 11.3539 13.3992 19.5003 15.1344 -0.976866 2.49585 59.3878
8712743 11.3539 13.3992 19.5003 15.1344 -0.976866 2.49585 59.3878
8712752 11.3539 13.39 19.4215 15.1058 -0.961497 2.47593 59.2713
8712761 11.3187 13.4361 19.5003 15.0582 -0.979812 2.47932 59.3133
8712772 11.3187 13.4361 19.5003 15.0582 -0.979812 2.47932 59.3133
8712782 11.3451 13.3624 19.4609 15.0677 -1.0027 2.48696 59.2361
8712803 11.3187 13.3348 19.4806 15.1534 -0.974515 2.52514 59.2874
8712813 11.3098 13.4269 19.4609 15.182 -0.910212 2.50242 59.3796
8712823 11.3098 13.4269 19.4609 15.182 -0.910212 2.50242 59.3796
8712832 11.3451 13.3256 19.5003 15.2105 -0.97222 2.53619 59.3815
8712845 11.3539 13.4269 19.5101 15.1249 -0.972928 2.48779 59.4157
8712853 11.3539 13.4269 19.5101 15.1249 -0.972928 2.48779 59.4157
8712867 11.3627 13.4545 19.52 15.0963 -0.980876 2.47312 59.4335
8712873 11.3627 13.4545 19.52 15.0963 -0.980876 2.47312 59.4335
8712883 11.3539 13.4085 19.5101 15.0868 -0.997645 2.48519 59.3593
8712900 11.442 13.4913 19.4806 15.0297 -1.01002 2.41666 59.4436
8712907 11.442 13.4913 19.4806 15.0297 -1.01002 2.41666 59.4436
8712922 11.4332 13.4913 19.5003 15.0202 -1.01857 2.42139 59.4449
8712924 11.4332 13.5098 19.5594 15.0487 -1.02183 2.43451 59.551
8712933 11.4332 13.5098 19.5594 15.0487 -1.02183 2.43451 59.551
8712950 11.4596 13.6203 19.5101 14.944 -1.01012 2.36192 59.534
8712953 11.4596 13.6203 19.5101 14.944 -1.01012 2.36192 59.534
8712963 11.486 13.565 19.4019 14.8869 -1.02628 2.33513 59.3398
8712974 11.4596 13.6018 19.4019 14.9535 -0.970294 2.34629 59.4168
8712983 11.4596 13.6018 19.4019 14.9535 -0.970294 2.34629 59.4168
8713003 11.5212 13.6018 19.3329 14.8203 -1.02574 2.28509 59.2763
8713005 11.3979 13.5926 19.3034 14.8488 -0.955267 2.32362 59.1428
8713024 11.4508 13.5834 19.3034 14.8488 -0.980777 2.31084 59.1864
8713034 11.4508 13.5834 19.3034 14.8488 -0.980777 2.31084 59.1864
8713047 11.4332 13.6663 19.2837 14.7727 -0.96267 2.27119 59.1559
8713055 11.4508 13.6295 19.264 14.8488 -0.944588 2.28894 59.1931
8713064 11.4508 13.6295 19.264 14.8488 -0.944588 2.28894 59.1931
8713074 11.4684 13.6755 19.3231 14.8964 -0.934736 2.29323 59.3634
8713084 11.5212 13.7124 19.205 14.8679 -0.904629 2.23565 59.3064
8713094 11.5212 13.7124 19.205 14.8679 -0.904629 2.23565 59.3064
8713104 11.5389 13.7124 19.2936 14.8869 -0.939392 2.25366 59.4317
8713114 11.5389 13.7124 19.2936 14.8869 -0.939392 2.25366 59.4317
8713124 11.5477 13.7676 19.1853 14.925 -0.858378 2.22 59.4255
8713134 11.5036 13.6847 19.205 14.9059 -0.892904 2.257 59.2993
8713144 11.5036 13.6847 19.205 14.9059 -0.892904 2.257 59.2993
8713156 11.5124 13.7308 19.1853 14.8583 -0.88916 2.22657 59.2868
8713164 11.5124 13.7308 19.1853 14.8583 -0.88916 2.22657 59.2868
8713174 11.486 13.7768 19.1164 14.8488 -0.834385 2.20395 59.228
8713184 11.4948 13.7584 19.205 14.9059 -0.857195 2.23815 59.3641
8713194 11.4948 13.7584 19.205 14.9059 -0.857195 2.23815 59.3641
8713204 11.5212 13.7676 19.1754 14.925 -0.843635 2.22555 59.3893
8713214 11.5124 13.7768 19.1558 14.8679 -0.852901 2.20889 59.3129
8713234 11.5565 13.8413 19.1361 14.9059 -0.818197 2.18143 59.4398
8713244 11.5565 13.8413 19.1361 14.9059 -0.818197 2.18143 59.4398
8713255 11.5389 13.8413 19.1262 14.8964 -0.811157 2.18235 59.4028
8713266 11.442 13.786 19.077 14.9535 -0.750704 2.22817 59.2585
8713286 11.4772 13.7584 19.0869 14.9726 -0.772873 2.23218 59.295
8713295 11.4948 13.8137 19.1164 14.8964 -0.801204 2.20098 59.3213
8713315 11.5565 13.8044 19.0376 14.9535 -0.773415 2.18111 59.3521
8713330 11.442 13.8505 19.0967 14.963 -0.726652 2.21574 59.3522
8713335 11.442 13.8505 19.0967 14.963 -0.726652 2.21574 59.3522
8713345 11.4772 13.7768 19.0376 15.0773 -0.699338 2.23877 59.3689
8713366 11.5036 13.7676 19.1164 15.0487 -0.758667 2.24455 59.4363
8713378 11.4067 13.7492 19.0672 15.0868 -0.690411 2.27568 59.3099
8713386 11.4067 13.7492 19.0672 15.0868 -0.690411 2.27568 59.3099
8713399 11.3979 13.7124 19.0672 14.9821 -0.748257 2.26649 59.1595
8713408 11.3803 13.74 19.077 15.0487 -0.70411 2.28001 59.246
8713421 11.3803 13.74 19.077 15.0487 -0.70411 2.28001 59.246
8713428 11.4067 13.7676 19.1459 15.0677 -0.722915 2.28312 59.388
8713441 11.4067 13.7676 19.1459 15.0677 -0.722915 2.28312 59.388
8713448 11.3539 13.7492 19.1361 15.0773 -0.701115 2.30381 59.3164
8713458 11.3539 13.7676 19.1361 15.1058 -0.680777 2.30455 59.3634
8713478 11.4332 13.7676 19.1065 15.0677 -0.717622 2.26699 59.3751
8713488 11.3979 13.7676 19.0672 15.0487 -0.695319 2.26471 59.2814
8713499 11.3979 13.7676 19.0672 15.0487 -0.695319 2.26471 59.2814
8713508 11.4596 13.7952 19.077 15.0487 -0.712629 2.24086 59.3805
8713534 11.4244 13.7492 19.0475 15.0392 -0.710195 2.2561 59.2602
8713554 11.4155 13.8229 19.077 15.0202 -0.695004 2.23949 59.3356
8713558 11.4067 13.786 19.0967 15.1058 -0.678332 2.27537 59.3953
8713568 11.4596 13.8597 19.0573 15.1534 -0.631532 2.24041 59.53
8713589 11.3715 13.7768 19.1262 15.1249 -0.671749 2.2987 59.3994
8713599 11.3715 13.7768 19.1262 15.1249 -0.671749 2.2987 59.3994
8713609 11.3539 13.74 19.0376 15.0487 -0.677098 2.27926 59.1802
8713619 11.3363 13.8044 19.0869 15.1058 -0.63744 2.28842 59.3334
8713634 11.3363 13.8044 19.0869 15.1058 -0.63744 2.28842 59.3334
8713639 11.3275 13.8044 19.0672 15.0868 -0.633964 2.28268 59.2859
8713649 11.3715 13.8229 19.0967 15.0392 -0.676782 2.26062 59.3303
8713669 11.3891 13.8413 19.0573 15.0487 -0.655775 2.24373 59.3364
8713691 11.3891 13.8321 19.0475 15.0582 -0.651601 2.24633 59.3269
8713700 11.3451 13.8689 19.0475 15.0487 -0.621708 2.24638 59.3102
8713715 11.3451 13.8689 19.0475 15.0487 -0.621708 2.24638 59.3102
8713721 11.4155 13.8689 19.0967 14.9726 -0.703736 2.22012 59.3537
8713730 11.4332 13.8229 19.1065 15.0487 -0.701945 2.24685 59.4113
8713747 11.4332 13.8229 19.1065 15.0487 -0.701945 2.24685 59.4113
8713751 11.4244 13.8321 19.018 15.0773 -0.645714 2.23384 59.3516
8713761 11.4244 13.8321 19.018 15.0773 -0.645714 2.23384 59.3516
8713772 11.4155 13.8321 19.1065 15.0773 -0.678408 2.25542 59.4314
8713780 11.4067 13.8413 19.0278 15.0677 -0.642657 2.23635 59.3436
8713800 11.4067 13.8413 19.0278 15.0677 -0.642657 2.23635 59.3436
8713801 11.4155 13.8689 19.0376 15.1058 -0.621954 2.23607 59.4279
8713810 11.4067 13.8044 19.1262 15.1249 -0.674236 2.28042 59.4623
8713828 11.4067 13.8044 19.1262 15.1249 -0.674236 2.28042 59.4623
8713832 11.3979 13.7584 19.1361 15.0677 -0.719278 2.28626 59.3601
8713842 11.3979 13.7584 19.1361 15.0677 -0.719278 2.28626 59.3601
8713857 11.3363 13.7492 19.1262 15.1058 -0.677493 2.31296 59.3175
8713860 11.3979 13.6939 19.1262 15.1439 -0.710189 2.31923 59.362
8713885 11.3979 13.7031 19.1164 15.1058 -0.718668 2.3063 59.3233
8713893 11.3098 13.6295 19.1459 15.182 -0.693607 2.37616 59.2672
8713906 11.3098 13.6295 19.1459 15.182 -0.693607 2.37616 59.2672
8713911 11.3187 13.6018 19.1853 15.2105 -0.712948 2.39614 59.3163
8713922 11.3187 13.6018 19.1853 15.2105 -0.712948 2.39614 59.3163
8713932 11.257 13.6203 19.1951 15.2676 -0.659013 2.42303 59.34
8713941 11.2306 13.6295 19.2444 15.3152 -0.643823 2.44857 59.4196
8713955 11.2306 13.6295 19.2444 15.3152 -0.643823 2.44857 59.4196
8713961 11.257 13.6387 19.2444 15.2391 -0.68357 2.422 59.3791
8713972 11.2306 13.6203 19.3428 15.3152 -0.688079 2.47203 59.5089
8713982 11.2306 13.6203 19.3428 15.3152 -0.688079 2.47203 59.5089
8713992 11.2041 13.6018 19.3034 15.3152 -0.669122 2.47691 59.4246
8714004 11.2041 13.6018 19.3034 15.3152 -0.669122 2.47691 59.4246
8714012 11.1953 13.5926 19.3231 15.2962 -0.68578 2.48235 59.4073
8714027 11.1689 13.5466 19.3526 15.3152 -0.698735 2.51393 59.3834
8714032 11.1689 13.5466 19.3526 15.3152 -0.698735 2.51393 59.3834
8714042 11.2041 13.5834 19.3133 15.3247 -0.676996 2.48641 59.4256
8714063 11.2041 13.6018 19.2837 15.2486 -0.689873 2.4587 59.3383
8714072 11.1689 13.6203 19.3034 15.2296 -0.68377 2.46379 59.3222
8714093 11.2041 13.5926 19.2444 15.1534 -0.719006 2.43291 59.1945
8714104 11.2218 13.6111 19.2148 15.2486 -0.664856 2.43623 59.2962
8714118 11.2218 13.6111 19.2148 15.2486 -0.664856 2.43623 59.2962
8714123 11.2394 13.5834 19.2936 15.2391 -0.720425 2.45382 59.3555
8714133 11.2218 13.5374 19.2936 15.2676 -0.720797 2.47859 59.3204
8714143 11.2218 13.5374 19.2936 15.2676 -0.720797 2.47859 59.3204
8714153 11.2306 13.5374 19.2542 15.3343 -0.679423 2.48175 59.3564
8714164 11.2306 13.5374 19.2542 15.3343 -0.679423 2.48175 59.3564
8714185 11.2218 13.5282 19.3133 15.2676 -0.732845 2.48546 59.3308
8714186 11.2394 13.5834 19.264 15.2962 -0.683615 2.45965 59.383
8714209 11.2746 13.5834 19.2837 15.2486 -0.726683 2.4434 59.3904
8714214 11.257 13.5098 19.3329 15.2676 -0.763281 2.48466 59.3673
8714231 11.257 13.5098 19.3329 15.2676 -0.763281 2.48466 59.3673
8714234 11.2658 13.4913 19.3231 15.2676 -0.770852 2.48541 59.3479
8714244 11.2658 13.4913 19.3231 15.2676 -0.770852 2.48541 59.3479
8714257 11.2658 13.5282 19.392 15.2486 -0.791225 2.48508 59.4346
8714264 11.213 13.5374 19.3428 15.2105 -0.762111 2.47952 59.3036
8714274 11.213 13.5374 19.3428 15.2105 -0.762111 2.47952 59.3036
8714284 11.2394 13.5926 19.3526 15.2105 -0.752947 2.45756 59.3952
8714294 11.2394 13.5926 19.3526 15.2105 -0.752947 2.45756 59.3952
8714308 11.2922 13.5282 19.3329 15.2105 -0.794455 2.45682 59.3639
8714315 11.2658 13.5466 19.3428 15.2772 -0.750794 2.47531 59.4323
8714324 11.2658 13.5466 19.3428 15.2772 -0.750794 2.47531 59.4323
8714334 11.2834 13.5834 19.3231 15.201 -0.766991 2.43907 59.391
8714344 11.2834 13.5466 19.2936 15.1725 -0.783338 2.43761 59.296
8714354 11.2834 13.5466 19.2936 15.1725 -0.783338 2.43761 59.296
8714364 11.2834 13.5834 19.3133 15.2296 -0.750589 2.44303 59.4097
8714385 11.2218 13.5005 19.3329 15.1534 -0.802565 2.47364 59.2087
8714395 11.2746 13.5926 19.2837 15.182 -0.751582 2.42659 59.3329
8714405 11.2746 13.5926 19.2837 15.182 -0.751582 2.42659 59.3329
8714416 11.2482 13.6387 19.2444 15.1439 -0.721198 2.40439 59.2751
8714426 11.3275 13.6203 19.2739 15.1153 -0.786081 2.38675 59.3369
8714436 11.3275 13.6203 19.2739 15.1153 -0.786081 2.38675 59.3369
8714448 11.3451 13.6755 19.2542 15.1725 -0.736497 2.37338 59.4472
8714456 11.3451 13.6755 19.2542 15.1725 -0.736497 2.37338 59.4472
8714470 11.3098 13.6663 19.2345 15.1725 -0.71805 2.38219 59.3831
8714477 11.3803 13.6387 19.2739 15.1629 -0.778976 2.37601 59.4558
8714496 11.3363 13.6387 19.2444 15.1439 -0.757225 2.37857 59.3632
8714507 11.3451 13.6571 19.2444 15.1249 -0.761089 2.36655 59.3714
8714518 11.3451 13.6571 19.2444 15.1249 -0.761089 2.36655 59.3714
8714528 11.3451 13.6203 19.1754 15.0677 -0.773755 2.35047 59.2085
8714539 11.3451 13.7124 19.1951 15.1153 -0.721148 2.33789 59.3679
8714548 11.3451 13.7124 19.1951 15.1153 -0.721148 2.33789 59.3679
8714559 11.3275 13.7492 19.1754 15.1725 -0.665243 2.34026 59.4245
8714568 11.3275 13.7492 19.1754 15.1725 -0.665243 2.34026 59.4245
8714582 11.2922 13.6571 19.1361 15.1153 -0.699258 2.35692 59.2007
8714588 11.3187 13.7216 19.1459 15.1249 -0.682063 2.33445 59.311
8714608 11.3275 13.6939 19.1459 15.1915 -0.668797 2.35416 59.3588
8714619 11.3715 13.7492 19.0869 15.1725 -0.646986 2.30851 59.38
8714630 11.3715 13.7492 19.0869 15.1725 -0.646986 2.30851 59.38
8714639 11.3539 13.7768 19.1262 15.1725 -0.643978 2.314 59.4294
8714650 11.3539 13.7768 19.1262 15.1725 -0.643978 2.314 59.4294
8714659 11.3098 13.786 19.0672 15.2105 -0.581262 2.31967 59.3736
8714674 11.3451 13.7124 19.1262 15.1725 -0.668213 2.33538 59.3561
8714679 11.3451 13.7124 19.1262 15.1725 -0.668213 2.33538 59.3561
8714689 11.3098 13.7492 19.1164 15.182 -0.629692 2.33484 59.3574
8714699 11.3098 13.7584 19.1361 15.1439 -0.65024 2.32823 59.3482
8714709 11.3098 13.7584 19.1361 15.1439 -0.65024 2.32823 59.3482
8714719 11.3187 13.7216 19.1558 15.2296 -0.640841 2.35886 59.4255
8714730 11.3187 13.7216 19.1558 15.2296 -0.640841 2.35886 59.4255
8714740 11.257 13.6939 19.1656 15.2486 -0.62329 2.39112 59.3651
8714750 11.2394 13.6939 19.2345 15.2486 -0.644334 2.4109 59.4164
8714764 11.2394 13.6939 19.2345 15.2486 -0.644334 2.4109 59.4164
8714770 11.2041 13.6847 19.264 15.2296 -0.654192 2.42615 59.3825
8714780 11.213 13.6755 19.3428 15.2296 -0.694014 2.44292 59.4608
8714790 11.213 13.6755 19.3428 15.2296 -0.694014 2.44292 59.4608
8714800 11.257 13.6571 19.3428 15.3152 -0.68298 2.45348 59.5721
8714820 11.1953 13.565 19.2345 15.2296 -0.690289 2.4577 59.2244
8714831 11.1953 13.6295 19.2345 15.2296 -0.662358 2.43872 59.2889
8714842 11.1953 13.6295 19.2345 15.2296 -0.662358 2.43872 59.2889
8714854 11.1865 13.5742 19.2444 15.2105 -0.694978 2.45564 59.2156
8714862 11.2394 13.5926 19.2837 15.2962 -0.68769 2.4611 59.4119
8714876 11.2394 13.5926 19.2837 15.2962 -0.68769 2.4611 59.4119
8714881 11.2922 13.6295 19.3034 15.182 -0.750838 2.41479 59.4071
8714892 11.2922 13.6295 19.3034 15.182 -0.750838 2.41479 59.4071
8714901 11.2306 13.6111 19.2739 15.182 -0.721546 2.43203 59.2975
8714912 11.2394 13.6111 19.3133 15.1725 -0.745386 2.43577 59.3361
8714923 11.2394 13.6111 19.3133 15.1725 -0.745386 2.43577 59.3361
8714934 11.257 13.6663 19.3133 15.1725 -0.728634 2.41438 59.409
8714946 11.2658 13.6203 19.2345 15.1725 -0.719984 2.40861 59.293
8714953 11.2658 13.6203 19.2345 15.1725 -0.719984 2.40861 59.293
8714961 11.3098 13.6387 19.2148 15.1629 -0.726092 2.38408 59.3263
8714973 11.3098 13.6387 19.2148 15.1629 -0.726092 2.38408 59.3263
8714983 11.2658 13.6295 19.2542 15.1153 -0.748837 2.39795 59.2648
8714994 11.3451 13.6571 19.2936 15.2105 -0.744051 2.39519 59.5063
8715003 11.3451 13.6571 19.2936 15.2105 -0.744051 2.39519 59.5063
8715013 11.3275 13.5834 19.2936 15.182 -0.781173 2.41587 59.3864
8715023 11.3451 13.5926 19.2542 15.1725 -0.77243 2.39764 59.3644
8715033 11.3451 13.5926 19.2542 15.1725 -0.77243 2.39764 59.3644
8715043 11.3979 13.5282 19.3133 15.0582 -0.895816 2.38932 59.2976
8715055 11.3979 13.5282 19.3133 15.0582 -0.895816 2.38932 59.2976
8715063 11.3627 13.5742 19.2837 15.1534 -0.807926 2.4001 59.3741
8715075 11.4067 13.6018 19.2837 15.1058 -0.834538 2.36901 59.3981
8715083 11.4067 13.6018 19.2837 15.1058 -0.834538 2.36901 59.3981
8715097 11.4155 13.5466 19.2739 15.0392 -0.887236 2.36632 59.2752
8715104 11.4772 13.565 19.1951 15.0773 -0.855634 2.33421 59.3146
8715124 11.4332 13.5558 19.2148 15.0868 -0.845583 2.35602 59.2906
8715133 11.4332 13.5558 19.2148 15.0868 -0.845583 2.35602 59.2906
8715147 11.4596 13.6387 19.2444 15.0487 -0.84884 2.32226 59.3913
8715154 11.4948 13.6018 19.1951 15.0963 -0.838472 2.32238 59.3881
8715164 11.4948 13.6018 19.1951 15.0963 -0.838472 2.32238 59.3881
8715174 11.442 13.6847 19.1754 15.0582 -0.789443 2.30128 59.3604
8715184 11.4684 13.6018 19.1459 15.0963 -0.807658 2.31958 59.3125
8715205 11.4067 13.6663 19.1558 15.1344 -0.741965 2.32899 59.3632
8715216 11.4067 13.6663 19.1558 15.1344 -0.741965 2.32899 59.3632
8715225 11.3979 13.6479 19.2148 15.1058 -0.782864 2.34345 59.3665
8715239 11.3715 13.6755 19.1558 15.2105 -0.690596 2.35282 59.4133
8715245 11.3715 13.6755 19.1558 15.2105 -0.690596 2.35282 59.4133
8715255 11.3891 13.6387 19.1754 15.1249 -0.758928 2.34438 59.3281
8715265 11.3275 13.6571 19.1754 15.2391 -0.676244 2.38134 59.3991
8715286 11.3187 13.6755 19.205 15.2581 -0.668548 2.38884 59.4573
8715295 11.2922 13.6755 19.2148 15.2581 -0.661759 2.39866 59.4407
8715306 11.2922 13.6203 19.2148 15.2486 -0.689754 2.41283 59.3759
8715315 11.2658 13.6847 19.1951 15.3533 -0.597873 2.41968 59.499
8715325 11.2658 13.6847 19.1951 15.3533 -0.597873 2.41968 59.499
8715335 11.3098 13.6387 19.1951 15.3438 -0.639848 2.41826 59.4874
8715348 11.3098 13.6571 19.2444 15.2772 -0.680782 2.40918 59.4885
8715355 11.3098 13.6571 19.2444 15.2772 -0.680782 2.40918 59.4885
8715365 11.2218 13.5926 19.1459 15.2867 -0.628038 2.43511 59.247
8715375 11.2218 13.5926 19.1459 15.2867 -0.628038 2.43511 59.247
8715385 11.2306 13.5926 19.1754 15.2867 -0.643797 2.43878 59.2853
8715397 11.2482 13.6018 19.205 15.3533 -0.630391 2.45124 59.4083
8715421 11.2218 13.6111 19.1853 15.3247 -0.619812 2.4461 59.3429
8715427 11.1689 13.6295 19.1754 15.3819 -0.561461 2.46621 59.3557
8715447 11.1601 13.5742 19.1951 15.4009 -0.581545 2.49325 59.3304
8715467 11.1865 13.5466 19.2345 15.3723 -0.632843 2.49589 59.34
8715483 11.1777 13.5466 19.2345 15.4485 -0.596371 2.51451 59.4073
8715489 11.1777 13.5466 19.2345 15.4485 -0.596371 2.51451 59.4073
8715496 11.213 13.5834 19.1754 15.4485 -0.570717 2.48086 59.4203
8715506 11.2041 13.6018 19.1951 15.4295 -0.575458 2.47817 59.4306
8715516 11.2041 13.6018 19.1951 15.4295 -0.575458 2.47817 59.4306
8715527 11.2306 13.5926 19.1951 15.4104 -0.598474 2.46909 59.4288
8715538 11.2306 13.5926 19.1951 15.4104 -0.598474 2.46909 59.4288
