11437945 12.0321 15.766 17.4725 16.743 1.21117 1.55226 62.0136
11437951 12.0762 15.7384 17.4627 16.7811 1.20073 1.554 62.0582
11437960 12.0762 15.7384 17.4627 16.7811 1.20073 1.554 62.0582
11437971 12.0057 15.6647 17.502 16.762 1.17826 1.59693 61.9344
11437980 12.0321 15.7015 17.5217 16.8191 1.19487 1.5966 62.0745
11437991 12.0321 15.7015 17.5217 16.8191 1.19487 1.5966 62.0745
11437999 12.0057 15.7291 17.5316 16.8287 1.2161 1.60046 62.0951
11438012 12.0057 15.7291 17.5316 16.8287 1.2161 1.60046 62.0951
11438020 12.0233 15.7107 17.4627 16.7811 1.21246 1.57549 61.9778
11438032 12.0233 15.6831 17.5316 16.8572 1.20196 1.61422 62.0952
11438048 12.0233 15.6831 17.5316 16.8572 1.20196 1.61422 62.0952
11438053 12.0321 15.7107 17.5611 16.8287 1.18544 1.60469 62.1326
11438060 12.0233 15.7107 17.5217 16.8191 1.20212 1.5965 62.0749
11438070 12.0233 15.7107 17.5217 16.8191 1.20212 1.5965 62.0749
11438080 12.0321 15.7107 17.5316 16.7716 1.17598 1.58599 62.046
11438093 12.0321 15.7107 17.5316 16.7716 1.17598 1.58599 62.046
11438100 11.9617 15.6186 17.5414 16.8572 1.19912 1.65016 61.9789
11438110 11.9617 15.7107 17.5414 16.9048 1.25264 1.6357 62.1186
11438120 11.9617 15.7107 17.5414 16.9048 1.25264 1.6357 62.1186
11438130 12.0233 15.6647 17.5119 16.8667 1.20686 1.61696 62.0666
11438140 11.944 15.6647 17.4725 16.7811 1.22418 1.6112 61.8623
11438160 11.9705 15.7015 17.5414 16.8477 1.22353 1.62351 62.0611
11438170 11.9705 15.7015 17.5414 16.8477 1.22353 1.62351 62.0611
11438180 11.9088 15.6555 17.4627 16.8287 1.25804 1.63131 61.8556
11438190 11.9264 15.6647 17.5512 16.8001 1.2056 1.63706 61.9425
11438200 11.9264 15.6647 17.5512 16.8001 1.2056 1.63706 61.9425
11438214 11.9352 15.6463 17.6005 16.8763 1.20324 1.66664 62.0582
11438221 11.9264 15.6463 17.6005 16.8763 1.20696 1.669 62.0494
11438231 11.9264 15.6555 17.6005 16.8287 1.19223 1.65629 62.011
11438241 11.9705 15.6831 17.6103 16.8953 1.20563 1.65351 62.1592
11438251 11.9705 15.6831 17.6103 16.8953 1.20563 1.65351 62.1592
11438261 11.944 15.6647 17.5808 16.8382 1.20029 1.6469 62.0277
11438271 11.8736 15.6923 17.5808 16.8953 1.26255 1.67069 62.042
11438291 11.9705 15.7107 17.5611 16.8953 1.23696 1.63553 62.1376
11438301 11.8912 15.7107 17.6005 16.9429 1.272 1.67545 62.1453
11438311 11.8912 15.5542 17.6005 16.9429 1.21208 1.71757 61.9887
11438322 11.9176 15.6278 17.5906 16.9239 1.22602 1.68442 62.0599
11438342 11.8824 15.6463 17.5808 16.8858 1.23755 1.67866 61.9952
11438356 11.8736 15.6647 17.5906 16.8858 1.24417 1.67819 62.0147
11438362 11.8736 15.6647 17.5906 16.8858 1.24417 1.67819 62.0147
11438373 11.9088 15.6186 17.5414 16.9143 1.24338 1.67665 61.9832
11438383 11.8295 15.6463 17.5709 16.9334 1.28233 1.70099 61.9801
11438393 11.8295 15.6463 17.5709 16.9334 1.28233 1.70099 61.9801
11438403 11.8648 15.5634 17.6398 16.9619 1.21744 1.73471 62.0299
11438424 11.856 15.6002 17.6891 17.0292 1.24023 1.75203 62.1745
11438433 11.7943 15.5358 17.6792 17 1.23459 1.77776 62.0093
11438446 11.7943 15.5358 17.6792 17 1.23459 1.77776 62.0093
11438453 11.7855 15.5173 17.6694 16.9714 1.22447 1.77693 61.9436
11438464 11.7679 15.4989 17.7678 17.0487 1.21287 1.82409 62.0833
11438475 11.7679 15.4989 17.7678 17.0487 1.21287 1.82409 62.0833
11438483 11.7503 15.4897 17.8072 17.1266 1.22999 1.85622 62.1738
11438493 11.7503 15.4897 17.8072 17.1266 1.22999 1.85622 62.1738
11438503 11.6974 15.4437 17.7776 17.0974 1.23598 1.87064 62.0161
11438513 11.6622 15.4068 17.9253 17.1656 1.20052 1.93579 62.1599
11438535 11.6622 15.4345 17.9351 17.1559 1.20322 1.92829 62.1877
11438545 11.6093 15.2963 17.9548 17.1851 1.17545 1.99071 62.0456
11438555 11.6093 15.2963 17.9548 17.1851 1.17545 1.99071 62.0456
11438566 11.6269 15.3147 18.0237 17.263 1.17594 2.01156 62.2285
11438576 11.6269 15.3147 18.0237 17.263 1.17594 2.01156 62.2285
11438586 11.5124 15.2687 18.0828 17.302 1.19658 2.07598 62.1659
11438596 11.5389 15.2411 18.1025 17.3702 1.19269 2.09455 62.2526
11438607 11.5389 15.2411 18.1025 17.3702 1.19269 2.09455 62.2526
11438616 11.4508 15.1766 18.1714 17.3117 1.15366 2.13871 62.1105
11438626 11.4508 15.1674 18.2009 17.341 1.14891 2.15341 62.1601
11438636 11.4508 15.1674 18.2009 17.341 1.14891 2.15341 62.1601
11438647 11.3979 15.0937 18.2698 17.4189 1.1438 2.21865 62.1804
11438664 11.3979 15.0937 18.2698 17.4189 1.1438 2.21865 62.1804
11438672 11.3891 15.0845 18.2403 17.4189 1.15639 2.21757 62.1328
11438691 11.3187 15.0385 18.2994 17.4384 1.151 2.26604 62.0949
11438692 11.3187 15.0385 18.2994 17.4384 1.151 2.26604 62.0949
11438696 11.3275 15.0293 18.3486 17.4287 1.1193 2.27425 62.1339
11438706 11.3363 15.0016 18.3584 17.4968 1.12704 2.29544 62.1932
11438716 11.3363 15.0016 18.3584 17.4968 1.12704 2.29544 62.1932
11438727 11.3187 15.0385 18.3781 17.4384 1.11787 2.28217 62.1736
11438747 11.2041 14.9372 18.447 17.4384 1.09807 2.35643 62.0267
11438757 11.301 14.9464 18.4372 17.5358 1.10252 2.34463 62.2204
11438768 11.301 14.9464 18.4372 17.5358 1.10252 2.34463 62.2204
11438777 11.2306 14.8819 18.4569 17.4968 1.08405 2.37841 62.0662
11438787 11.2218 14.9464 18.4667 17.5748 1.13837 2.38066 62.2096
11438797 11.2218 14.9464 18.4667 17.5748 1.13837 2.38066 62.2096
11438807 11.2482 14.8819 18.4667 17.5748 1.10251 2.3913 62.1716
11438817 11.2482 14.8819 18.4667 17.5748 1.10251 2.3913 62.1716
11438827 11.2394 14.8451 18.5061 17.5553 1.06802 2.40811 62.1458
11438839 11.2482 14.8359 18.4962 17.4968 1.04237 2.39437 62.0771
11438861 11.2834 14.8267 18.5455 17.5261 1.01471 2.40299 62.1816
11438870 11.2746 14.7898 18.5651 17.5943 1.02225 2.43355 62.2238
11438888 11.1865 14.7346 18.5455 17.6138 1.05361 2.47376 62.0803
11438899 11.2218 14.7714 18.4864 17.6235 1.08157 2.44353 62.1031
11438910 11.2218 14.7714 18.4864 17.6235 1.08157 2.44353 62.1031
11438918 11.301 14.799 18.4667 17.6527 1.07844 2.41549 62.2195
11438930 11.301 14.799 18.4667 17.6527 1.07844 2.41549 62.2195
11438939 11.301 14.7898 18.3978 17.6332 1.09632 2.40017 62.1219
11438949 11.3803 14.8359 18.447 17.5748 1.03768 2.36326 62.238
11438959 11.3803 14.8359 18.447 17.5748 1.03768 2.36326 62.238
11438972 11.3539 14.8819 18.388 17.5553 1.08371 2.34182 62.1791
11438980 11.3539 14.8819 18.388 17.5553 1.08371 2.34182 62.1791
11438994 11.3627 14.8635 18.3092 17.5553 1.106 2.32845 62.0907
11439000 11.3275 14.8911 18.3092 17.6722 1.17631 2.35438 62.2
11439010 11.3275 14.8911 18.3092 17.6722 1.17631 2.35438 62.2
11439020 11.3363 14.9372 18.2108 17.7112 1.2466 2.32698 62.1954
11439034 11.3803 14.9556 18.2305 17.604 1.18578 2.29175 62.1704
11439050 11.3451 14.9924 18.1714 17.643 1.25456 2.28719 62.1519
11439060 11.3803 15.0661 18.1123 17.604 1.27788 2.23686 62.1627
11439080 11.3979 15.02 18.132 17.5261 1.21471 2.23278 62.0761
11439092 11.3979 15.02 18.132 17.5261 1.21471 2.23278 62.0761
11439109 11.3979 15.0016 18.0828 17.5358 1.23219 2.22976 62.0182
11439111 11.3275 15.0569 18.1517 17.4774 1.23162 2.23615 62.0134
11439120 11.3275 15.0569 18.1517 17.4774 1.23162 2.23615 62.0134
11439131 11.3363 15.0108 18.1222 17.4968 1.2302 2.24443 61.9661
11439141 11.4067 15.0108 18.132 17.5456 1.21492 2.23689 62.0951
11439151 11.4067 14.9648 18.132 17.5456 1.19727 2.24968 62.0491
11439162 11.4332 15.0845 18.0926 17.5358 1.24485 2.19904 62.1461
11439172 11.4332 15.0845 18.0926 17.5358 1.24485 2.19904 62.1461
11439183 11.486 15.1029 18.0631 17.4968 1.22715 2.16521 62.1489
11439192 11.442 15.0845 18.0237 17.5845 1.28886 2.19244 62.1347
11439202 11.442 15.0845 18.0237 17.5845 1.28886 2.19244 62.1347
11439212 11.4508 15.1213 18.0631 17.4871 1.24535 2.16784 62.1223
11439225 11.4684 15.1398 18.0139 17.5358 1.28435 2.15779 62.1579
11439232 11.4684 15.1398 18.0139 17.5358 1.28435 2.15779 62.1579
11439246 11.5124 15.1582 17.9647 17.5553 1.30099 2.13441 62.1906
11439252 11.5124 15.1582 17.9647 17.5553 1.30099 2.13441 62.1906
11439263 11.4508 15.1213 17.8859 17.5261 1.33531 2.13923 61.9841
11439273 11.5124 15.1582 17.9155 17.4968 1.29953 2.1121 62.0829
11439289 11.5124 15.1582 17.9155 17.4968 1.29953 2.1121 62.0829
11439295 11.5212 15.2319 17.8269 17.4774 1.35403 2.06691 62.0573
11439303 11.5212 15.2595 17.7383 17.5261 1.42075 2.051 62.0451
11439331 11.5565 15.2963 17.7284 17.4871 1.40914 2.02102 62.0683
11439335 11.5565 15.2963 17.7284 17.4871 1.40914 2.02102 62.0683
11439345 11.5124 15.3608 17.6595 17.4481 1.46697 1.99282 61.9809
11439355 11.5917 15.3976 17.6595 17.4774 1.45822 1.96718 62.1262
11439366 11.5917 15.3976 17.6595 17.4774 1.45822 1.96718 62.1262
11439376 11.5829 15.4713 17.5611 17.3897 1.49866 1.91031 62.005
11439386 11.6181 15.4345 17.5414 17.3702 1.47066 1.90247 61.9642
11439406 11.6534 15.5265 17.5414 17.4287 1.51264 1.88016 62.15
11439416 11.6005 15.4621 17.5611 17.4676 1.51716 1.92445 62.0913
11439426 11.6005 15.4621 17.5611 17.4676 1.51716 1.92445 62.0913
11439439 11.6358 15.4989 17.6103 17.4287 1.48033 1.90699 62.1736
11439446 11.6358 15.4989 17.6103 17.4287 1.48033 1.90699 62.1736
11439456 11.5917 15.4252 17.6005 17.4774 1.49386 1.94724 62.0948
11439466 11.5829 15.4621 17.6202 17.5358 1.52523 1.956 62.201
11439486 11.6534 15.4252 17.5906 17.4968 1.47915 1.93245 62.1661
11439497 11.5829 15.3976 17.7087 17.4871 1.44471 1.98194 62.1764
11439517 11.6005 15.3792 17.6595 17.4968 1.45487 1.97389 62.1361
11439527 11.6005 15.3792 17.6595 17.4968 1.45487 1.97389 62.1361
11439537 11.5741 15.2871 17.6989 17.5748 1.44399 2.03086 62.1349
11439547 11.5212 15.2779 17.7383 17.6332 1.46838 2.06827 62.1707
11439558 11.5212 15.2779 17.7383 17.6332 1.46838 2.06827 62.1707
11439567 11.5301 15.2687 17.7186 17.5943 1.45477 2.05617 62.1116
11439577 11.5653 15.2134 17.8466 17.6332 1.37926 2.09636 62.2585
11439597 11.5653 15.2134 17.6989 17.6625 1.45305 2.07177 62.1401
11439607 11.5653 15.2134 17.6989 17.6625 1.45305 2.07177 62.1401
11439617 11.5477 15.1674 17.6891 17.565 1.41026 2.06692 61.9692
11439628 11.5653 15.1398 17.7087 17.6332 1.4098 2.088 62.047
11439649 11.6093 15.2134 17.7383 17.565 1.38061 2.04758 62.1261
11439658 11.6798 15.1582 17.6891 17.5163 1.332 2.02296 62.0434
11439669 11.6798 15.1582 17.6891 17.5163 1.332 2.02296 62.0434
11439678 11.7679 15.2963 17.6497 17.5163 1.36392 1.95287 62.2302
11439691 11.7679 15.2963 17.6497 17.5163 1.36392 1.95287 62.2302
11439701 11.7326 15.2595 17.5808 17.4287 1.36074 1.93962 62.0016
11439712 11.7326 15.4068 17.5316 17.4092 1.43032 1.88496 62.0802
11439719 11.7326 15.4068 17.5316 17.4092 1.43032 1.88496 62.0802
11439730 11.8295 15.4437 17.4331 17.2241 1.37456 1.78846 61.9304
11439740 11.8648 15.4989 17.3248 17.1851 1.41191 1.73247 61.8736
11439751 11.8648 15.4989 17.3248 17.1851 1.41191 1.73247 61.8736
11439760 11.9528 15.6555 17.3347 17.0779 1.38899 1.64565 62.0209
11439770 11.9528 15.6555 17.3347 17.0779 1.38899 1.64565 62.0209
11439780 11.9793 15.6463 17.1969 17.0195 1.41069 1.59863 61.8419
11439791 11.9881 15.7568 17.1083 17.0487 1.49798 1.55378 61.9018
11439799 11.9881 15.7568 17.1083 17.0487 1.49798 1.55378 61.9018
11439810 12.0057 15.8489 17.1378 16.981 1.48706 1.51619 61.9733
11439820 12.0497 15.766 17.1083 17.0097 1.46031 1.52638 61.9337
11439830 12.0497 15.766 17.1083 17.0097 1.46031 1.52638 61.9337
11439840 12.085 15.8949 17.1083 16.9714 1.47966 1.47435 62.0596
11439851 12.085 15.8949 17.1083 16.9714 1.47966 1.47435 62.0596
11439860 12.1378 15.8489 17.0787 16.9048 1.42694 1.45155 61.9703
11439870 12.1554 15.9686 16.9272 16.8572 1.51156 1.37148 61.9085
11439893 12.1731 16.0607 16.8544 16.7525 1.53042 1.30332 61.8407
11439900 12.1907 16.0883 16.9064 16.7525 1.51108 1.30291 61.9379
11439916 12.1907 16.0883 16.9064 16.7525 1.51108 1.30291 61.9379
11439921 12.2876 16.1251 16.8336 16.6573 1.47862 1.23053 61.9037
11439931 12.2876 16.1251 16.8336 16.6573 1.47862 1.23053 61.9037
11439942 12.3228 16.1251 16.8232 16.6097 1.44989 1.20838 61.8809
11439969 12.3492 16.1528 16.8336 16.6859 1.4736 1.2135 62.0215
11439971 12.3492 16.1528 16.8336 16.6859 1.4736 1.2135 62.0215
11439973 12.3933 16.1896 16.6881 16.5717 1.48762 1.13438 61.8426
11439982 12.4197 16.1712 16.7297 16.5622 1.44789 1.13948 61.8827
11439992 12.4197 16.1712 16.7297 16.5622 1.44789 1.13948 61.8827
11440002 12.5078 16.2356 16.6777 16.4955 1.43165 1.07316 61.9166
11440012 12.5078 16.2356 16.6777 16.4955 1.43165 1.07316 61.9166
11440023 12.4373 16.2264 16.6569 16.467 1.45628 1.08277 61.7876
11440032 12.5078 16.1712 16.6569 16.4003 1.37961 1.06378 61.7362
11440042 12.5078 16.1712 16.6569 16.4003 1.37961 1.06378 61.7362
11440052 12.5166 16.1712 16.6049 16.5241 1.44531 1.07767 61.8167
11440062 12.5254 16.2172 16.6985 16.505 1.41188 1.08019 61.9461
11440072 12.5254 16.2172 16.6985 16.505 1.41188 1.08019 61.9461
11440083 12.5342 16.2172 16.6465 16.5431 1.44478 1.07478 61.941
11440092 12.5342 16.2172 16.6465 16.5431 1.44478 1.07478 61.941
11440105 12.4813 16.2449 16.6361 16.5336 1.4787 1.07684 61.8959
11440122 12.5078 16.2356 16.6569 16.5812 1.4731 1.08774 61.9815
11440132 12.5694 16.2541 16.5633 16.4765 1.45394 1.02233 61.8633
11440142 12.5254 16.2541 16.6361 16.5431 1.46699 1.06517 61.9586
11440152 12.5254 16.3093 16.6361 16.5431 1.48796 1.05085 62.0139
11440162 12.5518 16.2356 16.5841 16.5146 1.46006 1.04495 61.8861
11440172 12.5518 16.2356 16.5841 16.5146 1.46006 1.04495 61.8861
11440183 12.5078 16.1896 16.5841 16.5717 1.48311 1.0812 61.8531
11440194 12.5254 16.2449 16.6153 16.505 1.4579 1.0543 61.8906
11440203 12.5254 16.2449 16.6153 16.505 1.4579 1.0543 61.8906
11440213 12.4813 16.2633 16.6985 16.5622 1.46988 1.09249 62.0052
11440225 12.4549 16.2449 16.6569 16.5526 1.48834 1.09266 61.9093
11440234 12.4549 16.2449 16.6569 16.5526 1.48834 1.09266 61.9093
11440243 12.5254 16.1712 16.6153 16.5622 1.4516 1.08629 61.874
11440263 12.4021 16.1896 16.6257 16.5526 1.50335 1.11381 61.77
11440275 12.4549 16.1804 16.6569 16.5812 1.47469 1.11585 61.8734
11440297 12.499 16.208 16.6673 16.6288 1.47999 1.11021 62.003
11440305 12.4373 16.2264 16.6153 16.6193 1.53199 1.10766 61.8983
11440325 12.4637 16.2633 16.6777 16.6383 1.51514 1.10947 62.043
11440339 12.4637 16.2633 16.6777 16.6383 1.51514 1.10947 62.043
11440345 12.4197 16.1988 16.6881 16.6764 1.51954 1.14853 61.9829
11440355 12.4813 16.1343 16.7817 16.6669 1.42522 1.16802 62.0642
11440366 12.4813 16.1343 16.7817 16.6669 1.42522 1.16802 62.0642
11440376 12.4197 16.1988 16.6673 16.6669 1.52483 1.14175 61.9526
11440386 12.358 16.1712 16.7817 16.724 1.51345 1.20329 62.0348
11440396 12.358 16.1712 16.7817 16.724 1.51345 1.20329 62.0348
11440406 12.2964 16.1712 16.7401 16.743 1.56486 1.2144 61.9506
11440416 12.2964 16.1712 16.7401 16.743 1.56486 1.2144 61.9506
11440426 12.314 16.0791 16.8232 16.8191 1.51567 1.26927 62.0355
11440436 12.2083 16.0607 16.844 16.8763 1.56664 1.3191 61.9893
11440446 12.2083 16.0607 16.844 16.8763 1.56664 1.3191 61.9893
11440456 12.2523 15.9778 16.8752 16.9143 1.51749 1.3446 62.0197
11440467 12.2171 15.987 16.9064 16.9714 1.5443 1.37088 62.082
11440476 12.2171 15.987 16.9064 16.9714 1.5443 1.37088 62.082
11440488 12.2083 15.9962 16.8336 16.9714 1.58271 1.35477 62.0096
11440508 12.1202 15.9133 16.896 17.0195 1.58056 1.42423 61.949
11440516 12.1731 15.941 16.9168 17.0097 1.55576 1.40534 62.0406
11440529 12.1731 15.941 16.9168 17.0097 1.55576 1.40534 62.0406
11440537 12.1466 15.941 16.8752 17 1.58123 1.40108 61.9628
11440551 12.085 15.8673 16.9688 17.0487 1.5581 1.46812 61.9698
11440557 12.085 15.8673 16.9688 17.0487 1.5581 1.46812 61.9698
11440571 12.0497 15.8581 17.0098 17.0682 1.5595 1.49314 61.9859
11440577 12.0497 15.8581 17.0098 17.0682 1.5595 1.49314 61.9859
11440587 12.0762 15.8212 16.9688 17.0487 1.54445 1.48271 61.9149
11440607 12.129 15.8304 16.9896 17.0682 1.52378 1.47499 62.0173
11440612 12.129 15.8304 16.9896 17.0682 1.52378 1.47499 62.0173
11440618 12.1466 15.8489 16.9896 16.9619 1.48294 1.44221 61.947
11440632 12.1202 15.8857 16.948 16.9619 1.52602 1.43033 61.9158
11440638 12.1202 15.8857 16.948 16.9619 1.52602 1.43033 61.9158
11440653 12.1907 15.8857 16.9168 16.9239 1.49477 1.39646 61.917
11440660 12.1731 15.8489 16.948 16.9334 1.47858 1.41983 61.9033
11440674 12.1731 15.8489 16.948 16.9334 1.47858 1.41983 61.9033
11440680 12.2083 15.9317 16.9792 16.9524 1.48887 1.39957 62.0716
11440700 12.2259 15.9133 16.9064 16.9143 1.49102 1.37545 61.96
11440710 12.2699 15.9594 16.9376 16.8667 1.4583 1.34807 62.0337
11440721 12.2699 15.9594 16.9376 16.8667 1.4583 1.34807 62.0337
11440731 12.2259 15.9686 16.8856 16.9334 1.52806 1.36047 62.0135
11440741 12.2611 15.941 16.8648 16.8858 1.49338 1.34341 61.9527
11440756 12.2611 15.941 16.8648 16.8858 1.49338 1.34341 61.9527
11440761 12.2347 15.9317 16.9168 16.8287 1.45726 1.35168 61.9119
11440777 12.2347 15.9317 16.9168 16.8287 1.45726 1.35168 61.9119
11440787 12.2523 15.9686 16.9064 16.8572 1.47902 1.34132 61.9846
11440791 12.2347 15.9225 16.896 16.8191 1.45903 1.34743 61.8724
11440811 12.2083 15.8304 16.9376 16.8572 1.43197 1.39635 61.8336
11440821 12.2259 15.9133 16.8752 16.8572 1.48267 1.35601 61.8717
11440831 12.2259 15.9133 16.8752 16.8572 1.48267 1.35601 61.8717
11440841 12.2611 15.8857 16.9896 16.9429 1.44083 1.39797 62.0793
11440851 12.2611 15.8857 16.9896 16.9429 1.44083 1.39797 62.0793
11440863 12.2171 15.9225 17.0492 16.9524 1.45178 1.415 62.1413
11440872 12.2347 15.8949 17.0787 16.9143 1.4068 1.41578 62.1227
11440883 12.2347 15.8949 17.0787 16.9143 1.4068 1.41578 62.1227
11440892 12.2523 15.8489 16.9688 16.9239 1.43223 1.4013 61.9939
11440904 12.2699 15.9041 16.9688 16.8858 1.43125 1.37368 62.0286
11440912 12.2699 15.9041 16.9688 16.8858 1.43125 1.37368 62.0286
11440924 12.2788 15.8581 17.0295 16.8763 1.38052 1.39476 62.0426
11440933 12.2347 15.8673 16.948 16.8382 1.42303 1.37769 61.8882
11440953 12.2347 15.8212 16.9584 16.8001 1.3865 1.3838 61.8145
11440966 12.2347 15.8212 16.9584 16.8001 1.3865 1.3838 61.8145
11440977 12.1907 15.7936 16.9792 16.8287 1.39678 1.41367 61.7922
11440988 12.2259 15.8949 16.9688 16.8763 1.44291 1.38566 61.9659
11440995 12.2259 15.8949 16.9688 16.8763 1.44291 1.38566 61.9659
11441005 12.2523 15.8857 16.948 16.9429 1.46232 1.39117 62.0289
11441015 12.2347 15.941 16.9896 16.8477 1.43693 1.36946 62.013
11441025 12.2347 15.941 16.9896 16.8477 1.43693 1.36946 62.013
11441035 12.2523 15.9317 16.9896 16.8858 1.44039 1.37561 62.0595
11441056 12.2699 15.9225 16.8856 16.8667 1.46651 1.34633 61.9449
11441067 12.3052 15.9502 16.9064 16.8572 1.44947 1.33225 62.019
11441077 12.3052 15.9502 16.9064 16.8572 1.44947 1.33225 62.019
11441088 12.3316 15.9502 16.8648 16.7049 1.39797 1.28242 61.8515
11441096 12.3228 15.9594 16.844 16.7716 1.43951 1.29248 61.8978
11441110 12.3228 15.9594 16.844 16.7716 1.43951 1.29248 61.8978
11441116 12.3404 15.9778 16.8544 16.7811 1.43818 1.28741 61.9537
11441126 12.3404 15.9778 16.8544 16.7811 1.43818 1.28741 61.9537
11441136 12.3404 15.9778 16.844 16.7049 1.41362 1.26823 61.8672
11441146 12.3668 15.9962 16.9064 16.8096 1.42261 1.29343 62.0791
11441167 12.358 15.9594 16.8648 16.6954 1.38657 1.27094 61.8776
11441179 12.3228 15.8949 16.8752 16.7335 1.3871 1.30794 61.8264
11441187 12.3228 15.8949 16.8752 16.7335 1.3871 1.30794 61.8264
11441200 12.3845 15.9594 16.8648 16.743 1.39346 1.27454 61.9517
11441207 12.3404 16.0515 16.7609 16.7335 1.48808 1.23674 61.8862
11441227 12.3404 16.0515 16.7609 16.7335 1.48808 1.23674 61.8862
11441229 12.358 16.0054 16.8232 16.7335 1.43638 1.25806 61.9202
11441238 12.358 16.0054 16.8232 16.7335 1.43638 1.25806 61.9202
11441248 12.3052 15.9686 16.8336 16.7144 1.43323 1.27972 61.8218
11441258 12.3756 15.9962 16.8024 16.762 1.44509 1.25757 61.9363
11441269 12.3756 15.9962 16.8024 16.762 1.44509 1.25757 61.9363
11441278 12.3845 16.0238 16.8336 16.8001 1.45299 1.26337 62.042
11441291 12.3756 16.033 16.7713 16.724 1.45795 1.23252 61.9039
11441298 12.3756 16.033 16.7713 16.724 1.45795 1.23252 61.9039
11441311 12.4373 16.0883 16.792 16.7525 1.45459 1.21289 62.0702
11441334 12.4285 16.0423 16.7609 16.7335 1.44694 1.21607 61.9651
11441340 12.3933 16.0975 16.7089 16.7525 1.51242 1.2035 61.9522
11441350 12.3933 16.0975 16.7089 16.7525 1.51242 1.2035 61.9522
11441361 12.4021 16.0699 16.6985 16.743 1.499 1.20398 61.9134
11441370 12.4373 16.1528 16.7401 16.6478 1.46149 1.16117 61.9779
11441382 12.4373 16.1528 16.7401 16.6478 1.46149 1.16117 61.9779
11441391 12.4902 16.0791 16.6985 16.6669 1.43591 1.16157 61.9346
11441400 12.4902 16.0791 16.6985 16.6669 1.43591 1.16157 61.9346
11441411 12.4461 16.1159 16.7609 16.7525 1.47461 1.19645 62.0754
11441421 12.4549 16.1343 16.7609 16.7144 1.4634 1.18088 62.0646
11441441 12.4373 16.1159 16.6881 16.6859 1.48418 1.16768 61.9272
11441451 12.4285 16.1159 16.6777 16.743 1.51406 1.1804 61.9651
11441462 12.4285 16.1159 16.6777 16.743 1.51406 1.1804 61.9651
11441473 12.4021 16.1343 16.6153 16.762 1.5663 1.17282 61.9137
11441482 12.4021 16.1343 16.6153 16.762 1.5663 1.17282 61.9137
11441496 12.4021 16.0883 16.5113 16.8001 1.60798 1.17012 61.8018
11441502 12.4549 16.1712 16.6049 16.7049 1.54042 1.13433 61.9359
11441512 12.4549 16.1712 16.6049 16.7049 1.54042 1.13433 61.9359
11441524 12.4109 16.1896 16.4905 16.6669 1.60103 1.10679 61.7579
11441534 12.4461 16.2541 16.5633 16.7144 1.59697 1.10787 61.9779
11441553 12.543 16.2264 16.5529 16.6764 1.53507 1.07902 61.9987
11441565 12.4813 16.2449 16.5633 16.6859 1.5676 1.09471 61.9754
11441588 12.4285 16.2817 16.6049 16.6764 1.58275 1.10606 61.9915
11441593 12.4285 16.2817 16.6049 16.6764 1.58275 1.10606 61.9915
11441605 12.4902 16.2541 16.5321 16.6288 1.55907 1.07019 61.9051
11441615 12.4902 16.2449 16.5113 16.6764 1.58252 1.07861 61.9227
11441625 12.4902 16.2449 16.5113 16.6764 1.58252 1.07861 61.9227
11441635 12.4197 16.2449 16.5217 16.6573 1.60113 1.09498 61.8436
11441645 12.4461 16.2541 16.5425 16.5717 1.55187 1.07111 61.8144
11441655 12.4461 16.2541 16.5425 16.5717 1.55187 1.07111 61.8144
11441666 12.5166 16.3001 16.6257 16.6097 1.51791 1.06815 62.0521
11441675 12.5166 16.3001 16.6257 16.6097 1.51791 1.06815 62.0521
11441687 12.4813 16.208 16.5841 16.6669 1.53754 1.10467 61.9403
11441695 12.4637 16.1896 16.5841 16.6859 1.54532 1.11832 61.9233
11441710 12.4637 16.1896 16.5841 16.6859 1.54532 1.11832 61.9233
11441715 12.4549 16.2356 16.5945 16.6097 1.53324 1.09387 61.8948
11441725 12.4725 16.2356 16.4905 16.6764 1.59554 1.0809 61.8751
11441735 12.4725 16.2356 16.4905 16.6764 1.59554 1.0809 61.8751
11441745 12.4461 16.2172 16.5113 16.7144 1.60539 1.10579 61.8891
11441755 12.4461 16.2172 16.5113 16.7144 1.60539 1.10579 61.8891
11441765 12.4725 16.2264 16.5425 16.6478 1.55891 1.08856 61.8893
11441775 12.4725 16.2172 16.5633 16.743 1.58251 1.11698 61.9961
11441785 12.4725 16.2172 16.5633 16.743 1.58251 1.11698 61.9961
11441811 12.4285 16.2449 16.5737 16.743 1.60738 1.12357 61.9901
11441816 12.4549 16.2356 16.5945 16.7144 1.57286 1.11736 61.9995
11441818 12.4549 16.2356 16.5945 16.7144 1.57286 1.11736 61.9995
11441825 12.4813 16.2356 16.6153 16.7335 1.55983 1.1194 62.0658
11441837 12.4813 16.2356 16.6153 16.7335 1.55983 1.1194 62.0658
11441845 12.4285 16.2172 16.5945 16.6669 1.55922 1.11836 61.9071
11441862 12.4285 16.2449 16.5737 16.724 1.60019 1.11931 61.971
11441871 12.4285 16.2449 16.5737 16.724 1.60019 1.11931 61.971
11441889 12.5342 16.2264 16.5841 16.6573 1.51829 1.08403 62.0021
11441890 12.4461 16.1988 16.5529 16.6002 1.53727 1.09426 61.7981
11441896 12.4461 16.1988 16.5529 16.6002 1.53727 1.09426 61.7981
11441909 12.4109 16.2356 16.5113 16.6669 1.60951 1.09948 61.8247
11441916 12.4109 16.2356 16.5113 16.6669 1.60951 1.09948 61.8247
11441926 12.4109 16.2633 16.5425 16.5812 1.57411 1.08003 61.7978
11441936 12.499 16.2909 16.4801 16.6288 1.59155 1.04664 61.8988
11441947 12.499 16.2909 16.4801 16.6288 1.59155 1.04664 61.8988
11441957 12.4725 16.3185 16.4905 16.5717 1.58728 1.03579 61.8533
11441970 12.5078 16.3738 16.4489 16.6097 1.62529 1.01157 61.9402
11441977 12.5078 16.3738 16.4489 16.6097 1.62529 1.01157 61.9402
11441987 12.5166 16.4106 16.4177 16.5812 1.63804 0.986272 61.9261
11442007 12.587 16.4475 16.3554 16.4955 1.61613 0.925028 61.8854
11442017 12.6135 16.4935 16.2514 16.4574 1.65253 0.874014 61.8158
11442027 12.6135 16.4935 16.2514 16.4574 1.65253 0.874014 61.8158
11442037 12.6311 16.5395 16.1682 16.2956 1.63703 0.801467 61.6345
11442047 12.6487 16.5395 16.1786 16.2956 1.62493 0.799347 61.6625
11442057 12.6487 16.5303 16.1786 16.2766 1.61421 0.797321 61.6342
11442067 12.7016 16.5764 16.1474 16.3147 1.63674 0.773599 61.74
11442087 12.7544 16.6501 16.0954 16.2195 1.62823 0.70734 61.7194
11442097 12.8249 16.5948 16.137 16.229 1.56263 0.715295 61.7857
11442108 12.8249 16.5948 16.137 16.229 1.56263 0.715295 61.7857
11442121 12.8425 16.7606 16.1266 16.1148 1.57906 0.639912 61.8444
11442128 12.9482 16.6777 16.1162 16.1719 1.5284 0.644985 61.914
11442139 12.9482 16.6777 16.1162 16.1719 1.5284 0.644985 61.914
11442148 12.9306 16.7329 16.0434 16.0957 1.55927 0.600861 61.8027
11442169 13.001 16.7606 15.9291 16.0196 1.55974 0.53161 61.7102
11442178 13.0187 16.7606 15.9394 16.0577 1.56214 0.538532 61.7763
11442190 13.0187 16.7606 15.9394 16.0577 1.56214 0.538532 61.7763
11442198 13.0715 16.7974 15.8875 16.0577 1.57574 0.503826 61.814
11442208 13.0451 16.8342 15.9291 15.953 1.54347 0.486397 61.7613
11442221 13.0451 16.8342 15.9291 15.953 1.54347 0.486397 61.7613
11442230 13.0803 16.7882 15.8459 16.0386 1.57913 0.489694 61.753
11442250 12.9834 16.7053 15.8875 16.0196 1.56424 0.540215 61.5958
11442260 13.0451 16.7514 15.9291 16.0577 1.55175 0.531768 61.7832
11442281 13.0363 16.825 15.8667 16.0386 1.6031 0.496384 61.7666
11442291 13.0715 16.8434 15.9394 16.0101 1.55282 0.493315 61.8645
11442302 13.0715 16.8434 15.9394 16.0101 1.55282 0.493315 61.8645
11442311 13.0715 16.8619 15.8771 16.0577 1.60461 0.485233 61.8681
11442331 13.0539 16.8158 15.8979 16.0482 1.58221 0.50383 61.8157
11442343 13.0363 16.7882 15.9291 16.0482 1.56591 0.522498 61.8017
11442351 13.0363 16.7882 15.9291 16.0482 1.56591 0.522498 61.8017
11442365 12.957 16.7974 15.8771 16.1624 1.66914 0.554677 61.7938
11442371 12.913 16.8158 15.8667 16.1909 1.71038 0.565374 61.7864
11442392 12.9218 16.8158 15.8979 16.21 1.70028 0.57488 61.8454
11442402 12.9218 16.8158 15.8979 16.21 1.70028 0.57488 61.8454
11442412 12.8953 16.7974 15.8771 16.2004 1.71015 0.579107 61.7702
11442423 12.8777 16.8066 15.8667 16.2195 1.73291 0.583246 61.7705
11442443 12.8689 16.825 15.8875 16.2004 1.72749 0.581231 61.7818
11442454 12.8865 16.7421 15.9083 16.2671 1.70476 0.618079 61.804
11442463 12.8865 16.7421 15.9083 16.2671 1.70476 0.618079 61.804
11442475 12.9041 16.8342 15.9083 16.2385 1.72108 0.583758 61.8852
11442483 12.913 16.7974 15.9498 16.248 1.68905 0.602714 61.9082
11442510 12.8337 16.8434 15.9706 16.2766 1.74234 0.622562 61.9244
11442527 12.8953 16.8619 15.8563 16.2671 1.76846 0.573558 61.8805
11442535 12.8601 16.779 15.9083 16.2195 1.71213 0.604366 61.7668
11442555 12.8865 16.7974 15.8563 16.2004 1.72295 0.576473 61.7406
11442565 12.8425 16.825 15.7523 16.229 1.80833 0.562974 61.6488
11442576 12.8425 16.825 15.7523 16.229 1.80833 0.562974 61.6488
11442586 12.8689 16.8711 15.8979 16.21 1.74391 0.574275 61.8478
11442596 12.8689 16.8711 15.8979 16.21 1.74391 0.574275 61.8478
11442609 12.8777 16.8619 15.8563 16.229 1.76178 0.569113 61.8249
11442616 12.8953 16.8619 15.8667 16.1529 1.721 0.549315 61.7767
11442625 12.8953 16.8619 15.8667 16.1529 1.721 0.549315 61.7767
11442636 12.913 16.8803 15.7419 16.1529 1.77436 0.511002 61.688
11442646 12.957 16.8711 15.7211 16.1148 1.74647 0.488411 61.6639
11442657 12.957 16.8711 15.7211 16.1148 1.74647 0.488411 61.6639
11442666 13.0187 16.8895 15.7627 16.1624 1.72663 0.489281 61.8332
11442678 12.9834 16.8342 15.7523 16.0957 1.7004 0.493884 61.6657
11442687 12.9834 16.8342 15.7523 16.0957 1.7004 0.493884 61.6657
11442698 12.9834 16.954 15.8771 16.1433 1.70955 0.504302 61.9578
11442707 12.9834 16.954 15.8771 16.1433 1.70955 0.504302 61.9578
11442720 12.9834 16.9447 15.7731 16.1909 1.76887 0.493403 61.8922
11442727 13.001 16.8527 15.8563 16.1909 1.69072 0.531537 61.9009
11442743 13.001 16.8527 15.8563 16.1909 1.69072 0.531537 61.9009
11442747 12.9306 16.8619 15.8875 16.229 1.72545 0.563094 61.9089
11442757 12.8513 16.7882 15.9914 16.3052 1.71573 0.643512 61.9361
11442768 12.8513 16.7882 15.9914 16.3052 1.71573 0.643512 61.9361
11442777 12.8425 16.6685 16.0538 16.2766 1.63675 0.683879 61.8414
11442788 12.8425 16.6685 16.0538 16.2766 1.63675 0.683879 61.8414
11442797 12.7896 16.6501 16.033 16.3242 1.67952 0.708171 61.7969
11442811 12.6927 16.5303 16.1786 16.4099 1.64567 0.816684 61.8115
11442817 12.6927 16.5303 16.1786 16.4099 1.64567 0.816684 61.8115
11442835 12.6399 16.5672 16.2202 16.4955 1.69671 0.849922 61.9228
11442837 12.6399 16.5672 16.2202 16.4955 1.69671 0.849922 61.9228
11442848 12.543 16.3922 16.345 16.6002 1.65823 0.972029 61.8804
11442859 12.543 16.2633 16.4489 16.6954 1.60077 1.05037 61.9506
11442868 12.543 16.2633 16.4489 16.6954 1.60077 1.05037 61.9506
11442878 12.4021 16.1067 16.6049 16.7716 1.5639 1.17984 61.8852
11442888 12.3404 16.0607 16.7193 16.8858 1.56709 1.2589 62.0061
11442898 12.3404 16.0607 16.7193 16.8858 1.56709 1.2589 62.0061
11442908 12.358 16.0423 16.792 17.0195 1.57191 1.30472 62.2118
11442920 12.3052 15.8673 16.8336 17 1.50326 1.36951 62.0061
11442930 12.3052 15.8673 16.8336 17 1.50326 1.36951 62.0061
11442943 12.314 15.9317 16.8544 16.981 1.50782 1.35057 62.0811
11442950 12.314 15.9317 16.8544 16.981 1.50782 1.35057 62.0811
11442960 12.3052 15.8212 16.8544 17 1.47692 1.38624 61.9809
11442970 12.314 15.8673 16.844 16.9334 1.46978 1.35481 61.9587
11442980 12.314 15.8673 16.844 16.9334 1.46978 1.35481 61.9587
11442990 12.358 15.9041 16.7505 16.9143 1.49772 1.30863 61.9269
11443000 12.3404 15.9041 16.7401 16.9143 1.50971 1.31098 61.8989
11443010 12.3404 15.9502 16.7401 16.8001 1.48381 1.27354 61.8307
11443020 12.358 15.8949 16.7297 16.8667 1.48504 1.29592 61.8493
11443040 12.358 15.9317 16.7297 16.8382 1.48819 1.27989 61.8576
11443050 12.358 15.941 16.7713 16.7906 1.45579 1.27614 61.8608
11443061 12.358 15.941 16.7713 16.7906 1.45579 1.27614 61.8608
11443071 12.3845 15.9778 16.7817 16.8001 1.45769 1.26393 61.944
11443081 12.4109 15.987 16.7297 16.7525 1.45401 1.23246 61.8801
11443101 12.499 15.987 16.7817 16.6669 1.36161 1.20189 61.9345
11443122 12.4902 16.0423 16.7297 16.6573 1.40496 1.17603 61.9194
11443131 12.5782 16.1251 16.6985 16.5526 1.3724 1.10107 61.9545
11443141 12.5782 16.1251 16.6985 16.5526 1.3724 1.10107 61.9545
11443151 12.5694 16.1712 16.5633 16.5431 1.44775 1.05885 61.847
11443168 12.6135 16.162 16.5841 16.4194 1.36931 1.02657 61.7789
11443172 12.6135 16.162 16.5841 16.4194 1.36931 1.02657 61.7789
11443182 12.6575 16.208 16.5217 16.4765 1.41653 1.00204 61.8637
11443192 12.6575 16.208 16.5217 16.4765 1.41653 1.00204 61.8637
11443202 12.6487 16.2356 16.5113 16.4765 1.43526 0.994822 61.8721
11443212 12.6575 16.2541 16.5217 16.4099 1.40868 0.975046 61.8431
11443222 12.6575 16.2541 16.5217 16.4099 1.40868 0.975046 61.8431
11443232 12.7632 16.3185 16.4697 16.4765 1.43568 0.934532 62.0279
11443242 12.6663 16.3277 16.5113 16.3908 1.43018 0.947088 61.8962
11443253 12.6663 16.3277 16.5113 16.3908 1.43018 0.947088 61.8962
11443262 12.7192 16.3646 16.4385 16.3242 1.42735 0.892283 61.8465
11443274 12.7192 16.3646 16.4385 16.3242 1.42735 0.892283 61.8465
11443282 12.7368 16.3277 16.3865 16.3337 1.43163 0.887532 61.7848
11443293 12.728 16.3738 16.3761 16.3527 1.46464 0.879934 61.8307
11443313 12.7984 16.4198 16.3969 16.3337 1.43592 0.850469 61.9489
11443323 12.7456 16.4659 16.3242 16.2766 1.48543 0.822478 61.8122
11443334 12.7456 16.4659 16.3242 16.2766 1.48543 0.822478 61.8122
11443343 12.8073 16.5119 16.3969 16.3337 1.46714 0.824695 62.0498
11443354 12.8073 16.5119 16.3969 16.3337 1.46714 0.824695 62.0498
11443363 12.7896 16.4935 16.2514 16.248 1.4974 0.78087 61.7826
11443376 12.772 16.5764 16.293 16.2385 1.515 0.771595 61.8799
11443383 12.772 16.5764 16.293 16.2385 1.515 0.771595 61.8799
11443397 12.8161 16.5211 16.2202 16.3052 1.53163 0.773039 61.8625
11443403 12.8073 16.5395 16.241 16.3147 1.53709 0.777558 61.9024
11443413 12.8073 16.5395 16.241 16.3147 1.53709 0.777558 61.9024
11443423 12.772 16.4935 16.2306 16.3242 1.54281 0.7981 61.8203
11443443 12.7896 16.5303 16.1682 16.3242 1.57602 0.769849 61.8124
11443453 12.8161 16.5948 16.2514 16.3052 1.54618 0.761447 61.9674
11443464 12.8161 16.5948 16.2514 16.3052 1.54618 0.761447 61.9674
11443473 12.8073 16.5488 16.1994 16.3813 1.58364 0.780963 61.9367
11443493 12.7456 16.5672 16.189 16.3718 1.61796 0.787413 61.8735
11443505 12.7192 16.5211 16.1786 16.3718 1.6164 0.803538 61.7907
11443513 12.7192 16.5211 16.1786 16.3718 1.6164 0.803538 61.7907
11443526 12.6751 16.558 16.2202 16.4194 1.64936 0.825841 61.8727
11443533 12.7016 16.4475 16.2202 16.3718 1.57816 0.836468 61.741
11443548 12.7016 16.4475 16.2202 16.3718 1.57816 0.836468 61.741
11443555 12.6751 16.4935 16.2306 16.4574 1.63493 0.85344 61.8567
11443565 12.6751 16.4935 16.2306 16.4574 1.63493 0.85344 61.8567
11443575 12.6751 16.4475 16.2098 16.3908 1.60124 0.845228 61.7232
11443589 12.7016 16.4935 16.241 16.4289 1.60829 0.842516 61.8649
11443595 12.7016 16.4935 16.241 16.4289 1.60829 0.842516 61.8649
11443605 12.6663 16.4106 16.2826 16.4955 1.59941 0.89754 61.855
11443615 12.6487 16.4014 16.2722 16.5622 1.63316 0.917242 61.8844
11443635 12.6487 16.429 16.345 16.5526 1.60871 0.924523 61.9753
11443646 12.5694 16.4198 16.3865 16.5717 1.6286 0.961046 61.9475
11443666 12.6135 16.3738 16.345 16.6383 1.63531 0.967235 61.9705
11443676 12.6135 16.3738 16.345 16.6383 1.63531 0.967235 61.9705
11443687 12.6047 16.3646 16.345 16.6478 1.63922 0.974032 61.962
11443697 12.587 16.383 16.3657 16.5907 1.62326 0.965601 61.9265
11443707 12.587 16.383 16.3657 16.5907 1.62326 0.965601 61.9265
11443718 12.587 16.3922 16.2826 16.5717 1.65536 0.940023 61.8335
11443727 12.5782 16.3369 16.2722 16.5336 1.62835 0.945525 61.7209
11443747 12.6223 16.3185 16.3554 16.5241 1.56299 0.955664 61.8202
11443759 12.6223 16.3185 16.3554 16.5241 1.56299 0.955664 61.8202
11443767 12.5342 16.3554 16.2826 16.5431 1.65344 0.956683 61.7152
11443781 12.5342 16.4198 16.3554 16.4955 1.62843 0.945763 61.8049
11443812 12.5606 16.383 16.3034 16.6002 1.66509 0.960426 61.8472
11443813 12.5342 16.3922 16.3242 16.6097 1.67457 0.971748 61.8603
11443828 12.587 16.3738 16.345 16.6954 1.66819 0.986965 62.0012
11443847 12.5518 16.383 16.2514 16.6097 1.69491 0.953051 61.7959
11443860 12.6399 16.4106 16.3138 16.6573 1.65842 0.948198 62.0216
11443869 12.6399 16.4106 16.3138 16.6573 1.65842 0.948198 62.0216
11443879 12.6135 16.4198 16.2722 16.6288 1.6804 0.936713 61.9342
11443890 12.6047 16.4659 16.1994 16.5431 1.70067 0.891066 61.813
11443898 12.6047 16.4659 16.1994 16.5431 1.70067 0.891066 61.813
11443912 12.6047 16.4106 16.1682 16.5717 1.70408 0.90468 61.7551
11443928 12.5342 16.4475 16.2098 16.5526 1.72328 0.918492 61.7441
11443938 12.5694 16.4106 16.241 16.6002 1.69862 0.936851 61.8213
11443948 12.5694 16.4106 16.241 16.6002 1.69862 0.936851 61.8213
11443958 12.5694 16.4751 16.2202 16.5622 1.71755 0.906844 61.8268
11443970 12.587 16.383 16.2098 16.5622 1.67969 0.923658 61.742
11443981 12.587 16.383 16.2098 16.5622 1.67969 0.923658 61.742
11443990 12.587 16.4567 16.2826 16.5812 1.68325 0.925586 61.9075
11444010 12.5694 16.4843 16.293 16.5526 1.68602 0.918882 61.8993
11444023 12.5959 16.4382 16.3554 16.6097 1.65195 0.951061 61.9992
11444031 12.5959 16.4382 16.3554 16.6097 1.65195 0.951061 61.9992
11444045 12.5518 16.4475 16.2826 16.5812 1.69498 0.937026 61.863
11444051 12.5606 16.4382 16.2514 16.5907 1.70476 0.9322 61.841
11444061 12.5606 16.4382 16.2514 16.5907 1.70476 0.9322 61.841
11444071 12.543 16.429 16.3034 16.6288 1.70079 0.959573 61.9042
11444091 12.543 16.429 16.2098 16.6383 1.7448 0.940481 61.8201
11444102 12.543 16.4106 16.2514 16.6573 1.72705 0.959004 61.8623
11444112 12.543 16.4106 16.2514 16.6573 1.72705 0.959004 61.8623
11444121 12.587 16.3646 16.3242 16.6288 1.64856 0.969554 61.9046
11444133 12.5606 16.4014 16.293 16.6478 1.69444 0.964111 61.9028
11444142 12.5606 16.4014 16.293 16.6478 1.69444 0.964111 61.9028
11444153 12.5518 16.3646 16.3346 16.6478 1.66644 0.985315 61.8988
11444161 12.5518 16.3646 16.3346 16.6478 1.66644 0.985315 61.8988
11444174 12.5342 16.4014 16.2722 16.6478 1.71482 0.966212 61.8556
11444181 12.5959 16.429 16.3242 16.6288 1.66906 0.950673 61.9778
11444196 12.5959 16.429 16.3242 16.6288 1.66906 0.950673 61.9778
11444205 12.5959 16.4198 16.3242 16.6097 1.65843 0.948728 61.9496
11444212 12.5166 16.3462 16.345 16.7049 1.69172 1.01445 61.9126
11444232 12.543 16.3554 16.3657 16.5812 1.62817 0.981942 61.8453
11444242 12.499 16.3554 16.3657 16.5812 1.64715 0.993333 61.8013
11444255 12.499 16.3093 16.3657 16.6764 1.6657 1.02679 61.8504
11444263 12.5518 16.3922 16.3554 16.6764 1.67865 0.989349 61.9757
11444283 12.5078 16.3369 16.3865 16.6764 1.66337 1.02206 61.9076
11444293 12.4725 16.3277 16.345 16.6573 1.68584 1.01987 61.8026
11444305 12.4725 16.3277 16.345 16.6573 1.68584 1.01987 61.8026
11444315 12.4813 16.2909 16.4281 16.7335 1.66101 1.06308 61.9339
11444326 12.4637 16.2449 16.4593 16.7049 1.62702 1.0802 61.8728
11444335 12.4637 16.2449 16.4593 16.7049 1.62702 1.0802 61.8728
11444347 12.4902 16.2817 16.4385 16.7049 1.6385 1.0591 61.9153
11444356 12.4902 16.2817 16.4385 16.7049 1.6385 1.0591 61.9153
11444367 12.4549 16.2172 16.4905 16.7335 1.61773 1.1031 61.8962
11444375 12.4285 16.2725 16.5217 16.8096 1.66522 1.11966 62.0323
11444385 12.4285 16.2725 16.5217 16.8096 1.66522 1.11966 62.0323
11444395 12.4461 16.2817 16.5113 16.762 1.64767 1.09971 62.0012
11444405 12.4285 16.1804 16.4697 16.6954 1.60973 1.10635 61.774
11444431 12.499 16.2909 16.5113 16.743 1.62127 1.07934 62.0442
11444448 12.4285 16.2449 16.5321 16.7716 1.63601 1.12065 61.977
11444455 12.499 16.2817 16.4593 16.7049 1.62577 1.06149 61.9449
11444466 12.499 16.2817 16.4593 16.7049 1.62577 1.06149 61.9449
11444476 12.4725 16.2264 16.5321 16.7049 1.58499 1.09905 61.936
11444488 12.4725 16.2449 16.5321 16.724 1.59914 1.09854 61.9735
11444509 12.4637 16.2633 16.5633 16.6859 1.58211 1.0945 61.9762
11444531 12.4197 16.1896 16.5529 16.6383 1.55958 1.11211 61.8005
11444536 12.3845 16.1712 16.6465 16.6478 1.53115 1.14923 61.8499
11444546 12.3845 16.1712 16.6465 16.6478 1.53115 1.14923 61.8499
11444556 12.4813 16.1528 16.6153 16.6859 1.51046 1.13031 61.9353
11444567 12.4373 16.1436 16.6569 16.6859 1.50801 1.1535 61.9236
11444577 12.4373 16.1436 16.6569 16.6859 1.50801 1.1535 61.9236
11444587 12.3492 16.1528 16.6881 16.743 1.55751 1.19381 61.9331
11444598 12.3492 16.1528 16.6881 16.743 1.55751 1.19381 61.9331
11444607 12.3845 16.1159 16.7193 16.7811 1.52953 1.20965 62.0007
11444617 12.3845 16.0883 16.7609 16.7335 1.48323 1.21554 61.9671
11444639 12.3492 16.1343 16.6985 16.8191 1.57489 1.21789 62.0012
11444647 12.4021 16.0699 16.7401 16.743 1.48121 1.21325 61.955
11444667 12.4197 16.1251 16.7609 16.724 1.47855 1.19459 62.0296
11444677 12.4197 16.1251 16.7609 16.724 1.47855 1.19459 62.0296
11444687 12.3668 16.0791 16.5737 16.6764 1.54586 1.16802 61.696
11444697 12.3933 16.0975 16.6881 16.6478 1.48155 1.17549 61.8267
11444708 12.3933 16.0975 16.6881 16.6478 1.48155 1.17549 61.8267
11444717 12.4725 16.1528 16.5945 16.6383 1.50507 1.11727 61.8581
11444727 12.4725 16.1528 16.6985 16.6383 1.46059 1.14057 61.9621
11444737 12.3933 16.1159 16.6985 16.6764 1.49496 1.17938 61.884
11444750 12.4373 16.1067 16.7297 16.7144 1.47375 1.18573 61.9881
11444757 12.4373 16.1067 16.7297 16.7144 1.47375 1.18573 61.9881
11444767 12.358 16.1804 16.6361 16.6383 1.54684 1.14927 61.8128
11444777 12.4285 16.1067 16.6361 16.6954 1.51032 1.16289 61.8667
11444787 12.4285 16.1067 16.6361 16.6954 1.51032 1.16289 61.8667
11444798 12.4461 16.1528 16.6257 16.743 1.54273 1.15459 61.9676
11444807 12.4461 16.1528 16.6257 16.743 1.54273 1.15459 61.9676
11444819 12.4902 16.1988 16.6257 16.6764 1.51608 1.11624 61.991
11444827 12.5078 16.1804 16.5945 16.7525 1.54374 1.1265 62.0352
11444842 12.5078 16.1804 16.5945 16.7525 1.54374 1.1265 62.0352
11444849 12.4637 16.2449 16.4905 16.7144 1.61719 1.08935 61.9136
11444857 12.4549 16.1988 16.5633 16.6859 1.5615 1.11355 61.9029
11444881 12.4549 16.1988 16.5633 16.6859 1.5615 1.11355 61.9029
11444887 12.4725 16.2356 16.5113 16.6478 1.57579 1.07915 61.8673
11444888 12.4725 16.2356 16.5113 16.6478 1.57579 1.07915 61.8673
11444898 12.5166 16.2449 16.5009 16.6669 1.57204 1.06727 61.9292
11444910 12.4813 16.3001 16.5217 16.6573 1.59553 1.06461 61.9605
11444933 12.5254 16.2725 16.4385 16.6097 1.58389 1.03088 61.8461
11444939 12.5342 16.2725 16.4801 16.5812 1.55143 1.03154 61.868
11444950 12.5342 16.2725 16.4801 16.5812 1.55143 1.03154 61.868
11444960 12.5782 16.2541 16.4489 16.5717 1.53532 1.01571 61.8529
11444971 12.5078 16.3554 16.3761 16.5336 1.62087 0.982618 61.7729
11444980 12.5078 16.3554 16.3761 16.5336 1.62087 0.982618 61.7729
11444990 12.5782 16.3738 16.3865 16.5622 1.60384 0.96849 61.9007
11445003 12.5782 16.3738 16.3865 16.5622 1.60384 0.96849 61.9007
11445011 12.6487 16.3554 16.4073 16.4099 1.49996 0.925196 61.8213
11445025 12.6047 16.4014 16.293 16.5146 1.62518 0.92248 61.8136
11445041 12.6047 16.5119 16.3138 16.4574 1.6364 0.885787 61.8878
11445052 12.6927 16.4567 16.241 16.4289 1.59814 0.854212 61.8193
11445061 12.6927 16.4567 16.241 16.4289 1.59814 0.854212 61.8193
11445082 12.6487 16.5119 16.241 16.3813 1.62 0.84044 61.7829
11445092 12.6487 16.5119 16.241 16.3813 1.62 0.84044 61.7829
11445115 12.6927 16.5948 16.2202 16.4479 1.66643 0.818465 61.9557
11445120 12.7456 16.5948 16.1578 16.3527 1.63463 0.768821 61.8509
11445122 12.7456 16.5948 16.1578 16.3527 1.63463 0.768821 61.8509
11445132 12.7896 16.6224 16.1474 16.2861 1.60541 0.732821 61.8456
11445143 12.7896 16.6224 16.1474 16.2861 1.60541 0.732821 61.8456
11445153 12.8249 16.6316 16.1058 16.229 1.59001 0.698717 61.7913
11445166 12.772 16.6685 16.1266 16.3432 1.6609 0.733967 61.9103
11445173 12.772 16.6685 16.1266 16.3432 1.6609 0.733967 61.9103
11445187 12.8513 16.6501 16.137 16.2671 1.58663 0.703347 61.9054
11445194 12.8513 16.6501 16.137 16.2671 1.58663 0.703347 61.9054
11445210 12.7984 16.7237 16.0954 16.21 1.63351 0.675235 61.8276
11445215 12.772 16.6316 16.0642 16.2671 1.64512 0.711342 61.735
11445236 12.7984 16.7053 16.085 16.2861 1.65979 0.695123 61.8749
11445245 12.8073 16.6593 16.0122 16.2766 1.6664 0.685521 61.7553
11445258 12.8073 16.6593 16.0122 16.2766 1.6664 0.685521 61.7553
11445266 12.8513 16.6777 16.1266 16.2956 1.61232 0.700534 61.9512
11445285 12.8337 16.6593 16.0954 16.2861 1.62275 0.700269 61.8745
11445295 12.8161 16.7145 16.0746 16.21 1.6314 0.668283 61.8152
11445307 12.8161 16.7145 16.0746 16.21 1.6314 0.668283 61.8152
11445316 12.8073 16.6685 16.0122 16.2195 1.64829 0.669934 61.7074
11445328 12.8777 16.6685 16.0434 16.248 1.61527 0.665925 61.8377
11445351 12.8689 16.6961 16.0434 16.1719 1.60069 0.643483 61.7803
11445356 12.8689 16.6961 16.0434 16.1719 1.60069 0.643483 61.7803
11445367 12.7896 16.6501 16.0434 16.2671 1.65346 0.697362 61.7502
11445377 12.8337 16.7145 16.085 16.2385 1.63013 0.672845 61.8717
11445387 12.8337 16.7145 16.085 16.2385 1.63013 0.672845 61.8717
11445398 12.7456 16.6408 16.0226 16.2861 1.68519 0.710503 61.6952
11445407 12.7544 16.6224 16.0746 16.3718 1.68431 0.74476 61.8232
11445419 12.7544 16.6224 16.0746 16.3718 1.68431 0.74476 61.8232
11445427 12.7984 16.6593 16.0746 16.3527 1.67203 0.719798 61.8851
11445447 12.7808 16.6685 16.0746 16.3718 1.69027 0.726324 61.8957
11445457 12.7896 16.6593 16.0226 16.3813 1.70901 0.716627 61.8528
11445468 12.7896 16.6593 16.0226 16.3813 1.70901 0.716627 61.8528
11445477 12.772 16.6501 16.0018 16.3813 1.72214 0.718642 61.8052
11445488 12.7368 16.6316 15.9706 16.3527 1.73319 0.718482 61.6918
11445511 12.772 16.6501 16.0642 16.3718 1.69161 0.730848 61.8581
11445518 12.7192 16.6593 16.137 16.3337 1.67213 0.749958 61.8491
11445538 12.7632 16.6593 16.0122 16.3623 1.71776 0.716545 61.797
11445548 12.7632 16.6593 16.0122 16.3623 1.71776 0.716545 61.797
11445560 12.728 16.6408 16.0434 16.3527 1.70897 0.735208 61.765
11445571 12.7544 16.6777 16.033 16.3052 1.69799 0.705703 61.7703
11445580 12.7544 16.6777 16.033 16.3052 1.69799 0.705703 61.7703
11445590 12.7632 16.6961 15.9498 16.3242 1.74429 0.683922 61.7333
11445601 12.7896 16.7421 15.9602 16.3718 1.76357 0.678969 61.8638
11445611 12.7896 16.7421 15.9602 16.3718 1.76357 0.678969 61.8638
11445624 12.8073 16.7053 16.0018 16.3623 1.72055 0.691262 61.8767
11445631 12.8073 16.7053 16.0018 16.3623 1.72055 0.691262 61.8767
11445646 12.8249 16.6961 15.9602 16.3813 1.73461 0.683913 61.8625
11445651 12.7896 16.7053 16.0122 16.3242 1.70934 0.689328 61.8314
11445661 12.7896 16.7053 16.0122 16.3242 1.70934 0.689328 61.8314
11445672 12.7984 16.7606 15.9602 16.2861 1.73447 0.652211 61.8054
11445681 12.772 16.8066 15.981 16.3147 1.76495 0.658693 61.8743
11445692 12.772 16.8066 15.981 16.3147 1.76495 0.658693 61.8743
11445701 12.7896 16.7329 15.9602 16.248 1.71353 0.652603 61.7309
11445729 12.8073 16.7237 15.9394 16.2956 1.72937 0.656698 61.7661
11445734 12.8073 16.7237 15.9394 16.2956 1.72937 0.656698 61.7661
11445736 12.7544 16.7329 16.0226 16.2671 1.70896 0.680439 61.777
11445743 12.7544 16.7329 16.0226 16.2671 1.70896 0.680439 61.777
11445756 12.7808 16.7329 16.0122 16.2576 1.69844 0.669115 61.7836
11445764 12.7632 16.7514 15.9602 16.3147 1.757 0.670102 61.7895
11445772 12.7632 16.7514 15.9602 16.3147 1.757 0.670102 61.7895
11445784 12.8161 16.779 15.9914 16.2861 1.72031 0.65033 61.8726
11445794 12.7896 16.6408 16.0122 16.3908 1.71016 0.721107 61.8335
11445813 12.8513 16.6777 16.033 16.3052 1.65617 0.681106 61.8672
11445835 12.7016 16.7606 16.0226 16.3432 1.77088 0.704473 61.828
11445845 12.7896 16.6685 16.033 16.3337 1.69006 0.705693 61.8248
11445855 12.7896 16.6685 16.033 16.3337 1.69006 0.705693 61.8248
11445867 12.7456 16.7145 15.9706 16.2861 1.73551 0.679711 61.7169
11445875 12.8161 16.6869 16.0434 16.2576 1.65239 0.679089 61.8039
11445885 12.8161 16.6869 16.0434 16.2576 1.65239 0.679089 61.8039
11445902 12.772 16.7145 16.0122 16.2861 1.70607 0.682645 61.7849
11445905 12.772 16.7145 16.0122 16.2861 1.70607 0.682645 61.7849
11445916 12.7808 16.6961 16.0122 16.2671 1.68814 0.680671 61.7562
11445926 12.8513 16.7053 16.033 16.2385 1.64145 0.658668 61.8282
11445936 12.8513 16.7053 16.033 16.2385 1.64145 0.658668 61.8282
11445946 12.8601 16.6869 16.1058 16.3242 1.63172 0.697762 61.977
11445956 12.8073 16.7329 16.0954 16.2576 1.65116 0.681687 61.8932
11445966 12.8073 16.7329 16.0954 16.2576 1.65116 0.681687 61.8932
11445977 12.8249 16.6869 16.0642 16.2385 1.63243 0.677263 61.8145
11445987 12.8249 16.6869 16.0642 16.2385 1.63243 0.677263 61.8145
11445999 12.7896 16.6685 16.0746 16.248 1.63977 0.695495 61.7808
11446006 12.8777 16.7145 16.033 16.229 1.62995 0.647439 61.8543
11446018 12.8777 16.7145 16.033 16.229 1.62995 0.647439 61.8543
11446027 12.8425 16.6869 16.1578 16.2195 1.57741 0.690047 61.9067
11446038 12.8513 16.6593 16.1266 16.1624 1.55492 0.674379 61.7995
11446047 12.8513 16.6593 16.1266 16.1624 1.55492 0.674379 61.7995
11446058 12.8337 16.6869 16.137 16.1624 1.5685 0.67425 61.8199
11446067 12.8601 16.6869 16.0746 16.1624 1.58396 0.65308 61.784
11446079 12.8601 16.7237 16.0746 16.1624 1.59791 0.643753 61.8208
11446088 12.8513 16.6777 16.1682 16.1243 1.5296 0.670524 61.8215
11446107 12.8513 16.6777 16.1682 16.1243 1.5296 0.670524 61.8215
11446109 12.8513 16.6961 16.1474 16.0957 1.53468 0.654409 61.7905
11446118 12.9041 16.6869 16.1058 16.2195 1.57326 0.662409 61.9163
11446138 12.9218 16.7421 16.0642 16.1719 1.58646 0.623315 61.9
11446148 12.8689 16.6869 16.1786 16.1814 1.54274 0.679359 61.9158
11446160 12.8689 16.6869 16.1786 16.1814 1.54274 0.679359 61.9158
11446170 12.8513 16.6593 16.0954 16.1719 1.57194 0.669352 61.7779
11446190 12.8425 16.6316 16.1474 16.1814 1.54651 0.692854 61.8029
11446201 12.9041 16.6408 16.2202 16.0957 1.45983 0.671895 61.8609
11446210 12.9041 16.6408 16.2202 16.0957 1.45983 0.671895 61.8609
11446220 12.8777 16.6501 16.1682 16.0672 1.48605 0.657579 61.7632
11446231 12.9218 16.6685 16.1682 16.0767 1.47781 0.643972 61.8351
11446241 12.9218 16.6685 16.1682 16.0767 1.47781 0.643972 61.8351
11446251 12.8777 16.6869 16.137 16.0386 1.50259 0.634357 61.7402
11446262 12.8865 16.6869 16.2098 16.0386 1.46761 0.649043 61.8218
11446271 12.8865 16.6593 16.2098 16.1148 1.48607 0.673694 61.8704
11446284 12.8865 16.6132 16.2722 16.1624 1.45997 0.710785 61.9343
11446305 12.8953 16.5948 16.241 16.1338 1.45167 0.699425 61.8649
11446311 12.9041 16.5856 16.2514 16.1433 1.44358 0.70413 61.8844
11446331 12.8777 16.6316 16.2722 16.1148 1.45264 0.69736 61.8963
11446341 12.8777 16.6316 16.2722 16.1148 1.45264 0.69736 61.8963
11446351 12.7984 16.5764 16.2306 16.1243 1.48699 0.724139 61.7297
11446369 12.7808 16.5395 16.2826 16.2195 1.49446 0.771972 61.8224
11446371 12.7808 16.5395 16.2826 16.2195 1.49446 0.771972 61.8224
11446381 12.772 16.5211 16.3034 16.248 1.49317 0.79027 61.8446
11446393 12.772 16.5488 16.3242 16.2861 1.50921 0.796732 61.931
11446405 12.772 16.5488 16.3242 16.2861 1.50921 0.796732 61.931
11446412 12.7544 16.4659 16.4177 16.3052 1.45249 0.848182 61.9432
11446422 12.7104 16.4751 16.4385 16.3337 1.47677 0.868365 61.9577
11446433 12.7104 16.4751 16.4385 16.3337 1.47677 0.868365 61.9577
11446443 12.7192 16.4014 16.5321 16.4194 1.43765 0.925757 62.0721
11446455 12.7192 16.4014 16.5321 16.4194 1.43765 0.925757 62.0721
11446463 12.6751 16.3646 16.4281 16.4289 1.49047 0.925087 61.8967
11446477 12.6223 16.3093 16.4801 16.4574 1.48069 0.971235 61.8692
11446493 12.6047 16.3277 16.5113 16.5241 1.50717 0.993177 61.9678
11446507 12.4902 16.3185 16.5841 16.5812 1.54317 1.05446 61.974
11446515 12.4902 16.3185 16.5841 16.5812 1.54317 1.05446 61.974
11446525 12.543 16.2356 16.5217 16.5717 1.51223 1.04605 61.872
11446545 12.4637 16.2172 16.5841 16.5812 1.51609 1.08762 61.8462
11446555 12.4373 16.1988 16.5737 16.6002 1.53213 1.10123 61.81
11446565 12.4373 16.1988 16.5737 16.6002 1.53213 1.10123 61.81
11446575 12.4109 16.1988 16.5529 16.6383 1.56685 1.112 61.8009
11446585 12.4197 16.162 16.5841 16.6669 1.54653 1.13273 61.8326
11446595 12.4197 16.162 16.5841 16.6669 1.54653 1.13273 61.8326
11446607 12.4109 16.2909 16.6361 16.6002 1.55161 1.09816 61.9381
11446615 12.4109 16.2909 16.6361 16.6002 1.55161 1.09816 61.9381
11446625 12.3933 16.2541 16.5529 16.6764 1.60976 1.11075 61.8766
11446635 12.4813 16.3277 16.6153 16.724 1.59098 1.0934 62.1483
11446646 12.4813 16.3277 16.6153 16.724 1.59098 1.0934 62.1483
11446655 12.5254 16.3738 16.5425 16.6002 1.57398 1.02598 62.0419
11446665 12.5342 16.4014 16.3969 16.6478 1.66104 0.994465 61.9804
11446675 12.5342 16.4014 16.3969 16.6478 1.66104 0.994465 61.9804
11446686 12.5078 16.383 16.4177 16.5907 1.63499 0.997835 61.8992
11446706 12.5166 16.4567 16.3761 16.505 1.64458 0.947696 61.8544
11446718 12.5078 16.4659 16.3034 16.4479 1.66167 0.918018 61.7249
11446727 12.5078 16.4659 16.3034 16.4479 1.66167 0.918018 61.7249
11446736 12.5606 16.4106 16.3138 16.3908 1.59181 0.907974 61.6758
11446748 12.587 16.4106 16.293 16.4289 1.60382 0.905108 61.7195
11446769 12.6047 16.4843 16.3657 16.505 1.62158 0.915554 61.9597
11446777 12.6047 16.4843 16.3657 16.505 1.62158 0.915554 61.9597
11446790 12.6399 16.4751 16.3554 16.5431 1.62181 0.915163 62.0134
11446797 12.6575 16.4567 16.3242 16.5146 1.60991 0.901784 61.9529
11446807 12.6575 16.4567 16.3242 16.5146 1.60991 0.901784 61.9529
11446816 12.6399 16.5488 16.3554 16.4955 1.63163 0.885458 62.0395
11446827 12.6839 16.5119 16.2514 16.467 1.63273 0.853395 61.9142
11446846 12.6927 16.558 16.241 16.4574 1.64719 0.834809 61.9491
11446867 12.6575 16.5764 16.1786 16.505 1.7141 0.835726 61.9175
11446877 12.6751 16.5764 16.1682 16.3908 1.66795 0.802655 61.8105
11446897 12.7192 16.5672 16.1266 16.3718 1.65623 0.779815 61.7847
11446907 12.6751 16.4935 16.1162 16.3718 1.65187 0.807543 61.6566
11446920 12.6751 16.4935 16.1162 16.3718 1.65187 0.807543 61.6566
11446931 12.6927 16.558 16.2098 16.4194 1.64625 0.818954 61.8799
11446937 12.6927 16.558 16.2098 16.4194 1.64625 0.818954 61.8799
11446947 12.6487 16.5856 16.1474 16.4289 1.70617 0.811027 61.8106
11446959 12.6311 16.6132 16.1578 16.5336 1.75905 0.834838 61.9357
11446981 12.6575 16.6316 16.1474 16.505 1.74832 0.814467 61.9416
11446990 12.6575 16.604 16.1266 16.4479 1.72546 0.80366 61.8361
11447002 12.6575 16.604 16.1266 16.4479 1.72546 0.80366 61.8361
11447010 12.6223 16.6408 16.1578 16.4574 1.74464 0.812591 61.8784
11447024 12.6223 16.6408 16.1578 16.4574 1.74464 0.812591 61.8784
11447031 12.5782 16.558 16.1058 16.505 1.77294 0.844084 61.7471
11447040 12.5782 16.604 16.1578 16.4955 1.76415 0.842008 61.8356
11447048 12.5782 16.604 16.1578 16.4955 1.76415 0.842008 61.8356
11447058 12.5959 16.5856 16.085 16.486 1.77755 0.823343 61.7525
11447068 12.587 16.6132 16.1266 16.486 1.77373 0.828068 61.8129
11447079 12.587 16.6132 16.1266 16.486 1.77373 0.828068 61.8129
11447089 12.6311 16.6224 16.2098 16.5146 1.73292 0.840016 61.9779
11447098 12.6311 16.6224 16.2098 16.5146 1.73292 0.840016 61.9779
11447111 12.5694 16.5027 16.1994 16.4765 1.70466 0.875428 61.748
11447118 12.5606 16.5856 16.1266 16.5717 1.80696 0.861529 61.8445
11447133 12.5606 16.5856 16.1266 16.5717 1.80696 0.861529 61.8445
11447138 12.587 16.558 16.2306 16.6288 1.76162 0.89857 62.0044
11447148 12.5606 16.5211 16.2306 16.5717 1.73776 0.901807 61.884
11447170 12.5518 16.4567 16.3138 16.5717 1.68141 0.93958 61.8939
11447180 12.5518 16.4567 16.3138 16.5717 1.68141 0.93958 61.8939
11447190 12.543 16.4382 16.2306 16.5812 1.71777 0.929843 61.793
11447200 12.4549 16.4382 16.3242 16.6764 1.7512 0.995423 61.8937
11447210 12.4549 16.4382 16.3242 16.6764 1.7512 0.995423 61.8937
11447223 12.4902 16.4475 16.3242 16.6383 1.72513 0.975325 61.9001
11447230 12.4902 16.4475 16.3242 16.6383 1.72513 0.975325 61.9001
11447245 12.4549 16.4475 16.3242 16.6859 1.75824 0.995196 61.9124
11447250 12.4725 16.3462 16.4073 16.6764 1.67306 1.03349 61.9024
11447270 12.4461 16.3646 16.3865 16.762 1.73257 1.05018 61.9593
11447280 12.4637 16.4014 16.4801 16.7811 1.70565 1.0614 62.1263
11447301 12.4725 16.3462 16.4073 16.7144 1.6874 1.04207 61.9405
11447311 12.3756 16.3277 16.4177 16.7525 1.73211 1.0829 61.8736
11447323 12.3756 16.3277 16.4177 16.7525 1.73211 1.0829 61.8736
11447330 12.3933 16.3093 16.4177 16.7811 1.72831 1.08953 61.9014
11447343 12.3933 16.3093 16.4177 16.7811 1.72831 1.08953 61.9014
11447352 12.4549 16.3462 16.3969 16.6859 1.68872 1.03785 61.8839
11447368 12.3404 16.2633 16.4697 16.7525 1.7006 1.12054 61.8259
11447371 12.3404 16.2633 16.4697 16.7525 1.7006 1.12054 61.8259
11447381 12.3845 16.3093 16.5113 16.7049 1.66309 1.09574 61.91
11447392 12.3933 16.2725 16.5633 16.743 1.6374 1.12322 61.9721
11447401 12.3933 16.2725 16.5633 16.743 1.6374 1.12322 61.9721
11447418 12.3228 16.2449 16.5529 16.8382 1.69763 1.16774 61.9587
11447421 12.3228 16.2449 16.5529 16.8382 1.69763 1.16774 61.9587
11447431 12.358 16.2264 16.5633 16.8477 1.67464 1.1678 61.9955
11447441 12.3845 16.1343 16.6049 16.8096 1.59633 1.18572 61.9333
11447467 12.3845 16.2264 16.6777 16.8191 1.60345 1.18003 62.1077
11447472 12.3845 16.162 16.6673 16.8858 1.60872 1.20934 62.0995
11447482 12.3845 16.162 16.6673 16.8858 1.60872 1.20934 62.0995
11447492 12.3228 16.1988 16.6049 16.8953 1.67941 1.20407 62.0218
11447502 12.3228 16.1988 16.6049 16.8953 1.67941 1.20407 62.0218
11447516 12.314 16.1436 16.6673 16.8382 1.61406 1.222 61.963
11447522 12.3052 16.1159 16.7505 16.7716 1.54652 1.23522 61.9431
11447532 12.3052 16.1159 16.7505 16.7716 1.54652 1.23522 61.9431
11447543 12.3756 16.1343 16.6985 16.8382 1.57076 1.21522 62.0466
11447555 12.3756 16.1343 16.6985 16.8382 1.57076 1.21522 62.0466
11447563 12.2788 16.033 16.6465 16.8096 1.58555 1.24927 61.7679
11447572 12.2435 16.0054 16.7609 16.8763 1.56631 1.30599 61.8861
11447587 12.2435 16.0054 16.7609 16.8763 1.56631 1.30599 61.8861
11447594 12.2788 16.0423 16.7609 16.8572 1.55793 1.28281 61.9391
11447604 12.358 16.0515 16.792 16.9239 1.53932 1.28122 62.1254
11447614 12.358 16.0515 16.792 16.9239 1.53932 1.28122 62.1254
11447623 12.2699 16.0146 16.8024 16.9334 1.56223 1.31841 62.0204
11447637 12.3052 15.9778 16.7193 16.9143 1.56165 1.29625 61.9166
11447643 12.3052 15.9778 16.7193 16.9143 1.56165 1.29625 61.9166
11447654 12.2964 16.0238 16.8232 16.9429 1.54909 1.31573 62.0863
11447664 12.2964 16.0238 16.8232 16.9429 1.54909 1.31573 62.0863
11447674 12.2699 16.033 16.7089 16.8763 1.58774 1.28025 61.8881
11447686 12.314 16.0238 16.6985 16.8096 1.54456 1.25399 61.8459
11447710 12.2876 16.0883 16.7401 16.7716 1.54806 1.24478 61.8875
11447715 12.4109 16.0238 16.7193 16.8096 1.49415 1.23319 61.9636
11447725 12.4109 16.0238 16.7193 16.8096 1.49415 1.23319 61.9636
11447736 12.3756 16.0975 16.6881 16.7335 1.52164 1.19923 61.8947
11447745 12.3756 16.0975 16.6881 16.7335 1.52164 1.19923 61.8947
11447759 12.3845 16.1436 16.6049 16.6954 1.55657 1.15779 61.8283
11447765 12.4461 16.1988 16.6361 16.7525 1.55929 1.14704 62.0335
11447775 12.4461 16.1988 16.6361 16.7525 1.55929 1.14704 62.0335
11447785 12.5078 16.2172 16.5425 16.6478 1.54032 1.0818 61.9153
11447795 12.5078 16.2172 16.4593 16.6478 1.57602 1.06307 61.8321
11447806 12.5342 16.2909 16.4593 16.6288 1.58535 1.03282 61.9132
11447815 12.543 16.3738 16.4177 16.5431 1.59838 0.980337 61.8776
11447835 12.5959 16.4106 16.3657 16.4289 1.5687 0.91944 61.8011
11447850 12.6575 16.4843 16.3034 16.3908 1.58251 0.861728 61.836
11447857 12.6575 16.4843 16.3034 16.3908 1.58251 0.861728 61.836
11447866 12.6927 16.5764 16.2306 16.3718 1.62629 0.808103 61.8715
11447876 12.6487 16.6224 16.1994 16.3052 1.65093 0.785117 61.7757
11447886 12.6487 16.6224 16.1994 16.3052 1.65093 0.785117 61.7757
11447896 12.7104 16.6501 16.1786 16.2956 1.64015 0.755357 61.8346
11447918 12.728 16.6593 16.1058 16.2766 1.66023 0.72734 61.7696
11447926 12.7632 16.7698 16.1266 16.229 1.65982 0.684122 61.8886
11447939 12.7632 16.7698 16.1266 16.229 1.65982 0.684122 61.8886
11447952 12.8161 16.779 16.1578 16.1909 1.61277 0.666819 61.9438
11447957 12.772 16.7606 16.0226 16.21 1.69022 0.655712 61.7652
11447977 12.7896 16.8711 15.9706 16.0862 1.70009 0.58237 61.7176
11447988 12.7896 16.8711 15.9706 16.0862 1.70009 0.58237 61.7176
11447997 12.8337 16.8434 16.0226 16.1148 1.65896 0.597017 61.8145
11448008 12.8689 16.9079 16.0122 16.0862 1.6618 0.562817 61.8753
11448017 12.8689 16.9079 16.0122 16.0862 1.6618 0.562817 61.8753
11448028 12.8337 16.8895 16.033 16.1053 1.66826 0.585612 61.8615
11448037 12.9041 16.9079 15.9602 16.0386 1.65106 0.530689 61.8109
11448049 12.9041 16.9079 15.9602 16.0386 1.65106 0.530689 61.8109
11448057 12.9746 17 15.8563 16.0101 1.68949 0.458856 61.841
11448069 12.9746 17 15.8563 16.0101 1.68949 0.458856 61.841
11448078 12.9218 16.9816 15.8147 15.9434 1.69822 0.451203 61.6615
11448090 12.8865 17.0973 15.8771 15.9339 1.72652 0.443535 61.7948
11448097 12.8865 17.0973 15.8771 15.9339 1.72652 0.443535 61.7948
11448108 12.9922 17.0584 15.8771 15.8483 1.63386 0.406651 61.7759
11448119 12.9746 17.0584 15.8355 15.8387 1.65581 0.398962 61.7072
11448141 13.0275 17.214 15.8147 15.9149 1.72932 0.360205 61.971
11448158 13.0275 17.214 15.8147 15.9149 1.72932 0.360205 61.971
11448167 13.0627 17.1362 15.7627 15.8007 1.66422 0.331396 61.7622
11448169 13.0539 17.1945 15.7627 15.8197 1.69723 0.323626 61.8308
11448178 13.0539 17.1945 15.7627 15.8197 1.69723 0.323626 61.8308
11448190 13.0363 17.3209 15.6899 15.7531 1.75883 0.263538 61.8002
11448200 13.0539 17.282 15.6379 15.734 1.75191 0.251842 61.7079
11448220 13.1508 17.3307 15.5651 15.7055 1.74903 0.191699 61.7521
11448232 13.1508 17.3307 15.5651 15.7055 1.74903 0.191699 61.7521
11448240 13.0979 17.3598 15.6483 15.6769 1.73613 0.210611 61.783
11448254 13.142 17.3501 15.6379 15.715 1.73225 0.20879 61.845
11448260 13.142 17.3501 15.6379 15.715 1.73225 0.20879 61.845
11448269 13.1155 17.3501 15.5755 15.6484 1.7456 0.184371 61.6896
11448288 13.1244 17.3015 15.5963 15.7055 1.73597 0.212865 61.7277
11448292 13.1244 17.3015 15.5963 15.7055 1.73597 0.212865 61.7277
11448300 13.2036 17.3598 15.6691 15.7055 1.69225 0.196438 61.9381
11448310 13.2036 17.3598 15.6691 15.7055 1.69225 0.196438 61.9381
11448320 13.1596 17.389 15.5755 15.6484 1.74117 0.163983 61.7725
11448330 13.142 17.4182 15.5963 15.6674 1.75794 0.170707 61.8239
11448341 13.142 17.4182 15.5963 15.6674 1.75794 0.170707 61.8239
11448351 13.2124 17.4085 15.5963 15.5913 1.69514 0.137528 61.8085
11448363 13.142 17.4279 15.5651 15.5342 1.72492 0.128769 61.6692
11448384 13.1684 17.4765 15.5339 15.5437 1.74891 0.105152 61.7226
11448401 13.1772 17.4182 15.5028 15.4961 1.71863 0.0982493 61.5942
11448411 13.2389 17.4863 15.5651 15.5817 1.72292 0.102248 61.872
11448421 13.2389 17.4863 15.5651 15.5817 1.72292 0.102248 61.872
11448431 13.2212 17.496 15.5028 15.439 1.70736 0.0546116 61.659
11448441 13.2124 17.4765 15.5547 15.4485 1.68492 0.0764072 61.6922
11448461 13.2477 17.4863 15.5859 15.5056 1.68145 0.0867587 61.8255
11448471 13.2477 17.4863 15.5859 15.5056 1.68145 0.0867587 61.8255
11448481 13.2653 17.4474 15.5235 15.4866 1.67892 0.0722873 61.7228
11448493 13.2565 17.5543 15.5028 15.4866 1.73207 0.043323 61.8001
11448514 13.2917 17.5641 15.5132 15.4485 1.70166 0.0256866 61.8174
11448521 13.2917 17.5641 15.5132 15.4485 1.70166 0.0256866 61.8174
11448536 13.3181 17.5446 15.5235 15.458 1.68203 0.0288141 61.8443
11448542 13.3093 17.5641 15.5339 15.5817 1.7352 0.0586295 61.9891
11448562 13.2565 17.5252 15.4508 15.439 1.72564 0.0262892 61.6714
11448572 13.2301 17.4863 15.5028 15.4675 1.71066 0.0617516 61.6866
11448592 13.2477 17.496 15.4924 15.4866 1.71839 0.0571722 61.7226
11448604 13.186 17.5057 15.5132 15.439 1.7218 0.0633627 61.6438
11448612 13.186 17.5057 15.5132 15.439 1.7218 0.0633627 61.6438
11448622 13.1772 17.4474 15.5859 15.4866 1.69003 0.108901 61.6971
11448643 13.1244 17.4182 15.5963 15.5056 1.70457 0.136115 61.6445
11448653 13.1596 17.4279 15.7003 15.6198 1.69117 0.177512 61.9076
11448666 13.1596 17.4279 15.7003 15.6198 1.69117 0.177512 61.9076
11448672 13.0979 17.3307 15.6379 15.6769 1.72963 0.215308 61.7434
11448682 13.0627 17.282 15.8043 15.7245 1.6726 0.287055 61.8735
11448694 13.0627 17.282 15.8043 15.7245 1.6726 0.287055 61.8735
11448710 13.0539 17.2529 15.8147 15.7912 1.68603 0.314738 61.9126
11448714 13.0539 17.2529 15.8147 15.7912 1.68603 0.314738 61.9126
11448724 13.0363 17.1848 15.8251 15.8197 1.67424 0.345199 61.8658
11448735 12.957 17.1653 15.8979 15.8959 1.6984 0.404915 61.916
11448745 12.957 17.1653 15.8979 15.8959 1.6984 0.404915 61.916
11448757 12.913 17.0973 15.9083 15.9054 1.69086 0.437556 61.8238
11448765 12.9306 16.9908 16.0018 15.972 1.62791 0.497409 61.8952
11448779 12.9306 16.9908 16.0018 15.972 1.62791 0.497409 61.8952
11448786 12.8689 16.9263 16.0018 15.991 1.63729 0.533509 61.7881
11448796 12.772 16.8803 16.0746 16.0957 1.66985 0.610955 61.8227
11448806 12.772 16.8803 16.0746 16.0957 1.66985 0.610955 61.8227
11448816 12.7808 16.779 16.1578 16.1338 1.60634 0.662509 61.8514
11448836 12.6751 16.779 16.1682 16.1719 1.66179 0.700547 61.7942
11448846 12.6223 16.8711 16.2306 16.248 1.72104 0.722569 61.972
11448856 12.6223 16.8711 16.2306 16.248 1.72104 0.722569 61.972
11448866 12.6487 16.8619 16.2514 16.21 1.68292 0.71422 61.9719
11448876 12.6487 16.8619 16.241 16.21 1.6874 0.711821 61.9615
11448886 12.5782 16.7514 16.241 16.3052 1.71201 0.779756 61.8757
11448896 12.543 16.7514 16.2098 16.2861 1.73356 0.777195 61.7903
11448911 12.543 16.7514 16.2098 16.2861 1.73356 0.777195 61.7903
11448922 12.4549 16.7514 16.2722 16.2861 1.74468 0.814061 61.7646
11448930 12.4197 16.7237 16.3242 16.3813 1.76284 0.863891 61.8489
11448937 12.4197 16.7237 16.3242 16.3813 1.76284 0.863891 61.8489
11448947 12.4725 16.7329 16.3761 16.3813 1.72101 0.859863 61.9629
11448957 12.3933 16.7329 16.4177 16.3813 1.73727 0.889662 61.9252
11448980 12.3933 16.6501 16.4177 16.4289 1.72401 0.921791 61.8899
11448984 12.3756 16.604 16.5321 16.5336 1.70434 0.987838 62.0454
11448987 12.3756 16.604 16.5321 16.5336 1.70434 0.987838 62.0454
11448997 12.314 16.604 16.5217 16.5431 1.73896 1.00354 61.9828
11449007 12.2964 16.604 16.5113 16.5717 1.76176 1.01219 61.9834
11449017 12.2964 16.604 16.5113 16.5717 1.76176 1.01219 61.9834
11449027 12.3052 16.5764 16.6049 16.5907 1.7144 1.04242 62.0772
11449038 12.1731 16.4659 16.6049 16.6097 1.73703 1.10965 61.8536
11449048 12.1731 16.4659 16.6049 16.6097 1.73703 1.10965 61.8536
11449060 12.1731 16.4106 16.7401 16.7335 1.70447 1.18194 62.0572
11449068 12.1731 16.4106 16.7401 16.7335 1.70447 1.18194 62.0572
11449078 12.1554 16.3277 16.7713 16.8191 1.69967 1.23415 62.0736
11449088 12.0938 16.2633 16.792 16.8858 1.71807 1.28656 62.0349
11449109 12.0057 16.2172 16.9168 16.8858 1.68499 1.34937 62.0255
11449118 12.0057 16.2172 16.9168 16.8858 1.68499 1.34937 62.0255
11449133 11.8912 16.1159 16.9376 16.9239 1.70158 1.41938 61.8686
11449139 11.8912 16.033 16.9792 17.0487 1.69944 1.47784 61.9522
11449149 11.8912 16.033 16.9792 17.0487 1.69944 1.47784 61.9522
11449160 11.8648 15.9502 17.0787 17.0682 1.64409 1.53288 61.9619
11449182 11.8471 15.941 17.128 17.1754 1.66738 1.57394 62.0914
11449191 11.7943 15.8304 17.2166 17.1851 1.61411 1.63888 62.0264
11449207 11.7591 15.7936 17.2756 17.2241 1.60469 1.67931 62.0524
11449210 11.7591 15.7936 17.2756 17.2241 1.60469 1.67931 62.0524
11449220 11.7767 15.6831 17.2855 17.3117 1.58431 1.72521 62.057
11449231 11.7767 15.6831 17.2855 17.3117 1.58431 1.72521 62.057
11449242 11.715 15.6555 17.3347 17.3215 1.58288 1.76191 62.0267
11449255 11.7591 15.6186 17.3741 17.3799 1.55534 1.7808 62.1317
11449261 11.7591 15.6186 17.3741 17.3799 1.55534 1.7808 62.1317
11449272 11.7503 15.5542 17.3445 17.341 1.53265 1.78603 61.9899
11449284 11.7062 15.5818 17.3642 17.3605 1.5609 1.79882 62.0127
11449292 11.7062 15.5818 17.3642 17.3605 1.5609 1.79882 62.0127
11449306 11.7767 15.5542 17.3642 17.3117 1.50186 1.77685 62.0068
11449312 11.7767 15.5542 17.3642 17.3117 1.50186 1.77685 62.0068
11449322 11.7943 15.5265 17.3445 17.3605 1.51073 1.78574 62.0258
11449333 11.7767 15.6186 17.3839 17.3605 1.53626 1.774 62.1397
11449342 11.7767 15.6186 17.3839 17.3605 1.53626 1.774 62.1397
11449356 11.7943 15.591 17.3347 17.2436 1.49506 1.74125 61.9635
11449362 11.7855 15.5726 17.3642 17.2436 1.47922 1.75492 61.9659
11449376 11.7855 15.5726 17.3642 17.2436 1.47922 1.75492 61.9659
11449383 11.8031 15.6278 17.3839 17.302 1.50637 1.75193 62.1169
11449397 11.8119 15.6278 17.3347 17.2436 1.5015 1.72655 62.018
11449403 11.8119 15.5634 17.3347 17.2436 1.47705 1.74395 61.9535
11449414 11.8207 15.6002 17.3741 17.3312 1.50366 1.75876 62.1262
11449424 11.8207 15.6002 17.3741 17.3312 1.50366 1.75876 62.1262
11449433 11.8295 15.5818 17.3052 17.263 1.49652 1.73207 61.9795
11449443 11.8648 15.6186 17.3347 17.1948 1.45696 1.70435 62.0129
11449453 11.8648 15.6186 17.3347 17.1948 1.45696 1.70435 62.0129
11449463 11.8736 15.6739 17.3248 17.1461 1.45989 1.67454 62.0184
11449473 11.8736 15.6739 17.3248 17.1461 1.45989 1.67454 62.0184
11449483 11.9 15.6739 17.3052 17.1266 1.44962 1.65902 62.0057
11449494 11.9617 15.7199 17.2953 17.039 1.41171 1.60911 62.0159
11449504 11.9617 15.7199 17.2953 17.039 1.41171 1.60911 62.0159
11449514 11.9617 15.7936 17.1673 16.9905 1.47589 1.55118 61.9131
11449526 12.0497 15.8581 17.1575 16.9429 1.44889 1.498 62.0082
11449535 12.0497 15.8581 17.1575 16.9429 1.44889 1.498 62.0082
11449550 12.1114 15.8397 17.0591 16.9334 1.45397 1.46296 61.9435
11449559 12.1026 15.8581 17.0591 16.8001 1.414 1.43122 61.8198
11449567 12.1026 15.8581 17.0591 16.8001 1.414 1.43122 61.8198
11449575 12.1378 15.8581 17.0886 16.8287 1.39725 1.4346 61.9132
11449588 12.1378 15.8581 17.0886 16.8287 1.39725 1.4346 61.9132
11449596 12.1995 15.9962 17.0394 16.7811 1.42641 1.36048 62.0161
11449609 12.2435 15.9962 17.0098 16.7811 1.42023 1.34237 62.0306
11449616 12.2435 15.9962 17.0098 16.7811 1.42023 1.34237 62.0306
11449630 12.3492 16.0423 16.844 16.7144 1.43803 1.25109 61.95
11449636 12.358 16.1067 16.7817 16.6193 1.44923 1.19682 61.8657
11449646 12.358 16.1067 16.7817 16.6193 1.44923 1.19682 61.8657
11449658 12.4021 16.1251 16.7713 16.5812 1.42737 1.16966 61.8796
11449676 12.4461 16.3093 16.6777 16.6002 1.52569 1.09356 62.0333
11449686 12.4549 16.2909 16.6049 16.5241 1.51724 1.06258 61.8748
11449697 12.4549 16.2909 16.6049 16.5241 1.51724 1.06258 61.8748
11449707 12.4637 16.3554 16.5321 16.486 1.5547 1.01857 61.8372
11449717 12.5166 16.4382 16.5009 16.4384 1.55877 0.965642 61.8941
11449727 12.5166 16.4382 16.5009 16.4384 1.55877 0.965642 61.8941
11449737 12.5166 16.4475 16.4697 16.4003 1.56123 0.94754 61.8341
11449747 12.5166 16.4475 16.4697 16.4003 1.56123 0.94754 61.8341
11449757 12.543 16.4659 16.4177 16.3813 1.57198 0.919824 61.8079
11449766 12.5166 16.4751 16.4593 16.486 1.60856 0.957506 61.937
11449787 12.5606 16.4843 16.3969 16.4289 1.59834 0.91665 61.8708
11449800 12.5342 16.4843 16.4073 16.4289 1.60523 0.925816 61.8547
11449807 12.5342 16.4935 16.4073 16.4384 1.61231 0.925612 61.8734
11449821 12.6047 16.5672 16.3969 16.4194 1.60714 0.881898 61.9882
11449827 12.6047 16.5672 16.3969 16.4194 1.60714 0.881898 61.9882
11449840 12.5782 16.558 16.3138 16.3623 1.62922 0.859011 61.8122
11449847 12.5078 16.5764 16.345 16.3623 1.65311 0.879505 61.7914
11449860 12.5078 16.5764 16.345 16.3623 1.65311 0.879505 61.7914
11449868 12.6311 16.6316 16.2306 16.3813 1.67729 0.811921 61.8746
11449877 12.6135 16.6316 16.2306 16.3813 1.68489 0.816425 61.857
11449887 12.6135 16.5764 16.2306 16.3432 1.64966 0.821832 61.7637
11449897 12.6223 16.6408 16.2826 16.3718 1.65857 0.821552 61.9175
11449908 12.6223 16.6408 16.2826 16.3718 1.65857 0.821552 61.9175
11449919 12.5959 16.6408 16.2202 16.3623 1.69327 0.811824 61.8191
11449929 12.587 16.6961 16.1682 16.3813 1.74752 0.792384 61.8326
11449939 12.587 16.6961 16.1682 16.3813 1.74752 0.792384 61.8326
11449949 12.6223 16.7421 16.189 16.3813 1.74061 0.77643 61.9347
11449958 12.6223 16.6869 16.2202 16.3337 1.68846 0.786751 61.8631
11449970 12.6223 16.6869 16.2202 16.3337 1.68846 0.786751 61.8631
11449979 12.587 16.7329 16.189 16.4099 1.7631 0.794313 61.9188
11449988 12.587 16.7329 16.189 16.4099 1.7631 0.794313 61.9188
11450000 12.5606 16.6869 16.2618 16.3908 1.71862 0.82514 61.9001
11450009 12.543 16.7145 16.1994 16.4289 1.77788 0.817012 61.8858
11450018 12.543 16.7145 16.1994 16.4289 1.77788 0.817012 61.8858
11450030 12.543 16.7606 16.1266 16.4289 1.82667 0.788548 61.8591
11450040 12.587 16.7606 16.1162 16.3908 1.79782 0.766171 61.8546
11450060 12.587 16.7606 16.0954 16.3527 1.79253 0.752612 61.7958
11450080 12.5959 16.7974 16.085 16.4003 1.82489 0.749558 61.8786
11450095 12.6047 16.779 16.085 16.3623 1.79989 0.743228 61.8309
11450102 12.6047 16.779 16.085 16.3623 1.79989 0.743228 61.8309
11450121 12.6135 16.779 16.0018 16.4574 1.86782 0.743753 61.8517
11450130 12.6135 16.779 16.0018 16.4574 1.86782 0.743753 61.8517
11450144 12.587 16.7882 16.0538 16.3527 1.82095 0.735975 61.7818
11450151 12.587 16.7882 16.0538 16.3527 1.82095 0.735975 61.7818
11450166 12.6135 16.779 16.0018 16.3813 1.83931 0.726179 61.7756
11450172 12.6223 16.8158 16.0642 16.4289 1.84003 0.739936 61.9312
11450182 12.6223 16.8158 16.0642 16.4289 1.84003 0.739936 61.9312
11450219 12.6047 16.825 15.9498 16.3623 1.87587 0.700276 61.7418
11450221 12.6399 16.8158 16.033 16.3147 1.80312 0.701898 61.8034
11450232 12.6575 16.7882 15.9706 16.3813 1.83718 0.705425 61.7976
11450234 12.6575 16.7882 15.9706 16.3813 1.83718 0.705425 61.7976
11450242 12.6399 16.8711 16.0122 16.3242 1.83643 0.685263 61.8474
11450256 12.6223 16.8711 15.9602 16.3432 1.87379 0.682104 61.7968
11450262 12.6223 16.8711 15.9602 16.3432 1.87379 0.682104 61.7968
11450279 12.6311 16.8803 15.9187 16.3908 1.90929 0.678923 61.8208
11450282 12.6927 16.8434 16.0434 16.3052 1.78252 0.681683 61.8848
11450292 12.6927 16.8434 16.0434 16.3052 1.78252 0.681683 61.8848
11450302 12.6663 16.9724 15.9083 16.2861 1.89377 0.619978 61.8331
11450312 12.6663 16.9724 15.9083 16.2861 1.89377 0.619978 61.8331
11450326 12.7016 16.954 15.8979 16.2956 1.87965 0.615528 61.849
11450332 12.7016 16.8987 15.9602 16.2576 1.81762 0.635144 61.8181
11450342 12.7016 16.8987 15.9602 16.2576 1.81762 0.635144 61.8181
11450352 12.6839 16.9079 15.8771 16.3337 1.89337 0.635633 61.8026
11450362 12.6663 16.8342 15.9706 16.3718 1.84704 0.689294 61.843
11450373 12.6663 16.8342 15.9706 16.3718 1.84704 0.689294 61.843
11450383 12.6311 16.8619 15.9187 16.3718 1.89529 0.679184 61.7834
11450403 12.6135 16.8987 16.0122 16.3908 1.88315 0.700364 61.9152
11450419 12.6223 16.8803 16.0434 16.3432 1.84111 0.699012 61.8892
11450424 12.6223 16.8803 16.0434 16.3432 1.84111 0.699012 61.8892
11450433 12.6663 16.8342 16.0538 16.3813 1.81454 0.710712 61.9357
11450443 12.6135 16.8066 16.0642 16.3147 1.7976 0.71817 61.799
11450453 12.6135 16.8066 16.0642 16.3147 1.7976 0.71817 61.799
11450464 12.7192 16.8527 16.137 16.3052 1.73414 0.694279 62.014
11450487 12.6575 16.8066 16.1578 16.3052 1.73448 0.726378 61.9271
11450495 12.6311 16.7421 16.1994 16.3623 1.72517 0.772203 61.9349
11450503 12.6311 16.7421 16.1994 16.3623 1.72517 0.772203 61.9349
11450513 12.6487 16.8158 16.2306 16.2385 1.68529 0.727692 61.9336
11450523 12.5782 16.6869 16.2826 16.3337 1.68055 0.812314 61.8814
11450545 12.6487 16.6316 16.3138 16.2671 1.59076 0.8003 61.8612
11450565 12.5959 16.5488 16.2826 16.2671 1.59553 0.827882 61.6943
11450577 12.5782 16.5395 16.4177 16.2576 1.53785 0.863569 61.7931
11450616 12.543 16.4751 16.4281 16.3432 1.55656 0.911146 61.7894
11450617 12.543 16.4475 16.5529 16.4003 1.51423 0.959607 61.9437
11450626 12.5254 16.4014 16.5737 16.4003 1.4954 0.980741 61.9008
11450637 12.5254 16.4014 16.5737 16.4003 1.4954 0.980741 61.9008
11450646 12.5254 16.4198 16.5841 16.3813 1.49071 0.974028 61.9106
11450656 12.5606 16.429 16.6049 16.3432 1.4558 0.958655 61.9378
11450676 12.543 16.5027 16.6049 16.3242 1.48407 0.939907 61.9748
11450686 12.5518 16.4382 16.5425 16.2956 1.47164 0.933575 61.8282
11450706 12.543 16.5119 16.5009 16.3147 1.52846 0.911744 61.8705
11450726 12.6311 16.4751 16.5217 16.248 1.44253 0.888128 61.8759
11450736 12.6135 16.4475 16.5321 16.2956 1.45322 0.912967 61.8887
11450746 12.6135 16.4475 16.5321 16.2956 1.45322 0.912967 61.8887
11450760 12.587 16.5211 16.4489 16.2766 1.52091 0.877519 61.8337
11450766 12.7192 16.5488 16.4593 16.21 1.4451 0.823748 61.9372
11450776 12.7192 16.5488 16.4593 16.21 1.4451 0.823748 61.9372
11450787 12.7104 16.5764 16.4593 16.248 1.47383 0.827649 61.9941
11450812 12.6575 16.604 16.3554 16.229 1.54422 0.805916 61.8459
11450817 12.6927 16.6593 16.3242 16.229 1.56342 0.775657 61.9052
11450828 12.6927 16.6593 16.3242 16.229 1.56342 0.775657 61.9052
11450837 12.7368 16.6593 16.2514 16.0957 1.52521 0.716938 61.7432
11450852 12.7456 16.6961 16.2722 16.0957 1.5265 0.710136 61.8096
11450872 12.7368 16.7974 16.2514 16.0862 1.57401 0.67965 61.8718
11450887 12.7544 16.7421 16.1682 16.0482 1.56681 0.661077 61.7129
11450897 12.8161 16.825 16.1266 16.0386 1.586 0.612595 61.8063
11450923 12.8337 16.825 16.1266 16.0482 1.58203 0.610362 61.8335
11450928 12.7544 16.825 16.137 16.0672 1.61888 0.637248 61.7836
11450938 12.7544 16.825 16.137 16.0672 1.61888 0.637248 61.7836
11450950 12.772 16.8066 16.1162 16.0957 1.62408 0.639254 61.7906
11450960 12.7368 16.8158 16.1474 16.0767 1.62211 0.648667 61.7767
11450970 12.7368 16.8158 16.1474 16.0767 1.62211 0.648667 61.7767
11450982 12.7544 16.8711 16.0746 16.1338 1.68834 0.626587 61.8339
11450990 12.7544 16.8711 16.0746 16.1338 1.68834 0.626587 61.8339
11451010 12.7456 16.8803 16.0226 16.1243 1.71449 0.612177 61.7728
11451013 12.7984 16.954 16.0642 16.0957 1.69071 0.5833 61.9124
11451022 12.7984 16.954 16.0642 16.0957 1.69071 0.5833 61.9124
11451032 12.7808 16.9447 16.0018 16.0767 1.71461 0.571073 61.8041
11451040 12.8161 16.9908 15.8875 16.0386 1.75186 0.514938 61.7329
11451053 12.8161 16.9908 15.8875 16.0386 1.75186 0.514938 61.7329
11451062 12.8601 17.0681 15.8979 16.0006 1.74305 0.478007 61.8266
11451081 12.8073 17.0584 15.8771 15.972 1.76054 0.48209 61.7147
11451094 12.8161 17.1264 15.9291 16.0862 1.80265 0.501822 61.9578
11451101 12.8161 17.1264 15.9291 16.0862 1.80265 0.501822 61.9578
11451116 12.8425 17.0973 15.7419 16.0767 1.85788 0.456342 61.7583
11451125 12.7984 17.0195 15.7939 16.0291 1.80734 0.48793 61.6409
11451132 12.7984 17.0195 15.7939 16.0291 1.80734 0.48793 61.6409
11451142 12.8425 17.1751 15.7523 15.972 1.84327 0.414652 61.7418
11451164 12.8337 17.0778 15.7939 16.0291 1.81396 0.464451 61.7345
11451173 12.8601 17.1751 15.7419 16.0006 1.85084 0.414543 61.7776
11451184 12.8601 17.1751 15.7419 16.0006 1.85084 0.414543 61.7776
11451194 12.913 17.1459 15.7419 15.9434 1.79551 0.395141 61.7442
11451208 12.8953 17.1459 15.7523 15.9815 1.81294 0.410991 61.775
11451213 12.8953 17.1459 15.7523 15.9815 1.81294 0.410991 61.775
11451234 12.8865 17.214 15.7835 15.9339 1.81091 0.392346 61.8179
11451245 12.913 17.107 15.7835 16.0291 1.79503 0.434886 61.8325
11451254 12.8601 17.1362 15.7627 16.0291 1.83793 0.435898 61.7881
11451277 12.8249 17.0875 15.7523 15.972 1.81806 0.440946 61.6367
11451285 12.8337 17.0973 15.7939 16.0291 1.82126 0.459582 61.7539
11451294 12.8337 17.0973 15.7939 16.0291 1.82126 0.459582 61.7539
11451305 12.8953 17.0778 15.8563 16.0291 1.76019 0.463697 61.8585
11451314 12.8953 17.0778 15.8563 16.0291 1.76019 0.463697 61.8585
11451324 12.8865 17.0681 15.8459 16.0957 1.78986 0.481535 61.8962
11451336 12.8513 17.0584 15.7939 16.1053 1.82759 0.482821 61.8088
11451344 12.8513 17.0584 15.7939 16.1053 1.82759 0.482821 61.8088
11451354 12.8601 17.0681 15.8147 16.0862 1.81125 0.478592 61.8291
11451366 12.7632 16.9908 15.8251 16.0767 1.81622 0.522525 61.6558
11451373 12.7632 16.9908 15.8251 16.0767 1.81622 0.522525 61.6558
11451386 12.8249 17 15.8355 16.1243 1.80625 0.518308 61.7846
11451393 12.8249 17 15.8355 16.1243 1.80625 0.518308 61.7846
11451403 12.7368 17.0486 15.8459 16.1909 1.88318 0.546257 61.8222
11451413 12.7896 17.0681 15.9394 16.1909 1.82693 0.549944 61.9881
11451436 12.772 17.0195 15.9498 16.2195 1.82255 0.575652 61.9608
11451445 12.7896 17.0097 15.9394 16.2671 1.83358 0.582324 62.0059
11451454 12.7896 17.0097 15.9394 16.2671 1.83358 0.582324 62.0059
11451471 12.7104 16.8619 15.9083 16.1719 1.79034 0.610176 61.6524
11451478 12.7104 16.8619 15.9083 16.1719 1.79034 0.610176 61.6524
11451487 12.6751 16.8158 15.9498 16.1719 1.77023 0.640483 61.6127
11451495 12.6927 16.8711 16.0226 16.2004 1.76257 0.645588 61.7869
11451515 12.6663 16.8434 16.0122 16.2004 1.76813 0.656871 61.7224
11451525 12.6399 16.779 16.1058 16.2956 1.7506 0.723687 61.8203
11451536 12.6399 16.779 16.1058 16.2956 1.7506 0.723687 61.8203
11451548 12.6575 16.779 16.1058 16.3052 1.74656 0.721403 61.8475
11451558 12.6575 16.779 16.1058 16.3052 1.74656 0.721403 61.8475
11451566 12.6575 16.7882 16.1162 16.3623 1.76697 0.734632 61.9242
11451580 12.6311 16.8158 16.137 16.3147 1.76191 0.728152 61.8986
11451597 12.6487 16.8066 16.085 16.3337 1.78047 0.718412 61.874
11451607 12.728 16.8895 16.0538 16.248 1.75863 0.650296 61.9193
11451623 12.728 16.8895 16.0538 16.248 1.75863 0.650296 61.9193
11451644 12.7104 16.8342 16.0122 16.2861 1.77779 0.667922 61.8429
11451646 12.6839 16.8803 15.981 16.21 1.79146 0.638031 61.7552
11451648 12.6839 16.8803 15.981 16.21 1.79146 0.638031 61.7552
11451660 12.6927 16.9447 15.9083 16.1433 1.81842 0.587 61.6891
11451668 12.6927 16.9447 15.9083 16.1433 1.81842 0.587 61.6891
11451678 12.7368 16.9355 15.8979 16.1814 1.81465 0.584668 61.7516
11451688 12.7632 16.9447 15.8875 16.1624 1.804 0.568804 61.7578
11451710 12.7632 16.954 15.9083 16.1624 1.79844 0.571343 61.7878
11451720 12.7456 16.954 15.8355 16.0957 1.81266 0.543154 61.6308
11451730 12.7456 16.954 15.8355 16.0957 1.81266 0.543154 61.6308
11451738 12.7896 16.9816 15.8979 16.0957 1.77683 0.539719 61.7648
11451751 12.7896 16.9816 15.8979 16.0957 1.77683 0.539719 61.7648
11451762 12.8073 17.0097 15.8771 16.0386 1.76732 0.509954 61.7327
11451772 12.8601 17.0195 15.8875 16.0386 1.74358 0.496688 61.8056
11451780 12.8601 17.0195 15.8875 16.0386 1.74358 0.496688 61.8056
11451793 12.8161 17.0778 15.7835 16.0672 1.84042 0.475382 61.7445
11451801 12.8073 17.0486 15.8251 16.0577 1.81166 0.492446 61.7386
11451821 12.7984 17.1167 15.7835 16.0006 1.83768 0.454357 61.6992
11451842 12.8337 17.107 15.7835 16.0101 1.82228 0.450214 61.7342
11451846 12.8337 17.107 15.7835 16.0101 1.82228 0.450214 61.7342
11451852 12.8953 17.1264 15.8043 16.0767 1.81879 0.450518 61.9028
11451863 12.8953 17.1264 15.8043 16.0767 1.81879 0.450518 61.9028
11451873 12.8953 17.1167 15.8043 16.0196 1.79373 0.43951 61.8359
11451884 12.9041 17.1362 15.8043 15.9625 1.77577 0.418997 61.8071
11451892 12.9041 17.1362 15.8043 15.9625 1.77577 0.418997 61.8071
11451906 12.9658 17.1556 15.7523 15.991 1.78961 0.393258 61.8647
11451912 12.8601 17.0973 15.7523 15.9339 1.79207 0.420692 61.6436
11451932 12.8865 17.1264 15.7835 15.9625 1.78877 0.420914 61.7589
11451942 12.8865 17.1264 15.7835 15.9625 1.78877 0.420914 61.7589
11451952 12.9218 17.1167 15.7523 16.0101 1.80124 0.418417 61.8008
11451962 12.9218 17.2237 15.7835 15.991 1.82069 0.394642 61.92
11451973 12.9218 17.2237 15.7835 15.991 1.82069 0.394642 61.92
11451982 12.9041 17.1751 15.8355 15.9244 1.76258 0.407676 61.8391
11451994 12.913 17.1459 15.8147 15.9625 1.77111 0.416828 61.836
11452003 12.913 17.1459 15.8147 15.9625 1.77111 0.416828 61.836
11452014 12.9041 17.1362 15.7731 16.0006 1.80359 0.42062 61.814
11452024 12.9041 17.1362 15.7731 16.0006 1.80359 0.42062 61.814
11452036 12.9306 17.0778 15.8147 15.953 1.7343 0.427174 61.776
11452043 12.9041 17.1167 15.8355 16.0196 1.77641 0.444653 61.8759
11452059 12.9041 17.1167 15.8355 16.0196 1.77641 0.444653 61.8759
11452063 12.9746 17.0681 15.7731 15.9434 1.72599 0.406542 61.7592
11452073 12.8953 17.0584 15.7939 15.9244 1.74048 0.429191 61.672
11452085 12.8953 17.0584 15.7939 15.9244 1.74048 0.429191 61.672
11452094 12.8689 17.1459 15.8771 16.0386 1.79175 0.460412 61.9305
11452108 12.8689 17.1459 15.8771 16.0386 1.79175 0.460412 61.9305
11452121 12.9218 17.0681 15.7731 15.9339 1.74529 0.417489 61.6969
11452132 12.9306 17.0973 15.8979 15.9815 1.71642 0.44863 61.9072
11452143 12.9306 17.0292 15.8251 15.991 1.72583 0.450751 61.7759
11452156 12.9482 17.0292 15.8251 15.972 1.71103 0.441862 61.7744
11452165 12.9482 17.0292 15.8251 15.972 1.71103 0.441862 61.7744
11452178 12.8601 17.0973 15.9083 16.0386 1.76382 0.482082 61.9043
11452185 12.8601 17.0973 15.9083 16.0386 1.76382 0.482082 61.9043
11452195 12.8689 17.0389 15.8771 16.0006 1.73726 0.478222 61.7854
11452205 12.8425 17.0292 15.9083 15.991 1.72794 0.492375 61.771
11452229 12.8601 17.0389 15.9083 16.0672 1.75264 0.503384 61.8745
11452236 12.8513 17.0292 15.8771 16.0386 1.75555 0.494016 61.7962
11452251 12.8513 17.0292 15.8771 16.0386 1.75555 0.494016 61.7962
11452257 12.7808 17.0097 15.9187 16.0386 1.76074 0.52635 61.7478
11452267 12.8425 17.0097 15.8563 16.0862 1.77895 0.507393 61.7947
11452278 12.8425 17.0097 15.8563 16.0862 1.77895 0.507393 61.7947
11452287 12.8161 17.0681 15.9291 16.0482 1.7665 0.50752 61.8613
11452300 12.8161 17.0681 15.9291 16.0482 1.7665 0.50752 61.8613
11452307 12.8073 16.9816 15.9394 15.972 1.70456 0.51603 61.7003
11452317 12.8513 16.9447 15.8979 16.0386 1.71475 0.520095 61.7325
11452337 12.7544 17 15.9291 16.0862 1.78193 0.549025 61.7697
11452348 12.7544 17 16.0018 16.0862 1.75041 0.56603 61.8425
11452357 12.8337 17 16.0018 16.0767 1.71258 0.543882 61.9122
11452372 12.8601 17.0292 16.0122 16.0577 1.70052 0.527916 61.9592
11452377 12.8601 17.0292 16.0122 16.0577 1.70052 0.527916 61.9592
11452387 12.7984 16.9447 15.9706 16.0386 1.70612 0.550445 61.7525
11452399 12.7896 16.954 16.0226 15.991 1.67297 0.551371 61.7573
11452420 12.7984 17.0097 15.9602 16.0006 1.72077 0.522746 61.769
11452444 12.8689 17.0292 15.9602 15.991 1.69406 0.497952 61.8494
11452448 12.8513 16.954 15.9914 16.0101 1.66701 0.533016 61.8068
11452458 12.8513 16.954 15.9914 16.0101 1.66701 0.533016 61.8068
11452470 12.8337 16.954 15.9498 15.9815 1.6818 0.521008 61.719
11452478 12.8073 16.954 16.0018 16.0291 1.68872 0.550979 61.7922
11452493 12.8073 16.954 16.0018 16.0291 1.68872 0.550979 61.7922
11452498 12.8777 17.0389 16.0434 16.0386 1.676 0.523907 61.9987
11452510 12.8777 17.0389 16.0434 16.0386 1.676 0.523907 61.9987
11452519 12.8337 17.0389 15.9498 16.0196 1.72818 0.508602 61.842
11452529 12.8689 17.0292 15.981 16.0767 1.71733 0.522872 61.9558
11452542 12.8689 17.0292 15.981 16.0767 1.71733 0.522872 61.9558
11452549 12.8249 17.0292 15.9498 15.9815 1.71399 0.504323 61.7854
11452559 12.9041 17.0195 15.9914 15.953 1.64739 0.489948 61.868
11452568 12.9041 17.0195 15.9914 15.953 1.64739 0.489948 61.868
11452579 12.8513 17.0389 15.981 15.991 1.69635 0.504802 61.8623
11452600 12.8073 17.0097 15.8563 15.953 1.74405 0.48492 61.6262
11452615 12.8953 17.0195 15.9187 15.8578 1.64661 0.452653 61.6912
11452620 12.8953 17.0195 15.9187 15.8578 1.64661 0.452653 61.6912
11452630 12.8513 17.0195 15.8875 15.8768 1.68634 0.460827 61.635
11452641 12.8161 17.0681 15.9187 15.8768 1.70647 0.464821 61.6796
11452667 12.8161 17.0681 15.9187 15.8768 1.70647 0.464821 61.6796
11452668 12.913 17.1264 15.9602 15.8673 1.66508 0.43355 61.8669
11452671 12.8161 17.0584 15.9083 15.953 1.73603 0.482739 61.7356
11452687 12.8161 17.0584 15.9083 15.953 1.73603 0.482739 61.7356
11452692 12.8249 17.0875 15.9602 15.9054 1.70279 0.474252 61.778
11452702 12.8249 17.0875 15.9602 15.9054 1.70279 0.474252 61.778
11452713 12.8865 17 15.8875 15.953 1.69252 0.474808 61.727
11452721 12.8777 17.0778 15.8563 15.9815 1.74992 0.456911 61.7933
11452737 12.8777 17.0778 15.8563 15.9815 1.74992 0.456911 61.7933
11452742 12.8777 17.107 15.8147 15.9625 1.77175 0.435333 61.7619
11452768 12.8601 17.0973 15.8875 15.9054 1.72269 0.445864 61.7502
11452770 12.8601 17.0973 15.8875 15.9054 1.72269 0.445864 61.7502
11452774 12.9041 17.1167 15.8979 15.953 1.7244 0.443653 61.8717
11452785 12.9041 17.1167 15.8979 15.953 1.7244 0.443653 61.8717
11452794 12.8689 17.1362 15.8875 15.8863 1.72637 0.429452 61.7789
11452808 12.9306 17.1167 15.8667 15.9434 1.72288 0.427476 61.8574
11452814 12.9306 17.1167 15.8667 15.9434 1.72288 0.427476 61.8574
11452825 12.8953 17.0973 15.8771 15.9244 1.71912 0.439092 61.7941
11452835 12.8601 17.1264 15.8979 15.8959 1.7256 0.438777 61.7803
11452845 12.8601 17.1264 15.8979 15.8959 1.7256 0.438777 61.7803
11452871 12.8689 17.1264 15.8563 15.9054 1.74338 0.429012 61.757
11452879 12.8865 17.0875 15.8563 15.8673 1.70672 0.425343 61.6976
11452886 12.913 17.1556 15.8563 15.953 1.75319 0.421962 61.8778
11452906 12.913 17.1264 15.8875 15.8863 1.70366 0.420885 61.8132
11452916 12.8513 17.107 15.8875 16.0006 1.76598 0.468035 61.8463
11452926 12.8513 17.107 15.8875 16.0006 1.76598 0.468035 61.8463
11452936 12.8337 17.1167 15.7939 16.0196 1.82499 0.452473 61.7639
11452950 12.8337 17.1264 15.8979 15.9339 1.75137 0.454352 61.7919
11452967 12.8425 17.107 15.9394 16.0482 1.76518 0.493598 61.9371
11452978 12.8425 17.107 15.9394 16.0482 1.76518 0.493598 61.9371
11452988 12.8425 17.0778 15.8875 16.0482 1.77671 0.488715 61.8559
11453001 12.7808 17.0486 15.9498 16.0862 1.77974 0.535018 61.8655
11453007 12.7808 17.0486 15.9498 16.0862 1.77974 0.535018 61.8655
11453017 12.7808 17.0097 15.9394 16.1053 1.77678 0.546813 61.8353
11453028 12.7192 16.954 15.981 16.1624 1.78598 0.599424 61.8165
11453036 12.7192 16.954 15.981 16.1624 1.78598 0.599424 61.8165
11453050 12.7016 16.9908 15.9706 16.0862 1.78335 0.574386 61.7492
11453056 12.7016 16.9908 15.9706 16.0862 1.78335 0.574386 61.7492
11453067 12.6927 16.8987 15.981 16.1338 1.76592 0.613407 61.7063
11453078 12.6839 16.8342 16.1578 16.248 1.71199 0.699486 61.924
11453100 12.6663 16.8342 16.1578 16.229 1.71243 0.699556 61.8874
11453107 12.6839 16.7974 16.1786 16.3242 1.7178 0.731181 61.9841
11453127 12.6487 16.779 16.137 16.2861 1.72972 0.726449 61.8508
11453137 12.6487 16.779 16.137 16.2861 1.72972 0.726449 61.8508
11453148 12.5782 16.7606 16.189 16.3052 1.73794 0.765451 61.8329
11453159 12.5782 16.7053 16.2306 16.3147 1.70275 0.791305 61.8288
11453173 12.5782 16.7053 16.2306 16.3147 1.70275 0.791305 61.8288
11453179 12.5782 16.6961 16.241 16.3908 1.72346 0.813521 61.9061
11453188 12.5694 16.7053 16.2098 16.2671 1.69759 0.777823 61.7516
11453210 12.6311 16.7145 16.189 16.2861 1.6906 0.759332 61.8207
11453222 12.5959 16.7606 16.1578 16.3432 1.75813 0.762543 61.8574
11453247 12.5606 16.779 16.2202 16.2671 1.72468 0.763661 61.8269
11453261 12.543 16.8434 16.189 16.2004 1.74498 0.729166 61.7759
11453272 12.6047 16.7514 16.241 16.2576 1.68268 0.762075 61.8546
11453281 12.6047 16.7514 16.241 16.2576 1.68268 0.762075 61.8546
11453296 12.5959 16.7882 16.2514 16.2576 1.69588 0.757327 61.893
11453302 12.6135 16.7421 16.2514 16.2004 1.64937 0.751414 61.8074
11453322 12.6311 16.8527 16.241 16.3052 1.72729 0.740544 62.0299
11453332 12.5606 16.7606 16.2722 16.2671 1.69529 0.780319 61.8604
11453353 12.6047 16.8158 16.2618 16.3147 1.71946 0.763577 61.9969
11453371 12.6047 16.8158 16.2618 16.3147 1.71946 0.763577 61.9969
11453374 12.5959 16.779 16.2306 16.229 1.69063 0.748309 61.8344
11453399 12.6047 16.7421 16.2722 16.3527 1.7016 0.793453 61.9717
11453402 12.6047 16.7421 16.2722 16.3527 1.7016 0.793453 61.9717
11453410 12.6223 16.7514 16.1786 16.3432 1.73426 0.762944 61.8955
11453415 12.5606 16.7329 16.1682 16.2766 1.73341 0.765628 61.7383
11453425 12.5606 16.7329 16.1682 16.2766 1.73341 0.765628 61.7383
11453435 12.5782 16.7606 16.1994 16.3052 1.73344 0.767843 61.8433
11453452 12.5782 16.7606 16.1994 16.3052 1.73344 0.767843 61.8433
11453455 12.499 16.7145 16.1682 16.2956 1.76037 0.79049 61.6773
11453465 12.5254 16.7329 16.189 16.2766 1.73966 0.779421 61.7239
11453477 12.5254 16.7329 16.189 16.2766 1.73966 0.779421 61.7239
11453485 12.5782 16.779 16.1994 16.2766 1.72963 0.756574 61.8332
11453505 12.5959 16.7514 16.2098 16.2766 1.70712 0.76152 61.8336
11453516 12.6399 16.779 16.1266 16.2861 1.73802 0.726289 61.8316
11453536 12.5782 16.7514 16.189 16.2195 1.7022 0.748052 61.7381
11453546 12.6047 16.825 16.1786 16.2766 1.74451 0.733337 61.8849
11453556 12.6047 16.825 16.1786 16.2766 1.74451 0.733337 61.8849
11453566 12.6223 16.7974 16.1474 16.229 1.72209 0.717698 61.7961
11453582 12.6399 16.8619 16.0954 16.1909 1.74689 0.675999 61.7881
11453587 12.6399 16.8619 16.0954 16.1909 1.74689 0.675999 61.7881
11453597 12.6311 16.9079 16.0226 16.1624 1.78883 0.643024 61.724
11453609 12.7192 16.9355 16.0018 16.1148 1.75215 0.597827 61.7713
11453627 12.7104 16.954 16.033 16.1433 1.76013 0.609319 61.8407
11453649 12.7104 16.9447 15.981 16.1433 1.77918 0.599536 61.7795
11453662 12.6839 16.9447 16.0226 16.1433 1.77261 0.6159 61.7947
11453688 12.7368 16.9632 15.9914 16.1243 1.763 0.586208 61.8157
11453690 12.7544 16.9724 16.0018 16.1433 1.76149 0.586306 61.8719
11453698 12.7544 16.9724 16.0018 16.1433 1.76149 0.586306 61.8719
11453714 12.728 16.9908 16.0018 16.0957 1.76196 0.577229 61.8163
11453719 12.728 16.9908 16.0018 16.0957 1.76196 0.577229 61.8163
11453729 12.7456 17 15.9498 16.0672 1.76958 0.551654 61.7626
11453740 12.7456 17 15.981 16.0386 1.74532 0.55227 61.7653
11453748 12.7456 17 15.981 16.0386 1.74532 0.55227 61.7653
11453767 12.7896 17.0097 15.8667 16.0577 1.78663 0.516407 61.7237
11453770 12.7896 17.0097 15.8563 16.0577 1.79114 0.513968 61.7133
11453778 12.728 17.0292 15.8563 16.0577 1.82525 0.524585 61.6711
11453793 12.7984 17.0681 15.8979 16.0672 1.79478 0.50909 61.8316
11453799 12.7984 17.0681 15.8979 16.0672 1.79478 0.50909 61.8316
11453808 12.7984 17.0681 15.9083 16.0672 1.79028 0.511526 61.842
11453819 12.8601 17.1264 15.8979 16.0101 1.76855 0.465649 61.8945
11453828 12.8601 17.1264 15.8979 16.0101 1.76855 0.465649 61.8945
11453844 12.8777 17.0681 15.8771 16.0101 1.748 0.470949 61.8329
11453858 12.8249 17.1556 15.8771 15.9434 1.77874 0.446604 61.801
11453870 12.8249 17.1848 15.8771 16.0291 1.82181 0.459461 61.9158
11453898 12.8249 17.1848 15.8771 16.0291 1.82181 0.459461 61.9158
11453900 12.9041 17.1362 15.7627 15.9434 1.78665 0.404679 61.7464
11453921 12.9306 17.2237 15.7523 15.8863 1.79113 0.360328 61.7929
11453931 12.8953 17.2334 15.7419 15.9815 1.85026 0.38673 61.8522
11453941 12.8953 17.2334 15.7419 15.9815 1.85026 0.38673 61.8522
11453951 12.9482 17.2529 15.7003 15.9054 1.82413 0.340894 61.8067
11453971 12.8865 17.2918 15.6795 15.8292 1.84599 0.323516 61.687
11453987 12.9834 17.3112 15.6275 15.8387 1.83734 0.284559 61.7609
11453993 12.9834 17.3112 15.6275 15.8387 1.83734 0.284559 61.7609
11454001 12.9394 17.3209 15.6379 15.7816 1.83418 0.281916 61.6799
11454012 12.9394 17.3015 15.6795 15.8673 1.84094 0.317041 61.7877
11454022 12.9394 17.3015 15.6795 15.8673 1.84094 0.317041 61.7877
11454033 12.913 17.3404 15.7419 15.8102 1.8185 0.315201 61.8054
11454048 12.9482 17.3404 15.6899 15.8102 1.82578 0.294113 61.7887
11454055 12.9482 17.2529 15.6899 15.8863 1.8215 0.333908 61.7773
11454063 12.9394 17.2626 15.6899 15.8673 1.82183 0.329161 61.7592
11454076 12.9394 17.2626 15.6899 15.8673 1.82183 0.329161 61.7592
11454085 12.9306 17.2529 15.6587 15.8007 1.81053 0.310489 61.6428
11454098 12.9482 17.2431 15.7003 15.8292 1.79189 0.325225 61.7209
11454105 12.9482 17.2431 15.7003 15.8292 1.79189 0.325225 61.7209
11454114 12.9834 17.2431 15.7315 15.8197 1.7595 0.321634 61.7778
11454124 12.8689 17.2334 15.8563 15.8578 1.76572 0.391091 61.8164
11454133 12.8689 17.2334 15.8563 15.8578 1.76572 0.391091 61.8164
11454144 12.8865 17.1751 15.8459 15.953 1.77643 0.421252 61.8604
11454153 12.8865 17.1751 15.8459 15.953 1.77643 0.421252 61.8604
11454165 12.8777 17.1556 15.9083 15.9054 1.72806 0.431786 61.847
11454173 12.8865 17.1362 15.8667 15.8863 1.72774 0.420147 61.7757
11454194 12.9041 17.1848 15.8459 15.8483 1.73309 0.389721 61.7831
11454208 12.9041 17.1848 15.8459 15.8483 1.73309 0.389721 61.7831
11454215 12.8777 17.107 15.8667 15.9149 1.73132 0.436369 61.7663
11454225 12.8777 17.1362 15.8875 15.9149 1.73331 0.433983 61.8162
11454235 12.8777 17.1362 15.8875 15.9149 1.73331 0.433983 61.8162
11454245 12.8249 17.1167 15.8771 15.8959 1.7462 0.445118 61.7145
11454255 12.8513 17.0584 15.9394 15.9054 1.68934 0.47005 61.7545
11454265 12.8513 17.0584 15.9394 15.9054 1.68934 0.47005 61.7545
11454275 12.8513 17.107 15.9706 16.0196 1.73718 0.492012 61.9485
11454286 12.8161 17.0486 16.0122 16.0672 1.7304 0.536306 61.9441
11454296 12.8161 17.0486 16.0122 16.0672 1.7304 0.536306 61.9441
11454308 12.8073 17.0584 15.9914 16.0862 1.75398 0.535666 61.9433
11454317 12.8073 17.0584 15.9914 16.0862 1.75398 0.535666 61.9433
11454327 12.8073 17.0195 16.0018 16.0386 1.71698 0.536737 61.8672
11454339 12.8073 17.0875 15.9602 16.0386 1.76054 0.509929 61.8937
11454347 12.8073 17.0875 15.9602 16.0386 1.76054 0.509929 61.8937
11454366 12.7808 17.0389 15.9498 15.991 1.74029 0.515172 61.7606
11454367 12.8513 17.0875 15.8771 15.9815 1.75602 0.465982 61.7974
11454391 12.8249 17.0778 15.9498 15.972 1.72872 0.489898 61.8245
11454397 12.8249 17.0778 15.9498 15.972 1.72872 0.489898 61.8245
11454407 12.772 16.9724 15.9394 15.972 1.71635 0.527215 61.6558
11454420 12.8073 17.0292 15.981 15.9815 1.70812 0.516061 61.799
11454427 12.8073 17.0292 15.981 15.9815 1.70812 0.516061 61.799
11454443 12.7984 17 15.9914 16.0006 1.70361 0.532497 61.7904
11454448 12.7632 17 16.0226 16.1243 1.75192 0.577544 61.9101
11454469 12.8073 17 16.0226 16.0577 1.70785 0.550928 61.8876
11454478 12.7104 16.9447 16.085 16.0672 1.70553 0.60602 61.8073
11454500 12.7456 16.9816 16.0746 16.0672 1.70867 0.585421 61.869
11454510 12.7456 16.9816 16.0746 16.0672 1.70867 0.585421 61.869
11454520 12.7544 16.9355 16.0642 16.0957 1.70277 0.599037 61.8499
11454532 12.7632 16.9447 16.0018 16.0101 1.6971 0.559938 61.7199
11454540 12.7632 16.9447 16.0018 16.0101 1.6971 0.559938 61.7199
11454554 12.7368 16.9447 16.0226 16.0672 1.72107 0.584807 61.7714
11454560 12.7192 16.8895 16.0642 16.0482 1.68267 0.608475 61.721
11454570 12.7192 16.8895 16.0642 16.0482 1.68267 0.608475 61.721
11454580 12.728 16.9263 16.1474 16.1529 1.69632 0.640619 61.9546
11454600 12.6751 16.9079 16.085 16.1053 1.72122 0.633098 61.7733
11454610 12.6839 16.8434 16.2514 16.1053 1.62134 0.68578 61.884
11454620 12.6839 16.8434 16.2514 16.1053 1.62134 0.68578 61.884
11454631 12.6751 16.8987 16.2098 16.1338 1.67465 0.671001 61.9174
11454641 12.6751 16.8987 16.1058 16.1338 1.71952 0.646897 61.8135
11454650 12.6663 16.8434 16.1058 16.2004 1.72761 0.678585 61.816
11454663 12.6575 16.8342 16.189 16.1909 1.68844 0.700201 61.8717
11454689 12.6575 16.8342 16.189 16.1909 1.68844 0.700201 61.8717
11454692 12.5694 16.8066 16.189 16.21 1.72325 0.734015 61.775
11454693 12.6047 16.7974 16.2306 16.248 1.70093 0.745765 61.8807
11454716 12.6927 16.7698 16.2722 16.2004 1.61673 0.729014 61.9351
11454721 12.6311 16.7514 16.241 16.21 1.65333 0.744379 61.8334
11454731 12.6311 16.7514 16.241 16.21 1.65333 0.744379 61.8334
11454743 12.6399 16.7145 16.2826 16.3052 1.65364 0.782983 61.9421
11454752 12.6399 16.7145 16.2826 16.3052 1.65364 0.782983 61.9421
11454769 12.5694 16.6593 16.3242 16.2576 1.62725 0.813702 61.8104
11454772 12.5606 16.6224 16.3554 16.3337 1.63246 0.849981 61.8721
11454782 12.5606 16.6224 16.3554 16.3337 1.63246 0.849981 61.8721
11454793 12.5342 16.6501 16.3761 16.3813 1.66326 0.865297 61.9417
11454802 12.5342 16.6501 16.4281 16.3813 1.6409 0.877149 61.9937
11454817 12.5166 16.5764 16.4281 16.4099 1.63146 0.907066 61.931
11454822 12.4373 16.6408 16.4593 16.4003 1.67287 0.915801 61.9378
11454832 12.4373 16.6408 16.4593 16.4003 1.67287 0.915801 61.9378
11454843 12.4813 16.5856 16.5009 16.4099 1.6188 0.930296 61.9777
11454852 12.4902 16.5488 16.4801 16.4194 1.61364 0.934941 61.9384
11454872 12.5606 16.6224 16.4801 16.4099 1.6076 0.895783 62.073
11454887 12.5606 16.6224 16.4801 16.4099 1.6076 0.895783 62.073
11454892 12.4461 16.4935 16.4281 16.3718 1.61608 0.937884 61.7395
11454914 12.4549 16.5027 16.4697 16.5431 1.66256 0.981567 61.9705
11454915 12.4549 16.5027 16.4697 16.5431 1.66256 0.981567 61.9705
11454923 12.4197 16.4659 16.3969 16.467 1.6665 0.966409 61.7495
11454935 12.4373 16.5395 16.5009 16.4384 1.63113 0.959963 61.9162
11454945 12.4373 16.5395 16.5009 16.4384 1.63113 0.959963 61.9162
11454959 12.4549 16.5672 16.4281 16.4765 1.67965 0.940431 61.9267
11454965 12.4021 16.5395 16.4177 16.467 1.69293 0.956653 61.8263
11454975 12.4021 16.5395 16.4177 16.467 1.69293 0.956653 61.8263
11454985 12.4725 16.6224 16.3657 16.4574 1.71258 0.903184 61.9182
11454995 12.4725 16.6224 16.3657 16.4574 1.71258 0.903184 61.9182
11455006 12.4902 16.604 16.293 16.3908 1.70437 0.871578 61.7779
11455015 12.4549 16.6961 16.2826 16.3908 1.75878 0.854605 61.8244
11455027 12.4549 16.6961 16.2826 16.3908 1.75878 0.854605 61.8244
11455035 12.4902 16.6593 16.189 16.3718 1.76304 0.829203 61.7102
11455048 12.5342 16.7145 16.189 16.3432 1.754 0.797213 61.7809
11455055 12.5342 16.7145 16.189 16.3432 1.754 0.797213 61.7809
11455069 12.5694 16.7698 16.1578 16.2861 1.75155 0.753776 61.7831
11455075 12.5694 16.7698 16.1578 16.2861 1.75155 0.753776 61.7831
11455085 12.5782 16.7974 16.137 16.2671 1.75998 0.735301 61.7797
11455095 12.6135 16.8711 16.0226 16.2671 1.82198 0.681151 61.7742
11455108 12.6135 16.8711 16.0226 16.2671 1.82198 0.681151 61.7742
11455125 12.6751 16.9171 15.8459 16.229 1.87504 0.603878 61.6671
11455136 12.728 16.9816 15.8459 16.1148 1.83335 0.547532 61.6702
11455145 12.7368 17.0875 15.8459 16.0957 1.86211 0.51419 61.7659
11455165 12.7456 17.1264 15.8147 16.0767 1.8793 0.490428 61.7634
11455175 12.7808 17.1945 15.8355 16.0957 1.8875 0.473911 61.9066
11455185 12.7808 17.1945 15.8355 16.0957 1.8875 0.473911 61.9066
11455195 12.8161 17.2237 15.7835 16.0957 1.90567 0.445619 61.919
11455215 12.8161 17.2626 15.7419 15.9434 1.88139 0.390202 61.764
11455227 12.9041 17.3015 15.7003 15.9149 1.86504 0.342014 61.8208
11455236 12.9041 17.3015 15.7003 15.9149 1.86504 0.342014 61.8208
11455247 12.913 17.2918 15.5651 15.7912 1.87003 0.280595 61.561
11455256 12.913 17.3598 15.5651 15.7245 1.87057 0.247765 61.5625
11455268 12.913 17.3598 15.5651 15.7245 1.87057 0.247765 61.5625
11455276 12.9394 17.4182 15.4924 15.7721 1.93055 0.220757 61.622
11455290 12.9482 17.3307 15.5443 15.715 1.84972 0.238997 61.5382
11455296 12.9482 17.3307 15.5443 15.715 1.84972 0.238997 61.5382
11455313 12.9834 17.4474 15.6067 15.7531 1.86529 0.225525 61.7906
11455320 12.9834 17.4474 15.6067 15.7531 1.86529 0.225525 61.7906
11455328 13.0451 17.4182 15.5339 15.7531 1.8592 0.200102 61.7503
11455338 13.0363 17.5738 15.5132 15.715 1.91604 0.149928 61.8382
11455350 13.0363 17.5738 15.5132 15.715 1.91604 0.149928 61.8382
11455357 13.1332 17.6127 15.4404 15.6008 1.8774 0.0716883 61.787
11455367 13.1067 17.6322 15.3884 15.5722 1.90815 0.0539035 61.6995
11455378 13.1067 17.6322 15.3884 15.5722 1.90815 0.0539035 61.6995
11455388 13.1596 17.7002 15.326 15.5532 1.93065 0.00470459 61.739
11455399 13.1596 17.7002 15.326 15.5532 1.93065 0.00470459 61.739
11455410 13.1596 17.6419 15.2948 15.5627 1.926 0.0136346 61.659
11455423 13.2036 17.7002 15.2532 15.4961 1.92183 -0.0376046 61.6531
11455428 13.2036 17.7002 15.2532 15.4961 1.92183 -0.0376046 61.6531
11455439 13.2124 17.7975 15.1908 15.458 1.96737 -0.0878432 61.6588
11455449 13.2212 17.7586 15.2012 15.4199 1.93018 -0.0873372 61.601
11455460 13.2212 17.7586 15.2012 15.4199 1.93018 -0.0873372 61.601
11455473 13.2829 17.8169 15.1908 15.3914 1.91895 -0.125879 61.682
11455478 13.2829 17.8169 15.1908 15.3914 1.91895 -0.125879 61.682
11455488 13.3005 17.885 15.2116 15.3343 1.9063 -0.155425 61.7314
11455498 13.3358 17.9531 15.118 15.2962 1.94297 -0.212617 61.7031
11455508 13.3358 17.9531 15.118 15.2962 1.94297 -0.212617 61.7031
11455520 13.3534 18.0212 15.118 15.2105 1.9287 -0.254273 61.7031
11455530 13.3446 17.9725 15.0972 15.2772 1.94836 -0.229212 61.6915
11455550 13.4062 18.0892 15.0661 15.1915 1.94665 -0.300694 61.753
11455562 13.4062 18.0892 15.0661 15.1915 1.94665 -0.300694 61.753
11455571 13.371 18.0892 15.0141 15.1629 1.9741 -0.312285 61.6372
11455580 13.371 18.2059 15.0037 15.1629 2.02217 -0.342626 61.7435
11455596 13.371 18.2059 15.0037 15.1629 2.02217 -0.342626 61.7435
11455600 13.415 18.2059 14.9309 15.0677 1.99927 -0.394925 61.6196
11455610 13.4503 18.2157 14.8893 15.0582 2.00214 -0.418353 61.6135
11455631 13.5119 18.2935 14.8789 14.9916 1.98386 -0.47058 61.6759
11455647 13.5119 18.2935 14.8789 14.9916 1.98386 -0.47058 61.6759
11455651 13.4943 18.3032 14.7749 14.9155 2.01236 -0.514035 61.4879
11455661 13.5912 18.4296 14.8685 14.8774 1.96195 -0.55247 61.7667
11455673 13.5912 18.4296 14.8685 14.8774 1.96195 -0.55247 61.7667
11455681 13.5648 18.488 14.7437 14.8488 2.03921 -0.598633 61.6453
11455698 13.6 18.4977 14.8269 14.7632 1.95904 -0.609758 61.6878
11455701 13.6 18.4977 14.8269 14.7632 1.95904 -0.609758 61.6878
11455711 13.5912 18.4977 14.7853 14.7917 1.99175 -0.611002 61.6659
11455723 13.556 18.4296 14.7021 14.7441 2.00045 -0.620036 61.4319
11455732 13.556 18.4296 14.7021 14.7441 2.00045 -0.620036 61.4319
11455748 13.5648 18.488 14.9205 14.8393 1.95836 -0.55643 61.8125
11455752 13.5648 18.488 14.9205 14.8393 1.95836 -0.55643 61.8125
11455762 13.5736 18.4491 14.8789 14.7822 1.93682 -0.574275 61.6838
11455773 13.5736 18.4491 14.8997 14.8108 1.93841 -0.561825 61.7331
11455782 13.5736 18.4491 14.8997 14.8108 1.93841 -0.561825 61.7331
11455795 13.5648 18.4102 14.9933 14.7632 1.86911 -0.539074 61.7314
11455802 13.5648 18.4102 14.9933 14.7632 1.86911 -0.539074 61.7314
11455812 13.5648 18.3616 14.9621 14.8869 1.9108 -0.504412 61.7753
11455822 13.5912 18.2838 15.0037 14.8583 1.84138 -0.489074 61.737
11455836 13.5912 18.2838 15.0037 14.8583 1.84138 -0.489074 61.737
11455842 13.5912 18.2449 14.9933 14.7917 1.80624 -0.499276 61.621
11455852 13.6 18.1573 15.1076 14.8488 1.7413 -0.43771 61.7138
11455862 13.6 18.1573 15.1076 14.8488 1.7413 -0.43771 61.7138
11455879 13.5824 18.1281 15.1908 14.8964 1.71987 -0.394016 61.7978
11455882 13.5824 18.1281 15.1908 14.8964 1.71987 -0.394016 61.7978
11455892 13.5207 18.1476 15.222 14.8679 1.72961 -0.383377 61.7582
11455903 13.5824 18.0892 15.274 14.8869 1.66569 -0.366487 61.8325
11455914 13.5824 18.0892 15.274 14.8869 1.66569 -0.366487 61.8325
11455923 13.5119 18.0698 15.2948 14.7917 1.64379 -0.363688 61.6682
11455934 13.5295 17.9725 15.4196 14.9059 1.58884 -0.285447 61.8276
11455962 13.5383 17.9239 15.3468 14.8488 1.57628 -0.308146 61.6579
11455974 13.5472 17.8072 15.3884 14.8203 1.49926 -0.279154 61.563
11455985 13.4855 17.8072 15.43 14.9059 1.54055 -0.232878 61.6286
11455998 13.4855 17.8072 15.43 14.9059 1.54055 -0.232878 61.6286
11456005 13.4591 17.7975 15.5132 14.944 1.52692 -0.194297 61.7137
11456015 13.4943 17.7197 15.5547 14.9345 1.46067 -0.176185 61.7032
11456035 13.4679 17.7197 15.5963 15.1439 1.53379 -0.108351 61.9278
11456045 13.4679 17.7197 15.5963 15.1439 1.53379 -0.108351 61.9278
11456055 13.3974 17.6419 15.7003 15.0677 1.46095 -0.065825 61.8073
11456065 13.4326 17.5835 15.7523 15.1534 1.43407 -0.0267577 61.9219
11456075 13.4326 17.5835 15.7523 15.1534 1.43407 -0.0267577 61.9219
11456085 13.3798 17.4668 15.7731 15.1249 1.39235 0.0124723 61.7446
11456095 13.3269 17.4571 15.8459 15.1725 1.3983 0.0568628 61.8024
11456106 13.3269 17.4571 15.8459 15.1725 1.3983 0.0568628 61.8024
11456116 13.3005 17.4182 15.8771 15.1344 1.36683 0.0711322 61.7301
11456132 13.1948 17.1653 15.8875 15.2105 1.33977 0.180084 61.4581
11456136 13.1948 17.1653 15.8875 15.2105 1.33977 0.180084 61.4581
11456146 13.2389 17.1556 16.0642 15.2772 1.26737 0.230071 61.7358
11456166 13.1155 17.0486 16.0954 15.4104 1.31672 0.326332 61.67
11456179 13.0979 16.9908 16.1994 15.5437 1.30885 0.401334 61.8318
11456196 13.0891 16.9447 16.189 15.5627 1.30667 0.417048 61.7856
11456207 13.0715 16.9632 16.293 15.6865 1.32435 0.470397 62.0141
11456217 13.0715 16.9632 16.293 15.6865 1.32435 0.470397 62.0141
11456227 13.0979 16.9816 16.2826 15.7055 1.33184 0.461243 62.0676
11456247 13.0098 16.9171 16.2306 15.6293 1.33767 0.469263 61.7869
11456257 12.9306 16.9724 16.1786 15.6865 1.43669 0.476485 61.768
11456269 12.9306 16.9724 16.1786 15.6865 1.43669 0.476485 61.768
11456278 13.0539 16.9447 16.137 15.6769 1.38758 0.440517 61.8126
11456294 12.9306 16.9447 16.137 15.6389 1.42577 0.462409 61.6512
11456298 12.9306 16.9447 16.137 15.6389 1.42577 0.462409 61.6512
11456308 13.001 16.9079 16.1786 15.6484 1.36738 0.466023 61.7359
11456319 13.001 16.9079 16.1786 15.6484 1.36738 0.466023 61.7359
11456329 12.9306 16.8803 16.137 15.7055 1.4266 0.49429 61.6533
11456342 12.9306 16.8434 16.1994 15.8483 1.44033 0.551661 61.8217
11456349 12.9306 16.8434 16.1994 15.8483 1.44033 0.551661 61.8217
11456366 12.8777 16.8987 16.2306 15.8768 1.48149 0.565004 61.8838
11456368 12.9041 16.8434 16.2722 15.9434 1.45674 0.597458 61.9632
11456378 12.9041 16.8434 16.2722 15.9434 1.45674 0.597458 61.9632
11456390 12.9482 16.9171 16.1682 16.0101 1.53554 0.559198 62.0436
11456400 12.9482 16.9171 16.1682 16.0101 1.53554 0.559198 62.0436
11456413 12.8513 16.8434 16.1266 15.9339 1.53812 0.574638 61.7553
11456420 12.8777 16.8527 16.0954 16.0386 1.58336 0.58281 61.8644
11456430 12.8777 16.8527 16.0954 16.0386 1.58336 0.58281 61.8644
11456440 12.8161 16.825 16.0538 16.0291 1.61374 0.593412 61.724
11456450 12.8161 16.8895 15.9706 16.1053 1.70279 0.575502 61.7815
11456470 12.8337 16.9263 16.0746 16.0672 1.64987 0.577156 61.9018
11456490 12.772 16.8711 15.9291 16.0957 1.72932 0.579321 61.6679
11456501 12.7544 16.9079 16.0122 16.1243 1.72559 0.60055 61.7988
11456510 12.7544 16.9079 16.0122 16.1243 1.72559 0.60055 61.7988
11456520 12.7456 16.9079 16.0018 16.1624 1.74822 0.609217 61.8177
11456534 12.8161 16.9816 15.8979 16.1719 1.79398 0.550883 61.8674
11456541 12.8161 16.9816 15.8979 16.1719 1.79398 0.550883 61.8674
11456558 12.7368 16.9632 15.9187 16.1529 1.80528 0.575886 61.7715
11456561 12.7368 16.9632 15.9187 16.1529 1.80528 0.575886 61.7715
11456571 12.8161 17.0195 15.8771 16.1148 1.79577 0.523149 61.8274
11456582 12.8337 17.0973 15.7315 16.1433 1.89117 0.471777 61.8058
11456591 12.8337 17.0973 15.7315 16.1433 1.89117 0.471777 61.8058
11456611 12.8425 17.0584 15.7211 16.1529 1.88087 0.479107 61.7748
11456612 12.8865 17.1751 15.6483 16.0767 1.90855 0.403835 61.7866
11456621 12.8865 17.1751 15.6483 16.0767 1.90855 0.403835 61.7866
11456631 12.8689 17.214 15.6587 16.0767 1.92623 0.400987 61.8183
11456641 12.8689 17.214 15.6587 16.0767 1.92623 0.400987 61.8183
11456656 12.8513 17.1945 15.5963 16.0482 1.94319 0.388718 61.6903
11456661 12.913 17.2723 15.5755 16.0386 1.95085 0.346826 61.7994
11456671 12.913 17.2723 15.5755 16.0386 1.95085 0.346826 61.7994
11456681 12.9834 17.3501 15.4612 15.9244 1.95642 0.255684 61.7191
11456691 13.001 17.3404 15.4196 15.953 1.97392 0.250618 61.714
11456704 13.001 17.3404 15.4196 15.953 1.97392 0.250618 61.714
11456711 13.0275 17.496 15.3676 15.972 2.05008 0.197888 61.863
11456721 13.0275 17.496 15.3676 15.972 2.05008 0.197888 61.863
11456731 13.1067 17.603 15.2636 15.8768 2.06525 0.104458 61.8501
11456741 13.0803 17.6613 15.2324 15.7055 2.04853 0.0477308 61.6795
11456754 13.0803 17.6613 15.2324 15.7055 2.04853 0.0477308 61.6795
11456761 13.186 17.7002 15.1388 15.6484 2.03643 -0.0240844 61.6735
11456781 13.1684 17.7294 15.1284 15.6008 2.04186 -0.0410306 61.627
11456791 13.2036 17.8267 15.0453 15.5627 2.08494 -0.102773 61.6383
11456803 13.2036 17.8267 15.0453 15.5627 2.08494 -0.102773 61.6383
11456812 13.2741 17.8364 15.0557 15.5342 2.04245 -0.126578 61.7003
11456827 13.2741 17.8656 15.0245 15.5627 2.07759 -0.134257 61.7268
11456832 13.2741 17.8656 15.0245 15.5627 2.07759 -0.134257 61.7268
11456842 13.3181 17.8364 15.0557 15.5246 2.01962 -0.139521 61.7348
11456853 13.2829 17.8364 15.0141 15.5817 2.07452 -0.127232 61.7151
11456862 13.2829 17.885 15.0141 15.5817 2.09257 -0.13894 61.7637
11456876 13.3446 17.8364 15.0453 15.5437 2.01969 -0.143762 61.7699
11456892 13.2829 17.8558 14.9621 15.4961 2.07272 -0.165732 61.5969
11456903 13.2917 17.8072 15.0037 15.439 2.01116 -0.159961 61.5416
11456913 13.2917 17.8072 15.0037 15.439 2.01116 -0.159961 61.5416
11456923 13.3269 17.8072 14.9621 15.4675 2.02461 -0.171663 61.5638
11456933 13.3269 17.8947 15.0245 15.4961 2.0405 -0.170337 61.7422
11456949 13.3269 17.8947 15.0245 15.4961 2.0405 -0.170337 61.7422
11456954 13.3005 17.8364 15.0557 15.477 2.0096 -0.14696 61.6696
11456974 13.2565 17.778 15.0765 15.5437 2.02287 -0.100815 61.6546
11456983 13.2212 17.7489 15.2116 15.6769 2.01788 -0.0197741 61.8587
11456997 13.2212 17.7489 15.2116 15.6769 2.01788 -0.0197741 61.8587
11457003 13.2741 17.7391 15.17 15.6389 1.99519 -0.0495788 61.8221
11457015 13.2477 17.6613 15.2532 15.696 1.96272 0.00974357 61.8582
11457025 13.2477 17.6613 15.2532 15.696 1.96272 0.00974357 61.8582
11457035 13.2212 17.71 15.2532 15.6484 1.97463 -0.00718296 61.8328
11457045 13.2212 17.71 15.2532 15.6484 1.97463 -0.00718296 61.8328
11457055 13.2124 17.6419 15.274 15.6103 1.9298 0.00728846 61.7386
11457065 13.2036 17.5446 15.2532 15.6008 1.90276 0.0257492 61.6022
11457075 13.2036 17.5446 15.2532 15.6008 1.90276 0.0257492 61.6022
11457085 13.1948 17.5933 15.222 15.5151 1.90634 -0.0124168 61.5252
11457105 13.2124 17.5543 15.2428 15.6484 1.92492 0.0302643 61.658
11457117 13.2477 17.603 15.2844 15.6484 1.9096 0.0199413 61.7834
11457125 13.2477 17.603 15.2844 15.6484 1.9096 0.0199413 61.7834
11457136 13.2301 17.5543 15.3364 15.5817 1.85148 0.0325119 61.7025
11457146 13.2301 17.5543 15.2948 15.6769 1.90524 0.045501 61.7561
11457156 13.2301 17.5543 15.2948 15.6769 1.90524 0.045501 61.7561
11457168 13.3181 17.5933 15.3156 15.6198 1.85108 0.00582933 61.8468
11457176 13.2565 17.5933 15.274 15.6103 1.89242 0.00840247 61.734
11457196 13.2917 17.603 15.3468 15.6103 1.84909 0.0151348 61.8518
11457218 13.2653 17.5933 15.3052 15.5246 1.84289 -0.00697911 61.6884
11457227 13.3181 17.6419 15.2844 15.5342 1.85076 -0.0343457 61.7786
11457236 13.3181 17.6419 15.2844 15.5342 1.85076 -0.0343457 61.7786
11457260 13.2653 17.5738 15.1908 15.477 1.86757 -0.0417548 61.507
11457261 13.3181 17.6808 15.2324 15.439 1.85227 -0.0796634 61.6703
11457267 13.3181 17.6808 15.2324 15.439 1.85227 -0.0796634 61.6703
11457284 13.3358 17.6224 15.222 15.5246 1.85937 -0.0514188 61.7048
11457299 13.2741 17.6127 15.2012 15.477 1.8738 -0.0508055 61.5651
11457310 13.3358 17.6905 15.2428 15.5151 1.87227 -0.0651446 61.7842
11457319 13.3358 17.6905 15.2428 15.5151 1.87227 -0.0651446 61.7842
11457327 13.3358 17.6127 15.2532 15.4675 1.8207 -0.0553876 61.6692
11457339 13.3269 17.7002 15.2532 15.439 1.84668 -0.0814149 61.7194
11457348 13.3269 17.7002 15.2532 15.439 1.84668 -0.0814149 61.7194
11457361 13.3358 17.7294 15.1804 15.4009 1.8712 -0.117726 61.6465
11457368 13.3358 17.7294 15.1804 15.4009 1.8712 -0.117726 61.6465
11457378 13.3622 17.7197 15.1076 15.4009 1.88778 -0.139627 61.5904
11457389 13.371 17.7294 15.0869 15.4009 1.89666 -0.14921 61.5881
11457409 13.3886 17.7878 15.1388 15.3247 1.85962 -0.173453 61.6399
11457418 13.4503 17.8461 15.118 15.2581 1.83872 -0.223812 61.6725
11457431 13.4503 17.8461 15.118 15.2581 1.83872 -0.223812 61.6725
11457440 13.4679 17.885 15.1388 15.201 1.81517 -0.246311 61.6927
11457455 13.4943 17.885 15.1076 15.201 1.81724 -0.260341 61.688
11457460 13.4943 17.8558 15.1076 15.2296 1.81701 -0.246305 61.6873
11457470 13.4767 17.8656 15.0453 15.2867 1.87692 -0.245722 61.6742
11457490 13.4679 17.8461 15.0972 15.1915 1.81505 -0.249643 61.6027
11457501 13.4943 17.8461 15.118 15.3152 1.84099 -0.220272 61.7737
11457510 13.4943 17.8461 15.118 15.3152 1.84099 -0.220272 61.7737
11457524 13.6088 17.8656 15.1492 15.2486 1.76013 -0.26099 61.8722
11457531 13.5824 17.8656 15.0557 15.1915 1.79066 -0.291951 61.6951
11457540 13.5824 17.8461 15.0557 15.1915 1.78334 -0.287313 61.6756
11457550 13.6529 17.8267 15.1492 15.1344 1.68343 -0.290439 61.7631
11457560 13.6529 17.8267 15.1492 15.1344 1.68343 -0.290439 61.7631
11457570 13.644 17.8656 15.0141 15.1344 1.76045 -0.331139 61.6581
11457580 13.5648 17.8753 14.9517 15.1439 1.82932 -0.327731 61.5356
11457601 13.6352 17.9045 14.9621 15.1534 1.80867 -0.346492 61.6552
11457614 13.6352 17.9045 14.9621 15.1534 1.80867 -0.346492 61.6552
11457621 13.5912 17.9045 15.0349 15.1058 1.77826 -0.329749 61.6363
11457637 13.6352 17.8753 15.0557 15.1439 1.75348 -0.31866 61.7101
11457641 13.6352 17.8753 15.0557 15.1439 1.75348 -0.31866 61.7101
11457651 13.5824 17.8656 15.0869 15.0963 1.74126 -0.307829 61.6311
11457661 13.6176 17.8656 15.1076 15.1439 1.73492 -0.299257 61.7347
11457681 13.5824 17.8461 15.118 15.1249 1.73117 -0.288364 61.6714
11457691 13.5824 17.8461 15.118 15.1249 1.73117 -0.288364 61.6714
11457703 13.5472 17.8072 15.0661 15.1725 1.77231 -0.271749 61.5929
11457712 13.5472 17.8169 15.0557 15.182 1.78408 -0.27429 61.6017
11457727 13.5472 17.8169 15.0557 15.182 1.78408 -0.27429 61.6017
11457732 13.5031 17.8364 15.0972 15.1725 1.78889 -0.260463 61.6092
11457752 13.4855 17.778 15.1492 15.2486 1.78066 -0.210591 61.6614
11457754 13.4855 17.778 15.1492 15.2486 1.78066 -0.210591 61.6614
11457762 13.4679 17.7586 15.1596 15.2867 1.7908 -0.189747 61.6728
11457778 13.4679 17.7683 15.2532 15.2772 1.75029 -0.171407 61.7666
11457783 13.4679 17.7683 15.2532 15.2772 1.75029 -0.171407 61.7666
11457792 13.3974 17.71 15.2636 15.3628 1.7866 -0.116857 61.7338
11457805 13.3974 17.71 15.2636 15.3628 1.7866 -0.116857 61.7338
11457812 13.3974 17.6516 15.3052 15.3533 1.74302 -0.0949252 61.7075
11457830 13.3974 17.5933 15.3052 15.3723 1.72819 -0.0761631 61.6682
11457832 13.3974 17.5933 15.3052 15.3723 1.72819 -0.0761631 61.6682
11457842 13.371 17.5835 15.3364 15.3914 1.72964 -0.0551391 61.6823
11457855 13.371 17.5835 15.3364 15.3914 1.72964 -0.0551391 61.6823
11457863 13.2917 17.496 15.4612 15.4866 1.71283 0.0388795 61.7354
11457872 13.3446 17.4765 15.482 15.5151 1.68443 0.042699 61.8182
11457891 13.3446 17.4765 15.482 15.5151 1.68443 0.042699 61.8182
11457894 13.2653 17.3987 15.5443 15.4866 1.65155 0.0891995 61.6949
11457904 13.1508 17.3209 15.6171 15.5817 1.67616 0.176865 61.6706
11457915 13.1508 17.3209 15.6171 15.5817 1.67616 0.176865 61.6706
11457925 13.2036 17.2918 15.6795 15.696 1.65853 0.21337 61.8709
11457935 13.142 17.2529 15.7627 15.7721 1.66331 0.276116 61.9296
11457948 13.142 17.2529 15.7627 15.7721 1.66331 0.276116 61.9296
11457956 13.1596 17.2042 15.7627 15.8578 1.66967 0.304107 61.9843
11457965 13.1596 17.2042 15.7627 15.8578 1.66967 0.304107 61.9843
11457975 13.0715 17.107 15.7835 15.8102 1.64402 0.34365 61.7722
11457985 13.0363 17.0778 15.8251 15.8673 1.65183 0.383044 61.8064
11458006 13.0627 17.0681 15.7731 15.8483 1.65199 0.362071 61.7521
11458016 12.9394 17.0584 15.7939 15.8578 1.69623 0.402421 61.6494
11458026 12.9394 17.0584 15.7939 15.8578 1.69623 0.402421 61.6494
11458036 12.957 17.0097 15.8875 15.9054 1.64778 0.443521 61.7596
11458046 12.957 17.0097 15.8875 15.9054 1.64778 0.443521 61.7596
11458058 12.957 17 15.8563 15.9244 1.66476 0.44309 61.7377
11458070 12.913 16.9724 15.8979 16.0386 1.69851 0.497679 61.8218
11458076 12.913 16.9724 15.8979 16.0386 1.69851 0.497679 61.8218
11458086 12.9306 16.9632 15.9083 16.0006 1.66858 0.489078 61.8026
11458096 12.8425 17.0292 15.8875 16.0386 1.75486 0.498666 61.7978
11458116 12.8865 17 15.8875 16.1053 1.74989 0.510558 61.8793
11458126 12.8865 17 15.8875 16.1053 1.74989 0.510558 61.8793
11458139 12.8953 17.0195 15.8355 16.0577 1.75799 0.480123 61.8079
11458146 12.8865 17.107 15.7003 16.0386 1.84619 0.424113 61.7324
11458167 12.9041 17.1556 15.7003 16.0482 1.86031 0.409825 61.8082
11458177 12.8953 17.1167 15.6899 16.0196 1.84338 0.412529 61.7215
11458187 12.8953 17.1167 15.6899 16.0196 1.84338 0.412529 61.7215
11458197 12.8953 17.1459 15.7419 16.0196 1.83173 0.417525 61.8027
11458211 12.8953 17.1459 15.7419 16.0196 1.83173 0.417525 61.8027
11458217 12.772 17.1167 15.7835 16.0482 1.86703 0.472189 61.7204
11458227 12.8601 17.1167 15.8251 16.1148 1.83566 0.475572 61.9167
11458237 12.8601 17.1167 15.8251 16.1148 1.83566 0.475572 61.9167
11458247 12.8249 17.1264 15.7523 16.0577 1.86482 0.451414 61.7613
11458258 12.8425 17.0875 15.7731 16.0767 1.84068 0.46612 61.7798
11458270 12.8425 17.0875 15.7731 16.0767 1.84068 0.46612 61.7798
11458281 12.9041 17.1556 15.6587 16.0386 1.87484 0.39775 61.7571
11458287 12.9041 17.1556 15.6587 16.0386 1.87484 0.39775 61.7571
11458297 12.913 17.1653 15.6379 15.991 1.86587 0.376943 61.7072
11458307 12.9394 17.1459 15.6171 15.9625 1.8454 0.363502 61.6649
11458317 12.9394 17.1459 15.6171 15.9625 1.8454 0.363502 61.6649
11458329 12.9394 17.2529 15.5755 15.953 1.90006 0.324753 61.7207
11458337 12.9482 17.1848 15.6275 15.9434 1.8445 0.349574 61.7039
11458359 12.8777 17.1945 15.7315 16.0196 1.86211 0.407338 61.8233
11458369 12.8777 17.1945 15.7315 16.0196 1.86211 0.407338 61.8233
11458381 12.957 17.2042 15.7107 15.9434 1.81184 0.36227 61.8154
11458389 12.9306 17.282 15.6379 15.9054 1.86983 0.323213 61.7559
11458402 12.9306 17.282 15.6379 15.9054 1.86983 0.323213 61.7559
11458409 12.9922 17.2626 15.5859 15.9244 1.86547 0.304912 61.7652
11458425 13.0627 17.3404 15.5132 15.8387 1.86353 0.230463 61.755
11458430 13.0627 17.3404 15.5132 15.8387 1.86353 0.230463 61.755
11458440 13.0979 17.389 15.482 15.7912 1.86216 0.190941 61.7601
11458450 13.0979 17.389 15.482 15.7912 1.86216 0.190941 61.7601
11458460 13.0539 17.3307 15.5235 15.8292 1.85563 0.235246 61.7373
11458473 13.0539 17.4182 15.5235 15.7531 1.85989 0.195442 61.7487
11458480 13.0539 17.4182 15.5235 15.7531 1.85989 0.195442 61.7487
11458490 13.1155 17.4279 15.43 15.7436 1.87386 0.153134 61.717
11458500 13.1508 17.4182 15.4508 15.8007 1.86723 0.165592 61.8204
11458510 13.1508 17.4182 15.4508 15.8007 1.86723 0.165592 61.8204
11458529 13.1244 17.4668 15.3572 15.7531 1.91987 0.126196 61.7014
11458530 13.1244 17.4668 15.3572 15.7531 1.91987 0.126196 61.7014
11458545 13.1508 17.4668 15.326 15.7055 1.90414 0.100704 61.6491
11458551 13.1596 17.5738 15.2948 15.6484 1.93258 0.051021 61.6766
11458561 13.1596 17.5738 15.2948 15.6484 1.93258 0.051021 61.6766
11458571 13.1684 17.5835 15.2948 15.6293 1.92525 0.0418872 61.6761
11458590 13.1772 17.5154 15.2948 15.6008 1.88519 0.049426 61.5882
11458592 13.1772 17.5154 15.2948 15.6008 1.88519 0.049426 61.5882
11458601 13.186 17.5446 15.3572 15.6865 1.89718 0.0760031 61.7743
