6110383 8.64974 11.4561 19.9137 20.1662 1.27059 4.9781 60.1858
6110385 8.63212 11.4285 19.9629 20.1662 1.2459 5.00131 60.1898
6110387 8.68497 11.4377 19.9531 20.0688 1.19229 4.96284 60.1445
6110447 8.68497 11.4377 19.9531 20.0688 1.19229 4.96284 60.1445
6110448 8.72902 11.4377 19.9236 19.9908 1.15509 4.93025 60.0811
6110512 8.74663 11.4745 19.8153 19.9713 1.2015 4.89073 60.0078
6110513 8.80829 11.493 19.894 19.8934 1.1167 4.86436 60.0887
6110579 8.90518 11.5482 19.8842 19.8447 1.08152 4.80428 60.1823
6110581 9.00207 11.585 19.7562 19.8642 1.11736 4.74192 60.2075
6110584 8.97565 11.6035 19.7661 19.796 1.10479 4.73459 60.1412
6110638 8.97565 11.6035 19.7661 19.796 1.10479 4.73459 60.1412
6110640 8.98446 11.6403 19.7365 19.6693 1.07805 4.69288 60.0306
6110702 9.03731 11.6127 19.7956 19.5719 0.979587 4.67802 60.0175
6110703 8.99326 11.6403 19.7661 19.6986 1.07305 4.70007 60.0982
6110766 8.98446 11.6311 19.894 19.7278 1.02943 4.73285 60.2374
6110768 8.98446 11.6311 19.894 19.7278 1.02943 4.73285 60.2374
6110829 8.79948 11.5298 19.9039 19.7278 1.06495 4.82874 59.9609
6110830 8.79948 11.5298 19.9039 19.7278 1.06495 4.82874 59.9609
6110893 8.67617 11.4653 20.15 19.9713 1.08298 4.97317 60.2628
6110896 8.65855 11.4469 20.1893 19.9616 1.06238 4.99005 60.2564
6110957 8.50881 11.3732 20.2583 20.059 1.10683 5.09189 60.1993
6110959 8.50881 11.3732 20.2583 20.059 1.10683 5.09189 60.1993
6111021 8.44715 11.3456 20.337 20.098 1.10392 5.14104 60.2278
6111022 8.44715 11.318 20.3961 20.0785 1.05963 5.15676 60.2397
6111084 8.42073 11.2443 20.3075 20.098 1.08793 5.17902 60.0705
6111087 8.37668 11.2535 20.337 20.098 1.0979 5.19555 60.0652
6111094 8.41192 11.2351 20.4551 20.1077 1.02799 5.21073 60.2099
6111104 8.41192 11.2351 20.4551 20.1077 1.02799 5.21073 60.2099
6111114 8.48238 11.2811 20.3764 20.098 1.04601 5.15726 60.2379
6111127 8.42073 11.3088 20.3665 20.1077 1.09182 5.16864 60.2038
6111135 8.42073 11.3088 20.3665 20.1077 1.09182 5.16864 60.2038
6111144 8.44715 11.2811 20.3862 20.0785 1.04924 5.16748 60.193
6111156 8.44715 11.2811 20.3862 20.0785 1.04924 5.16748 60.193
6111165 8.49119 11.2351 20.4059 20.098 1.01112 5.17455 60.2302
6111176 8.45596 11.2259 20.3961 20.137 1.04245 5.19419 60.2149
6111185 8.45596 11.2259 20.3961 20.137 1.04245 5.19419 60.2149
6111196 8.3943 11.2259 20.4158 20.1272 1.05674 5.21651 60.1632
6111207 8.45596 11.2811 20.3961 20.059 1.03342 5.16296 60.1922
6111215 8.45596 11.2811 20.3961 20.059 1.03342 5.16296 60.1922
6111228 8.54404 11.3088 20.4256 20.059 0.993648 5.1291 60.3374
6111237 8.54404 11.3088 20.4256 20.059 0.993648 5.1291 60.3374
6111245 8.49119 11.2535 20.3272 20.0493 1.0331 5.14754 60.1212
6111255 8.57047 11.2904 20.2976 20.0395 1.02238 5.10225 60.198
6111265 8.57047 11.2904 20.2976 20.0395 1.02238 5.10225 60.198
6111275 8.54404 11.3364 20.337 19.9811 1.01184 5.09256 60.1985
6111285 8.62332 11.364 20.2287 19.9713 1.03151 5.03745 60.1874
6111297 8.62332 11.364 20.2287 19.9713 1.03151 5.03745 60.1874
6111308 8.62332 11.4009 20.2287 19.9032 1.01901 5.01388 60.1561
6111317 8.62332 11.4009 20.2287 19.9032 1.01901 5.01388 60.1561
6111327 8.67617 11.4009 20.1697 19.8544 1.00226 4.97838 60.1011
6111339 8.7114 11.4009 20.15 19.8057 0.976071 4.95525 60.068
6111347 8.7114 11.4009 20.15 19.8057 0.976071 4.95525 60.068
6111357 8.76425 11.4469 20.1303 19.8252 0.987917 4.92241 60.1667
6111367 8.79948 11.5022 20.0515 19.7668 1.00546 4.86943 60.1199
6111377 8.79948 11.5022 20.0515 19.7668 1.00546 4.86943 60.1199
6111387 8.87876 11.5206 20.0318 19.6693 0.948128 4.81739 60.1005
6111397 8.87876 11.5206 20.0318 19.6693 0.948128 4.81739 60.1005
6111408 8.91399 11.5206 19.9531 19.6888 0.974727 4.79572 60.0765
6111417 8.96684 11.5482 20.0023 19.7083 0.949496 4.78091 60.2257
6111431 8.96684 11.5482 20.0023 19.7083 0.949496 4.78091 60.2257
6111440 8.90518 11.6403 19.894 19.5719 1.00523 4.72922 60.0114
6111447 9.0285 11.6311 19.894 19.6109 0.963795 4.69845 60.1645
6111459 9.0285 11.6311 19.894 19.6109 0.963795 4.69845 60.1645
6111468 9.05492 11.7048 19.8645 19.5914 0.986764 4.65732 60.2156
6111488 9.07254 11.714 19.8153 19.5817 1.0002 4.63843 60.1835
6111500 9.11658 11.714 19.7956 19.5524 0.97802 4.61563 60.1786
6111508 9.11658 11.714 19.7956 19.5524 0.97802 4.61563 60.1786
6111520 9.17824 11.6771 19.7956 19.416 0.882077 4.58395 60.067
6111528 9.15181 11.7048 19.7562 19.4745 0.944969 4.58686 60.0873
6111548 9.18705 11.7508 19.7858 19.4453 0.923768 4.56045 60.1689
6111561 9.18705 11.7508 19.7858 19.4453 0.923768 4.56045 60.1689
6111569 9.10777 11.6403 19.7661 19.455 0.926092 4.62063 59.9692
6111582 9.21347 11.6956 19.7169 19.4258 0.912142 4.55448 60.0517
6111589 9.21347 11.6956 19.7169 19.4258 0.912142 4.55448 60.0517
6111599 9.18705 11.6771 19.6381 19.3576 0.922814 4.54349 59.8599
6111609 9.21347 11.7416 19.6283 19.3479 0.937629 4.51043 59.9312
6111619 9.21347 11.7416 19.6283 19.3479 0.937629 4.51043 59.9312
6111629 9.27513 11.7232 19.6479 19.3089 0.879404 4.49299 59.9551
6111639 9.27513 11.7232 19.6479 19.3089 0.879404 4.49299 59.9551
6111652 9.26632 11.7876 19.6283 19.3089 0.917616 4.47146 59.9911
6111661 9.30155 11.8521 19.5987 19.3186 0.944903 4.43567 60.071
6111670 9.30155 11.8521 19.5987 19.3186 0.944903 4.43567 60.071
6111680 9.32798 11.8429 19.5298 19.2699 0.940052 4.40937 59.9706
6111690 9.41606 11.8705 19.52 19.2699 0.917333 4.37026 60.0765
6111710 9.43368 11.9258 19.5003 19.2309 0.924754 4.33639 60.0907
6111720 9.43368 11.9258 19.5003 19.2309 0.924754 4.33639 60.0907
6111730 9.44249 11.9534 19.3625 19.1822 0.97208 4.29145 59.9406
6111740 9.52176 11.981 19.3329 19.1628 0.953808 4.24833 59.9985
6111763 9.51295 11.9995 19.3231 19.1433 0.961453 4.23999 59.9788
6111772 9.55699 12.0179 19.264 19.0848 0.951898 4.19883 59.9237
6111782 9.55699 12.0179 19.264 19.0848 0.951898 4.19883 59.9237
6111792 9.62746 12.0731 19.2444 19.0653 0.944275 4.15156 60.0103
6111802 9.60984 12.0731 19.1853 19.0166 0.957927 4.13767 59.8849
6111813 9.60984 12.0823 19.1853 19.0166 0.961623 4.13473 59.8941
6111822 9.69793 12.1468 19.2739 19.0946 0.942299 4.1163 60.2132
6111834 9.69793 12.1468 19.2739 19.0946 0.942299 4.1163 60.2132
6111842 9.65389 12.1928 19.1754 19.0166 0.991082 4.08369 60.0388
6111854 9.70674 12.1468 19.2148 18.9776 0.917172 4.0816 60.046
6111862 9.70674 12.1468 19.2148 18.9776 0.917172 4.0816 60.046
6111875 9.65389 12.1744 19.1065 19.0069 1.00968 4.07523 59.9417
6111882 9.65389 12.1744 19.1065 19.0069 1.00968 4.07523 59.9417
6111892 9.65389 12.11 19.0967 18.9679 0.972486 4.08687 59.8285
6111902 9.71554 12.1652 19.0573 18.9776 0.988889 4.04423 59.9157
6111912 9.71554 12.1652 19.0573 18.9776 0.988889 4.04423 59.9157
6111927 9.70674 12.2297 18.9983 18.9484 1.03247 4.01038 59.8831
6111937 9.68912 12.1744 19.0573 18.9582 0.996238 4.04614 59.879
6111954 9.75959 12.2021 19.077 18.9874 0.97993 4.02394 60.026
6111973 9.81244 12.2389 19.0081 18.9874 1.00161 3.98293 60.0468
6111983 9.72435 12.2481 19.0475 18.9582 1.01472 4.00976 59.9781
6112003 9.78601 12.3034 18.9983 18.8705 0.996351 3.9476 59.9581
6112013 9.79482 12.3218 18.9786 18.9484 1.03958 3.94973 60.0436
6112024 9.79482 12.3218 18.9786 18.9484 1.03958 3.94973 60.0436
6112034 9.79482 12.2941 18.949 18.9387 1.03747 3.95122 59.9767
6112044 9.79482 12.2757 18.9589 18.9289 1.02194 3.95706 59.9584
6112054 9.79482 12.2757 18.9589 18.9289 1.02194 3.95706 59.9584
6112064 9.80363 12.3494 18.89 18.9289 1.07748 3.9183 59.972
6112075 9.80363 12.3494 18.89 18.9289 1.07748 3.9183 59.972
6112084 9.82124 12.2849 18.8506 18.8997 1.04951 3.92041 59.8565
6112094 9.85648 12.3678 18.8506 18.8413 1.04396 3.8723 59.9162
6112104 9.85648 12.3678 18.8506 18.8413 1.04396 3.8723 59.9162
6112114 9.86528 12.4047 18.7522 18.8023 1.08213 3.83235 59.8244
6112125 9.87409 12.4047 18.7128 18.8023 1.09546 3.82222 59.7938
6112144 9.97098 12.4139 18.703 18.7731 1.04952 3.78156 59.8609
6112158 9.97098 12.4139 18.703 18.7731 1.04952 3.78156 59.8609
6112166 9.95337 12.4507 18.7128 18.7633 1.06373 3.77555 59.8802
6112178 9.96218 12.4139 18.7128 18.8023 1.06075 3.79164 59.8911
6112185 9.96218 12.4139 18.7128 18.8023 1.06075 3.79164 59.8911
6112196 9.90933 12.377 18.6931 18.8218 1.08542 3.81978 59.8012
6112206 9.94456 12.3862 18.7423 18.8802 1.07566 3.82591 59.9534
6112216 9.94456 12.3862 18.7423 18.8802 1.07566 3.82591 59.9534
6112228 9.96218 12.4323 18.6833 18.89 1.11594 3.79674 59.9677
6112235 9.96218 12.4323 18.6833 18.89 1.11594 3.79674 59.9677
6112249 9.96218 12.3678 18.7128 18.8413 1.05792 3.81338 59.8841
6112255 9.94456 12.4047 18.6833 18.7828 1.06981 3.79088 59.8153
6112275 9.9886 12.4599 18.7325 18.7925 1.0552 3.77079 59.9735
6112287 9.93575 12.4507 18.6734 18.8023 1.10413 3.781 59.8622
6112310 9.93575 12.4507 18.6734 18.8023 1.10413 3.781 59.8622
6112312 9.95337 12.4415 18.703 18.812 1.0838 3.78572 59.9099
6112317 9.95337 12.4415 18.703 18.812 1.0838 3.78572 59.9099
6112327 9.97098 12.4231 18.7522 18.8315 1.05516 3.79881 59.9778
6112337 9.95337 12.4323 18.762 18.8218 1.05832 3.80147 59.9694
6112347 9.95337 12.4323 18.762 18.8218 1.05832 3.80147 59.9694
6112357 10.015 12.5336 18.7522 18.7925 1.06457 3.74321 60.0933
6112368 10.0238 12.4415 18.7423 18.8218 1.03995 3.77284 60.0294
6112377 10.0238 12.4415 18.7423 18.8218 1.03995 3.77284 60.0294
6112387 9.97098 12.4047 18.7915 18.8413 1.0346 3.81375 60.0085
6112398 9.97098 12.4047 18.7915 18.8413 1.0346 3.81375 60.0085
6112408 10.0062 12.4231 18.7423 18.7536 1.01297 3.77136 59.9252
6112418 9.9886 12.4139 18.7915 18.7925 1.01117 3.79626 59.9866
6112438 9.9886 12.4599 18.7423 18.7828 1.04704 3.77081 59.9736
6112448 9.95337 12.3862 18.8211 18.7828 0.998691 3.81967 59.9435
6112458 9.95337 12.3862 18.8211 18.7828 0.998691 3.81967 59.9435
6112468 9.9886 12.4231 18.762 18.7828 1.02377 3.78603 59.9565
6112478 9.9886 12.4231 18.762 18.7828 1.02377 3.78603 59.9565
6112488 9.9886 12.3862 18.7915 18.7341 0.9767 3.79399 59.9005
6112498 10.0238 12.4231 18.7817 18.6854 0.960928 3.76043 59.914
6112509 10.0238 12.4231 18.7817 18.6854 0.960928 3.76043 59.914
6112520 10.0503 12.4599 18.7817 18.7925 1.00712 3.76073 60.0844
6112529 10.0238 12.4415 18.762 18.7341 0.996366 3.76011 59.9614
6112539 10.0238 12.4415 18.762 18.7341 0.996366 3.76011 59.9614
6112549 9.9886 12.4599 18.8309 18.7633 1.00084 3.78374 60.0428
6112559 9.9886 12.4599 18.8309 18.7633 1.00084 3.78374 60.0428
6112569 9.97979 12.4047 18.8014 18.7536 0.991443 3.79646 59.9394
6112586 10.0238 12.4323 18.7423 18.7536 1.00902 3.76296 59.952
6112590 10.0238 12.4323 18.7423 18.7536 1.00902 3.76296 59.952
6112600 10.015 12.4047 18.762 18.7049 0.973707 3.76892 59.8866
6112612 10.0326 12.4783 18.703 18.6172 0.986078 3.71274 59.8311
6112621 10.0326 12.4783 18.703 18.6172 0.986078 3.71274 59.8311
6112630 10.015 12.4507 18.7325 18.6269 0.973725 3.73431 59.8251
6112641 10.015 12.4507 18.7325 18.6269 0.973725 3.73431 59.8251
6112650 10.0591 12.4231 18.7915 18.6659 0.933594 3.7476 59.9396
6112661 10.0415 12.4691 18.8605 18.6464 0.922081 3.74798 60.0174
6112671 10.0415 12.4691 18.8605 18.6464 0.922081 3.74798 60.0174
6112682 10.0767 12.5244 18.8408 18.588 0.914085 3.70508 60.0298
6112690 10.0415 12.4783 18.8801 18.5977 0.897723 3.73966 59.9976
6112700 10.0415 12.4783 18.8801 18.5977 0.897723 3.73966 59.9976
6112712 10.1031 12.4875 18.8506 18.5685 0.875819 3.70651 60.0097
6112732 10.0415 12.5152 18.762 18.4029 0.88518 3.6691 59.7215
6112742 10.0591 12.5981 18.7915 18.4223 0.906029 3.64704 59.871
6112752 10.0591 12.5981 18.7915 18.4223 0.906029 3.64704 59.871
6112762 10.0855 12.5704 18.8309 18.3054 0.819275 3.63269 59.7923
6112774 10.0415 12.552 18.8801 18.2762 0.797758 3.65597 59.7498
6112792 10.0679 12.6073 18.8112 18.3054 0.850284 3.62296 59.7918
6112803 10.0679 12.6073 18.8112 18.3054 0.850284 3.62296 59.7918
6112813 10.1119 12.6257 18.89 18.3152 0.808671 3.62035 59.9428
6112824 10.156 12.6533 18.8998 18.3249 0.800568 3.60183 60.034
6112833 10.156 12.6533 18.8998 18.3249 0.800568 3.60183 60.034
6112843 10.1207 12.5981 18.8703 18.3639 0.821862 3.6317 59.953
6112853 10.0855 12.6717 18.8998 18.286 0.822598 3.61057 59.943
6112863 10.0855 12.6717 18.8998 18.286 0.822598 3.61057 59.943
6112875 10.1383 12.6073 18.8605 18.3152 0.802574 3.61225 59.9212
6112885 10.1383 12.6073 18.8605 18.3152 0.802574 3.61225 59.9212
6112893 10.0943 12.6533 18.8703 18.247 0.808361 3.60053 59.8649
6112906 10.1912 12.6994 18.7817 18.2567 0.827309 3.54117 59.929
6112913 10.1912 12.6994 18.7817 18.2567 0.827309 3.54117 59.929
6112923 10.156 12.6901 18.7915 18.247 0.830612 3.55494 59.8846
6112933 10.1383 12.7178 18.7719 18.2178 0.846064 3.54249 59.8457
6112943 10.1383 12.7178 18.7719 18.2178 0.846064 3.54249 59.8457
6112953 10.1295 12.6994 18.8211 18.2957 0.852624 3.57521 59.9457
6112963 10.1295 12.6994 18.8211 18.2957 0.852624 3.57521 59.9457
6112973 10.156 12.6441 18.8506 18.286 0.802299 3.58792 59.9366
6112983 10.1119 12.6533 18.8605 18.2957 0.824681 3.60245 59.9214
6112995 10.1119 12.6533 18.8605 18.2957 0.824681 3.60245 59.9214
6113004 10.1648 12.6901 18.8211 18.3054 0.837651 3.56901 59.9814
6113014 10.1736 12.6901 18.8506 18.2567 0.801507 3.56262 59.9711
6113024 10.1736 12.6901 18.8506 18.2567 0.801507 3.56262 59.9711
6113034 10.1295 12.7454 18.7719 18.2762 0.88456 3.54784 59.923
6113044 10.1295 12.7454 18.7719 18.2762 0.88456 3.54784 59.923
6113056 10.0943 12.7178 18.7128 18.208 0.886738 3.54296 59.7329
6113064 10.1383 12.7454 18.7128 18.247 0.89452 3.52821 59.8435
6113080 10.1383 12.7454 18.7128 18.247 0.89452 3.52821 59.8435
6113084 10.2176 12.7638 18.6636 18.208 0.873241 3.48107 59.853
6113094 10.1383 12.7086 18.6931 18.286 0.903901 3.54332 59.826
6113106 10.1383 12.7086 18.6931 18.286 0.903901 3.54332 59.826
6113114 10.1824 12.7914 18.7226 18.2372 0.885838 3.50038 59.9337
6113124 10.1824 12.7914 18.7226 18.2372 0.885838 3.50038 59.9337
6113134 10.244 12.7822 18.6833 18.2372 0.872511 3.47664 59.9468
6113148 10.1736 12.8006 18.6931 18.2762 0.921777 3.50207 59.9436
6113164 10.2088 12.8375 18.634 18.2762 0.94687 3.4685 59.9566
6113175 10.2088 12.8375 18.634 18.2762 0.94687 3.4685 59.9566
6113184 10.1824 12.7178 18.6833 18.2275 0.86925 3.51373 59.8109
6113194 10.2352 12.8283 18.634 18.286 0.935653 3.46507 59.9835
6113209 10.2352 12.8283 18.634 18.286 0.935653 3.46507 59.9835
6113219 10.2 12.7546 18.5947 18.2665 0.930527 3.48735 59.8158
6113227 10.2264 12.727 18.6045 18.208 0.880125 3.47835 59.7659
6113245 10.2088 12.773 18.5947 18.2762 0.938034 3.48081 59.8527
6113256 10.1648 12.7362 18.6439 18.2275 0.901347 3.50591 59.7724
6113266 10.1648 12.7362 18.6439 18.2275 0.901347 3.50591 59.7724
6113276 10.2 12.7454 18.7128 18.3639 0.914869 3.53152 60.0221
6113296 10.1295 12.6257 18.6931 18.3542 0.901797 3.58482 59.8025
6113306 10.1736 12.7178 18.7128 18.3347 0.903448 3.54265 59.9388
6113317 10.1736 12.7178 18.7128 18.3347 0.903448 3.54265 59.9388
6113326 10.1824 12.7638 18.703 18.3249 0.918481 3.52194 59.9741
6113340 10.1383 12.6533 18.7226 18.3152 0.880632 3.5717 59.8295
6113346 10.1383 12.6533 18.7226 18.3152 0.880632 3.5717 59.8295
6113362 10.1295 12.6625 18.7423 18.3542 0.89533 3.58276 59.8885
6113366 10.1295 12.6625 18.7423 18.3542 0.89533 3.58276 59.8885
6113376 10.1648 12.7362 18.7423 18.3152 0.89407 3.54159 59.9585
6113388 10.1295 12.6533 18.7522 18.3736 0.895214 3.59121 59.9086
6113397 10.1295 12.6533 18.7522 18.3736 0.895214 3.59121 59.9086
6113406 10.1119 12.6625 18.7128 18.3054 0.896114 3.5733 59.7927
6113417 10.1119 12.6625 18.8014 18.3054 0.857803 3.59021 59.8813
6113428 10.1119 12.6441 18.8014 18.4029 0.889611 3.61445 59.9603
6113437 10.1207 12.5981 18.7719 18.3834 0.872183 3.61671 59.874
6113448 10.1207 12.5981 18.7719 18.3834 0.872183 3.61671 59.874
6113457 10.1295 12.6441 18.762 18.3639 0.883329 3.59409 59.8995
6113467 10.0943 12.5796 18.7719 18.4126 0.887963 3.63621 59.8584
6113477 10.0943 12.5796 18.7719 18.4126 0.887963 3.63621 59.8584
6113487 10.1295 12.5704 18.8605 18.3542 0.807229 3.63384 59.9146
6113498 10.1295 12.5244 18.8408 18.3639 0.801045 3.64628 59.8586
6113508 10.1295 12.5244 18.8408 18.3639 0.801045 3.64628 59.8586
6113518 10.0943 12.5428 18.8801 18.3931 0.818506 3.66452 59.9104
6113528 10.0943 12.5428 18.8801 18.3931 0.818506 3.66452 59.9104
6113538 10.0062 12.5244 18.9097 18.4418 0.855982 3.71252 59.8821
6113549 10.0415 12.506 18.9294 18.3542 0.789434 3.69444 59.8309
6113558 10.0415 12.506 18.9294 18.3542 0.789434 3.69444 59.8309
6113568 10.0326 12.4599 18.8998 18.4905 0.842473 3.73174 59.8829
6113579 9.99741 12.4323 19.0278 18.5587 0.818869 3.78818 60.0162
6113592 9.99741 12.4323 19.0278 18.5587 0.818869 3.78818 60.0162
6113599 10.015 12.4507 19.0475 18.6075 0.829849 3.78968 60.1207
6113610 10.015 12.4507 19.0475 18.6075 0.829849 3.78968 60.1207
6113619 9.93575 12.331 18.9884 18.5977 0.837269 3.83926 59.8529
6113631 9.90052 12.3218 19.1065 18.6951 0.837103 3.89329 60.024
6113639 9.90052 12.3218 19.1065 18.6951 0.837103 3.89329 60.024
6113653 9.93575 12.3494 19.1065 18.7049 0.836977 3.87533 60.0966
6113660 9.8829 12.2757 19.1164 18.7244 0.833675 3.92057 59.9994
6113669 9.8829 12.2757 19.1164 18.7244 0.833675 3.92057 59.9994
6113679 9.86528 12.2849 19.1361 18.7341 0.840414 3.92865 60.0204
6113689 9.86528 12.2849 19.1361 18.7341 0.840414 3.92865 60.0204
6113699 9.81244 12.2573 19.1656 18.7146 0.831479 3.95592 59.95
6113710 9.79482 12.2481 19.1361 18.8023 0.8834 3.9751 59.9813
6113721 9.79482 12.2481 19.1361 18.8023 0.8834 3.9751 59.9813
6113731 9.84767 12.2113 19.205 18.812 0.820068 3.98448 60.076
6113741 9.80363 12.1652 19.1951 18.8802 0.852159 4.02366 60.0442
6113761 9.80363 12.2113 19.1459 18.9387 0.915319 4.01078 60.0995
6113773 9.80363 12.2113 19.1459 18.9387 0.915319 4.01078 60.0995
6113780 9.74197 12.2113 19.1558 18.9095 0.925961 4.02676 60.0185
6113796 9.75959 12.1192 19.2345 18.9289 0.85524 4.06831 60.0422
6113801 9.75959 12.1192 19.2345 18.9289 0.85524 4.06831 60.0422
6113812 9.78601 12.1652 19.1951 18.9484 0.887138 4.0417 60.0948
6113822 9.69793 12.11 19.2148 18.9192 0.882691 4.08549 59.9419
6113831 9.69793 12.11 19.2148 18.9192 0.882691 4.08549 59.9419
6113847 9.68912 12.156 19.2247 18.9874 0.928125 4.08783 60.0572
6113866 9.69793 12.11 19.205 18.9095 0.883025 4.08192 59.9223
6113872 9.6715 12.1192 19.2247 19.0264 0.936586 4.11223 60.0417
6113886 9.6715 12.1192 19.2247 19.0264 0.936586 4.11223 60.0417
6113892 9.63627 12.0547 19.205 19.0166 0.930557 4.13868 59.9126
6113902 9.64508 12.0547 19.1754 18.9582 0.916022 4.11989 59.8334
6113912 9.64508 12.0547 19.1754 18.9582 0.916022 4.11989 59.8334
6113922 9.65389 12.0731 19.1754 19.0166 0.943112 4.12182 59.9191
6113932 9.65389 12.0731 19.1754 19.0166 0.943112 4.12182 59.9191
6113942 9.57461 12.0363 19.1853 19.0653 0.977975 4.16955 59.8615
6113955 9.63627 12.0731 19.1164 19.0653 0.995892 4.12557 59.8911
6113972 9.61865 12.1652 19.1065 19.0848 1.05245 4.10356 59.9752
6113992 9.62746 12.0915 19.1361 19.1238 1.02194 4.13667 59.9789
6114004 9.64508 12.1284 19.0967 19.153 1.05776 4.11747 60.0232
6114012 9.64508 12.1284 19.0967 19.153 1.05776 4.11747 60.0232
6114023 9.68912 12.1652 19.0475 19.114 1.05916 4.07572 60.0159
6114036 9.66269 12.2297 19.0573 19.0946 1.08429 4.06188 60.0443
6114052 9.69793 12.2389 19.0278 19.0653 1.07384 4.03706 60.0299
6114063 9.68031 12.2297 18.9983 19.0653 1.09067 4.04018 59.9736
6114076 9.68031 12.2297 18.9983 19.0653 1.09067 4.04018 59.9736
6114083 9.6715 12.2665 18.9392 19.0361 1.12326 4.01512 59.9133
6114093 9.6715 12.2665 18.9392 19.0361 1.12326 4.01512 59.9133
6114106 9.62746 12.2665 18.9687 19.0264 1.1257 4.03273 59.8891
6114113 9.68912 12.3126 18.9294 19.0458 1.14208 3.99492 59.9769
6114126 9.68912 12.3126 18.9294 19.0458 1.14208 3.99492 59.9769
6114133 9.68912 12.2757 18.9786 19.0458 1.10598 4.01561 59.9893
6114143 9.66269 12.2757 18.949 19.1335 1.16522 4.03462 60.021
6114153 9.66269 12.2757 18.949 19.1335 1.16522 4.03462 60.021
6114163 9.68912 12.2757 18.9983 19.1335 1.13229 4.03523 60.0966
6114176 9.68912 12.2757 18.9983 19.1335 1.13229 4.03523 60.0966
6114183 9.65389 12.2573 18.9392 19.1238 1.16217 4.03969 59.9742
6114194 9.66269 12.2205 18.9392 19.1238 1.14368 4.04859 59.9462
6114216 9.68912 12.2205 18.9687 19.2115 1.15414 4.06157 60.0898
6114223 9.68912 12.2205 18.9687 19.2115 1.15414 4.06157 60.0898
6114233 9.60984 12.2205 18.9884 19.2017 1.17624 4.08856 60.0205
6114243 9.62746 12.1192 18.9983 19.2699 1.15112 4.12936 60.0148
6114253 9.62746 12.1192 18.9983 19.2699 1.15112 4.12936 60.0148
6114263 9.60984 12.1744 19.0672 19.2212 1.13139 4.12104 60.0726
6114273 9.60984 12.11 19.077 19.2309 1.10534 4.14512 60.0278
6114285 9.60984 12.11 19.077 19.2309 1.10534 4.14512 60.0278
6114293 9.54819 12.1008 19.0278 19.2991 1.17711 4.17118 59.9759
6114309 9.54819 12.1008 19.0278 19.2991 1.17711 4.17118 59.9759
6114314 9.54819 12.1008 19.077 19.3089 1.15951 4.18181 60.0348
6114324 9.53057 12.0823 19.1164 19.2797 1.1311 4.19516 60.009
6114334 9.53057 12.0823 19.1164 19.2797 1.1311 4.19516 60.009
6114344 9.50414 12.0547 19.1656 19.2407 1.09466 4.21431 59.9652
6114356 9.50414 12.0271 19.1164 19.2991 1.12837 4.22482 59.9468
6114364 9.50414 12.0271 19.1164 19.2991 1.12837 4.22482 59.9468
6114375 9.51295 11.9995 19.1459 19.3381 1.11619 4.24315 59.9964
6114386 9.51295 11.9995 19.1459 19.3381 1.11619 4.24315 59.9964
6114394 9.47772 11.981 19.1459 19.3771 1.13972 4.26736 59.9818
6114404 9.50414 12.0179 19.1754 19.3479 1.11838 4.24711 60.0453
6114416 9.50414 12.0179 19.1754 19.3479 1.11838 4.24711 60.0453
6114424 9.49534 11.9902 19.1951 19.3673 1.11041 4.2658 60.0481
6114437 9.42487 11.935 19.1951 19.455 1.15398 4.32185 60.01
6114444 9.42487 11.935 19.1951 19.455 1.15398 4.32185 60.01
6114458 9.52176 11.8982 19.205 19.4453 1.08901 4.30255 60.0702
6114464 9.52176 11.8982 19.205 19.4453 1.08901 4.30255 60.0702
6114474 9.43368 11.935 19.1459 19.4258 1.15998 4.30504 59.9404
6114492 9.47772 11.9258 19.2345 19.3673 1.07527 4.2992 60.0054
6114510 9.47772 11.8982 19.1853 19.3966 1.09732 4.30453 59.9577
6114519 9.4601 11.9718 19.1361 19.3771 1.14802 4.27422 59.9451
6114526 9.4601 11.9718 19.1361 19.3771 1.14802 4.27422 59.9451
6114535 9.49534 11.9258 19.205 19.4258 1.10374 4.29869 60.0519
6114555 9.4601 11.9534 19.1951 19.3186 1.09166 4.28025 59.9273
6114565 9.51295 11.9534 19.1951 19.4258 1.11135 4.28241 60.0873
6114576 9.51295 11.9534 19.1951 19.4258 1.11135 4.28241 60.0873
6114585 9.52176 11.9995 19.205 19.3673 1.09831 4.25614 60.0935
6114595 9.49534 11.935 19.2148 19.3966 1.09149 4.29228 60.0417
6114606 9.49534 11.935 19.2148 19.3966 1.09149 4.29228 60.0417
6114624 9.44249 11.935 19.2837 19.4258 1.09615 4.32674 60.087
6114627 9.44249 11.935 19.2837 19.4258 1.09615 4.32674 60.087
6114637 9.4601 11.9626 19.2345 19.3186 1.0782 4.28433 59.9759
6114647 9.46891 11.9442 19.1951 19.3186 1.08415 4.28038 59.9269
6114657 9.46891 11.9442 19.1951 19.3186 1.08415 4.28038 59.9269
6114667 9.49534 11.981 19.2345 19.2407 1.03912 4.25314 59.9516
6114677 9.48653 11.8982 19.264 19.3284 1.03204 4.30357 59.9771
6114688 9.48653 11.8982 19.264 19.3284 1.03204 4.30357 59.9771
6114698 9.46891 11.981 19.2837 19.3576 1.07586 4.29131 60.0913
6114717 9.4601 11.9442 19.2542 19.3186 1.06229 4.29376 59.9771
6114727 9.46891 11.9258 19.2444 19.2797 1.03981 4.28814 59.9187
6114741 9.46891 11.9258 19.2444 19.2797 1.03981 4.28814 59.9187
6114748 9.46891 11.9534 19.3428 19.3186 1.02371 4.30377 60.0837
6114759 9.47772 11.9074 19.2739 19.2991 1.02359 4.29999 59.9581
6114782 9.46891 11.9718 19.3428 19.2797 1.01551 4.29091 60.0632
6114788 9.46891 11.9718 19.3428 19.2797 1.01551 4.29091 60.0632
6114798 9.43368 11.9166 19.2739 19.3381 1.06197 4.31815 59.9622
6114809 9.4601 11.935 19.264 19.3089 1.05045 4.29675 59.968
6114820 9.4601 11.935 19.264 19.3089 1.05045 4.29675 59.968
6114829 9.49534 11.9166 19.264 19.2797 1.01611 4.28612 59.9556
6114838 9.52176 11.935 19.3526 19.2797 0.97366 4.28752 60.089
6114850 9.52176 11.935 19.3526 19.2797 0.97366 4.28752 60.089
6114859 9.50414 11.9442 19.264 19.3673 1.05832 4.29006 60.0797
6114874 9.50414 11.9442 19.264 19.3673 1.05832 4.29006 60.0797
6114879 9.53938 11.8337 19.3034 19.3186 0.96238 4.31259 59.9951
6114889 9.5658 11.8797 19.3723 19.3868 0.966883 4.31368 60.2047
6114902 9.5658 11.8797 19.3723 19.3868 0.966883 4.31368 60.2047
6114909 9.48653 11.8613 19.3034 19.3381 1.00413 4.32418 59.9894
6114920 9.51295 11.9074 19.2936 19.2894 0.995877 4.29043 60.0033
6114929 9.51295 11.9074 19.2936 19.2894 0.995877 4.29043 60.0033
6114944 9.53057 11.9258 19.3329 19.3381 0.998038 4.29455 60.1274
6114949 9.53057 11.9258 19.3329 19.3381 0.998038 4.29455 60.1274
6114959 9.48653 11.8521 19.3133 19.3381 0.996178 4.3289 59.99
6114969 9.51295 11.8705 19.4019 19.3089 0.942105 4.32502 60.0942
6114991 9.51295 11.8982 19.4117 19.2991 0.945017 4.31616 60.1219
6115002 9.46891 11.8521 19.3231 19.3186 0.99175 4.33287 59.9628
6115013 9.46891 11.8521 19.3231 19.3186 0.99175 4.33287 59.9628
6115019 9.42487 11.8521 19.4215 19.2894 0.956482 4.35937 59.9879
6115040 9.42487 11.8429 19.4117 19.3576 0.984362 4.37268 60.0371
6115054 9.42487 11.8429 19.4609 19.416 0.986439 4.3917 60.1447
6115060 9.42487 11.8429 19.4609 19.416 0.986439 4.3917 60.1447
6115070 9.42487 11.7784 19.392 19.4063 0.986582 4.39863 60.0016
6115080 9.38083 11.7692 19.4511 19.3771 0.964689 4.42113 59.9782
6115090 9.38083 11.7692 19.4511 19.3771 0.964689 4.42113 59.9782
6115108 9.3544 11.7048 19.4215 19.4258 0.982618 4.45398 59.9065
6115131 9.3456 11.6863 19.4806 19.4842 0.976881 4.48346 59.9968
6115140 9.37202 11.7416 19.5594 19.5037 0.961319 4.47419 60.1767
6115158 9.3456 11.6679 19.52 19.5427 0.975865 4.50656 60.0762
6115162 9.29275 11.7232 19.5889 19.5719 1.00266 4.5229 60.1767
6115172 9.29275 11.7232 19.5889 19.5719 1.00266 4.5229 60.1767
6115182 9.3456 11.714 19.5594 19.5914 0.996685 4.507 60.2103
6115192 9.3456 11.714 19.5594 19.5914 0.996685 4.507 60.2103
6115204 9.32798 11.6311 19.4412 19.5914 1.02235 4.51901 59.9917
6115212 9.31917 11.6495 19.5101 19.6206 1.01533 4.53301 60.0994
6115222 9.31917 11.6495 19.5101 19.6206 1.01533 4.53301 60.0994
6115232 9.33679 11.6127 19.4806 19.5914 0.994098 4.52902 60.0215
6115242 9.27513 11.6127 19.4708 19.6791 1.06011 4.56264 60.0377
6115252 9.27513 11.585 19.4708 19.6791 1.04909 4.57165 60.01
6115262 9.25751 11.5666 19.5101 19.6986 1.04008 4.59363 60.0328
6115274 9.25751 11.5666 19.5101 19.6986 1.04008 4.59363 60.0328
6115282 9.2487 11.5298 19.5594 19.7181 1.01563 4.62042 60.0559
6115296 9.32798 11.5666 19.6479 19.7862 0.985 4.60963 60.3288
6115302 9.32798 11.5666 19.6479 19.7862 0.985 4.60963 60.3288
6115312 9.31036 11.5574 19.6086 19.7375 0.986493 4.60317 60.2139
6115333 9.2487 11.5114 19.6676 19.757 0.977015 4.65182 60.1847
6115342 9.23109 11.4837 19.6184 19.7668 0.998756 4.65982 60.1
6115352 9.23109 11.4837 19.6184 19.7668 0.998756 4.65982 60.1
6115362 9.21347 11.4101 19.5495 19.6986 0.979456 4.66612 59.8716
6115372 9.19586 11.4009 19.5987 19.7278 0.973779 4.68845 59.9232
6115386 9.19586 11.4009 19.5987 19.7278 0.973779 4.68845 59.9232
6115392 9.18705 11.4377 19.6381 19.7473 0.983098 4.68936 60.0101
6115402 9.18705 11.4377 19.6381 19.7473 0.983098 4.68936 60.0101
6115413 9.16062 11.4009 19.6676 19.7473 0.967002 4.71521 59.9764
6115422 9.11658 11.4745 19.6283 19.7765 1.04433 4.70373 59.9959
6115435 9.11658 11.4745 19.6283 19.7765 1.04433 4.70373 59.9959
6115446 9.16943 11.3732 19.707 19.7668 0.942895 4.73148 60.0164
6115455 9.15181 11.364 19.7365 19.8837 0.980836 4.76529 60.136
6115464 9.15181 11.364 19.7365 19.8837 0.980836 4.76529 60.136
6115474 9.14301 11.3088 19.7267 19.8447 0.951207 4.77806 60.0232
6115483 9.14301 11.3088 19.7267 19.8447 0.951207 4.77806 60.0232
6115494 9.08135 11.2535 19.7169 19.9519 1.00293 4.83317 60.0036
6115503 9.09016 11.318 19.7661 19.9421 0.99968 4.81567 60.1163
6115523 9.10777 11.3548 19.6873 19.835 0.998038 4.76612 59.9849
6115534 9.06373 11.3548 19.7169 19.8934 1.02769 4.79562 60.0288
6115544 9.06373 11.3548 19.7169 19.8934 1.02769 4.79562 60.0288
6115554 9.10777 11.3732 19.6578 19.8739 1.03378 4.76167 60.0127
6115564 9.15181 11.3917 19.6479 19.8544 1.01853 4.73611 60.0459
6115584 9.16943 11.3548 19.6775 19.9129 1.00675 4.75744 60.1146
6115595 9.16943 11.3548 19.6775 19.9129 1.00675 4.75744 60.1146
6115606 9.12539 11.3364 19.6676 19.8544 0.999361 4.76635 59.9839
6115615 9.15181 11.3824 19.6676 19.9226 1.03354 4.75414 60.1245
6115625 9.15181 11.3824 19.6676 19.9226 1.03354 4.75414 60.1245
6115635 9.15181 11.4101 19.6775 19.8837 1.02476 4.74009 60.123
6115647 9.19586 11.4285 19.6578 19.8934 1.02544 4.71791 60.1755
6115655 9.19586 11.4285 19.6578 19.8934 1.02544 4.71791 60.1755
6115665 9.20466 11.4561 19.6479 19.9032 1.04077 4.70596 60.2119
6115675 9.20466 11.4561 19.6479 19.9032 1.04077 4.70596 60.2119
6115686 9.16062 11.4745 19.6086 19.8447 1.06096 4.6976 60.0884
6115695 9.2487 11.4469 19.5692 19.7473 0.98992 4.65428 60.0121
6115706 9.2487 11.4469 19.5692 19.7473 0.98992 4.65428 60.0121
6115716 9.23109 11.5022 19.5298 19.7765 1.04838 4.64021 60.0396
6115727 9.26632 11.5298 19.5692 19.8057 1.03871 4.6315 60.171
6115749 9.26632 11.5574 19.6086 19.9519 1.09068 4.65437 60.3842
6115756 9.26632 11.5574 19.6086 19.9519 1.09068 4.65437 60.3842
6115766 9.25751 11.5022 19.5889 19.7668 1.00745 4.64007 60.1153
6115776 9.2487 11.539 19.5101 19.7473 1.05231 4.61396 60.0451
6115786 9.2487 11.539 19.5101 19.7473 1.05231 4.61396 60.0451
6115798 9.27513 11.5574 19.4904 19.6499 1.01784 4.57901 59.9729
6115807 9.28394 11.585 19.3822 19.6206 1.06042 4.54316 59.8718
6115819 9.28394 11.585 19.3822 19.6206 1.06042 4.54316 59.8718
6115827 9.32798 11.5298 19.4117 19.6109 1.00242 4.55028 59.8804
6115847 9.2487 11.539 19.4117 19.6206 1.04448 4.57488 59.82
6115858 9.32798 11.539 19.392 19.6499 1.03026 4.55063 59.9088
6115868 9.32798 11.539 19.392 19.6499 1.03026 4.55063 59.9088
6115878 9.25751 11.6495 19.4314 19.6888 1.10343 4.55123 60.0272
6115891 9.31917 11.5482 19.4806 19.6986 1.0188 4.5744 60.0466
6115898 9.31917 11.5482 19.4806 19.6986 1.0188 4.5744 60.0466
6115908 9.31917 11.6127 19.5692 19.7278 1.01783 4.57384 60.2288
6115918 9.31917 11.6127 19.5692 19.7278 1.01783 4.57384 60.2288
6115928 9.31917 11.6035 19.3822 19.7181 1.09133 4.54267 60.0229
6115939 9.32798 11.5574 19.4314 19.7181 1.04777 4.56336 60.0348
6115948 9.32798 11.5574 19.4314 19.7181 1.04777 4.56336 60.0348
6115961 9.36321 11.6035 19.3231 19.6888 1.08621 4.51292 59.9786
6115968 9.36321 11.6035 19.3231 19.6888 1.08621 4.51292 59.9786
6115978 9.37202 11.6035 19.3428 19.7473 1.09711 4.5237 60.0656
6115988 9.32798 11.5758 19.3329 19.7375 1.10566 4.54361 59.9743
6115998 9.32798 11.5758 19.3329 19.7375 1.10566 4.54361 59.9743
6116008 9.36321 11.5943 19.3133 19.6791 1.08294 4.51249 59.9498
6116018 9.3544 11.6311 19.2542 19.8057 1.17753 4.51519 60.0454
6116028 9.3544 11.6311 19.2542 19.8057 1.17753 4.51519 60.0454
6116038 9.42487 11.6219 19.3034 19.6888 1.07531 4.48346 60.039
6116053 9.42487 11.6219 19.3034 19.6888 1.07531 4.48346 60.039
6116058 9.31917 11.6035 19.3133 19.6791 1.10579 4.52384 59.915
6116069 9.40725 11.6495 19.2936 19.6693 1.09049 4.47507 60.0197
6116079 9.40725 11.6495 19.2936 19.6693 1.09049 4.47507 60.0197
6116090 9.37202 11.6587 19.4019 19.6888 1.0702 4.50587 60.1214
6116099 9.40725 11.6863 19.3428 19.6888 1.09152 4.47516 60.1252
6116119 9.41606 11.6679 19.3133 19.7083 1.10095 4.47652 60.1056
6116130 9.41606 11.7324 19.3723 19.6401 1.07384 4.45405 60.1609
6116141 9.41606 11.7324 19.3723 19.6401 1.07384 4.45405 60.1609
6116152 9.41606 11.7416 19.3231 19.6596 1.1066 4.44586 60.1404
6116161 9.41606 11.7416 19.3231 19.6596 1.1066 4.44586 60.1404
6116171 9.38964 11.7232 19.3329 19.6109 1.08709 4.45355 60.0567
6116181 9.44249 11.6956 19.2837 19.5232 1.03951 4.42128 59.945
6116191 9.44249 11.6956 19.2837 19.5232 1.03951 4.42128 59.945
6116201 9.39845 11.76 19.2148 19.5622 1.12993 4.40937 59.9355
6116210 9.39845 11.76 19.2148 19.5622 1.12993 4.40937 59.9355
6116220 9.44249 11.7416 19.2444 19.5817 1.09833 4.40974 60.0101
6116231 9.39845 11.7232 19.2345 19.5037 1.08334 4.41446 59.8599
6116240 9.39845 11.7232 19.2345 19.5037 1.08334 4.41446 59.8599
6116251 9.39845 11.7692 19.2542 19.5427 1.10869 4.40991 59.9646
6116263 9.43368 11.7692 19.205 19.5427 1.11478 4.38981 59.9506
6116272 9.43368 11.7692 19.205 19.5427 1.11478 4.38981 59.9506
6116282 9.45129 11.7692 19.2148 19.6206 1.13384 4.39963 60.056
6116292 9.52176 11.7969 19.1361 19.6596 1.16388 4.36096 60.1143
6116302 9.52176 11.7969 19.1361 19.6596 1.16388 4.36096 60.1143
6116312 9.4601 11.8521 19.1951 19.5622 1.14827 4.35623 60.0695
6116322 9.4601 11.8521 19.1951 19.5622 1.14827 4.35623 60.0695
6116332 9.50414 11.8889 19.1065 19.5427 1.17457 4.311 60.0423
6116342 9.47772 12.0087 19.0672 19.455 1.21599 4.25834 60.0086
6116352 9.47772 12.0087 19.0672 19.455 1.21599 4.25834 60.0086
6116362 9.53057 11.9718 19.0081 19.3479 1.16149 4.22336 59.8584
6116382 9.54819 11.9718 18.9983 19.3284 1.15033 4.21242 59.8466
6116392 9.58342 11.981 19.0376 19.3576 1.13308 4.21052 59.9597
6116407 9.58342 11.981 19.0376 19.3576 1.13308 4.21052 59.9597
6116416 9.59223 12.0547 18.9786 19.3868 1.19589 4.17875 60.0123
6116426 9.60104 12.0455 18.9687 19.3284 1.16947 4.16655 59.9436
6116433 9.60104 12.0455 18.9687 19.3284 1.16947 4.16655 59.9436
6116443 9.59223 12.0179 18.9687 19.2797 1.14293 4.1694 59.8585
6116453 9.57461 12.0179 18.9294 19.3284 1.18725 4.17674 59.8502
6116463 9.57461 12.0639 18.9294 19.3284 1.20555 4.16199 59.8963
6116473 9.62746 12.0455 18.9786 19.2797 1.13427 4.15108 59.9312
6116483 9.62746 12.0455 18.9786 19.2797 1.13427 4.15108 59.9312
6116493 9.64508 12.0731 18.949 19.3673 1.18529 4.14715 60.0346
6116503 9.65389 12.11 18.8998 19.2699 1.17888 4.10602 59.9336
6116513 9.65389 12.11 18.8998 19.2699 1.17888 4.10602 59.9336
6116525 9.69793 12.1192 19.0081 19.2699 1.11617 4.10872 60.0951
6116543 9.65389 12.0731 18.9983 19.2699 1.1213 4.13562 59.9952
6116554 9.70674 12.1376 18.9294 19.2797 1.15779 4.08754 60.0533
6116575 9.6715 12.156 18.9589 19.2797 1.16758 4.09825 60.0661
6116585 9.70674 12.156 18.9392 19.2309 1.14147 4.07462 60.0329
6116595 9.70674 12.156 18.9392 19.2309 1.14147 4.07462 60.0329
6116604 9.72435 12.1928 18.8998 19.1725 1.14235 4.03949 59.9895
6116616 9.70674 12.1284 18.8801 19.1335 1.11741 4.05485 59.8488
6116625 9.70674 12.1284 18.8801 19.1335 1.11741 4.05485 59.8488
6116635 9.70674 12.1652 18.8703 19.1043 1.12475 4.03598 59.8465
6116645 9.70674 12.1652 18.8703 19.1043 1.12475 4.03598 59.8465
6116655 9.69793 12.1376 18.8506 19.1628 1.14948 4.05467 59.8489
6116667 9.75078 12.1652 18.9294 19.1725 1.107 4.04526 60.0179
6116678 9.75078 12.1652 18.9294 19.1725 1.107 4.04526 60.0179
6116689 9.70674 12.1652 18.8998 19.1238 1.11963 4.04495 59.8956
6116697 9.73316 12.156 18.9392 19.2309 1.12996 4.06622 60.0593
6116707 9.73316 12.156 18.9392 19.2309 1.12996 4.06622 60.0593
6116718 9.71554 12.1652 18.949 19.1628 1.10988 4.05826 59.9926
6116737 9.68031 12.1376 18.9392 19.2115 1.13791 4.08533 59.9686
6116747 9.74197 12.1744 18.949 19.1822 1.10981 4.0505 60.0477
6116767 9.80363 12.1008 18.89 19.1433 1.06378 4.03641 59.9376
6116777 9.74197 12.1744 18.9294 19.1822 1.11837 4.04691 60.028
6116786 9.74197 12.1744 18.9294 19.1822 1.11837 4.04691 60.028
6116799 9.75959 12.1652 18.9392 19.153 1.09113 4.0407 60.017
6116808 9.75959 12.1652 18.9392 19.153 1.09113 4.0407 60.017
6116820 9.74197 12.1652 18.8112 19.0556 1.1157 4.00499 59.774
6116828 9.7772 12.156 18.7915 19.1238 1.13246 4.00564 59.8485
6116849 9.83886 12.2113 18.8703 19.0361 1.05835 3.96694 59.9565
6116858 9.79482 12.2665 18.8309 18.9874 1.09727 3.94716 59.8797
6116871 9.79482 12.2665 18.8309 18.9874 1.09727 3.94716 59.8797
6116878 9.81244 12.2941 18.7915 18.9874 1.11778 3.92558 59.8855
6116898 9.82124 12.2573 18.7423 18.9776 1.11683 3.92353 59.7985
6116908 9.8829 12.3218 18.7915 19.0556 1.12524 3.90724 60.0518
6116918 9.8829 12.3218 18.7915 19.0556 1.12524 3.90724 60.0518
6116928 9.87409 12.3862 18.7128 18.9776 1.15803 3.86069 59.9508
6116938 9.96218 12.4047 18.6931 18.9874 1.13942 3.8254 60.0473
6116948 9.96218 12.4047 18.6931 18.9874 1.13942 3.8254 60.0473
6116959 9.92694 12.4047 18.7128 18.9095 1.11518 3.82561 59.9538
6116968 9.92694 12.4047 18.7128 18.9095 1.11518 3.82561 59.9538
6116980 9.90052 12.3862 18.6636 18.8997 1.13695 3.8287 59.8501
6116988 9.95337 12.5244 18.5947 18.8218 1.16794 3.74127 59.8942
6116999 9.95337 12.5244 18.5947 18.8218 1.16794 3.74127 59.8942
6117009 10.0062 12.5612 18.4667 18.7731 1.19607 3.67991 59.8072
6117019 9.99741 12.5981 18.5356 18.7828 1.18831 3.68603 59.9139
6117045 10.0855 12.6441 18.5061 18.7633 1.17329 3.63502 59.999
6117064 10.0855 12.6441 18.5061 18.7633 1.17329 3.63502 59.999
6117066 10.1031 12.6901 18.4765 18.6659 1.15807 3.59115 59.9357
6117069 10.1119 12.7086 18.4175 18.6172 1.16796 3.56215 59.8552
6117091 10.1472 12.7086 18.3781 18.549 1.14259 3.53063 59.7828
6117100 10.1119 12.7362 18.4175 18.5977 1.1712 3.54986 59.8633
6117112 10.1119 12.7362 18.4175 18.5977 1.1712 3.54986 59.8633
6117125 10.1648 12.7822 18.4076 18.5003 1.13195 3.49869 59.8549
6117140 10.1912 12.7914 18.4076 18.4808 1.11632 3.48394 59.8711
6117150 10.2 12.7638 18.4372 18.5295 1.10802 3.50478 59.9305
6117172 10.2528 12.8375 18.3683 18.3931 1.08998 3.42623 59.8517
6117182 10.2088 12.8283 18.3683 18.4029 1.10941 3.44452 59.8082
6117196 10.2088 12.8283 18.3683 18.4029 1.10941 3.44452 59.8082
6117202 10.3057 12.8835 18.3683 18.4029 1.08923 3.39772 59.9604
6117213 10.3057 12.8835 18.319 18.4029 1.11066 3.38819 59.9111
6117222 10.3497 12.9112 18.319 18.3736 1.09085 3.36055 59.9536
6117233 10.2793 12.8651 18.3289 18.3834 1.10277 3.40009 59.8567
6117253 10.2969 12.9112 18.319 18.286 1.07885 3.35971 59.8131
6117268 10.3762 12.8927 18.26 18.1983 1.02754 3.3124 59.7272
6117273 10.3762 12.8927 18.26 18.1983 1.02754 3.3124 59.7272
6117283 10.3674 12.948 18.2994 18.1983 1.03638 3.30588 59.813
6117294 10.4026 12.9848 18.319 18.1301 0.999922 3.27435 59.8366
6117303 10.4026 12.9848 18.319 18.1301 0.999922 3.27435 59.8366
6117315 10.4642 12.9848 18.1714 18.0716 1.01388 3.21498 59.6921
6117324 10.4642 12.9848 18.1714 18.0716 1.01388 3.21498 59.6921
6117340 10.4554 13.0033 18.1812 18.0132 0.997329 3.20245 59.6531
6117344 10.5611 12.9848 18.2206 18.0424 0.938606 3.18942 59.809
6117354 10.5611 12.9848 18.2206 18.0424 0.938606 3.18942 59.809
6117364 10.5964 13.0677 18.1419 17.945 0.951642 3.11864 59.7509
6117374 10.5699 13.0677 18.132 17.9158 0.955638 3.11888 59.6854
6117388 10.5699 13.0677 18.132 17.9158 0.955638 3.11888 59.6854
6117394 10.614 13.0769 18.1812 17.9352 0.9267 3.1164 59.8074
6117414 10.5699 13.0585 18.1911 17.9547 0.941962 3.14116 59.7743
6117424 10.5964 13.0401 18.2206 18.0034 0.929886 3.15423 59.8605
6117435 10.5964 13.0401 18.2206 18.0034 0.929886 3.15423 59.8605
6117444 10.5699 13.0585 18.2305 17.9742 0.932726 3.15282 59.8331
6117457 10.5699 13.0585 18.2305 17.9742 0.932726 3.15282 59.8331
6117464 10.5347 13.0585 18.3092 17.984 0.917792 3.18101 59.8864
6117474 10.5699 13.0585 18.3387 17.945 0.874114 3.16845 59.9122
6117494 10.5699 13.0309 18.2501 17.984 0.916997 3.16703 59.8349
6117505 10.5788 13.0401 18.26 17.9547 0.900862 3.15773 59.8336
6117515 10.5788 13.0401 18.26 17.9547 0.900862 3.15773 59.8336
6117524 10.5523 13.0033 18.3387 17.9158 0.847659 3.18481 59.8101
6117536 10.4554 12.9296 18.4175 18.0229 0.869015 3.27337 59.8254
6117546 10.4554 12.9296 18.4175 18.0229 0.869015 3.27337 59.8254
6117556 10.4554 12.948 18.4765 18.0229 0.850931 3.27932 59.9029
6117567 10.4554 12.948 18.4765 18.0229 0.850931 3.27932 59.9029
6117576 10.4554 12.9204 18.5455 18.0911 0.837573 3.31451 60.0124
6117588 10.4202 12.8927 18.5356 18.0619 0.834087 3.32611 59.9104
6117596 10.4202 12.8927 18.5356 18.0619 0.834087 3.32611 59.9104
6117609 10.429 12.9019 18.5258 18.0424 0.830385 3.31487 59.8991
6117617 10.429 12.9019 18.4864 18.0424 0.847375 3.30719 59.8598
6117626 10.4026 12.9019 18.4864 17.984 0.835183 3.30385 59.7749
6117636 10.4466 12.9204 18.447 18.0424 0.864205 3.28848 59.8564
6117645 10.4466 12.9204 18.447 18.0424 0.864205 3.28848 59.8564
6117655 10.3497 12.8651 18.4864 18.0034 0.851029 3.33516 59.7047
6117665 10.3674 12.8743 18.5553 18.0911 0.852752 3.35745 59.8881
6117696 10.4202 12.8835 18.5159 18.0716 0.842789 3.32698 59.8913
6117703 10.4202 12.8835 18.5159 18.0716 0.842789 3.32698 59.8913
6117709 10.3233 12.8467 18.5947 18.1496 0.867188 3.39841 59.9143
6117718 10.3497 12.8651 18.5651 18.1398 0.872022 3.37704 59.9198
6117740 10.3497 12.8191 18.5258 18.1398 0.870484 3.38354 59.8344
6117748 10.3409 12.8375 18.5455 18.1398 0.873202 3.3844 59.8637
6117761 10.3409 12.8375 18.5455 18.1398 0.873202 3.3844 59.8637
6117768 10.3409 12.9112 18.5258 18.0716 0.883922 3.34472 59.8495
6117778 10.4114 12.9388 18.4962 18.0716 0.877357 3.30894 59.9181
6117788 10.4114 12.9388 18.4962 18.0716 0.877357 3.30894 59.9181
6117798 10.429 12.948 18.4864 18.0229 0.858089 3.28931 59.8863
6117808 10.429 12.948 18.4864 18.0229 0.858089 3.28931 59.8863
6117818 10.3762 12.9572 18.4372 18.0424 0.913796 3.29683 59.813
6117830 10.4554 12.9664 18.447 17.945 0.839663 3.25263 59.8139
6117838 10.4554 12.9664 18.447 17.945 0.839663 3.25263 59.8139
6117849 10.3762 13.0585 18.3584 18.0424 0.988677 3.25045 59.8355
6117858 10.4378 12.994 18.3978 18.0327 0.915051 3.25712 59.8623
6117870 10.4378 12.994 18.3978 18.0327 0.915051 3.25712 59.8623
6117878 10.4378 12.9756 18.3781 18.1301 0.955319 3.27797 59.9216
6117888 10.4378 12.9756 18.3781 18.1301 0.955319 3.27797 59.9216
6117899 10.385 12.9756 18.3486 18.0327 0.951901 3.26923 59.7418
6117908 10.4466 13.0033 18.319 18.0132 0.941229 3.23232 59.7821
6117919 10.4466 13.0033 18.319 18.0132 0.941229 3.23232 59.7821
6117929 10.4378 13.0953 18.2797 17.9937 0.991336 3.19535 59.8065
6117941 10.4731 13.0769 18.2403 18.0229 0.997475 3.18823 59.8132
6117949 10.4731 13.0769 18.2403 18.0229 0.997475 3.18823 59.8132
6117959 10.4642 13.0861 18.2206 17.9937 1.00183 3.17845 59.7647
6117969 10.4642 13.0861 18.2206 17.9937 1.00183 3.17845 59.7647
6117979 10.5259 13.0585 18.2108 17.9645 0.956458 3.16037 59.7597
6117989 10.5523 13.1414 18.2108 17.9645 0.978285 3.12721 59.869
6118000 10.5523 13.1414 18.2108 17.9645 0.978285 3.12721 59.869
6118009 10.5347 13.1874 18.1714 17.9158 1.00197 3.10111 59.8093
6118022 10.5699 13.1598 18.0533 17.8963 1.01914 3.07136 59.6793
6118029 10.5699 13.1598 18.0533 17.8963 1.01914 3.07136 59.6793
6118039 10.6492 13.2519 18.1025 17.8476 0.98066 3.01972 59.8512
6118051 10.6492 13.2519 18.1025 17.8476 0.98066 3.01972 59.8512
6118059 10.614 13.2335 18.073 17.7696 0.970078 3.01435 59.6901
6118070 10.6492 13.2703 17.945 17.8281 1.04878 2.97864 59.6926
6118080 10.6492 13.2703 17.945 17.8281 1.04878 2.97864 59.6926
6118090 10.6933 13.3348 17.9942 17.7112 0.987086 2.93236 59.7334
6118100 10.6845 13.3164 17.9351 17.7501 1.0249 2.93648 59.6861
6118111 10.6845 13.3164 17.9351 17.7501 1.0249 2.93648 59.6861
6118121 10.7373 13.3532 17.9253 17.7307 1.01313 2.90363 59.7465
6118133 10.7373 13.3532 17.9253 17.7307 1.01313 2.90363 59.7465
6118141 10.7637 13.4545 17.9351 17.6917 1.02235 2.85954 59.8451
6118153 10.7725 13.3808 17.9253 17.7209 1.00498 2.88284 59.7996
6118161 10.7725 13.3808 17.9253 17.7209 1.00498 2.88284 59.7996
6118170 10.9311 13.4177 17.8564 17.6625 0.957379 2.7987 59.8676
6118180 10.9311 13.4177 17.8662 17.6625 0.953111 2.80071 59.8775
6118190 10.8959 13.4545 17.8662 17.5943 0.955793 2.78632 59.8109
6118201 10.9399 13.5558 17.7481 17.5066 0.993451 2.70099 59.7504
6118221 10.9927 13.5098 17.6989 17.3897 0.926226 2.66468 59.5911
6118232 11.0368 13.5558 17.6103 17.4384 0.983837 2.62975 59.6413
6118252 11.0896 13.6111 17.5808 17.3897 0.976318 2.58159 59.6712
6118263 11.0632 13.5834 17.5414 17.4092 1.00172 2.59339 59.5972
6118285 11.1425 13.6847 17.5316 17.4287 1.02 2.54226 59.7874
6118293 11.1425 13.6847 17.5316 17.4287 1.02 2.54226 59.7874
6118303 11.1689 13.5558 17.4922 17.3507 0.942382 2.54791 59.5676
6118313 11.1601 13.6663 17.5414 17.4092 0.992844 2.54048 59.777
6118331 11.1601 13.6663 17.5414 17.4092 0.992844 2.54048 59.777
6118337 11.1601 13.6571 17.4823 17.4384 1.02659 2.53697 59.7379
6118346 11.1337 13.6939 17.5119 17.4384 1.04001 2.54007 59.7779
6118354 11.1337 13.6939 17.5119 17.4384 1.04001 2.54007 59.7779
6118363 11.1249 13.6847 17.4922 17.4968 1.07215 2.55343 59.7986
6118374 11.1249 13.6847 17.4922 17.4968 1.07215 2.55343 59.7986
6118383 11.0808 13.6018 17.5316 17.4579 1.02533 2.59085 59.6721
6118394 11.1073 13.6571 17.5906 17.565 1.05318 2.6013 59.92
6118417 11.0808 13.5742 17.5611 17.6917 1.09501 2.65351 59.9078
6118424 11.0192 13.565 17.5512 17.6819 1.11863 2.67038 59.8174
6118434 11.0192 13.565 17.5512 17.6819 1.11863 2.67038 59.8174
6118445 10.9663 13.519 17.4725 17.6332 1.13833 2.67334 59.591
6118454 10.9663 13.519 17.4725 17.6332 1.13833 2.67334 59.591
6118467 10.9223 13.4545 17.4725 17.6917 1.15526 2.71764 59.541
6118474 10.8694 13.4361 17.4922 17.6819 1.15855 2.74093 59.4796
6118490 10.8694 13.4361 17.4922 17.6819 1.15855 2.74093 59.4796
6118495 10.8782 13.3716 17.5808 17.7794 1.12899 2.79575 59.61
6118516 10.8606 13.3716 17.6202 17.7794 1.11946 2.80906 59.6318
6118519 10.8606 13.3348 17.6202 17.9255 1.16315 2.84986 59.7411
6118524 10.8166 13.3716 17.7481 17.9937 1.16828 2.89178 59.93
6118544 10.7813 13.3348 17.7776 18.0132 1.16387 2.92321 59.907
6118555 10.7902 13.3808 17.8367 17.9937 1.14483 2.91479 60.0014
6118566 10.7902 13.3808 17.8367 17.9937 1.14483 2.91479 60.0014
6118575 10.7461 13.39 17.8958 18.0229 1.15356 2.94295 60.0548
6118584 10.6933 13.3072 17.8564 18.0327 1.16471 2.97765 59.8895
6118595 10.6933 13.3072 17.8564 18.0327 1.16471 2.97765 59.8895
6118605 10.7109 13.2519 17.9056 17.9255 1.07072 2.97731 59.7939
6118615 10.7109 13.2519 17.9056 17.9255 1.07072 2.97731 59.7939
6118625 10.6668 13.1782 17.8662 17.9352 1.08154 3.00682 59.6465
6118635 10.658 13.1966 17.945 17.9937 1.08177 3.03145 59.7934
6118645 10.658 13.1966 17.945 17.9937 1.08177 3.03145 59.7934
6118656 10.5964 13.2059 17.9647 18.0132 1.11157 3.05511 59.7801
6118665 10.5964 13.2059 17.9647 18.0132 1.11157 3.05511 59.7801
6118677 10.5523 13.2427 18.0139 18.0911 1.15508 3.08264 59.9
6118685 10.5611 13.1966 18.1222 18.1106 1.09347 3.11924 59.9906
6118705 10.5699 13.123 18.2501 18.2567 1.06297 3.19286 60.1998
6118717 10.5523 13.1322 18.2698 18.2567 1.06573 3.19926 60.2111
6118727 10.5523 13.1322 18.2698 18.2567 1.06573 3.19926 60.2111
6118737 10.5347 13.1598 18.2403 18.208 1.07777 3.18088 60.1428
6118747 10.5171 13.0217 18.2698 18.2178 1.02143 3.23578 60.0264
6118759 10.5171 13.0217 18.2698 18.2178 1.02143 3.23578 60.0264
6118767 10.4907 13.0493 18.1517 18.0521 1.029 3.17955 59.7438
6118781 10.4907 13.0493 18.1517 18.0521 1.029 3.17955 59.7438
6118787 10.4114 13.0033 18.0533 18.0424 1.08426 3.19634 59.5103
6118797 10.4466 12.9572 18.0631 18.1106 1.07342 3.21511 59.5776
6118807 10.4466 12.9572 18.0631 18.1106 1.07342 3.21511 59.5776
6118817 10.385 13.0033 18.0533 18.2372 1.17389 3.24294 59.6787
6118827 10.385 13.0033 18.0533 18.2372 1.17389 3.24294 59.6787
6118840 10.3762 12.9572 18.1222 18.247 1.13306 3.27519 59.7025
6118847 10.3321 12.9848 18.1419 18.3542 1.19748 3.30507 59.813
6118867 10.3497 12.9664 18.2009 18.3444 1.15272 3.31495 59.8615
6118877 10.3321 12.9664 18.1517 18.3931 1.20135 3.32024 59.8434
6118888 10.3321 12.9664 18.1517 18.3931 1.20135 3.32024 59.8434
6118897 10.3938 13.0125 18.2009 18.3054 1.13632 3.27981 59.9126
6118907 10.3938 13.0125 18.2009 18.3054 1.13632 3.27981 59.9126
6118917 10.3057 12.9664 18.1517 18.3639 1.20129 3.32263 59.7877
6118930 10.3321 12.9664 18.2108 18.2957 1.1367 3.31275 59.805
6118937 10.3321 12.9664 18.2108 18.2957 1.1367 3.31275 59.805
6118952 10.4026 12.948 18.2305 18.3054 1.0939 3.30258 59.8865
6118958 10.3409 12.9756 18.1812 18.3152 1.15721 3.30527 59.813
6118968 10.3409 12.9756 18.1812 18.3152 1.15721 3.30527 59.813
6118986 10.3057 13.0033 18.1812 18.3444 1.19526 3.31331 59.8346
6118989 10.3057 13.0033 18.1812 18.3444 1.19526 3.31331 59.8346
6119000 10.3057 12.9388 18.1911 18.3249 1.15751 3.33118 59.7605
6119008 10.2793 12.9296 18.1714 18.4126 1.20897 3.35537 59.7929
6119022 10.2793 12.9296 18.1714 18.4126 1.20897 3.35537 59.7929
6119028 10.3233 12.9388 18.1812 18.3834 1.1774 3.33526 59.8267
6119038 10.3321 12.9848 18.2403 18.4223 1.18155 3.33756 59.9796
6119048 10.3321 12.9848 18.2403 18.4223 1.18155 3.33756 59.9796
6119058 10.3321 12.948 18.3486 18.51 1.15455 3.38679 60.1387
6119068 10.3321 12.948 18.3486 18.51 1.15455 3.38679 60.1387
6119078 10.3233 12.9204 18.4076 18.4905 1.11401 3.40557 60.1419
6119088 10.3233 12.9848 18.3486 18.3736 1.11884 3.35182 60.0304
6119099 10.3233 12.9848 18.3486 18.3736 1.11884 3.35182 60.0304
6119108 10.3409 12.9664 18.2994 18.247 1.07475 3.31784 59.8537
6119127 10.2793 12.9019 18.1911 18.2275 1.1154 3.33156 59.5998
6119130 10.2793 12.9019 18.1911 18.2275 1.1154 3.33156 59.5998
6119139 10.2969 12.9296 18.2206 18.1301 1.06675 3.30435 59.5772
6119159 10.4026 12.9756 18.1812 18.0814 1.03669 3.2405 59.6408
6119175 10.4026 13.0401 18.1025 18.1398 1.1204 3.2168 59.685
6119179 10.4026 13.0401 18.1025 18.1398 1.1204 3.2168 59.685
6119189 10.4378 13.0677 18.0434 18.0911 1.12239 3.1763 59.6401
6119202 10.5083 13.0401 18.0631 18.1691 1.10309 3.18259 59.7805
6119210 10.5083 13.0401 18.0631 18.1691 1.10309 3.18259 59.7805
6119224 10.4378 13.0493 18.0434 18.1496 1.13841 3.1935 59.6801
6119230 10.4378 13.0493 18.0434 18.1496 1.13841 3.1935 59.6801
6119241 10.4642 13.0309 18.1025 18.1593 1.09755 3.20465 59.7569
6119252 10.4466 13.0033 18.0926 18.286 1.14909 3.24145 59.8285
6119260 10.4466 13.0033 18.0926 18.286 1.14909 3.24145 59.8285
6119274 10.4114 12.9388 18.1419 18.2665 1.10946 3.27773 59.7585
6119280 10.4378 12.9296 18.2108 18.2567 1.0603 3.28406 59.8349
6119291 10.4378 12.9296 18.2108 18.2567 1.0603 3.28406 59.8349
6119301 10.4202 12.9572 18.3092 18.3444 1.0712 3.31734 60.031
6119311 10.4202 12.9572 18.3092 18.3444 1.0712 3.31734 60.031
6119322 10.3585 12.9296 18.319 18.3736 1.09436 3.35221 59.9808
6119331 10.3674 12.8651 18.3387 18.3347 1.04067 3.36551 59.9059
6119346 10.3674 12.8651 18.3387 18.3347 1.04067 3.36551 59.9059
6119350 10.3321 12.8467 18.3584 18.3249 1.03616 3.38391 59.8622
6119361 10.244 12.7546 18.4273 18.4126 1.04274 3.46966 59.8386
6119371 10.244 12.7546 18.4273 18.4126 1.04274 3.46966 59.8386
6119380 10.3057 12.8283 18.5159 18.4516 1.02253 3.45254 60.1015
6119395 10.3057 12.8283 18.5159 18.4516 1.02253 3.45254 60.1015
6119400 10.2528 12.727 18.4667 18.4223 1.01462 3.48492 59.8689
6119412 10.2352 12.7546 18.6144 18.4516 0.981 3.51576 60.0558
6119422 10.2352 12.7546 18.6144 18.4516 0.981 3.51576 60.0558
6119432 10.2176 12.6809 18.634 18.3542 0.91148 3.52908 59.8867
6119442 10.1648 12.6349 18.6931 18.4711 0.937262 3.5933 59.9638
6119452 10.1648 12.6349 18.6931 18.4711 0.937262 3.5933 59.9638
6119462 10.1119 12.6165 18.7226 18.4905 0.947779 3.62473 59.9416
6119474 10.1119 12.6165 18.7226 18.4905 0.947779 3.62473 59.9416
6119482 10.1119 12.506 18.7522 18.4613 0.878799 3.65919 59.8314
6119496 10.1295 12.4599 18.703 18.5393 0.905323 3.6735 59.8317
6119502 10.1295 12.4599 18.703 18.5393 0.905323 3.6735 59.8317
6119512 10.0767 12.4783 18.7719 18.4808 0.882238 3.68623 59.8077
6119523 10.0415 12.4231 18.7719 18.5003 0.883064 3.71822 59.7367
6119532 10.0415 12.4231 18.7719 18.5003 0.883064 3.71822 59.7367
6119542 10.0503 12.4507 18.8801 18.6367 0.898477 3.75285 60.0178
6119553 10.0503 12.4507 18.8801 18.6367 0.898477 3.75285 60.0178
6119562 10.0326 12.4139 18.9294 18.5977 0.854364 3.7718 59.9736
6119575 10.0767 12.3494 18.9294 18.6756 0.840816 3.79276 60.0311
6119592 10.0415 12.4231 18.9884 18.6075 0.832769 3.77903 60.0604
6119611 10.0415 12.377 18.8801 18.5782 0.849104 3.7677 59.8768
6119622 10.0415 12.377 18.8801 18.5782 0.849104 3.7677 59.8768
6119629 10.0415 12.4139 18.949 18.6367 0.857767 3.78002 60.041
6119634 10.0415 12.4139 18.949 18.6367 0.857767 3.78002 60.041
6119645 9.97979 12.3586 18.8998 18.6464 0.887296 3.80928 59.8847
6119654 9.97098 12.3402 18.9195 18.5977 0.855532 3.81241 59.8284
6119670 9.97098 12.3402 18.9195 18.5977 0.855532 3.81241 59.8284
6119675 9.97979 12.3218 18.9983 18.6172 0.818178 3.83377 59.917
6119684 9.95337 12.2757 19.0672 18.6172 0.781286 3.8694 59.9135
6119695 9.95337 12.2757 19.0672 18.6172 0.781286 3.8694 59.9135
6119704 9.92694 12.2757 19.0278 18.7341 0.856793 3.8921 59.9646
6119724 9.95337 12.1928 19.0573 18.7244 0.795335 3.91357 59.9279
6119744 9.95337 12.2481 19.0278 18.7438 0.838202 3.89428 59.9731
6119746 9.95337 12.2481 19.0278 18.7438 0.838202 3.89428 59.9731
6119756 9.92694 12.2021 19.1065 18.7633 0.804973 3.93529 59.9989
6119767 9.87409 12.2573 19.0475 18.7925 0.887209 3.92903 59.9714
6119775 9.87409 12.2573 19.0475 18.7925 0.887209 3.92903 59.9714
6119791 9.8829 12.2389 19.018 18.7925 0.88875 3.92661 59.9323
6119795 9.8829 12.2389 19.018 18.7925 0.88875 3.92661 59.9323
6119805 9.82124 12.2481 19.0475 18.7828 0.902423 3.94684 59.8996
6119815 9.86528 12.2021 19.0081 18.7244 0.858292 3.92939 59.7998
6119828 9.86528 12.2021 19.0081 18.7244 0.858292 3.92939 59.7998
6119839 9.85648 12.2757 19.0081 18.7438 0.899649 3.91249 59.8842
6119846 9.93575 12.331 18.9294 18.7828 0.93728 3.86272 59.9789
6119868 9.89171 12.3126 18.9687 18.8023 0.93973 3.89329 59.9753
6119886 9.93575 12.2757 18.949 18.7146 0.879139 3.8711 59.8751
6119896 9.92694 12.4323 18.949 18.7341 0.953656 3.82828 60.0424
6119905 9.92694 12.4323 18.949 18.7341 0.953656 3.82828 60.0424
6119915 9.96218 12.4323 18.8605 18.6269 0.933751 3.78068 59.8818
6119925 9.9886 12.4047 18.8211 18.6464 0.936088 3.77732 59.8608
6119937 9.9886 12.4047 18.8211 18.6464 0.936088 3.77732 59.8608
6119948 10.015 12.4507 18.8112 18.6659 0.955224 3.75643 59.9429
6119958 10.015 12.4507 18.8112 18.6659 0.955224 3.75643 59.9429
6119972 10.0238 12.4875 18.7817 18.6172 0.959435 3.72746 59.9103
6119978 10.0326 12.5152 18.7423 18.588 0.972041 3.70314 59.8781
6119987 10.0326 12.5152 18.7423 18.588 0.972041 3.70314 59.8781
6119997 10.1031 12.5612 18.6833 18.5003 0.950378 3.63903 59.8479
6120007 10.0767 12.506 18.6636 18.5198 0.956008 3.66447 59.766
6120018 10.0767 12.506 18.6636 18.5198 0.956008 3.66447 59.766
6120027 10.1207 12.5796 18.6833 18.4613 0.934482 3.62041 59.8449
6120038 10.1207 12.5796 18.6833 18.4613 0.934482 3.62041 59.8449
6120048 10.0679 12.5336 18.6537 18.4905 0.963467 3.65118 59.7457
6120058 10.0679 12.6165 18.6931 18.5003 0.983572 3.63467 59.8777
6120068 10.0679 12.6165 18.6931 18.5003 0.983572 3.63467 59.8777
6120078 10.1383 12.5888 18.6636 18.5393 0.970373 3.62314 59.93
6120088 10.1119 12.5981 18.6636 18.5295 0.981614 3.62664 59.9031
6120098 10.1119 12.5981 18.6636 18.5295 0.981614 3.62664 59.9031
6120119 10.0767 12.6349 18.7128 18.5295 0.99031 3.63548 59.9539
6120128 10.0855 12.6165 18.6931 18.5003 0.975931 3.62919 59.8954
6120140 10.0855 12.5888 18.6537 18.4905 0.978023 3.62846 59.8186
6120149 10.0855 12.5888 18.6537 18.4905 0.978023 3.62846 59.8186
6120159 10.1295 12.6073 18.634 18.4516 0.959194 3.59786 59.8224
6120169 10.1207 12.6441 18.6144 18.5198 1.0137 3.59839 59.899
6120180 10.1207 12.6441 18.6144 18.5198 1.0137 3.59839 59.899
6120189 10.1472 12.6994 18.6537 18.4905 0.995573 3.57499 59.9908
6120210 10.1295 12.6165 18.6045 18.4905 0.991359 3.59679 59.8411
6120228 10.0855 12.6625 18.6537 18.51 1.01537 3.60925 59.9118
6120252 10.2 12.6349 18.6242 18.5003 0.963554 3.57482 59.9594
6120254 10.1207 12.6533 18.6636 18.5003 0.988227 3.60119 59.9379
6120269 10.1207 12.6533 18.6636 18.5003 0.988227 3.60119 59.9379
6120277 10.1295 12.6441 18.634 18.5003 0.993526 3.59569 59.908
6120282 10.1031 12.6257 18.575 18.4905 1.01938 3.59651 59.7943
6120292 10.1031 12.6257 18.575 18.4905 1.01938 3.59651 59.7943
6120302 10.1119 12.6717 18.6144 18.4808 1.01298 3.58512 59.8788
6120312 10.1119 12.6717 18.6144 18.4808 1.01298 3.58512 59.8788
6120326 10.1383 12.6441 18.6045 18.5198 1.01033 3.59105 59.9067
6120332 10.1295 12.6901 18.6242 18.51 1.02013 3.58139 59.9539
6120342 10.1295 12.6901 18.6242 18.51 1.02013 3.58139 59.9539
6120354 10.1472 12.6349 18.5947 18.4418 0.975823 3.57443 59.8185
6120362 10.1648 12.6901 18.5848 18.4126 0.982901 3.54435 59.8523
6120380 10.1648 12.6901 18.5848 18.4126 0.982901 3.54435 59.8523
6120383 10.2088 12.6533 18.6144 18.4711 0.959671 3.55894 59.9475
6120392 10.2088 12.6533 18.6144 18.4711 0.959671 3.55894 59.9475
6120403 10.2264 12.7178 18.575 18.4223 0.975412 3.51671 59.9415
6120412 10.1824 12.7086 18.5651 18.3444 0.963807 3.51634 59.8005
6120429 10.1824 12.7086 18.5651 18.3444 0.963807 3.51634 59.8005
6120432 10.2352 12.7822 18.5651 18.4711 1.02113 3.50155 60.0537
6120442 10.1648 12.8006 18.5356 18.3347 1.01735 3.48576 59.8357
6120453 10.1648 12.8006 18.5356 18.3347 1.01735 3.48576 59.8357
6120462 10.1824 12.8743 18.5061 18.3542 1.05981 3.45567 59.9169
6120473 10.1824 12.8743 18.5061 18.3542 1.05981 3.45567 59.9169
6120483 10.2793 12.8375 18.4372 18.247 0.989965 3.40314 59.8009
6120495 10.2617 12.8283 18.3978 18.3152 1.03841 3.41699 59.8029
6120503 10.2617 12.8283 18.3978 18.3152 1.03841 3.41699 59.8029
6120519 10.2705 12.8927 18.4864 18.2178 0.98286 3.39274 59.8674
6120523 10.3057 12.8927 18.4372 18.2178 0.988933 3.37236 59.8534
6120533 10.3057 12.9204 18.4372 18.2665 1.01952 3.37335 59.9297
6120545 10.3145 12.9572 18.4569 18.1691 0.982881 3.34426 59.8976
6120556 10.3145 12.9572 18.4569 18.1691 0.982881 3.34426 59.8976
6120569 10.3145 12.9296 18.3486 18.1885 1.02668 3.33542 59.7812
6120573 10.3145 12.9388 18.3486 18.1203 1.00299 3.31927 59.7222
6120583 10.3145 12.9388 18.3486 18.1203 1.00299 3.31927 59.7222
6120594 10.3938 12.9756 18.3092 18.1106 0.996515 3.2741 59.7892
6120603 10.3938 12.9756 18.3092 18.1106 0.996515 3.2741 59.7892
6120619 10.385 12.9664 18.2797 18.0521 0.986004 3.26233 59.6832
6120624 10.429 13.0033 18.26 18.1301 1.0215 3.24907 59.8223
6120633 10.429 13.0033 18.26 18.1301 1.0215 3.24907 59.8223
6120644 10.3762 12.994 18.2698 18.1593 1.04824 3.27569 59.7994
6120653 10.3674 12.994 18.3092 18.0521 0.991929 3.26508 59.7228
6120673 10.4026 13.0401 18.3092 18.0911 1.01073 3.24791 59.843
6120683 10.4026 13.0401 18.3092 18.0911 1.01073 3.24791 59.843
6120694 10.3762 12.9572 18.3683 18.1106 0.971112 3.29669 59.8122
6120703 10.4026 12.9664 18.3781 18.1593 0.978619 3.29725 59.9064
6120723 10.4378 13.0125 18.3289 18.0619 0.964069 3.24372 59.8411
6120734 10.429 13.0217 18.3584 18.0814 0.9666 3.25322 59.8905
6120745 10.429 13.0217 18.3584 18.0814 0.9666 3.25322 59.8905
6120754 10.4642 13.0309 18.3092 18.0424 0.96072 3.22235 59.8467
6120781 10.4466 13.0033 18.2895 18.0034 0.950128 3.22459 59.7428
6120784 10.4819 13.0401 18.2009 17.8865 0.941053 3.16196 59.6094
6120804 10.5083 13.0861 18.2206 17.8378 0.919929 3.13414 59.6529
6120814 10.4642 13.0493 18.2797 17.8378 0.898522 3.17049 59.631
6120824 10.4642 13.0493 18.2797 17.8378 0.898522 3.17049 59.631
6120834 10.5699 13.1322 18.2994 17.906 0.905097 3.13064 59.9075
6120844 10.5699 13.1322 18.2994 17.906 0.905097 3.13064 59.9075
6120854 10.5083 13.0217 18.2698 17.8865 0.892198 3.17319 59.6863
6120864 10.5435 13.1046 18.3387 17.8865 0.880536 3.15095 59.8733
6120882 10.5435 13.1046 18.3387 17.8865 0.880536 3.15095 59.8733
6120892 10.5435 13.1598 18.2797 17.8086 0.896949 3.10703 59.7916
6120908 10.5083 13.1506 18.3486 17.8183 0.882587 3.13611 59.8258
6120912 10.5083 13.1506 18.3486 17.8183 0.882587 3.13611 59.8258
6120915 10.5171 13.1138 18.26 17.8865 0.929785 3.14057 59.7774
6120936 10.5259 13.0861 18.2698 17.8281 0.886986 3.13663 59.71
6120946 10.5347 13.169 18.2994 17.8378 0.907722 3.11663 59.8409
6120955 10.5347 13.169 18.2994 17.8378 0.907722 3.11663 59.8409
6120968 10.5083 13.1322 18.2895 17.8086 0.896809 3.12804 59.7386
6120977 10.614 13.0953 18.3387 17.867 0.838548 3.12854 59.9151
6120997 10.5699 13.1046 18.3486 17.8573 0.853088 3.13911 59.8804
6121007 10.5699 13.1046 18.3486 17.8573 0.853088 3.13911 59.8804
6121018 10.5083 13.1046 18.2994 17.8476 0.897118 3.14612 59.7598
6121027 10.5964 13.1322 18.3387 17.867 0.860992 3.12273 59.9343
6121040 10.5964 13.1322 18.3387 17.867 0.860992 3.12273 59.9343
6121047 10.5788 13.123 18.2797 17.8281 0.874704 3.11139 59.8095
6121057 10.5876 13.1506 18.3289 17.7696 0.83718 3.09852 59.8367
6121077 10.5788 13.169 18.3289 17.8281 0.871986 3.10723 59.9047
6121088 10.5788 13.169 18.3289 17.8281 0.871986 3.10723 59.9047
6121098 10.5611 13.1782 18.3781 17.7404 0.826696 3.10214 59.8579
6121108 10.5523 13.123 18.2797 17.8378 0.890064 3.12133 59.7928
6121118 10.5523 13.123 18.2797 17.8378 0.890064 3.12133 59.7928
6121128 10.5171 13.1598 18.3387 17.8476 0.898522 3.1345 59.8632
6121138 10.5611 13.1138 18.3387 17.7794 0.833395 3.12157 59.793
6121148 10.5611 13.1138 18.3387 17.7794 0.833395 3.12157 59.793
6121158 10.5611 13.1782 18.3683 17.7794 0.846669 3.10792 59.887
6121178 10.5347 13.1506 18.388 17.867 0.873774 3.14555 59.9403
6121192 10.5347 13.1138 18.3584 17.8963 0.883466 3.15665 59.9032
6121215 10.5964 13.1506 18.319 17.8281 0.86121 3.10552 59.8941
6121218 10.5171 13.0677 18.3092 17.7696 0.842655 3.14111 59.6636
6121228 10.5171 13.0677 18.3092 17.7696 0.842655 3.14111 59.6636
6121240 10.5171 13.1046 18.2698 17.8476 0.906101 3.13758 59.739
6121265 10.4554 13.0585 18.2797 17.8378 0.906068 3.17036 59.6314
6121269 10.4995 13.1046 18.3683 17.867 0.878957 3.1663 59.8393
6121279 10.4995 13.1046 18.3683 17.867 0.878957 3.1663 59.8393
6121291 10.429 13.0861 18.3584 17.9255 0.929862 3.20292 59.7991
6121301 10.4642 13.1322 18.3387 17.8573 0.914201 3.16084 59.7925
6121315 10.4642 13.1322 18.3387 17.8573 0.914201 3.16084 59.7925
6121319 10.5083 13.0769 18.2797 17.8768 0.906295 3.1564 59.7417
6121329 10.5083 13.0769 18.2797 17.8768 0.906295 3.1564 59.7417
6121340 10.4466 13.0953 18.319 17.8476 0.911605 3.17156 59.7086
6121350 10.5259 13.0953 18.3978 17.9547 0.886369 3.18421 59.9738
6121363 10.5259 13.0953 18.3978 17.9547 0.886369 3.18421 59.9738
6121369 10.4731 13.0677 18.3584 17.8865 0.887656 3.18743 59.7857
6121380 10.4202 13.0585 18.3387 17.9547 0.942868 3.2159 59.7722
6121393 10.4202 13.0585 18.3387 17.9547 0.942868 3.2159 59.7722
6121401 10.4642 13.0769 18.3584 17.9158 0.906962 3.19308 59.8154
6121411 10.4642 13.0769 18.3584 17.9158 0.906962 3.19308 59.8154
6121420 10.4378 13.0861 18.3092 17.945 0.955236 3.19437 59.7781
6121432 10.4554 13.0769 18.3486 17.9352 0.922889 3.19766 59.8162
6121441 10.4554 13.0769 18.3486 17.9352 0.922889 3.19766 59.8162
6121451 10.4554 13.0493 18.3683 17.9742 0.918922 3.21763 59.8472
6121461 10.4554 13.0493 18.4076 17.9255 0.882265 3.21579 59.8379
6121473 10.4554 13.0493 18.4076 17.9255 0.882265 3.21579 59.8379
6121481 10.4554 13.0585 18.3978 17.9547 0.902003 3.2168 59.8665
6121490 10.4554 13.0585 18.3978 17.9547 0.902003 3.2168 59.8665
6121502 10.3938 12.994 18.4569 17.984 0.888932 3.27259 59.8286
6121510 10.429 12.9756 18.4175 17.9645 0.875443 3.25591 59.7866
6121520 10.429 12.9756 18.4175 17.9645 0.875443 3.25591 59.7866
6121530 10.3938 12.9664 18.4667 17.9547 0.861743 3.27724 59.7816
6121545 10.3497 12.9296 18.4765 17.9742 0.869536 3.30774 59.7301
6121562 10.4026 12.9664 18.4765 17.9937 0.869399 3.28411 59.8392
6121572 10.4026 12.9664 18.4765 17.9937 0.869399 3.28411 59.8392
6121586 10.3145 12.948 18.5159 18.0132 0.890905 3.32821 59.7916
6121592 10.3762 12.9388 18.5258 18.0034 0.852334 3.31217 59.8442
6121612 10.4026 12.8835 18.5159 18.0132 0.826794 3.32097 59.8152
6121622 10.385 12.9204 18.5061 18.0034 0.849602 3.31126 59.8149
6121632 10.385 12.9204 18.5061 18.0034 0.849602 3.31126 59.8149
6121642 10.3585 12.9019 18.6045 18.0327 0.822884 3.34989 59.8977
6121653 10.3585 12.9019 18.6045 18.0327 0.822884 3.34989 59.8977
6121663 10.3497 12.8467 18.5061 18.0424 0.850818 3.35226 59.7449
6121675 10.3674 12.8835 18.5258 18.0327 0.845635 3.33749 59.8093
6121692 10.3938 12.9756 18.4667 18.0521 0.904718 3.2935 59.8883
6121704 10.3938 12.9756 18.5159 18.0034 0.863832 3.2936 59.8888
6121714 10.3938 12.9756 18.5159 18.0034 0.863832 3.2936 59.8888
6121723 10.4378 13.0309 18.5258 17.984 0.85499 3.26143 59.9784
6121733 10.4378 13.0309 18.5258 17.984 0.85499 3.26143 59.9784
6121744 10.3762 12.9388 18.5061 17.9937 0.856912 3.30642 59.8147
6121753 10.4554 13.0309 18.4765 18.0034 0.876462 3.25024 59.9663
6121764 10.4554 13.0309 18.4765 18.0034 0.876462 3.25024 59.9663
6121773 10.4114 12.994 18.4667 17.9158 0.849542 3.25577 59.7879
6121788 10.4466 13.0401 18.4667 17.8963 0.845045 3.22715 59.8497
6121793 10.4466 13.0401 18.4667 17.8963 0.845045 3.22715 59.8497
6121803 10.4731 13.0217 18.3978 17.8476 0.83628 3.20153 59.7401
6121814 10.4731 13.0217 18.3978 17.8476 0.83628 3.20153 59.7401
6121823 10.4819 13.0861 18.2994 17.7794 0.873592 3.14621 59.6467
6121833 10.4642 13.0953 18.2305 17.7794 0.914901 3.13506 59.5694
6121843 10.4642 13.0953 18.2305 17.7794 0.914901 3.13506 59.5694
6121854 10.5347 13.1782 18.3289 17.7891 0.879028 3.11003 59.8309
6121863 10.5259 13.1414 18.2403 17.7112 0.874874 3.09068 59.6188
6121884 10.5611 13.2151 18.1812 17.7209 0.918925 3.04783 59.6784
6121904 10.6316 13.2427 18.1222 17.7014 0.917259 3.00245 59.6979
6121921 10.6316 13.3624 18.1025 17.6527 0.954416 2.95264 59.7492
6121925 10.6316 13.3624 18.1025 17.6527 0.954416 2.95264 59.7492
6121934 10.6668 13.3532 18.1812 17.6332 0.893447 2.95677 59.8345
6121945 10.7021 13.3716 18.0533 17.6235 0.937131 2.91288 59.7505
6121954 10.7021 13.3716 18.0533 17.6235 0.937131 2.91288 59.7505
6121965 10.8342 13.4361 18.0139 17.6332 0.926784 2.84813 59.9174
6121990 10.7902 13.4269 18.0041 17.5358 0.907207 2.84223 59.7569
6121995 10.8254 13.4913 17.945 17.4676 0.916037 2.78654 59.7293
6122015 10.8782 13.4913 17.9056 17.4774 0.914121 2.76475 59.7526
6122028 10.887 13.4453 17.8958 17.3799 0.856599 2.75383 59.608
6122047 10.9399 13.519 17.8761 17.4287 0.891691 2.7222 59.7636
6122055 10.9399 13.519 17.8761 17.4287 0.891691 2.7222 59.7636
6122068 10.8959 13.5558 17.8564 17.3897 0.918469 2.71227 59.6977
6122076 10.9487 13.6203 17.8367 17.3312 0.906506 2.66142 59.7369
6122097 11.0192 13.7124 17.8269 17.302 0.905573 2.6054 59.8604
6122107 11.0456 13.6479 17.7678 17.263 0.878 2.59627 59.7243
6122127 11.0192 13.7308 17.7678 17.2143 0.903249 2.56952 59.7321
6122137 11.0192 13.7308 17.7678 17.2143 0.903249 2.56952 59.7321
6122148 11.0192 13.6111 17.6989 17.1461 0.857124 2.57623 59.4753
6122157 11.0456 13.74 17.6989 17.1948 0.917539 2.54062 59.6793
6122169 11.0456 13.74 17.6989 17.1948 0.917539 2.54062 59.6793
6122185 11.0896 13.7308 17.7087 17.1461 0.870761 2.52227 59.6753
6122195 11.1073 13.7216 17.6497 17.0974 0.865301 2.49722 59.5759
6122198 11.1073 13.7216 17.6497 17.0974 0.865301 2.49722 59.5759
6122207 11.1337 13.7768 17.6891 17.1072 0.863069 2.48357 59.7067
6122219 11.1337 13.7768 17.6891 17.1072 0.863069 2.48357 59.7067
6122227 11.0896 13.7308 17.6497 17.0487 0.856939 2.48946 59.5188
6122244 11.1249 13.7492 17.6398 17.1072 0.877059 2.48392 59.6211
6122247 11.1249 13.7492 17.6398 17.1072 0.877059 2.48392 59.6211
6122257 11.2041 13.8321 17.63 17.0779 0.868651 2.42829 59.7441
6122267 11.1161 13.74 17.6891 17.0195 0.820261 2.48113 59.5646
6122277 11.1161 13.74 17.6891 17.0195 0.820261 2.48113 59.5646
6122294 11.1689 13.8505 17.7186 17.1072 0.864795 2.45793 59.8451
6122298 11.1689 13.8505 17.7186 17.1072 0.864795 2.45793 59.8451
6122307 11.1865 13.8229 17.7186 17.0585 0.826359 2.45064 59.7864
6122320 11.1777 13.8229 17.7087 17.0487 0.830477 2.44909 59.758
6122337 11.2306 13.8413 17.7186 17.0779 0.822663 2.43652 59.8684
6122349 11.2306 13.8413 17.7186 17.0779 0.822663 2.43652 59.8684
6122357 11.1073 13.7216 17.7875 17.0877 0.801659 2.52404 59.704
6122370 11.1337 13.7676 17.6891 17.0487 0.835687 2.474 59.639
6122388 11.1161 13.7031 17.7481 17.0585 0.795552 2.51251 59.6258
6122399 11.1161 13.6479 17.8367 17.0585 0.734827 2.54728 59.6591
6122408 11.1161 13.6479 17.8367 17.0585 0.734827 2.54728 59.6591
6122420 11.0632 13.6571 17.8761 17.1169 0.768128 2.5805 59.7133
6122429 11.072 13.6295 17.9548 17.1461 0.731048 2.60846 59.8025
6122442 11.072 13.6295 17.9548 17.1461 0.731048 2.60846 59.8025
6122449 11.072 13.5742 18.0237 17.2143 0.706691 2.65307 59.8843
6122469 11.0368 13.5466 18.0533 17.2143 0.697923 2.67771 59.851
6122479 10.9839 13.565 18.1419 17.2241 0.694013 2.70809 59.9149
6122489 10.9839 13.565 18.1419 17.2241 0.694013 2.70809 59.9149
6122499 10.9399 13.5098 18.132 17.2436 0.702626 2.73946 59.8252
6122510 10.8959 13.4637 18.2108 17.2338 0.665042 2.78033 59.8041
6122521 10.8959 13.4637 18.2108 17.2338 0.665042 2.78033 59.8041
6122536 10.887 13.3348 18.319 17.2825 0.589737 2.85334 59.8234
6122541 10.887 13.3348 18.319 17.2825 0.589737 2.85334 59.8234
6122551 10.8166 13.3256 18.3683 17.3605 0.626838 2.90289 59.8709
6122562 10.7902 13.2795 18.4864 17.341 0.560942 2.94448 59.897
6122571 10.7902 13.2795 18.4864 17.341 0.560942 2.94448 59.897
6122582 10.7725 13.2887 18.4372 17.3897 0.613102 2.94689 59.8881
6122591 10.7285 13.2243 18.5159 17.3897 0.571987 2.99528 59.8584
6122611 10.7197 13.1414 18.6636 17.3799 0.474948 3.05046 59.9046
6122621 10.7197 13.1414 18.6636 17.3799 0.474948 3.05046 59.9046
6122631 10.6316 13.0677 18.634 17.4384 0.518832 3.10509 59.7718
6122641 10.6492 13.0677 18.6537 17.4774 0.518864 3.11142 59.848
6122651 10.6492 13.0677 18.6537 17.4774 0.518864 3.11142 59.848
6122662 10.5788 13.0217 18.7325 17.5456 0.52439 3.17584 59.8785
6122674 10.5435 12.8651 18.8112 17.5261 0.433683 3.24591 59.7459
6122682 10.5435 12.8651 18.8112 17.5261 0.433683 3.24591 59.7459
6122694 10.4819 12.8375 18.949 17.6527 0.441957 3.32498 59.9211
6122712 10.4907 12.7546 18.9294 17.7404 0.44854 3.36088 59.915
6122722 10.385 12.6717 18.9687 17.8378 0.482699 3.44532 59.8633
6122732 10.385 12.6717 18.9687 17.8378 0.482699 3.44532 59.8633
6122742 10.3321 12.6441 19.0081 17.8865 0.49707 3.48711 59.8709
6122752 10.2617 12.5796 19.1459 17.9547 0.46995 3.56829 59.9419
6122763 10.2617 12.5796 19.1459 17.9547 0.46995 3.56829 59.9419
6122772 10.2088 12.4415 19.2247 17.9742 0.410295 3.64631 59.8492
6122783 10.2088 12.4415 19.2247 17.9742 0.410295 3.64631 59.8492
6122793 10.1736 12.3678 19.264 18.1885 0.466189 3.72817 59.994
6122809 10.1207 12.3586 19.2739 18.1203 0.452763 3.73659 59.8736
6122813 10.1207 12.3586 19.2739 18.1203 0.452763 3.73659 59.8736
6122826 10.0503 12.2757 19.3133 18.208 0.467956 3.80852 59.8473
6122833 10.0238 12.2757 19.2936 18.2762 0.515515 3.82589 59.8694
6122843 10.0238 12.2757 19.2936 18.2762 0.515515 3.82589 59.8694
6122853 10.0238 12.2573 19.3822 18.3054 0.482234 3.85362 59.9688
6122865 10.0238 12.2573 19.3822 18.3054 0.482234 3.85362 59.9688
6122873 9.96218 12.2481 19.392 18.3054 0.500503 3.87776 59.9077
6122883 9.97098 12.2665 19.4215 18.3736 0.519565 3.8873 60.0327
6122895 9.97098 12.2665 19.4215 18.3736 0.519565 3.8873 60.0327
6122903 9.96218 12.2665 19.4117 18.3347 0.511596 3.88103 59.9751
6122920 9.93575 12.2849 19.5101 18.3444 0.492492 3.90357 60.0752
6122923 9.93575 12.2849 19.5101 18.3444 0.492492 3.90357 60.0752
6122933 9.92694 12.2665 19.4019 18.3054 0.518847 3.88488 59.9008
6122954 9.94456 12.2113 19.392 18.3152 0.496921 3.89674 59.863
6122963 9.94456 12.3218 19.3526 18.2372 0.527024 3.84009 59.8562
6122974 9.94456 12.3218 19.3526 18.2372 0.527024 3.84009 59.8562
6122984 9.97098 12.2941 19.3231 18.2567 0.525022 3.83859 59.845
6122999 9.91813 12.3034 19.2739 18.1885 0.544485 3.83041 59.6839
6123004 9.91813 12.3034 19.2739 18.1885 0.544485 3.83041 59.6839
6123014 10.0062 12.331 19.3034 18.1496 0.489596 3.79221 59.7902
6123024 10.0062 12.331 19.3034 18.1496 0.489596 3.79221 59.7902
6123035 10.0238 12.331 19.2739 18.1593 0.49867 3.78296 59.788
6123044 9.9886 12.4047 19.3231 18.1691 0.526842 3.78195 59.8854
6123054 9.9886 12.4047 19.3231 18.1691 0.526842 3.78195 59.8854
6123064 10.0767 12.4231 19.2837 18.208 0.529528 3.74853 59.9915
6123077 10.0767 12.4231 19.2837 18.208 0.529528 3.74853 59.9915
6123086 10.0503 12.4599 19.2936 18.1398 0.523788 3.73432 59.9436
6123094 10.0855 12.4783 19.2739 18.1788 0.540581 3.72119 60.0165
6123116 10.1736 12.4875 19.2345 18.0911 0.487846 3.66694 59.9867
6123126 10.2 12.4783 19.1656 18.0327 0.478232 3.63747 59.8766
6123136 10.2 12.4783 19.1656 18.0327 0.478232 3.63747 59.8766
6123146 10.1912 12.6165 19.0869 17.9352 0.532204 3.56372 59.8298
6123155 10.2088 12.6165 18.9687 17.8865 0.555232 3.52627 59.6805
6123168 10.2088 12.5796 18.9687 17.8865 0.540134 3.53771 59.6437
6123177 10.244 12.6901 18.9884 17.8086 0.529993 3.48131 59.7312
6123195 10.2881 12.7362 18.949 17.8086 0.546843 3.44587 59.7819
6123205 10.3409 12.7638 18.9589 17.7794 0.519425 3.41732 59.843
6123227 10.3762 12.8283 18.8605 17.7696 0.568771 3.36569 59.8345
6123237 10.4114 12.8191 18.8506 17.7599 0.550184 3.3539 59.841
6123257 10.4642 12.8467 18.8703 17.7794 0.538489 3.33687 59.9606
6123267 10.4642 12.8467 18.8703 17.7794 0.538489 3.33687 59.9606
6123281 10.4202 12.8559 18.7915 17.6722 0.550869 3.31127 59.7399
6123287 10.4466 12.8835 18.8408 17.7501 0.561687 3.31955 59.9211
6123297 10.4466 12.8835 18.8408 17.7501 0.561687 3.31955 59.9211
6123307 10.5259 12.8835 18.7128 17.7404 0.578502 3.26842 59.8626
6123317 10.4554 12.9296 18.703 17.6625 0.599849 3.25865 59.7504
6123327 10.4554 12.9296 18.703 17.6625 0.599849 3.25865 59.7504
6123337 10.4819 12.994 18.7226 17.604 0.582561 3.22329 59.8026
6123348 10.4819 12.994 18.7226 17.604 0.582561 3.22329 59.8026
6123357 10.5347 12.9664 18.6242 17.643 0.606704 3.20388 59.7683
6123368 10.5435 13.0401 18.5947 17.5845 0.621799 3.16139 59.7628
6123377 10.5435 13.0401 18.5947 17.5845 0.621799 3.16139 59.7628
6123389 10.6228 13.0125 18.5455 17.5456 0.581723 3.12821 59.7263
6123410 10.614 13.1046 18.5356 17.565 0.635245 3.10489 59.8192
6123418 10.6756 13.1046 18.5553 17.4871 0.568643 3.07464 59.8226
6123434 10.6756 13.1046 18.5553 17.4871 0.568643 3.07464 59.8226
6123439 10.6845 13.1598 18.4962 17.4968 0.616655 3.04546 59.8373
6123451 10.7637 13.2335 18.4076 17.4092 0.614938 2.96409 59.814
6123462 10.7637 13.2335 18.4076 17.4092 0.614938 2.96409 59.814
6123473 10.7461 13.1874 18.2797 17.3605 0.638747 2.94759 59.5737
6123486 10.7461 13.1874 18.2797 17.3605 0.638747 2.94759 59.5737
6123488 10.8518 13.2887 18.2403 17.3215 0.635701 2.86955 59.7023
6123498 10.887 13.3624 18.2009 17.3117 0.663537 2.82701 59.7621
6123519 10.9663 13.3808 18.1517 17.2046 0.614443 2.76596 59.7034
6123537 11.0192 13.4453 18.1123 17.1851 0.627023 2.71903 59.7619
6123541 11.0192 13.4453 18.1123 17.1851 0.627023 2.71903 59.7619
6123549 11.0632 13.4545 18.0041 17.1364 0.638479 2.6709 59.6581
6123564 11.1073 13.4545 17.9548 17.1364 0.640702 2.64768 59.653
6123569 11.1073 13.5374 17.9548 17.1266 0.670534 2.62118 59.7261
6123579 11.1337 13.5742 17.9155 17.0585 0.663322 2.58019 59.6818
6123591 11.1337 13.5742 17.9155 17.0585 0.663322 2.58019 59.6818
6123599 11.1249 13.6295 17.7875 17.039 0.736845 2.53575 59.5808
6123613 11.2218 13.6663 17.7875 16.9619 0.678673 2.48032 59.6375
6123619 11.2218 13.6663 17.7875 16.9619 0.678673 2.48032 59.6375
6123641 11.257 13.74 17.7284 16.9905 0.730556 2.44205 59.7159
6123644 11.2482 13.7216 17.7186 16.9714 0.723365 2.44393 59.6598
6123651 11.2482 13.7216 17.7186 16.9714 0.723365 2.44393 59.6598
6123666 11.2658 13.7768 17.6497 16.9714 0.767961 2.40812 59.6637
6123682 11.2394 13.7492 17.6891 16.9239 0.731781 2.42217 59.6015
6123693 11.257 13.7584 17.6595 16.9619 0.756159 2.41614 59.6368
6123702 11.257 13.7584 17.6595 16.9619 0.756159 2.41614 59.6368
6123719 11.2746 13.7216 17.63 16.8953 0.719175 2.40143 59.5215
6123722 11.2394 13.7768 17.6398 17.0097 0.799176 2.42184 59.6658
6123732 11.2394 13.7768 17.6398 17.0097 0.799176 2.42184 59.6658
6123742 11.2218 13.786 17.6398 16.9905 0.80272 2.42023 59.6381
6123752 11.2218 13.786 17.6398 16.9905 0.80272 2.42023 59.6381
6123765 11.1865 13.7584 17.6595 17 0.8021 2.44477 59.6044
6123772 11.2041 13.74 17.7481 17.0974 0.788236 2.48406 59.7897
6123792 11.1953 13.7124 17.7776 17.0779 0.760207 2.49682 59.7633
6123803 11.2218 13.7492 17.7087 17.0487 0.781617 2.45775 59.7284
6123812 11.2218 13.7492 17.7087 17.0487 0.781617 2.45775 59.7284
6123822 11.1865 13.7308 17.7087 17.0487 0.789365 2.47345 59.6748
6123837 11.1865 13.7308 17.7087 17.0487 0.789365 2.47345 59.6748
6123842 11.1425 13.6755 17.7284 17.0779 0.789329 2.51282 59.6244
6123856 11.1601 13.7492 17.7678 17.0682 0.790638 2.49226 59.7453
6123862 11.1601 13.7492 17.7678 17.0682 0.790638 2.49226 59.7453
6123872 11.1601 13.6755 17.6694 17.0195 0.783512 2.48299 59.5245
6123882 11.1425 13.7031 17.7087 17.1072 0.820911 2.50671 59.6615
6123892 11.1425 13.7031 17.7087 17.1072 0.820911 2.50671 59.6615
6123903 11.1161 13.6571 17.758 17.0877 0.784466 2.53422 59.6188
6123913 11.1161 13.6571 17.758 17.0877 0.784466 2.53422 59.6188
6123924 11.1425 13.6663 17.8072 17.0682 0.747615 2.52996 59.6842
6123933 11.1777 13.6571 17.7973 17.1559 0.768515 2.53857 59.788
6123943 11.1777 13.6571 17.7973 17.1559 0.768515 2.53857 59.788
6123953 11.1953 13.6663 17.7481 17.1266 0.774026 2.51433 59.7364
6123964 11.072 13.6479 17.7678 17.1559 0.823197 2.56619 59.6436
6123974 11.072 13.6479 17.7678 17.1559 0.823197 2.56619 59.6436
6123984 11.1249 13.6203 17.758 17.1754 0.801289 2.56077 59.6784
6123999 11.1249 13.6203 17.758 17.1754 0.801289 2.56077 59.6784
6124007 11.0368 13.5742 17.7875 17.1266 0.788146 2.59633 59.5251
6124014 11.0456 13.6203 17.8761 17.2046 0.796351 2.61475 59.7465
6124024 11.0456 13.6203 17.8761 17.2046 0.796351 2.61475 59.7465
6124038 11.0192 13.5926 17.8859 17.2533 0.812048 2.64282 59.751
6124045 11.0104 13.5558 17.9548 17.2923 0.786975 2.67857 59.8133
6124054 11.0104 13.5558 17.9548 17.2923 0.786975 2.67857 59.8133
6124069 10.9839 13.5834 17.9056 17.2436 0.811091 2.65801 59.7165
6124074 10.9839 13.5834 17.9056 17.2436 0.811091 2.65801 59.7165
6124092 10.9223 13.565 17.9548 17.302 0.832674 2.70392 59.7441
6124098 10.9663 13.5282 17.9647 17.2728 0.782642 2.69779 59.7319
6124116 10.9135 13.4637 17.9647 17.2533 0.771394 2.72861 59.5951
6124126 10.8518 13.5005 18.0336 17.263 0.787181 2.75217 59.649
6124138 10.8518 13.5005 18.0336 17.263 0.787181 2.75217 59.649
6124146 10.843 13.4821 17.9745 17.3215 0.832793 2.76015 59.6211
6124166 10.7637 13.4177 18.073 17.3605 0.814155 2.83118 59.6148
6124179 10.8254 13.3624 18.1025 17.4092 0.772074 2.84522 59.6995
6124187 10.8254 13.3624 18.1025 17.4092 0.772074 2.84522 59.6995
6124198 10.799 13.3808 18.132 17.3994 0.774252 2.85164 59.7112
6124209 10.8166 13.3532 18.1419 17.4384 0.767004 2.86455 59.75
6124218 10.8166 13.3532 18.1419 17.4384 0.767004 2.86455 59.75
6124227 10.8166 13.3348 18.2009 17.5553 0.781441 2.90569 59.9076
6124239 10.7725 13.3348 18.1812 17.4189 0.753635 2.88729 59.7075
6124248 10.7725 13.3348 18.1812 17.4189 0.753635 2.88729 59.7075
6124258 10.799 13.3624 18.1911 17.4676 0.768963 2.88298 59.8201
6124278 10.8342 13.4177 18.1517 17.3215 0.733882 2.81825 59.7251
6124288 10.8518 13.4453 18.0631 17.2923 0.763848 2.78067 59.6525
6124298 10.8518 13.4453 18.0631 17.2923 0.763848 2.78067 59.6525
6124309 10.8959 13.4453 18.0041 17.2436 0.750533 2.74543 59.5887
6124318 10.9047 13.4361 18.0434 17.2046 0.710106 2.74564 59.5888
6124334 10.9047 13.4361 18.0434 17.2046 0.710106 2.74564 59.5888
6124338 10.9663 13.4913 18.1123 17.263 0.700164 2.73705 59.833
6124348 10.9663 13.4913 18.1123 17.263 0.700164 2.73705 59.833
6124359 10.9839 13.5834 18.0237 17.1559 0.724563 2.6643 59.747
6124368 10.9927 13.565 18.0434 17.1461 0.700849 2.66919 59.7473
6124381 10.9927 13.565 18.0434 17.1461 0.700849 2.66919 59.7473
6124388 11.1425 13.6387 18.0139 17.1072 0.663355 2.58919 59.9022
6124398 11.1425 13.6387 18.0139 17.1072 0.663355 2.58919 59.9022
6124408 11.1161 13.6295 17.9155 17.0292 0.681508 2.56302 59.6902
6124421 11.1865 13.6387 17.9056 16.981 0.639528 2.52748 59.7118
6124431 11.1865 13.6387 17.9056 16.981 0.639528 2.52748 59.7118
6124438 11.2394 13.6663 17.7481 16.8382 0.637478 2.44082 59.492
6124454 11.2218 13.7124 17.7186 16.8382 0.676653 2.42625 59.4909
6124458 11.2218 13.7124 17.7186 16.8382 0.676653 2.42625 59.4909
6124468 11.3187 13.8321 17.7087 16.8096 0.676358 2.3549 59.6691
6124489 11.3187 13.8689 17.7087 16.724 0.656435 2.32601 59.6203
6124503 11.3891 13.915 17.6989 16.743 0.656921 2.29417 59.746
6124509 11.3891 13.915 17.6989 16.743 0.656921 2.29417 59.746
6124519 11.4067 13.8689 17.6792 16.6954 0.619596 2.28808 59.6503
6124530 11.442 13.9242 17.6398 16.6669 0.632283 2.24739 59.6728
6124539 11.442 13.9242 17.6398 16.6669 0.632283 2.24739 59.6728
6124552 11.4596 13.9518 17.6497 16.6478 0.624001 2.23236 59.7089
6124560 11.4596 13.9518 17.6497 16.6478 0.624001 2.23236 59.7089
6124576 11.4596 13.9426 17.5709 16.5812 0.626844 2.20386 59.5543
6124579 11.4684 14.0163 17.5414 16.5336 0.646433 2.16347 59.5596
6124601 11.5212 14.0807 17.5611 16.5336 0.641569 2.13397 59.6966
6124609 11.5124 14.0623 17.5512 16.505 0.630403 2.13351 59.631
6124625 11.5124 14.0623 17.5512 16.505 0.630403 2.13351 59.631
6124629 11.5124 14.0531 17.5414 16.5717 0.658074 2.14839 59.6786
6124640 11.5124 14.0531 17.5414 16.5717 0.658074 2.14839 59.6786
6124652 11.5917 14.0899 17.5119 16.505 0.624546 2.09434 59.6985
6124661 11.6358 14.0807 17.4725 16.5717 0.645965 2.09026 59.7606
6124671 11.6358 14.0807 17.4725 16.5717 0.645965 2.09026 59.7606
6124680 11.5212 14.0899 17.5217 16.5241 0.658363 2.12078 59.657
6124693 11.5477 14.0807 17.4627 16.467 0.645322 2.09071 59.558
6124700 11.5477 14.0807 17.4627 16.467 0.645322 2.09071 59.558
6124712 11.5741 14.0347 17.5217 16.5526 0.624755 2.12763 59.6831
6124734 11.5741 14.0347 17.5217 16.5526 0.624755 2.12763 59.6831
6124738 11.5036 13.9978 17.5119 16.5146 0.628653 2.14815 59.5279
6124747 11.486 13.9886 17.6005 16.6002 0.629395 2.19338 59.6753
6124757 11.486 13.9886 17.6005 16.6002 0.629395 2.19338 59.6753
6124763 11.5212 13.9702 17.6005 16.6097 0.610638 2.19058 59.7017
6124772 11.5036 13.915 17.6891 16.6573 0.577095 2.24073 59.765
6124784 11.5036 13.915 17.6891 16.6573 0.577095 2.24073 59.765
6124792 11.442 13.9426 17.6694 16.6478 0.619352 2.24432 59.7017
6124809 11.442 13.9426 17.6694 16.6478 0.619352 2.24432 59.7017
6124812 11.3979 13.9334 17.6891 16.6764 0.637704 2.27001 59.6967
6124822 11.3891 13.961 17.758 16.6573 0.615427 2.27519 59.7654
6124833 11.3891 13.961 17.758 16.6573 0.615427 2.27519 59.7654
6124842 11.3539 13.9334 17.7087 16.6859 0.652054 2.28898 59.6819
6124857 11.3451 13.8689 17.7284 16.6859 0.621051 2.31442 59.6283
6124863 11.3451 13.8689 17.7284 16.6859 0.621051 2.31442 59.6283
6124873 11.3363 13.9057 17.6989 16.724 0.668123 2.30811 59.6649
6124884 11.3363 13.9057 17.6989 16.724 0.668123 2.30811 59.6649
6124893 11.301 13.8413 17.7678 16.724 0.627327 2.35171 59.6341
6124904 11.2746 13.8597 17.817 16.8096 0.659999 2.38258 59.761
6124913 11.2746 13.8597 17.817 16.8096 0.659999 2.38258 59.761
6124926 11.3275 13.8597 17.7383 16.7811 0.65949 2.34452 59.7065
6124933 11.2922 13.8229 17.8072 16.7716 0.626117 2.37805 59.6938
6124953 11.2922 13.7768 17.8269 16.8572 0.633833 2.41369 59.7531
6124963 11.2922 13.7768 17.8269 16.8572 0.633833 2.41369 59.7531
6124973 11.257 13.7216 17.8269 16.8191 0.610843 2.43208 59.6246
6124983 11.301 13.7676 17.8564 16.8382 0.605872 2.41602 59.7632
6124997 11.301 13.7676 17.8564 16.8382 0.605872 2.41602 59.7632
6125003 11.2394 13.8505 17.8958 16.8763 0.664693 2.42613 59.8619
6125013 11.2746 13.7308 17.8269 16.8858 0.634259 2.43828 59.718
6125034 11.2218 13.7216 17.8367 16.8477 0.633425 2.45048 59.6277
6125044 11.2218 13.7216 17.8367 16.8477 0.633425 2.45048 59.6277
6125054 11.2218 13.7584 17.8564 16.8763 0.651658 2.44985 59.7128
6125065 11.1865 13.7216 17.9056 17 0.68104 2.50717 59.8137
6125074 11.1865 13.7216 17.9056 17 0.68104 2.50717 59.8137
6125085 11.1513 13.6939 17.9155 16.9239 0.649679 2.51173 59.6845
6125094 11.1601 13.7124 17.9351 16.9239 0.644952 2.50786 59.7315
6125105 11.1601 13.7124 17.9351 16.9239 0.644952 2.50786 59.7315
6125124 11.1689 13.7308 17.8958 16.9239 0.665587 2.49164 59.7193
6125135 11.2218 13.6663 17.9155 16.981 0.631452 2.51111 59.7845
6125144 11.1425 13.6571 17.9155 17.039 0.685358 2.54916 59.754
6125159 11.1425 13.6571 17.9155 17.039 0.685358 2.54916 59.754
6125166 11.1953 13.6847 17.8564 17.0195 0.691342 2.50916 59.7559
6125181 11.1425 13.7031 17.8564 17.0487 0.73345 2.52536 59.7507
6125186 11.1425 13.7031 17.8564 17.0487 0.73345 2.52536 59.7507
6125195 11.1601 13.6479 17.8859 16.981 0.663102 2.52843 59.6749
6125215 11.1337 13.6295 17.8761 17.0292 0.690874 2.54963 59.6685
6125226 11.1689 13.7031 17.9253 17.039 0.688502 2.52996 59.8363
6125235 11.1689 13.7031 17.9253 17.039 0.688502 2.52996 59.8363
6125250 11.1425 13.6387 17.9351 17.0195 0.661463 2.55461 59.7358
6125255 11.1161 13.6111 17.9647 17.0585 0.664753 2.58477 59.7502
6125267 11.1161 13.6111 17.9647 17.0585 0.664753 2.58477 59.7502
6125276 11.1161 13.6663 17.9548 17.0097 0.671643 2.55633 59.7469
6125287 11.1161 13.6663 17.9548 17.0097 0.671643 2.55633 59.7469
6125298 11.0544 13.5742 17.9647 17.0585 0.67625 2.6138 59.6518
6125307 11.0104 13.5742 17.9253 17.0682 0.71618 2.62066 59.5781
6125318 11.0104 13.5742 17.9253 17.0682 0.71618 2.62066 59.5781
6125327 11.028 13.5926 17.9253 17.0779 0.720051 2.61204 59.6238
6125341 10.9839 13.519 17.945 17.0974 0.708476 2.655 59.5453
6125347 10.9839 13.519 17.945 17.0974 0.708476 2.655 59.5453
6125356 10.9839 13.5374 17.9942 17.1266 0.706664 2.66578 59.6422
6125368 10.9839 13.5374 17.9942 17.1266 0.706664 2.66578 59.6422
6125377 10.9399 13.4729 18.0336 17.1754 0.702259 2.71616 59.6218
6125387 11.0192 13.519 18.073 17.263 0.705591 2.70514 59.8741
6125410 11.0192 13.565 18.0434 17.2241 0.721148 2.67745 59.8517
6125418 10.9663 13.5282 18.1222 17.2825 0.718787 2.73214 59.8992
6125433 10.9663 13.5282 18.1222 17.2825 0.718787 2.73214 59.8992
6125438 10.9223 13.5282 18.1025 17.263 0.738281 2.73716 59.816
6125459 10.8959 13.519 18.0631 17.2825 0.770792 2.74366 59.7605
6125469 10.9135 13.4453 18.1123 17.2338 0.692275 2.76042 59.7049
6125482 10.9135 13.4453 18.1123 17.2338 0.692275 2.76042 59.7049
6125489 10.887 13.4269 18.0237 17.2338 0.734368 2.75559 59.5715
6125503 10.887 13.5005 18.0336 17.2825 0.779864 2.74569 59.7037
6125509 10.887 13.5005 18.0336 17.2825 0.779864 2.74569 59.7037
6125519 10.8694 13.4545 18.1025 17.2533 0.727162 2.77277 59.6797
6125529 10.8254 13.39 18.1812 17.3215 0.713727 2.83515 59.7181
6125539 10.8254 13.39 18.1812 17.3215 0.713727 2.83515 59.7181
6125549 10.8254 13.3992 18.2403 17.4287 0.735557 2.86616 59.8936
6125559 10.8254 13.3992 18.2403 17.4287 0.735557 2.86616 59.8936
6125569 10.8166 13.3256 18.1419 17.4579 0.763702 2.87677 59.7419
6125579 10.843 13.3808 18.1911 17.4287 0.741678 2.85642 59.8436
6125590 10.843 13.3808 18.1911 17.4287 0.741678 2.85642 59.8436
6125600 10.8342 13.3348 18.2108 17.4481 0.726229 2.88075 59.8279
6125611 10.7637 13.3348 18.2206 17.4774 0.764173 2.90974 59.7965
6125621 10.7637 13.2611 18.2206 17.4774 0.734276 2.93183 59.7228
6125631 10.7197 13.2795 18.2797 17.5261 0.755054 2.96126 59.805
6125641 10.7197 13.2795 18.2797 17.5261 0.755054 2.96126 59.805
6125651 10.7285 13.2335 18.2305 17.4384 0.718132 2.94484 59.6308
6125661 10.7725 13.2335 18.2797 17.4774 0.693837 2.94941 59.7631
6125671 10.7725 13.2335 18.2797 17.4774 0.693837 2.94941 59.7631
6125680 10.8078 13.3256 18.26 17.4968 0.732449 2.9112 59.8902
6125691 10.8078 13.3256 18.26 17.4968 0.732449 2.9112 59.8902
6125702 10.7109 13.2335 18.2108 17.4774 0.750092 2.95404 59.6325
6125711 10.7549 13.3348 18.2206 17.5748 0.807393 2.93204 59.8851
6125732 10.7637 13.2611 18.2403 17.5261 0.745574 2.94563 59.7912
6125742 10.7813 13.3348 18.2009 17.4968 0.772962 2.90442 59.8139
6125752 10.7813 13.3348 18.2009 17.4968 0.772962 2.90442 59.8139
6125762 10.7902 13.2887 18.2501 17.4481 0.70954 2.91568 59.7772
6125775 10.7902 13.2887 18.2501 17.4481 0.70954 2.91568 59.7772
6125782 10.7373 13.2611 18.26 17.4579 0.720781 2.94379 59.7163
6125795 10.7637 13.2151 18.2895 17.4384 0.670028 2.95171 59.7067
6125803 10.7637 13.2151 18.2895 17.4384 0.670028 2.95171 59.7067
6125812 10.7549 13.2887 18.2108 17.4092 0.725824 2.91039 59.6636
6125822 10.8166 13.2887 18.2797 17.4384 0.681537 2.91176 59.8234
6125842 10.7813 13.3256 18.2501 17.4579 0.73224 2.90925 59.8149
6125852 10.7813 13.3256 18.2501 17.4579 0.73224 2.90925 59.8149
6125865 10.8518 13.3072 18.2698 17.4676 0.689995 2.89963 59.8964
6125872 10.843 13.344 18.2206 17.4287 0.71404 2.87341 59.8363
6125894 10.8959 13.344 18.1812 17.4092 0.70034 2.84569 59.8302
6125903 10.887 13.3624 18.1419 17.3994 0.724578 2.83284 59.7907
6125923 10.8959 13.3808 18.0828 17.2923 0.710133 2.7908 59.6517
6125935 10.8959 13.3808 18.0828 17.2923 0.710133 2.7908 59.6517
6125943 10.9839 13.4913 18.073 17.2533 0.705555 2.72175 59.8015
6125955 10.9839 13.4729 17.9647 17.2046 0.724885 2.6949 59.6261
6125963 10.9839 13.4729 17.9647 17.2046 0.724885 2.6949 59.6261
6125978 11.0896 13.5098 17.945 17.1169 0.66711 2.63048 59.6613
6125983 11.0632 13.5098 17.9253 17.1266 0.690937 2.63623 59.6249
6125993 11.0632 13.5098 17.9253 17.1266 0.690937 2.63623 59.6249
6126012 11.1249 13.519 17.8859 17.0877 0.669199 2.59902 59.6174
6126024 11.1249 13.519 17.8859 17.0877 0.669199 2.59902 59.6174
6126032 11.1073 13.5466 17.9056 17.0779 0.675607 2.59813 59.6374
6126039 11.1425 13.6018 17.8564 17.1169 0.719997 2.56934 59.7176
6126046 11.1425 13.6018 17.8564 17.1169 0.719997 2.56934 59.7176
6126056 11.1953 13.6111 17.8662 17.0877 0.684884 2.54706 59.7603
6126067 11.2394 13.6203 17.8466 17.0585 0.666273 2.52123 59.7646
6126075 11.2394 13.6203 17.8466 17.0585 0.666273 2.52123 59.7646
6126089 11.2482 13.6479 17.8367 17.0292 0.666064 2.50239 59.762
6126096 11.2218 13.5834 17.8761 17.0097 0.626275 2.53321 59.691
6126116 11.2746 13.6755 17.9056 16.9619 0.609022 2.48691 59.8177
6126136 11.2746 13.6571 17.8958 17.0195 0.629184 2.50227 59.847
6126147 11.301 13.6203 17.8958 17.0195 0.602865 2.50531 59.8366
6126157 11.301 13.6203 17.8958 17.0195 0.602865 2.50531 59.8366
6126167 11.2394 13.6018 17.8466 16.8763 0.584316 2.48848 59.564
6126177 11.2306 13.6387 17.8859 16.9239 0.605753 2.4985 59.679
6126188 11.2306 13.6387 17.8859 16.9239 0.605753 2.4985 59.679
6126201 11.257 13.6387 17.8564 16.9619 0.622639 2.49254 59.714
6126208 11.257 13.6387 17.8564 16.9619 0.622639 2.49254 59.714
6126217 11.1865 13.6203 17.8761 16.9334 0.625256 2.51676 59.6162
6126227 11.2041 13.5466 17.8761 16.9714 0.603124 2.54122 59.5983
6126237 11.2041 13.5466 17.8761 16.9714 0.603124 2.54122 59.5983
6126248 11.1689 13.5834 17.9253 16.9619 0.608292 2.54904 59.6396
6126257 11.2041 13.5742 17.9351 17.039 0.616664 2.5595 59.7525
6126271 11.2041 13.5742 17.9351 17.039 0.616664 2.5595 59.7525
6126278 11.2218 13.5466 17.9745 17.0487 0.584954 2.57266 59.7916
6126294 11.2218 13.5466 17.9745 17.0487 0.584954 2.57266 59.7916
6126299 11.1865 13.5005 18.0139 16.9905 0.540531 2.59266 59.6914
6126308 11.1249 13.5374 18.0336 17.0682 0.605348 2.62019 59.764
6126319 11.1249 13.5374 18.0336 17.0682 0.605348 2.62019 59.764
6126329 11.1337 13.5282 17.9647 17.0974 0.63929 2.61208 59.7239
6126341 11.1249 13.4729 18.0533 17.0487 0.562599 2.63926 59.6998
6126349 11.1249 13.4729 18.0533 17.0487 0.562599 2.63926 59.6998
6126365 11.1865 13.5466 18.0533 17.0877 0.582248 2.60743 59.8741
6126369 11.1865 13.5466 18.0533 17.0877 0.582248 2.60743 59.8741
6126379 11.1601 13.5282 18.1123 17.0877 0.560799 2.63284 59.8883
6126389 11.1865 13.519 18.0828 17.0585 0.546429 2.61562 59.8467
6126399 11.1865 13.519 18.0828 17.0585 0.546429 2.61562 59.8467
6126413 11.1513 13.5374 17.9942 17.0585 0.606918 2.60221 59.7413
6126419 11.0984 13.4729 18.0533 17.1364 0.609753 2.66519 59.761
6126429 11.0984 13.4729 18.0533 17.1364 0.609753 2.66519 59.761
6126439 11.1073 13.5374 18.0139 17.0097 0.597456 2.60918 59.6683
6126449 11.1073 13.5374 18.0139 17.0097 0.597456 2.60918 59.6683
6126459 11.1161 13.5005 18.0041 17.0195 0.586814 2.61743 59.6401
6126469 11.1073 13.4729 17.9745 17.1169 0.631809 2.64228 59.6716
6126481 11.1073 13.4729 17.9745 17.1169 0.631809 2.64228 59.6716
6126489 11.0456 13.5098 17.9844 17.0779 0.653216 2.64359 59.6176
6126505 11.0104 13.4913 18.0237 17.1559 0.675714 2.68373 59.6813
6126509 11.0104 13.4913 18.0237 17.1559 0.675714 2.68373 59.6813
6126519 11.0104 13.4729 18.0533 17.1364 0.64756 2.69127 59.6729
6126546 11.0016 13.5005 18.132 17.2046 0.656578 2.71593 59.8387
6126554 11.0896 13.4729 18.1616 17.2338 0.606897 2.7101 59.9579
6126559 11.0896 13.4729 18.1616 17.2338 0.606897 2.7101 59.9579
6126576 11.0104 13.4913 18.1123 17.263 0.68126 2.724 59.8771
6126582 11.0192 13.4637 18.0237 17.1656 0.664636 2.69132 59.6722
6126589 11.0192 13.4637 18.0237 17.1656 0.664636 2.69132 59.6722
6126599 11.0192 13.4545 18.0828 17.2046 0.651389 2.71424 59.7611
6126620 10.9399 13.4821 18.0434 17.1754 0.701767 2.71545 59.6408
6126629 10.9575 13.4453 18.0533 17.2338 0.698742 2.73521 59.6899
6126649 10.9575 13.4453 18.0533 17.2338 0.698742 2.73521 59.6899
6126650 10.9927 13.5282 18.0828 17.2046 0.692713 2.70024 59.8083
6126665 10.9135 13.3808 18.1025 17.2923 0.694066 2.78957 59.689
6126682 10.843 13.39 18.1714 17.3507 0.722259 2.83383 59.7551
6126692 10.843 13.39 18.1714 17.3507 0.722259 2.83383 59.7551
6126704 10.8254 13.3256 18.1911 17.2923 0.671324 2.85047 59.6343
6126712 10.9047 13.3624 18.26 17.4384 0.682124 2.85948 59.9654
6126722 10.9047 13.3624 18.26 17.4384 0.682124 2.85948 59.9654
6126732 10.7813 13.3348 18.1616 17.4384 0.766239 2.8846 59.7161
6126746 10.7197 13.3164 18.1911 17.5748 0.827888 2.94217 59.8019
6126752 10.7197 13.3164 18.1911 17.5748 0.827888 2.94217 59.8019
6126763 10.7549 13.2335 18.3092 17.5943 0.736168 2.98415 59.8919
6126773 10.7549 13.2335 18.3092 17.5943 0.736168 2.98415 59.8919
6126783 10.7285 13.169 18.2994 17.6138 0.733528 3.01341 59.8106
6126793 10.6668 13.2519 18.2797 17.6819 0.829709 3.01674 59.8804
6126804 10.6668 13.2519 18.2797 17.6819 0.829709 3.01674 59.8804
6126817 10.6492 13.1874 18.3584 17.7307 0.797004 3.0669 59.9257
6126826 10.6228 13.0769 18.3584 17.6722 0.739953 3.09664 59.7304
6126833 10.6228 13.0769 18.3584 17.6722 0.739953 3.09664 59.7304
6126843 10.5876 13.123 18.3781 17.7209 0.78508 3.10699 59.8096
6126854 10.5876 13.123 18.3781 17.7209 0.78508 3.10699 59.8096
6126863 10.4995 13.0493 18.388 17.7014 0.78108 3.15417 59.6382
6126873 10.5964 13.169 18.3683 17.7794 0.82776 3.10006 59.913
6126883 10.5964 13.169 18.3683 17.7794 0.82776 3.10006 59.913
6126893 10.5876 13.1966 18.3683 17.6722 0.799423 3.07305 59.8247
6126908 10.6404 13.1782 18.319 17.6625 0.786462 3.05088 59.8002
6126913 10.6404 13.1782 18.319 17.6625 0.786462 3.05088 59.8002
6126923 10.6845 13.2243 18.2895 17.604 0.775182 3.00611 59.8023
6126933 10.6845 13.2243 18.2895 17.604 0.775182 3.00611 59.8023
6126943 10.6404 13.2703 18.2698 17.5163 0.785804 2.98393 59.6969
6126954 10.7285 13.3348 18.2403 17.5163 0.786659 2.93214 59.8199
6126964 10.7285 13.3348 18.2403 17.5163 0.786659 2.93214 59.8199
6126974 10.7637 13.3348 18.1616 17.4676 0.785697 2.89581 59.7277
6126984 10.7285 13.4177 18.1812 17.4092 0.802311 2.87368 59.7366
6126994 10.7285 13.4177 18.1812 17.4092 0.802311 2.87368 59.7366
6127007 10.8254 13.4269 18.1714 17.3799 0.756654 2.83405 59.8036
6127015 10.8254 13.4269 18.1714 17.3799 0.756654 2.83405 59.8036
6127025 10.8254 13.4545 18.1419 17.3702 0.776628 2.81782 59.792
6127035 10.887 13.4729 18.073 17.3994 0.799036 2.78589 59.8324
6127044 10.887 13.4729 18.073 17.3994 0.799036 2.78589 59.8324
6127057 10.9223 13.4269 18.0926 17.2923 0.713247 2.77122 59.7341
6127066 10.9311 13.4729 18.0434 17.3117 0.757268 2.74883 59.7592
6127076 10.9311 13.4729 18.0434 17.3117 0.757268 2.74883 59.7592
6127086 10.9487 13.5558 18.0336 17.3117 0.787494 2.71701 59.8498
6127097 10.9487 13.5558 18.0336 17.3117 0.787494 2.71701 59.8498
6127111 10.9575 13.5558 17.9647 17.2241 0.777894 2.68218 59.7021
6127124 11.0104 13.5282 18.0041 17.2728 0.746685 2.69286 59.8154
6127126 11.0104 13.5282 18.0041 17.2728 0.746685 2.69286 59.8154
6127136 10.9487 13.5374 17.9548 17.2241 0.778475 2.68822 59.665
6127150 11.0632 13.519 17.9647 17.2046 0.709462 2.65778 59.7514
6127157 11.0632 13.519 17.9647 17.2046 0.709462 2.65778 59.7514
6127175 11.0192 13.5558 17.9548 17.1948 0.743678 2.65587 59.7246
6127177 11.0192 13.5558 17.9548 17.1948 0.743678 2.65587 59.7246
6127187 11.0192 13.565 17.945 17.1948 0.751662 2.65111 59.724
6127198 11.072 13.6018 17.9351 17.1461 0.728309 2.61252 59.7551
6127207 11.072 13.6018 17.9351 17.1461 0.728309 2.61252 59.7551
6127220 11.028 13.6203 17.8859 17.2143 0.803649 2.624 59.7485
6127227 11.0808 13.6479 17.8367 17.1072 0.76983 2.5678 59.6726
6127237 11.0808 13.6479 17.8367 17.1072 0.76983 2.5678 59.6726
6127247 11.1161 13.6755 17.8367 17.2046 0.805295 2.56959 59.8329
6127257 11.1161 13.6755 17.8367 17.2046 0.805295 2.56959 59.8329
6127268 11.0544 13.5926 17.8269 17.1559 0.782841 2.59997 59.6298
6127279 11.0544 13.6018 17.8367 17.2241 0.809985 2.61346 59.717
6127306 11.0544 13.6755 17.8072 17.2046 0.844684 2.58158 59.7417
6127315 11.1161 13.6295 17.8269 17.1559 0.771165 2.57095 59.7283
6127317 11.1161 13.6295 17.8269 17.1559 0.771165 2.57095 59.7283
6127328 11.1161 13.6387 17.8367 17.2046 0.79039 2.58041 59.796
6127338 11.1161 13.6387 17.8367 17.2046 0.79039 2.58041 59.796
6127351 11.1513 13.6939 17.8072 17.2143 0.814217 2.54973 59.8667
6127358 11.1073 13.7216 17.6497 17.1851 0.900769 2.5156 59.6636
6127374 11.1073 13.7216 17.6497 17.1851 0.900769 2.5156 59.6636
6127378 11.1513 13.74 17.6694 17.0877 0.841177 2.48099 59.6483
6127389 11.2306 13.7216 17.6595 17.1169 0.815511 2.46724 59.7286
6127399 11.2306 13.7216 17.6595 17.1169 0.815511 2.46724 59.7286
6127409 11.2041 13.7492 17.6694 17.039 0.80229 2.45258 59.6617
6127419 11.2041 13.7492 17.6694 17.039 0.80229 2.45258 59.6617
6127429 11.1953 13.7584 17.63 17.1461 0.870252 2.4667 59.7299
6127439 11.213 13.8044 17.6694 17.1169 0.852385 2.45024 59.8037
6127449 11.213 13.8044 17.6694 17.1169 0.852385 2.45024 59.8037
6127460 11.2658 13.8137 17.5906 17.0585 0.843686 2.40328 59.7285
6127471 11.2306 13.8505 17.6005 17.0585 0.86956 2.40489 59.74
6127485 11.2306 13.8505 17.6005 17.0585 0.86956 2.40489 59.74
6127489 11.2218 13.8965 17.5709 17.0292 0.892967 2.38164 59.7185
6127499 11.2218 13.8965 17.5709 17.0292 0.892967 2.38164 59.7185
6127512 11.2658 13.8689 17.5611 17 0.855175 2.3686 59.6958
6127538 11.257 13.8689 17.5709 17.0195 0.862604 2.37737 59.7163
6127541 11.257 13.8689 17.5709 17.0195 0.862604 2.37737 59.7163
6127543 11.301 13.9057 17.5709 17.0585 0.87415 2.3621 59.8362
6127549 11.2746 13.8597 17.502 16.9239 0.842389 2.34005 59.5602
6127572 11.301 13.9978 17.5316 17.0097 0.908661 2.31678 59.8402
6127579 11.301 13.9978 17.5316 17.0097 0.908661 2.31678 59.8402
6127589 11.2922 13.8965 17.443 16.8953 0.86374 2.30555 59.527
6127600 11.2394 13.8781 17.4134 16.9619 0.919116 2.3342 59.4929
6127609 11.2394 13.8781 17.4134 16.9619 0.919116 2.3342 59.4929
6127620 11.2834 13.9242 17.5119 17.039 0.906917 2.34526 59.7584
6127630 11.2041 13.8413 17.5316 17 0.883552 2.38837 59.577
6127641 11.2041 13.8413 17.5316 17 0.883552 2.38837 59.577
6127651 11.2394 13.8321 17.5316 17.0195 0.872412 2.3849 59.6225
6127661 11.2394 13.8321 17.5316 17.0195 0.872412 2.3849 59.6225
6127673 11.2218 13.8873 17.63 17.0585 0.875464 2.40295 59.7975
6127680 11.1601 13.8229 17.6497 17.0487 0.863665 2.44182 59.6814
6127696 11.1601 13.8229 17.6497 17.0487 0.863665 2.44182 59.6814
6127700 11.2218 13.915 17.6202 17.0292 0.879076 2.38667 59.7861
6127712 11.2306 13.7768 17.6103 17.039 0.827613 2.42435 59.6567
6127728 11.2306 13.7768 17.6103 17.039 0.827613 2.42435 59.6567
6127732 11.1689 13.8321 17.6005 17.0682 0.892785 2.4303 59.6696
6127746 11.1689 13.8321 17.6005 17.0682 0.892785 2.4303 59.6696
6127753 11.213 13.786 17.6005 17.0097 0.831395 2.41856 59.6092
6127762 11.1953 13.8321 17.63 17.0195 0.848833 2.41854 59.6769
6127772 11.1953 13.8321 17.63 17.0195 0.848833 2.41854 59.6769
6127784 11.1777 13.7584 17.6595 17.0292 0.81777 2.4535 59.6249
6127795 11.1689 13.7676 17.5906 17.0585 0.867039 2.44502 59.5856
6127802 11.1689 13.7676 17.5906 17.0585 0.867039 2.44502 59.5856
6127812 11.1601 13.7676 17.7973 17.1461 0.816879 2.50933 59.8712
6127822 11.1601 13.7676 17.7973 17.1461 0.816879 2.50933 59.8712
6127836 11.1601 13.7031 17.7087 17.1559 0.833014 2.51173 59.7279
6127842 11.1601 13.7492 17.8564 17.1461 0.783992 2.52702 59.9118
6127852 11.1601 13.7492 17.8564 17.1461 0.783992 2.52702 59.9118
6127862 11.2041 13.7584 17.7875 17.1169 0.786605 2.49099 59.8669
6127872 11.1073 13.7216 17.7186 17.1559 0.859079 2.52389 59.7033
6127882 11.1073 13.7216 17.7186 17.1559 0.859079 2.52389 59.7033
6127893 11.1161 13.6663 17.8269 17.0974 0.762394 2.54794 59.7067
6127905 11.1161 13.6663 17.8269 17.0974 0.762394 2.54794 59.7067
6127913 11.1337 13.7308 17.7087 17.0779 0.824073 2.49507 59.6511
6127926 11.1073 13.7031 17.7875 17.0682 0.78629 2.52538 59.6661
6127933 11.1073 13.7031 17.7875 17.0682 0.78629 2.52538 59.6661
6127943 11.1161 13.7031 17.817 17.1461 0.801316 2.54522 59.7824
6127953 11.0808 13.6111 17.7973 17.1461 0.787714 2.57857 59.6353
6127963 11.0808 13.6111 17.7973 17.1461 0.787714 2.57857 59.6353
6127973 11.1249 13.7031 17.8859 17.1169 0.755984 2.5509 59.8308
6127983 11.1249 13.7031 17.8859 17.1169 0.755984 2.5509 59.8308
6127996 11.072 13.6203 17.8072 17.1169 0.779134 2.57441 59.6164
6128003 11.0984 13.6663 17.8958 17.1461 0.76004 2.57759 59.8067
6128023 11.0808 13.7308 17.9351 17.1266 0.768891 2.56797 59.8734
6128035 11.0192 13.6295 17.9155 17.1072 0.75497 2.60778 59.6713
6128053 11.0632 13.6755 17.9351 17.0779 0.734326 2.57926 59.7518
6128065 11.0632 13.6755 17.9351 17.0779 0.734326 2.57926 59.7518
6128074 11.0808 13.5282 17.8564 17.1072 0.712621 2.60722 59.5726
6128086 11.0808 13.5834 17.9056 17.1072 0.7139 2.60113 59.677
6128094 11.0808 13.5834 17.9056 17.1072 0.7139 2.60113 59.677
6128108 11.0896 13.5926 17.9253 17.1656 0.729135 2.61204 59.7732
6128114 11.0104 13.6111 17.9844 17.1266 0.729489 2.63415 59.7324
6128124 11.0104 13.6111 17.9844 17.1266 0.729489 2.63415 59.7324
6128135 11.1073 13.6387 18.0041 17.1656 0.706404 2.60961 59.9156
6128144 11.1073 13.6387 18.0041 17.1656 0.706404 2.60961 59.9156
6128161 11.0368 13.5374 17.9942 17.1364 0.68787 2.65216 59.7048
6128164 11.0016 13.6018 17.9844 17.1851 0.753278 2.65156 59.7729
6128174 11.0016 13.6018 17.9844 17.1851 0.753278 2.65156 59.7729
6128188 11.0016 13.5558 17.945 17.1072 0.719857 2.64089 59.6095
6128196 11.0016 13.5558 17.945 17.1072 0.719857 2.64089 59.6095
6128204 11.0104 13.565 17.9548 17.1559 0.735378 2.64769 59.6861
6128216 11.0544 13.565 17.9745 17.1364 0.700006 2.63472 59.7303
6128224 11.0544 13.565 17.9745 17.1364 0.700006 2.63472 59.7303
6128242 11.0016 13.6663 17.9155 17.1072 0.777534 2.60211 59.6905
6128244 11.0456 13.5742 17.9253 17.1461 0.732708 2.62642 59.6912
6128258 11.0456 13.5742 17.9253 17.1461 0.732708 2.62642 59.6912
6128267 11.0808 13.5926 17.9056 17.1072 0.717649 2.59842 59.6862
6128276 11.0808 13.5926 17.9745 17.1072 0.687993 2.61272 59.7551
6128288 11.0632 13.6018 17.9745 17.0779 0.68742 2.60913 59.7175
6128296 11.0984 13.6018 17.9844 17.0974 0.675979 2.60484 59.7821
6128309 11.0984 13.6018 17.9844 17.0974 0.675979 2.60484 59.7821
6128315 11.0368 13.565 17.9647 17.0682 0.684056 2.62375 59.6347
6128325 11.072 13.6111 17.9647 17.0682 0.68765 2.59976 59.7159
6128353 11.072 13.6111 17.9647 17.0682 0.68765 2.59976 59.7159
6128355 11.1513 13.6571 17.8958 17.0779 0.705883 2.55059 59.7821
6128356 11.1513 13.6571 17.8958 17.0779 0.705883 2.55059 59.7821
6128366 11.0808 13.5926 17.945 17.0877 0.692764 2.60255 59.7061
6128376 11.1249 13.5742 17.9647 17.0585 0.645956 2.59302 59.7222
6128385 11.1249 13.5742 17.9647 17.0585 0.645956 2.59302 59.7222
6128396 11.1161 13.6479 17.9548 17.1364 0.715631 2.58807 59.8552
6128406 11.0808 13.6111 17.9351 17.1072 0.712419 2.59912 59.7342
6128417 11.0808 13.6111 17.9351 17.1072 0.712419 2.59912 59.7342
6128426 11.1073 13.6571 17.9548 17.1072 0.711298 2.58188 59.8263
6128437 11.1073 13.6571 17.9548 17.1072 0.711298 2.58188 59.8263
6128446 11.0808 13.5466 17.9155 17.039 0.666842 2.59987 59.5818
6128458 11.1161 13.5926 17.945 17.0585 0.665706 2.58609 59.7121
6128466 11.1161 13.5926 17.945 17.0585 0.665706 2.58609 59.7121
6128475 11.1249 13.6663 17.8662 17.0487 0.721827 2.5434 59.7061
6128485 11.1601 13.6295 17.9155 17.0877 0.686365 2.56224 59.7927
6128507 11.0544 13.6387 17.8761 17.0877 0.752583 2.58244 59.6568
6128518 11.0544 13.6387 17.8761 17.0877 0.752583 2.58244 59.6568
6128527 11.0544 13.6295 17.8564 17.0682 0.749418 2.577 59.6085
6128537 11.1073 13.6387 17.9056 17.1364 0.736851 2.58315 59.7879
6128548 11.1073 13.6387 17.9056 17.1364 0.736851 2.58315 59.7879
6128557 11.0896 13.6387 17.8958 17.1169 0.74077 2.58224 59.741
6128571 11.0456 13.5926 17.8761 17.0877 0.737658 2.59862 59.602
6128586 11.0456 13.5926 17.8761 17.0877 0.737658 2.59862 59.602
6128588 11.0368 13.6479 17.9155 17.1266 0.762761 2.6012 59.7268
6128598 11.0368 13.6479 17.9155 17.1266 0.762761 2.6012 59.7268
6128608 11.0192 13.5926 17.9253 17.1266 0.743669 2.62475 59.6638
6128619 11.0016 13.6111 17.9253 17.1559 0.770625 2.63057 59.6938
6128628 11.0016 13.6111 17.9253 17.1559 0.770625 2.63057 59.6938
6128640 11.0632 13.6203 18.0139 17.1072 0.689879 2.61793 59.8045
6128648 11.0368 13.6571 18.0336 17.1461 0.723547 2.62699 59.8736
6128668 11.0016 13.6111 17.9942 17.1754 0.748819 2.64886 59.7822
6128679 10.9399 13.6111 18.0336 17.1948 0.766322 2.67922 59.7794
6128689 10.9399 13.5742 18.0336 17.1948 0.751382 2.69012 59.7425
6128699 11.0016 13.5558 18.0434 17.2046 0.717077 2.68137 59.8054
6128711 11.0016 13.5558 18.0434 17.2046 0.717077 2.68137 59.8054
6128719 10.9839 13.4913 17.9942 17.1169 0.683919 2.67742 59.5864
6128733 10.9311 13.4913 18.0041 17.1559 0.718361 2.70319 59.5824
6128741 10.9311 13.4913 18.0041 17.1559 0.718361 2.70319 59.5824
6128750 10.8959 13.4637 18.0336 17.1754 0.717503 2.73199 59.5685
6128759 10.9047 13.4729 18.0237 17.2436 0.749463 2.73864 59.6449
6128771 10.9047 13.4729 18.0237 17.2436 0.749463 2.73864 59.6449
6128781 10.843 13.4361 18.1419 17.2923 0.729933 2.80216 59.7132
6128790 10.843 13.4361 18.1419 17.2923 0.729933 2.80216 59.7132
6128802 10.8782 13.4085 18.1419 17.341 0.723329 2.80983 59.7695
6128811 10.8782 13.4821 18.1517 17.3312 0.745034 2.78793 59.8433
6128831 10.9135 13.4453 18.26 17.4189 0.704032 2.82826 60.0377
6128841 10.8606 13.4085 18.2206 17.3897 0.716817 2.84102 59.8794
6128852 10.8606 13.4085 18.2206 17.3897 0.716817 2.84102 59.8794
6128861 10.8518 13.4085 18.1812 17.3994 0.741476 2.83762 59.8409
6128872 10.8518 13.4085 18.1812 17.3994 0.741476 2.83762 59.8409
6128880 10.8166 13.2979 18.1812 17.4579 0.735521 2.89303 59.7536
6128895 10.7637 13.39 18.1812 17.4189 0.779855 2.87338 59.7539
6128900 10.7637 13.39 18.1812 17.4189 0.779855 2.87338 59.7539
6128910 10.8078 13.2979 18.2108 17.4481 0.722644 2.89967 59.7646
6128920 10.8078 13.2979 18.2108 17.4481 0.722644 2.89967 59.7646
6128930 10.7285 13.2519 18.2797 17.4676 0.716311 2.95514 59.7277
6128942 10.8078 13.3256 18.3486 17.5066 0.698388 2.93102 59.9885
6128953 10.8078 13.3256 18.3486 17.5066 0.698388 2.93102 59.9885
6128964 10.7021 13.2427 18.3289 17.5066 0.718594 2.98361 59.7802
6128972 10.6668 13.2335 18.3486 17.5943 0.757113 3.01852 59.8432
6128984 10.6668 13.2335 18.3486 17.5943 0.757113 3.01852 59.8432
6128992 10.6316 13.2335 18.3387 17.643 0.796247 3.03691 59.8468
6129002 10.6316 13.2335 18.3387 17.643 0.796247 3.03691 59.8468
6129012 10.5699 13.1414 18.388 17.604 0.748491 3.08541 59.7033
6129024 10.614 13.123 18.3978 17.604 0.717789 3.07962 59.7388
6129032 10.614 13.123 18.3978 17.604 0.717789 3.07962 59.7388
6129046 10.6228 13.2151 18.3584 17.6138 0.772274 3.04322 59.81
6129052 10.6228 13.1414 18.3584 17.6235 0.746349 3.06741 59.7461
6129072 10.5876 13.1506 18.4175 17.6332 0.743774 3.08901 59.7889
6129082 10.5876 13.1506 18.4175 17.6332 0.743774 3.08901 59.7889
6129102 10.5788 13.0677 18.4667 17.6527 0.700641 3.13045 59.7659
6129104 10.5699 13.1598 18.4667 17.6917 0.757599 3.11296 59.8881
6129112 10.5699 13.1598 18.4667 17.6917 0.757599 3.11296 59.8881
6129128 10.5611 13.1414 18.4076 17.6819 0.775418 3.10753 59.7921
6129132 10.5788 13.0953 18.447 17.6917 0.736156 3.12591 59.8128
6129142 10.5788 13.0953 18.447 17.6917 0.736156 3.12591 59.8128
6129155 10.5523 13.1138 18.4864 17.7307 0.753841 3.14386 59.8831
6129163 10.5523 13.1138 18.4864 17.7307 0.753841 3.14386 59.8831
6129179 10.5611 13.1414 18.4765 17.7014 0.753638 3.12509 59.8805
6129183 10.5611 13.0677 18.5061 17.7112 0.715029 3.15519 59.8461
6129193 10.5611 13.0677 18.5061 17.7112 0.715029 3.15519 59.8461
6129208 10.4907 13.0861 18.447 17.7307 0.786176 3.16316 59.7545
6129217 10.5171 13.0677 18.5356 17.7891 0.752851 3.18979 59.9095
6129227 10.5171 13.0677 18.5356 17.7891 0.752851 3.18979 59.9095
6129233 10.4819 13.0493 18.5159 17.7696 0.76113 3.19837 59.8167
6129243 10.4819 13.0493 18.5159 17.7696 0.76113 3.19837 59.8167
6129253 10.5259 13.0309 18.4765 17.7696 0.751653 3.1828 59.803
6129264 10.4819 13.0309 18.4864 17.7404 0.754535 3.19237 59.7395
6129274 10.4819 13.0309 18.4864 17.7404 0.754535 3.19237 59.7395
6129283 10.4731 13.0125 18.5061 17.7891 0.762132 3.21417 59.7807
6129293 10.429 13.0125 18.5356 17.7891 0.768387 3.23341 59.7662
6129303 10.429 13.0217 18.5356 17.7891 0.772122 3.2306 59.7754
6129313 10.4995 12.9848 18.5651 17.7891 0.714141 3.22617 59.8386
6129324 10.4995 12.9848 18.5651 17.7891 0.714141 3.22617 59.8386
6129333 10.429 12.9664 18.5848 17.7989 0.732458 3.25906 59.7791
6129349 10.429 12.9848 18.5553 17.8086 0.7566 3.24955 59.7777
6129353 10.429 12.9848 18.5553 17.8086 0.7566 3.24955 59.7777
6129363 10.4731 13.0125 18.575 17.7989 0.736421 3.22965 59.8594
6129374 10.4731 13.0125 18.575 17.7989 0.736421 3.22965 59.8594
6129383 10.4642 12.9296 18.5159 17.7794 0.724074 3.24217 59.6891
6129394 10.4907 13.0309 18.5651 17.8476 0.76026 3.22632 59.9343
6129416 10.4554 12.9572 18.5258 17.906 0.786212 3.26325 59.8444
6129424 10.4202 12.9848 18.5651 17.8281 0.764051 3.258 59.7983
6129437 10.4202 12.9848 18.5651 17.8281 0.764051 3.258 59.7983
6129444 10.5171 12.994 18.575 17.8768 0.741604 3.23716 59.9629
6129454 10.5171 12.994 18.575 17.8768 0.741604 3.23716 59.9629
6129468 10.4378 12.9204 18.6045 17.8378 0.717324 3.28195 59.8005
6129474 10.4202 12.9296 18.6537 17.8963 0.731185 3.30558 59.8998
6129484 10.4202 12.9296 18.6537 17.8963 0.731185 3.30558 59.8998
6129494 10.4554 12.9848 18.5553 17.8378 0.757068 3.24723 59.8334
6129504 10.4114 12.9388 18.6144 17.8476 0.735882 3.28823 59.8121
6129525 10.4554 13.0401 18.575 17.8281 0.767022 3.23235 59.8986
6129535 10.4642 12.9664 18.4962 17.8183 0.763351 3.23471 59.7452
6129546 10.4642 12.9664 18.4962 17.8183 0.763351 3.23471 59.7452
6129556 10.4819 13.0033 18.5553 17.8476 0.757101 3.23548 59.888
6129569 10.4819 13.0033 18.5553 17.8476 0.757101 3.23548 59.888
6129576 10.5083 13.0493 18.5061 17.7599 0.750041 3.18647 59.8236
6129590 10.4907 13.1598 18.4076 17.7014 0.821176 3.12718 59.7596
6129596 10.4907 13.1598 18.4076 17.7014 0.821176 3.12718 59.7596
6129606 10.5876 13.1782 18.3289 17.6527 0.801075 3.06687 59.7474
6129615 10.5699 13.2059 18.2895 17.5261 0.785542 3.03059 59.5914
6129637 10.5876 13.3256 18.2698 17.5456 0.842866 2.98909 59.7285
6129647 10.5876 13.3256 18.2698 17.5456 0.842866 2.98909 59.7285
6129657 10.6845 13.3532 18.2206 17.5066 0.817671 2.93389 59.7649
6129667 10.6316 13.4177 18.2305 17.4579 0.842634 2.92255 59.7376
6129678 10.6316 13.4177 18.2305 17.4579 0.842634 2.92255 59.7376
6129687 10.6668 13.4085 18.2994 17.4481 0.789994 2.92669 59.8228
6129701 10.6668 13.4085 18.2206 17.4481 0.82399 2.91078 59.744
6129707 10.6668 13.3992 18.2206 17.4871 0.836024 2.92142 59.7738
6129717 10.7285 13.4545 18.2206 17.4384 0.812048 2.87658 59.842
6129727 10.7285 13.4545 18.2206 17.4384 0.812048 2.87658 59.842
6129737 10.7021 13.4453 18.2108 17.4384 0.823978 2.88523 59.7965
6129747 10.7549 13.4637 18.2108 17.4968 0.832215 2.87578 59.9262
6129757 10.7549 13.4637 18.2108 17.4968 0.832215 2.87578 59.9262
6129769 10.7109 13.4729 18.2305 17.4579 0.83071 2.88228 59.8721
6129780 10.7021 13.4361 18.2403 17.3605 0.775945 2.87818 59.7389
6129793 10.7021 13.4361 18.2403 17.3605 0.775945 2.87818 59.7389
6129798 10.7197 13.4269 18.2206 17.3312 0.761244 2.86573 59.6984
6129808 10.7197 13.4269 18.2206 17.3312 0.761244 2.86573 59.6984
6129818 10.6845 13.4269 18.1616 17.341 0.80595 2.86625 59.6139
6129828 10.7461 13.4085 18.1419 17.263 0.748625 2.83339 59.5595
6129838 10.7461 13.4085 18.1419 17.263 0.748625 2.83339 59.5595
6129848 10.7549 13.4637 18.2009 17.2825 0.749713 2.83026 59.7021
6129866 10.7285 13.4361 18.2206 17.2728 0.737432 2.84844 59.658
6129878 10.8166 13.4085 18.1911 17.341 0.728685 2.83825 59.7571
6129889 10.8166 13.4085 18.1911 17.341 0.728685 2.83825 59.7571
6129899 10.799 13.4545 18.1616 17.2338 0.724152 2.80187 59.6488
6129910 10.799 13.3624 18.2108 17.2923 0.689244 2.85137 59.6644
6129919 10.799 13.3624 18.2108 17.2923 0.689244 2.85137 59.6644
6129932 10.8342 13.4545 18.2206 17.341 0.72709 2.82527 59.8503
6129939 10.8959 13.4545 18.2108 17.2923 0.685063 2.795 59.8534
6129954 10.8959 13.4545 18.2108 17.2923 0.685063 2.795 59.8534
6129959 10.8342 13.5098 18.2206 17.2533 0.713933 2.79096 59.8179
6129969 10.8342 13.5098 18.2206 17.2533 0.713933 2.79096 59.8179
6129979 10.8342 13.4453 18.132 17.1364 0.678217 2.76809 59.5479
6129991 10.9575 13.4545 18.132 17.0974 0.612992 2.72062 59.6414
6130000 10.9575 13.4545 18.132 17.0974 0.612992 2.72062 59.6414
6130009 10.9487 13.4545 18.1517 17.0877 0.604334 2.72528 59.6426
6130020 10.9135 13.5282 18.1419 17.1169 0.665715 2.71785 59.7004
6130029 10.9135 13.5282 18.1419 17.1169 0.665715 2.71785 59.7004
6130043 10.9487 13.5466 18.2108 17.1266 0.632498 2.71811 59.8327
6130050 10.9487 13.5466 18.2108 17.1266 0.632498 2.71811 59.8327
6130059 10.9839 13.6018 18.1222 17.0682 0.654075 2.66108 59.7762
6130069 11.028 13.5834 18.1714 17.0877 0.614548 2.66768 59.8705
6130079 11.028 13.5834 18.1714 17.0877 0.614548 2.66768 59.8705
6130090 11.0192 13.6295 18.1616 17.0877 0.641268 2.65466 59.8979
6130104 11.028 13.6295 18.1025 17.0877 0.662798 2.63989 59.8476
6130121 11.0192 13.6111 18.0631 16.9334 0.613037 2.60779 59.6267
6130140 10.9839 13.6018 18.0828 16.9334 0.615951 2.62501 59.602
6130153 10.9839 13.6111 18.0533 16.9619 0.644085 2.62209 59.6102
6130161 10.9839 13.6111 18.0533 16.9619 0.644085 2.62209 59.6102
6130171 11.0368 13.6295 18.0631 16.981 0.632441 2.60704 59.7103
6130184 11.0368 13.6295 18.0631 16.981 0.632441 2.60704 59.7103
6130191 11.028 13.6111 18.0434 16.9714 0.633276 2.60901 59.6539
6130202 11.0368 13.6018 18.1123 16.9619 0.59227 2.62145 59.7129
6130216 11.0368 13.6018 18.1123 16.9619 0.59227 2.62145 59.7129
6130222 11.0192 13.6018 18.0631 16.9524 0.617054 2.61447 59.6365
6130232 11.072 13.7031 18.1025 16.9429 0.614974 2.57526 59.8205
6130242 11.072 13.7031 18.1025 16.9429 0.614974 2.57526 59.8205
6130252 11.072 13.6939 18.0533 16.8953 0.612891 2.55782 59.7145
6130265 11.072 13.6939 18.0533 16.8953 0.612891 2.55782 59.7145
6130272 11.0632 13.7124 18.1025 16.9429 0.622499 2.57514 59.8209
6130291 11.0456 13.6663 18.0336 16.9048 0.625286 2.57161 59.6503
6130293 11.0456 13.6663 18.0336 16.9048 0.625286 2.57161 59.6503
6130303 11.0808 13.6939 17.9745 16.8858 0.639036 2.53681 59.6351
6130318 11.0896 13.7216 18.0336 16.9048 0.628939 2.54241 59.7496
6130322 11.0896 13.7216 18.0336 16.9048 0.628939 2.54241 59.7496
6130332 11.072 13.8137 18.0631 16.8858 0.653592 2.52276 59.8346
6130344 11.072 13.8137 18.0631 16.8858 0.653592 2.52276 59.8346
6130352 11.0984 13.7584 18.0041 16.9429 0.668347 2.5308 59.8038
6130371 11.1249 13.7952 18.0631 16.8763 0.619578 2.5107 59.8595
6130374 11.1249 13.7952 18.0631 16.8763 0.619578 2.5107 59.8595
6130382 11.1513 13.8321 17.8859 16.8572 0.691515 2.45112 59.7265
6130399 11.1777 13.7676 17.9351 16.8001 0.609431 2.46058 59.6806
6130403 11.1777 13.7676 17.9351 16.8001 0.609431 2.46058 59.6806
6130413 11.1689 13.8229 17.9155 16.7716 0.632572 2.43686 59.6788
6130433 11.1865 13.8229 17.8466 16.762 0.650731 2.41518 59.618
6130452 11.301 13.8413 17.9056 16.7716 0.587678 2.39091 59.8195
6130454 11.301 13.8413 17.9056 16.7716 0.587678 2.39091 59.8195
6130463 11.2394 13.8781 17.8466 16.743 0.6428 2.37963 59.707
6130480 11.257 13.9242 17.8072 16.6669 0.639859 2.33665 59.6552
6130492 11.257 13.9242 17.8072 16.6669 0.639859 2.33665 59.6552
6130509 11.3098 13.9794 17.7678 16.7049 0.67212 2.30501 59.762
6130511 11.3275 13.9978 17.7383 16.6193 0.649834 2.27006 59.6828
6130516 11.3275 13.9978 17.7383 16.6193 0.649834 2.27006 59.6828
6130524 11.3363 13.9794 17.7087 16.6383 0.658995 2.2706 59.6627
6130534 11.3363 13.9794 17.7087 16.6383 0.658995 2.2706 59.6627
6130544 11.3715 13.9518 17.7186 16.6002 0.612789 2.26237 59.6421
6130556 11.4067 14.0623 17.6398 16.6193 0.684342 2.20752 59.7281
6130564 11.4067 14.0623 17.6398 16.6193 0.684342 2.20752 59.7281
6130578 11.3803 14.007 17.6595 16.5907 0.653076 2.22918 59.6376
6130584 11.3803 14.007 17.6595 16.5907 0.653076 2.22918 59.6376
6130595 11.3803 14.0255 17.6497 16.505 0.629824 2.20338 59.5605
6130608 11.3891 14.0715 17.6595 16.5241 0.6484 2.19375 59.6442
6130615 11.3891 14.0715 17.6595 16.5241 0.6484 2.19375 59.6442
6130626 11.4508 14.0991 17.6595 16.467 0.609872 2.15577 59.6764
6130636 11.4155 14.1636 17.6202 16.4479 0.660476 2.13478 59.6472
6130645 11.4155 14.1636 17.6202 16.4479 0.660476 2.13478 59.6472
6130656 11.4244 14.1083 17.63 16.5146 0.657097 2.16461 59.6772
6130668 11.3891 14.0991 17.6202 16.4955 0.664964 2.17119 59.6039
6130678 11.3891 14.0991 17.6202 16.4955 0.664964 2.17119 59.6039
6130690 11.4155 14.1083 17.6398 16.467 0.637221 2.15902 59.6307
6130695 11.4155 14.1083 17.6398 16.467 0.637221 2.15902 59.6307
6130714 11.4067 14.0715 17.6398 16.505 0.641519 2.18035 59.6231
6130715 11.4155 14.1176 17.5906 16.4765 0.666049 2.14781 59.6002
6130726 11.4155 14.1176 17.5906 16.4765 0.666049 2.14781 59.6002
6130735 11.4067 14.0715 17.7087 16.5812 0.642988 2.21147 59.7682
6130745 11.4067 14.0715 17.7087 16.5812 0.642988 2.21147 59.7682
6130757 11.3539 14.0255 17.6891 16.5907 0.659254 2.23782 59.6591
6130766 11.3363 13.9794 17.7776 16.6097 0.61774 2.2792 59.7031
6130780 11.3363 13.9794 17.7776 16.6097 0.61774 2.2792 59.7031
6130786 11.2746 13.9426 17.7776 16.6288 0.636953 2.31181 59.6236
6130802 11.2834 14.007 17.7481 16.6573 0.683814 2.29035 59.6959
6130805 11.2834 14.007 17.7481 16.6573 0.683814 2.29035 59.6959
6130817 11.2834 13.915 17.8859 16.7525 0.625917 2.36646 59.8368
6130827 11.2834 13.915 17.8859 16.7525 0.625917 2.36646 59.8368
6130837 11.2834 13.9242 17.8564 16.7525 0.642323 2.35754 59.8165
6130850 11.2834 13.8597 17.9155 16.7716 0.598514 2.39275 59.8301
6130857 11.2834 13.8597 17.9155 16.7716 0.598514 2.39275 59.8301
6130871 11.1425 13.8413 17.9155 16.743 0.639787 2.43318 59.6422
6130877 11.2306 13.8413 17.9548 16.7811 0.600651 2.42378 59.8078
6130887 11.2306 13.8413 17.9548 16.7811 0.600651 2.42378 59.8078
6130900 11.1689 13.7952 18.0041 16.8191 0.602725 2.47353 59.7873
6130907 11.1689 13.7952 18.0041 16.8191 0.602725 2.47353 59.7873
6130917 11.0544 13.7308 17.9351 16.8382 0.662962 2.51555 59.5585
6130928 11.0632 13.7676 18.0041 16.8667 0.656214 2.52254 59.7016
6130938 11.0632 13.7676 18.0041 16.8667 0.656214 2.52254 59.7016
6130949 11.0632 13.6663 17.9548 16.8667 0.636005 2.54203 59.5511
6130960 10.9839 13.6663 18.0336 16.8858 0.644019 2.58583 59.5696
6130968 10.9839 13.6663 18.0336 16.8858 0.644019 2.58583 59.5696
6130981 11.0104 13.6295 18.073 17.0097 0.6513 2.62285 59.7225
6130988 11.0104 13.6295 18.073 17.0097 0.6513 2.62285 59.7225
6131004 10.9751 13.6111 18.0828 16.9905 0.646839 2.63674 59.6595
6131008 10.9487 13.565 18.1419 17.1072 0.661618 2.69448 59.7627
6131018 10.9487 13.565 18.1419 17.1072 0.661618 2.69448 59.7627
6131030 10.9135 13.5005 18.1616 17.0974 0.638035 2.7261 59.673
6131038 10.9047 13.519 18.2403 17.1169 0.623485 2.74342 59.7808
6131053 10.9047 13.519 18.2403 17.1169 0.623485 2.74342 59.7808
6131058 10.9399 13.4913 18.2994 17.2046 0.607598 2.77117 59.9352
6131068 10.9399 13.4913 18.2994 17.2046 0.607598 2.77117 59.9352
6131078 10.9047 13.4913 18.2403 17.1364 0.620162 2.75561 59.7727
6131088 10.8694 13.4177 18.26 17.1461 0.600725 2.79404 59.6932
6131103 10.8694 13.4177 18.26 17.1461 0.600725 2.79404 59.6932
6131108 10.843 13.4269 18.2797 17.1656 0.615337 2.80718 59.7152
