6796020 9.76839 10.3234 19.4314 17.1169 -0.776601 4.35817 56.6401
6796029 9.76839 10.3234 19.4314 17.1169 -0.776601 4.35817 56.6401
6796037 9.82124 10.3234 19.4215 17.0487 -0.82605 4.32544 56.6149
6796047 9.75959 10.2958 19.4412 17.1754 -0.763023 4.38345 56.6719
6796068 9.71554 10.305 19.5003 17.2046 -0.751986 4.41187 56.7254
6796095 9.65389 10.2774 19.5003 17.2436 -0.720453 4.44973 56.6751
6796117 9.63627 10.2313 19.5003 17.2533 -0.729388 4.47342 56.6212
6796119 9.63627 10.2313 19.5003 17.2533 -0.729388 4.47342 56.6212
6796128 9.60984 10.1945 19.4806 17.3215 -0.695363 4.5042 56.6064
6796139 9.60984 10.1945 19.4806 17.3215 -0.695363 4.5042 56.6064
6796147 9.54819 10.2129 19.4215 17.2533 -0.666037 4.49548 56.4359
6796157 9.54819 10.2129 19.4215 17.2533 -0.666037 4.49548 56.4359
6796167 9.51295 10.1116 19.4609 17.3605 -0.665158 4.5699 56.4459
6796177 9.51295 10.1392 19.4708 17.3605 -0.656845 4.56215 56.4834
6796187 9.51295 10.1392 19.4708 17.3605 -0.656845 4.56215 56.4834
6796197 9.46891 10.1024 19.579 17.4579 -0.65701 4.62803 56.6082
6796208 9.41606 10.13 19.5987 17.4871 -0.616997 4.64573 56.6319
6796218 9.41606 10.13 19.5987 17.4871 -0.616997 4.64573 56.6319
6796228 9.33679 10.1116 19.6578 17.604 -0.56382 4.7117 56.7102
6796238 9.33679 10.1116 19.6578 17.604 -0.56382 4.7117 56.7102
6796248 9.33679 10.0471 19.6775 17.565 -0.619009 4.73063 56.6264
6796258 9.28394 10.0471 19.6972 17.4968 -0.635612 4.74027 56.5251
6796268 9.28394 10.0471 19.6972 17.4968 -0.635612 4.74027 56.5251
6796278 9.29275 10.0563 19.7169 17.6527 -0.573239 4.76576 56.7187
6796288 9.31036 10.0103 19.7661 17.604 -0.644782 4.77576 56.6907
6796298 9.31036 10.0103 19.7661 17.604 -0.644782 4.77576 56.6907
6796308 9.27513 10.0195 19.7759 17.6819 -0.594506 4.80064 56.7525
6796321 9.27513 10.0195 19.7759 17.6819 -0.594506 4.80064 56.7525
6796328 9.25751 9.98267 19.7858 17.6235 -0.634213 4.81092 56.6494
6796340 9.23109 10.0103 19.7759 17.6819 -0.579706 4.81924 56.6992
6796348 9.23109 10.0103 19.7759 17.6819 -0.579706 4.81924 56.6992
6796358 9.23109 10.0379 19.7858 17.7014 -0.56271 4.81485 56.7562
6796368 9.26632 9.99187 19.7464 17.6625 -0.599274 4.80455 56.667
6796378 9.26632 9.99187 19.7464 17.6625 -0.599274 4.80455 56.667
6796388 9.20466 9.99187 19.7562 17.6819 -0.568144 4.83139 56.6347
6796399 9.20466 9.99187 19.7562 17.6819 -0.568144 4.83139 56.6347
6796408 9.19586 9.95504 19.7562 17.6819 -0.580984 4.84739 56.5891
6796419 9.17824 9.88136 19.7759 17.7404 -0.588758 4.89344 56.5759
6796428 9.17824 9.88136 19.7759 17.7404 -0.588758 4.89344 56.5759
6796438 9.22228 9.96425 19.8054 17.7112 -0.596221 4.84896 56.7031
6796451 9.22228 9.96425 19.8054 17.7112 -0.596221 4.84896 56.7031
6796458 9.14301 9.92741 19.7267 17.6819 -0.557879 4.87036 56.4791
6796468 9.19586 9.94583 19.8448 17.7599 -0.588126 4.8804 56.7464
6796488 9.17824 9.97346 19.835 17.7307 -0.577027 4.86992 56.7173
6796501 9.21347 9.90899 19.8842 17.7404 -0.638036 4.89068 56.7471
6796510 9.21347 9.90899 19.8842 17.7404 -0.638036 4.89068 56.7471
6796520 9.18705 9.86295 19.8153 17.7014 -0.635511 4.89689 56.5667
6796530 9.18705 9.86295 19.8153 17.7014 -0.635511 4.89689 56.5667
6796540 9.1342 9.87216 19.8842 17.7404 -0.620611 4.93147 56.6309
6796550 9.11658 9.79848 19.9039 17.8086 -0.623979 4.97923 56.6275
6796570 9.05492 9.84453 19.9433 17.7501 -0.62 4.98136 56.5928
6796580 9.05492 9.77086 20.022 17.8281 -0.651948 5.03503 56.6759
6796590 9.05492 9.77086 20.022 17.8281 -0.651948 5.03503 56.6759
6796600 9.06373 9.78927 20.0811 17.9158 -0.633143 5.05116 56.8498
6796619 9.00207 9.78927 20.1204 17.9255 -0.619197 5.0815 56.8373
6796631 8.91399 9.7156 20.2681 18.0424 -0.625254 5.18464 56.9401
6796641 8.91399 9.7156 20.2681 18.0424 -0.625254 5.18464 56.9401
6796651 8.86995 9.66956 20.3665 18.0424 -0.669253 5.23353 56.9484
6796661 8.77306 9.66035 20.3862 18.0814 -0.622815 5.28133 56.901
6796681 8.70259 9.55905 20.5831 18.0327 -0.744571 5.36789 56.8774
6796691 8.70259 9.55905 20.5831 18.0327 -0.744571 5.36789 56.8774
6796701 8.62332 9.54063 20.524 18.0716 -0.676134 5.39954 56.7596
6796714 8.64974 9.54063 20.524 18.0716 -0.687455 5.39005 56.786
6796723 8.64974 9.54063 20.524 18.0716 -0.687455 5.39005 56.786
6796736 8.58808 9.44854 20.524 18.0034 -0.733744 5.43388 56.5641
6796743 8.54404 9.43933 20.5732 18.0229 -0.731289 5.46473 56.5795
6796752 8.54404 9.43933 20.5732 18.0229 -0.731289 5.46473 56.5795
6796763 8.52642 9.47616 20.5634 18.0132 -0.707187 5.45448 56.5792
6796774 8.52642 9.47616 20.5634 18.0132 -0.707187 5.45448 56.5792
6796784 8.51762 9.36566 20.7111 18.1106 -0.772604 5.53878 56.7049
6796792 8.54404 9.35645 20.7406 18.1009 -0.805105 5.53584 56.7419
6796821 8.47358 9.49458 20.7209 18.1301 -0.690706 5.51297 56.8191
6796824 8.50881 9.32882 20.7997 18.0911 -0.832266 5.56683 56.7284
6796832 8.50881 9.32882 20.7997 18.0911 -0.832266 5.56683 56.7284
6796844 8.41192 9.37486 20.8587 18.1593 -0.764219 5.60637 56.8048
6796852 8.41192 9.37486 20.8587 18.1593 -0.764219 5.60637 56.8048
6796864 8.42073 9.34724 20.8292 18.1106 -0.790046 5.60024 56.7077
6796873 8.38549 9.34724 20.8981 18.1691 -0.777857 5.6341 56.7999
6796892 8.33264 9.3104 20.9276 18.1983 -0.771363 5.67639 56.7689
6796903 8.33264 9.3104 21.0556 18.208 -0.821435 5.69896 56.9067
6796913 8.33264 9.3104 21.0556 18.208 -0.821435 5.69896 56.9067
6796923 8.33264 9.30119 21.0851 18.1593 -0.860284 5.69917 56.8783
6796933 8.33264 9.30119 21.0851 18.1593 -0.860284 5.69917 56.8783
6796943 8.29741 9.24594 21.1737 18.1593 -0.908051 5.74659 56.8764
6796953 8.34145 9.27356 21.1147 18.1983 -0.871392 5.7172 56.9279
6796963 8.34145 9.27356 21.1147 18.1983 -0.871392 5.7172 56.9279
6796976 8.31503 9.22752 21.1245 18.1106 -0.925277 5.73092 56.7776
6796983 8.3943 9.22752 21.0851 18.1301 -0.93329 5.69876 56.837
6796993 8.3943 9.22752 21.0851 18.1301 -0.93329 5.69876 56.837
6797004 8.43834 9.22752 21.0556 18.0521 -0.975041 5.6651 56.7736
6797027 8.33264 9.17226 21.1343 18.1593 -0.939901 5.75421 56.7986
6797033 8.36788 9.18147 21.1639 18.1009 -0.989813 5.73327 56.8141
6797043 8.36788 9.18147 21.1639 18.1009 -0.989813 5.73327 56.8141
6797053 8.42073 9.18147 21.0851 18.0132 -1.01904 5.68675 56.7005
6797063 8.42073 9.15385 21.0162 17.9742 -1.02045 5.67909 56.565
6797073 8.42073 9.15385 21.0162 17.9742 -1.02045 5.67909 56.565
6797083 8.49119 9.27356 21.0359 18.0034 -0.990282 5.61788 56.8041
6797093 8.49119 9.27356 21.0359 18.0034 -0.990282 5.61788 56.8041
6797103 8.51762 9.24594 20.9768 17.9255 -1.02488 5.59564 56.6659
6797114 8.6057 9.25515 20.8784 17.8963 -1.02969 5.53906 56.6355
6797125 8.6057 9.25515 20.8784 17.8963 -1.02969 5.53906 56.6355
6797135 8.58808 9.30119 20.8784 17.867 -1.01451 5.52387 56.6347
6797146 8.65855 9.27356 20.8292 17.8865 -1.02724 5.50337 56.6478
6797166 8.74663 9.32882 20.7701 17.945 -0.987376 5.45152 56.7906
6797175 8.74663 9.32882 20.7701 17.945 -0.987376 5.45152 56.7906
6797187 8.7114 9.34724 20.6914 17.9742 -0.917299 5.44925 56.7242
6797196 8.80829 9.42091 20.6914 17.8378 -0.987047 5.36484 56.7584
6797206 8.80829 9.42091 20.6914 17.8378 -0.987047 5.36484 56.7584
6797217 8.87876 9.43933 20.5437 17.8086 -0.959295 5.30283 56.6704
6797226 8.90518 9.42091 20.4748 17.7501 -0.976525 5.27811 56.551
6797234 8.90518 9.42091 20.4748 17.7501 -0.976525 5.27811 56.551
6797244 8.9228 9.513 20.3665 17.867 -0.842288 5.24034 56.6694
6797255 8.9228 9.513 20.3665 17.867 -0.842288 5.24034 56.6694
6797265 9.03731 9.57747 20.2976 17.7404 -0.890101 5.14271 56.6528
6797275 9.15181 9.63272 20.2189 17.6625 -0.915678 5.05511 56.6659
6797287 9.15181 9.63272 20.2189 17.6625 -0.915678 5.05511 56.6659
6797294 9.21347 9.68797 20.1598 17.6625 -0.891536 5.00342 56.7237
6797305 9.21347 9.68797 20.1598 17.6625 -0.891536 5.00342 56.7237
6797315 9.23109 9.7156 20.0122 17.6138 -0.845768 4.95272 56.5726
6797325 9.37202 9.75244 19.9629 17.565 -0.890289 4.87274 56.6524
6797335 9.37202 9.75244 19.9629 17.565 -0.890289 4.87274 56.6524
6797344 9.42487 9.78927 19.8547 17.4481 -0.903323 4.80086 56.5169
6797354 9.51295 9.84453 19.6972 17.4384 -0.852846 4.72043 56.493
6797370 9.51295 9.84453 19.6972 17.4384 -0.852846 4.72043 56.493
6797378 9.53938 9.87216 19.6086 17.341 -0.858223 4.66759 56.3611
6797387 9.53938 9.87216 19.6086 17.341 -0.858223 4.66759 56.3611
6797396 9.64508 9.89057 19.5495 17.341 -0.869738 4.61351 56.4261
6797406 9.68031 9.95504 19.4904 17.341 -0.83002 4.56802 56.4668
6797416 9.68031 9.95504 19.4904 17.341 -0.83002 4.56802 56.4668
6797426 9.75959 9.99187 19.4708 17.2533 -0.878777 4.50795 56.4755
6797436 9.76839 9.99187 19.4806 17.2728 -0.877815 4.51036 56.5136
6797446 9.76839 9.99187 19.4806 17.2728 -0.877815 4.51036 56.5136
6797456 9.87409 10.0563 19.4019 17.1851 -0.899947 4.42073 56.5174
6797466 9.87409 10.0563 19.4019 17.1851 -0.899947 4.42073 56.5174
6797476 9.86528 10.0655 19.3231 17.1948 -0.853871 4.40765 56.4488
6797488 9.90933 10.0655 19.3822 17.1948 -0.897893 4.4036 56.5519
6797496 9.90933 10.0655 19.3822 17.1948 -0.897893 4.4036 56.5519
6797506 10.0326 10.13 19.3329 17.1754 -0.908852 4.32646 56.671
6797516 9.94456 10.1484 19.3625 17.1656 -0.87997 4.35397 56.6211
6797536 9.90052 10.1116 19.3625 17.2436 -0.842421 4.39627 56.6181
6797547 9.90052 10.1116 19.3625 17.2436 -0.842421 4.39627 56.6181
6797557 9.87409 10.1116 19.3723 17.2143 -0.84869 4.4017 56.5723
6797567 9.85648 10.1392 19.4117 17.1754 -0.863159 4.39834 56.5828
6797588 9.85648 10.0932 19.3231 17.2143 -0.82854 4.40484 56.4871
6797598 9.85648 10.0748 19.392 17.2533 -0.8486 4.43136 56.5765
6797617 9.83005 10.0655 19.4215 17.2338 -0.863041 4.44548 56.5509
6797628 9.83005 10.0655 19.4215 17.2338 -0.863041 4.44548 56.5509
6797638 9.79482 10.0011 19.4215 17.263 -0.86412 4.48527 56.4805
6797648 9.75959 10.0563 19.4314 17.2728 -0.823537 4.48201 56.5201
6797658 9.75959 10.0563 19.4314 17.2728 -0.823537 4.48201 56.5201
6797668 9.70674 10.0103 19.5101 17.3312 -0.828943 4.54159 56.5584
6797678 9.69793 10.0103 19.5692 17.3507 -0.841504 4.55914 56.6281
6797698 9.64508 9.96425 19.6283 17.4287 -0.82961 4.61851 56.6662
6797709 9.64508 9.96425 19.6283 17.4287 -0.82961 4.61851 56.6662
6797719 9.59223 9.93662 19.707 17.4676 -0.835486 4.66791 56.7035
6797729 9.55699 9.90899 19.6676 17.4092 -0.842932 4.6719 56.5428
6797738 9.55699 9.90899 19.6676 17.4092 -0.842932 4.6719 56.5428
6797748 9.52176 9.90899 19.6972 17.4774 -0.809363 4.70197 56.6053
6797759 9.42487 9.88136 19.7562 17.5261 -0.783578 4.76494 56.5885
6797769 9.42487 9.88136 19.7562 17.5261 -0.783578 4.76494 56.5885
6797778 9.41606 9.83532 19.7464 17.5261 -0.796589 4.78234 56.5238
6797789 9.41606 9.83532 19.7464 17.5261 -0.796589 4.78234 56.5238
6797798 9.38083 9.77086 19.8251 17.643 -0.791296 4.85248 56.6198
6797810 9.36321 9.8169 19.8743 17.6527 -0.779414 4.85308 56.7072
6797818 9.36321 9.8169 19.8743 17.6527 -0.779414 4.85308 56.7072
6797830 9.30155 9.83532 19.9137 17.6625 -0.757098 4.877 56.7131
6797846 9.26632 9.77086 20.0122 17.6625 -0.813396 4.92951 56.7118
6797850 9.26632 9.77086 20.0122 17.6625 -0.813396 4.92951 56.7118
6797858 9.27513 9.78006 20.0515 17.7112 -0.807592 4.93881 56.8179
6797868 9.27513 9.78006 20.0515 17.7112 -0.807592 4.93881 56.8179
6797878 9.22228 9.79848 19.9531 17.7014 -0.739062 4.93172 56.6753
6797889 9.27513 9.74323 20.0318 17.6917 -0.824814 4.94481 56.7419
6797898 9.27513 9.74323 20.0318 17.6917 -0.824814 4.94481 56.7419
6797908 9.27513 9.80769 19.9629 17.7112 -0.757265 4.9134 56.7569
6797929 9.19586 9.75244 19.9531 17.7112 -0.744243 4.95896 56.6126
6797940 9.22228 9.7156 19.894 17.7209 -0.742579 4.95388 56.5528
6797950 9.22228 9.7156 19.894 17.7209 -0.742579 4.95388 56.5528
6797960 9.16062 9.69718 19.9629 17.6527 -0.785175 4.9823 56.4735
6797970 9.12539 9.6143 19.9629 17.7014 -0.785667 5.0328 56.4041
6797980 9.12539 9.6143 19.9629 17.7014 -0.785667 5.0328 56.4041
6797990 9.10777 9.66956 20.0023 17.7112 -0.765327 5.02812 56.4908
6798000 9.10777 9.69718 20.0122 17.7696 -0.730351 5.03037 56.5867
6798028 9.08135 9.70639 20.0712 17.8281 -0.713609 5.05712 56.687
6798037 9.08135 9.70639 20.0712 17.8281 -0.713609 5.05712 56.687
6798041 9.0285 9.68797 20.0909 17.7794 -0.729881 5.07729 56.5868
6798051 9.01969 9.66956 20.1106 17.867 -0.703093 5.10573 56.6669
6798071 9.00207 9.69718 20.0811 17.8476 -0.679167 5.09362 56.6279
6798081 8.95803 9.66035 20.0614 17.8086 -0.686188 5.1121 56.4883
6798091 8.95803 9.66035 20.0614 17.8086 -0.686188 5.1121 56.4883
6798101 8.97565 9.66956 20.1106 17.9547 -0.644484 5.13664 56.7105
6798113 8.97565 9.66956 20.1106 17.9547 -0.644484 5.13664 56.7105
6798123 8.94922 9.66956 20.0614 17.9255 -0.625178 5.13237 56.6057
6798131 9.01088 9.66956 20.0318 17.9158 -0.643413 5.10361 56.628
6798141 9.01088 9.66956 20.0318 17.9158 -0.643413 5.10361 56.628
6798151 8.99326 9.70639 20.1008 17.8768 -0.66642 5.10202 56.6772
6798162 8.97565 9.64193 20.0811 17.8963 -0.67078 5.13114 56.5949
6798172 8.97565 9.64193 20.0811 17.8963 -0.67078 5.13114 56.5949
6798182 8.97565 9.67877 20.0122 17.9742 -0.589165 5.11962 56.6408
6798203 8.99326 9.67877 19.9629 17.906 -0.606385 5.09283 56.541
6798212 9.00207 9.76165 19.9334 17.9255 -0.551161 5.05854 56.6226
6798223 9.00207 9.76165 19.9334 17.9255 -0.551161 5.05854 56.6226
6798232 9.05492 9.75244 19.9629 17.9352 -0.586443 5.04999 56.7055
6798242 9.01969 9.68797 19.9039 17.9352 -0.574899 5.07495 56.5468
6798253 9.01969 9.68797 19.9039 17.9352 -0.574899 5.07495 56.5468
6798264 9.03731 9.77086 19.9334 17.8865 -0.579803 5.03596 56.6281
6798273 9.03731 9.77086 19.9334 17.8865 -0.579803 5.03596 56.6281
6798283 9.05492 9.79848 19.9236 17.906 -0.561891 5.02166 56.683
6798293 9.04611 9.75244 19.9433 17.945 -0.569773 5.05136 56.6868
6798304 9.04611 9.75244 19.9433 17.945 -0.569773 5.05136 56.6868
6798313 9.10777 9.76165 19.894 17.8378 -0.619394 4.99877 56.6013
6798323 9.08135 9.76165 19.894 17.8573 -0.599189 5.01155 56.5943
6798344 9.06373 9.78006 19.9039 17.8865 -0.574304 5.01816 56.6342
6798364 9.08135 9.79848 19.835 17.7891 -0.587893 4.97601 56.5039
6798375 9.17824 9.82611 19.8251 17.8183 -0.599724 4.93553 56.6478
6798385 9.17824 9.82611 19.8251 17.8183 -0.599724 4.93553 56.6478
6798395 9.09016 9.86295 19.9433 17.8476 -0.582837 4.97967 56.7439
6798407 9.1342 9.78927 19.8645 17.8086 -0.61878 4.96929 56.5966
6798415 9.1342 9.78927 19.8645 17.8086 -0.61878 4.96929 56.5966
6798425 9.16943 9.82611 19.8547 17.8476 -0.595446 4.94905 56.6978
6798435 9.16943 9.82611 19.8547 17.8476 -0.595446 4.94905 56.6978
6798458 9.1342 9.75244 20.0318 17.8573 -0.685282 5.02041 56.7758
6798460 9.20466 9.78006 20.022 17.8963 -0.681128 4.99101 56.903
6798465 9.20466 9.78006 20.022 17.8963 -0.681128 4.99101 56.903
6798475 9.09896 9.79848 19.9531 17.8865 -0.602359 5.00788 56.7371
6798485 9.12539 9.74323 20.0417 17.867 -0.685486 5.0302 56.7774
6798495 9.12539 9.74323 20.0417 17.867 -0.685486 5.0302 56.7774
6798505 9.08135 9.76165 20.022 17.9158 -0.627829 5.04434 56.7808
6798516 9.08135 9.76165 20.022 17.9158 -0.627829 5.04434 56.7808
6798525 9.10777 9.7156 19.9433 17.8086 -0.674687 5.01858 56.5752
6798535 9.04611 9.68797 19.9826 17.8573 -0.655541 5.06571 56.574
6798556 9.0285 9.69718 19.9629 17.8378 -0.64414 5.06181 56.5264
6798565 9.05492 9.69718 20.0417 17.8378 -0.689372 5.06627 56.6316
6798578 9.05492 9.67877 20.0417 17.8183 -0.706576 5.06938 56.5937
6798585 9.05492 9.66035 20.0712 17.9158 -0.68341 5.09814 56.7023
6798595 9.05492 9.66035 20.0712 17.9158 -0.68341 5.09814 56.7023
6798605 8.94041 9.6143 20.1106 17.8183 -0.7163 5.14508 56.4837
6798615 8.97565 9.6143 20.1697 17.8086 -0.761206 5.14113 56.5682
6798624 8.97565 9.6143 20.1697 17.8086 -0.761206 5.14113 56.5682
6798634 9.03731 9.65114 20.2386 17.8183 -0.795835 5.11983 56.7453
6798659 8.99326 9.55905 20.3272 17.8573 -0.838991 5.19032 56.7368
6798666 8.96684 9.55905 20.2779 17.7794 -0.842282 5.17771 56.5832
6798676 8.96684 9.55905 20.2779 17.7794 -0.842282 5.17771 56.5832
6798687 8.94922 9.54984 20.3173 17.8476 -0.824659 5.20591 56.6639
6798697 8.91399 9.62351 20.4551 17.9255 -0.799437 5.22939 56.9181
6798707 8.91399 9.62351 20.4551 17.9255 -0.799437 5.22939 56.9181
6798717 8.91399 9.54984 20.3862 17.945 -0.794692 5.24713 56.795
6798727 8.86995 9.53142 20.4748 17.8768 -0.85306 5.27291 56.753
6798737 8.86995 9.53142 20.4748 17.8768 -0.85306 5.27291 56.753
6798747 8.84352 9.56826 20.4551 17.8768 -0.816655 5.26582 56.7437
6798757 8.84352 9.56826 20.4551 17.8768 -0.816655 5.26582 56.7437
6798768 8.87876 9.53142 20.3961 17.8281 -0.845474 5.24787 56.6343
6798777 8.85233 9.48537 20.4256 17.8768 -0.845586 5.28725 56.6401
6798797 8.90518 9.53142 20.465 17.8476 -0.877178 5.25363 56.7491
6798809 8.84352 9.53142 20.4551 17.8086 -0.86453 5.26728 56.6387
6798828 8.85233 9.513 20.5043 17.8865 -0.862081 5.29252 56.7562
6798849 8.84352 9.513 20.5043 17.7989 -0.898352 5.28065 56.6597
6798860 8.82591 9.59588 20.4551 17.8573 -0.805441 5.2589 56.7342
6798870 8.82591 9.59588 20.4551 17.8573 -0.805441 5.2589 56.7342
6798880 8.85233 9.513 20.4945 17.8183 -0.889005 5.27915 56.6782
6798893 8.87876 9.50379 20.4158 17.7696 -0.893214 5.25107 56.5679
6798900 8.87876 9.50379 20.4158 17.7696 -0.893214 5.25107 56.5679
6798913 8.88756 9.54063 20.4453 17.8476 -0.857112 5.25325 56.721
6798930 8.86995 9.50379 20.4453 17.7794 -0.897583 5.26099 56.5984
6798940 8.9228 9.59588 20.3862 17.7794 -0.852866 5.19904 56.6843
6798950 8.9228 9.59588 20.3862 17.7794 -0.852866 5.19904 56.6843
6798960 8.90518 9.60509 20.3468 17.7307 -0.846595 5.18678 56.5878
6798970 8.94922 9.54984 20.4158 17.7891 -0.893247 5.21282 56.7039
6798980 8.94922 9.54984 20.4158 17.7891 -0.893247 5.21282 56.7039
6798990 8.89637 9.60509 20.3961 17.8086 -0.828283 5.21192 56.7061
6799010 8.90518 9.53142 20.4059 17.7794 -0.883183 5.23173 56.6219
6799021 8.91399 9.66956 20.3665 17.8183 -0.789449 5.17929 56.7684
6799031 8.91399 9.66956 20.3665 17.8183 -0.789449 5.17929 56.7684
6799041 8.90518 9.6143 20.3764 17.7989 -0.823888 5.20042 56.6947
6799051 8.94922 9.64193 20.3272 17.7404 -0.835729 5.15624 56.6587
6799061 8.94922 9.64193 20.3272 17.7404 -0.835729 5.15624 56.6587
6799071 8.98446 9.68797 20.3961 17.8183 -0.823656 5.15285 56.8868
6799082 8.98446 9.68797 20.3961 17.8183 -0.823656 5.15285 56.8868
6799091 8.96684 9.59588 20.4059 17.7599 -0.888872 5.18339 56.7285
6799101 9.00207 9.68797 20.2386 17.7891 -0.777338 5.11417 56.7177
6799111 9.00207 9.68797 20.2386 17.7891 -0.777338 5.11417 56.7177
6799123 8.98446 9.67877 20.2681 17.6625 -0.844318 5.10675 56.5938
6799131 9.0285 9.66035 20.209 17.6722 -0.841866 5.08901 56.5701
6799151 9.01969 9.65114 20.2189 17.6235 -0.868796 5.0886 56.5132
6799166 9.01969 9.65114 20.2189 17.6235 -0.868796 5.0886 56.5132
6799172 8.99326 9.64193 20.1697 17.5845 -0.858526 5.0858 56.3894
6799182 9.01969 9.66035 20.2189 17.7209 -0.820075 5.10239 56.6198
6799192 9.01969 9.66035 20.2189 17.7209 -0.820075 5.10239 56.6198
6799202 9.03731 9.7156 20.2287 17.643 -0.842147 5.06462 56.6246
6799212 8.98446 9.68797 20.2386 17.7307 -0.796406 5.11023 56.6417
6799222 8.98446 9.68797 20.2386 17.7307 -0.796406 5.11023 56.6417
6799232 9.01088 9.69718 20.337 17.7112 -0.854322 5.11136 56.7562
6799252 8.9228 9.64193 20.2976 17.7307 -0.816283 5.15882 56.593
6799262 8.97565 9.69718 20.2976 17.7112 -0.822543 5.11699 56.6816
6799273 8.97565 9.69718 20.2976 17.7112 -0.822543 5.11699 56.6816
6799282 8.98446 9.6143 20.2878 17.7891 -0.824352 5.15516 56.6757
6799293 8.94041 9.66035 20.3468 17.7501 -0.827532 5.15794 56.6977
6799311 8.94041 9.66035 20.3468 17.7501 -0.827532 5.15794 56.6977
6799313 8.93161 9.63272 20.3862 17.7501 -0.85315 5.17772 56.7007
6799323 8.93161 9.63272 20.3862 17.7501 -0.85315 5.17772 56.7007
6799333 8.93161 9.66035 20.3665 17.643 -0.881076 5.14586 56.6015
6799343 8.89637 9.67877 20.4158 17.8086 -0.803159 5.1891 56.7995
6799353 8.89637 9.67877 20.4158 17.8086 -0.803159 5.1891 56.7995
6799365 8.87876 9.67877 20.3764 17.7307 -0.814314 5.17506 56.6646
6799373 8.82591 9.63272 20.4059 17.7404 -0.820908 5.21713 56.6049
6799384 8.82591 9.63272 20.4059 17.7404 -0.820908 5.21713 56.6049
6799393 8.91399 9.59588 20.4551 17.7891 -0.873998 5.21575 56.7541
6799405 8.91399 9.59588 20.4551 17.7891 -0.873998 5.21575 56.7541
6799413 8.80829 9.65114 20.4059 17.7209 -0.813864 5.21347 56.5863
6799425 8.87876 9.62351 20.3862 17.6917 -0.861511 5.18971 56.5802
6799433 8.87876 9.62351 20.3862 17.6917 -0.861511 5.18971 56.5802
6799444 8.90518 9.68797 20.3173 17.7307 -0.796181 5.15213 56.6411
6799453 8.86114 9.7156 20.2681 17.7209 -0.748119 5.14771 56.5658
6799465 8.86114 9.7156 20.2681 17.7209 -0.748119 5.14771 56.5658
6799475 8.95803 9.70639 20.2878 17.7794 -0.775605 5.13014 56.7316
6799486 8.95803 9.70639 20.2878 17.7794 -0.775605 5.13014 56.7316
6799495 8.93161 9.69718 20.2779 17.8281 -0.742172 5.14954 56.7348
6799506 8.88756 9.74323 20.2681 17.7989 -0.711481 5.14205 56.6977
6799515 8.88756 9.74323 20.2681 17.7989 -0.711481 5.14205 56.6977
6799526 8.96684 9.70639 20.1598 17.7696 -0.729045 5.103 56.6027
6799535 8.90518 9.77086 20.15 17.7891 -0.660242 5.10368 56.6151
6799546 8.90518 9.77086 20.15 17.7891 -0.660242 5.10368 56.6151
6799555 8.94922 9.77086 20.1008 17.8183 -0.644773 5.08456 56.6392
6799566 8.94922 9.77086 20.1008 17.8183 -0.644773 5.08456 56.6392
6799576 9.00207 9.78006 20.0614 17.7404 -0.681724 5.04198 56.5839
6799586 8.96684 9.83532 20.0515 17.7501 -0.632869 5.03487 56.6038
6799608 8.95803 9.82611 20.0712 17.7112 -0.659385 5.03785 56.5665
6799616 8.98446 9.86295 19.9826 17.8281 -0.563051 5.02046 56.6581
6799628 8.98446 9.86295 19.9826 17.8281 -0.563051 5.02046 56.6581
6799636 9.01969 9.89978 20.1697 17.8378 -0.637545 5.0296 56.927
6799648 9.01969 9.89978 20.1697 17.8378 -0.637545 5.0296 56.927
6799656 9.0285 9.95504 20.022 17.7307 -0.601381 4.96221 56.7362
6799668 9.03731 9.87216 20.0122 17.6625 -0.66929 4.9745 56.5841
6799680 9.03731 9.87216 20.0122 17.6625 -0.66929 4.9745 56.5841
6799690 9.05492 9.97346 19.9039 17.7014 -0.566761 4.92029 56.6337
6799696 9.06373 9.97346 19.9039 17.6625 -0.588164 4.91025 56.6035
6799706 9.06373 9.94583 19.9039 17.6625 -0.600661 4.91997 56.5759
6799717 9.08135 10.0287 19.894 17.6235 -0.584155 4.87593 56.6276
6799726 9.08135 10.0287 19.894 17.6235 -0.584155 4.87593 56.6276
6799736 9.07254 10.0103 19.8251 17.6625 -0.541323 4.88014 56.5704
6799746 9.08135 10.0379 19.835 17.6625 -0.536916 4.8691 56.6167
6799757 9.08135 10.0379 19.835 17.6625 -0.536916 4.8691 56.6167
6799766 9.15181 10.0195 19.9629 17.5456 -0.68353 4.85283 56.6798
6799778 9.15181 10.0195 22.4042 17.5456 -1.68761 5.27183 59.121
6799786 9.09016 10.0195 19.8842 17.5943 -0.601089 4.86908 56.5881
6799798 9.16943 10.0195 19.8743 17.5261 -0.661874 4.82727 56.5894
6799806 9.16943 10.0195 19.8743 17.5261 -0.661874 4.82727 56.5894
6799819 9.15181 10.0011 19.7956 17.5163 -0.633135 4.82399 56.4648
6799826 9.20466 10.0655 19.8645 17.4774 -0.673997 4.78829 56.6121
6799836 9.20466 10.0655 19.8645 17.4774 -0.673997 4.78829 56.6121
6799846 9.17824 10.1208 19.8054 17.4189 -0.638661 4.75696 56.5234
6799866 9.22228 10.1392 19.8251 17.4092 -0.66216 4.73696 56.5958
6799880 9.26632 10.1484 19.8054 17.3994 -0.672872 4.71306 56.6196
6799887 9.26632 10.1484 19.8054 17.3994 -0.672872 4.71306 56.6196
6799897 9.21347 10.1668 19.8251 17.3215 -0.685632 4.71447 56.5269
6799907 9.28394 10.1761 19.8448 17.341 -0.711316 4.69385 56.6458
6799917 9.28394 10.1761 19.8448 17.341 -0.711316 4.69385 56.6458
6799927 9.38083 10.2313 19.7169 17.3312 -0.677346 4.61592 56.6602
6799949 9.31917 10.2037 19.7267 17.2338 -0.711879 4.63083 56.4834
6799957 9.3544 10.2589 19.7661 17.1851 -0.740939 4.59771 56.5645
6799968 9.3544 10.2589 19.7661 17.1851 -0.740939 4.59771 56.5645
6799978 9.39845 10.2129 19.6775 17.2533 -0.711739 4.59466 56.5421
6799989 9.45129 10.305 19.6873 17.1169 -0.758798 4.52116 56.5605
6799998 9.45129 10.305 19.6873 17.1169 -0.758798 4.52116 56.5605
6800010 9.39845 10.2866 19.7365 17.0974 -0.774515 4.55129 56.519
6800018 9.39845 10.2866 19.7365 17.0974 -0.774515 4.55129 56.519
6800031 9.40725 10.3694 19.7464 17.0292 -0.775816 4.50881 56.5523
6800038 9.42487 10.3787 19.7464 17.0682 -0.761418 4.50679 56.6181
6800051 9.42487 10.3787 19.7464 17.0682 -0.761418 4.50679 56.6181
6800058 9.51295 10.3971 19.707 16.9619 -0.822283 4.44306 56.579
6800072 9.49534 10.4615 19.7267 17.0195 -0.767601 4.44137 56.7031
6800088 9.51295 10.4892 19.6873 16.9905 -0.758921 4.41312 56.6799
6800120 9.52176 10.5536 19.579 17.0195 -0.673893 4.37321 56.6739
6800131 9.52176 10.5536 19.579 17.0195 -0.673893 4.37321 56.6739
6800143 9.53938 10.4063 19.5101 16.9048 -0.771111 4.38319 56.3606
6800150 9.57461 10.4984 19.4904 16.9239 -0.727078 4.33938 56.4873
6800170 9.64508 10.572 19.3625 16.9714 -0.647232 4.27493 56.551
6800180 9.64508 10.572 19.3625 16.9714 -0.647232 4.27493 56.551
6800190 9.66269 10.4892 19.392 16.8572 -0.757216 4.28113 56.4011
6800200 9.68912 10.5813 19.4215 16.8858 -0.726269 4.25175 56.5777
6800220 9.73316 10.7102 19.4215 16.8287 -0.712536 4.18219 56.6936
6800233 9.76839 10.6549 19.3723 16.8572 -0.718659 4.18502 56.6529
6800241 9.76839 10.6549 19.3723 16.8572 -0.718659 4.18502 56.6529
6800252 9.75959 10.6273 19.3822 16.8287 -0.744632 4.19379 56.5977
6800261 9.79482 10.6273 19.4019 16.7811 -0.789812 4.17652 56.605
6800272 9.79482 10.6549 19.4019 16.7811 -0.777231 4.16717 56.6327
6800281 9.78601 10.6918 19.3133 16.8382 -0.692801 4.15166 56.6292
6800292 9.78601 10.6918 19.3133 16.8382 -0.692801 4.15166 56.6292
6800302 9.75959 10.6918 19.2837 16.724 -0.720693 4.133 56.459
6800314 9.81244 10.6918 19.2247 16.8287 -0.670411 4.12389 56.5575
6800322 9.81244 10.6918 19.2247 16.8287 -0.670411 4.12389 56.5575
6800336 9.79482 10.6365 19.205 16.7049 -0.735857 4.12093 56.3412
6800342 9.76839 10.6273 19.2739 16.7811 -0.723596 4.16096 56.4507
6800352 9.76839 10.6273 19.2739 16.7811 -0.723596 4.16096 56.4507
6800362 9.81244 10.6549 19.2739 16.7716 -0.734273 4.13483 56.5128
6800372 9.81244 10.6549 19.2739 16.7716 -0.734273 4.13483 56.5128
6800382 9.7772 10.6273 19.2148 16.7525 -0.714983 4.14112 56.3718
6800392 9.81244 10.6733 19.1754 16.8382 -0.653259 4.12248 56.4994
6800402 9.81244 10.6733 19.1754 16.8382 -0.653259 4.12248 56.4994
6800412 9.75959 10.6181 19.264 16.8287 -0.698094 4.17432 56.4704
6800422 9.75959 10.6365 19.2542 16.8572 -0.672497 4.17165 56.5075
6800448 9.84767 10.6273 19.2345 16.8477 -0.710419 4.13933 56.5572
6800452 9.84767 10.6273 19.2345 16.8477 -0.710419 4.13933 56.5572
6800462 9.7772 10.6733 19.205 16.7906 -0.672428 4.13094 56.4461
6800472 9.86528 10.6641 19.2148 16.8096 -0.710092 4.1098 56.5539
6800483 9.86528 10.6641 19.2148 16.8096 -0.710092 4.1098 56.5539
6800495 9.81244 10.6549 19.1262 16.8096 -0.653379 4.11373 56.4032
6800504 9.81244 10.6549 19.1262 16.8096 -0.653379 4.11373 56.4032
6800512 9.83005 10.7194 19.1754 16.8382 -0.639959 4.10096 56.5631
6800526 9.85648 10.6733 19.1558 16.8858 -0.64216 4.11296 56.5714
6800532 9.85648 10.6733 19.1558 16.8858 -0.64216 4.11296 56.5714
6800542 9.84767 10.6549 19.1656 16.8287 -0.676887 4.11306 56.4969
6800553 9.82124 10.6826 19.1262 16.8287 -0.635973 4.10506 56.4587
6800563 9.82124 10.6826 19.1262 16.8287 -0.635973 4.10506 56.4587
6800573 9.83005 10.701 19.1164 16.8382 -0.622849 4.09579 56.4856
6800588 9.83005 10.701 19.1164 16.8382 -0.622849 4.09579 56.4856
6800593 9.80363 10.6549 19.1065 16.8763 -0.610803 4.12576 56.4414
6800603 9.79482 10.6365 19.1164 16.9239 -0.598019 4.14604 56.4716
6800613 9.79482 10.6365 19.1164 16.9239 -0.598019 4.14604 56.4716
6800623 9.81244 10.6457 19.0672 16.8572 -0.61041 4.11463 56.3825
6800633 9.81244 10.6826 19.0672 16.9334 -0.559191 4.11684 56.4955
6800643 9.81244 10.6826 19.0672 16.9334 -0.559191 4.11684 56.4955
6800655 9.86528 10.6733 19.0278 16.9429 -0.564882 4.09633 56.5093
6800663 9.86528 10.6733 19.0278 16.9429 -0.564882 4.09633 56.5093
6800673 9.79482 10.6365 19.0376 16.9334 -0.559631 4.13272 56.4023
6800683 9.79482 10.6457 19.018 16.9714 -0.529684 4.13314 56.4299
6800694 9.79482 10.6457 19.018 16.9714 -0.529684 4.13314 56.4299
6800703 9.84767 10.6733 18.9884 16.981 -0.522998 4.10203 56.4904
6800713 9.78601 10.7194 18.9884 16.9619 -0.484055 4.10364 56.4557
6800724 9.78601 10.7194 18.9884 16.9619 -0.484055 4.10364 56.4557
6800734 9.85648 10.6918 18.9687 17.0097 -0.496979 4.09459 56.5267
6800743 9.85648 10.6918 18.9687 17.0097 -0.496979 4.09459 56.5267
6800755 9.83886 10.747 18.9392 16.9905 -0.460297 4.07246 56.5156
6800763 9.83886 10.7562 18.8998 16.9714 -0.447617 4.05804 56.4664
6800776 9.83886 10.7562 18.8998 16.9714 -0.447617 4.05804 56.4664
6800785 9.85648 10.8207 18.8998 17.0487 -0.391562 4.04535 56.6257
6800795 9.85648 10.7746 18.8703 17.0487 -0.399387 4.05513 56.5501
6800806 9.85648 10.7746 18.8703 17.0487 -0.399387 4.05513 56.5501
6800815 9.8829 10.8207 18.89 17.0292 -0.407507 4.03078 56.6228
6800825 9.8829 10.8207 18.89 17.0292 -0.407507 4.03078 56.6228
6800835 9.87409 10.8207 18.8506 16.9714 -0.412516 4.01489 56.5168
6800845 9.97979 10.8667 18.8506 16.9524 -0.446276 3.96027 56.6495
6800856 9.97979 10.8667 18.8506 16.9524 -0.446276 3.96027 56.6495
6800865 9.91813 10.9036 18.6931 16.9239 -0.347197 3.93221 56.4387
6800875 9.97098 10.9128 18.6833 16.8953 -0.374663 3.90387 56.4623
6800885 9.97098 10.9128 18.6833 16.8953 -0.374663 3.90387 56.4623
6800895 9.9886 10.9036 18.6537 16.9048 -0.369324 3.89712 56.4507
6800904 9.9886 10.9036 18.6537 16.9048 -0.369324 3.89712 56.4507
6800915 9.96218 10.9588 18.6734 16.8382 -0.371498 3.87824 56.4326
6800926 9.96218 10.9496 18.6636 16.8763 -0.354229 3.88688 56.4516
6800948 9.94456 10.9404 18.634 16.8382 -0.354885 3.88254 56.3572
6800956 9.95337 11.1154 18.6242 16.762 -0.310047 3.80413 56.455
6800966 9.95337 11.1154 18.6242 16.762 -0.310047 3.80413 56.455
6800976 9.91813 11.0785 18.6734 16.8191 -0.307076 3.8492 56.4893
6800988 9.91813 11.0785 18.6734 16.8191 -0.307076 3.8492 56.4893
6800997 9.82124 11.0601 18.7128 16.8667 -0.268844 3.90487 56.4609
6801007 9.82124 11.0417 18.8408 16.8477 -0.341544 3.9324 56.5514
6801016 9.82124 11.0417 18.8408 16.8477 -0.341544 3.9324 56.5514
6801027 9.80363 10.9865 18.8801 16.9239 -0.34167 3.97937 56.5941
6801036 9.80363 10.9865 18.8801 16.9239 -0.34167 3.97937 56.5941
6801046 9.75078 10.8759 18.9687 17.0195 -0.363894 4.06999 56.6149
6801055 9.62746 10.8391 19.0573 17.0682 -0.343457 4.15048 56.5921
6801067 9.62746 10.8391 19.0573 17.0682 -0.343457 4.15048 56.5921
6801076 9.53057 10.7839 19.205 17.1559 -0.351042 4.24694 56.6753
6801087 9.38964 10.6365 19.3133 17.2923 -0.341734 4.39137 56.6317
6801096 9.38964 10.6365 19.3133 17.2923 -0.341734 4.39137 56.6317
6801110 9.20466 10.6181 19.5692 17.2728 -0.389567 4.50524 56.6647
6801116 9.20466 10.6181 19.5692 17.2728 -0.389567 4.50524 56.6647
6801126 9.0285 10.4892 19.8743 17.4092 -0.442116 4.69159 56.8012
6801136 8.97565 10.4247 19.9137 17.3994 -0.469571 4.73771 56.7135
6801146 8.97565 10.4247 19.9137 17.3994 -0.469571 4.73771 56.7135
6801156 8.86995 10.3694 19.894 17.3312 -0.470781 4.778 56.4647
6801166 8.88756 10.3787 19.8842 17.2728 -0.496393 4.75622 56.4232
6801180 8.88756 10.3787 19.8842 17.2728 -0.496393 4.75622 56.4232
6801187 8.91399 10.4247 19.8743 17.2825 -0.478406 4.73086 56.4956
6801207 8.88756 10.4063 19.8842 17.302 -0.470726 4.75186 56.48
6801218 8.90518 10.4247 19.9925 17.3799 -0.48191 4.77296 56.7023
6801230 8.90518 10.4247 19.9925 17.3799 -0.48191 4.77296 56.7023
6801241 8.87876 10.3602 19.9728 17.3605 -0.499736 4.79765 56.5722
6801250 8.9228 10.4063 20.0318 17.3994 -0.506048 4.78385 56.7604
6801259 8.9228 10.4063 20.0318 17.3994 -0.506048 4.78385 56.7604
6801270 8.84352 10.4247 20.0122 17.4384 -0.437504 4.80855 56.7188
6801280 8.8171 10.351 20.1106 17.4871 -0.479849 4.86989 56.7658
6801293 8.8171 10.351 20.1106 17.4871 -0.479849 4.86989 56.7658
6801300 8.80829 10.3418 20.0909 17.6138 -0.414929 4.89525 56.8548
6801310 8.80829 10.3418 20.0909 17.6138 -0.414929 4.89525 56.8548
6801320 8.67617 10.2405 20.0515 17.643 -0.372808 4.97547 56.6112
6801330 8.67617 10.1945 20.0614 17.5748 -0.428393 4.9814 56.5068
6801340 8.67617 10.1945 20.0614 17.5748 -0.428393 4.9814 56.5068
6801350 8.67617 10.1945 20.1303 17.7112 -0.397095 5.01766 56.7121
6801362 8.57047 10.0932 20.0614 17.7794 -0.335948 5.09087 56.5044
6801370 8.57047 10.0932 20.0614 17.7794 -0.335948 5.09087 56.5044
6801380 8.57047 10.1392 20.1008 17.7696 -0.336856 5.07971 56.5801
6801400 8.58808 10.1208 20.0909 17.8378 -0.317973 5.09022 56.6376
6801413 8.63212 10.1853 20.0909 17.8963 -0.282325 5.06204 56.8046
6801421 8.63212 10.1853 20.0909 17.8963 -0.282325 5.06204 56.8046
6801432 8.68497 10.1484 20.0318 17.8963 -0.296026 5.04604 56.7615
6801441 8.66736 10.1761 19.9925 17.8086 -0.297987 5.02017 56.6445
6801451 8.66736 10.1761 19.9925 17.8086 -0.297987 5.02017 56.6445
6801461 8.70259 10.2129 19.9728 17.867 -0.262283 5.00156 56.7553
6801472 8.70259 10.2129 19.9728 17.867 -0.262283 5.00156 56.7553
6801481 8.69378 10.2866 19.9531 17.7599 -0.264773 4.9563 56.6933
6801491 8.70259 10.305 19.7858 17.7501 -0.191543 4.91524 56.5435
6801501 8.70259 10.305 19.7858 17.7501 -0.191543 4.91524 56.5435
6801513 8.79067 10.2958 19.6873 17.604 -0.256398 4.84363 56.3778
6801521 8.82591 10.3971 19.5987 17.5261 -0.222497 4.76553 56.3478
6801534 8.82591 10.3971 19.5987 17.5261 -0.222497 4.76553 56.3478
6801541 8.90518 10.4707 19.5003 17.5943 -0.150722 4.70652 56.4705
6801551 8.90518 10.4707 19.5003 17.5943 -0.150722 4.70652 56.4705
6801561 8.93161 10.5536 19.5495 17.5066 -0.186102 4.66142 56.5413
6801571 8.98446 10.572 19.5003 17.4774 -0.19251 4.62229 56.5342
6801582 8.98446 10.572 19.5003 17.4774 -0.19251 4.62229 56.5342
6801592 9.06373 10.6733 19.4019 17.3605 -0.191054 4.52002 56.4994
6801602 9.12539 10.7931 19.3723 17.302 -0.177866 4.44117 56.5928
6801622 9.28394 10.8667 19.2247 17.263 -0.167215 4.32667 56.6384
6801634 9.28394 10.8667 19.2247 17.263 -0.167215 4.32667 56.6384
6801642 9.30155 11.0693 19.1754 17.1072 -0.132604 4.2129 56.6535
6801653 9.36321 11.0693 19.1361 17.0195 -0.181341 4.16775 56.5881
6801662 9.36321 11.0693 19.1361 17.0195 -0.181341 4.16775 56.5881
6801672 9.40725 11.2351 18.9786 16.8477 -0.134157 4.03337 56.4686
6801684 9.4601 11.318 18.9786 16.6764 -0.196834 3.95429 56.433
6801702 9.45129 11.3824 18.9983 16.7049 -0.160153 3.94506 56.5369
6801713 9.45129 11.3824 18.9983 16.7049 -0.160153 3.94506 56.5369
6801732 9.50414 11.4009 18.9786 16.5431 -0.238688 3.88558 56.4267
6801733 9.53057 11.4285 19.0475 16.486 -0.293645 3.86983 56.4925
6801743 9.53057 11.4285 19.0475 16.486 -0.293645 3.86983 56.4925
6801754 9.5658 11.4285 19.1164 16.6097 -0.283827 3.89591 56.7204
6801764 9.42487 11.3272 19.1361 16.6002 -0.280379 3.97894 56.4884
6801774 9.42487 11.3272 19.1361 16.6002 -0.280379 3.97894 56.4884
6801783 9.44249 11.3364 19.2148 16.6288 -0.305589 3.99083 56.6225
6801794 9.44249 11.3364 19.2148 16.6288 -0.305589 3.99083 56.6225
6801805 9.41606 11.2167 19.3034 16.6478 -0.377749 4.06082 56.584
6801815 9.37202 11.1522 19.3822 16.8191 -0.345002 4.14551 56.7256
6801826 9.37202 11.1522 19.3822 16.8191 -0.345002 4.14551 56.7256
6801838 9.3456 11.0509 19.3822 16.9143 -0.336245 4.20686 56.693
6801844 9.21347 11.0141 19.5101 17.039 -0.295256 4.31204 56.7767
6801854 9.21347 11.0141 19.5101 17.039 -0.295256 4.31204 56.7767
6801870 9.1342 10.9036 19.5298 17.1266 -0.279479 4.39693 56.6942
6801887 9.09896 10.7286 19.5692 17.2533 -0.302848 4.49998 56.6501
6801897 8.96684 10.5905 19.6676 17.3702 -0.297643 4.63305 56.5951
6801905 8.96684 10.5905 19.6676 17.3702 -0.297643 4.63305 56.5951
6801915 8.95803 10.526 19.6676 17.4774 -0.274727 4.67807 56.629
6801925 8.85233 10.4247 19.7956 17.5748 -0.286174 4.79104 56.6474
6801945 8.79948 10.3694 19.8842 17.6917 -0.274269 4.86572 56.7448
6801958 8.79948 10.3694 19.8842 17.6917 -0.274269 4.86572 56.7448
6801966 8.73782 10.2774 19.9531 17.7989 -0.270717 4.95096 56.7671
6801978 8.68497 10.1853 20.0023 17.9255 -0.253759 5.03298 56.7981
6801986 8.68497 10.1853 20.0023 17.9255 -0.253759 5.03298 56.7981
6802001 8.66736 10.1392 20.0909 18.1009 -0.227278 5.10151 56.9983
6802006 8.57927 9.97346 20.1008 18.1593 -0.240816 5.20323 56.8128
6802016 8.57927 9.97346 20.1008 18.1593 -0.240816 5.20323 56.8128
6802026 8.58808 9.98267 20.2287 18.2178 -0.270256 5.22888 57.0172
6802036 8.58808 9.98267 20.2287 18.2178 -0.270256 5.22888 57.0172
6802046 8.45596 9.87216 20.2386 18.3152 -0.222909 5.33359 56.8819
6802056 8.45596 9.84453 20.2484 18.3444 -0.226489 5.3501 56.8933
6802066 8.45596 9.84453 20.2484 18.3444 -0.226489 5.3501 56.8933
6802076 8.42073 9.82611 20.1204 18.2665 -0.198019 5.3343 56.6338
6802096 8.34145 9.76165 20.1992 18.286 -0.217816 5.40273 56.5882
6802106 8.36788 9.75244 20.2287 18.3152 -0.23338 5.40648 56.6642
6802117 8.36788 9.75244 20.2287 18.3152 -0.23338 5.40648 56.6642
6802127 8.36788 9.66035 20.15 18.2957 -0.248696 5.42307 56.4739
6802138 8.32383 9.7156 20.2287 18.3542 -0.213169 5.44223 56.6223
6802157 8.35907 9.7156 20.2878 18.4516 -0.21107 5.45588 56.814
6802167 8.31503 9.65114 20.3075 18.5295 -0.194465 5.51135 56.8031
6802179 8.31503 9.65114 20.3075 18.5295 -0.194465 5.51135 56.8031
6802187 8.29741 9.62351 20.3961 18.549 -0.229032 5.54571 56.866
6802197 8.29741 9.62351 20.3961 18.549 -0.229032 5.54571 56.866
6802207 8.29741 9.6143 20.3567 18.588 -0.198671 5.54897 56.8564
6802222 8.27098 9.62351 20.4256 18.588 -0.21311 5.56663 56.9081
6802237 8.31503 9.64193 20.3665 18.5782 -0.20272 5.53265 56.9017
6802250 8.22694 9.59588 20.3173 18.5685 -0.167477 5.57137 56.7086
6802258 8.22694 9.59588 20.3173 18.5685 -0.167477 5.57137 56.7086
6802269 8.25337 9.6143 20.4354 18.588 -0.2138 5.57796 56.8911
6802279 8.25337 9.6143 20.4354 18.588 -0.2138 5.57796 56.8911
6802294 8.21813 9.57747 20.4354 18.5782 -0.219102 5.60245 56.8093
6802298 8.19171 9.55905 20.4945 18.6659 -0.202622 5.64291 56.9112
6802308 8.19171 9.55905 20.4945 18.6659 -0.202622 5.64291 56.9112
6802321 8.1829 9.52221 20.4847 18.6172 -0.232434 5.64985 56.807
6802328 8.23575 9.49458 20.5043 18.6659 -0.254658 5.65194 56.9006
6802339 8.23575 9.49458 20.5043 18.6659 -0.254658 5.65194 56.9006
6802348 8.12124 9.44854 20.5634 18.7341 -0.220695 5.73117 56.8673
6802368 8.0772 9.42091 20.6323 18.7146 -0.252438 5.76536 56.845
6802378 8.09482 9.3104 20.7012 18.8705 -0.269911 5.83565 56.9769
6802388 8.09482 9.3104 20.7012 18.8705 -0.269911 5.83565 56.9769
6802398 8.04197 9.30119 20.839 18.9095 -0.293541 5.88667 57.0916
6802408 8.04197 9.30119 20.8981 18.9095 -0.319073 5.89609 57.1507
6802421 7.96269 9.19989 20.8981 18.9971 -0.290826 5.97621 57.0578
6802430 7.89223 9.11701 21.0162 19.0653 -0.317959 6.062 57.0908
6802446 7.89223 9.11701 21.0162 19.0653 -0.317959 6.062 57.0908
6802450 7.7513 9.03413 21.0753 19.153 -0.280386 6.16769 57.0137
6802460 7.67202 8.97887 21.1737 19.1335 -0.321876 6.22993 56.9581
6802470 7.67202 8.97887 21.1737 19.1335 -0.321876 6.22993 56.9581
6802480 7.61917 8.97887 21.1934 19.114 -0.316162 6.24968 56.9055
6802494 7.61917 8.97887 21.1934 19.114 -0.316162 6.24968 56.9055
6802508 7.5487 8.87757 21.2525 19.0361 -0.391206 6.31112 56.7148
6802510 7.57513 8.86836 21.1737 19.0361 -0.372605 6.29257 56.6533
6802525 7.57513 8.86836 21.1737 19.0361 -0.372605 6.29257 56.6533
6802531 7.58394 8.86836 21.1442 18.9289 -0.411679 6.26819 56.5254
6802543 7.68964 8.87757 21.1836 18.9192 -0.474866 6.22963 56.67
6802551 7.68964 8.87757 21.1836 18.9192 -0.474866 6.22963 56.67
6802561 7.7513 8.92362 21.1147 18.8413 -0.486074 6.16651 56.6308
6802571 7.7601 8.98808 21.2229 18.9387 -0.464009 6.17119 56.9098
6802591 7.83057 8.99729 21.2525 18.9192 -0.511646 6.14316 56.9995
6802602 7.83057 8.99729 21.2525 18.9192 -0.511646 6.14316 56.9995
6802612 7.85699 8.91441 21.282 18.9192 -0.572811 6.1687 56.9726
6802622 7.85699 8.98808 21.3509 18.9874 -0.538801 6.1626 57.1834
6802635 7.85699 8.98808 21.3509 18.9874 -0.538801 6.1626 57.1834
6802642 7.85699 8.99729 21.3214 18.851 -0.58309 6.13347 57.0267
6802652 7.81295 8.97887 21.3017 18.8607 -0.559665 6.1551 56.9543
6802662 7.81295 8.97887 21.3017 18.8607 -0.559665 6.1551 56.9543
6802672 7.90104 8.92362 21.3115 18.7925 -0.657134 6.13383 56.9287
6802682 7.90104 8.92362 21.3115 18.7925 -0.657134 6.13383 56.9287
6802692 7.83938 8.92362 21.2229 18.7438 -0.614691 6.13534 56.7298
6802702 7.84819 8.87757 21.2131 18.6854 -0.661515 6.13855 56.6242
6802715 7.84819 8.87757 21.2131 18.6854 -0.661515 6.13855 56.6242
6802722 7.87461 8.95125 21.1934 18.7438 -0.604673 6.10733 56.7631
6802732 7.80414 8.9052 21.2623 18.6951 -0.646815 6.15389 56.6668
6802743 7.80414 8.9052 21.2623 18.6951 -0.646815 6.15389 56.6668
6802758 7.83938 8.94204 21.2918 18.7438 -0.635962 6.13924 56.8171
6802763 7.83938 8.94204 21.2918 18.7438 -0.635962 6.13924 56.8171
6802773 7.81295 8.88678 21.3115 18.6562 -0.697728 6.15908 56.6674
6802783 7.84819 8.95125 21.3017 18.6464 -0.683819 6.11886 56.7475
6802804 7.90104 8.94204 21.3115 18.6367 -0.719233 6.10264 56.7913
6802813 7.91865 9.01571 21.2426 18.6367 -0.663961 6.05795 56.8137
6802825 7.91865 9.01571 21.2426 18.6367 -0.663961 6.05795 56.8137
6802833 8.01554 9.06176 21.1836 18.6269 -0.663768 5.99422 56.8878
6802843 8.01554 9.06176 21.1836 18.6269 -0.663768 5.99422 56.8878
6802854 8.01554 9.06176 21.1147 18.5295 -0.678281 5.96781 56.7215
6802863 8.11244 9.15385 21.0359 18.5295 -0.644438 5.88557 56.8317
6802875 8.11244 9.15385 21.0359 18.5295 -0.644438 5.88557 56.8317
6802885 8.17409 9.25515 20.8784 18.3639 -0.632352 5.77355 56.6715
6802896 8.22694 9.32882 20.8784 18.2665 -0.6658 5.71134 56.7006
6802916 8.35907 9.37486 20.7898 18.208 -0.690085 5.62222 56.7318
6802925 8.35907 9.37486 20.7898 18.208 -0.690085 5.62222 56.7318
6802939 8.40311 9.50379 20.7209 18.0814 -0.678393 5.52698 56.7092
6802947 8.45596 9.56826 20.6717 18.0229 -0.677229 5.46654 56.7188
6802955 8.45596 9.56826 20.6717 18.0229 -0.677229 5.46654 56.7188
6802966 8.56166 9.66956 20.6323 17.8865 -0.721534 5.36236 56.7501
6802976 8.58808 9.72481 20.5732 17.8378 -0.704594 5.31473 56.724
6802996 8.64093 9.78927 20.4847 17.8086 -0.673318 5.2526 56.7235
6803008 8.64093 9.78927 20.4847 17.8086 -0.673318 5.2526 56.7235
6803016 8.65855 9.78927 20.4847 17.7209 -0.720616 5.23122 56.6534
6803029 8.75544 9.82611 20.4551 17.7307 -0.728321 5.18015 56.7673
6803036 8.75544 9.82611 20.4551 17.7307 -0.728321 5.18015 56.7673
6803046 8.79948 9.86295 20.3468 17.643 -0.723888 5.11738 56.6523
6803057 8.82591 9.77086 20.3567 17.6819 -0.763564 5.14922 56.6354
6803067 8.82591 9.77086 20.3567 17.6819 -0.763564 5.14922 56.6354
6803077 8.82591 9.77086 20.3764 17.7112 -0.758699 5.15772 56.6843
6803087 8.82591 9.77086 20.3764 17.7112 -0.758699 5.15772 56.6843
6803097 8.8171 9.83532 20.337 17.8378 -0.651518 5.15309 56.8272
6803107 8.8171 9.79848 20.4059 17.8086 -0.71086 5.17303 56.8301
6803133 8.82591 9.74323 20.3567 17.7599 -0.740696 5.17258 56.6857
6803143 8.87876 9.74323 20.3075 17.8086 -0.720154 5.15371 56.7381
6803151 8.87876 9.74323 20.3075 17.8086 -0.720154 5.15371 56.7381
6803160 8.85233 9.72481 20.3075 17.6917 -0.770332 5.14934 56.5763
6803168 8.85233 9.72481 20.3075 17.6917 -0.770332 5.14934 56.5763
6803178 8.88756 9.77086 20.4158 17.7307 -0.79298 5.14604 56.8048
6803189 8.89637 9.78006 20.3173 17.7989 -0.719622 5.1344 56.7926
6803211 8.9228 9.72481 20.2779 17.7501 -0.761254 5.12931 56.6757
6803218 8.9228 9.77086 20.3961 17.7209 -0.804025 5.12844 56.8106
6803238 8.94041 9.75244 20.3075 17.7501 -0.768851 5.1184 56.7505
6803248 8.9228 9.75244 20.3665 17.7501 -0.786532 5.13492 56.7919
6803258 8.9228 9.67877 20.3665 17.7209 -0.83334 5.156 56.689
6803270 8.94041 9.69718 20.3468 17.7989 -0.788622 5.1533 56.7833
6803288 8.95803 9.72481 20.3272 17.7112 -0.81504 5.11859 56.7212
6803301 8.88756 9.65114 20.3272 17.7696 -0.791888 5.17999 56.6355
6803310 8.88756 9.65114 20.3272 17.7696 -0.791888 5.17999 56.6355
6803324 8.85233 9.68797 20.3567 17.6819 -0.812624 5.16932 56.5789
6803330 8.85233 9.68797 20.3567 17.6819 -0.812624 5.16932 56.5789
6803340 8.86995 9.66035 20.3075 17.6819 -0.811718 5.16434 56.5197
6803350 8.90518 9.65114 20.4354 17.8183 -0.823419 5.20087 56.8101
6803361 8.90518 9.65114 20.4354 17.8183 -0.823419 5.20087 56.8101
6803372 8.82591 9.66956 20.3567 17.7307 -0.787508 5.19377 56.5828
6803380 8.86114 9.65114 20.4158 17.8086 -0.8007 5.21147 56.7366
6803395 8.86114 9.65114 20.4158 17.8086 -0.8007 5.21147 56.7366
6803401 8.83471 9.60509 20.4748 17.7599 -0.85777 5.2391 56.6745
6803411 8.79948 9.65114 20.4551 17.7501 -0.8178 5.23017 56.6559
6803422 8.79948 9.65114 20.4551 17.7501 -0.8178 5.23017 56.6559
6803431 8.88756 9.63272 20.5142 17.8378 -0.848924 5.23059 56.8723
6803443 8.88756 9.63272 20.5142 17.8378 -0.848924 5.23059 56.8723
6803451 8.83471 9.60509 20.4847 17.8281 -0.830884 5.25252 56.7525
6803467 8.79948 9.63272 20.4945 17.7794 -0.82967 5.24856 56.7061
6803472 8.79948 9.63272 20.4945 17.7794 -0.82967 5.24856 56.7061
6803481 8.83471 9.58667 20.5043 17.8086 -0.856532 5.25913 56.7343
6803491 8.76425 9.56826 20.5339 17.7794 -0.860831 5.29097 56.6457
6803501 8.76425 9.56826 20.5339 17.7794 -0.860831 5.29097 56.6457
6803516 8.77306 9.58667 20.5142 17.8768 -0.803417 5.29454 56.7507
6803521 8.77306 9.58667 20.5142 17.8768 -0.803417 5.29454 56.7507
6803531 8.75544 9.53142 20.5142 17.7599 -0.874422 5.30062 56.5609
6803541 8.70259 9.55905 20.5634 17.7794 -0.851338 5.32144 56.6044
6803564 8.75544 9.60509 20.5437 17.8086 -0.831147 5.28763 56.7128
6803575 8.75544 9.60509 20.4748 17.8086 -0.801745 5.27582 56.6439
6803587 8.75544 9.59588 20.4748 17.7307 -0.841503 5.26572 56.5568
6803592 8.77306 9.55905 20.5732 17.8086 -0.872211 5.30286 56.7139
6803602 8.77306 9.55905 20.5732 17.8086 -0.872211 5.30286 56.7139
6803613 8.77306 9.54984 20.5634 17.7501 -0.898927 5.29447 56.6364
6803622 8.75544 9.56826 20.5634 17.7891 -0.865211 5.30085 56.6762
6803634 8.75544 9.56826 20.5634 17.7891 -0.865211 5.30085 56.6762
6803642 8.80829 9.59588 20.5437 17.7989 -0.862284 5.27036 56.7467
6803658 8.86114 9.57747 20.4748 17.7599 -0.881632 5.23953 56.6733
6803662 8.86114 9.57747 20.4748 17.7599 -0.881632 5.23953 56.6733
6803673 8.82591 9.55905 20.4847 17.7501 -0.883691 5.25872 56.6198
6803684 8.82591 9.55905 20.4847 17.7501 -0.883691 5.25872 56.6198
6803694 8.82591 9.62351 20.4059 17.7696 -0.811778 5.22547 56.625
6803706 8.89637 9.66956 20.3567 17.7307 -0.817625 5.16866 56.6533
6803713 8.89637 9.66956 20.3567 17.7307 -0.817625 5.16866 56.6533
6803729 8.83471 9.73402 20.337 17.6917 -0.771238 5.15747 56.5974
6803733 8.83471 9.73402 20.337 17.6917 -0.771238 5.15747 56.5974
6803744 8.89637 9.69718 20.3567 17.7112 -0.813915 5.15544 56.6614
6803754 8.94041 9.77086 20.337 17.7404 -0.777514 5.11531 56.7887
6803782 9.00207 9.78927 20.2878 17.7014 -0.79215 5.0716 56.7806
6803783 8.99326 9.82611 20.2484 17.6527 -0.776984 5.04626 56.7205
6803793 8.99326 9.82611 20.2484 17.6527 -0.776984 5.04626 56.7205
6803803 9.0285 9.78927 20.1992 17.604 -0.809947 5.02961 56.621
6803814 9.0285 9.78927 20.1992 17.604 -0.809947 5.02961 56.621
6803827 9.01969 9.82611 20.1795 17.6332 -0.767687 5.02138 56.6585
6803833 9.03731 9.87216 20.1598 17.604 -0.759155 4.99028 56.6733
6803853 9.06373 9.83532 20.0614 17.5456 -0.771701 4.96617 56.506
6803865 9.09016 9.86295 20.0811 17.5358 -0.783305 4.94886 56.57
6803875 9.09016 9.86295 20.0811 17.5358 -0.783305 4.94886 56.57
6803885 9.07254 9.88136 20.0417 17.5358 -0.75049 4.94157 56.5314
6803895 9.07254 9.88136 20.0417 17.5358 -0.75049 4.94157 56.5314
6803905 9.08135 9.87216 20.0023 17.4871 -0.76378 4.92602 56.4429
6803916 9.1342 9.96425 20.0023 17.5066 -0.735629 4.87846 56.6074
6803925 9.1342 9.96425 20.0023 17.5066 -0.735629 4.87846 56.6074
6803935 9.12539 9.98267 19.9334 17.5358 -0.680625 4.86799 56.5773
6803945 9.19586 10.0379 19.8842 17.5358 -0.664699 4.8151 56.6538
6803957 9.19586 10.0379 19.8842 17.5358 -0.664699 4.8151 56.6538
6803965 9.18705 9.94583 19.8842 17.4579 -0.738171 4.83644 56.4749
6803985 9.14301 10.0011 19.9137 17.4481 -0.711213 4.83607 56.506
6803996 9.15181 10.0471 19.9236 17.5261 -0.662936 4.83261 56.6486
6804005 9.15181 10.0471 19.9236 17.5261 -0.662936 4.83261 56.6486
6804014 9.25751 10.0655 19.9334 17.4774 -0.726202 4.78226 56.7338
6804025 9.22228 10.0471 19.9433 17.4871 -0.71927 4.8045 56.6998
6804035 9.22228 10.0471 19.9433 17.4871 -0.71927 4.8045 56.6998
6804045 9.23109 10.0563 19.9334 17.4481 -0.732335 4.78942 56.669
6804065 9.22228 10.0748 19.835 17.4481 -0.677958 4.7683 56.5801
6804082 9.27513 10.1116 19.8251 17.4774 -0.666487 4.74052 56.6892
6804096 9.26632 10.1024 19.7562 17.3507 -0.694747 4.7113 56.4756
6804107 9.2487 10.1208 19.8054 17.3799 -0.686681 4.72529 56.5549
6804116 9.2487 10.1208 19.8054 17.3799 -0.686681 4.72529 56.5549
6804132 9.2399 10.1945 19.7661 17.4287 -0.610481 4.70439 56.6291
6804146 9.2487 10.0932 19.7562 17.4481 -0.647089 4.73837 56.5462
6804157 9.28394 10.1761 19.7759 17.4676 -0.624375 4.70435 56.7035
6804167 9.28394 10.1761 19.7759 17.4676 -0.624375 4.70435 56.7035
6804181 9.26632 10.1668 19.8251 17.4092 -0.668566 4.712 56.6675
6804187 9.28394 10.1668 19.7858 17.3312 -0.694571 4.68452 56.5678
6804197 9.28394 10.1668 19.7858 17.3312 -0.694571 4.68452 56.5678
6804209 9.31036 10.2221 19.7267 17.3507 -0.646634 4.64891 56.6099
6804218 9.26632 10.2037 19.7562 17.4189 -0.61786 4.68843 56.6451
6804230 9.26632 10.2037 19.7562 17.4189 -0.61786 4.68843 56.6451
6804238 9.25751 10.2129 19.6972 17.4774 -0.558046 4.68818 56.6449
6804253 9.25751 10.2129 19.6972 17.4774 -0.558046 4.68818 56.6449
6804258 9.27513 10.1853 19.6873 17.4092 -0.604707 4.67744 56.5569
6804268 9.25751 10.2037 19.7365 17.4384 -0.596781 4.69146 56.6361
6804278 9.25751 10.2037 19.7365 17.4384 -0.596781 4.69146 56.6361
6804289 9.31917 10.2313 19.6972 17.4481 -0.589499 4.65506 56.6958
6804298 9.31917 10.2313 19.6972 17.4481 -0.589499 4.65506 56.6958
6804310 9.31036 10.2313 19.6775 17.5066 -0.550869 4.66518 56.7257
6804318 9.28394 10.1853 19.7661 17.4871 -0.607184 4.7029 56.7224
6804328 9.28394 10.1853 19.7661 17.4871 -0.607184 4.7029 56.7224
6804338 9.37202 10.2589 19.835 17.5553 -0.610632 4.67176 57.0212
6804348 9.38964 10.2221 19.8743 17.5358 -0.660302 4.682 57.0219
6804370 9.37202 10.351 19.9433 17.604 -0.59378 4.66844 57.2703
6804383 9.36321 10.2681 19.7169 17.565 -0.547707 4.65196 56.9133
6804390 9.36321 10.2681 19.7169 17.565 -0.547707 4.65196 56.9133
6804400 9.3456 10.2866 19.5889 17.5456 -0.485477 4.6248 56.7666
6804417 9.3456 10.2866 19.5889 17.5456 -0.485477 4.6248 56.7666
6804426 9.28394 10.2037 19.5397 17.5845 -0.457233 4.67303 56.6118
6804435 9.23109 10.1853 19.6086 17.7989 -0.3764 4.74917 56.8238
6804451 9.2487 10.1392 19.6775 17.8086 -0.430058 4.77322 56.874
6804461 9.12539 10.0932 19.8251 17.945 -0.400236 4.88296 56.9887
6804481 9.11658 10.0748 19.9433 18.0521 -0.407842 4.93228 57.1867
6804501 9.10777 10.0195 19.9236 18.1203 -0.389835 4.96316 57.1712
6804515 9.09016 10.0195 20.0023 18.2372 -0.36431 5.00353 57.3492
6804522 9.09016 10.0195 20.0023 18.2372 -0.36431 5.00353 57.3492
6804534 9.1342 9.99187 19.9925 18.1885 -0.412799 4.98759 57.3071
6804542 9.11658 10.0379 20.022 18.1691 -0.406139 4.97943 57.3456
6804562 9.10777 10.0011 20.1008 18.3054 -0.39207 5.03277 57.5151
6804578 9.05492 10.0195 20.0909 18.3639 -0.331323 5.05318 57.5292
6804583 9.05492 10.0195 20.0909 18.3639 -0.331323 5.05318 57.5292
6804593 9.10777 9.96425 20.0417 18.3249 -0.374438 5.03875 57.4386
6804603 9.10777 9.96425 20.0417 18.3249 -0.374438 5.03875 57.4386
6804613 9.05492 9.97346 19.8743 18.3054 -0.284211 5.02151 57.2082
6804625 9.08135 10.0195 19.7759 18.286 -0.241327 4.97554 57.1627
6804633 9.08135 10.0195 19.7759 18.286 -0.241327 4.97554 57.1627
6804645 9.09016 10.0932 19.5889 18.2275 -0.157174 4.90346 56.9997
6804655 9.0285 10.13 19.4412 18.0132 -0.144196 4.84763 56.6129
6804667 9.0285 10.13 19.4412 18.0132 -0.144196 4.84763 56.6129
6804675 9.06373 10.1853 19.3723 17.8963 -0.156817 4.78248 56.5176
6804689 9.06373 10.1853 19.3723 17.8963 -0.156817 4.78248 56.5176
6804695 9.09016 10.1116 19.2444 17.8183 -0.179766 4.7617 56.2644
6804705 9.10777 10.2221 19.1656 17.7696 -0.125143 4.6935 56.2651
6804731 9.18705 10.2774 19.1065 17.6625 -0.157279 4.61592 56.2334
6804735 9.18705 10.2774 19.1065 17.6625 -0.157279 4.61592 56.2334
6804745 9.22228 10.305 19.0672 17.5163 -0.208575 4.55962 56.1108
6804755 9.31917 10.3879 19.0081 17.4968 -0.196825 4.48247 56.212
6804775 9.42487 10.48 18.949 17.3117 -0.259149 4.36814 56.1656
6804785 9.51295 10.5628 18.9195 17.263 -0.269559 4.2945 56.2583
6804805 9.65389 10.7378 18.8506 17.0779 -0.30573 4.13799 56.3202
6804825 9.70674 10.8667 18.8014 16.8763 -0.340049 4.0277 56.2511
6804837 9.79482 10.8483 18.762 16.743 -0.429893 3.97036 56.1482
6804846 9.79482 10.8483 18.762 16.743 -0.429893 3.97036 56.1482
6804858 9.8829 10.9588 18.575 16.6669 -0.370967 3.85142 56.0836
6804866 9.97979 10.9128 18.5848 16.5336 -0.499117 3.80975 56.011
6804886 10.0326 10.9772 18.5455 16.4765 -0.501664 3.75109 56.0318
6804897 9.9886 10.8667 18.5651 16.467 -0.545755 3.805 55.8874
6804907 9.9886 10.8667 18.5651 16.467 -0.545755 3.805 55.8874
6804917 10.015 10.9036 18.6242 16.4099 -0.592376 3.78412 55.9527
6804928 10.015 10.9036 18.6242 16.4099 -0.592376 3.78412 55.9527
6804938 9.99741 10.8852 18.5947 16.4003 -0.584576 3.7884 55.8776
6804947 10.0326 10.8483 18.6833 16.4194 -0.646715 3.81049 55.9836
6804957 10.0326 10.8483 18.6833 16.4194 -0.646715 3.81049 55.9836
6804967 10.0415 10.8667 18.7817 16.4289 -0.680485 3.82289 56.1188
6804977 10.0679 10.8575 18.7915 16.4289 -0.700407 3.81908 56.1458
6804989 10.0679 10.8575 18.7915 16.4289 -0.700407 3.81908 56.1458
6804997 10.0238 10.8207 18.762 16.4574 -0.672317 3.84603 56.064
6805018 10.0062 10.8115 18.7817 16.4955 -0.660002 3.86653 56.0949
6805027 9.97098 10.8299 18.7423 16.5622 -0.588742 3.87759 56.1054
6805049 9.97098 10.8299 18.7423 16.5622 -0.588742 3.87759 56.1054
6805050 9.96218 10.7378 18.8211 16.5717 -0.656849 3.92905 56.0927
6805061 9.97979 10.6733 18.9097 16.6288 -0.706217 3.97354 56.1916
6805073 9.97979 10.6733 18.9097 16.6288 -0.706217 3.97354 56.1916
6805082 9.95337 10.6365 18.9983 16.743 -0.697714 4.03455 56.3311
6805104 9.90933 10.6365 19.0573 16.8191 -0.6695 4.07568 56.4223
6805118 9.86528 10.5168 19.1459 16.9143 -0.699864 4.1666 56.4423
6805131 9.83886 10.5076 19.205 17.0292 -0.665878 4.21198 56.5807
6805138 9.7772 10.3971 19.264 17.0195 -0.719425 4.27999 56.4578
6805153 9.7772 10.3971 19.264 17.0195 -0.719425 4.27999 56.4578
6805158 9.75959 10.4339 19.3329 17.0292 -0.720261 4.28834 56.5557
6805168 9.75959 10.4339 19.3329 17.0292 -0.720261 4.28834 56.5557
6805180 9.75078 10.3787 19.3231 17.1656 -0.675406 4.33411 56.6182
6805189 9.69793 10.3787 19.2936 17.0779 -0.679787 4.33007 56.4481
6805200 9.69793 10.3787 19.2936 17.0779 -0.679787 4.33007 56.4481
6805210 9.65389 10.3602 19.3723 17.0877 -0.698677 4.36816 56.4741
6805220 9.65389 10.2866 19.3428 17.0195 -0.750686 4.37505 56.3027
6805230 9.65389 10.2866 19.3428 17.0195 -0.750686 4.37505 56.3027
6805240 9.6715 10.2958 19.392 17.039 -0.766322 4.37878 56.3983
6805262 9.6715 10.2774 19.4806 17.0974 -0.786054 4.41272 56.5269
6805271 9.63627 10.2774 19.52 17.1072 -0.783385 4.43402 56.5408
6805291 9.63627 10.2866 19.6184 17.1754 -0.790228 4.4619 56.7166
6805301 9.6715 10.2313 19.5397 17.1656 -0.801228 4.45232 56.6081
6805312 9.6715 10.2313 19.5397 17.1656 -0.801228 4.45232 56.6081
6805321 9.6715 10.2129 19.5594 17.1266 -0.835824 4.45505 56.5704
6805331 9.6715 10.2129 19.5594 17.1266 -0.835824 4.45505 56.5704
6805341 9.66269 10.2037 19.6086 17.1169 -0.86173 4.4686 56.5919
6805351 9.69793 10.2221 19.6578 17.1266 -0.884834 4.46113 56.7045
6805362 9.69793 10.2221 19.6578 17.1266 -0.884834 4.46113 56.7045
6805374 9.74197 10.2313 19.5397 17.0487 -0.884704 4.40628 56.5617
6805382 9.7772 10.2866 19.4806 16.981 -0.880256 4.35145 56.5253
6805395 9.7772 10.2866 19.4806 16.981 -0.880256 4.35145 56.5253
6805402 9.82124 10.3694 19.4117 16.8763 -0.879639 4.27523 56.4786
6805412 9.82124 10.3694 19.3723 16.8763 -0.862812 4.26775 56.4393
6805422 9.79482 10.4063 19.3723 16.8763 -0.834636 4.26419 56.4497
6805433 9.86528 10.4155 19.3428 16.9239 -0.826176 4.24048 56.5474
6805443 9.86528 10.4155 19.3428 16.9239 -0.826176 4.24048 56.5474
6805454 9.8829 10.3879 19.4412 16.9239 -0.888312 4.26258 56.6358
6805463 9.85648 10.4155 19.392 16.9048 -0.852138 4.24921 56.5688
6805483 9.87409 10.4247 19.392 16.8572 -0.877209 4.23103 56.548
6805493 9.87409 10.4247 19.392 16.8572 -0.877209 4.23103 56.548
6805503 9.8829 10.4063 19.2837 16.9239 -0.812653 4.22637 56.4968
6805515 9.89171 10.4431 19.4019 16.9048 -0.858749 4.22972 56.6415
6805524 9.89171 10.4431 19.4019 16.9048 -0.858749 4.22972 56.6415
6805533 9.90933 10.4984 19.3723 16.8763 -0.841483 4.19394 56.6563
6805544 9.90933 10.4063 19.4117 16.9048 -0.887273 4.23812 56.6321
6805553 9.90933 10.4063 19.4117 16.9048 -0.887273 4.23812 56.6321
6805566 9.86528 10.4063 19.4806 16.9619 -0.871775 4.27697 56.7141
6805573 9.86528 10.4063 19.4806 16.9619 -0.871775 4.27697 56.7141
6805587 9.78601 10.3326 19.3822 16.9239 -0.847019 4.30328 56.4246
6805593 9.7772 10.3234 19.5397 16.9239 -0.91472 4.33921 56.5641
6805603 9.7772 10.3234 19.5397 16.9239 -0.91472 4.33921 56.5641
6805615 9.74197 10.351 19.4117 16.9334 -0.828016 4.31945 56.4381
6805623 9.74197 10.305 19.4806 16.9143 -0.887308 4.34464 56.4419
6805633 9.74197 10.305 19.4806 16.9143 -0.887308 4.34464 56.4419
6805643 9.6715 10.2958 19.4806 16.9429 -0.848296 4.37737 56.3908
6805655 9.6715 10.2958 19.4806 16.9429 -0.848296 4.37737 56.3908
6805663 9.69793 10.2221 19.4412 16.9334 -0.880937 4.38441 56.2946
6805677 9.68912 10.2958 19.5397 16.9048 -0.898555 4.37527 56.4294
6805683 9.68912 10.2958 19.5397 16.9048 -0.898555 4.37527 56.4294
6805710 9.69793 10.2589 19.6381 16.9334 -0.948073 4.40875 56.5283
6805711 9.66269 10.2958 19.6283 16.9143 -0.92071 4.40278 56.5011
6805717 9.66269 10.2958 19.6283 16.9143 -0.92071 4.40278 56.5011
6805725 9.6715 10.3234 19.6479 16.9429 -0.907101 4.39932 56.5857
6805745 9.64508 10.2405 19.6578 16.9239 -0.946784 4.43515 56.4672
6805756 9.66269 10.2774 19.7267 16.8858 -0.984152 4.4222 56.5525
6805767 9.66269 10.2774 19.7267 16.8858 -0.984152 4.4222 56.5525
6805778 9.63627 10.2774 19.6381 16.8572 -0.94834 4.40933 56.409
6805787 9.61865 10.2497 19.6381 16.8763 -0.944778 4.42848 56.3827
6805796 9.61865 10.2497 19.6381 16.8763 -0.944778 4.42848 56.3827
6805810 9.62746 10.2681 19.6873 16.9143 -0.943542 4.43545 56.4973
6805816 9.62746 10.2681 19.6873 16.9143 -0.943542 4.43545 56.4973
6805826 9.59223 10.2497 19.7858 16.9239 -0.974511 4.47406 56.5516
6805836 9.58342 10.2405 19.7759 16.9714 -0.948964 4.48728 56.5713
6805851 9.58342 10.2405 19.7759 16.9714 -0.948964 4.48728 56.5713
6805857 9.50414 10.1668 19.7267 16.9334 -0.945579 4.5239 56.3311
6805867 9.57461 10.1668 19.7464 16.9143 -0.992785 4.49963 56.4022
6805877 9.57461 10.1668 19.7464 16.9143 -0.992785 4.49963 56.4022
6805888 9.48653 10.13 19.7759 16.9714 -0.958495 4.55899 56.3639
6805897 9.48653 10.13 19.7759 16.9714 -0.958495 4.55899 56.3639
6805907 9.43368 10.0379 19.8251 16.981 -0.995034 4.62026 56.2777
6805917 9.46891 9.98267 19.9728 17 -1.08953 4.65788 56.4244
6805927 9.46891 9.98267 19.9728 17 -1.08953 4.65788 56.4244
6805938 9.37202 9.95504 20.0614 17 -1.09879 4.71754 56.3884
6805947 9.3456 9.95504 20.1401 17.0292 -1.10743 4.74643 56.47
6805957 9.3456 9.95504 20.1401 17.0292 -1.10743 4.74643 56.47
6805967 9.31036 9.86295 20.1795 17.0877 -1.12474 4.80875 56.4405
6805977 9.31036 9.86295 20.1795 17.0877 -1.12474 4.80875 56.4405
6805987 9.25751 9.78927 20.337 17.2143 -1.14443 4.90419 56.5981
6805999 9.16943 9.80769 20.3075 17.1948 -1.09525 4.91998 56.4794
6806020 9.11658 9.74323 20.3173 17.1461 -1.12943 4.95452 56.3233
6806028 9.10777 9.65114 20.3567 17.2241 -1.14895 5.01117 56.3397
6806042 9.10777 9.65114 20.3567 17.2241 -1.14895 5.01117 56.3397
6806048 9.07254 9.70639 20.3173 17.1948 -1.10524 4.99188 56.2911
6806058 9.07254 9.70639 20.3173 17.1948 -1.10524 4.99188 56.2911
6806068 9.09016 9.65114 20.2681 17.2143 -1.10842 4.99997 56.2237
6806078 9.09896 9.65114 20.2976 17.2241 -1.12018 5.00382 56.2718
6806091 9.09896 9.65114 20.2976 17.2241 -1.12018 5.00382 56.2718
6806100 9.11658 9.62351 20.2878 17.2046 -1.14536 5.00217 56.2325
6806108 9.09016 9.7156 20.337 17.2923 -1.07171 5.00315 56.435
6806120 9.09016 9.7156 20.337 17.2923 -1.07171 5.00315 56.435
6806130 9.16062 9.75244 20.2779 17.2728 -1.06854 4.95123 56.4638
6806140 9.16062 9.75244 20.2779 17.2728 -1.06854 4.95123 56.4638
6806150 9.11658 9.74323 20.3173 17.2533 -1.07981 4.97359 56.4304
6806160 9.20466 9.73402 20.2583 17.2241 -1.10988 4.92998 56.421
6806170 9.20466 9.73402 20.2583 17.2241 -1.10988 4.92998 56.421
6806180 9.20466 9.74323 20.1598 17.1169 -1.11354 4.88989 56.2246
6806190 9.22228 9.83532 20.1204 17.1656 -1.03906 4.85284 56.3437
6806200 9.22228 9.83532 20.1204 17.1656 -1.03906 4.85284 56.3437
6806210 9.27513 9.86295 20.022 17.1169 -1.02941 4.79792 56.277
6806243 9.30155 9.78927 20.1106 17.2046 -1.07182 4.84639 56.406
6806245 9.3456 9.87216 20.0712 17.2436 -1.0176 4.80175 56.5325
6806251 9.3456 9.87216 20.0712 17.2436 -1.0176 4.80175 56.5325
6806260 9.41606 9.96425 20.0614 17.3507 -0.951923 4.76255 56.7924
6806274 9.42487 10.0011 20.022 17.2533 -0.966686 4.72194 56.7013
6806280 9.42487 10.0011 20.022 17.2533 -0.966686 4.72194 56.7013
6806290 9.45129 10.0195 19.9039 17.2338 -0.928245 4.68134 56.6085
6806310 9.50414 10.0748 19.8448 17.1948 -0.918145 4.62589 56.6186
6806320 9.53057 10.1576 19.8448 17.1948 -0.891496 4.58808 56.7279
6806348 9.53057 10.1576 19.8448 17.1948 -0.891496 4.58808 56.7279
6806350 9.60984 10.2221 19.8251 17.1754 -0.896281 4.53136 56.8324
6806351 9.6715 10.2589 19.7956 17.1559 -0.901996 4.48852 56.8819
6806363 9.6715 10.2589 19.7956 17.1559 -0.901996 4.48852 56.8819
6806371 9.68912 10.2405 19.7858 17.1656 -0.909239 4.48877 56.881
6806381 9.68912 10.2405 19.7858 17.1656 -0.909239 4.48877 56.881
6806391 9.64508 10.305 19.7365 17.1559 -0.844774 4.47087 56.8425
6806401 9.68031 10.2589 19.8547 17.1851 -0.917414 4.50179 56.979
6806412 9.68031 10.2589 19.8547 17.1851 -0.917414 4.50179 56.979
6806421 9.69793 10.2681 19.9629 17.2533 -0.935353 4.52504 57.1823
6806433 9.60984 10.2405 19.9629 17.3215 -0.879839 4.57709 57.1348
6806442 9.60984 10.2405 19.9629 17.3215 -0.879839 4.57709 57.1348
6806453 9.57461 10.2037 19.9433 17.3897 -0.842434 4.61064 57.1112
6806476 9.57461 10.1853 19.8743 17.341 -0.843664 4.59554 56.9752
6806482 9.46891 10.0932 19.9334 17.4287 -0.825879 4.69044 56.9242
6806492 9.46891 10.0932 19.9334 17.4287 -0.825879 4.69044 56.9242
6806502 9.42487 10.0563 19.8743 17.5358 -0.750141 4.72716 56.8914
6806515 9.31036 9.94583 19.9826 17.6332 -0.75341 4.84236 56.8721
6806522 9.31036 9.94583 19.9826 17.6332 -0.75341 4.84236 56.8721
6806532 9.12539 9.85374 20.1893 17.8183 -0.720629 5.00867 56.9868
6806542 9.12539 9.85374 20.1893 17.8183 -0.720629 5.00867 56.9868
6806552 8.9228 9.69718 20.4551 18.0716 -0.703937 5.22517 57.1467
6806564 8.69378 9.54063 20.7406 18.3152 -0.688843 5.45155 57.2902
6806572 8.69378 9.54063 20.7406 18.3152 -0.688843 5.45155 57.2902
6806586 8.49119 9.44854 20.9768 18.4613 -0.678909 5.62022 57.3779
6806592 8.27979 9.31961 21.1639 18.5198 -0.700155 5.78292 57.283
6806612 8.19171 9.19068 21.2918 18.7049 -0.691885 5.91182 57.3791
6806623 8.19171 9.19068 21.2918 18.7049 -0.691885 5.91182 57.3791
6806634 8.04197 9.17226 21.3214 18.6756 -0.662206 5.97333 57.2112
6806643 7.90104 9.09859 21.282 18.6367 -0.635895 6.03999 56.9183
6806653 7.90104 9.09859 21.282 18.6367 -0.635895 6.03999 56.9183
6806663 7.94508 9.09859 21.095 18.5587 -0.60969 5.98177 56.6974
6806673 8.03316 9.11701 21.0753 18.5782 -0.621967 5.9424 56.8037
6806683 8.03316 9.11701 21.0753 18.5782 -0.621967 5.9424 56.8037
6806693 8.08601 9.17226 21.0654 18.6659 -0.576103 5.91504 56.9896
6806703 8.08601 9.17226 21.0654 18.6659 -0.576103 5.91504 56.9896
6806713 8.05078 9.1078 21.0064 18.5685 -0.608489 5.92674 56.7334
6806723 8.09482 9.17226 21.0064 18.588 -0.589575 5.88991 56.8614
6806735 8.09482 9.17226 21.0064 18.588 -0.589575 5.88991 56.8614
6806744 8.10363 9.13543 20.9276 18.5003 -0.615673 5.87349 56.667
6806755 8.10363 9.14464 21.0261 18.5295 -0.640598 5.89062 56.8038
6806776 8.13886 9.18147 20.9768 18.5685 -0.600426 5.8625 56.8657
6806785 8.13886 9.18147 20.9768 18.5685 -0.600426 5.8625 56.8657
6806799 8.19171 9.18147 20.9079 18.6367 -0.562871 5.84301 56.9178
6806805 8.16529 9.2091 20.9375 18.5685 -0.582437 5.83635 56.8803
6806815 8.16529 9.2091 20.9375 18.5685 -0.582437 5.83635 56.8803
6806825 8.25337 9.21831 20.7307 18.3736 -0.615175 5.73548 56.5761
6806835 8.27098 9.22752 20.6815 18.3736 -0.597376 5.71758 56.5537
6806845 8.27098 9.22752 20.6815 18.3736 -0.597376 5.71758 56.5537
6806856 8.30622 9.25515 20.7209 18.3444 -0.630252 5.69624 56.6267
6806866 8.30622 9.25515 20.7209 18.3444 -0.630252 5.69624 56.6267
6806876 8.35026 9.24594 20.652 18.2762 -0.654627 5.66092 56.5244
6806891 8.40311 9.37486 20.6618 18.3444 -0.592449 5.60762 56.7842
6806896 8.40311 9.37486 20.6618 18.3444 -0.592449 5.60762 56.7842
6806906 8.37668 9.35645 20.7307 18.3249 -0.62779 5.63206 56.7888
6806916 8.42073 9.4117 20.7012 18.3347 -0.604719 5.59278 56.8683
6806926 8.42073 9.4117 20.7012 18.3347 -0.604719 5.59278 56.8683
6806938 8.41192 9.38407 20.7504 18.4418 -0.58628 5.63176 56.9883
6806946 8.41192 9.38407 20.7504 18.4418 -0.58628 5.63176 56.9883
6806959 8.35907 9.28277 20.7406 18.4321 -0.609347 5.68451 56.8145
6806966 8.37668 9.22752 20.7701 18.3834 -0.676517 5.69508 56.7577
6806987 8.35907 9.24594 20.7603 18.4321 -0.634411 5.70115 56.7974
6806997 8.38549 9.23673 20.7012 18.4126 -0.633359 5.682 56.736
6807017 8.47358 9.34724 20.652 18.3736 -0.617759 5.59529 56.8464
6807027 8.47358 9.34724 20.652 18.3736 -0.617759 5.59529 56.8464
6807037 8.43834 9.36566 20.5732 18.3542 -0.569253 5.58511 56.7314
6807049 8.51762 9.39328 20.5437 18.2957 -0.604557 5.53173 56.7503
6807057 8.51762 9.39328 20.5437 18.2957 -0.604557 5.53173 56.7503
6807069 8.59689 9.36566 20.5043 18.286 -0.638565 5.50486 56.7528
6807079 8.53523 9.45775 20.5732 18.1885 -0.644085 5.48909 56.7548
6807089 8.53523 9.45775 20.5732 18.1885 -0.644085 5.48909 56.7548
6807099 8.64093 9.47616 20.4551 18.1788 -0.634831 5.42285 56.751
6807108 8.64093 9.47616 20.4551 18.1788 -0.634831 5.42285 56.751
6807118 8.63212 9.55905 20.3665 18.0521 -0.612728 5.35972 56.6098
6807133 8.77306 9.54984 20.2878 18.0229 -0.656891 5.29398 56.6336
6807139 8.77306 9.54984 20.2878 18.0229 -0.656891 5.29398 56.6336
6807150 8.8171 9.65114 20.1204 17.8476 -0.637372 5.18278 56.4362
6807158 8.90518 9.68797 20.0614 17.8281 -0.642012 5.12449 56.4826
6807170 8.90518 9.68797 20.0614 17.8281 -0.642012 5.12449 56.4826
6807183 8.99326 9.85374 19.9826 17.6819 -0.637126 4.99479 56.5116
6807190 9.07254 9.94583 19.8251 17.5553 -0.619048 4.88363 56.3988
6807211 9.22228 10.0379 19.835 17.4384 -0.699116 4.77942 56.5336
6807220 9.22228 10.0379 19.835 17.4384 -0.699116 4.77942 56.5336
6807233 9.29275 10.0655 19.7858 17.4481 -0.691269 4.738 56.5922
6807240 9.37202 10.2037 19.7464 17.3799 -0.676684 4.64286 56.702
6807266 9.43368 10.2866 19.6283 17.3117 -0.64579 4.55869 56.6603
6807271 9.43368 10.3418 19.6086 17.2533 -0.638771 4.5252 56.6374
6807283 9.43368 10.3418 19.6086 17.2533 -0.638771 4.5252 56.6374
6807291 9.53938 10.3694 19.4806 17.1266 -0.674093 4.43195 56.5161
6807311 9.61865 10.3326 19.392 17.1461 -0.677967 4.40442 56.4894
6807321 9.60984 10.4155 19.3723 17.0877 -0.654592 4.36432 56.4853
6807331 9.60984 10.4155 19.3723 17.0877 -0.654592 4.36432 56.4853
6807341 9.60984 10.4063 19.3723 17.0877 -0.658774 4.36748 56.4761
6807351 9.59223 10.3787 19.4117 17.1461 -0.654155 4.40138 56.5287
6807361 9.59223 10.3787 19.4117 17.1461 -0.654155 4.40138 56.5287
6807374 9.63627 10.3971 19.4019 17.1948 -0.638443 4.38725 56.63
6807396 9.5658 10.3787 19.4117 17.2436 -0.598629 4.42868 56.5997
6807401 9.59223 10.305 19.4117 17.2825 -0.625722 4.45218 56.5914
6807412 9.59223 10.305 19.4117 17.2825 -0.625722 4.45218 56.5914
6807422 9.53938 10.3142 19.3133 17.2338 -0.578289 4.43971 56.4006
6807432 9.53057 10.3142 19.3822 17.263 -0.591038 4.46109 56.49
6807442 9.53057 10.3142 19.3822 17.263 -0.591038 4.46109 56.49
6807452 9.49534 10.3694 19.3822 17.3507 -0.511213 4.47053 56.5977
6807472 9.45129 10.2958 19.4314 17.4092 -0.520314 4.53107 56.5876
6807482 9.49534 10.2774 19.4609 17.4287 -0.551622 4.53129 56.6623
6807492 9.49534 10.2774 19.4609 17.4287 -0.551622 4.53129 56.6623
6807502 9.46891 10.2589 19.5003 17.4384 -0.56112 4.55582 56.6665
6807512 9.46891 10.2589 19.5003 17.4384 -0.56112 4.55582 56.6665
6807522 9.4601 10.351 19.4904 17.5261 -0.472239 4.54146 56.8277
6807533 9.43368 10.2037 19.4708 17.5456 -0.509763 4.60137 56.6537
6807542 9.43368 10.2037 19.4708 17.5456 -0.509763 4.60137 56.6537
6807554 9.36321 10.2405 19.4215 17.4871 -0.467652 4.59322 56.5124
6807565 9.37202 10.2681 19.5003 17.5261 -0.475627 4.60224 56.6665
6807577 9.37202 10.2681 19.5003 17.5261 -0.475627 4.60224 56.6665
6807582 9.30155 10.2037 19.5003 17.604 -0.439037 4.66328 56.6095
6807608 9.26632 10.1853 19.579 17.6625 -0.439925 4.7069 56.6931
6807627 9.22228 10.0655 19.7267 17.7989 -0.47725 4.81517 56.8134
6807628 9.22228 10.0655 19.7267 17.7989 -0.47725 4.81517 56.8134
6807632 9.05492 10.0471 19.9433 17.8768 -0.47181 4.93253 56.9221
6807645 8.93161 9.89057 19.9629 18.0229 -0.43174 5.06011 56.808
6807652 8.93161 9.89057 19.9629 18.0229 -0.43174 5.06011 56.808
6807675 8.82591 9.86295 19.9137 18.0132 -0.381301 5.097 56.6158
6807677 8.82591 9.86295 19.9137 18.0132 -0.381301 5.097 56.6158
6807682 8.79948 9.80769 19.8842 17.9645 -0.403637 5.11236 56.4558
6807692 8.88756 9.90899 19.7858 17.9352 -0.366737 5.02263 56.5176
6807712 8.88756 9.89978 19.707 17.945 -0.332128 5.0137 56.4393
6807723 8.87876 9.93662 19.8448 17.984 -0.354406 5.03496 56.6441
6807735 8.87876 9.93662 19.8448 17.984 -0.354406 5.03496 56.6441
6807743 8.94041 9.94583 19.8054 18.0327 -0.338198 5.01157 56.7243
6807758 8.94041 9.94583 19.8054 18.0327 -0.338198 5.01157 56.7243
6807765 8.87876 9.88136 19.8251 17.9742 -0.374964 5.04935 56.5595
6807773 8.94041 9.96425 19.9039 18.0716 -0.355315 5.02922 56.8802
6807785 8.94041 9.96425 19.9039 18.0716 -0.355315 5.02922 56.8802
6807793 9.0285 10.0287 19.7169 17.9742 -0.32707 4.9254 56.7483
6807804 9.01969 10.0379 19.7169 17.906 -0.349592 4.91314 56.6805
6807823 9.05492 10.0748 19.7169 17.8768 -0.361502 4.88264 56.7233
6807835 9.05492 10.0748 19.7169 17.8768 -0.361502 4.88264 56.7233
6807847 9.04611 10.1208 19.6184 17.8573 -0.302961 4.8485 56.6426
6807855 9.09016 10.1853 19.5692 17.7501 -0.319791 4.7824 56.5948
6807870 9.09016 10.1853 19.5692 17.7501 -0.319791 4.7824 56.5948
6807875 9.09016 10.1761 19.4806 17.6819 -0.315778 4.75724 56.4288
6807885 9.14301 10.2497 19.4609 17.7209 -0.279841 4.71654 56.5746
6807895 9.14301 10.2497 19.4609 17.7209 -0.279841 4.71654 56.5746
6807905 9.18705 10.2129 19.3526 17.6625 -0.294392 4.68363 56.415
6807915 9.18705 10.2129 19.3526 17.6625 -0.294392 4.68363 56.415
6807925 9.16062 10.2129 19.392 17.7014 -0.282602 4.70716 56.467
6807935 9.27513 10.2129 19.3133 17.7794 -0.263397 4.66713 56.5807
6807945 9.27513 10.2129 19.3133 17.7794 -0.263397 4.66713 56.5807
6807955 9.28394 10.2958 19.3231 17.7404 -0.251958 4.62998 56.6432
6807965 9.29275 10.2774 19.3526 17.7014 -0.294304 4.63158 56.6242
6807978 9.29275 10.2774 19.3526 17.7014 -0.294304 4.63158 56.6242
6807984 9.28394 10.2958 19.4019 17.6722 -0.316754 4.63191 56.6538
6807996 9.28394 10.2958 19.4019 17.6722 -0.316754 4.63191 56.6538
6808006 9.29275 10.2589 19.2739 17.6138 -0.307383 4.60741 56.4393
6808016 9.3544 10.2958 19.3231 17.643 -0.326212 4.5877 56.6163
6808026 9.3544 10.2958 19.3231 17.643 -0.326212 4.5877 56.6163
6808036 9.28394 10.2866 19.3231 17.7209 -0.264755 4.6296 56.6145
6808047 9.30155 10.3142 19.3625 17.7209 -0.277306 4.62114 56.6991
6808056 9.30155 10.3142 19.3625 17.7209 -0.277306 4.62114 56.6991
6808066 9.30155 10.3142 19.3723 17.7599 -0.264239 4.63007 56.748
6808076 9.30155 10.3142 19.3723 17.7599 -0.264239 4.63007 56.748
6808086 9.27513 10.2681 19.3231 17.7307 -0.264779 4.64083 56.597
6808097 9.27513 10.2221 19.4019 17.7501 -0.311011 4.67476 56.6492
6808106 9.27513 10.2221 19.4019 17.7501 -0.311011 4.67476 56.6492
6808116 9.31036 10.2497 19.3329 17.7112 -0.301394 4.63323 56.6042
6808126 9.25751 10.2221 19.3133 17.7501 -0.264633 4.66471 56.543
6808138 9.25751 10.2221 19.3133 17.7501 -0.264633 4.66471 56.543
6808146 9.2487 10.2129 19.3133 17.7501 -0.264896 4.67098 56.525
6808161 9.2487 10.2129 19.3133 17.7501 -0.264896 4.67098 56.525
6808166 9.17824 10.1668 19.3625 17.7794 -0.263114 4.72589 56.4869
6808176 9.21347 10.1208 19.4609 17.8281 -0.32032 4.75636 56.6233
6808186 9.21347 10.1208 19.4609 17.8281 -0.32032 4.75636 56.6233
6808196 9.2487 10.084 19.4708 17.867 -0.339 4.76574 56.6705
6808208 9.2487 10.084 19.4708 17.867 -0.339 4.76574 56.6705
6808217 9.16062 10.0563 19.5101 17.8963 -0.31707 4.81854 56.6234
6808229 9.16062 10.0563 19.5987 17.9255 -0.342569 4.83968 56.7412
6808237 9.16062 10.0563 19.5987 17.9255 -0.342569 4.83968 56.7412
6808252 9.1342 10.0471 19.6578 17.9937 -0.330426 4.87486 56.8328
6808261 9.01088 9.96425 19.6184 18.0034 -0.292248 4.94197 56.597
6808273 9.01088 9.96425 19.6184 18.0034 -0.292248 4.94197 56.597
6808277 8.99326 9.95504 19.6775 18.0814 -0.27965 4.97571 56.7072
6808287 8.99326 9.95504 19.6775 18.0814 -0.27965 4.97571 56.7072
6808297 8.91399 9.84453 19.7661 18.1301 -0.311291 5.06692 56.6547
6808310 8.88756 9.77086 20.022 18.2567 -0.38726 5.16894 56.9372
6808327 8.72902 9.66956 20.1008 18.3249 -0.367486 5.28659 56.8243
6808344 8.57927 9.58667 20.2878 18.4808 -0.351097 5.42798 56.9345
6808358 8.57047 9.47616 20.3862 18.6562 -0.361 5.51658 57.089
6808370 8.38549 9.38407 20.465 18.6756 -0.347365 5.63283 56.9102
6808378 8.38549 9.38407 20.465 18.6756 -0.347365 5.63283 56.9102
6808390 8.38549 9.34724 20.465 18.6951 -0.355096 5.6494 56.8928
6808412 8.33264 9.26436 20.3173 18.6756 -0.313643 5.67131 56.59
6808420 8.38549 9.29198 20.2878 18.6756 -0.311457 5.63708 56.6409
6808436 8.38549 9.29198 20.2878 18.6756 -0.311457 5.63708 56.6409
6808440 8.40311 9.31961 20.15 18.6172 -0.272737 5.58802 56.4899
6808450 8.37668 9.30119 20.1795 18.6854 -0.251848 5.62062 56.5428
6808470 8.40311 9.29198 20.2189 18.7536 -0.254299 5.63216 56.6675
6808487 8.40311 9.29198 20.2189 18.7536 -0.254299 5.63216 56.6675
6808496 8.40311 9.23673 20.2583 18.7828 -0.283086 5.66361 56.6809
6808506 8.42073 9.25515 20.2583 18.8023 -0.273871 5.65369 56.7364
6808511 8.42073 9.25515 20.2583 18.8023 -0.273871 5.65369 56.7364
6808521 8.47358 9.15385 20.3272 18.8413 -0.354615 5.68906 56.7958
6808533 8.41192 9.23673 20.2976 18.851 -0.273697 5.67809 56.7973
6808541 8.41192 9.23673 20.2976 18.851 -0.273697 5.67809 56.7973
6808552 8.35907 9.18147 20.3961 18.8315 -0.326827 5.73043 56.7681
6808561 8.35907 9.18147 20.3961 18.8315 -0.326827 5.73043 56.7681
6808576 8.40311 9.17226 20.4256 18.812 -0.371572 5.71936 56.813
6808581 8.3943 9.23673 20.4748 18.8218 -0.35598 5.70871 56.9276
6808591 8.3943 9.23673 20.4748 18.8218 -0.35598 5.70871 56.9276
6808601 8.38549 9.18147 20.4354 18.7633 -0.385855 5.71607 56.7657
6808611 8.35026 9.14464 20.465 18.7925 -0.386783 5.75199 56.7524
6808622 8.35026 9.14464 20.465 18.7925 -0.386783 5.75199 56.7524
6808631 8.31503 9.1078 20.5437 18.8023 -0.41777 5.79275 56.7688
6808645 8.31503 9.1078 20.5437 18.8023 -0.41777 5.79275 56.7688
6808651 8.31503 9.07096 20.5634 18.7925 -0.447163 5.80786 56.7419
6808661 8.32383 9.05255 20.6126 18.7925 -0.480509 5.81935 56.7816
6808681 8.30622 9.06176 20.6618 18.7438 -0.511885 5.82252 56.7737
6808692 8.27979 9.02492 20.6914 18.7731 -0.516646 5.85522 56.7691
6808702 8.27979 9.02492 20.6914 18.7731 -0.516646 5.85522 56.7691
6808712 8.26218 8.99729 20.7307 18.7828 -0.534068 5.87975 56.773
6808722 8.26218 8.99729 20.7307 18.7828 -0.534068 5.87975 56.773
6808735 8.2886 8.98808 20.7504 18.7049 -0.593176 5.86405 56.732
6808742 8.35907 8.98808 20.7504 18.6075 -0.667475 5.82243 56.705
6808756 8.35907 8.98808 20.7504 18.6075 -0.667475 5.82243 56.705
6808762 8.32383 9.04334 20.6914 18.6075 -0.601956 5.80551 56.666
6808772 8.36788 9.01571 20.7012 18.5587 -0.659671 5.79317 56.6435
6808782 8.36788 9.01571 20.7012 18.5587 -0.659671 5.79317 56.6435
6808792 8.42073 9.06176 20.7406 18.5295 -0.691622 5.75858 56.7526
6808802 8.42073 9.06176 20.7406 18.5295 -0.691622 5.75858 56.7526
6808812 8.42953 9.08938 20.7111 18.4029 -0.727648 5.71974 56.6328
6808826 8.48238 9.11701 20.7406 18.4126 -0.745939 5.69678 56.7526
6808832 8.48238 9.11701 20.7406 18.4126 -0.745939 5.69678 56.7526
6808843 8.53523 9.16306 20.78 18.3542 -0.790915 5.65764 56.8324
6808853 8.56166 9.04334 20.7307 18.3249 -0.848976 5.67872 56.6607
6808863 8.56166 9.04334 20.7307 18.3249 -0.848976 5.67872 56.6607
6808875 8.59689 9.21831 20.7406 18.2178 -0.837277 5.58618 56.7736
6808898 8.59689 9.21831 20.7406 18.2178 -0.837277 5.58618 56.7736
6808900 8.67617 9.15385 20.6323 18.1398 -0.889896 5.54982 56.6021
6808908 8.72021 9.28277 20.6914 18.0619 -0.910433 5.48406 56.7562
6808913 8.72021 9.28277 20.6914 18.0619 -0.910433 5.48406 56.7562
6808923 8.78187 9.29198 20.652 17.9547 -0.964683 5.43384 56.6806
6808945 8.80829 9.26436 20.6126 17.867 -1.01212 5.41278 56.5523
6808955 8.86114 9.35645 20.6028 17.8378 -1.00147 5.35395 56.6582
6808973 8.97565 9.4117 20.5536 17.7501 -1.04398 5.26971 56.6911
6808985 9.01088 9.40249 20.4847 17.7404 -1.03845 5.24688 56.6384
6808995 9.01088 9.40249 20.4847 17.7404 -1.03845 5.24688 56.6384
6809005 9.03731 9.47616 20.4158 17.565 -1.0673 5.16884 56.4943
6809015 9.12539 9.45775 20.3272 17.5066 -1.1026 5.11831 56.4169
6809025 9.12539 9.45775 20.3272 17.5066 -1.1026 5.11831 56.4169
6809038 9.17824 9.53142 20.3567 17.4774 -1.1169 5.07335 56.5437
6809045 9.17824 9.53142 20.3567 17.4774 -1.1169 5.07335 56.5437
6809056 9.28394 9.56826 20.1598 17.3994 -1.09733 4.97427 56.4114
6809065 9.38964 9.6143 20.1598 17.3117 -1.1613 4.90504 56.4755
6809087 9.53938 9.74323 20.1204 17.2923 -1.1572 4.79672 56.6953
6809096 9.57461 9.69718 20.0318 17.2338 -1.18305 4.77397 56.5375
6809110 9.57461 9.69718 20.0318 17.2338 -1.18305 4.77397 56.5375
6809116 9.63627 9.70639 20.0712 17.1656 -1.25288 4.74399 56.5795
6809126 9.63627 9.70639 20.0712 17.1656 -1.25288 4.74399 56.5795
6809136 9.68031 9.73402 20.0712 17.2533 -1.21796 4.7349 56.7388
6809146 9.70674 9.7156 20.0515 17.1461 -1.27894 4.70911 56.62
6809166 9.74197 9.82611 20.022 17.1461 -1.23014 4.65313 56.7362
6809182 9.74197 9.82611 20.1008 17.1461 -1.26308 4.66747 56.815
6809186 9.75959 9.77086 20.1008 17.0877 -1.32311 4.66987 56.7189
6809196 9.75078 9.70639 20.0318 17.0585 -1.33418 4.67743 56.5475
6809207 9.75078 9.70639 20.0318 17.0585 -1.33418 4.67743 56.5475
6809216 9.74197 9.67877 20.0417 17.0292 -1.36112 4.68658 56.4917
6809232 9.75078 9.65114 20.0318 17.0292 -1.37358 4.69134 56.463
6809246 9.7772 9.66956 20.1106 17.0195 -1.41346 4.68831 56.5768
6809258 9.7772 9.66956 20.1106 17.0195 -1.41346 4.68831 56.5768
6809266 9.70674 9.64193 20.1106 16.9714 -1.41942 4.71376 56.4307
6809280 9.70674 9.63272 20.2386 17.039 -1.44551 4.75248 56.617
6809286 9.70674 9.63272 20.2386 17.039 -1.44551 4.75248 56.617
6809296 9.68912 9.62351 20.2681 17.039 -1.45477 4.76718 56.6197
6809306 9.63627 9.54984 20.337 17.039 -1.49591 4.82387 56.5621
6809316 9.63627 9.54984 20.337 17.039 -1.49591 4.82387 56.5621
6809326 9.69793 9.58667 20.3075 17.0779 -1.47379 4.79111 56.67
6809336 9.69793 9.58667 20.3075 17.0779 -1.47379 4.79111 56.67
6809349 9.66269 9.6143 20.2976 17.0877 -1.43761 4.79375 56.6623
6809358 9.68912 9.60509 20.3272 17.0097 -1.50158 4.779 56.6311
6809366 9.68912 9.60509 20.3272 17.0097 -1.50158 4.779 56.6311
6809376 9.6715 9.57747 20.2878 16.981 -1.50433 4.78251 56.5177
6809386 9.63627 9.58667 20.3075 17.0779 -1.44816 4.81267 56.6083
6809406 9.68912 9.59588 20.3468 17.039 -1.50038 4.79104 56.6708
6809420 9.68912 9.59588 20.3468 17.039 -1.50038 4.79104 56.6708
6809426 9.69793 9.55905 20.3862 17.0292 -1.54214 4.80617 56.6724
6809436 9.64508 9.48537 20.4453 17 -1.59299 4.85584 56.5757
6809446 9.64508 9.48537 20.4453 17 -1.59299 4.85584 56.5757
6809458 9.59223 9.52221 20.5437 17.0779 -1.558 4.89297 56.7361
6809466 9.59223 9.52221 20.5437 17.0779 -1.558 4.89297 56.7361
6809476 9.60104 9.47616 20.5043 17.0487 -1.58065 4.89381 56.6303
6809487 9.61865 9.54984 20.5732 17.0585 -1.57729 4.87583 56.8002
6809496 9.61865 9.54984 20.5732 17.0585 -1.57729 4.87583 56.8002
6809517 9.57461 9.48537 20.5437 17.0779 -1.56798 4.91208 56.6816
6809519 9.5658 9.46696 20.6028 17.0195 -1.62481 4.92176 56.655
6809535 9.5658 9.46696 20.6028 17.0195 -1.62481 4.92176 56.655
6809542 9.5658 9.43933 20.5142 17.039 -1.59203 4.91918 56.5583
6809551 9.5658 9.43933 20.5142 17.039 -1.59203 4.91918 56.5583
6809560 9.55699 9.47616 20.465 17.0097 -1.56441 4.89531 56.5079
6809568 9.55699 9.47616 20.4059 17.0292 -1.53073 4.88822 56.4683
6809581 9.55699 9.47616 20.4059 17.0292 -1.53073 4.88822 56.4683
6809588 9.60104 9.43933 20.3862 16.981 -1.58089 4.8735 56.4075
6809603 9.60104 9.46696 20.4158 17.0097 -1.56659 4.87423 56.4935
6809618 9.63627 9.45775 20.3665 17 -1.5697 4.8545 56.4605
6809629 9.61865 9.50379 20.4158 17.0779 -1.5246 4.86732 56.6161
6809638 9.61865 9.50379 20.4158 17.0779 -1.5246 4.86732 56.6161
6809652 9.55699 9.53142 20.5437 17.0682 -1.54368 4.90037 56.7003
6809676 9.51295 9.46696 20.4354 17.0877 -1.50158 4.92271 56.503
6809679 9.55699 9.513 20.4158 17.1072 -1.48101 4.89096 56.5929
6809688 9.55699 9.513 20.4158 17.1072 -1.48101 4.89096 56.5929
6809700 9.55699 9.53142 20.3075 17.1169 -1.42275 4.86685 56.5128
6809711 9.54819 9.54063 20.2779 17.1266 -1.39788 4.86316 56.4934
6809724 9.54819 9.54063 20.2779 17.1266 -1.39788 4.86316 56.4934
6809728 9.57461 9.65114 20.2583 17.2436 -1.29486 4.83259 56.7276
6809738 9.57461 9.65114 20.2583 17.2436 -1.29486 4.83259 56.7276
6809749 9.60104 9.64193 20.209 17.2143 -1.30316 4.81249 56.6663
6809758 9.57461 9.60509 20.1893 17.2436 -1.2874 4.83634 56.6126
6809778 9.5658 9.57747 20.1598 17.2241 -1.29322 4.84031 56.5272
6809791 9.5658 9.57747 20.1598 17.2241 -1.29322 4.84031 56.5272
6809798 9.52176 9.6143 20.1401 17.2046 -1.25839 4.8358 56.4808
6809814 9.46891 9.66956 20.1401 17.2825 -1.17438 4.84896 56.5611
6809818 9.46891 9.66956 20.1401 17.2825 -1.17438 4.84896 56.5611
6809828 9.53938 9.64193 20.1204 17.302 -1.19952 4.8339 56.6038
6809839 9.51295 9.67877 19.9728 17.2825 -1.11806 4.80014 56.447
6809848 9.51295 9.67877 19.9728 17.2825 -1.11806 4.80014 56.447
6809862 9.55699 9.74323 20.0122 17.3605 -1.08759 4.78335 56.6728
6809868 9.55699 9.74323 20.0122 17.3605 -1.08759 4.78335 56.6728
6809884 9.47772 9.70639 19.9728 17.3312 -1.06787 4.8116 56.4881
6809890 9.52176 9.76165 19.9236 17.4287 -0.995412 4.78554 56.6356
6809900 9.52176 9.76165 19.9236 17.4287 -0.995412 4.78554 56.6356
6809910 9.53057 9.79848 19.8743 17.3799 -0.983723 4.7519 56.5833
6809920 9.51295 9.82611 19.7956 17.4579 -0.894359 4.74826 56.5925
6809930 9.51295 9.82611 19.7956 17.4579 -0.894359 4.74826 56.5925
6809940 9.5658 9.78006 19.835 17.4676 -0.950198 4.75478 56.6485
6809950 9.5658 9.78006 19.835 17.4676 -0.950198 4.75478 56.6485
6809960 9.55699 9.80769 19.7169 17.4774 -0.879078 4.72857 56.5589
6809972 9.54819 9.89057 19.6676 17.4774 -0.816435 4.69381 56.5838
6809980 9.54819 9.89057 19.6676 17.4774 -0.816435 4.69381 56.5838
6809990 9.54819 9.94583 19.5692 17.4287 -0.771306 4.64771 56.4919
6809999 9.51295 9.90899 19.579 17.5456 -0.723934 4.69595 56.5465
6810021 9.58342 9.92741 19.5397 17.5553 -0.724472 4.65963 56.6058
6810035 9.58342 9.92741 19.5397 17.5553 -0.724472 4.65963 56.6058
6810041 9.52176 9.98267 19.579 17.5456 -0.694244 4.66726 56.629
6810051 9.57461 10.0011 19.5495 17.6235 -0.660604 4.65138 56.7487
6810061 9.57461 10.0011 19.5495 17.6235 -0.660604 4.65138 56.7487
6810071 9.59223 10.0103 19.4708 17.5553 -0.66106 4.61522 56.6286
6810082 9.58342 10.0379 19.4314 17.604 -0.605784 4.61041 56.6567
6810092 9.58342 10.0379 19.4314 17.604 -0.605784 4.61041 56.6567
6810106 9.61865 10.0379 19.3329 17.5943 -0.582947 4.57834 56.5838
6810125 9.53057 10.0195 19.3231 17.5845 -0.553353 4.61165 56.4577
6810132 9.58342 10.0655 19.264 17.643 -0.503457 4.57725 56.556
6810142 9.58342 10.0655 19.264 17.643 -0.503457 4.57725 56.556
6810152 9.49534 9.99187 19.3231 17.604 -0.541775 4.6371 56.4143
6810162 9.50414 10.0011 19.2936 17.6625 -0.50219 4.63614 56.4613
6810172 9.50414 10.0011 19.2936 17.6625 -0.50219 4.63614 56.4613
6810182 9.52176 10.0287 19.3231 17.7404 -0.475039 4.64012 56.614
6810201 9.52176 10.0287 19.3231 17.7404 -0.475039 4.64012 56.614
6810203 9.4601 9.9182 19.3133 17.7794 -0.47626 4.70534 56.4709
6810213 9.47772 10.0379 19.3526 17.7989 -0.43834 4.66828 56.6671
6810224 9.47772 10.0379 19.3526 17.7989 -0.43834 4.66828 56.6671
6810233 9.4601 9.95504 19.3723 17.8281 -0.463349 4.71211 56.6155
6810244 9.41606 9.96425 19.3428 17.8768 -0.405397 4.72773 56.5999
6810269 9.44249 9.97346 19.3723 17.9158 -0.40808 4.72774 56.704
6810277 9.3544 9.94583 19.3625 17.9255 -0.373554 4.76806 56.5882
6810285 9.3544 9.94583 19.3625 17.9255 -0.373554 4.76806 56.5882
6810295 9.31036 9.9182 19.3526 17.984 -0.33627 4.8019 56.5652
6810305 9.31036 9.9182 19.3526 17.984 -0.33627 4.8019 56.5652
6810321 9.29275 9.89978 19.4019 18.0814 -0.314702 4.84088 56.6758
6810326 9.2487 9.95504 19.4314 18.0716 -0.288068 4.8405 56.7068
6810335 9.2487 9.95504 19.4314 18.0716 -0.288068 4.8405 56.7068
6810348 9.21347 9.87216 19.4609 18.0814 -0.318243 4.88893 56.6279
6810356 9.25751 9.87216 19.4215 18.0327 -0.342073 4.85771 56.5839
6810374 9.25751 9.87216 19.4215 18.0327 -0.342073 4.85771 56.5839
6810378 9.16943 9.9182 19.4609 18.1496 -0.248057 4.90039 56.6981
6810386 9.16943 9.9182 19.4609 18.1496 -0.248057 4.90039 56.6981
6810401 9.12539 9.84453 19.4314 18.1009 -0.270513 4.92786 56.5022
6810406 9.15181 9.85374 19.4314 18.1009 -0.277956 4.9153 56.5378
6810416 9.15181 9.85374 19.4314 18.1009 -0.277956 4.9153 56.5378
6810428 9.12539 9.89057 19.4609 18.0911 -0.267203 4.91517 56.568
6810436 9.09896 9.86295 19.4609 18.1496 -0.241886 4.94461 56.5724
6810455 9.09896 9.86295 19.4609 18.1496 -0.241886 4.94461 56.5724
6810456 9.14301 9.90899 19.5101 18.1593 -0.257766 4.92339 56.7214
6810479 9.07254 9.88136 19.4215 18.1593 -0.200497 4.94217 56.5348
6810490 9.09896 9.90899 19.3526 18.2372 -0.134879 4.92473 56.5978
6810501 9.09896 9.90899 19.3526 18.2372 -0.134879 4.92473 56.5978
6810507 9.12539 9.94583 19.4215 18.1593 -0.194956 4.90087 56.6521
6810517 9.10777 9.9182 19.3526 18.1983 -0.151972 4.91144 56.5769
6810530 9.10777 9.9182 19.3526 18.1983 -0.151972 4.91144 56.5769
6810540 9.1342 9.95504 19.3329 18.2178 -0.129916 4.88917 56.6399
6810550 9.1342 9.95504 19.3329 18.2178 -0.129916 4.88917 56.6399
6810558 9.11658 9.94583 19.3428 18.2275 -0.126266 4.90209 56.6327
6810572 9.10777 9.95504 19.3625 18.1983 -0.139928 4.90024 56.6236
6810578 9.10777 9.95504 19.3625 18.1983 -0.139928 4.90024 56.6236
6810588 9.1342 9.98267 19.3723 18.2372 -0.126311 4.88997 56.7264
6810601 9.16062 10.0563 19.2739 18.1885 -0.0836402 4.8286 56.6794
6810610 9.16062 10.0563 19.2739 18.1885 -0.0836402 4.8286 56.6794
6810618 9.18705 10.0655 19.2542 18.1885 -0.0825271 4.81261 56.6953
6810628 9.18705 10.0655 19.2542 18.1885 -0.0825271 4.81261 56.6953
6810639 9.18705 10.0011 19.205 18.1691 -0.0980735 4.82281 56.5622
6810648 9.17824 10.0563 19.2542 18.1301 -0.108626 4.80839 56.6189
6810659 9.17824 10.0563 19.2542 18.1301 -0.108626 4.80839 56.6189
6810669 9.2399 10.0932 19.1459 18.1203 -0.0761047 4.75267 56.5993
6810682 9.19586 10.0471 19.1262 18.0424 -0.103059 4.76648 56.4116
6810688 9.19586 10.0471 19.1262 18.0424 -0.103059 4.76648 56.4116
6810704 9.25751 10.0655 19.1361 18.0327 -0.130714 4.73848 56.4918
6810710 9.25751 10.0655 19.1361 18.0327 -0.130714 4.73848 56.4918
6810720 9.28394 10.0748 19.077 18.0814 -0.0906006 4.72415 56.5171
6810731 9.31036 10.1945 19.1262 18.0521 -0.0837833 4.67693 56.6832
6810740 9.31036 10.1945 19.1262 18.0521 -0.0837833 4.67693 56.6832
6810757 9.28394 10.1576 19.077 18.0327 -0.0754371 4.68639 56.5513
6810760 9.33679 10.1116 19.0573 18.0521 -0.101829 4.68399 56.5579
6810770 9.33679 10.1116 19.0573 18.0521 -0.101829 4.68399 56.5579
6810784 9.37202 10.2313 19.018 17.9645 -0.0857949 4.60692 56.5858
6810790 9.37202 10.2313 19.018 17.9645 -0.0857949 4.60692 56.5858
6810800 9.36321 10.1761 19.0869 17.9742 -0.132421 4.64356 56.6003
6810838 9.38964 10.1853 19.0376 18.0229 -0.09671 4.63111 56.6355
6810841 9.38964 10.1853 19.0376 18.0229 -0.09671 4.63111 56.6355
6810842 9.38964 10.2405 19.0376 17.9547 -0.102444 4.59946 56.6225
6810844 9.39845 10.2037 18.9884 17.9645 -0.0966787 4.60192 56.555
6810866 9.4601 10.2405 19.018 17.9742 -0.116117 4.57506 56.6928
6810872 9.42487 10.2681 18.949 18.0132 -0.0408575 4.57218 56.6552
6810882 9.42487 10.2681 18.949 18.0132 -0.0408575 4.57218 56.6552
6810894 9.47772 10.2405 18.9097 18.0034 -0.0633165 4.55442 56.6313
6810902 9.47772 10.2405 18.9097 18.0034 -0.0633165 4.55442 56.6313
6810919 9.43368 10.1945 18.949 17.906 -0.124919 4.57488 56.4832
6810922 9.40725 10.1945 18.9392 17.9937 -0.0699952 4.59838 56.5346
6810932 9.40725 10.1945 18.9392 17.9937 -0.0699952 4.59838 56.5346
6810947 9.42487 10.2129 18.9097 17.9255 -0.0868306 4.56787 56.4729
6810952 9.44249 10.1576 18.949 17.906 -0.145194 4.58459 56.4552
6810967 9.44249 10.1576 18.949 17.906 -0.145194 4.58459 56.4552
6810972 9.46891 10.2037 18.9589 17.8963 -0.144991 4.5595 56.5278
6810982 9.46891 10.2037 18.9589 17.8963 -0.144991 4.5595 56.5278
6810992 9.42487 10.2589 18.9195 17.945 -0.0620976 4.55735 56.5483
6811002 9.47772 10.2774 18.8703 17.9158 -0.0684917 4.51821 56.5411
6811022 9.46891 10.2681 18.9392 17.9158 -0.0990465 4.53719 56.592
6811035 9.46891 10.2681 18.9392 17.9158 -0.0990465 4.53719 56.592
6811042 9.38083 10.2589 18.9097 17.9352 -0.0426292 4.56898 56.4847
6811052 9.46891 10.2866 18.949 17.8865 -0.108171 4.52724 56.5911
6811072 9.50414 10.2589 18.949 17.9937 -0.0884205 4.54442 56.7058
6811083 9.44249 10.2313 18.9392 17.9352 -0.0951111 4.56265 56.5482
6811098 9.44249 10.2313 18.9392 17.9352 -0.0951111 4.56265 56.5482
6811103 9.49534 10.2774 18.8112 17.8768 -0.0674888 4.49392 56.4607
6811125 9.49534 10.2774 18.8112 17.8768 -0.0674888 4.49392 56.4607
6811127 9.52176 10.2589 18.8605 17.8281 -0.130688 4.49125 56.4692
6811134 9.53938 10.2958 18.8703 17.8963 -0.0961199 4.48699 56.6017
6811153 9.53938 10.2958 18.8703 17.8963 -0.0961199 4.48699 56.6017
6811158 9.52176 10.2774 18.9097 17.8963 -0.11386 4.50671 56.6051
6811163 9.51295 10.305 18.8998 17.8963 -0.0934049 4.4984 56.614
6811180 9.51295 10.305 18.8998 17.8963 -0.0934049 4.4984 56.614
6811183 9.50414 10.305 18.9294 17.8768 -0.11116 4.50329 56.6153
6811193 9.50414 10.305 18.9294 17.8768 -0.11116 4.50329 56.6153
6811206 9.4601 10.2774 18.89 17.8963 -0.0780448 4.52433 56.5237
6811213 9.51295 10.3326 18.8506 17.7599 -0.120035 4.45433 56.4561
6811235 9.51295 10.3326 18.8506 17.7599 -0.120035 4.45433 56.4561
6811237 9.52176 10.3326 18.8014 17.7307 -0.115223 4.43662 56.3864
6811243 9.53938 10.3326 18.7719 17.7112 -0.118646 4.42136 56.355
6811263 9.53938 10.3326 18.7719 17.7112 -0.118646 4.42136 56.355
6811266 9.53057 10.2958 18.8408 17.7209 -0.157233 4.45183 56.388
6811290 9.60104 10.305 18.8211 17.6917 -0.188518 4.41522 56.4188
6811295 9.60104 10.3787 18.8801 17.6722 -0.190297 4.39733 56.532
6811305 9.60104 10.3787 18.8801 17.6722 -0.190297 4.39733 56.532
6811317 9.62746 10.3694 18.8309 17.6527 -0.193082 4.37851 56.4806
6811325 9.65389 10.3971 18.8408 17.5943 -0.222756 4.35083 56.486
6811344 9.65389 10.3971 18.8408 17.5943 -0.222756 4.35083 56.486
6811346 9.6715 10.4247 18.8506 17.604 -0.218123 4.33904 56.5508
6811355 9.6715 10.4247 18.8506 17.604 -0.218123 4.33904 56.5508
6811371 9.68031 10.4339 18.8801 17.565 -0.248188 4.3311 56.5594
6811375 9.76839 10.4063 18.8112 17.5456 -0.277627 4.29374 56.5315
6811385 9.76839 10.4063 18.8112 17.5456 -0.277627 4.29374 56.5315
6811398 9.79482 10.5076 18.8408 17.4579 -0.295982 4.23921 56.601
6811406 9.83005 10.4247 18.8309 17.4676 -0.33979 4.2554 56.5533
6811422 9.83005 10.4247 18.8309 17.4676 -0.33979 4.2554 56.5533
6811426 9.83005 10.48 18.762 17.3605 -0.332986 4.20302 56.4325
6811437 9.83005 10.48 18.762 17.3605 -0.332986 4.20302 56.4325
6811446 9.79482 10.5168 18.7522 17.302 -0.322975 4.18939 56.3658
6811456 9.83005 10.526 18.762 17.3605 -0.312333 4.18737 56.4785
6811469 9.83005 10.526 18.762 17.3605 -0.312333 4.18737 56.4785
6811476 9.80363 10.5168 18.8703 17.2923 -0.382799 4.20715 56.483
6811486 9.83886 10.526 18.8014 17.2923 -0.363979 4.17885 56.4585
6811496 9.83886 10.526 18.8014 17.2923 -0.363979 4.17885 56.4585
6811506 9.92694 10.5628 18.8506 17.302 -0.402837 4.14782 56.6424
6811516 9.92694 10.5628 18.8506 17.302 -0.402837 4.14782 56.6424
6811526 9.85648 10.4892 18.8112 17.2143 -0.42762 4.17232 56.3712
6811541 9.8829 10.526 18.8211 17.2436 -0.413656 4.15833 56.4735
6811547 9.8829 10.526 18.8211 17.2436 -0.413656 4.15833 56.4735
6811557 9.92694 10.526 18.8112 17.1656 -0.463654 4.12652 56.4298
6811567 9.90052 10.5628 18.8703 17.1656 -0.461227 4.13436 56.4993
6811577 9.90052 10.5628 18.8703 17.1656 -0.461227 4.13436 56.4993
6811589 9.94456 10.5905 18.8998 17.1559 -0.485083 4.11393 56.5907
6811597 9.94456 10.5905 18.8998 17.1559 -0.485083 4.11393 56.5907
6811613 9.97098 10.5352 18.8605 17.1754 -0.495589 4.11984 56.542
6811617 9.97098 10.5352 18.8703 17.1559 -0.508644 4.11799 56.5324
6811627 9.97098 10.5352 18.8703 17.1559 -0.508644 4.11799 56.5324
6811638 9.96218 10.572 18.7719 17.1266 -0.458661 4.08387 56.4327
6811648 10.015 10.526 18.8309 17.1169 -0.532424 4.09111 56.4889
6811660 10.015 10.526 18.8309 17.1169 -0.532424 4.09111 56.4889
6811668 10.0415 10.5997 18.8506 17.1266 -0.514734 4.06303 56.6184
6811685 10.0415 10.5997 18.8506 17.1266 -0.514734 4.06303 56.6184
6811688 10.015 10.5536 18.8211 17.0195 -0.559746 4.06101 56.4092
6811698 9.96218 10.5168 18.89 17.039 -0.574562 4.10846 56.4079
6811718 10.0503 10.6273 18.8309 17.0779 -0.519533 4.03753 56.5864
6811731 10.0326 10.572 18.9392 17.1072 -0.570436 4.08863 56.6511
6811738 10.0326 10.572 18.9392 17.1072 -0.570436 4.08863 56.6511
6811748 10.0591 10.572 18.8605 17.0292 -0.583079 4.04946 56.5208
6811760 10.0591 10.572 18.8605 17.0292 -0.583079 4.04946 56.5208
6811768 10.0238 10.4707 18.89 16.9619 -0.657159 4.08827 56.3465
6811780 10.0326 10.5352 18.9195 17.039 -0.60944 4.0841 56.5263
6811790 10.0326 10.5352 18.9195 17.039 -0.60944 4.0841 56.5263
6811804 10.0326 10.6089 18.8703 17.0292 -0.559251 4.04785 56.541
6811810 10.0943 10.5536 18.8801 16.9714 -0.641316 4.0364 56.4995
6811830 10.015 10.5628 18.8703 16.9429 -0.611618 4.05259 56.391
6811841 10.015 10.5628 18.8703 16.9429 -0.611618 4.05259 56.391
6811852 10.0415 10.5444 18.8112 16.9524 -0.601538 4.04026 56.3495
6811861 10.0855 10.5444 18.8605 16.9619 -0.637528 4.03681 56.4523
6811870 10.0855 10.5444 18.8605 16.9619 -0.637528 4.03681 56.4523
6811881 10.0415 10.5813 18.8014 16.9239 -0.593512 4.02034 56.3479
6811890 10.0767 10.5444 18.8801 16.8858 -0.676852 4.0288 56.387
6811901 10.0767 10.5444 18.8801 16.8858 -0.676852 4.0288 56.387
6811911 10.1031 10.572 18.8506 16.9239 -0.645627 4.01224 56.4496
6811925 10.1031 10.572 18.8506 16.9239 -0.645627 4.01224 56.4496
6811931 10.1207 10.5813 18.8014 16.8763 -0.649436 3.98433 56.3796
6811948 10.1736 10.6826 18.8506 16.8572 -0.656074 3.93847 56.564
6811951 10.1736 10.6826 18.8506 16.8572 -0.656074 3.93847 56.564
6811963 10.1648 10.6365 18.8014 16.8191 -0.669287 3.93977 56.4218
6811973 10.1824 10.6549 18.7915 16.8763 -0.638324 3.93694 56.5051
6811982 10.1824 10.6549 18.7915 16.8763 -0.638324 3.93694 56.5051
6811997 10.2617 10.6826 18.7325 16.7811 -0.677723 3.87086 56.4578
6812011 10.2617 10.6273 18.7325 16.724 -0.728931 3.87809 56.3454
6812022 10.3057 10.7286 18.7423 16.7144 -0.71028 3.82958 56.4911
6812032 10.3057 10.7286 18.7423 16.7144 -0.71028 3.82958 56.4911
6812045 10.3409 10.701 18.6144 16.6954 -0.691599 3.7979 56.3517
6812052 10.3674 10.7194 18.6833 16.6764 -0.732931 3.79286 56.4464
6812067 10.3674 10.7194 18.6833 16.6764 -0.732931 3.79286 56.4464
6812073 10.3409 10.7102 18.634 16.6383 -0.721946 3.78738 56.3235
6812082 10.3409 10.7102 18.634 16.6383 -0.721946 3.78738 56.3235
6812092 10.3674 10.747 18.5848 16.5717 -0.725728 3.74318 56.2709
6812102 10.4114 10.7194 18.575 16.6478 -0.71831 3.75096 56.3536
6812122 10.4114 10.7194 18.575 16.6478 -0.71831 3.75096 56.3536
6812123 10.4731 10.8299 18.5061 16.5717 -0.699514 3.66476 56.3807
6812138 10.4731 10.8299 18.4667 16.6764 -0.634892 3.67788 56.446
6812143 10.4731 10.8299 18.4667 16.6764 -0.634892 3.67788 56.446
6812155 10.4907 10.8207 18.4864 16.6002 -0.689808 3.66376 56.398
6812165 10.5083 10.8483 18.4569 16.6669 -0.641805 3.65626 56.4803
6812175 10.5083 10.8483 18.4569 16.6669 -0.641805 3.65626 56.4803
6812185 10.5699 10.8207 18.4175 16.6383 -0.676943 3.63136 56.4464
6812195 10.5699 10.8207 18.4175 16.6383 -0.676943 3.63136 56.4464
6812208 10.4819 10.8575 18.4273 16.6954 -0.600517 3.66175 56.4621
6812215 10.4731 10.8207 18.5061 16.7525 -0.621517 3.70405 56.5524
6812225 10.4731 10.8207 18.5061 16.7525 -0.621517 3.70405 56.5524
6812235 10.5699 10.8575 18.3486 16.8001 -0.557163 3.6379 56.5762
6812245 10.4554 10.8391 18.3486 16.7811 -0.524525 3.67797 56.4242
6812256 10.4554 10.8391 18.3486 16.7811 -0.524525 3.67797 56.4242
6812265 10.4995 10.8575 18.3486 16.8001 -0.526682 3.66114 56.5057
6812279 10.4995 10.8575 18.3486 16.8001 -0.526682 3.66114 56.5057
6812285 10.4114 10.8667 18.2501 16.743 -0.467291 3.65595 56.2713
6812295 10.4819 10.8207 18.3092 16.7049 -0.561756 3.65209 56.3167
6812305 10.4819 10.8207 18.3092 16.7049 -0.561756 3.65209 56.3167
6812315 10.4907 10.8483 18.2994 16.724 -0.540146 3.64188 56.3623
6812327 10.4114 10.9404 18.2698 16.7716 -0.42969 3.64128 56.3932
6812351 10.5347 10.8852 18.3092 16.6954 -0.559756 3.6114 56.4245
6812366 10.5347 10.9404 18.2797 16.6097 -0.560741 3.56988 56.3645
6812377 10.4995 10.9865 18.2698 16.6097 -0.520317 3.56432 56.3655
6812386 10.4995 10.9865 18.2698 16.6097 -0.520317 3.56432 56.3655
6812397 10.5876 10.9957 18.1714 16.5622 -0.53321 3.50259 56.3168
6812406 10.5435 10.968 18.1911 16.5336 -0.548121 3.52436 56.2362
6812420 10.5435 10.968 18.1911 16.5336 -0.548121 3.52436 56.2362
6812426 10.5788 11.0141 18.1419 16.5146 -0.529777 3.48367 56.2493
6812436 10.5788 11.0141 18.1419 16.5146 -0.529777 3.48367 56.2493
6812446 10.5964 11.0601 18.1419 16.5526 -0.499314 3.47057 56.351
6812456 10.6404 11.0601 18.0926 16.5146 -0.514303 3.43825 56.3077
6812467 10.6404 11.0601 18.0926 16.5146 -0.514303 3.43825 56.3077
6812477 10.6316 11.0601 18.1616 16.5241 -0.536099 3.45721 56.3774
6812492 10.5788 11.0878 18.1812 16.4574 -0.539379 3.45585 56.3052
6812497 10.5788 11.0878 18.1812 16.4574 -0.539379 3.45585 56.3052
6812507 10.6052 11.1154 18.132 16.4099 -0.538529 3.41826 56.2624
6812517 10.6052 11.1154 18.132 16.4099 -0.538529 3.41826 56.2624
6812527 10.6228 11.1798 18.1616 16.3527 -0.555675 3.38575 56.3169
6812540 10.6228 11.2904 18.1911 16.3527 -0.518437 3.35583 56.457
6812557 10.6316 11.3548 18.1911 16.1814 -0.570653 3.29657 56.3589
6812568 10.6492 11.4285 18.1714 16.1148 -0.566562 3.24901 56.3639
6812580 10.6492 11.4285 18.1714 16.1148 -0.566562 3.24901 56.3639
6812590 10.7021 11.4837 18.132 16.1243 -0.543053 3.20784 56.4421
6812598 10.7021 11.4837 18.132 16.1243 -0.543053 3.20784 56.4421
6812612 10.6756 11.4653 18.1222 16.0291 -0.578843 3.20035 56.2923
6812618 10.6756 11.539 18.1222 16.1053 -0.510949 3.19251 56.4421
6812628 10.6756 11.539 18.1222 16.1053 -0.510949 3.19251 56.4421
6812638 10.658 11.5298 18.1025 16.1719 -0.468823 3.21097 56.4622
6812648 10.614 11.5206 18.0926 16.0767 -0.492567 3.2062 56.3039
6812661 10.614 11.5206 18.0926 16.0767 -0.492567 3.2062 56.3039
6812668 10.6492 11.4745 18.1517 16.1338 -0.528537 3.23398 56.4093
6812684 10.6492 11.4745 18.1517 16.1338 -0.528537 3.23398 56.4093
6812688 10.5964 11.4285 18.132 16.1243 -0.522198 3.25991 56.2812
6812698 10.5347 11.4469 18.0828 16.1814 -0.439675 3.2756 56.2458
6812709 10.5347 11.4469 18.0828 16.1814 -0.439675 3.2756 56.2458
6812731 10.5611 11.4101 18.1616 16.2195 -0.484954 3.30328 56.3522
6812747 10.4995 11.3824 18.2108 16.2576 -0.474818 3.3504 56.3503
6812754 10.4995 11.3824 18.2108 16.2576 -0.474818 3.3504 56.3503
6812756 10.5435 11.2719 18.2206 16.3052 -0.526723 3.38392 56.3412
6812760 10.5435 11.2719 18.2206 16.3052 -0.526723 3.38392 56.3412
6812777 10.5347 11.3456 18.1911 16.2861 -0.485328 3.35276 56.3575
6812786 10.4731 11.3548 18.26 16.3908 -0.437069 3.4056 56.4787
6812791 10.4731 11.3548 18.26 16.3908 -0.437069 3.4056 56.4787
6812802 10.4466 11.3272 18.2501 16.4003 -0.429447 3.42317 56.4243
6812811 10.4466 11.3456 18.1812 16.4765 -0.356852 3.41864 56.45
6812823 10.4466 11.3456 18.1812 16.4765 -0.356852 3.41864 56.45
6812831 10.4466 11.2719 18.2305 16.5146 -0.394322 3.46058 56.4636
6812847 10.4466 11.2719 18.2305 16.5146 -0.394322 3.46058 56.4636
6812851 10.3938 11.2259 18.2305 16.4955 -0.400575 3.48908 56.3457
6812861 10.4114 11.1983 18.2305 16.5907 -0.377844 3.51178 56.4308
6812873 10.4114 11.1983 18.2305 16.5907 -0.377844 3.51178 56.4308
6812885 10.4114 11.2535 18.2206 16.5431 -0.370105 3.48195 56.4286
6812894 10.3762 11.1983 18.26 16.6193 -0.362521 3.53515 56.4537
6812901 10.3762 11.1983 18.26 16.6193 -0.362521 3.53515 56.4537
6812911 10.3585 11.2167 18.26 16.6383 -0.338013 3.53875 56.4735
6812931 10.3233 11.2443 18.26 16.6954 -0.284654 3.55283 56.523
6812942 10.3321 11.2351 18.26 16.6764 -0.301148 3.5491 56.5036
6812952 10.3321 11.2351 18.26 16.6764 -0.301148 3.5491 56.5036
6812966 10.3321 11.2259 18.2501 16.6764 -0.300968 3.55013 56.4845
6812973 10.2528 11.2075 18.1517 16.743 -0.201437 3.57583 56.355
6812982 10.2528 11.2075 18.1517 16.743 -0.201437 3.57583 56.355
6812992 10.2969 11.2904 18.132 16.724 -0.183631 3.52622 56.4432
6813002 10.2969 11.2904 18.132 16.724 -0.183631 3.52622 56.4432
6813014 10.2617 11.1706 18.0828 16.762 -0.182927 3.57495 56.2771
6813022 10.244 11.3088 18.0631 16.724 -0.121769 3.5235 56.3399
6813037 10.244 11.3088 18.0631 16.724 -0.121769 3.5235 56.3399
6813042 10.244 11.3548 17.9844 16.762 -0.0494942 3.50008 56.3453
6813052 10.2176 11.3548 17.9647 16.8001 -0.0121415 3.51251 56.3372
6813063 10.2176 11.3548 17.9647 16.8001 -0.0121415 3.51251 56.3372
6813073 10.3057 11.3272 17.9647 16.8096 -0.0591919 3.49461 56.4072
6813085 10.3057 11.3272 17.9647 16.8096 -0.0591919 3.49461 56.4072
6813094 10.1472 11.2996 18.0041 16.8287 -0.0102028 3.56773 56.2794
6813109 10.2 11.4101 17.945 16.8287 0.0415683 3.50196 56.3837
6813123 10.2528 11.3917 18.0237 16.8572 -0.0122562 3.51252 56.5255
6813133 10.2088 11.3917 17.9548 16.8858 0.0504047 3.51875 56.4411
6813157 10.2176 11.4469 17.945 16.9239 0.0920534 3.5035 56.5334
6813164 10.2176 11.4469 17.945 16.9239 0.0920534 3.5035 56.5334
6813181 10.1736 11.3732 17.8466 16.9334 0.127152 3.52402 56.3267
6813185 10.1472 11.4009 17.8761 16.9429 0.142157 3.53158 56.367
6813195 10.1472 11.4009 17.8761 16.9429 0.142157 3.53158 56.367
6813205 10.2088 11.3364 17.945 16.981 0.0724107 3.55422 56.4712
6813215 10.1912 11.4101 17.9253 17 0.12984 3.53569 56.5266
6813227 10.1912 11.4101 17.9253 17 0.12984 3.53569 56.5266
6813235 10.0767 11.3732 17.8761 17.0487 0.208062 3.58535 56.3747
6813255 10.1031 11.3364 17.8859 17.0292 0.167063 3.58683 56.3547
6813266 10.0679 11.3364 17.8662 17.1948 0.264379 3.62793 56.4654
6813276 10.0679 11.3364 17.8662 17.1948 0.264379 3.62793 56.4654
6813286 10.0503 11.2996 17.945 17.1851 0.216633 3.65978 56.4799
6813299 10.0679 11.2075 17.9745 17.2825 0.197941 3.70983 56.5324
6813306 10.0679 11.2075 17.9745 17.2825 0.197941 3.70983 56.5324
6813316 10.0238 11.2351 17.9253 17.2923 0.25596 3.70737 56.4765
6813326 10.0238 11.2351 17.9253 17.2923 0.25596 3.70737 56.4765
6813336 9.92694 11.1706 17.9745 17.3215 0.261849 3.77661 56.3936
6813346 9.92694 11.143 17.9942 17.4189 0.283614 3.80906 56.4831
6813356 9.92694 11.143 17.9942 17.4189 0.283614 3.80906 56.4831
6813371 9.90933 11.1246 18.0139 17.4774 0.30019 3.83652 56.5252
6813381 9.83886 11.1154 17.9942 17.6138 0.396055 3.88609 56.5622
6813392 9.83886 11.1154 17.9942 17.6138 0.396055 3.88609 56.5622
6813397 9.87409 11.0325 18.0631 17.5943 0.30477 3.91171 56.564
6813416 9.83005 10.9496 18.0336 17.643 0.322801 3.95799 56.4562
6813426 9.7772 10.9128 18.0926 17.7501 0.350717 4.02053 56.5328
6813437 9.7772 10.9128 18.0926 17.7501 0.350717 4.02053 56.5328
6813446 9.7772 10.9312 18.132 17.8086 0.366548 4.03331 56.649
6813462 9.72435 10.8391 18.1025 17.8476 0.380367 4.08396 56.5135
6813466 9.72435 10.8391 18.1025 17.8476 0.380367 4.08396 56.5135
6813476 9.71554 10.8023 18.1812 17.9158 0.36265 4.12768 56.6148
6813487 9.71554 10.8023 18.1812 17.9158 0.36265 4.12768 56.6148
6813497 9.61865 10.7194 18.1714 17.945 0.387183 4.19232 56.4544
6813513 9.6715 10.7194 18.2305 18.0132 0.366655 4.19869 56.6345
6813517 9.6715 10.7194 18.2305 18.0132 0.366655 4.19869 56.6345
6813527 9.6715 10.6733 18.2403 17.9937 0.333712 4.21248 56.5788
6813539 9.63627 10.6549 18.2797 18.0911 0.366253 4.25672 56.662
6813547 9.63627 10.6549 18.2797 18.0911 0.366253 4.25672 56.662
6813564 9.63627 10.6826 18.2797 18.0619 0.365558 4.24179 56.6604
6813567 9.63627 10.6826 18.2797 18.0619 0.365558 4.24179 56.6604
6813577 9.60984 10.6181 18.2994 18.0911 0.353244 4.28197 56.6184
6813590 9.60984 10.5905 18.3289 18.0911 0.327992 4.29697 56.6203
6813597 9.60984 10.5905 18.3289 18.0911 0.327992 4.29697 56.6203
6813615 9.63627 10.5997 18.3289 18.1106 0.328678 4.28851 56.6754
6813618 9.63627 10.5997 18.3289 18.1106 0.328678 4.28851 56.6754
6813627 9.57461 10.5813 18.2501 18.0327 0.349566 4.28614 56.4387
6813641 9.60984 10.5352 18.2895 18.1691 0.3555 4.32309 56.6036
6813647 9.60984 10.5352 18.2895 18.1691 0.3555 4.32309 56.6036
6813657 9.50414 10.5076 18.2895 18.0229 0.327054 4.34113 56.3242
6813668 9.52176 10.526 18.319 18.0911 0.343755 4.34724 56.4579
6813677 9.52176 10.526 18.319 18.0911 0.343755 4.34724 56.4579
6813693 9.57461 10.5444 18.3387 18.0424 0.297996 4.31736 56.5002
6813697 9.57461 10.5444 18.3387 18.0424 0.297996 4.31736 56.5002
6813707 9.52176 10.48 18.3289 18.0521 0.302154 4.35754 56.3828
6813719 9.53938 10.4892 18.4569 18.1398 0.279361 4.38889 56.6252
6813727 9.53938 10.4892 18.4569 18.1398 0.279361 4.38889 56.6252
6813737 9.60104 10.4615 18.5651 18.0619 0.157547 4.38294 56.6896
6813748 9.55699 10.4431 18.5258 18.0521 0.182277 4.39512 56.578
6813771 9.55699 10.3879 18.6242 18.0521 0.114274 4.43248 56.6212
6813777 9.55699 10.3879 18.6242 18.0521 0.114274 4.43248 56.6212
6813787 9.61865 10.3971 18.6045 18.0132 0.0825852 4.39722 56.6334
6813800 9.58342 10.3971 18.6144 18.0814 0.123805 4.42388 56.6762
6813811 9.58342 10.3971 18.6144 18.0814 0.123805 4.42388 56.6762
6813820 9.59223 10.3694 18.5848 17.9937 0.0822812 4.40842 56.5402
6813828 9.60104 10.3418 18.5651 17.945 0.0534207 4.40206 56.453
6813843 9.60104 10.3418 18.5651 17.945 0.0534207 4.40206 56.453
6813848 9.55699 10.351 18.6636 17.9547 0.0376731 4.43429 56.5263
6813858 9.55699 10.351 18.6636 17.9547 0.0376731 4.43429 56.5263
6813868 9.54819 10.2589 18.7128 18.0132 0.00492334 4.4891 56.5331
6813878 9.57461 10.2958 18.762 17.9547 -0.0380501 4.4656 56.5871
6813898 9.59223 10.2958 18.7423 17.906 -0.0587091 4.44679 56.5364
6813911 9.54819 10.1945 18.8014 17.9547 -0.0886649 4.51695 56.4988
6813920 9.54819 10.1945 18.8014 17.9547 -0.0886649 4.51695 56.4988
6813929 9.55699 10.2405 18.8112 17.8865 -0.106724 4.48717 56.4953
6813940 9.55699 10.2405 18.8112 17.8865 -0.106724 4.48717 56.4953
6813950 9.54819 10.2313 18.8211 17.867 -0.119938 4.49159 56.4676
6813960 9.60104 10.2221 18.9195 17.867 -0.190517 4.49483 56.6097
6813980 9.58342 10.2037 18.8703 17.8573 -0.173727 4.49631 56.5147
6814002 9.59223 10.1484 18.9392 17.7891 -0.262927 4.51248 56.469
6814005 9.59223 10.1484 18.9392 17.7891 -0.262927 4.51248 56.469
6814011 9.61865 10.2129 18.9786 17.7307 -0.289029 4.47757 56.5408
6814031 9.61865 10.2129 18.9786 17.7307 -0.289029 4.47757 56.5408
6814034 9.63627 10.1576 18.9294 17.7989 -0.269423 4.49407 56.5221
6814041 9.65389 10.1576 18.9884 17.7307 -0.333451 4.4863 56.5306
6814058 9.65389 10.1576 18.9884 17.7307 -0.333451 4.4863 56.5306
6814062 9.61865 10.1392 19.018 17.7014 -0.352333 4.50487 56.4773
6814071 9.66269 10.0932 19.0081 17.7599 -0.361678 4.51459 56.5239
6814091 9.69793 10.13 19.0967 17.7696 -0.394656 4.50797 56.6943
6814101 9.69793 10.13 19.0967 17.7696 -0.394656 4.50797 56.6943
6814111 9.59223 10.1761 19.0278 17.7307 -0.315472 4.50853 56.5267
6814121 9.65389 10.0471 19.0967 17.7696 -0.412707 4.55174 56.5673
6814132 9.65389 10.0471 19.0967 17.7696 -0.412707 4.55174 56.5673
6814142 9.64508 10.1024 19.0869 17.7891 -0.371067 4.53748 56.6234
6814153 9.64508 10.0655 19.1459 17.7209 -0.443874 4.54851 56.5775
6814162 9.64508 10.0655 19.1459 17.7209 -0.443874 4.54851 56.5775
6814172 9.68031 10.084 19.1164 17.643 -0.473143 4.51008 56.5236
6814196 9.62746 10.084 19.1558 17.6819 -0.449745 4.54285 56.5491
6814202 9.62746 10.0748 19.205 17.7404 -0.448953 4.5659 56.6476
6814212 9.62746 10.0748 19.205 17.7404 -0.448953 4.5659 56.6476
6814223 9.65389 9.95504 19.1853 17.6917 -0.527765 4.58558 56.4859
6814233 9.66269 10.0379 19.2148 17.6819 -0.511351 4.5575 56.5974
6814243 9.66269 10.0379 19.2148 17.6819 -0.511351 4.5575 56.5974
6814253 9.62746 9.98267 19.205 17.7501 -0.486001 4.59956 56.5652
6814264 9.57461 9.89057 19.2148 17.7404 -0.513317 4.64992 56.4204
6814273 9.57461 9.89057 19.2148 17.7404 -0.513317 4.64992 56.4204
6814284 9.5658 9.82611 19.2542 17.8086 -0.524886 4.69515 56.4547
6814293 9.5658 9.82611 19.2542 17.8086 -0.524886 4.69515 56.4547
6814307 9.59223 9.78927 19.2345 17.8476 -0.526844 4.7023 56.4636
6814313 9.55699 9.78927 19.3329 17.906 -0.52781 4.74312 56.5852
6814323 9.55699 9.78927 19.3329 17.906 -0.52781 4.74312 56.5852
6814335 9.61865 9.8169 19.2345 17.8865 -0.508223 4.69056 56.5566
6814343 9.60984 9.83532 19.3231 17.8086 -0.569591 4.68916 56.5769
6814354 9.60984 9.83532 19.3231 17.8086 -0.569591 4.68916 56.5769
6814363 9.62746 9.84453 19.3428 17.7307 -0.616789 4.6692 56.5454
6814383 9.60984 9.80769 19.2837 17.7794 -0.578301 4.68627 56.4806
6814399 9.62746 9.86295 19.2936 17.7599 -0.573981 4.65914 56.5439
6814405 9.62746 9.86295 19.2936 17.7599 -0.573981 4.65914 56.5439
6814415 9.64508 9.85374 19.2837 17.8183 -0.555083 4.6651 56.6009
6814425 9.65389 9.93662 19.2542 17.7696 -0.530714 4.61897 56.6143
6814436 9.65389 9.93662 19.2542 17.7696 -0.530714 4.61897 56.6143
6814447 9.68031 9.89057 19.2247 17.7989 -0.536954 4.62571 56.5944
6814456 9.68031 9.89057 19.2247 17.7989 -0.536954 4.62571 56.5944
6814467 9.62746 9.93662 19.3231 17.7696 -0.54906 4.64074 56.6568
6814476 9.68912 9.95504 19.205 17.7112 -0.542733 4.5806 56.5603
6814491 9.68912 9.95504 19.205 17.7112 -0.542733 4.5806 56.5603
6814496 9.70674 9.96425 19.1361 17.7014 -0.520776 4.5568 56.5085
6814506 9.68031 10.0195 19.0967 17.6819 -0.476094 4.53593 56.4785
6814526 9.75078 10.0655 19.1164 17.7209 -0.476888 4.50659 56.6536
6814537 9.75078 10.0655 19.1164 17.7209 -0.476888 4.50659 56.6536
6814546 9.75959 9.99187 19.1656 17.7112 -0.539547 4.53625 56.6282
6814559 9.72435 9.96425 19.2837 17.6722 -0.605366 4.57255 56.6445
6814566 9.72435 9.96425 19.2837 17.6722 -0.605366 4.57255 56.6445
6814582 9.71554 9.93662 19.1558 17.6332 -0.57646 4.55435 56.4412
6814586 9.71554 9.96425 19.2444 17.7014 -0.571394 4.57373 56.6256
6814606 9.74197 9.99187 19.2247 17.7014 -0.561829 4.55143 56.6599
6814617 9.74197 9.99187 19.2247 17.7014 -0.561829 4.55143 56.6599
6814630 9.66269 9.90899 19.1951 17.6332 -0.583155 4.58954 56.4001
6814645 9.72435 9.94583 19.2148 17.6722 -0.583984 4.56622 56.5572
6814653 9.72435 9.94583 19.2148 17.6722 -0.583984 4.56622 56.5572
6814671 9.74197 9.98267 19.2542 17.5943 -0.627168 4.54028 56.5731
6814678 9.72435 9.94583 19.2837 17.5748 -0.657836 4.56096 56.5287
6814679 9.72435 9.94583 19.2837 17.5748 -0.657836 4.56096 56.5287
6814689 9.69793 9.95504 19.2739 17.5845 -0.633608 4.5669 56.5114
6814708 9.70674 9.93662 19.2148 17.5943 -0.615859 4.56111 56.4524
6814718 9.72435 9.97346 19.3231 17.6138 -0.644588 4.56586 56.6347
6814728 9.72435 9.97346 19.3231 17.6138 -0.644588 4.56586 56.6347
6814738 9.72435 9.95504 19.2936 17.6527 -0.622581 4.57396 56.6257
6814750 9.74197 9.95504 19.3428 17.643 -0.655729 4.57514 56.6828
6814775 9.75078 10.0011 19.2542 17.5553 -0.640273 4.52367 56.5614
6814778 9.75078 10.0011 19.2542 17.5553 -0.640273 4.52367 56.5614
6814790 9.74197 9.96425 19.2542 17.5943 -0.635512 4.54664 56.5547
6814800 9.6715 10.0011 19.3329 17.5943 -0.622395 4.5728 56.5998
6814810 9.6715 10.0011 19.3329 17.5943 -0.622395 4.5728 56.5998
6814823 9.71554 9.96425 19.3034 17.5845 -0.649746 4.56307 56.5677
6814831 9.69793 9.90899 19.2542 17.565 -0.654879 4.57562 56.4262
6814840 9.69793 9.90899 19.2542 17.565 -0.654879 4.57562 56.4262
6814850 9.70674 9.96425 19.3329 17.604 -0.649831 4.57515 56.6079
6814861 9.70674 9.96425 19.3329 17.604 -0.649831 4.57515 56.6079
6814870 9.64508 9.85374 19.3526 17.6235 -0.673077 4.64205 56.4749
6814880 9.68912 9.9182 19.2542 17.5456 -0.655749 4.57188 56.4071
6814900 9.71554 9.9182 19.2542 17.565 -0.658292 4.56632 56.453
6814911 9.69793 9.92741 19.2345 17.4968 -0.669032 4.55297 56.3567
6814921 9.69793 9.92741 19.2345 17.4968 -0.669032 4.55297 56.3567
6814932 9.72435 10.0011 19.3133 17.5358 -0.663158 4.54011 56.5745
6814941 9.72435 10.0011 19.3133 17.5358 -0.663158 4.54011 56.5745
6814954 9.80363 9.96425 19.3526 17.5261 -0.735234 4.53094 56.6466
6814962 9.72435 9.98267 19.3133 17.5456 -0.667092 4.54828 56.5658
6814971 9.72435 9.98267 19.3133 17.5456 -0.667092 4.54828 56.5658
6814981 9.72435 9.99187 19.2739 17.5358 -0.650387 4.53601 56.5259
6814991 9.81244 10.0195 19.2345 17.5456 -0.654404 4.4906 56.612
6815001 9.81244 10.0195 19.2345 17.5456 -0.654404 4.4906 56.612
6815011 9.83886 10.0655 19.264 17.5163 -0.670826 4.46574 56.6848
6815025 9.83886 10.0655 19.264 17.5163 -0.670826 4.46574 56.6848
6815031 9.78601 10.0287 19.2247 17.4287 -0.687696 4.47296 56.468
6815047 9.87409 10.1392 19.1754 17.4481 -0.645423 4.39915 56.6369
6815051 9.87409 10.1392 19.1754 17.4481 -0.645423 4.39915 56.6369
6815062 9.86528 10.1576 19.077 17.4092 -0.608525 4.37007 56.5091
6815072 9.90933 10.13 19.0967 17.4092 -0.648528 4.36815 56.5452
6815082 9.90933 10.13 19.0967 17.4092 -0.648528 4.36815 56.5452
6815092 9.8829 10.1945 19.0869 17.3312 -0.639009 4.33859 56.4955
6815125 9.8829 10.2958 19.0869 17.302 -0.606346 4.29845 56.5675
6815132 9.8829 10.2958 19.0869 17.302 -0.606346 4.29845 56.5675
6815143 9.92694 10.2589 19.0081 17.2825 -0.616889 4.27737 56.4765
6815153 9.91813 10.2497 19.0376 17.2143 -0.66099 4.27618 56.4198
6815165 9.91813 10.2497 19.0376 17.2143 -0.66099 4.27618 56.4198
6815173 9.96218 10.3694 18.8703 17.2436 -0.54011 4.19402 56.4455
6815187 9.97098 10.3142 18.9392 17.2436 -0.598764 4.22299 56.4679
6815195 9.97098 10.3142 18.9392 17.2436 -0.598764 4.22299 56.4679
6815203 10.0062 10.3694 18.9195 17.2923 -0.558437 4.19778 56.5874
6815215 10.0062 10.3694 18.9195 17.2923 -0.558437 4.19778 56.5874
6815225 10.0326 10.3971 18.89 17.2533 -0.562218 4.16636 56.573
6815235 10.0238 10.3971 18.89 17.3117 -0.532027 4.18052 56.6226
6815245 10.0238 10.3971 18.89 17.3117 -0.532027 4.18052 56.6226
6815258 9.99741 10.4155 18.8112 17.2728 -0.495768 4.1607 56.4969
6815267 10.0503 10.3971 18.7915 17.1754 -0.562522 4.1265 56.4142
6815275 10.0503 10.3971 18.7915 17.1754 -0.562522 4.1265 56.4142
6815284 10.0767 10.4892 18.7423 17.1948 -0.502187 4.08066 56.503
6815294 10.0767 10.4892 18.7423 17.1948 -0.502187 4.08066 56.503
6815310 10.0943 10.4984 18.7915 17.1559 -0.544567 4.07359 56.5401
6815315 10.1383 10.5168 18.7226 17.1169 -0.543098 4.03164 56.4947
6815329 10.1383 10.5168 18.7226 17.1169 -0.543098 4.03164 56.4947
6815336 10.1383 10.5444 18.7522 17.0877 -0.556599 4.0224 56.5226
6815346 10.2 10.6181 18.6439 17 -0.542752 3.9387 56.462
6815366 10.3145 10.6733 18.634 16.981 -0.571635 3.87626 56.6029
6815377 10.3145 10.6733 18.634 16.981 -0.571635 3.87626 56.6029
6815386 10.3145 10.6457 18.5455 16.981 -0.54583 3.86804 56.4866
6815403 10.3321 10.6826 18.4765 16.9048 -0.541396 3.82119 56.396
6815406 10.3321 10.6826 18.4765 16.9048 -0.541396 3.82119 56.396
6815418 10.3497 10.747 18.5159 16.8191 -0.575693 3.78465 56.4318
6815429 10.4202 10.7562 18.4175 16.8572 -0.54217 3.74614 56.4511
6815454 10.4554 10.8575 18.4076 16.7906 -0.537485 3.68562 56.5112
6815457 10.4554 10.8575 18.4076 16.7906 -0.537485 3.68562 56.5112
6815467 10.4378 10.7839 18.3387 16.7144 -0.567864 3.68677 56.2749
6815480 10.4731 10.8115 18.2797 16.7525 -0.527698 3.6617 56.3167
6815487 10.4731 10.8115 18.2797 16.7525 -0.527698 3.6617 56.3167
6815504 10.5259 10.7746 18.319 16.7716 -0.575779 3.66814 56.3912
6815507 10.5083 10.8299 18.2305 16.724 -0.526214 3.62825 56.2926
6815528 10.5611 10.8667 18.2698 16.7716 -0.52802 3.61617 56.4693
6815554 10.5083 10.7746 18.3387 16.7906 -0.568043 3.68175 56.4123
6815558 10.5171 10.7746 18.3092 16.8096 -0.550441 3.67673 56.4106
6815568 10.5171 10.7746 18.3092 16.8096 -0.550441 3.67673 56.4106
6815581 10.5259 10.7746 18.2698 16.8001 -0.541496 3.66399 56.3705
6815588 10.4995 10.8299 18.2895 16.8096 -0.509258 3.66032 56.4285
6815608 10.4907 10.7746 18.3781 16.8763 -0.538698 3.71261 56.5197
6815620 10.4554 10.7746 18.3387 16.8763 -0.506365 3.71642 56.4451
6815630 10.4554 10.8023 18.3387 16.9048 -0.481001 3.71297 56.5013
6815640 10.4819 10.7931 18.3584 16.8572 -0.526635 3.70169 56.4906
6815654 10.4819 10.7931 18.3584 16.8572 -0.526635 3.70169 56.4906
6815663 10.4202 10.6918 18.4076 16.8477 -0.571419 3.76372 56.3673
6815670 10.3674 10.701 18.4667 16.9524 -0.522541 3.81079 56.4874
6815680 10.3674 10.701 18.4667 16.9524 -0.522541 3.81079 56.4874
6815691 10.3762 10.7194 18.5061 16.981 -0.522198 3.81517 56.5826
6815703 10.3762 10.7194 18.5061 16.981 -0.522198 3.81517 56.5826
6815710 10.3321 10.6549 18.4765 17 -0.510834 3.84925 56.4636
6815720 10.2793 10.6181 18.5061 17.0877 -0.477767 3.90231 56.4911
6815730 10.2793 10.6181 18.5061 17.0877 -0.477767 3.90231 56.4911
6815740 10.1824 10.5536 18.5848 17.0682 -0.507805 3.96806 56.389
6815753 10.1736 10.5352 18.6439 17.1851 -0.485142 4.01153 56.5378
6815770 10.0943 10.5352 18.6931 17.2241 -0.454549 4.05532 56.5467
6815791 10.015 10.3694 18.7423 17.2143 -0.520746 4.14587 56.3411
6815802 9.95337 10.4063 18.9097 17.3799 -0.475211 4.21805 56.6493
6815811 9.95337 10.4063 18.9097 17.3799 -0.475211 4.21805 56.6493
6815823 9.94456 10.3418 18.949 17.4092 -0.504294 4.25597 56.6446
6815831 9.84767 10.2681 18.9687 17.4968 -0.464556 4.3344 56.5814
6815851 9.84767 10.2958 18.9687 17.4579 -0.469658 4.31761 56.5701
6815862 9.70674 10.2958 19.0278 17.565 -0.385946 4.39709 56.5953
6815873 9.70674 10.2221 19.0278 17.565 -0.419037 4.42237 56.5217
6815882 9.71554 10.1392 19.1459 17.6235 -0.485106 4.48077 56.6242
6815896 9.71554 10.1392 19.1459 17.6235 -0.485106 4.48077 56.6242
6815903 9.60104 10.0932 19.2542 17.6819 -0.476825 4.56697 56.6304
6815912 9.54819 10.0287 19.3034 17.7599 -0.469191 4.63092 56.6402
6815922 9.54819 10.0287 19.3034 17.7599 -0.469191 4.63092 56.6402
6815933 9.53057 10.0287 19.3625 17.7891 -0.473997 4.65316 56.7109
6815945 9.50414 9.95504 19.4215 17.8865 -0.477438 4.71633 56.7673
6815957 9.50414 9.95504 19.4215 17.8865 -0.477438 4.71633 56.7673
6815968 9.42487 9.94583 19.4412 17.867 -0.464556 4.74715 56.679
6815973 9.42487 9.94583 19.4412 17.867 -0.464556 4.74715 56.679
6815983 9.31917 9.9182 19.6086 17.906 -0.486116 4.83081 56.752
6815993 9.31036 9.79848 19.579 17.9937 -0.483941 4.88621 56.6816
6816004 9.31036 9.79848 19.579 17.9937 -0.483941 4.88621 56.6816
6816015 9.25751 9.82611 19.5495 17.984 -0.440221 4.88806 56.6171
6816023 9.19586 9.79848 19.5889 18.0521 -0.412333 4.93862 56.6354
6816034 9.19586 9.79848 19.5889 18.0521 -0.412333 4.93862 56.6354
6816043 9.20466 9.74323 19.5692 18.0229 -0.445572 4.94629 56.54
6816063 9.16943 9.74323 19.5692 17.9547 -0.46099 4.9466 56.4366
6816083 9.17824 9.70639 19.5987 17.9937 -0.476687 4.96869 56.4771
6816093 9.19586 9.78006 19.6086 17.9255 -0.486133 4.92607 56.51
6816112 9.09016 9.73402 19.707 18.0619 -0.442302 5.0213 56.5931
6816117 9.09016 9.73402 19.707 18.0619 -0.442302 5.0213 56.5931
6816125 9.09896 9.72481 19.7267 18.0716 -0.454421 5.02663 56.6221
6816140 9.09896 9.72481 19.7267 18.0716 -0.454421 5.02663 56.6221
