12855705 10.5699 12.8191 16.9064 16.9714 1.01025 2.74736 57.2669
12855717 10.5699 12.8191 16.9064 16.9714 1.01025 2.74736 57.2669
12855725 10.5876 12.8743 16.9896 17.0195 1.00774 2.75283 57.471
12855737 10.5876 12.8743 16.9896 17.0195 1.00774 2.75283 57.471
12855744 10.5788 12.8651 16.9064 16.9619 1.02154 2.72834 57.3122
12855757 10.614 12.8467 16.948 16.9714 0.982979 2.73407 57.3801
12855766 10.614 12.8467 16.948 16.9714 0.982979 2.73407 57.3801
12855779 10.6492 12.9019 16.896 16.9619 1.0097 2.69298 57.4091
12855788 10.614 12.8375 17 16.9905 0.963572 2.75208 57.442
12855796 10.614 12.8375 17 16.9905 0.963572 2.75208 57.442
12855806 10.5964 12.8375 16.9688 16.9239 0.957742 2.73664 57.3265
12855826 10.5699 12.8375 16.9272 16.9048 0.980589 2.73184 57.2395
12855836 10.6228 12.8467 16.9584 16.9143 0.950354 2.72136 57.3422
12855848 10.6228 12.8467 16.9584 16.9143 0.950354 2.72136 57.3422
12855859 10.5964 12.8651 16.8856 16.8382 0.971097 2.69186 57.1853
12855866 10.6052 12.8467 16.9272 16.8572 0.948486 2.70787 57.2363
12855877 10.6052 12.8467 16.9272 16.8572 0.948486 2.70787 57.2363
12855887 10.6052 12.8467 16.948 16.8858 0.951061 2.71846 57.2857
12855898 10.5964 12.7822 16.9896 16.8287 0.885066 2.73782 57.1969
12855907 10.5964 12.7822 16.9896 16.8287 0.885066 2.73782 57.1969
12855917 10.5964 12.7914 17.0197 16.9429 0.923389 2.76583 57.3504
12855927 10.5964 12.7914 17.0197 16.9429 0.923389 2.76583 57.3504
12855937 10.5788 12.773 17.0492 16.9429 0.91027 2.78329 57.3439
12855947 10.5876 12.7638 16.9896 16.8953 0.909364 2.76054 57.2363
12855957 10.5876 12.7638 16.9896 16.8953 0.909364 2.76054 57.2363
12855967 10.6228 12.8006 16.948 16.8858 0.923732 2.72725 57.2572
12855977 10.6228 12.8006 16.948 16.8858 0.923732 2.72725 57.2572
12855987 10.5964 12.7822 17.0197 16.8287 0.871459 2.74427 57.227
12855997 10.6492 12.8099 17.0098 16.8572 0.8757 2.72336 57.3261
12856008 10.6492 12.8099 17.0098 16.8572 0.8757 2.72336 57.3261
12856018 10.6228 12.8006 16.9688 16.8287 0.890282 2.71947 57.2209
12856028 10.614 12.7822 17.0591 16.8382 0.849733 2.74927 57.2935
12856038 10.614 12.7822 17.0591 16.8382 0.849733 2.74927 57.2935
12856050 10.5699 12.7546 17.0591 16.9143 0.890052 2.78776 57.2979
12856058 10.5699 12.7546 17.0591 16.9143 0.890052 2.78776 57.2979
12856068 10.6316 12.6994 17.0886 16.8096 0.781414 2.76972 57.2292
12856079 10.6316 12.773 17.0689 16.9619 0.885531 2.77517 57.4355
12856091 10.6316 12.773 17.0689 16.9619 0.885531 2.77517 57.4355
12856099 10.5523 12.7362 17.0492 16.9143 0.894713 2.79685 57.2521
12856111 10.5523 12.6901 17.1673 16.981 0.850064 2.85042 57.3908
12856118 10.5523 12.6901 17.1673 16.981 0.850064 2.85042 57.3908
12856130 10.5699 12.7178 17.1378 16.9524 0.855038 2.82404 57.3779
12856138 10.5699 12.7178 17.1378 16.9524 0.855038 2.82404 57.3779
12856148 10.5083 12.6257 17.1772 16.9334 0.818232 2.87624 57.2445
12856158 10.5083 12.5981 17.2166 17.0097 0.82106 2.90933 57.3326
12856170 10.5083 12.5981 17.2166 17.0097 0.82106 2.90933 57.3326
12856178 10.4731 12.6073 17.2166 17.0487 0.857237 2.92567 57.3456
12856188 10.4731 12.5796 17.2658 17.0877 0.839838 2.95285 57.4061
12856198 10.4731 12.5796 17.2658 17.0877 0.839838 2.95285 57.4061
12856208 10.4026 12.5244 17.2756 17.1072 0.85209 2.99839 57.3098
12856228 10.4554 12.4691 17.2756 17.1461 0.821406 3.0073 57.3463
12856238 10.4819 12.4875 17.2658 17.1656 0.829914 2.99525 57.4008
12856248 10.4819 12.4875 17.2658 17.1656 0.829914 2.99525 57.4008
12856258 10.3674 12.506 17.2953 17.1559 0.871864 3.02956 57.3245
12856268 10.4202 12.377 17.315 17.1559 0.784773 3.05763 57.2681
12856295 10.4202 12.377 17.315 17.1559 0.784773 3.05763 57.2681
12856296 10.3321 12.3678 17.2953 17.2338 0.862411 3.10048 57.2291
12856299 10.3321 12.3678 17.2953 17.2338 0.862411 3.10048 57.2291
12856310 10.3233 12.3126 17.3347 17.3312 0.866377 3.14913 57.3018
12856320 10.3145 12.2849 17.3544 17.3312 0.849828 3.16474 57.285
12856340 10.2881 12.2757 17.443 17.3702 0.834343 3.20233 57.377
12856351 10.2352 12.2757 17.4528 17.3702 0.85372 3.22114 57.334
12856361 10.2352 12.2757 17.4528 17.3702 0.85372 3.22114 57.334
12856371 10.2793 12.2573 17.502 17.4287 0.828588 3.23508 57.4673
12856381 10.2793 12.2573 17.502 17.4287 0.828588 3.23508 57.4673
12856391 10.2264 12.2389 17.502 17.565 0.901878 3.28556 57.5324
12856401 10.2176 12.2113 17.5217 17.565 0.885403 3.30115 57.5156
12856421 10.1912 12.11 17.4725 17.5553 0.872847 3.3299 57.329
12856432 10.2 12.1836 17.4922 17.643 0.927714 3.3254 57.5188
12856441 10.2 12.1836 17.4922 17.643 0.927714 3.3254 57.5188
12856451 10.2 12.1376 17.5808 17.6625 0.876716 3.36196 57.5808
12856473 10.1031 12.0823 17.5414 17.6819 0.923106 3.40659 57.4088
12856483 10.0767 12.11 17.4922 17.7112 0.981125 3.40217 57.39
12856492 10.0767 12.11 17.4922 17.7112 0.981125 3.40217 57.39
12856502 10.0591 12.0823 17.4725 17.6819 0.974208 3.4068 57.2959
12856512 10.0767 12.0823 17.5119 17.7112 0.960651 3.41501 57.3821
12856525 10.0767 12.0823 17.5119 17.7112 0.960651 3.41501 57.3821
12856533 10.0415 12.0639 17.5119 17.7209 0.972965 3.43421 57.3382
12856544 10.015 12.0179 17.5512 17.7501 0.960049 3.47135 57.3343
12856553 10.015 12.0179 17.5512 17.7501 0.960049 3.47135 57.3343
12856566 10.0238 11.9902 17.6103 17.8573 0.962663 3.51073 57.4817
12856586 9.9886 11.9534 17.5709 17.906 1.00137 3.53584 57.419
12856593 9.97979 11.8982 17.7087 17.945 0.93627 3.5917 57.5317
12856613 9.97098 11.9534 17.6595 17.867 0.952965 3.55142 57.451
12856623 10.0062 11.9626 17.6694 17.8865 0.944623 3.54293 57.5247
12856633 10.0062 11.9626 17.6694 17.8865 0.944623 3.54293 57.5247
12856645 9.9886 11.8613 17.6398 17.8573 0.9112 3.56964 57.3471
12856655 9.9886 11.8613 17.6398 17.8573 0.9112 3.56964 57.3471
12856664 9.94456 11.9074 17.63 17.8378 0.946721 3.56314 57.3197
12856675 9.97979 11.935 17.5808 17.8768 0.98097 3.54076 57.3724
12856684 9.97979 11.935 17.5808 17.8768 0.98097 3.54076 57.3724
12856695 10.0238 11.9258 17.6103 17.8183 0.91933 3.52373 57.3783
12856704 9.93575 11.9074 17.6792 17.906 0.957027 3.58937 57.4283
12856716 9.93575 11.9074 17.6792 17.906 0.957027 3.58937 57.4283
12856725 9.9886 11.9258 17.7087 17.9158 0.93163 3.57413 57.5389
12856737 9.9886 11.9258 17.7087 17.9158 0.93163 3.57413 57.5389
12856744 9.97098 11.8982 17.6103 17.867 0.952071 3.55947 57.3465
12856755 9.95337 11.8337 17.7087 17.906 0.904849 3.6134 57.4018
12856765 9.95337 11.8337 17.7087 17.906 0.904849 3.6134 57.4018
12856776 9.97098 11.8889 17.6694 17.906 0.937843 3.58197 57.4353
12856796 9.97098 11.8613 17.6694 17.906 0.926262 3.59092 57.4077
12856805 9.93575 11.8429 17.7383 17.945 0.919682 3.62969 57.4619
12856824 9.93575 11.8521 17.6989 17.8086 0.884044 3.59182 57.2954
12856837 9.96218 11.8245 17.758 17.8476 0.850251 3.61169 57.3922
12856846 9.96218 11.8245 17.758 17.8476 0.850251 3.61169 57.3922
12856857 9.97098 11.8705 17.6792 17.8768 0.91342 3.58408 57.3975
12856866 9.97098 11.8705 17.7973 17.8768 0.860202 3.60753 57.5156
12856878 9.94456 11.8153 17.7973 17.7989 0.816059 3.61854 57.356
12856886 9.95337 11.8705 17.7973 17.8963 0.876299 3.61708 57.5175
12856896 9.95337 11.8705 17.7973 17.8963 0.876299 3.61708 57.5175
12856906 9.95337 11.8982 17.7481 17.7501 0.84866 3.56934 57.3498
12856915 9.94456 11.8705 17.7284 17.7891 0.866282 3.58499 57.3326
12856934 9.94456 11.8705 17.7284 17.7891 0.866282 3.58499 57.3326
12856936 10.0062 11.9166 17.7875 17.7989 0.835398 3.56384 57.5091
12856947 10.0062 11.8429 17.8072 17.6819 0.746208 3.5683 57.3382
12856967 10.0767 11.8429 17.8269 17.7209 0.722265 3.5572 57.4674
12856977 10.0767 11.8429 17.8269 17.7209 0.722265 3.5572 57.4674
12856987 9.95337 11.8337 17.8662 17.6722 0.735402 3.59824 57.3255
12856998 10.015 11.9166 17.8564 17.6722 0.747195 3.5495 57.4602
12857017 10.0238 11.8429 17.8269 17.7014 0.737712 3.5704 57.395
12857028 10.0943 11.8705 17.8367 17.604 0.672203 3.52123 57.4056
12857041 10.0943 11.8705 17.8367 17.604 0.672203 3.52123 57.4056
12857050 10.1119 11.8245 17.8367 17.6819 0.677836 3.54597 57.4551
12857058 10.1119 11.8245 17.8367 17.6819 0.677836 3.54597 57.4551
12857068 10.0943 11.8337 17.9056 17.6819 0.658834 3.5624 57.5156
12857079 10.0503 11.8889 17.9155 17.6235 0.672743 3.54911 57.4782
12857089 10.0503 11.8889 17.9155 17.6235 0.672743 3.54911 57.4782
12857100 10.0855 11.8429 17.8662 17.6527 0.671872 3.54861 57.4474
12857110 10.1031 11.9074 17.8958 17.6138 0.661615 3.52027 57.52
12857130 10.1383 11.8889 17.8466 17.5456 0.631154 3.49137 57.4194
12857143 10.0767 11.8521 17.7678 17.5066 0.66177 3.49952 57.2032
12857165 10.1119 11.8889 17.7776 17.5261 0.665504 3.48215 57.3046
12857181 10.1207 11.9166 17.8761 17.5261 0.629291 3.49016 57.4395
12857191 10.0855 11.8705 17.8367 17.5261 0.643072 3.50847 57.3188
12857201 10.0855 11.8705 17.8367 17.5261 0.643072 3.50847 57.3188
12857211 10.0679 11.8797 17.8466 17.5066 0.642183 3.50925 57.3008
12857221 10.0679 11.8705 17.8662 17.5845 0.662556 3.53177 57.3892
12857231 10.0679 11.8705 17.8662 17.5845 0.662556 3.53177 57.3892
12857241 10.0943 11.9166 17.8072 17.5748 0.692546 3.49463 57.3928
12857254 10.0943 11.9166 17.8072 17.5748 0.692546 3.49463 57.3928
12857261 10.0855 11.8982 17.7875 17.5553 0.689244 3.49555 57.3264
12857271 10.0943 11.9166 17.817 17.5943 0.696388 3.5005 57.4222
12857281 10.0943 11.9166 17.817 17.5943 0.696388 3.5005 57.4222
12857291 10.1648 11.9166 17.758 17.5456 0.670651 3.45618 57.3849
12857301 10.1648 11.9166 17.758 17.5456 0.670651 3.45618 57.3849
12857311 10.1031 11.9166 17.7383 17.5553 0.711221 3.47404 57.3133
12857321 10.0855 11.8982 17.758 17.5845 0.714868 3.49548 57.3261
12857331 10.0855 11.8982 17.758 17.5845 0.714868 3.49548 57.3261
12857342 10.1383 11.9258 17.7776 17.5553 0.681698 3.46764 57.3971
12857351 10.1207 11.9534 17.8072 17.565 0.692192 3.47231 57.4464
12857363 10.1207 11.9534 17.8072 17.565 0.692192 3.47231 57.4464
12857372 10.1383 11.9626 17.8564 17.5358 0.65386 3.46769 57.4932
12857392 10.1912 11.9626 17.8761 17.5358 0.621533 3.45468 57.5657
12857407 10.2 11.9534 17.7973 17.5066 0.636417 3.43312 57.4573
12857412 10.2 11.9534 17.7973 17.5066 0.636417 3.43312 57.4573
12857422 10.1383 11.935 17.8072 17.5553 0.672391 3.47061 57.4358
12857432 10.1824 11.9534 17.7678 17.4968 0.653335 3.43086 57.4005
12857442 10.1824 11.9534 17.7678 17.4968 0.653335 3.43086 57.4005
12857452 10.2176 11.9902 17.7875 17.4481 0.623778 3.40189 57.4435
12857463 10.2176 11.9902 17.7875 17.4481 0.623778 3.40189 57.4435
12857476 10.1207 11.8982 17.758 17.4579 0.645304 3.45864 57.2347
12857483 10.1648 11.9626 17.7776 17.5553 0.685477 3.44731 57.4603
12857496 10.1648 11.9626 17.7776 17.5553 0.685477 3.44731 57.4603
12857503 10.1119 11.9534 17.7481 17.5261 0.70608 3.45543 57.3395
12857517 10.0855 11.9442 17.7383 17.5163 0.71432 3.46297 57.2843
12857533 10.1912 12.0455 17.8072 17.4774 0.66258 3.40253 57.5212
12857562 10.1824 11.9718 17.7186 17.4481 0.662497 3.40517 57.3209
12857577 10.2088 11.9626 17.6595 17.4189 0.660786 3.38176 57.2499
12857583 10.2088 11.9626 17.6595 17.4189 0.660786 3.38176 57.2499
12857585 10.2617 11.9995 17.6398 17.4676 0.682247 3.3589 57.3686
12857593 10.2088 12.11 17.6497 17.4579 0.744152 3.34048 57.4263
12857607 10.2088 12.11 17.6497 17.4579 0.744152 3.34048 57.4263
12857613 10.2881 12.0731 17.6595 17.4189 0.6722 3.32102 57.4396
12857623 10.2881 12.0731 17.6595 17.4189 0.6722 3.32102 57.4396
12857633 10.2793 12.1928 17.5414 17.3312 0.742617 3.24367 57.3448
12857643 10.3057 12.2297 17.6005 17.3215 0.715753 3.23368 57.4573
12857664 10.3145 12.2389 17.4922 17.1851 0.706485 3.17763 57.2307
12857674 10.3585 12.3034 17.443 17.2338 0.756755 3.14313 57.3387
12857684 10.3585 12.3034 17.443 17.2338 0.756755 3.14313 57.3387
12857696 10.3497 12.2849 17.4725 17.1754 0.714904 3.14577 57.2825
12857703 10.3497 12.2849 17.4725 17.1754 0.714904 3.14577 57.2825
12857718 10.3674 12.3494 17.4725 17.1364 0.717804 3.11173 57.3256
12857724 10.3674 12.377 17.4036 17.1656 0.77281 3.09477 57.3136
12857744 10.4554 12.4139 17.4725 17.1461 0.709739 3.06568 57.4879
12857755 10.4466 12.4691 17.4036 17.0487 0.726718 3.01646 57.3681
12857767 10.4466 12.4691 17.4036 17.0487 0.726718 3.01646 57.3681
12857775 10.4907 12.506 17.3937 17.0292 0.718731 2.98496 57.4196
12857786 10.4907 12.506 17.3937 17.0292 0.718731 2.98496 57.4196
12857795 10.4819 12.5152 17.3347 17.0195 0.748938 2.97042 57.3512
12857808 10.4466 12.5428 17.3248 17.0487 0.793207 2.97686 57.363
12857815 10.4466 12.5428 17.3248 17.0487 0.793207 2.97686 57.363
12857825 10.5347 12.552 17.4134 17.039 0.713784 2.96294 57.5391
12857835 10.5347 12.4783 17.3544 16.981 0.684503 2.96145 57.3484
12857855 10.5435 12.5428 17.3248 16.9334 0.700939 2.92231 57.3445
12857866 10.5435 12.5428 17.3248 16.9334 0.700939 2.92231 57.3445
12857877 10.5171 12.552 17.2559 16.8858 0.727463 2.90311 57.2108
12857886 10.5611 12.6165 17.2166 16.8191 0.724447 2.84674 57.2133
12857897 10.5611 12.6165 17.2166 16.8191 0.724447 2.84674 57.2133
12857906 10.6668 12.6165 17.187 16.8287 0.694281 2.80957 57.299
12857919 10.5964 12.6533 17.1673 16.7144 0.701904 2.79149 57.1315
12857941 10.6316 12.6717 17.187 16.6859 0.67291 2.7729 57.1762
12857947 10.6316 12.6717 17.187 16.6859 0.67291 2.7729 57.1762
12857957 10.6404 12.6809 17.1477 16.7335 0.710782 2.76906 57.2025
12857967 10.7109 12.727 17.1673 16.7335 0.689864 2.73715 57.3387
12857988 10.7725 12.727 17.1477 16.8191 0.707343 2.7322 57.4663
12857998 10.7021 12.7362 17.1673 16.724 0.693682 2.73499 57.3296
12858007 10.7021 12.7362 17.1673 16.724 0.693682 2.73499 57.3296
12858017 10.7549 12.7914 17.1673 16.6859 0.677297 2.69345 57.3996
12858027 10.7549 12.7914 17.1673 16.6859 0.677297 2.69345 57.3996
12858037 10.7197 12.7454 17.1673 16.6859 0.673544 2.71854 57.3183
12858047 10.6933 12.7362 17.2264 16.743 0.679246 2.7544 57.3989
12858067 10.6933 12.6717 17.187 16.6954 0.649303 2.75579 57.2474
12858077 10.6933 12.6257 17.2067 16.8001 0.665411 2.79662 57.3258
12858088 10.6933 12.6257 17.2067 16.8001 0.665411 2.79662 57.3258
12858098 10.658 12.6073 17.2756 16.8858 0.678861 2.84609 57.4267
12858107 10.658 12.6073 17.2756 16.8858 0.678861 2.84609 57.4267
12858117 10.6228 12.552 17.3052 16.8858 0.657988 2.8805 57.3657
12858128 10.614 12.5704 17.2166 16.9143 0.721538 2.86481 57.3153
12858139 10.614 12.5704 17.2166 16.9143 0.721538 2.86481 57.3153
12858148 10.6228 12.552 17.2658 16.9334 0.695783 2.88223 57.374
12858158 10.5083 12.4691 17.3052 16.9524 0.702408 2.95627 57.235
12858178 10.5435 12.4691 17.3248 17 0.697955 2.95937 57.3375
12858188 10.5435 12.4691 17.3248 17 0.697955 2.95937 57.3375
12858201 10.4642 12.4231 17.3937 16.9905 0.679031 3.01116 57.2716
12858210 10.5083 12.4323 17.4233 17.0292 0.666434 3.00871 57.3931
12858227 10.5083 12.4323 17.4233 17.0292 0.666434 3.00871 57.3931
12858228 10.4466 12.4507 17.4627 17.0585 0.696585 3.03659 57.4184
12858238 10.4731 12.4599 17.3544 17.0877 0.749525 3.00891 57.375
12858248 10.4731 12.4599 17.3544 17.0877 0.749525 3.00891 57.375
12858261 10.5171 12.4323 17.4036 17.0682 0.687808 3.00997 57.4212
12858268 10.5171 12.4323 17.4036 17.0682 0.687808 3.00997 57.4212
12858280 10.4642 12.4231 17.3937 17.0682 0.711986 3.0274 57.3493
12858288 10.4642 12.4599 17.3937 17.1169 0.748163 3.02599 57.4348
12858308 10.5083 12.4139 17.3642 17.1559 0.738671 3.02859 57.4422
12858318 10.4995 12.4599 17.315 17.1559 0.784129 3.00664 57.4303
12858338 10.4554 12.4139 17.3642 17.039 0.712901 3.02079 57.2725
12858350 10.4554 12.4139 17.3642 17.039 0.712901 3.02079 57.2725
12858360 10.5083 12.3954 17.2461 17.0097 0.722018 2.97905 57.1596
12858370 10.4819 12.4875 17.2658 17.1461 0.821707 2.99117 57.3813
12858380 10.4819 12.4875 17.2658 17.1461 0.821707 2.99117 57.3813
12858391 10.5171 12.4691 17.2953 17.1169 0.772503 2.98597 57.3984
12858400 10.5171 12.4691 17.2756 17.1169 0.781348 2.98185 57.3787
12858412 10.4378 12.4415 17.2756 17.1559 0.821802 3.02356 57.3108
12858420 10.4554 12.4875 17.3052 17.1559 0.819987 3.00973 57.404
12858430 10.4554 12.4875 17.3052 17.1559 0.819987 3.00973 57.404
12858440 10.4907 12.4967 17.2658 17.1169 0.809306 2.97941 57.3701
12858450 10.4642 12.506 17.2756 17.1364 0.828862 2.99095 57.3822
12858460 10.4642 12.506 17.2756 17.1364 0.828862 2.99095 57.3822
12858470 10.5171 12.5612 17.2362 17.1754 0.862423 2.95703 57.4899
12858482 10.5171 12.5612 17.2362 17.1754 0.862423 2.95703 57.4899
12858490 10.4642 12.5336 17.1575 17.1364 0.893772 2.95751 57.2917
12858500 10.4731 12.552 17.1477 17.1364 0.901985 2.94691 57.3091
12858510 10.4731 12.552 17.1477 17.1364 0.901985 2.94691 57.3091
12858521 10.4378 12.5704 17.128 17.1461 0.938666 2.95008 57.2823
12858531 10.4995 12.5612 17.1378 17.2241 0.935167 2.95211 57.4226
12858540 10.4995 12.5612 17.1378 17.2241 0.935167 2.95211 57.4226
12858551 10.4819 12.5796 17.128 17.1754 0.934875 2.93956 57.3648
12858574 10.429 12.4875 17.2362 17.1266 0.850624 2.9975 57.2794
12858581 10.4995 12.4691 17.2166 17.1851 0.844595 2.98928 57.3703
12858602 10.4026 12.4875 17.1772 17.1266 0.889263 2.99342 57.194
12858612 10.4554 12.4967 17.2067 17.2046 0.888711 2.99645 57.3635
12858623 10.4554 12.4967 17.2067 17.2046 0.888711 2.99645 57.3635
12858632 10.3938 12.4875 17.187 17.2046 0.921601 3.01459 57.2729
12858642 10.4114 12.4415 17.2658 17.2338 0.870985 3.04608 57.3525
12858665 10.3409 12.4415 17.2953 17.2338 0.889465 3.07443 57.3115
12858673 10.3409 12.4415 17.2953 17.2338 0.889465 3.07443 57.3115
12858683 10.3585 12.3586 17.3052 17.3702 0.899556 3.12537 57.3925
12858694 10.3233 12.3678 17.3445 17.3994 0.913817 3.14777 57.4351
12858703 10.3233 12.3678 17.3445 17.3994 0.913817 3.14777 57.4351
12858714 10.2705 12.3678 17.4134 17.3897 0.902489 3.17667 57.4414
12858724 10.3145 12.2481 17.3642 17.4092 0.8627 3.19453 57.336
12858733 10.3145 12.2481 17.3642 17.4092 0.8627 3.19453 57.336
12858743 10.3321 12.2941 17.443 17.341 0.809976 3.17653 57.4102
12858753 10.3321 12.2941 17.443 17.341 0.809976 3.17653 57.4102
12858763 10.3145 12.2297 17.4036 17.3994 0.833088 3.20647 57.3472
12858773 10.3057 12.2573 17.4331 17.4871 0.872254 3.22456 57.4832
12858783 10.3057 12.2573 17.4331 17.4871 0.872254 3.22456 57.4832
12858793 10.3233 12.2573 17.4036 17.4287 0.853059 3.20092 57.4129
12858803 10.2528 12.2021 17.4823 17.4774 0.846577 3.26697 57.4146
12858830 10.2617 12.2205 17.4331 17.4871 0.87662 3.25024 57.4024
12858848 10.2352 12.2297 17.3937 17.4774 0.906092 3.24565 57.336
12858861 10.2352 12.2113 17.4233 17.4968 0.893205 3.26156 57.3666
12858873 10.2264 12.1928 17.4331 17.5261 0.897279 3.27821 57.3785
12858886 10.2705 12.1744 17.4331 17.4968 0.857386 3.26408 57.3749
12858910 10.2264 12.1836 17.4528 17.5358 0.888619 3.28715 57.3987
12858917 10.2264 12.1836 17.4528 17.5358 0.888619 3.28715 57.3987
12858925 10.2176 12.156 17.5414 17.604 0.869715 3.33067 57.519
12858935 10.2264 12.156 17.6005 17.6138 0.843313 3.3418 57.5967
12858945 10.2264 12.156 17.6005 17.6138 0.843313 3.3418 57.5967
12858955 10.1736 12.1376 17.6103 17.6235 0.85898 3.36849 57.545
12858965 10.156 12.1008 17.5512 17.5845 0.861651 3.36605 57.3925
12858980 10.156 12.1008 17.5512 17.5845 0.861651 3.36605 57.3925
12858984 10.1824 12.1008 17.5316 17.604 0.866804 3.35755 57.4187
12858995 10.1824 12.1008 17.5316 17.604 0.866804 3.35755 57.4187
12859006 10.1295 12.0731 17.5316 17.6235 0.887209 3.38727 57.3577
12859014 10.1031 12.0087 17.6398 17.6527 0.835496 3.4442 57.4043
12859036 10.156 12.0179 17.5611 17.7112 0.875604 3.42019 57.4461
12859047 10.156 12.0179 17.5414 17.7599 0.904915 3.42603 57.4751
12859056 10.156 11.9902 17.5414 17.7599 0.893328 3.4349 57.4475
12859069 10.1472 11.8982 17.6595 17.7014 0.7808 3.47932 57.4063
12859077 10.1472 11.8982 17.6595 17.7014 0.7808 3.47932 57.4063
12859089 10.1031 11.9995 17.63 17.7209 0.864732 3.45889 57.4535
12859096 10.1383 11.9166 17.7284 17.7307 0.773928 3.49589 57.514
12859116 10.1119 11.8797 17.7186 17.8086 0.807488 3.52985 57.5188
12859126 10.1119 11.9074 17.7481 17.8378 0.818136 3.53266 57.6052
12859136 10.1119 11.9074 17.7481 17.8378 0.818136 3.53266 57.6052
12859146 10.015 11.8153 17.7383 17.8865 0.84784 3.60138 57.4551
12859166 9.99741 11.7969 17.8269 17.8768 0.804105 3.62867 57.4979
12859177 10.0326 11.8153 17.7678 17.906 0.834835 3.60539 57.5217
12859187 10.0326 11.8153 17.7678 17.906 0.834835 3.60539 57.5217
12859197 9.97098 11.8245 17.8269 17.8476 0.815296 3.62249 57.4699
12859207 10.0679 11.8061 17.7973 17.7696 0.744453 3.57577 57.4409
12859217 10.0679 11.8061 17.7973 17.7696 0.744453 3.57577 57.4409
12859227 10.0855 11.8429 17.7678 17.8183 0.785866 3.56199 57.5145
12859238 10.0855 11.8429 17.7678 17.8183 0.785866 3.56199 57.5145
12859248 10.0679 11.8245 17.7481 17.7599 0.770193 3.55807 57.4004
12859259 10.0503 11.8705 17.7678 17.7501 0.784582 3.55087 57.4387
12859268 10.0503 11.8705 17.7678 17.7501 0.784582 3.55087 57.4387
12859280 10.0503 11.8337 17.7383 17.7112 0.765842 3.54911 57.3334
12859288 10.0503 11.8889 17.7087 17.7209 0.806564 3.52729 57.3689
12859302 10.0503 11.8889 17.7087 17.7209 0.806564 3.52729 57.3689
12859308 10.1207 11.8429 17.63 17.6332 0.753763 3.48602 57.2269
12859318 10.1207 11.8429 17.63 17.6332 0.753763 3.48602 57.2269
12859328 10.0943 11.9442 17.6103 17.643 0.821486 3.45986 57.2918
12859344 10.0767 11.8982 17.6497 17.604 0.775751 3.48048 57.2285
12859348 10.0767 11.8982 17.6497 17.604 0.775751 3.48048 57.2285
12859358 10.1736 11.9442 17.6497 17.643 0.768122 3.44229 57.4104
12859368 10.1824 11.9534 17.6792 17.604 0.738356 3.4346 57.419
12859378 10.1824 11.9534 17.6792 17.604 0.738356 3.4346 57.419
12859388 10.2088 12.0087 17.6595 17.5748 0.746331 3.39855 57.4518
12859408 10.1736 12.0087 17.5709 17.5358 0.785482 3.38403 57.289
12859418 10.1912 11.9995 17.6398 17.4481 0.70557 3.37752 57.2786
12859430 10.1912 11.9995 17.6398 17.4481 0.70557 3.37752 57.2786
12859442 10.2528 12.0731 17.6202 17.4189 0.705588 3.32426 57.365
12859451 10.2352 12.1192 17.5808 17.4481 0.762984 3.31312 57.3833
12859476 10.2793 12.1284 17.5217 17.4774 0.785953 3.29005 57.4067
12859493 10.2528 12.0731 17.6497 17.5066 0.729439 3.34807 57.4823
12859501 10.2176 12.1376 17.6005 17.4384 0.765717 3.31488 57.3941
12859513 10.2176 12.1376 17.6005 17.4384 0.765717 3.31488 57.3941
12859521 10.2705 12.0455 17.6497 17.4384 0.681028 3.33742 57.404
12859532 10.1912 12.11 17.7186 17.4579 0.721183 3.36009 57.4776
12859541 10.1912 12.11 17.7186 17.4579 0.721183 3.36009 57.4776
12859552 10.244 12.0823 17.6497 17.4579 0.716692 3.33805 57.4339
12859561 10.244 12.0823 17.6497 17.4579 0.716692 3.33805 57.4339
12859572 10.2088 11.9995 17.6792 17.4287 0.67175 3.37591 57.3161
12859582 10.2617 12.0639 17.6398 17.5066 0.726011 3.3462 57.472
12859602 10.2176 12.0087 17.6989 17.5456 0.71241 3.39777 57.4707
12859612 10.1824 11.9995 17.6694 17.5553 0.741643 3.40802 57.4065
12859622 10.1824 11.9995 17.6694 17.5553 0.741643 3.40802 57.4065
12859634 10.2793 12.0639 17.6497 17.5456 0.730175 3.35047 57.5384
12859644 10.2793 12.0639 17.6497 17.5456 0.730175 3.35047 57.5384
12859652 10.2793 12.0731 17.6202 17.4968 0.726715 3.33167 57.4694
12859662 10.2528 12.1008 17.5119 17.4774 0.790596 3.30528 57.3428
12859673 10.2528 12.1008 17.5119 17.4774 0.790596 3.30528 57.3428
12859684 10.2176 12.0823 17.5512 17.3605 0.731465 3.3066 57.2117
12859693 10.2352 12.1008 17.5217 17.3702 0.748765 3.29103 57.2279
12859705 10.2352 12.1008 17.5217 17.3702 0.748765 3.29103 57.2279
12859713 10.2705 12.156 17.5316 17.3215 0.731272 3.25419 57.2795
12859726 10.2705 12.156 17.5316 17.3215 0.731272 3.25419 57.2795
12859733 10.2528 12.156 17.4823 17.3215 0.76133 3.24971 57.2127
12859743 10.3321 12.156 17.5316 17.4384 0.753039 3.2585 57.4581
12859754 10.3321 12.156 17.5316 17.4384 0.753039 3.2585 57.4581
12859763 10.3321 12.2205 17.5512 17.3312 0.726187 3.22013 57.4351
12859773 10.3497 12.2113 17.5119 17.2923 0.715557 3.20137 57.3651
12859793 10.3585 12.3494 17.5217 17.2143 0.732657 3.14082 57.444
12859806 10.3762 12.2665 17.4233 17.1948 0.725594 3.13707 57.2608
12859815 10.3762 12.2665 17.4233 17.1948 0.725594 3.13707 57.2608
12859827 10.3762 12.2757 17.502 17.1948 0.694165 3.15045 57.3488
12859845 10.2881 12.2757 17.5512 17.2241 0.723973 3.19455 57.3391
12859856 10.3409 12.1928 17.5611 17.2046 0.652456 3.2021 57.2995
12859865 10.3409 12.1928 17.5611 17.2046 0.652456 3.2021 57.2995
12859875 10.3762 12.1376 17.5316 17.2533 0.647122 3.2124 57.2986
12859885 10.3145 12.156 17.63 17.4189 0.70864 3.28021 57.5194
12859906 10.2969 12.1928 17.63 17.3994 0.723842 3.27013 57.5192
12859926 10.2617 12.1284 17.6497 17.4092 0.707677 3.30785 57.4489
12859937 10.2969 12.1652 17.6497 17.4092 0.707489 3.28491 57.521
12859946 10.2969 12.1652 17.6497 17.4092 0.707489 3.28491 57.521
12859961 10.2088 12.11 17.6398 17.3799 0.715604 3.32263 57.3386
12859968 10.2264 12.0455 17.6497 17.4287 0.69662 3.34952 57.3503
12859977 10.2264 12.0455 17.6497 17.4287 0.69662 3.34952 57.3503
12859987 10.1912 12.0087 17.6497 17.4092 0.688526 3.36866 57.2587
12860000 10.1912 12.0087 17.6497 17.4092 0.688526 3.36866 57.2587
12860007 10.1383 11.9902 17.6005 17.4774 0.755513 3.3954 57.2064
12860017 10.1648 12.0455 17.6595 17.5261 0.761068 3.39101 57.3959
12860027 10.1648 12.0455 17.6595 17.5261 0.761068 3.39101 57.3959
12860037 10.1736 12.0731 17.6497 17.4384 0.736144 3.35957 57.3348
12860048 10.1472 12.0087 17.6792 17.4871 0.728083 3.40458 57.3221
12860073 10.1912 12.0179 17.6792 17.4676 0.703976 3.38355 57.3559
12860077 10.1912 12.0179 17.6792 17.4676 0.703976 3.38355 57.3559
12860088 10.1912 12.0087 17.7186 17.5066 0.698942 3.40234 57.425
12860097 10.1736 11.9902 17.7481 17.5066 0.685817 3.41986 57.4185
12860142 10.1031 11.9166 17.6398 17.5845 0.767836 3.4601 57.244
12860144 10.1031 11.9166 17.6398 17.5845 0.767836 3.4601 57.244
12860147 10.1824 11.9718 17.7186 17.5748 0.71615 3.43073 57.4476
12860169 10.1472 11.9166 17.6694 17.5845 0.734761 3.45187 57.3176
12860178 10.1472 11.9902 17.7481 17.6527 0.759366 3.45773 57.5382
12860199 10.156 11.9442 17.7186 17.6722 0.75745 3.46767 57.491
12860211 10.1648 11.9074 17.7678 17.604 0.687107 3.47287 57.444
12860235 10.156 11.9258 17.7481 17.6235 0.715888 3.46974 57.4534
12860240 10.156 11.9258 17.7481 17.6235 0.715888 3.46974 57.4534
12860250 10.1824 11.9626 17.6891 17.565 0.721365 3.42577 57.3991
12860260 10.1736 11.9626 17.6989 17.6138 0.741485 3.4404 57.4489
12860282 10.1648 12.0455 17.6595 17.5553 0.773403 3.39692 57.4251
12860290 10.1648 11.981 17.7284 17.565 0.719404 3.43345 57.4393
12860300 10.1648 11.981 17.7284 17.565 0.719404 3.43345 57.4393
12860310 10.1824 12.0639 17.6595 17.5358 0.765052 3.38144 57.4416
12860320 10.1824 12.0639 17.6595 17.5358 0.765052 3.38144 57.4416
12860330 10.2088 12.0087 17.6202 17.4968 0.731042 3.37481 57.3345
12860340 10.2088 12.0731 17.6202 17.4774 0.750065 3.35022 57.3795
12860354 10.2088 12.0731 17.6202 17.4774 0.750065 3.35022 57.3795
12860360 10.3233 12.0823 17.5611 17.5358 0.753772 3.31061 57.5026
12860370 10.2264 12.0271 17.5316 17.4871 0.766608 3.34329 57.2722
12860380 10.2264 12.0271 17.5316 17.4871 0.766608 3.34329 57.2722
12860390 10.2088 12.0639 17.63 17.565 0.778767 3.37293 57.4678
12860400 10.2088 12.0639 17.63 17.565 0.778767 3.37293 57.4678
12860410 10.2176 12.0455 17.5808 17.4774 0.752109 3.34824 57.3213
12860425 10.3057 12.0547 17.6103 17.4676 0.699154 3.32117 57.4383
12860430 10.3057 12.0547 17.6103 17.4676 0.699154 3.32117 57.4383
12860440 10.2705 12.0823 17.5414 17.4092 0.732785 3.29765 57.3034
12860450 10.2705 12.0823 17.5414 17.4092 0.732785 3.29765 57.3034
12860460 10.2881 12.1284 17.5217 17.4287 0.761434 3.2773 57.3668
12860470 10.3057 12.1468 17.5217 17.3897 0.744841 3.25786 57.3639
12860494 10.3762 12.2021 17.502 17.341 0.724837 3.2039 57.4212
12860501 10.3409 12.1928 17.4627 17.341 0.75441 3.20991 57.3374
12860510 10.3409 12.1928 17.4627 17.341 0.75441 3.20991 57.3374
12860519 10.3585 12.2297 17.4036 17.2923 0.768021 3.17042 57.2841
12860530 10.3585 12.2297 17.4036 17.2923 0.768021 3.17042 57.2841
12860540 10.4114 12.2297 17.3347 17.2533 0.758749 3.13134 57.2291
12860550 10.4554 12.3494 17.4134 17.2143 0.737762 3.08786 57.4326
12860571 10.4642 12.4047 17.3347 17.1559 0.767788 3.03916 57.3595
12860581 10.429 12.4139 17.3248 17.1461 0.78783 3.04326 57.3139
12860601 10.5171 12.4047 17.3741 17.1851 0.73877 3.03685 57.4809
12860612 10.4731 12.3126 17.2559 17.2338 0.793266 3.06522 57.2754
12860621 10.4731 12.3126 17.2559 17.2338 0.793266 3.06522 57.2754
12860635 10.4466 12.3678 17.3642 17.263 0.79211 3.08472 57.4417
12860651 10.4202 12.3586 17.3839 17.1948 0.762472 3.08589 57.3576
12860662 10.4554 12.4415 17.3445 17.1948 0.799307 3.04053 57.4363
12860672 10.4554 12.4415 17.3445 17.1948 0.799307 3.04053 57.4363
12860682 10.4731 12.4599 17.3347 17.1754 0.795367 3.0231 57.443
12860705 10.4819 12.4231 17.2362 17.1072 0.791344 2.99706 57.2484
12860712 10.5699 12.4691 17.2658 17.0585 0.737342 2.95097 57.3633
12860732 10.5259 12.4415 17.1969 16.9905 0.747618 2.94462 57.1548
12860742 10.5523 12.4967 17.2461 16.9524 0.720876 2.92137 57.2476
12860757 10.5523 12.4967 17.2461 16.9524 0.720876 2.92137 57.2476
12860766 10.5435 12.506 17.1772 17.0097 0.784025 2.9188 57.2364
12860775 10.5611 12.5152 17.2264 16.981 0.745669 2.91472 57.2837
12860783 10.5611 12.5152 17.2264 16.981 0.745669 2.91472 57.2837
12860795 10.5876 12.5428 17.1969 17.0292 0.779155 2.90178 57.3565
12860805 10.5876 12.5428 17.1969 17.0292 0.779155 2.90178 57.3565
12860815 10.5876 12.506 17.1772 17.0585 0.784793 2.9153 57.3292
12860823 10.5611 12.552 17.2067 17.039 0.794607 2.91129 57.3588
12860836 10.5611 12.552 17.2067 17.039 0.794607 2.91129 57.3588
12860843 10.6228 12.4875 17.2067 16.9524 0.703007 2.8939 57.2695
12860853 10.6228 12.5796 17.1575 16.9714 0.772169 2.85878 57.3314
12860863 10.6228 12.5796 17.1575 16.9714 0.772169 2.85878 57.3314
12860874 10.6316 12.5796 17.1969 16.9334 0.734425 2.85631 57.3415
12860894 10.5876 12.5428 17.1969 16.9334 0.738609 2.88153 57.2606
12860905 10.658 12.6349 17.1673 16.9239 0.755161 2.82263 57.3841
12860916 10.658 12.6349 17.1673 16.9239 0.755161 2.82263 57.3841
12860925 10.5876 12.6257 17.1083 16.9429 0.817576 2.83892 57.2644
12860935 10.6316 12.5796 17.1673 16.8858 0.727531 2.83996 57.2644
12860945 10.6316 12.5796 17.1673 16.8858 0.727531 2.83996 57.2644
12860955 10.5788 12.6349 17.1673 16.9143 0.786766 2.84527 57.2953
12860966 10.5788 12.6349 17.1673 16.9143 0.786766 2.84527 57.2953
12860975 10.6756 12.6073 17.0984 16.8763 0.746378 2.80097 57.2576
12860986 10.658 12.6809 17.1575 16.8953 0.766969 2.80019 57.3918
12861007 10.6316 12.6809 17.0886 16.8382 0.785702 2.78154 57.2393
12861016 10.6316 12.6717 17.1181 16.9048 0.79667 2.80489 57.3263
12861028 10.6316 12.6717 17.1181 16.9048 0.79667 2.80489 57.3263
12861036 10.6316 12.6533 17.1378 16.8477 0.755882 2.80265 57.2704
12861049 10.6316 12.6533 17.1378 16.8477 0.755882 2.80265 57.2704
12861056 10.658 12.6809 17.0984 16.8382 0.769371 2.77544 57.2756
12861069 10.6052 12.6257 17.0984 16.8477 0.773811 2.81108 57.177
12861086 10.6404 12.6717 17.1772 16.8763 0.754103 2.80865 57.3656
12861096 10.6756 12.6257 17.1378 16.8191 0.712284 2.79147 57.2583
12861106 10.6756 12.6257 17.1378 16.8191 0.712284 2.79147 57.2583
12861117 10.658 12.5981 17.1575 16.8477 0.711748 2.81581 57.2613
12861127 10.658 12.5981 17.1575 16.8477 0.711748 2.81581 57.2613
12861139 10.6933 12.6073 17.1772 16.8572 0.695053 2.80821 57.3349
12861147 10.6668 12.6257 17.2067 16.8953 0.717583 2.82505 57.3945
12861170 10.6933 12.6625 17.1083 16.9239 0.777528 2.79058 57.3879
12861177 10.7021 12.6717 17.1575 16.8382 0.719169 2.77723 57.3695
12861187 10.7021 12.6717 17.1575 16.8382 0.719169 2.77723 57.3695
12861197 10.6933 12.7546 17.1477 16.8382 0.762564 2.75221 57.4337
12861207 10.6933 12.7546 17.1477 16.8382 0.762564 2.75221 57.4337
12861218 10.7021 12.6533 17.1575 16.8287 0.70734 2.78091 57.3415
12861230 10.6492 12.6073 17.1083 16.8287 0.733659 2.80114 57.1934
12861238 10.6492 12.6073 17.1083 16.8287 0.733659 2.80114 57.1934
12861248 10.6756 12.6533 17.1772 16.8858 0.734532 2.80545 57.3919
12861258 10.658 12.6257 17.1575 16.9048 0.747639 2.81936 57.346
12861268 10.658 12.6257 17.1575 16.9048 0.747639 2.81936 57.346
12861278 10.6668 12.6533 17.1378 16.9048 0.764203 2.80386 57.3628
12861289 10.6668 12.6533 17.1378 16.9048 0.764203 2.80386 57.3628
12861298 10.658 12.6257 17.1575 16.8763 0.735554 2.81329 57.3175
12861310 10.6404 12.6073 17.187 16.9334 0.746578 2.84289 57.3681
12861321 10.6404 12.6073 17.187 16.9334 0.746578 2.84289 57.3681
12861332 10.6316 12.6441 17.1772 16.8667 0.742349 2.81794 57.3196
12861338 10.6228 12.5612 17.2559 16.8667 0.675845 2.86319 57.3067
12861349 10.6228 12.5612 17.2559 16.8667 0.675845 2.86319 57.3067
12861358 10.614 12.5796 17.2264 16.9239 0.725052 2.86603 57.3439
12861368 10.614 12.5796 17.2264 16.9239 0.725052 2.86603 57.3439
12861378 10.614 12.5428 17.2362 16.9524 0.71713 2.88564 57.3454
12861388 10.614 12.5428 17.3248 17.0292 0.709951 2.92048 57.5108
12861418 10.5435 12.4967 17.2658 16.9905 0.732124 2.9363 57.2965
12861419 10.5347 12.4691 17.1969 17.039 0.775906 2.94341 57.2397
12861429 10.5347 12.4691 17.1969 17.039 0.775906 2.94341 57.2397
12861440 10.6316 12.4783 17.315 17.0292 0.679216 2.93302 57.4542
12861449 10.6316 12.4783 17.315 17.0292 0.679216 2.93302 57.4542
12861463 10.5083 12.4323 17.2658 17.039 0.741193 2.97776 57.2453
12861470 10.5083 12.4599 17.2067 16.9905 0.758934 2.94645 57.1654
12861480 10.5083 12.4599 17.2067 16.9905 0.758934 2.94645 57.1654
12861490 10.5523 12.4323 17.2855 17.039 0.712568 2.96807 57.3091
12861500 10.429 12.3954 17.3248 17.0974 0.759438 3.0389 57.2467
12861510 10.429 12.3954 17.3248 17.0974 0.759438 3.0389 57.2467
12861520 10.4731 12.4047 17.315 17.1754 0.780907 3.03635 57.3681
12861530 10.4731 12.4047 17.315 17.1754 0.780907 3.03635 57.3681
12861544 10.4202 12.3218 17.3445 17.2046 0.768718 3.09135 57.2911
12861551 10.429 12.4231 17.3445 17.2923 0.844422 3.07486 57.4889
12861561 10.429 12.4231 17.3445 17.2923 0.844422 3.07486 57.4889
12861571 10.4642 12.3494 17.3642 17.2143 0.755882 3.07487 57.3922
12861581 10.4466 12.3862 17.3052 17.1948 0.797665 3.05247 57.3329
12861592 10.4466 12.3862 17.3052 17.1948 0.797665 3.05247 57.3329
12861602 10.3938 12.331 17.2953 17.2825 0.839582 3.10275 57.3026
12861612 10.3938 12.331 17.2953 17.2825 0.839582 3.10275 57.3026
12861622 10.3497 12.2849 17.3248 17.3215 0.843143 3.14545 57.281
12861635 10.3762 12.2665 17.3052 17.4384 0.881571 3.163 57.3862
12861642 10.3762 12.2665 17.3052 17.4384 0.881571 3.163 57.3862
12861653 10.3409 12.2849 17.3052 17.5163 0.937897 3.18438 57.4474
12861662 10.3145 12.2849 17.3052 17.565 0.970218 3.20275 57.4696
12861673 10.3145 12.2849 17.3052 17.565 0.970218 3.20275 57.4696
12861682 10.3145 12.2941 17.3741 17.604 0.959244 3.22194 57.5867
12861695 10.3145 12.2941 17.3741 17.604 0.959244 3.22194 57.5867
12861702 10.2881 12.2665 17.3248 17.5553 0.96148 3.21901 57.4347
12861716 10.2264 12.2389 17.3248 17.5553 0.977814 3.24738 57.3455
12861722 10.2264 12.2389 17.3248 17.5553 0.977814 3.24738 57.3455
12861732 10.2 12.2573 17.3347 17.5456 0.98896 3.24994 57.3376
12861742 10.2264 12.2021 17.2855 17.6138 1.00471 3.26301 57.3277
12861762 10.2 12.2205 17.3544 17.6332 1.00131 3.28363 57.4081
12861773 10.2 12.2205 17.3544 17.6332 1.00131 3.28363 57.4081
12861784 10.0855 12.1652 17.3248 17.6625 1.05583 3.3378 57.238
12861793 10.1207 12.1376 17.2658 17.7696 1.09991 3.34515 57.2937
12861813 10.1207 12.1744 17.3347 17.7112 1.05954 3.33549 57.341
12861823 10.1472 12.1652 17.3544 17.7599 1.05508 3.34389 57.4266
12861843 10.2088 12.1836 17.3642 17.7307 1.01817 3.31441 57.4873
12861865 10.2 12.0823 17.2953 17.7209 1.00698 3.33356 57.2986
12861875 10.2176 12.1744 17.315 17.7014 1.02043 3.29857 57.4085
12861888 10.2176 12.1744 17.315 17.7014 1.02043 3.29857 57.4085
12861895 10.1472 12.1468 17.3248 17.6625 1.02009 3.32395 57.2813
12861905 10.2352 12.2481 17.2855 17.5943 1.01183 3.24156 57.3631
12861925 10.2528 12.3218 17.2855 17.604 1.03868 3.21458 57.4641
12861945 10.2352 12.2757 17.2067 17.5553 1.04285 3.20859 57.273
12861958 10.2969 12.3126 17.2264 17.5261 1.00909 3.17537 57.3619
12861965 10.2969 12.3126 17.2264 17.5261 1.00909 3.17537 57.3619
12861984 10.2793 12.331 17.2166 17.4774 1.00888 3.16303 57.3042
12861987 10.3674 12.3862 17.187 17.4676 1.00137 3.10958 57.4082
12861996 10.3674 12.3862 17.187 17.4676 1.00137 3.10958 57.4082
12862006 10.3497 12.3402 17.2166 17.3215 0.915369 3.1055 57.228
12862016 10.3233 12.2389 17.2362 17.4287 0.920886 3.17228 57.2271
12862026 10.3233 12.2389 17.2362 17.4287 0.920886 3.17228 57.2271
12862036 10.3145 12.3218 17.2855 17.4579 0.949675 3.16499 57.3796
12862058 10.2881 12.331 17.2166 17.4287 0.984469 3.15017 57.2643
12862067 10.3145 12.3586 17.2756 17.3215 0.91233 3.12309 57.2702
12862077 10.3145 12.3586 17.2756 17.3215 0.91233 3.12309 57.2702
12862090 10.3585 12.3954 17.2756 17.4189 0.948757 3.11771 57.4485
12862097 10.3497 12.3862 17.2658 17.3605 0.928825 3.10925 57.3622
12862107 10.3497 12.3862 17.2658 17.3605 0.928825 3.10925 57.3622
12862118 10.4554 12.4323 17.2756 17.3312 0.883758 3.05745 57.4946
12862137 10.3409 12.3954 17.3052 17.3117 0.89843 3.10719 57.3533
12862148 10.3585 12.3494 17.2362 17.3507 0.918633 3.10996 57.2949
12862162 10.3585 12.3494 17.2362 17.3507 0.918633 3.10996 57.2949
12862168 10.4026 12.3494 17.315 17.2923 0.838608 3.10027 57.3593
12862185 10.3938 12.3678 17.3052 17.2533 0.838357 3.0871 57.3201
12862190 10.3938 12.3678 17.3052 17.2533 0.838357 3.0871 57.3201
12862198 10.385 12.3034 17.2953 17.2241 0.807211 3.10213 57.2077
12862209 10.385 12.3034 17.2953 17.2241 0.807211 3.10213 57.2077
12862218 10.3497 12.2941 17.3445 17.2436 0.805247 3.13047 57.232
12862232 10.3585 12.2849 17.3445 17.302 0.822076 3.1427 57.29
12862238 10.3585 12.2849 17.3445 17.302 0.822076 3.1427 57.29
12862248 10.3938 12.2757 17.3445 17.2338 0.773492 3.12033 57.2479
12862258 10.3497 12.2665 17.3642 17.3897 0.846368 3.17351 57.3702
12862271 10.3497 12.2665 17.3642 17.3897 0.846368 3.17351 57.3702
12862278 10.4378 12.2757 17.4134 17.3312 0.763905 3.14083 57.4582
12862293 10.4378 12.2757 17.4134 17.3312 0.763905 3.14083 57.4582
12862299 10.3409 12.2849 17.3937 17.3312 0.820169 3.1645 57.3509
12862310 10.4026 12.1836 17.4922 17.2728 0.680739 3.1853 57.3512
12862319 10.4026 12.1836 17.4922 17.2728 0.680739 3.1853 57.3512
12862330 10.3497 12.1928 17.4922 17.302 0.72071 3.20517 57.3368
12862339 10.4114 12.2021 17.4725 17.2338 0.676894 3.16458 57.3198
12862360 10.3497 12.2389 17.5414 17.263 0.701648 3.19267 57.3931
12862372 10.3497 12.2389 17.5414 17.263 0.701648 3.19267 57.3931
12862381 10.3145 12.2113 17.5611 17.3312 0.725773 3.23065 57.4181
12862391 10.3321 12.2389 17.5709 17.3799 0.745705 3.2283 57.5219
12862401 10.3321 12.2389 17.5709 17.3799 0.745705 3.2283 57.5219
12862411 10.3233 12.1928 17.6005 17.302 0.684044 3.23579 57.4186
12862421 10.3409 12.2389 17.5414 17.2241 0.689083 3.18744 57.3453
12862431 10.3409 12.2389 17.5414 17.2241 0.689083 3.18744 57.3453
12862441 10.3674 12.1928 17.5906 17.2923 0.664631 3.2178 57.4431
12862461 10.3409 12.156 17.6103 17.2825 0.647891 3.23992 57.3898
12862471 10.3321 12.1192 17.5906 17.341 0.669801 3.26237 57.3829
12862491 10.3497 12.0731 17.5808 17.341 0.646788 3.26941 57.3446
12862502 10.3497 12.1008 17.63 17.3799 0.653043 3.27863 57.4604
12862511 10.3497 12.1008 17.63 17.3799 0.653043 3.27863 57.4604
12862523 10.3497 12.0639 17.6891 17.3507 0.598678 3.29644 57.4534
12862531 10.3497 12.0639 17.6891 17.3507 0.598678 3.29644 57.4534
12862541 10.2793 12.0731 17.6694 17.3312 0.634545 3.30799 57.353
12862551 10.3145 12.0823 17.6989 17.3799 0.630212 3.30974 57.4757
12862561 10.3145 12.0823 17.6989 17.3799 0.630212 3.30974 57.4757
12862572 10.3585 12.0639 17.6694 17.3312 0.595245 3.28565 57.4231
12862583 10.3409 12.0363 17.6694 17.3215 0.587207 3.29808 57.3681
12862592 10.3409 12.0363 17.6694 17.3215 0.587207 3.29808 57.3681
12862603 10.385 12.1468 17.6202 17.1851 0.578499 3.21088 57.337
12862612 10.385 12.1468 17.6202 17.1851 0.578499 3.21088 57.337
12862622 10.3938 12.1652 17.5906 17.2143 0.608024 3.20217 57.364
12862632 10.385 12.1928 17.5709 17.1266 0.595188 3.17407 57.2754
12862642 10.385 12.1928 17.5709 17.1266 0.595188 3.17407 57.2754
12862652 10.3938 12.1928 17.5119 17.1948 0.646687 3.17316 57.2933
12862662 10.4026 12.2481 17.5316 17.1851 0.65327 3.15492 57.3674
12862677 10.4026 12.2481 17.5316 17.1851 0.65327 3.15492 57.3674
12862687 10.4202 12.2941 17.502 17.1364 0.657466 3.11861 57.3528
12862697 10.4202 12.2941 17.502 17.1364 0.657466 3.11861 57.3528
12862703 10.4819 12.2757 17.5414 17.1364 0.604528 3.11311 57.4354
12862717 10.4995 12.3862 17.4528 17.0585 0.650036 3.03819 57.397
12862723 10.4995 12.3862 17.4528 17.0585 0.650036 3.03819 57.397
12862733 10.4907 12.3678 17.4331 17.0682 0.659096 3.04468 57.3598
12862745 10.429 12.3218 17.3445 17.0974 0.719345 3.06625 57.1927
12862754 10.429 12.3218 17.3445 17.0974 0.719345 3.06625 57.1927
12862765 10.4907 12.377 17.4036 17.0682 0.676221 3.03563 57.3395
12862774 10.4907 12.377 17.4036 17.0682 0.676221 3.03563 57.3395
12862790 10.4466 12.3494 17.3937 17.0585 0.684509 3.05411 57.2482
12862796 10.4378 12.377 17.502 17.1072 0.67234 3.08085 57.424
12862805 10.4378 12.377 17.502 17.1072 0.67234 3.08085 57.424
12862815 10.4642 12.4507 17.4528 17.1948 0.750703 3.05737 57.5626
12862825 10.4995 12.4047 17.4036 17.1072 0.700492 3.0323 57.4149
12862838 10.4995 12.4047 17.4036 17.1072 0.700492 3.0323 57.4149
12862845 10.5171 12.4691 17.3839 17.0974 0.724557 3.00042 57.4675
12862865 10.4907 12.4415 17.3052 17.0097 0.722924 2.98253 57.2471
12862876 10.5259 12.4691 17.3052 17.0292 0.727066 2.9669 57.3294
12862887 10.5259 12.4691 17.3052 17.0292 0.727066 2.9669 57.3294
12862897 10.5347 12.4875 17.2559 16.9334 0.71238 2.92783 57.2116
12862911 10.5083 12.4415 17.1969 16.9524 0.73939 2.94212 57.0991
12862916 10.5083 12.4415 17.1969 16.9524 0.73939 2.94212 57.0991
12862926 10.5083 12.4415 17.2264 17.0292 0.758684 2.96454 57.2054
12862936 10.5259 12.4599 17.2067 17.0877 0.792146 2.96138 57.2802
12862946 10.5259 12.4599 17.2067 17.0877 0.792146 2.96138 57.2802
12862959 10.5259 12.5244 17.2953 17.039 0.758973 2.94957 57.3846
12862966 10.5259 12.5244 17.2953 17.039 0.758973 2.94957 57.3846
12862976 10.5259 12.4691 17.2658 17.0779 0.76535 2.96885 57.3387
12862986 10.5788 12.506 17.2658 16.9905 0.720212 2.9224 57.341
12862997 10.5788 12.506 17.2658 16.9905 0.720212 2.9224 57.341
12863006 10.614 12.5612 17.187 17 0.767142 2.87955 57.3622
12863017 10.614 12.5612 17.187 17 0.767142 2.87955 57.3622
12863030 10.5876 12.552 17.1378 16.9334 0.769085 2.86614 57.2108
12863059 10.6228 12.5428 17.1378 16.9619 0.761417 2.86408 57.2653
12863061 10.6228 12.5428 17.1378 16.9619 0.761417 2.86408 57.2653
12863063 10.6668 12.5612 17.1083 16.8953 0.734466 2.82419 57.2316
12863067 10.6404 12.5704 17.1477 16.8953 0.73255 2.83792 57.2538
12863077 10.6404 12.5704 17.1477 16.8953 0.73255 2.83792 57.2538
12863087 10.7021 12.6073 17.1477 16.8858 0.716442 2.80526 57.3428
12863107 10.6404 12.5981 17.1378 16.8858 0.74465 2.8252 57.2621
12863117 10.7109 12.6717 17.1378 16.8287 0.720018 2.76828 57.3491
12863128 10.7109 12.6717 17.1378 16.8287 0.720018 2.76828 57.3491
12863138 10.6316 12.5888 17.1969 16.8953 0.722206 2.84538 57.3126
12863148 10.6933 12.552 17.1772 16.9334 0.703904 2.84155 57.3558
12863163 10.6933 12.552 17.1772 16.9334 0.703904 2.84155 57.3558
12863168 10.658 12.5981 17.2362 16.9524 0.720769 2.85472 57.4447
12863178 10.658 12.5981 17.2362 16.9524 0.720769 2.85472 57.4447
12863188 10.6492 12.5336 17.2461 16.9143 0.676891 2.87155 57.3432
12863201 10.6316 12.506 17.2658 17.0195 0.708801 2.912 57.4228
12863210 10.6316 12.506 17.2658 17.0195 0.708801 2.912 57.4228
12863218 10.614 12.4783 17.2166 17 0.718817 2.91165 57.3089
12863228 10.5964 12.4783 17.2264 17.0097 0.726432 2.92129 57.3109
12863238 10.5964 12.4783 17.2264 17.0097 0.726432 2.92129 57.3109
12863249 10.5964 12.5244 17.2362 17.0195 0.745621 2.91103 57.3765
12863259 10.5964 12.5244 17.2362 17.0195 0.745621 2.91103 57.3765
12863268 10.5259 12.4691 17.2756 16.9429 0.703716 2.94253 57.2135
12863278 10.5523 12.4691 17.2855 17.0292 0.724041 2.95448 57.3361
12863288 10.5523 12.4691 17.2855 17.0292 0.724041 2.95448 57.3361
12863298 10.5788 12.4875 17.2855 17.039 0.72411 2.9425 57.3907
12863308 10.5171 12.506 17.187 17.0779 0.820318 2.94352 57.288
12863334 10.5876 12.4507 17.2461 17.0974 0.746956 2.95527 57.3818
12863349 10.5083 12.4599 17.2658 17.1169 0.78584 2.98543 57.3509
12863359 10.4819 12.4139 17.2362 17.1851 0.820374 3.01628 57.3171
12863370 10.4819 12.4139 17.2362 17.1851 0.820374 3.01628 57.3171
12863379 10.4907 12.4783 17.2264 17.1266 0.823376 2.97897 57.3221
12863393 10.5083 12.4323 17.2362 17.0974 0.77922 2.98383 57.2742
12863399 10.5083 12.4323 17.2362 17.0974 0.77922 2.98383 57.2742
12863415 10.5171 12.506 17.187 17.0974 0.828537 2.94762 57.3075
12863419 10.5171 12.506 17.187 17.0974 0.828537 2.94762 57.3075
12863430 10.5083 12.4507 17.1969 17.1072 0.808856 2.97182 57.263
12863441 10.4995 12.4875 17.2166 17.0974 0.815395 2.96512 57.301
12863451 10.4995 12.4875 17.2166 17.0974 0.815395 2.96512 57.301
12863461 10.5259 12.5152 17.1083 17.1072 0.868085 2.92745 57.2565
12863471 10.5435 12.6257 17.1181 17.0779 0.889897 2.88333 57.3653
12863481 10.5435 12.6257 17.1181 17.0779 0.889897 2.88333 57.3653
12863491 10.5611 12.5704 17.187 17.1266 0.848159 2.91985 57.4452
12863501 10.5611 12.5704 17.187 17.1266 0.848159 2.91985 57.4452
12863513 10.5435 12.552 17.1477 17.0877 0.849673 2.91461 57.3309
12863523 10.5523 12.552 17.2264 17.0487 0.793827 2.92024 57.3795
12863531 10.5523 12.552 17.2264 17.0487 0.793827 2.92024 57.3795
12863543 10.5347 12.5796 17.128 17.0292 0.849539 2.89224 57.2715
12863551 10.5435 12.5796 17.0787 17.0292 0.86779 2.87907 57.2311
12863562 10.5435 12.5796 17.0787 17.0292 0.86779 2.87907 57.2311
12863571 10.5611 12.5981 17.1378 16.9905 0.824603 2.87212 57.2875
12863583 10.5435 12.5981 17.0787 16.9714 0.851184 2.86106 57.1918
12863592 10.5435 12.5888 17.0787 16.9714 0.847292 2.86394 57.1826
12863607 10.5171 12.5796 17.0886 17.0097 0.867069 2.88529 57.1951
12863612 10.5171 12.5796 17.0886 17.0097 0.867069 2.88529 57.1951
12863630 10.4819 12.506 17.1575 16.9524 0.79644 2.92186 57.0977
12863633 10.4995 12.4967 17.187 17.0585 0.816143 2.94783 57.2417
12863642 10.4995 12.4967 17.187 17.0585 0.816143 2.94783 57.2417
12863655 10.5699 12.506 17.1673 17.1072 0.817707 2.92899 57.3504
12863662 10.4642 12.506 17.2559 17.1072 0.825408 2.9807 57.3333
12863673 10.4642 12.5336 17.2559 17.0779 0.824738 2.96591 57.3317
12863682 10.5435 12.5428 17.2067 17.0779 0.815085 2.92787 57.371
12863693 10.5435 12.5428 17.2067 17.0779 0.815085 2.92787 57.371
12863702 10.5611 12.5704 17.1969 17.0292 0.802699 2.90141 57.3577
12863713 10.5259 12.506 17.1772 17.0487 0.808439 2.93254 57.2578
12863723 10.5259 12.506 17.1772 17.0487 0.808439 2.93254 57.2578
12863734 10.5435 12.5244 17.2166 16.9714 0.757888 2.91326 57.2559
12863755 10.5171 12.4967 17.2166 16.9714 0.758079 2.93019 57.2019
12863762 10.4731 12.5152 17.2855 17.0974 0.807929 2.9792 57.3711
12863777 10.4731 12.5152 17.2855 17.0974 0.807929 2.9792 57.3711
12863783 10.5347 12.4599 17.2756 17.1169 0.769544 2.97921 57.3872
12863793 10.5259 12.4599 17.3937 17.0877 0.708202 3.00056 57.4672
12863803 10.5259 12.4599 17.3937 17.0877 0.708202 3.00056 57.4672
12863813 10.5435 12.4415 17.4134 17.1461 0.708437 3.01711 57.5446
12863833 10.4378 12.4139 17.3937 17.1169 0.740558 3.04877 57.3623
12863844 10.429 12.3954 17.3839 17.1364 0.749379 3.05935 57.3448
12863863 10.4466 12.377 17.3741 17.1851 0.758693 3.06768 57.3828
12863873 10.4202 12.3218 17.4036 17.1656 0.725687 3.09553 57.3112
12863886 10.4202 12.3218 17.4036 17.1656 0.725687 3.09553 57.3112
12863893 10.4731 12.3218 17.4725 17.1656 0.671148 3.09316 57.4329
12863913 10.4378 12.2941 17.4725 17.263 0.716433 3.13313 57.4675
12863927 10.4114 12.331 17.443 17.1948 0.728241 3.10964 57.3802
12863934 10.4114 12.331 17.443 17.1948 0.728241 3.10964 57.3802
12863953 10.4378 12.2757 17.5119 17.1461 0.641507 3.12292 57.3716
12863954 10.4202 12.2757 17.4922 17.1948 0.678852 3.13449 57.383
12863966 10.4202 12.2757 17.4922 17.1948 0.678852 3.13449 57.383
12863977 10.3938 12.2849 17.5512 17.1461 0.647503 3.14207 57.3761
12863987 10.3938 12.2849 17.5512 17.1461 0.647503 3.14207 57.3761
12863995 10.4202 12.2021 17.5316 17.2046 0.634119 3.16794 57.3584
12864004 10.429 12.2205 17.4922 17.1559 0.634909 3.14112 57.2976
12864016 10.429 12.2205 17.4922 17.1559 0.634909 3.14112 57.2976
12864025 10.4642 12.2665 17.5512 17.1169 0.595802 3.11958 57.3989
12864037 10.3938 12.2021 17.5217 17.2436 0.666881 3.18232 57.3611
12864047 10.3938 12.2021 17.5217 17.2436 0.666881 3.18232 57.3611
12864057 10.385 12.1652 17.5512 17.2338 0.637832 3.20087 57.3353
12864066 10.385 12.1652 17.5512 17.2338 0.637832 3.20087 57.3353
12864079 10.4026 12.156 17.5611 17.2533 0.629929 3.20424 57.373
12864086 10.4202 12.1652 17.5709 17.2728 0.629845 3.20176 57.4291
12864106 10.385 12.1008 17.5512 17.2728 0.626996 3.22937 57.3098
12864116 10.3057 12.1376 17.5611 17.302 0.686142 3.25089 57.3064
12864136 10.3585 12.1836 17.63 17.3507 0.671825 3.24354 57.5229
12864148 10.3585 12.1836 17.63 17.3507 0.671825 3.24354 57.5229
12864157 10.3057 12.1468 17.6497 17.3897 0.687537 3.28399 57.4919
12864169 10.3145 12.0915 17.6595 17.4676 0.688791 3.31663 57.5332
12864193 10.2705 11.9995 17.6595 17.4287 0.652969 3.35217 57.3581
12864198 10.2264 12.0455 17.6891 17.4189 0.674859 3.35554 57.3799
12864207 10.2264 12.0455 17.6891 17.4189 0.674859 3.35554 57.3799
12864218 10.2088 12.0087 17.6792 17.5456 0.725165 3.39662 57.4422
12864227 10.2088 12.0087 17.7383 17.5456 0.698742 3.40854 57.5013
12864241 10.1824 11.9718 17.7383 17.5066 0.67848 3.42096 57.3991
12864249 10.2176 11.9258 17.7383 17.5845 0.676236 3.44013 57.4662
12864260 10.2176 11.9258 17.7383 17.5845 0.676236 3.44013 57.4662
12864267 10.1736 11.9166 17.6694 17.4774 0.677446 3.42172 57.2369
12864277 10.156 11.9074 17.6891 17.5358 0.697425 3.44614 57.2882
12864297 10.1383 11.935 17.7383 17.5358 0.694972 3.45284 57.3474
12864311 10.1383 11.935 17.7383 17.5358 0.694972 3.45284 57.3474
12864319 10.0943 11.8337 17.7284 17.604 0.705102 3.51144 57.2604
12864328 10.1031 11.9166 17.8072 17.6527 0.721565 3.50739 57.4796
12864348 10.1736 11.8613 17.7383 17.6625 0.701627 3.49065 57.4356
12864360 10.156 11.8889 17.7678 17.565 0.666735 3.4738 57.3778
12864368 10.156 11.8889 17.7678 17.565 0.666735 3.4738 57.3778
12864380 10.2 11.935 17.7087 17.565 0.692967 3.43296 57.4088
12864389 10.1648 11.9442 17.6497 17.5553 0.735012 3.42744 57.314
12864400 10.1648 11.9442 17.6497 17.5553 0.735012 3.42744 57.314
12864410 10.156 11.9074 17.7678 17.6332 0.703409 3.48156 57.4644
12864419 10.156 11.9074 17.7678 17.6332 0.703409 3.48156 57.4644
12864432 10.1207 11.8521 17.6398 17.6527 0.761482 3.48894 57.2654
12864440 10.1472 11.8521 17.6792 17.6625 0.736043 3.49028 57.3409
12864450 10.1472 11.8521 17.6792 17.6625 0.736043 3.49028 57.3409
12864460 10.156 11.9166 17.758 17.7501 0.761017 3.50002 57.5806
12864469 10.0591 11.8429 17.6497 17.6917 0.797406 3.52165 57.2433
12864480 10.0591 11.8429 17.6497 17.6917 0.797406 3.52165 57.2433
12864490 10.0943 11.8245 17.7678 17.7404 0.741279 3.54957 57.427
12864501 10.0943 11.8245 17.7678 17.7404 0.741279 3.54957 57.427
12864510 10.0503 11.8613 17.7284 17.7112 0.781938 3.53821 57.3512
12864523 10.0326 11.8153 17.7875 17.7501 0.760329 3.57835 57.3856
12864530 10.0326 11.8153 17.7875 17.7501 0.760329 3.57835 57.3856
12864539 10.0679 11.8797 17.7875 17.7501 0.771725 3.54613 57.4853
12864549 10.0679 11.8797 17.7875 17.7501 0.771725 3.54613 57.4853
12864561 10.0591 11.7969 17.7973 17.7794 0.748625 3.58353 57.4326
12864571 10.1383 11.8429 17.6891 17.7307 0.760511 3.51174 57.401
12864580 10.1383 11.8429 17.6891 17.7307 0.760511 3.51174 57.401
12864596 10.1383 11.8889 17.7186 17.7209 0.762588 3.50086 57.4668
12864608 10.1207 11.8705 17.7087 17.6138 0.721824 3.48902 57.3138
12864621 10.1472 11.981 17.6792 17.643 0.782263 3.44489 57.4504
12864631 10.1472 11.981 17.6792 17.643 0.782263 3.44489 57.4504
12864641 10.1031 11.935 17.6497 17.6332 0.791788 3.46596 57.321
12864653 10.1824 11.9718 17.6595 17.6138 0.759077 3.42668 57.4275
12864674 10.1648 12.0363 17.5414 17.5163 0.806189 3.36804 57.2588
12864681 10.2969 12.1008 17.5709 17.4871 0.74842 3.30526 57.4557
12864701 10.3233 12.1652 17.443 17.4676 0.812975 3.24623 57.3991
12864712 10.2176 12.1652 17.4528 17.4481 0.847945 3.27792 57.2838
12864722 10.2176 12.11 17.4528 17.4481 0.824624 3.29557 57.2285
12864732 10.2793 12.1008 17.4725 17.4579 0.788194 3.28483 57.3104
12864742 10.2793 12.1008 17.4725 17.4579 0.788194 3.28483 57.3104
12864755 10.3145 12.1468 17.4134 17.4384 0.810134 3.24285 57.3131
12864762 10.3321 12.1468 17.4233 17.4968 0.822422 3.25124 57.3991
12864772 10.3321 12.1468 17.4233 17.4968 0.822422 3.25124 57.3991
12864784 10.3145 12.2389 17.3642 17.4774 0.887507 3.21148 57.395
12864792 10.3145 12.2389 17.3642 17.4774 0.887507 3.21148 57.395
12864806 10.3409 12.2389 17.3544 17.4092 0.851345 3.18704 57.3434
12864812 10.4202 12.2757 17.3741 17.4189 0.826406 3.15636 57.4889
12864832 10.4202 12.2757 17.3248 17.3605 0.823936 3.13413 57.3812
12864843 10.3938 12.2573 17.4134 17.3799 0.796437 3.17061 57.4445
12864863 10.4642 12.2665 17.3839 17.302 0.749075 3.12326 57.4167
12864875 10.4202 12.2297 17.4331 17.3799 0.764099 3.17505 57.463
12864894 10.385 12.2205 17.315 17.3897 0.833267 3.16678 57.3101
12864905 10.385 12.2205 17.315 17.3897 0.833267 3.16678 57.3101
12864915 10.4026 12.2205 17.315 17.2825 0.780055 3.13902 57.2206
12864925 10.3938 12.2849 17.3445 17.2338 0.777391 3.11742 57.2571
12864935 10.3938 12.2849 17.3445 17.2338 0.777391 3.11742 57.2571
12864945 10.4642 12.2757 17.3248 17.2046 0.738278 3.08789 57.2694
12864956 10.4466 12.2205 17.3544 17.2338 0.72189 3.12313 57.2553
12864975 10.4642 12.2573 17.3839 17.2436 0.720462 3.11406 57.349
12864985 10.4642 12.2573 17.3839 17.2436 0.720462 3.11406 57.349
12864995 10.4466 12.1836 17.3839 17.263 0.705403 3.14698 57.2772
12865004 10.4378 12.2113 17.3347 17.3117 0.763807 3.14091 57.2955
12865015 10.4378 12.2113 17.3347 17.3117 0.763807 3.14091 57.2955
12865025 10.4554 12.2665 17.4036 17.263 0.727728 3.12205 57.3886
12865034 10.4554 12.2665 17.4036 17.263 0.727728 3.12205 57.3886
12865045 10.4642 12.2113 17.3445 17.2046 0.702092 3.11237 57.2246
12865055 10.4731 12.331 17.4134 17.2533 0.738546 3.09619 57.4708
12865078 10.5083 12.2757 17.3248 17.263 0.743237 3.08614 57.3719
12865084 10.4995 12.3218 17.3248 17.2143 0.746062 3.06428 57.3604
12865094 10.4995 12.3218 17.3248 17.2143 0.746062 3.06428 57.3604
12865107 10.4995 12.2941 17.2855 17.1364 0.719032 3.04853 57.2155
12865125 10.4642 12.2573 17.315 17.1851 0.726634 3.08761 57.2217
12865134 10.4995 12.2757 17.3248 17.1851 0.714195 3.07272 57.2852
12865145 10.4995 12.2757 17.3248 17.1851 0.714195 3.07272 57.2852
12865154 10.5171 12.2941 17.2362 17.1072 0.720835 3.02657 57.1547
12865165 10.4995 12.3678 17.2559 17.1072 0.751159 3.01303 57.2304
12865176 10.4995 12.3678 17.2559 17.1072 0.751159 3.01303 57.2304
12865187 10.5611 12.4231 17.2855 17.0682 0.717095 2.97433 57.3379
12865211 10.5347 12.3494 17.2461 16.9905 0.68236 2.98118 57.1207
12865216 10.6052 12.4231 17.2953 16.9429 0.63976 2.93626 57.2665
12865236 10.5347 12.4231 17.2756 16.981 0.696373 2.96222 57.2144
12865247 10.5876 12.4231 17.3544 16.9048 0.605011 2.9462 57.2698
12865258 10.5876 12.4231 17.3544 16.9048 0.605011 2.9462 57.2698
12865266 10.6756 12.4783 17.2953 16.8572 0.595307 2.87888 57.3065
12865287 10.6756 12.5612 17.2756 16.8382 0.631261 2.84485 57.3507
12865296 10.6492 12.5336 17.1477 16.8001 0.672504 2.82641 57.1306
12865307 10.6492 12.5336 17.1477 16.8001 0.672504 2.82641 57.1306
12865316 10.6845 12.6073 17.1181 16.7049 0.66078 2.76584 57.1148
12865331 10.658 12.5428 17.128 16.743 0.656977 2.8044 57.0718
12865336 10.658 12.5428 17.128 16.743 0.656977 2.8044 57.0718
12865346 10.6756 12.5704 17.1575 16.8382 0.68807 2.8169 57.2418
12865357 10.6756 12.5704 17.1575 16.8382 0.68807 2.8169 57.2418
12865366 10.7021 12.6441 17.128 16.8477 0.724751 2.78153 57.3218
12865384 10.7549 12.6994 17.1378 16.9048 0.74414 2.76233 57.4969
12865396 10.7813 12.6901 17.128 16.7525 0.668395 2.7224 57.352
12865408 10.8254 12.7546 17.0394 16.8191 0.743833 2.68423 57.4385
12865417 10.8254 12.7546 17.0394 16.8191 0.743833 2.68423 57.4385
12865433 10.8078 12.7914 17.0689 16.743 0.721884 2.6683 57.4111
12865437 10.8078 12.7914 17.0689 16.743 0.721884 2.6683 57.4111
12865447 10.843 12.7638 17.0197 16.6288 0.668016 2.63076 57.2553
12865458 10.8518 12.7178 16.9896 16.5907 0.64176 2.62749 57.1499
12865467 10.8518 12.7178 16.9896 16.5907 0.64176 2.62749 57.1499
12865485 10.843 12.773 16.8856 16.6288 0.732172 2.59889 57.1304
12865489 10.8078 12.8006 16.9168 16.6478 0.753799 2.61213 57.1731
12865500 10.8078 12.8006 16.9168 16.6478 0.753799 2.61213 57.1731
12865510 10.887 12.8099 17.0197 16.743 0.716209 2.6277 57.4596
12865517 10.887 12.8099 17.0197 16.743 0.716209 2.6277 57.4596
12865527 10.8606 12.7546 17.0197 16.7335 0.700638 2.65075 57.3684
12865539 10.8166 12.7822 16.9896 16.7716 0.761682 2.65752 57.36
12865559 10.887 12.8743 16.9272 16.7049 0.768808 2.57976 57.3935
12865568 10.9135 12.8191 16.9272 16.6193 0.697303 2.57003 57.279
12865585 10.9135 12.8191 16.9272 16.6193 0.697303 2.57003 57.279
12865588 10.887 12.8191 16.8336 16.6288 0.755292 2.55988 57.1685
12865609 10.8606 12.7546 16.8232 16.6002 0.73238 2.57936 57.0387
12865618 10.9311 12.8743 16.7713 16.5907 0.770843 2.50752 57.1674
12865635 10.9311 12.8743 16.7713 16.5907 0.770843 2.50752 57.1674
12865638 10.8959 12.9664 16.7817 16.5622 0.808942 2.48615 57.2061
12865648 10.8959 12.9664 16.7817 16.5622 0.808942 2.48615 57.2061
12865660 10.9135 12.9204 16.792 16.6193 0.800988 2.50959 57.2451
12865668 10.9399 12.9848 16.792 16.6097 0.812289 2.47976 57.3265
12865682 10.9399 12.9848 16.792 16.6097 0.812289 2.47976 57.3265
12865688 10.9223 12.9848 16.6985 16.5717 0.84638 2.45632 57.1773
12865698 10.9839 13.0125 16.6985 16.4955 0.798023 2.41236 57.1904
12865708 10.9839 13.0125 16.6985 16.4955 0.798023 2.41236 57.1904
12865719 11.0192 13.0677 16.6361 16.5431 0.853723 2.3816 57.2661
12865728 11.0192 13.0677 16.6361 16.5431 0.853723 2.3816 57.2661
12865738 11.0104 13.0585 16.6257 16.467 0.82635 2.36797 57.1615
12865751 11.0456 13.0769 16.5425 16.505 0.871897 2.3417 57.1701
12865758 11.0456 13.0769 16.5425 16.505 0.871897 2.3417 57.1701
12865770 11.0368 13.0769 16.5841 16.4479 0.832942 2.34094 57.1457
12865779 11.1337 13.1506 16.5321 16.467 0.851807 2.28203 57.2833
12865790 11.1337 13.1506 16.5321 16.467 0.851807 2.28203 57.2833
12865798 11.0632 13.1506 16.4905 16.4099 0.878379 2.28137 57.1142
12865818 11.1249 13.1966 16.4385 16.3908 0.885403 2.233 57.1509
12865828 11.1953 13.2243 16.4489 16.3908 0.860479 2.20579 57.2594
12865839 11.1953 13.2243 16.4489 16.3908 0.860479 2.20579 57.2594
12865850 11.1337 13.2519 16.3865 16.3623 0.916234 2.19568 57.1344
12865861 11.1337 13.2335 16.4177 16.3623 0.894326 2.20821 57.1472
12865868 11.1337 13.2335 16.4177 16.3623 0.894326 2.20821 57.1472
12865895 11.2041 13.2795 16.3865 16.3242 0.879902 2.15766 57.1944
12865896 11.2041 13.2795 16.3865 16.3242 0.879902 2.15766 57.1944
12865900 11.1953 13.2887 16.3761 16.3242 0.892481 2.1552 57.1844
12865909 11.2218 13.2979 16.3346 16.2766 0.883156 2.12445 57.1309
12865921 11.2218 13.2979 16.3346 16.2766 0.883156 2.12445 57.1309
12865930 11.2041 13.3164 16.293 16.21 0.889641 2.09978 57.0234
12865940 11.2218 13.3164 16.2306 16.248 0.926071 2.08899 57.0167
12865949 11.2218 13.3164 16.2306 16.248 0.926071 2.08899 57.0167
12865959 11.2834 13.4177 16.2618 16.2004 0.906575 2.03657 57.1633
12865980 11.2482 13.3624 16.1994 16.2576 0.951675 2.06239 57.0675
12865991 11.257 13.39 16.2514 16.2385 0.927678 2.05897 57.1369
12866011 11.2394 13.3532 16.2722 16.2861 0.930765 2.09071 57.1509
12866022 11.3098 13.4269 16.241 16.2576 0.931945 2.03419 57.2353
12866031 11.3098 13.4269 16.241 16.2576 0.931945 2.03419 57.2353
12866041 11.3098 13.4453 16.2098 16.2671 0.957826 2.0238 57.232
12866061 11.3803 13.4913 16.1786 16.1433 0.907344 1.95397 57.1936
12866072 11.3539 13.5374 16.189 16.2004 0.957981 1.96353 57.2807
12866082 11.3539 13.5374 16.189 16.2004 0.957981 1.96353 57.2807
12866100 11.3627 13.5098 16.1162 16.1624 0.959399 1.94383 57.151
12866102 11.3627 13.5098 16.0538 16.1148 0.967729 1.91866 57.0411
12866112 11.3627 13.5098 16.0538 16.1148 0.967729 1.91866 57.0411
12866123 11.3363 13.5374 16.0746 16.1243 0.985935 1.92525 57.0726
12866132 11.4508 13.5374 16.0746 16.1243 0.9339 1.89136 57.1871
12866142 11.4508 13.519 16.0746 16.1719 0.946173 1.9077 57.2162
12866154 11.4332 13.5558 16.1682 16.1148 0.903243 1.91037 57.2719
12866162 11.4332 13.5558 16.1682 16.1148 0.903243 1.91037 57.2719
12866177 11.3451 13.4729 16.1266 16.1814 0.955188 1.96671 57.126
12866182 11.2658 13.4729 16.1578 16.2766 1.01705 2.01905 57.1731
12866192 11.2658 13.4729 16.1578 16.2766 1.01705 2.01905 57.1731
12866204 11.2746 13.4269 16.2306 16.2766 0.960639 2.04664 57.2087
12866212 11.2746 13.4269 16.2306 16.2766 0.960639 2.04664 57.2087
12866227 11.1953 13.344 16.189 16.3527 1.01277 2.10291 57.0811
12866232 11.1601 13.2979 16.2826 16.4003 0.986859 2.1591 57.141
12866242 11.1601 13.2979 16.2826 16.4003 0.986859 2.1591 57.141
12866253 11.0984 13.2519 16.3242 16.486 1.01263 2.22002 57.1605
12866262 11.0456 13.169 16.3761 16.4955 0.982192 2.27473 57.0863
12866282 11.028 13.1414 16.4073 16.6573 1.03234 2.3313 57.234
12866304 10.9487 13.1598 16.4593 16.6573 1.05247 2.36124 57.2252
12866313 10.9223 13.0677 16.5009 16.8096 1.07073 2.43991 57.3005
12866326 10.9223 13.0677 16.5009 16.8096 1.07073 2.43991 57.3005
12866333 10.8959 13.1138 16.4385 16.7906 1.12248 2.41607 57.2387
12866346 10.9399 13.0401 16.3346 16.7906 1.11909 2.40219 57.1051
12866368 10.9487 13.0309 16.4073 16.8001 1.08195 2.42044 57.187
12866375 10.9487 13.0309 16.4073 16.8001 1.08195 2.42044 57.187
12866385 10.8782 13.0769 16.3554 16.7716 1.14523 2.41015 57.0821
12866395 10.8694 13.0677 16.3865 16.8191 1.15101 2.433 57.1428
12866405 10.8694 13.0677 16.3865 16.8191 1.15101 2.433 57.1428
12866414 10.8518 13.0401 16.4281 16.8667 1.14838 2.46639 57.1868
12866425 10.8606 13.0217 16.4905 16.8858 1.11612 2.48714 57.2586
12866436 10.8606 13.0217 16.4905 16.8858 1.11612 2.48714 57.2586
12866445 10.9223 13.0493 16.4905 16.8667 1.09161 2.45575 57.3288
12866465 10.8959 13.0125 16.5217 16.9048 1.08996 2.49016 57.3348
12866474 10.8694 13.0401 16.4177 16.8858 1.15302 2.4629 57.213
12866510 10.8606 13.1138 16.4073 16.8287 1.1687 2.42831 57.2104
12866517 10.9135 13.1414 16.3554 16.8572 1.19168 2.39867 57.2674
12866526 10.9135 13.1414 16.3554 16.8572 1.19168 2.39867 57.2674
12866537 10.9223 13.1598 16.3346 16.762 1.16521 2.36483 57.1787
12866546 10.9223 13.0953 16.3242 16.7335 1.13113 2.37581 57.0753
12866560 10.9311 13.1414 16.3761 16.6573 1.09073 2.35378 57.106
12866566 10.9311 13.1414 16.3761 16.6573 1.09073 2.35378 57.106
12866580 10.9751 13.1322 16.3761 16.6954 1.0827 2.35163 57.1789
12866586 10.9751 13.2427 16.3657 16.5907 1.08988 2.29263 57.1743
12866597 10.9751 13.2427 16.3657 16.5907 1.08988 2.29263 57.1743
12866607 11.0808 13.2519 16.2826 16.6193 1.09538 2.24578 57.2346
12866617 11.0456 13.2519 16.293 16.5717 1.08682 2.24812 57.1621
12866627 11.0456 13.2059 16.293 16.5717 1.06754 2.26202 57.1161
12866637 10.9839 13.2151 16.3346 16.5812 1.08455 2.28927 57.1147
12866648 10.9839 13.2151 16.3346 16.5812 1.08455 2.28927 57.1147
12866657 11.0544 13.1046 16.3761 16.5431 0.971085 2.30218 57.0782
12866671 10.9663 13.1322 16.4697 16.6288 1.01619 2.36027 57.197
12866677 10.9663 13.1322 16.4697 16.6288 1.01619 2.36027 57.197
12866687 11.0016 13.0861 16.4697 16.6002 0.968847 2.35723 57.1576
12866700 11.0016 13.0861 16.4697 16.6002 0.968847 2.35723 57.1576
12866708 10.9487 13.0585 16.5945 16.6002 0.924587 2.40923 57.2019
12866718 11.028 13.0861 16.5633 16.6573 0.93843 2.38246 57.3347
12866728 11.028 13.0861 16.5633 16.6573 0.93843 2.38246 57.3347
12866740 10.9663 13.1046 16.5425 16.6954 0.999466 2.39938 57.3088
12866748 11.072 13.0953 16.5321 16.5526 0.892475 2.33635 57.2521
12866762 11.072 13.0953 16.5321 16.5526 0.892475 2.33635 57.2521
12866768 11.1073 13.0861 16.5009 16.6193 0.9148 2.3363 57.3136
12866788 11.0192 13.169 16.4801 16.467 0.934926 2.29952 57.1353
12866798 11.072 13.123 16.4593 16.505 0.917023 2.3013 57.1594
12866808 11.072 13.123 16.4593 16.505 0.917023 2.3013 57.1594
12866818 11.0456 13.1414 16.4801 16.4289 0.895226 2.29141 57.096
12866831 11.072 13.1046 16.4801 16.3908 0.851583 2.28609 57.0475
12866838 11.072 13.1046 16.4801 16.3908 0.851583 2.28609 57.0475
12866848 11.1161 13.1506 16.4905 16.3718 0.838363 2.25691 57.129
12866860 11.0544 13.1506 16.5841 16.4003 0.836006 2.30272 57.1894
12866870 11.0544 13.1138 16.5841 16.4003 0.820434 2.31388 57.1526
12866880 11.0984 13.1046 16.5737 16.4479 0.821471 2.31158 57.2246
12866890 11.0984 13.1046 16.5737 16.4479 0.821471 2.31158 57.2246
12866900 11.0808 13.0125 16.6569 16.4194 0.740832 2.35693 57.1695
12866910 11.0984 12.994 16.7401 16.4194 0.687709 2.37554 57.2519
12866930 11.0456 13.0217 16.6569 16.3813 0.74445 2.35641 57.1054
12866944 11.0456 13.0217 16.6569 16.3813 0.74445 2.35641 57.1054
12866950 11.0544 13.0585 16.7193 16.4194 0.744176 2.36476 57.2515
12866960 11.0104 13.0401 16.7609 16.4289 0.741509 2.39499 57.2402
12866971 11.0104 13.0401 16.7609 16.4289 0.741509 2.39499 57.2402
12866980 11.0104 13.0493 16.8024 16.4099 0.71865 2.39715 57.272
12866990 11.0192 12.9296 16.7713 16.4384 0.689998 2.43033 57.1584
12866999 11.0192 12.9296 16.7713 16.4384 0.689998 2.43033 57.1584
12867010 11.0104 12.948 16.8024 16.4955 0.712022 2.44679 57.2563
12867021 10.9839 12.9204 16.8336 16.505 0.702196 2.47219 57.243
12867041 10.9927 12.8835 16.8544 16.4955 0.669217 2.48322 57.2262
12867051 10.9927 12.8835 16.8544 16.4955 0.669217 2.48322 57.2262
12867061 11.0016 12.8651 16.9168 16.486 0.62544 2.49771 57.2695
12867072 11.0192 12.9388 16.9168 16.5241 0.665027 2.47817 57.3989
12867096 10.9663 12.9204 16.9376 16.5146 0.667518 2.50236 57.3389
12867102 10.9839 12.8375 16.9064 16.486 0.626218 2.50927 57.2138
12867112 10.9839 12.8375 16.9064 16.486 0.626218 2.50927 57.2138
12867123 10.9839 12.8743 16.9064 16.505 0.649995 2.50216 57.2697
12867133 10.9839 12.8743 16.9064 16.505 0.649995 2.50216 57.2697
12867146 11.0192 12.8651 16.9376 16.4194 0.57987 2.48231 57.2413
12867153 11.0104 12.9204 16.9064 16.4955 0.653687 2.47796 57.3327
12867171 11.0104 12.9204 16.9064 16.4955 0.653687 2.47796 57.3327
12867182 10.9839 12.8559 16.9168 16.4194 0.601003 2.49134 57.176
12867184 10.9399 12.8651 16.8752 16.486 0.671721 2.50748 57.1662
12867197 10.9399 12.8651 16.8752 16.486 0.671721 2.50748 57.1662
12867204 11.0016 12.8927 16.8856 16.505 0.659248 2.48661 57.285
12867224 10.9399 12.8006 16.8856 16.5146 0.651759 2.53575 57.1407
12867235 11.0104 12.8927 16.9272 16.5622 0.660935 2.50545 57.3925
12867247 11.0104 12.8927 16.9272 16.5622 0.660935 2.50545 57.3925
12867255 10.9135 12.8743 16.9168 16.5336 0.689062 2.53221 57.2382
12867272 11.0104 12.9019 16.8128 16.4574 0.671616 2.45476 57.1826
12867275 11.0104 12.9019 16.8128 16.4574 0.671616 2.45476 57.1826
12867285 10.9927 12.9664 16.8024 16.4765 0.719672 2.44237 57.2381
12867305 10.9839 12.8375 16.844 16.5241 0.670397 2.50396 57.1895
12867318 10.9487 12.8283 16.9064 16.5526 0.666443 2.53741 57.236
12867325 10.9487 12.8283 16.9064 16.5526 0.666443 2.53741 57.236
12867335 10.9311 12.8099 16.8856 16.6002 0.696075 2.55429 57.2268
12867345 10.9047 12.8099 16.896 16.5812 0.695187 2.56052 57.1917
12867355 10.9047 12.8099 16.896 16.5812 0.695187 2.56052 57.1917
12867365 10.9223 12.9019 16.948 16.6383 0.727201 2.5506 57.4105
12867375 10.9223 12.9019 16.948 16.6383 0.727201 2.5506 57.4105
12867386 10.8342 12.8191 16.9688 16.6859 0.742462 2.61781 57.308
12867396 10.8959 12.7638 17.0098 16.7811 0.713304 2.64521 57.4506
12867407 10.8959 12.7638 17.0098 16.7811 0.713304 2.64521 57.4506
12867416 10.8606 12.7454 17.0197 16.7144 0.688669 2.64948 57.3401
12867429 10.8254 12.7638 17.0591 16.7811 0.72282 2.67745 57.4293
12867436 10.8254 12.7638 17.0591 16.7811 0.72282 2.67745 57.4293
12867446 10.8078 12.727 17.0295 16.8287 0.7485 2.6981 57.3929
12867456 10.8078 12.727 17.0295 16.8287 0.7485 2.6981 57.3929
12867466 10.7549 12.6625 17 16.8096 0.750181 2.72394 57.2271
12867476 10.7461 12.6165 17.0787 16.8477 0.715369 2.76594 57.289
12867486 10.7461 12.6165 17.0787 16.8477 0.715369 2.76594 57.289
12867496 10.6756 12.6257 17.0492 16.9048 0.788409 2.79084 57.2554
12867506 10.7109 12.6349 17.0394 16.8953 0.776845 2.77291 57.2804
12867533 10.6668 12.5796 17.2067 16.9714 0.730315 2.85549 57.4246
12867546 10.6492 12.552 17.0886 16.9524 0.771543 2.8405 57.2422
12867557 10.614 12.552 17.0492 17.039 0.841758 2.8615 57.2542
12867568 10.614 12.552 17.0492 17.039 0.841758 2.8615 57.2542
12867577 10.5523 12.4967 17.1083 17.0292 0.815472 2.90848 57.1866
12867587 10.5964 12.4691 17.1477 17.0682 0.782669 2.91989 57.2813
12867602 10.5964 12.4691 17.1477 17.0682 0.782669 2.91989 57.2813
12867607 10.614 12.4967 17.1378 17.1364 0.819612 2.91805 57.3849
12867617 10.614 12.4967 17.1378 17.1364 0.819612 2.91805 57.3849
12867628 10.5611 12.4783 17.1772 17.0682 0.78913 2.93426 57.2849
12867637 10.5876 12.4691 17.2264 17.1559 0.788239 2.95764 57.439
12867651 10.5876 12.4691 17.2264 17.1559 0.788239 2.95764 57.439
12867657 10.5788 12.3586 17.187 17.1461 0.759098 2.98473 57.2705
12867667 10.5699 12.3586 17.187 17.1461 0.763059 2.98749 57.2617
12867677 10.5699 12.3586 17.187 17.1461 0.763059 2.98749 57.2617
12867687 10.5523 12.3678 17.2461 17.2338 0.785369 3.02084 57.4001
12867700 10.5523 12.3678 17.2461 17.2338 0.785369 3.02084 57.4001
12867707 10.5347 12.3586 17.1575 17.263 0.841609 3.01686 57.3139
12867717 10.5435 12.331 17.1969 17.2533 0.804141 3.02897 57.3247
12867727 10.5435 12.331 17.1969 17.2533 0.804141 3.02897 57.3247
12867737 10.5347 12.3034 17.128 17.3507 0.868592 3.04639 57.3168
12867747 10.4819 12.3126 17.187 17.3215 0.857356 3.06636 57.3029
12867758 10.4819 12.3126 17.187 17.3215 0.857356 3.06636 57.3029
12867767 10.4642 12.2941 17.1477 17.3215 0.875339 3.06952 57.2275
12867784 10.4642 12.2941 17.1477 17.3215 0.875339 3.06952 57.2275
12867787 10.4114 12.2573 17.2067 17.3312 0.861102 3.1122 57.2067
12867797 10.3938 12.3034 17.2362 17.3897 0.899729 3.12146 57.3231
12867815 10.3938 12.3034 17.2362 17.3897 0.899729 3.12146 57.3231
12867823 10.4114 12.2573 17.3248 17.5261 0.88976 3.17688 57.5196
12867833 10.3938 12.2481 17.2756 17.5066 0.907844 3.17123 57.4241
12867854 10.4114 12.2389 17.3248 17.5358 0.886124 3.1847 57.511
12867858 10.4114 12.2389 17.3248 17.5358 0.886124 3.1847 57.511
12867869 10.3321 12.11 17.2953 17.5456 0.885117 3.24672 57.283
12867880 10.4114 12.2573 17.2756 17.4579 0.883317 3.1527 57.4022
12867888 10.4114 12.2573 17.2756 17.4579 0.883317 3.1527 57.4022
12867899 10.4114 12.2573 17.2166 17.4968 0.926334 3.14855 57.3821
12867911 10.3409 12.1652 17.3052 17.4774 0.871244 3.21434 57.2887
12867919 10.3409 12.1652 17.3052 17.4774 0.871244 3.21434 57.2887
12867929 10.3762 12.2941 17.3248 17.4189 0.876117 3.15431 57.4141
12867950 10.4026 12.2297 17.2756 17.4189 0.859278 3.15618 57.3268
12867961 10.3497 12.3034 17.2461 17.4676 0.947914 3.15355 57.3668
12867969 10.3497 12.3034 17.2461 17.4676 0.947914 3.15355 57.3668
12867985 10.4466 12.3402 17.1772 17.3799 0.913924 3.07887 57.344
12867990 10.4731 12.3678 17.187 17.4092 0.921401 3.06997 57.4371
12868000 10.4731 12.3678 17.187 17.4092 0.921401 3.06997 57.4371
12868010 10.5083 12.4323 17.1772 17.3994 0.932869 3.03458 57.5172
12868021 10.5083 12.4323 17.1772 17.3994 0.932869 3.03458 57.5172
12868031 10.5259 12.3678 17.128 17.302 0.879198 3.01871 57.3237
12868039 10.5699 12.4783 17.128 17.2338 0.877124 2.95597 57.4101
12868056 10.5699 12.4783 17.128 17.2338 0.877124 2.95597 57.4101
12868060 10.6228 12.506 17.128 17.1754 0.840363 2.91855 57.4321
12868070 10.5788 12.5612 17.0197 17.0877 0.895432 2.87369 57.2473
12868090 10.6316 12.5704 17.0591 17.0682 0.849459 2.85855 57.3293
12868111 10.6052 12.5152 16.9688 17.0292 0.862423 2.85661 57.1184
12868122 10.614 12.5336 17.0197 17 0.830856 2.85271 57.1673
12868146 10.614 12.5336 17.0197 17 0.830856 2.85271 57.1673
12868147 10.6228 12.6073 17.0394 17 0.849092 2.83118 57.2694
12868157 10.6492 12.4875 17.0689 16.9905 0.76924 2.86452 57.1961
12868162 10.6492 12.4875 17.0689 16.9905 0.76924 2.86452 57.1961
12868172 10.6492 12.5244 17.1969 16.9905 0.727308 2.88012 57.361
12868192 10.6052 12.4599 17.1083 16.9714 0.751552 2.89124 57.1448
12868208 10.6316 12.4599 17.2362 16.9524 0.674084 2.90602 57.2802
12868212 10.6316 12.4599 17.2362 16.9524 0.674084 2.90602 57.2802
12868222 10.5611 12.4691 17.1575 17.0487 0.78586 2.92889 57.2365
12868236 10.5964 12.4231 17.2658 17.1169 0.730735 2.96938 57.4021
12868243 10.5964 12.4231 17.2658 17.1169 0.730735 2.96938 57.4021
12868259 10.5611 12.377 17.2953 17.0585 0.68903 2.98879 57.2919
12868264 10.5611 12.377 17.2953 17.0585 0.68903 2.98879 57.2919
12868273 10.4907 12.3034 17.2756 17.1364 0.731325 3.04635 57.206
12868287 10.5083 12.377 17.3839 17.2241 0.743091 3.05844 57.4933
12868303 10.5435 12.2757 17.3937 17.1851 0.663593 3.07317 57.3981
12868315 10.5259 12.2757 17.3642 17.2046 0.692952 3.07663 57.3704
12868323 10.5259 12.2757 17.3642 17.2046 0.692952 3.07663 57.3704
12868338 10.4642 12.2389 17.4823 17.1559 0.631383 3.12211 57.3414
12868343 10.4642 12.2389 17.4823 17.1559 0.631383 3.12211 57.3414
12868355 10.4642 12.2757 17.4134 17.1948 0.694394 3.10427 57.3483
12868366 10.4819 12.2941 17.443 17.1656 0.668705 3.09296 57.3846
12868375 10.4819 12.2941 17.443 17.1656 0.668705 3.09296 57.3846
12868389 10.4995 12.2297 17.3839 17.0779 0.622576 3.07723 57.191
12868395 10.5171 12.2757 17.4331 17.0974 0.620574 3.07145 57.3234
12868415 10.4907 12.2757 17.3937 17.0779 0.64173 3.06752 57.2381
12868441 10.4907 12.2757 17.3937 17.0779 0.64173 3.06752 57.2381
12868444 10.4642 12.1836 17.3839 17.1656 0.656107 3.1212 57.1974
12868453 10.4731 12.2389 17.4528 17.2533 0.681984 3.13337 57.4181
12868455 10.4731 12.2389 17.4528 17.2533 0.681984 3.13337 57.4181
12868466 10.4642 12.2113 17.4725 17.1656 0.628185 3.13083 57.3136
12868476 10.4731 12.2573 17.5217 17.1559 0.617692 3.12166 57.408
12868491 10.4731 12.2573 17.5217 17.1559 0.617692 3.12166 57.408
12868496 10.4642 12.2757 17.443 17.2046 0.685298 3.11241 57.3875
12868506 10.4026 12.2757 17.4823 17.1072 0.653929 3.11986 57.2678
12868516 10.4026 12.2205 17.4823 17.1072 0.630417 3.13736 57.2126
12868526 10.4378 12.2665 17.5217 17.1754 0.645605 3.13391 57.4014
12868540 10.4378 12.2665 17.5217 17.1754 0.645605 3.13391 57.4014
12868546 10.4378 12.1652 17.4627 17.2338 0.653827 3.16585 57.2995
12868556 10.4202 12.1284 17.502 17.2825 0.64913 3.20128 57.3331
12868576 10.3674 12.1652 17.5611 17.302 0.670251 3.2225 57.3957
12868592 10.3585 12.1744 17.5808 17.3117 0.673419 3.22841 57.4255
12868597 10.3585 12.1744 17.5808 17.3117 0.673419 3.22841 57.4255
12868607 10.385 12.0823 17.5709 17.3215 0.631073 3.24926 57.3597
12868619 10.385 12.0823 17.5709 17.3215 0.631073 3.24926 57.3597
12868627 10.3585 12.0915 17.5512 17.3702 0.676274 3.26068 57.3715
12868643 10.3762 12.1192 17.5709 17.4384 0.700149 3.26425 57.5047
12868659 10.3585 12.156 17.5512 17.3897 0.711814 3.24417 57.4555
12868669 10.385 12.1008 17.5316 17.3215 0.656503 3.23533 57.3388
12868695 10.3762 12.1836 17.5906 17.4287 0.714454 3.24583 57.5791
12868700 10.3585 12.1284 17.5611 17.4092 0.703967 3.25894 57.4572
12868723 10.3321 12.0731 17.5119 17.3897 0.706211 3.2709 57.3068
12868730 10.3321 12.0731 17.5119 17.3897 0.706211 3.2709 57.3068
12868741 10.3321 12.0731 17.5414 17.3897 0.69297 3.27693 57.3363
12868752 10.3409 12.1008 17.5217 17.3799 0.705424 3.25931 57.3433
12868760 10.3409 12.1008 17.5217 17.3799 0.705424 3.25931 57.3433
12868774 10.3057 12.11 17.4331 17.2436 0.707057 3.22136 57.0923
12868781 10.3409 12.11 17.5217 17.3215 0.684541 3.24439 57.2941
12868791 10.3409 12.11 17.5217 17.3215 0.684541 3.24439 57.2941
12868802 10.3321 12.0179 17.4922 17.3215 0.662598 3.27052 57.1637
12868811 10.3321 12.0179 17.4922 17.3215 0.662598 3.27052 57.1637
12868826 10.3145 12.0547 17.5316 17.3117 0.664362 3.27046 57.2125
12868831 10.3321 12.0731 17.5316 17.4189 0.709763 3.2809 57.3557
12868840 10.3321 12.0731 17.5316 17.4189 0.709763 3.2809 57.3557
12868852 10.2617 12.0179 17.5217 17.4871 0.751293 3.33295 57.2884
12868861 10.2881 12.0915 17.4823 17.565 0.821117 3.30883 57.427
12868881 10.2617 12.0731 17.5414 17.604 0.815099 3.34305 57.4802
12868892 10.2617 12.0731 17.5414 17.604 0.815099 3.34305 57.4802
12868904 10.2264 12.0731 17.5316 17.5261 0.802523 3.33648 57.3572
12868912 10.3057 12.11 17.4331 17.5845 0.851282 3.29129 57.4333
12868923 10.3057 12.11 17.4331 17.5845 0.851282 3.29129 57.4333
12868932 10.3057 12.1376 17.4627 17.5456 0.833228 3.28057 57.4515
12868944 10.2881 12.11 17.3937 17.5163 0.848255 3.27494 57.3081
12868966 10.2881 12.11 17.3937 17.5163 0.848255 3.27494 57.3081
12868968 10.2969 12.1468 17.3839 17.565 0.884718 3.26834 57.3926
12868983 10.3321 12.1652 17.3839 17.5456 0.868389 3.24729 57.4268
12868992 10.3409 12.2757 17.3347 17.4871 0.908458 3.18736 57.4385
12869014 10.4466 12.2665 17.2658 17.3994 0.851163 3.12454 57.3784
12869023 10.4114 12.2665 17.2264 17.4287 0.897115 3.13357 57.333
12869034 10.4114 12.2665 17.2264 17.4287 0.897115 3.13357 57.333
12869043 10.385 12.3126 17.2067 17.4189 0.933212 3.12127 57.3232
12869055 10.385 12.3126 17.2067 17.4189 0.933212 3.12127 57.3232
12869065 10.4907 12.331 17.1181 17.2825 0.875843 3.03526 57.2223
12869076 10.5259 12.4047 17.0787 17.2728 0.904635 2.99072 57.2821
12869093 10.5259 12.4047 17.0787 17.2728 0.904635 2.99072 57.2821
12869097 10.5347 12.4691 17.0492 17.1656 0.896037 2.93899 57.2187
12869105 10.5788 12.5981 16.9792 17.0974 0.933355 2.85568 57.2534
12869115 10.5788 12.5981 16.9792 17.0974 0.933355 2.85568 57.2534
12869125 10.6756 12.7086 16.9896 17.0195 0.898534 2.77686 57.3933
12869145 10.7725 12.7638 16.7193 16.9524 0.972071 2.65749 57.208
12869160 10.7725 12.8743 16.6673 16.8096 0.982139 2.58125 57.1238
12869166 10.7725 12.8743 16.6673 16.8096 0.982139 2.58125 57.1238
12869176 10.8078 12.8743 16.6257 16.724 0.948957 2.54268 57.0317
12869186 10.7902 12.9296 16.6985 16.8382 0.995144 2.57183 57.2564
12869196 10.7902 12.9296 16.6985 16.8382 0.995144 2.57183 57.2564
12869206 10.8166 12.994 16.6881 16.762 0.98297 2.52516 57.2607
12869216 10.8166 12.994 16.6881 16.762 0.98297 2.52516 57.2607
12869226 10.799 12.9112 16.6569 16.7811 0.97833 2.55332 57.1481
12869236 10.8342 12.9664 16.7505 16.8096 0.955093 2.55213 57.3607
12869249 10.8342 12.9664 16.7505 16.8096 0.955093 2.55213 57.3607
12869256 10.8166 12.9388 16.7401 16.8572 0.976139 2.57405 57.3527
12869266 10.8606 12.9296 16.6569 16.8667 0.994006 2.5474 57.3138
12869286 10.8782 12.9664 16.6777 16.8382 0.980067 2.52906 57.3605
12869306 10.843 12.9296 16.6361 16.7525 0.963509 2.5234 57.1612
12869320 10.8342 12.948 16.7297 16.8477 0.972742 2.56152 57.3596
12869337 10.799 12.9204 16.7609 16.8763 0.974959 2.59372 57.3564
12869347 10.7813 12.9112 16.7817 16.9239 0.989589 2.61673 57.398
12869357 10.7813 12.9112 16.7817 16.9239 0.989589 2.61673 57.398
12869368 10.7637 12.948 16.844 16.9524 0.996658 2.63042 57.5082
12869377 10.7637 12.948 16.844 16.9524 0.996658 2.63042 57.5082
12869391 10.6404 12.773 16.8128 16.9143 0.977457 2.70746 57.1406
12869397 10.7109 12.727 16.8752 16.8572 0.873744 2.70103 57.1703
12869407 10.7109 12.727 16.8752 16.8572 0.873744 2.70103 57.1703
12869418 10.6404 12.6994 16.7505 16.9429 0.986868 2.72304 57.0331
12869427 10.614 12.6165 16.9688 17 0.888854 2.81604 57.1993
12869447 10.6316 12.6994 16.948 16.9905 0.921178 2.77832 57.2695
12869459 10.5964 12.6625 16.9584 16.9429 0.896874 2.79279 57.1602
12869471 10.5964 12.6625 16.9584 16.9429 0.896874 2.79279 57.1602
12869482 10.658 12.6717 17 17.0682 0.906777 2.80631 57.3979
12869488 10.658 12.6717 17 17.0682 0.906777 2.80631 57.3979
12869498 10.6492 12.6257 17.0098 17.0292 0.870571 2.81716 57.314
12869508 10.6316 12.5796 17 17.0779 0.884092 2.84522 57.2892
12869518 10.6316 12.5796 17 17.0779 0.884092 2.84522 57.2892
12869528 10.6933 12.552 17.0394 17.0682 0.822783 2.84092 57.3528
12869538 10.5611 12.5244 17.0984 17.1072 0.8605 2.91147 57.2911
12869550 10.5611 12.5244 17.0984 17.1072 0.8605 2.91147 57.2911
12869558 10.5876 12.5796 17.1083 17.1559 0.887871 2.89832 57.4314
12869573 10.5876 12.5796 17.1083 17.1559 0.887871 2.89832 57.4314
12869581 10.5788 12.506 17.1083 17.0974 0.836241 2.91174 57.2904
12869590 10.6228 12.5152 17.1378 17.0682 0.794655 2.89517 57.344
12869600 10.6228 12.5152 17.1378 17.0682 0.794655 2.89517 57.344
12869610 10.658 12.506 17.1378 17.1266 0.799587 2.89938 57.4285
12869621 10.658 12.506 17.1378 17.1266 0.799587 2.89938 57.4285
12869630 10.5699 12.4691 17.1969 17.1169 0.792989 2.94877 57.3528
12869640 10.6228 12.4691 17.187 17.1656 0.794205 2.94042 57.4446
12869660 10.5523 12.4691 17.1673 17.0585 0.789514 2.93578 57.2472
12869670 10.5876 12.4231 17.1378 17.0974 0.783953 2.94115 57.2459
12869682 10.5876 12.4231 17.1378 17.0974 0.783953 2.94115 57.2459
12869691 10.658 12.5244 17.1181 17.1169 0.812092 2.88744 57.4174
12869716 10.6228 12.4875 17.1083 17.0195 0.77568 2.88726 57.2381
12869736 10.6404 12.5244 17.187 17.0292 0.752059 2.88897 57.3811
12869738 10.6404 12.5244 17.187 17.0292 0.752059 2.88897 57.3811
12869741 10.6316 12.5152 17.1378 16.9905 0.757849 2.876 57.2751
12869751 10.6668 12.5704 17.128 17.0487 0.794375 2.85804 57.4139
12869761 10.6668 12.5704 17.128 17.0487 0.794375 2.85804 57.4139
12869772 10.7021 12.6165 17.0591 16.9714 0.796345 2.80178 57.349
12869782 10.6756 12.5796 17 16.8953 0.787079 2.79263 57.1506
12869793 10.6756 12.5796 17 16.8953 0.787079 2.79263 57.1506
12869802 10.7109 12.7362 17.0394 16.8477 0.799537 2.73136 57.3341
12869812 10.7109 12.7362 17.0394 16.8477 0.799537 2.73136 57.3341
12869822 10.6492 12.6257 17.0295 16.8477 0.785023 2.78266 57.1521
12869832 10.7285 12.6349 17.0492 16.9048 0.768518 2.77158 57.3174
12869852 10.7197 12.6809 17.0591 16.8096 0.747263 2.7418 57.2693
12869868 10.7637 12.6165 17.0098 16.8858 0.754535 2.75389 57.2758
12869882 10.7197 12.7086 17 16.8382 0.797611 2.72671 57.2664
12869903 10.7109 12.6809 17.0787 16.8858 0.77458 2.76501 57.3563
12869914 10.7197 12.6717 17.1673 16.8572 0.714922 2.77793 57.416
12869936 10.7285 12.6349 17.1575 16.8477 0.695762 2.78249 57.3686
12869943 10.7373 12.6625 17.0984 16.8667 0.738046 2.76267 57.365
12869953 10.7373 12.6625 17.0984 16.8667 0.738046 2.76267 57.365
12869964 10.7373 12.7086 17.1575 16.7906 0.698832 2.74477 57.394
12869973 10.7373 12.7086 17.1575 16.7906 0.698832 2.74477 57.394
12869985 10.7109 12.5981 17.1181 16.8001 0.685495 2.78084 57.2272
12869996 10.7197 12.6625 17.1477 16.8572 0.719845 2.77659 57.3871
12870006 10.7197 12.6625 17.1477 16.8572 0.719845 2.77659 57.3871
12870015 10.7197 12.5888 17.1083 16.8763 0.714368 2.7951 57.2931
12870027 10.7373 12.5981 17.0886 16.8382 0.703055 2.77446 57.2621
12870035 10.7373 12.5981 17.0886 16.8382 0.703055 2.77446 57.2621
12870045 10.7549 12.5704 17.128 16.7716 0.637439 2.77174 57.2249
12870054 10.7549 12.5704 17.128 16.7716 0.637439 2.77174 57.2249
12870065 10.6404 12.5981 17.2067 16.7811 0.669268 2.81759 57.2263
12870075 10.7109 12.5704 17.1083 16.8287 0.690308 2.79342 57.2183
12870084 10.7109 12.5704 17.1083 16.8287 0.690308 2.79342 57.2183
12870095 10.7021 12.6717 17.128 16.724 0.683978 2.74653 57.2257
12870115 10.658 12.6073 17.0984 16.8382 0.738165 2.79833 57.2019
12870124 10.6933 12.5428 17.1673 16.8096 0.651869 2.81603 57.213
12870145 10.6933 12.4967 17.1673 16.9143 0.676808 2.85263 57.2717
12870158 10.6845 12.5336 17.2658 16.8477 0.624025 2.85064 57.3315
12870166 10.6845 12.5336 17.2658 16.8477 0.624025 2.85064 57.3315
12870179 10.6404 12.5612 17.2658 16.8477 0.655466 2.85576 57.3151
12870186 10.6316 12.4691 17.2756 16.9048 0.640139 2.9014 57.2812
12870206 10.5876 12.552 17.2362 16.9048 0.712723 2.88095 57.2806
12870217 10.5876 12.552 17.2362 16.9048 0.712723 2.88095 57.2806
12870230 10.6052 12.4783 17.3445 16.9048 0.625053 2.92132 57.3329
12870236 10.614 12.4139 17.3741 17.0097 0.625119 2.96698 57.4117
12870246 10.614 12.4139 17.3741 17.0097 0.625119 2.96698 57.4117
12870258 10.6404 12.3586 17.4331 16.981 0.551286 2.98235 57.4131
12870266 10.5699 12.331 17.3642 17.0585 0.634673 3.01492 57.3236
12870282 10.5699 12.331 17.3642 17.0585 0.634673 3.01492 57.3236
12870286 10.6316 12.3034 17.3347 17.0974 0.625134 3.0062 57.3671
12870306 10.6052 12.2941 17.3544 17.1072 0.628373 3.02354 57.3609
12870318 10.6052 12.3218 17.3741 17.0779 0.618899 3.01288 57.379
12870327 10.6052 12.3218 17.3741 17.0779 0.618899 3.01288 57.379
12870337 10.6668 12.3126 17.3544 17.0974 0.60454 2.99638 57.4312
12870347 10.614 12.2481 17.3445 17.0974 0.605106 3.03116 57.304
12870357 10.614 12.2481 17.3445 17.0974 0.605106 3.03116 57.304
12870375 10.614 12.2757 17.3347 17.1364 0.637826 3.02855 57.3608
12870378 10.614 12.2757 17.3347 17.1364 0.637826 3.02855 57.3608
12870389 10.5523 12.2297 17.3839 17.1461 0.627959 3.07475 57.312
12870398 10.5788 12.2297 17.4134 17.2338 0.640193 3.09076 57.4557
12870410 10.5788 12.2297 17.4134 17.2338 0.640193 3.09076 57.4557
12870418 10.5171 12.2113 17.3937 17.2728 0.685254 3.12001 57.3949
12870432 10.4995 12.2021 17.3937 17.2923 0.697491 3.13251 57.3876
12870439 10.4995 12.2021 17.3937 17.2923 0.697491 3.13251 57.3876
12870448 10.5259 12.1928 17.4036 17.3117 0.685611 3.13313 57.4341
12870458 10.4819 12.1928 17.4233 17.3117 0.696507 3.15111 57.4097
12870468 10.4819 12.1744 17.4233 17.2923 0.680453 3.15292 57.3718
12870478 10.5083 12.2297 17.4134 17.3117 0.704676 3.1291 57.4632
12870488 10.5083 12.2297 17.4134 17.3117 0.704676 3.1291 57.4632
12870498 10.4731 12.2113 17.4134 17.263 0.692031 3.13598 57.3608
12870509 10.5171 12.2481 17.4036 17.2728 0.696445 3.11042 57.4416
12870518 10.5171 12.2481 17.4036 17.2728 0.696445 3.11042 57.4416
12870529 10.4995 12.2205 17.3052 17.2533 0.728521 3.10025 57.2784
12870540 10.4995 12.2205 17.3052 17.2533 0.728521 3.10025 57.2784
12870550 10.4026 12.1376 17.3642 17.3117 0.735167 3.18156 57.2162
12870562 10.4202 12.2297 17.4036 17.3605 0.769129 3.16495 57.4139
12870570 10.4202 12.2297 17.4036 17.3605 0.769129 3.16495 57.4139
12870583 10.3585 12.1836 17.3937 17.341 0.773576 3.19305 57.2769
12870591 10.429 12.2297 17.3741 17.4384 0.811279 3.17214 57.4712
12870610 10.429 12.2113 17.3741 17.3507 0.766543 3.15989 57.3651
12870630 10.3674 12.1468 17.4627 17.4871 0.784796 3.24611 57.4639
12870641 10.4202 12.1744 17.3347 17.4871 0.830182 3.19434 57.4164
12870650 10.4202 12.1744 17.3347 17.4871 0.830182 3.19434 57.4164
12870660 10.4202 12.1652 17.3544 17.4579 0.805137 3.19529 57.3977
12870669 10.4466 12.1652 17.2362 17.3702 0.809419 3.14443 57.2183
12870680 10.4466 12.1652 17.2362 17.3702 0.809419 3.14443 57.2183
12870691 10.4907 12.3218 17.2461 17.3605 0.847051 3.08106 57.419
12870700 10.4907 12.3218 17.2461 17.3605 0.847051 3.08106 57.419
12870713 10.4819 12.3218 17.187 17.2533 0.83248 3.04923 57.244
12870720 10.5611 12.4047 17.1181 17.1656 0.825775 2.96542 57.2495
12870740 10.4819 12.4231 17.0591 17.1559 0.891992 2.97007 57.1199
12870750 10.5876 12.3862 17.0591 17.1072 0.808007 2.93815 57.14
12870760 10.5876 12.3862 17.0591 17.1072 0.808007 2.93815 57.14
12870770 10.4995 12.3862 17.0984 17.1851 0.862974 2.99055 57.1693
12870791 10.5347 12.4323 17.128 17.1559 0.840807 2.96507 57.2508
12870799 10.5876 12.4415 17.187 17.1754 0.802496 2.96211 57.3914
12870822 10.614 12.4967 17.2067 17.1461 0.792751 2.93458 57.4636
12870831 10.6052 12.4231 17.1772 17.1364 0.774783 2.95212 57.3418
12870841 10.6052 12.4231 17.1772 17.1364 0.774783 2.95212 57.3418
12870854 10.5788 12.506 17.1477 17.0779 0.810277 2.91594 57.3103
12870861 10.5788 12.506 17.1477 17.0779 0.810277 2.91594 57.3103
12870871 10.5699 12.4507 17.2166 17.1266 0.780475 2.96072 57.3639
12870881 10.5611 12.3862 17.2658 17.0585 0.706187 2.97971 57.2716
12870891 10.5611 12.3862 17.2658 17.0585 0.706187 2.97971 57.2716
12870902 10.5876 12.4139 17.2855 17.1266 0.726086 2.98118 57.4135
12870912 10.4819 12.3218 17.3248 17.1364 0.720975 3.0536 57.2649
12870932 10.5171 12.3402 17.4134 17.1656 0.685665 3.06124 57.4363
12870944 10.5171 12.3402 17.4134 17.1656 0.685665 3.06124 57.4363
12870952 10.5259 12.3218 17.4036 17.1754 0.682452 3.06424 57.4266
12870966 10.429 12.2757 17.4528 17.2533 0.717285 3.13565 57.4109
12870982 10.4466 12.3126 17.443 17.2533 0.729379 3.11643 57.4555
12871012 10.4026 12.2205 17.4331 17.2046 0.693908 3.14735 57.2608
12871016 10.3938 12.2021 17.4823 17.2533 0.688642 3.17621 57.3315
12871038 10.3938 12.1376 17.4922 17.2533 0.656867 3.1987 57.2769
12871044 10.4114 12.1744 17.5709 17.2923 0.645947 3.20564 57.449
12871055 10.4114 12.1744 17.5709 17.2923 0.645947 3.20564 57.449
12871063 10.3762 12.1652 17.6005 17.341 0.66523 3.23576 57.4828
12871075 10.3938 12.0823 17.6005 17.3215 0.613949 3.2525 57.3981
12871083 10.3938 12.0823 17.6005 17.3215 0.613949 3.2525 57.3981
12871097 10.429 12.2021 17.5808 17.2923 0.645402 3.19333 57.5041
12871113 10.3674 12.11 17.5611 17.1851 0.597054 3.21604 57.2235
12871125 10.4731 12.1836 17.5709 17.1948 0.580996 3.16316 57.4225
12871134 10.4731 12.1836 17.5709 17.1948 0.580996 3.16316 57.4225
12871145 10.5171 12.2205 17.502 17.1461 0.587028 3.1133 57.3857
12871156 10.4995 12.2297 17.5316 17.0779 0.556597 3.10794 57.3387
12871165 10.4995 12.2297 17.5316 17.0779 0.556597 3.10794 57.3387
12871175 10.4731 12.1836 17.4725 16.981 0.533643 3.09843 57.1102
12871187 10.4731 12.1836 17.4725 16.981 0.533643 3.09843 57.1102
12871195 10.5171 12.2113 17.5119 17.0779 0.549668 3.10411 57.3182
12871210 10.5523 12.2021 17.5119 17.0585 0.521725 3.09184 57.3247
12871215 10.5523 12.2021 17.5119 17.0585 0.521725 3.09184 57.3247
12871225 10.5788 12.2941 17.4823 16.9143 0.50087 3.0183 57.2696
12871235 10.5964 12.4047 17.502 16.9714 0.555769 2.99414 57.4745
12871245 10.5964 12.4047 17.502 16.9714 0.555769 2.99414 57.4745
12871257 10.6404 12.377 17.4331 16.9429 0.542912 2.9686 57.3935
12871266 10.6404 12.377 17.4331 16.9429 0.542912 2.9686 57.3935
12871281 10.6228 12.3954 17.4134 16.8477 0.526771 2.94423 57.2794
12871286 10.6845 12.4323 17.4331 16.8382 0.502238 2.91556 57.388
12871306 10.614 12.3586 17.3839 16.8191 0.515896 2.9463 57.1757
12871316 10.6668 12.3862 17.443 16.8667 0.498223 2.94353 57.3628
12871327 10.6668 12.3862 17.443 16.8667 0.498223 2.94353 57.3628
12871336 10.7021 12.4415 17.3937 16.8572 0.523961 2.90291 57.3945
12871349 10.7021 12.4415 17.3937 16.8572 0.523961 2.90291 57.3945
12871357 10.6492 12.4415 17.3839 16.8001 0.527492 2.90528 57.2747
12871366 10.6756 12.4139 17.4134 16.8096 0.494838 2.9139 57.3126
12871387 10.6845 12.4323 17.3839 16.743 0.483429 2.88508 57.2436
12871397 10.7373 12.4599 17.3642 16.6193 0.42744 2.82952 57.1807
12871421 10.7373 12.4875 17.2953 16.6002 0.461811 2.80216 57.1204
12871427 10.7373 12.4875 17.2953 16.6002 0.461811 2.80216 57.1204
12871437 10.7197 12.4691 17.315 16.6573 0.477499 2.82977 57.1611
12871447 10.7285 12.4967 17.3347 16.6669 0.480729 2.82463 57.2268
12871467 10.6845 12.377 17.3445 16.6764 0.448659 2.87989 57.0824
12871477 10.7285 12.4139 17.443 16.7144 0.417477 2.88353 57.2998
12871491 10.7285 12.4139 17.443 16.7144 0.417477 2.88353 57.2998
12871497 10.7461 12.4875 17.4233 16.7716 0.474378 2.863 57.4285
12871517 10.6933 12.4231 17.4331 16.8191 0.486261 2.91168 57.3686
12871527 10.7021 12.5152 17.4134 16.8287 0.534433 2.87809 57.4593
12871547 10.7461 12.4875 17.3642 16.7811 0.504667 2.85252 57.3789
12871564 10.7021 12.4691 17.4233 16.743 0.473848 2.87641 57.3375
12871570 10.7021 12.4691 17.4233 16.743 0.473848 2.87641 57.3375
12871578 10.7197 12.5428 17.4036 16.7811 0.522476 2.85188 57.4472
12871598 10.6845 12.4507 17.3741 16.6859 0.471228 2.86514 57.1951
12871613 10.7461 12.4139 17.3741 16.724 0.444329 2.86546 57.258
12871618 10.7461 12.4139 17.3741 16.724 0.444329 2.86546 57.258
12871639 10.6845 12.4599 17.3642 16.7525 0.508097 2.8743 57.2611
12871640 10.6668 12.4231 17.4233 16.8191 0.502384 2.91786 57.3323
12871649 10.6668 12.4231 17.4233 16.8191 0.502384 2.91786 57.3323
12871661 10.7109 12.4415 17.4233 16.8001 0.482544 2.89434 57.3758
12871670 10.6404 12.3862 17.4331 16.8477 0.506219 2.94573 57.3075
12871685 10.6404 12.3862 17.4331 16.8477 0.506219 2.94573 57.3075
12871690 10.7461 12.4231 17.4331 16.8763 0.487182 2.90722 57.4786
12871710 10.6668 12.377 17.4823 16.8096 0.452372 2.94269 57.3358
12871721 10.658 12.4231 17.4036 16.8191 0.515065 2.91646 57.3038
12871733 10.658 12.4231 17.4036 16.8191 0.515065 2.91646 57.3038
12871741 10.6845 12.4139 17.3937 16.8096 0.499678 2.907 57.3017
12871756 10.6228 12.4415 17.4627 16.8001 0.504193 2.93015 57.3271
12871761 10.6228 12.4415 17.4627 16.8001 0.504193 2.93015 57.3271
12871771 10.6492 12.377 17.4823 16.8191 0.46427 2.95021 57.3277
12871782 10.6492 12.377 17.4823 16.8191 0.46427 2.95021 57.3277
12871791 10.6316 12.4139 17.4036 16.8382 0.531033 2.93162 57.2873
12871808 10.6845 12.4323 17.4134 16.8382 0.510991 2.91141 57.3684
12871811 10.6845 12.4323 17.4134 16.8382 0.510991 2.91141 57.3684
12871821 10.7021 12.5152 17.3445 16.8382 0.569144 2.86555 57.4
12871834 10.7021 12.5152 17.3445 16.8382 0.569144 2.86555 57.4
12871841 10.7021 12.4599 17.3642 16.7906 0.516525 2.87686 57.3168
12871851 10.658 12.4415 17.3544 16.8001 0.536734 2.89629 57.254
12871861 10.658 12.4415 17.3544 16.8001 0.536734 2.89629 57.254
12871873 10.7109 12.4691 17.3937 16.8001 0.507462 2.87949 57.3739
12871881 10.6756 12.4415 17.3642 16.8382 0.540751 2.90091 57.3195
12871891 10.6756 12.4415 17.3642 16.8382 0.540751 2.90091 57.3195
12871905 10.7197 12.4967 17.4036 16.8191 0.519082 2.87425 57.4392
12871922 10.6492 12.4415 17.3937 16.8572 0.547487 2.91941 57.3417
12871932 10.6756 12.5336 17.3052 16.8763 0.622508 2.86776 57.3906
12871942 10.6756 12.5336 17.3052 16.8763 0.622508 2.86776 57.3906
12871953 10.6845 12.506 17.3347 16.7906 0.557181 2.86175 57.3157
12871962 10.6933 12.5152 17.2166 16.8191 0.622112 2.83713 57.2441
12871978 10.6933 12.5152 17.2166 16.8191 0.622112 2.83713 57.2441
12871983 10.7021 12.5612 17.2461 16.9048 0.660929 2.8445 57.4142
12872003 10.6668 12.5428 17.2461 16.8477 0.644624 2.84909 57.3034
12872012 10.6933 12.5981 17.1575 16.7811 0.667641 2.79066 57.2299
12872033 10.6933 12.5981 17.1575 16.7811 0.667641 2.79066 57.2299
12872035 10.6756 12.6165 17.1181 16.7049 0.66866 2.76571 57.1152
12872043 10.7021 12.6165 17.1477 16.7716 0.67189 2.77806 57.2378
12872055 10.7021 12.6165 17.1477 16.7716 0.67189 2.77806 57.2378
12872064 10.7725 12.7086 17.2362 16.8096 0.655955 2.75474 57.527
12872073 10.7109 12.7086 17.2067 16.8096 0.696686 2.7675 57.4358
12872091 10.7109 12.727 17.2067 16.7716 0.688368 2.75369 57.4161
12872095 10.7549 12.6717 17.1673 16.8096 0.679004 2.75688 57.4036
12872118 10.7197 12.6533 17.187 16.8001 0.674117 2.77566 57.3601
12872123 10.7109 12.6625 17.1477 16.8477 0.719768 2.77729 57.3688
12872133 10.7109 12.6625 17.1477 16.8477 0.719768 2.77729 57.3688
12872146 10.6756 12.7178 17.1575 16.7335 0.706172 2.7488 57.2844
12872155 10.6845 12.6809 17.0787 16.6954 0.705788 2.73246 57.1395
12872171 10.6845 12.6809 17.0787 16.6954 0.705788 2.73246 57.1395
12872174 10.6404 12.7178 17.0394 16.8477 0.82351 2.75889 57.2453
12872186 10.6404 12.7178 17.0394 16.8477 0.82351 2.75889 57.2453
12872195 10.6052 12.6994 17.0689 16.8382 0.81428 2.77983 57.2116
12872205 10.7109 12.6441 17.1673 16.8858 0.719258 2.79529 57.4081
12872214 10.7109 12.6441 17.1673 16.8858 0.719258 2.79529 57.4081
12872225 10.6492 12.6257 17.1673 16.8572 0.727031 2.81408 57.2995
12872236 10.6052 12.6257 17.128 16.9524 0.804788 2.83963 57.3112
12872246 10.6052 12.6257 17.128 16.9524 0.804788 2.83963 57.3112
12872258 10.5876 12.5704 17.2264 17.0292 0.777549 2.89939 57.4136
12872266 10.5876 12.5704 17.2264 17.0292 0.777549 2.89939 57.4136
12872276 10.5876 12.5428 17.2067 16.9905 0.758362 2.89569 57.3276
12872286 10.5611 12.5336 17.2362 16.9714 0.745013 2.90903 57.3024
12872297 10.5611 12.5336 17.2362 16.9714 0.745013 2.90903 57.3024
12872308 10.5259 12.4875 17.2362 17.0195 0.761694 2.94459 57.2692
12872316 10.5259 12.4047 17.3052 17.0585 0.712138 2.99325 57.2942
12872327 10.5259 12.4047 17.3052 17.0585 0.712138 2.99325 57.2942
12872337 10.5171 12.4323 17.3248 17.0974 0.735456 2.99962 57.3716
12872347 10.5171 12.4323 17.3248 17.0974 0.735456 2.99962 57.3716
12872357 10.4466 12.3954 17.3839 17.1559 0.749707 3.05786 57.3819
12872368 10.5259 12.3954 17.3347 17.1754 0.744462 3.02674 57.4314
12872377 10.5259 12.3954 17.3347 17.1754 0.744462 3.02674 57.4314
12872388 10.5171 12.3402 17.3445 17.1072 0.691748 3.03471 57.309
12872398 10.5083 12.4415 17.3347 17.1266 0.751233 3.00766 57.4111
12872410 10.5083 12.4415 17.3347 17.1266 0.751233 3.00766 57.4111
12872418 10.5259 12.3862 17.3642 17.0487 0.673714 3.00936 57.3251
12872440 10.5523 12.4047 17.3642 17.0487 0.6697 2.99528 57.3699
12872448 10.5523 12.3862 17.4036 16.981 0.615492 2.99512 57.3231
12872458 10.5523 12.3862 17.4036 16.981 0.615492 2.99512 57.3231
12872468 10.5435 12.3678 17.3347 17.0097 0.654674 2.99527 57.2558
12872479 10.5171 12.3494 17.4725 17.0682 0.621876 3.05036 57.4072
12872491 10.5171 12.3494 17.4725 17.0682 0.621876 3.05036 57.4072
12872498 10.5699 12.4231 17.4134 17.0682 0.655895 2.99835 57.4747
12872508 10.5699 12.4231 17.4134 17.0682 0.655895 2.99835 57.4747
12872519 10.4995 12.377 17.3937 17.1364 0.705579 3.04502 57.4066
12872528 10.5523 12.377 17.4134 17.0487 0.635973 3.01424 57.3915
12872540 10.5523 12.377 17.4134 17.0487 0.635973 3.01424 57.3915
12872548 10.5083 12.3402 17.3937 17.0292 0.640541 3.03148 57.2715
12872562 10.5259 12.3862 17.4528 17 0.613409 3.01769 57.365
12872568 10.5259 12.3862 17.4528 17 0.613409 3.01769 57.365
12872578 10.5171 12.3586 17.4528 17.0097 0.609735 3.03118 57.3383
12872600 10.4731 12.2757 17.443 17.0682 0.623432 3.08131 57.2599
12872610 10.4907 12.3126 17.5512 17.0779 0.587031 3.08866 57.4324
12872620 10.4907 12.3126 17.5512 17.0779 0.587031 3.08866 57.4324
12872630 10.4995 12.2297 17.5611 17.0779 0.543439 3.11406 57.3682
12872640 10.4907 12.2021 17.5512 17.0779 0.539967 3.12353 57.3219
12872650 10.4907 12.2021 17.5512 17.0779 0.539967 3.12353 57.3219
12872659 10.5083 12.2757 17.5906 17.1364 0.570852 3.11496 57.511
12872671 10.5083 12.2757 17.5906 17.1364 0.570852 3.11496 57.511
12872680 10.4819 12.1836 17.5414 17.1266 0.561199 3.14019 57.3336
12872692 10.4378 12.1836 17.5414 17.2046 0.614026 3.17023 57.3674
12872700 10.4378 12.1836 17.5414 17.2046 0.614026 3.17023 57.3674
12872710 10.4819 12.1468 17.5611 17.1461 0.545025 3.15995 57.3359
12872720 10.3762 12.1284 17.5512 17.1656 0.597063 3.20133 57.2214
12872731 10.3762 12.1284 17.5512 17.1656 0.597063 3.20133 57.2214
12872747 10.4378 12.11 17.5906 17.1948 0.556555 3.20172 57.3333
12872762 10.4026 12.1192 17.5414 17.1948 0.598183 3.19985 57.258
12872774 10.4466 12.11 17.6497 17.2143 0.534642 3.21507 57.4206
12872781 10.4466 12.11 17.6497 17.2143 0.534642 3.21507 57.4206
12872791 10.4378 12.156 17.6103 17.2046 0.571543 3.19317 57.4087
12872804 10.4466 12.1468 17.5906 17.2046 0.57247 3.18925 57.3886
12872812 10.4466 12.1468 17.5906 17.2046 0.57247 3.18925 57.3886
12872828 10.4642 12.1928 17.6202 17.1754 0.558636 3.16916 57.4526
12872832 10.4819 12.1928 17.6398 17.1754 0.542054 3.16764 57.4899
12872844 10.4819 12.2297 17.6398 17.1461 0.54529 3.14998 57.4975
12872854 10.4819 12.156 17.5709 17.2046 0.569466 3.17112 57.4134
12872881 10.4378 12.1836 17.5512 17.1364 0.580606 3.15818 57.3091
12872884 10.429 12.2573 17.4823 17.0877 0.625971 3.11328 57.2563
12872892 10.429 12.2573 17.4823 17.0877 0.625971 3.11328 57.2563
12872907 10.5523 12.2849 17.443 17.0195 0.571176 3.04325 57.2997
12872922 10.4466 12.2113 17.4331 17.0877 0.620508 3.11206 57.1787
12872923 10.4466 12.2113 17.4331 17.0877 0.620508 3.11206 57.1787
12872935 10.4819 12.2573 17.5119 17.1364 0.609875 3.11281 57.3874
12872943 10.4819 12.2573 17.5119 17.1364 0.609875 3.11281 57.3874
12872962 10.4554 12.2389 17.5316 17.1169 0.596765 3.12702 57.3428
12872965 10.4026 12.2573 17.5119 17.2143 0.678378 3.15398 57.3861
12872990 10.4554 12.2665 17.5119 17.2436 0.671029 3.1404 57.4774
12872995 10.4466 12.2573 17.5316 17.1754 0.633365 3.13607 57.4109
12873007 10.4466 12.2573 17.5316 17.1754 0.633365 3.13607 57.4109
12873015 10.4466 12.2665 17.4823 17.1461 0.646859 3.11693 57.3416
12873036 10.4114 12.2757 17.4528 17.0974 0.659075 3.10892 57.2374
12873045 10.4731 12.2481 17.4331 17.0974 0.628519 3.09407 57.2517
12873058 10.4731 12.2481 17.4331 17.0974 0.628519 3.09407 57.2517
12873066 10.4995 12.2481 17.3741 17.1072 0.647283 3.07545 57.2288
12873080 10.5083 12.3034 17.3642 17.1364 0.683638 3.05928 57.3123
12873086 10.5083 12.3034 17.3642 17.1364 0.683638 3.05928 57.3123
12873096 10.4995 12.3218 17.4331 17.0877 0.643879 3.06046 57.3421
12873106 10.4995 12.3218 17.4331 17.0877 0.643879 3.06046 57.3421
12873116 10.4554 12.3126 17.3937 17.1266 0.693873 3.07716 57.2884
12873126 10.4907 12.3218 17.4036 17.1559 0.689963 3.07128 57.3719
12873149 10.429 12.2849 17.4233 17.1754 0.701421 3.11049 57.3126
12873156 10.4114 12.2757 17.4627 17.2241 0.708404 3.13721 57.3738
12873172 10.4114 12.2757 17.4627 17.2241 0.708404 3.13721 57.3738
12873176 10.429 12.2573 17.443 17.263 0.718024 3.14145 57.3923
12873198 10.385 12.2573 17.4823 17.2923 0.732478 3.16953 57.4169
12873210 10.429 12.2481 17.4922 17.263 0.692093 3.15452 57.4323
12873218 10.429 12.2481 17.4922 17.263 0.692093 3.15452 57.4323
12873227 10.4202 12.2665 17.4725 17.341 0.745562 3.16349 57.5002
12873241 10.3674 12.1744 17.502 17.3215 0.708851 3.21145 57.3653
12873247 10.3674 12.1744 17.502 17.3215 0.708851 3.21145 57.3653
12873257 10.3585 12.1836 17.4922 17.3605 0.737593 3.21731 57.3948
12873268 10.3145 12.0455 17.6005 17.3799 0.658557 3.30144 57.3404
12873288 10.3145 12.1008 17.63 17.4189 0.685284 3.29779 57.4642
12873298 10.3145 12.1008 17.63 17.4189 0.685284 3.29779 57.4642
12873314 10.2617 12.0547 17.6595 17.4774 0.70096 3.3472 57.4533
12873318 10.2969 12.0731 17.6202 17.4676 0.706479 3.32011 57.4578
12873328 10.2969 12.0731 17.6202 17.4676 0.706479 3.32011 57.4578
12873338 10.244 12.0271 17.6989 17.5553 0.71249 3.3854 57.5253
12873349 10.2352 11.9074 17.6694 17.4871 0.650042 3.40683 57.2991
12873370 10.2 11.9074 17.6792 17.5748 0.698614 3.43784 57.3614
12873390 10.1912 11.8521 17.6595 17.6235 0.708616 3.4643 57.3263
12873405 10.2352 11.8613 17.6398 17.7014 0.734574 3.45889 57.4378
12873420 10.244 11.8797 17.6497 17.6819 0.725767 3.4482 57.4554
12873430 10.1648 11.8613 17.6989 17.7599 0.764349 3.5051 57.4849
12873440 10.1648 11.8613 17.6989 17.7599 0.764349 3.5051 57.4849
12873454 10.1824 11.8337 17.758 17.7112 0.697798 3.5104 57.4852
12873472 10.1736 11.7324 17.6989 17.6332 0.65217 3.51851 57.2381
12873481 10.1912 11.8061 17.7284 17.7209 0.699502 3.5125 57.4466
12873491 10.1912 11.8061 17.7284 17.7209 0.699502 3.5125 57.4466
12873503 10.1736 11.8245 17.7087 17.7014 0.71575 3.50441 57.4082
12873511 10.1472 11.8245 17.6792 17.7112 0.74496 3.50896 57.362
12873526 10.1472 11.8245 17.6792 17.7112 0.74496 3.50896 57.362
12873532 10.1383 11.8613 17.6891 17.7891 0.79293 3.51749 57.4778
12873542 10.1383 11.8613 17.6891 17.7891 0.79293 3.51749 57.4778
12873552 10.1648 11.7876 17.7383 17.7891 0.72796 3.54254 57.4798
12873572 10.1736 11.76 17.7284 17.7794 0.712633 3.54471 57.4414
12873582 10.1119 11.7324 17.7973 17.8573 0.730643 3.60276 57.499
12873592 10.1295 11.6679 17.8072 17.9255 0.719935 3.63337 57.5301
12873602 10.1295 11.6679 17.8072 17.9255 0.719935 3.63337 57.5301
12873612 10.1031 11.7416 17.817 17.8476 0.725549 3.6046 57.5093
12873623 10.1031 11.7416 17.817 17.8476 0.725549 3.6046 57.5093
12873633 10.0503 11.6679 17.8269 17.8865 0.730145 3.65527 57.4316
12873644 10.0679 11.6863 17.8269 17.8963 0.734147 3.6455 57.4774
12873660 10.0679 11.6863 17.8269 17.8963 0.734147 3.6455 57.4774
12873663 10.0855 11.6863 17.7383 17.7599 0.708252 3.59516 57.27
12873673 10.1119 11.7692 17.7776 17.7307 0.701487 3.56176 57.3895
12873686 10.1119 11.7692 17.7776 17.7307 0.701487 3.56176 57.3895
12873693 10.1824 11.7784 17.7875 17.6819 0.648838 3.52827 57.4303
12873713 10.1824 11.7784 17.7875 17.6819 0.648838 3.52827 57.4303
12873713 10.1383 11.76 17.7383 17.7014 0.691009 3.5425 57.3381
12873723 10.1736 11.7416 17.8072 17.6819 0.628349 3.54693 57.4043
12873739 10.1736 11.7416 17.8072 17.6819 0.628349 3.54693 57.4043
12873743 10.1824 11.7232 17.7383 17.6138 0.618383 3.52262 57.2576
12873754 10.2088 11.7876 17.7481 17.6235 0.633723 3.49719 57.3681
12873774 10.2 11.8521 17.7481 17.5748 0.64435 3.46949 57.375
12873793 10.2 11.8521 17.7481 17.5748 0.64435 3.46949 57.375
12873796 10.2088 11.8153 17.758 17.5943 0.628647 3.4844 57.3763
12873804 10.2705 11.8245 17.7776 17.5261 0.567281 3.45185 57.3987
12873819 10.2705 11.8245 17.7776 17.5261 0.567281 3.45185 57.3987
12873824 10.2881 11.8889 17.6989 17.5261 0.621948 3.40962 57.402
12873833 10.2617 11.8429 17.7678 17.4579 0.554386 3.43304 57.3302
12873846 10.2617 11.8429 17.7678 17.4579 0.554386 3.43304 57.3302
12873853 10.3057 11.8705 17.758 17.4774 0.559223 3.41197 57.4116
12873876 10.3057 11.9166 17.758 17.4384 0.562236 3.38934 57.4186
12873886 10.3938 11.981 17.7481 17.4579 0.56313 3.34257 57.5808
12873893 10.3938 11.981 17.7481 17.4579 0.56313 3.34257 57.5808
12873903 10.4202 12.0087 17.6989 17.3507 0.539452 3.2936 57.4785
12873923 10.3938 12.0823 17.6398 17.263 0.571531 3.2486 57.379
12873933 10.4026 12.1008 17.6891 17.1851 0.520331 3.23406 57.3775
12873943 10.4026 12.1008 17.6891 17.1851 0.520331 3.23406 57.3775
12873953 10.4202 12.0731 17.6202 17.1948 0.53553 3.2251 57.3083
12873965 10.4554 12.1468 17.6497 17.1851 0.533968 3.19459 57.437
12873973 10.4554 12.1468 17.6497 17.1851 0.533968 3.19459 57.437
12873983 10.4819 12.1836 17.5611 17.1072 0.544116 3.14023 57.3338
12874003 10.4466 12.156 17.6202 17.0974 0.51755 3.17033 57.3202
12874015 10.5083 12.2389 17.6398 17.0779 0.50844 3.12467 57.465
12874025 10.5083 12.2389 17.6398 17.0779 0.50844 3.12467 57.465
12874036 10.5259 12.2113 17.5414 17.0682 0.528431 3.10543 57.3468
12874046 10.5347 12.2573 17.63 17.0292 0.488165 3.09841 57.4512
12874061 10.5347 12.2573 17.63 17.0292 0.488165 3.09841 57.4512
12874065 10.5171 12.2573 17.6005 17.0097 0.500786 3.09381 57.3846
12874075 10.4907 12.2113 17.5808 17.0097 0.501618 3.1126 57.2925
12874095 10.4907 12.2205 17.6694 16.9619 0.445727 3.11815 57.3424
12874110 10.4907 12.2205 17.6694 16.9619 0.445727 3.11815 57.3424
12874116 10.4995 12.1928 17.6103 16.9905 0.468442 3.11777 57.2931
12874126 10.5347 12.156 17.7087 17.039 0.414148 3.14867 57.4384
12874136 10.5347 12.156 17.7087 17.039 0.414148 3.14867 57.4384
12874147 10.5347 12.2573 17.6202 17.0195 0.488377 3.09436 57.4317
12874159 10.5435 12.1744 17.6202 17.0585 0.465712 3.12579 57.3966
12874176 10.5347 12.2481 17.63 17.0487 0.492549 3.10535 57.4615
12874186 10.5347 12.2481 17.63 17.0487 0.492549 3.10535 57.4615
12874215 10.5083 12.2389 17.5906 17 0.497046 3.09833 57.3378
12874216 10.5171 12.2297 17.6103 16.9619 0.464159 3.09464 57.319
12874217 10.5171 12.2297 17.6103 16.9619 0.464159 3.09464 57.319
12874233 10.5788 12.2481 17.6103 16.9714 0.448748 3.07137 57.4086
12874237 10.4642 12.2573 17.6694 16.9524 0.469148 3.11289 57.3433
12874250 10.4642 12.2573 17.6694 16.9524 0.469148 3.11289 57.3433
12874257 10.4731 12.2113 17.6792 17.0487 0.482348 3.14661 57.4122
12874279 10.4642 12.1376 17.6989 17.0585 0.450191 3.17879 57.3592
12874287 10.4466 12.0915 17.7383 17.0974 0.43751 3.2151 57.3739
12874297 10.4466 12.0915 17.7383 17.0974 0.43751 3.2151 57.3739
12874307 10.4378 12.11 17.8761 17.1948 0.42994 3.26018 57.6187
12874317 10.3674 12.0179 17.7875 17.2338 0.47766 3.30173 57.4065
12874338 10.3938 11.9718 17.8367 17.2241 0.420281 3.31603 57.4264
12874353 10.3938 11.9718 17.8367 17.2241 0.420281 3.31603 57.4264
12874358 10.3057 11.9166 17.8269 17.2533 0.452557 3.3658 57.3024
12874368 10.3057 11.8889 17.8564 17.4287 0.502571 3.41609 57.4797
12874380 10.3057 11.8889 17.8564 17.4287 0.502571 3.41609 57.4797
12874388 10.2264 11.8982 17.817 17.3799 0.538474 3.42081 57.3215
12874400 10.2176 11.9626 17.9253 17.3994 0.530007 3.4287 57.505
12874408 10.2176 11.9626 17.9253 17.3994 0.530007 3.4287 57.505
12874424 10.3145 11.9442 17.9942 17.4189 0.457066 3.42136 57.6718
12874428 10.3145 11.9442 17.9942 17.4189 0.457066 3.42136 57.6718
12874438 10.2 11.8613 17.817 17.3897 0.538689 3.44312 57.268
12874449 10.2088 11.9258 17.7678 17.5358 0.646341 3.43909 57.4382
12874460 10.2088 11.9258 17.7678 17.5358 0.646341 3.43909 57.4382
12874473 10.156 11.9074 17.758 17.6138 0.699574 3.47568 57.435
12874482 10.156 11.9166 17.7186 17.5943 0.712857 3.4609 57.3854
12874490 10.156 11.9166 17.7186 17.5943 0.712857 3.4609 57.3854
12874500 10.156 11.8613 17.6891 17.6332 0.719199 3.48058 57.3396
12874510 10.156 11.8613 17.6891 17.6332 0.719199 3.48058 57.3396
12874521 10.1472 11.9626 17.6398 17.643 0.792181 3.44288 57.3926
12874530 10.1648 11.9626 17.6891 17.6722 0.774503 3.453 57.4887
12874545 10.1648 11.9626 17.6891 17.6722 0.774503 3.453 57.4887
12874551 10.1207 11.8889 17.6891 17.7307 0.787851 3.50257 57.4294
12874568 10.0943 11.8982 17.6792 17.7599 0.820336 3.512 57.4316
12874571 10.0943 11.8982 17.6792 17.7599 0.820336 3.512 57.4316
12874581 10.1383 11.8705 17.6792 17.8378 0.821716 3.52228 57.5259
12874593 10.0326 11.8613 17.6989 17.8183 0.84832 3.5594 57.4112
12874602 10.0326 11.8613 17.6989 17.8183 0.84832 3.5594 57.4112
12874616 10.0767 11.7784 17.7383 17.7989 0.767669 3.57592 57.3923
12874622 10.0767 11.7784 17.7383 17.7989 0.767669 3.57592 57.3923
12874632 9.9886 11.8061 17.7875 17.8183 0.805008 3.60916 57.4005
12874642 10.0062 11.7508 17.8662 17.8573 0.75489 3.64467 57.4806
12874662 9.9886 11.714 17.9351 17.8963 0.732827 3.68361 57.534
12874673 9.96218 11.6863 17.9745 17.8378 0.690675 3.69743 57.4609
12874683 9.96218 11.6863 17.9745 17.8378 0.690675 3.69743 57.4609
12874692 9.94456 11.6679 18.0336 17.8963 0.689083 3.73222 57.5424
12874702 9.94456 11.6679 18.0336 17.8963 0.689083 3.73222 57.5424
12874712 9.97098 11.6311 18.0533 17.8281 0.624058 3.7261 57.4834
12874723 10.0326 11.6863 18.0533 17.7696 0.595245 3.6766 57.5419
12874732 10.0326 11.6863 18.0533 17.7696 0.595245 3.6766 57.5419
12874745 10.0767 11.7048 18.0533 17.643 0.52968 3.63136 57.4777
12874752 10.0767 11.7048 18.0533 17.643 0.52968 3.63136 57.4777
12874762 10.0326 11.6956 18.073 17.4871 0.470018 3.62165 57.2883
12874772 10.0326 11.6956 18.0533 17.5456 0.503775 3.62934 57.327
12874782 10.0326 11.6956 18.0533 17.5456 0.503775 3.62934 57.327
12874793 10.1031 11.76 18.0828 17.4287 0.436938 3.56822 57.3746
12874802 10.156 11.7048 18.1419 17.4579 0.376269 3.58656 57.4605
12874815 10.156 11.7048 18.1419 17.4579 0.376269 3.58656 57.4605
12874822 10.1824 11.6956 18.2108 17.3507 0.284263 3.57339 57.4394
12874846 10.2176 11.7232 18.1616 17.3605 0.306493 3.54522 57.4628
12874855 10.2264 11.8337 18.073 17.302 0.364026 3.47736 57.4351
12874870 10.2264 11.8337 18.073 17.302 0.364026 3.47736 57.4351
12874873 10.2881 11.8429 18.0533 17.263 0.332734 3.4428 57.4473
12874885 10.2793 11.8245 17.9844 17.1851 0.325608 3.42194 57.2732
12874901 10.2793 11.8245 17.9844 17.1851 0.325608 3.42194 57.2732
12874903 10.2881 11.9534 17.945 17.1754 0.390372 3.36779 57.3618
12874923 10.2528 11.9258 17.9548 17.0585 0.339451 3.36621 57.1919
12874933 10.3145 12.0455 17.9548 17.0487 0.359491 3.30616 57.3636
12874945 10.3145 12.0455 17.9548 17.0487 0.359491 3.30616 57.3636
12874953 10.4819 12.0823 17.9056 16.9429 0.277701 3.20947 57.4127
12874969 10.4731 12.1376 17.8958 16.8477 0.268713 3.17314 57.3541
12874985 10.4907 12.1836 17.9647 16.8287 0.24229 3.16326 57.4677
12874996 10.4907 12.1836 17.9647 16.8287 0.24229 3.16326 57.4677
12875005 10.4731 12.1468 17.9056 16.7525 0.227246 3.15259 57.278
12875018 10.5523 12.1652 17.8859 16.7811 0.22133 3.12352 57.3846
12875025 10.5523 12.1652 17.8859 16.7811 0.22133 3.12352 57.3846
12875035 10.5435 12.1836 17.9647 16.6859 0.157434 3.11708 57.3777
12875045 10.5083 12.2113 17.8958 16.6288 0.190404 3.09333 57.2441
12875056 10.5083 12.2113 17.8958 16.6288 0.190404 3.09333 57.2441
12875067 10.6228 12.2481 17.9056 16.6002 0.139391 3.04172 57.3767
12875075 10.6228 12.2481 17.9056 16.6002 0.139391 3.04172 57.3767
12875092 10.5876 12.2573 17.9155 16.6193 0.162753 3.05592 57.3796
12875097 10.6492 12.2481 17.8958 16.6288 0.144497 3.03732 57.4219
12875107 10.6492 12.2481 17.8958 16.6288 0.144497 3.03732 57.4219
12875126 10.6668 12.3126 17.8269 16.505 0.14129 2.97127 57.3113
12875144 10.6668 12.3126 17.8269 16.505 0.14129 2.97127 57.3113
12875146 10.6845 12.3862 17.8564 16.5336 0.164887 2.95488 57.4607
12875156 10.6845 12.3862 17.8564 16.5336 0.164887 2.95488 57.4607
12875170 10.6756 12.3402 17.8072 16.4765 0.145662 2.94972 57.2995
12875176 10.7373 12.3586 17.8564 16.4955 0.113332 2.93901 57.4478
12875196 10.6756 12.3034 17.8269 16.5241 0.141686 2.97539 57.33
12875207 10.6668 12.3218 17.7087 16.467 0.180689 2.93551 57.1643
12875223 10.6668 12.3218 17.7087 16.467 0.180689 2.93551 57.1643
12875226 10.6404 12.3402 17.7383 16.5146 0.207949 2.95427 57.2334
12875236 10.6404 12.3402 17.7383 16.5146 0.207949 2.95427 57.2334
12875248 10.614 12.2941 17.6989 16.6097 0.258231 2.98877 57.2168
12875256 10.6316 12.3218 17.7284 16.6478 0.26581 2.98873 57.3296
12875266 10.6316 12.3218 17.7284 16.6478 0.26581 2.98873 57.3296
12875278 10.6492 12.2757 17.7087 16.6002 0.226259 2.98355 57.2339
12875286 10.5788 12.2665 17.7087 16.8001 0.339615 3.05041 57.3541
12875301 10.5788 12.2665 17.7087 16.8001 0.339615 3.05041 57.3541
12875307 10.5876 12.3126 17.7087 16.8953 0.396299 3.05297 57.5042
12875327 10.5699 12.2665 17.6891 16.9143 0.401223 3.07284 57.4399
12875337 10.5347 12.3034 17.6694 16.9619 0.461638 3.07813 57.4694
12875347 10.5347 12.3034 17.6694 16.9619 0.461638 3.07813 57.4694
12875357 10.5347 12.2941 17.6202 16.9048 0.455111 3.05893 57.3538
12875367 10.5083 12.2849 17.6202 17.0195 0.511894 3.09398 57.4329
12875377 10.5083 12.2849 17.6202 17.0195 0.511894 3.09398 57.4329
12875387 10.4642 12.3678 17.6005 16.9524 0.546974 3.06373 57.3849
12875397 10.4642 12.3678 17.6005 16.9524 0.546974 3.06373 57.3849
12875409 10.4819 12.2573 17.6005 16.9334 0.483805 3.08906 57.273
12875418 10.4907 12.2573 17.5906 17.0097 0.516912 3.1001 57.3484
12875430 10.4907 12.2573 17.5906 17.0097 0.516912 3.1001 57.3484
12875438 10.4995 12.2665 17.5808 17.0779 0.550374 3.10651 57.4247
12875452 10.4907 12.2481 17.443 17.1559 0.64109 3.10269 57.3376
12875459 10.4907 12.2481 17.443 17.1559 0.64109 3.10269 57.3376
12875468 10.5083 12.2573 17.4528 17.0877 0.603729 3.0821 57.3061
12875478 10.5083 12.2573 17.4528 17.0877 0.603729 3.0821 57.3061
12875496 10.429 12.2757 17.4233 17.1754 0.697514 3.1134 57.3034
12875500 10.4731 12.2297 17.4036 17.1851 0.671193 3.11197 57.2914
12875510 10.4731 12.2297 17.4036 17.1851 0.671193 3.11197 57.2914
12875521 10.4907 12.2665 17.4823 17.2241 0.660235 3.11916 57.4636
12875530 10.4378 12.2573 17.5119 17.2241 0.666749 3.14485 57.4311
12875542 10.4378 12.2573 17.5119 17.2241 0.666749 3.14485 57.4311
12875550 10.4819 12.2941 17.3839 17.2338 0.72403 3.09486 57.3937
12875565 10.429 12.2941 17.3445 17.2436 0.769553 3.10539 57.3112
12875570 10.429 12.3218 17.3445 17.2436 0.781226 3.09667 57.3389
12875580 10.5171 12.3494 17.3544 17.2728 0.761265 3.06833 57.4937
12875590 10.5171 12.3494 17.3544 17.2728 0.761265 3.06833 57.4937
12875600 10.5083 12.4139 17.2067 17.263 0.854605 3.01809 57.3919
12875610 10.4554 12.4691 17.1673 17.2241 0.903067 3.00095 57.316
12875621 10.4554 12.4691 17.1673 17.2241 0.903067 3.00095 57.316
12875633 10.5171 12.5244 17.0591 17.1851 0.931001 2.93338 57.2856
12875641 10.5171 12.5244 17.0591 17.1851 0.931001 2.93338 57.2856
12875655 10.5259 12.5152 17.0984 17.1266 0.880742 2.92948 57.2662
12875661 10.5171 12.6165 17.0295 17.1072 0.950319 2.8819 57.2703
12875682 10.4819 12.5981 16.948 17.0877 0.987411 2.87726 57.1156
12875692 10.5788 12.6349 16.948 17.1461 0.983396 2.84791 57.3078
12875703 10.5788 12.6349 16.948 17.1461 0.983396 2.84791 57.3078
12875712 10.5964 12.6073 16.9376 17.0877 0.943995 2.83641 57.2289
12875725 10.5964 12.6349 16.9896 17.1656 0.96474 2.85537 57.3865
12875732 10.5964 12.6349 16.9896 17.1656 0.96474 2.85537 57.3865
12875747 10.5259 12.6717 16.9792 17.1072 0.992325 2.85125 57.284
12875752 10.5259 12.6717 16.9792 17.1072 0.992325 2.85125 57.284
12875762 10.614 12.5888 16.9688 17.0585 0.901839 2.83708 57.2301
12875772 10.6492 12.6349 16.948 17.0487 0.910586 2.80529 57.2808
12875782 10.6492 12.6349 16.948 17.0487 0.910586 2.80529 57.2808
12875793 10.658 12.7086 16.896 16.9714 0.92862 2.75209 57.2341
12875802 10.6756 12.773 16.8648 16.9429 0.949866 2.71386 57.2564
12875815 10.6756 12.773 16.8648 16.9429 0.949866 2.71386 57.2564
12875822 10.6845 12.773 16.8856 16.9334 0.932458 2.71356 57.2765
12875843 10.6404 12.7454 16.8856 16.8953 0.924772 2.72758 57.1667
12875858 10.7109 12.8559 16.9064 16.8572 0.913924 2.66792 57.3304
12875873 10.7461 12.8651 16.8544 16.8953 0.941345 2.65124 57.361
12875883 10.7021 12.773 16.9376 16.8382 0.860915 2.69884 57.2509
12875893 10.7021 12.773 16.9376 16.8382 0.860915 2.69884 57.2509
12875903 10.8078 12.8283 16.8752 16.8667 0.87665 2.64193 57.378
12875920 10.8078 12.8283 16.8752 16.8667 0.87665 2.64193 57.378
12875930 10.7197 12.8283 16.9272 16.8953 0.904939 2.68637 57.3705
12875933 10.7813 12.8651 16.8648 16.8572 0.904748 2.63444 57.3685
12875954 10.8166 12.8559 16.9584 16.8763 0.850838 2.65068 57.5072
12875965 10.7637 12.8559 16.8648 16.7906 0.880811 2.62831 57.2751
12875975 10.7637 12.8559 16.8648 16.7906 0.880811 2.62831 57.2751
12875985 10.7637 12.8467 16.8648 16.6764 0.828719 2.60643 57.1516
12875996 10.7637 12.8467 16.8648 16.6764 0.828719 2.60643 57.1516
12876004 10.8606 12.8559 16.8336 16.6193 0.778785 2.55461 57.1694
12876016 10.8694 12.8375 16.896 16.6478 0.751013 2.57732 57.2508
12876024 10.8694 12.8375 16.896 16.6478 0.751013 2.57732 57.2508
12876037 10.8694 12.8375 16.8544 16.5812 0.741482 2.5538 57.1425
12876044 10.7813 12.8835 16.8752 16.6573 0.82359 2.5878 57.1974
12876054 10.7813 12.8835 16.8752 16.6573 0.82359 2.5878 57.1974
12876065 10.8606 12.9296 16.896 16.6002 0.773808 2.54145 57.2864
12876075 10.8606 12.9296 16.896 16.6002 0.773808 2.54145 57.2864
12876085 10.8606 12.8651 16.9064 16.6193 0.749907 2.56761 57.2514
12876095 10.9223 12.9019 16.9272 16.6002 0.720412 2.53782 57.3517
12876104 10.9223 12.9019 16.9272 16.6002 0.720412 2.53782 57.3517
12876114 10.9487 12.9388 16.9064 16.5431 0.709301 2.50154 57.337
12876133 10.9927 12.9572 16.8752 16.4384 0.666934 2.45279 57.2636
12876149 10.9663 13.0033 16.8336 16.4003 0.700843 2.42933 57.2035
12876156 10.9663 13.0033 16.8336 16.4003 0.700843 2.42933 57.2035
12876166 10.9663 12.9572 16.8752 16.3337 0.634211 2.43786 57.1325
12876178 11.0104 12.9756 16.9168 16.2671 0.575268 2.41331 57.1699
12876186 11.0104 12.9756 16.9168 16.2671 0.575268 2.41331 57.1699
12876204 11.0104 13.0033 16.896 16.3052 0.612608 2.4087 57.2148
12876207 11.0016 12.948 16.9272 16.3242 0.587144 2.43925 57.201
12876232 11.0192 12.9296 16.9688 16.3147 0.548759 2.44654 57.2322
12876246 10.9839 12.9664 16.9064 16.3623 0.628427 2.44281 57.219
12876258 11.1337 12.9664 16.9584 16.2766 0.501838 2.38988 57.3351
12876266 11.1337 12.9664 16.9584 16.2766 0.501838 2.38988 57.3351
12876284 11.1249 13.0033 16.9064 16.2671 0.540575 2.36783 57.3016
12876297 11.0632 12.9756 16.9168 16.21 0.527221 2.38464 57.1656
12876311 11.0896 13.0033 16.9584 16.2576 0.529045 2.38787 57.3089
12876327 11.0632 12.9019 16.9064 16.1814 0.488025 2.39847 57.053
12876339 11.0456 12.948 17 16.2385 0.498375 2.42301 57.2321
12876348 11.0456 12.948 17 16.2385 0.498375 2.42301 57.2321
12876364 11.072 12.8927 17.0689 16.3052 0.460839 2.4615 57.3388
12876368 11.0368 12.8651 17.0394 16.2956 0.473726 2.47212 57.2369
12876391 11.0544 12.9019 17.0984 16.4194 0.508264 2.49541 57.4742
12876398 11.0544 12.9019 17.0984 16.4194 0.508264 2.49541 57.4742
